Data from USB4F104151__154__13-58-35-854.txt Node

Date: Thu Mar 13 13:58:35 EDT 2025
User: louis
Spectrometer: USB4F10415
Trigger mode: 4
Integration Time (sec): 1.000000E-2
Scans to average: 1
Electric dark correction enabled: true
Nonlinearity correction enabled: false
Boxcar width: 0
XAxis mode: Wavelengths
Number of Pixels in Spectrum: 3648
>>>>>Begin Spectral Data<<<<<
178.204	-21.16
178.424	-21.16
178.644	-21.16
178.864	-72.36
179.084	23.89
179.304	32.08
179.524	-55.98
179.744	-49.83
179.964	-8.87
180.184	30.04
180.404	42.32
180.624	-51.88
180.844	52.56
181.064	5.46
181.283	13.65
181.503	-8.87
181.723	-0.68
181.943	-25.26
182.163	-41.64
182.383	62.8
182.602	48.47
182.822	5.46
183.042	17.75
183.262	-58.03
183.482	19.8
183.701	1.37
183.921	-10.92
184.141	46.42
184.361	-31.4
184.58	-23.21
184.8	-35.5
185.02	5.46
185.239	-10.92
185.459	71
185.679	66.9
185.898	-21.16
186.118	30.04
186.338	-15.02
186.557	54.61
186.777	-0.68
186.997	-37.55
187.216	1.37
187.436	15.7
187.655	-27.31
187.875	11.61
188.095	7.51
188.314	75.09
188.534	50.52
188.753	19.8
188.973	34.13
189.192	23.89
189.412	48.47
189.631	68.95
189.851	13.65
190.07	27.99
190.29	-25.26
190.509	44.37
190.729	25.94
190.948	-0.68
191.168	89.43
191.387	25.94
191.607	40.28
191.826	-12.97
192.045	42.32
192.265	13.65
192.484	-27.31
192.704	-27.31
192.923	5.46
193.142	-2.73
193.362	-10.92
193.581	87.38
193.8	5.46
194.02	-6.83
194.239	36.18
194.458	54.61
194.678	17.75
194.897	50.52
195.116	36.18
195.335	1.37
195.555	1.37
195.774	62.8
195.993	23.89
196.212	30.04
196.432	-17.07
196.651	17.75
196.87	-21.16
197.089	27.99
197.308	7.51
197.528	-12.97
197.747	-6.83
197.966	68.95
198.185	-12.97
198.404	19.8
198.623	32.08
198.842	-66.22
199.062	50.52
199.281	-6.83
199.5	15.7
199.719	-10.92
199.938	3.41
200.157	5.46
200.376	50.52
200.595	9.56
200.814	52.56
201.033	42.32
201.252	30.04
201.471	36.18
201.69	-0.68
201.909	54.61
202.128	-55.98
202.347	38.23
202.566	85.33
202.785	25.94
203.004	30.04
203.223	44.37
203.442	-131.75
203.661	-4.78
203.879	19.8
204.098	9.56
204.317	3.41
204.536	15.7
204.755	40.28
204.974	50.52
205.193	-60.07
205.411	21.85
205.63	36.18
205.849	48.47
206.068	23.89
206.287	1.37
206.505	44.37
206.724	9.56
206.943	13.65
207.162	64.85
207.381	-17.07
207.599	-6.83
207.818	73.04
208.037	56.66
208.255	-25.26
208.474	62.8
208.693	36.18
208.911	62.8
209.13	50.52
209.349	52.56
209.567	-31.4
209.786	-0.68
210.005	5.46
210.223	19.8
210.442	42.32
210.661	44.37
210.879	21.85
211.098	50.52
211.316	11.61
211.535	17.75
211.753	21.85
211.972	7.51
212.191	-55.98
212.409	-33.45
212.628	19.8
212.846	23.89
213.065	38.23
213.283	38.23
213.502	25.94
213.72	75.09
213.938	9.56
214.157	30.04
214.375	13.65
214.594	-35.5
214.812	5.46
215.031	40.28
215.249	38.23
215.467	-43.69
215.686	21.85
215.904	-41.64
216.122	50.52
216.341	9.56
216.559	36.18
216.778	-2.73
216.996	-31.4
217.214	-17.07
217.432	42.32
217.651	5.46
217.869	-29.35
218.087	34.13
218.306	7.51
218.524	99.67
218.742	-0.68
218.96	58.71
219.179	-55.98
219.397	44.37
219.615	23.89
219.833	5.46
220.051	3.41
220.27	25.94
220.488	-43.69
220.706	21.85
220.924	-6.83
221.142	15.7
221.36	50.52
221.578	40.28
221.796	101.72
222.015	-51.88
222.233	13.65
222.451	34.13
222.669	19.8
222.887	114
223.105	17.75
223.323	-19.11
223.541	-6.83
223.759	46.42
223.977	-10.92
224.195	15.7
224.413	9.56
224.631	95.57
224.849	-43.69
225.067	19.8
225.285	75.09
225.503	32.08
225.721	30.04
225.939	5.46
226.157	9.56
226.375	144.72
226.592	17.75
226.81	-41.64
227.028	3.41
227.246	-2.73
227.464	-25.26
227.682	40.28
227.9	40.28
228.117	54.61
228.335	-4.78
228.553	-0.68
228.771	-4.78
228.989	-15.02
229.206	-4.78
229.424	36.18
229.642	11.61
229.86	48.47
230.077	3.41
230.295	-23.21
230.513	-17.07
230.731	44.37
230.948	36.18
231.166	-21.16
231.384	9.56
231.601	-0.68
231.819	-58.03
232.037	54.61
232.254	-62.12
232.472	19.8
232.689	25.94
232.907	-2.73
233.125	48.47
233.342	68.95
233.56	17.75
233.777	13.65
233.995	-10.92
234.213	64.85
234.43	11.61
234.648	44.37
234.865	-21.16
235.083	50.52
235.3	27.99
235.518	23.89
235.735	48.47
235.953	13.65
236.17	30.04
236.388	38.23
236.605	-41.64
236.822	21.85
237.04	50.52
237.257	15.7
237.475	36.18
237.692	75.09
237.909	13.65
238.127	42.32
238.344	52.56
238.562	-53.93
238.779	-43.69
238.996	30.04
239.214	48.47
239.431	56.66
239.648	-2.73
239.865	66.9
240.083	56.66
240.3	54.61
240.517	27.99
240.735	77.14
240.952	19.8
241.169	107.86
241.386	62.8
241.603	21.85
241.821	-25.26
242.038	-31.4
242.255	-6.83
242.472	17.75
242.689	25.94
242.907	21.85
243.124	-29.35
243.341	75.09
243.558	27.99
243.775	-15.02
243.992	77.14
244.209	-10.92
244.426	114
244.643	66.9
244.86	1.37
245.078	46.42
245.295	40.28
245.512	1.37
245.729	91.48
245.946	34.13
246.163	95.57
246.38	34.13
246.597	56.66
246.814	23.89
247.031	23.89
247.248	56.66
247.464	-10.92
247.681	64.85
247.898	11.61
248.115	40.28
248.332	15.7
248.549	54.61
248.766	36.18
248.983	9.56
249.2	23.89
249.417	71
249.633	30.04
249.85	-43.69
250.067	73.04
250.284	15.7
250.501	73.04
250.717	-0.68
250.934	60.76
251.151	23.89
251.368	-25.26
251.585	34.13
251.801	-0.68
252.018	1.37
252.235	83.28
252.451	-23.21
252.668	17.75
252.885	27.99
253.102	-2.73
253.318	7.51
253.535	-33.45
253.752	38.23
253.968	34.13
254.185	-12.97
254.401	3.41
254.618	-15.02
254.835	-41.64
255.051	5.46
255.268	34.13
255.484	21.85
255.701	-15.02
255.917	-19.11
256.134	9.56
256.351	30.04
256.567	1.37
256.784	27.99
257	75.09
257.217	52.56
257.433	95.57
257.65	42.32
257.866	54.61
258.082	-19.11
258.299	-43.69
258.515	-0.68
258.732	5.46
258.948	-12.97
259.165	-21.16
259.381	15.7
259.597	54.61
259.814	56.66
260.03	19.8
260.246	32.08
260.463	-8.87
260.679	-15.02
260.895	15.7
261.112	27.99
261.328	1.37
261.544	79.19
261.761	44.37
261.977	62.8
262.193	-55.98
262.409	46.42
262.626	-33.45
262.842	-12.97
263.058	48.47
263.274	-6.83
263.49	-49.83
263.707	30.04
263.923	9.56
264.139	-6.83
264.355	5.46
264.571	62.8
264.787	-25.26
265.004	13.65
265.22	-37.55
265.436	75.09
265.652	15.7
265.868	32.08
266.084	17.75
266.3	50.52
266.516	15.7
266.732	-53.93
266.948	27.99
267.164	36.18
267.38	15.7
267.596	27.99
267.812	83.28
268.028	25.94
268.244	-12.97
268.46	32.08
268.676	-15.02
268.892	7.51
269.108	56.66
269.324	-47.79
269.54	25.94
269.756	-19.11
269.972	13.65
270.188	40.28
270.403	48.47
270.619	23.89
270.835	11.61
271.051	79.19
271.267	-49.83
271.483	13.65
271.698	27.99
271.914	99.67
272.13	42.32
272.346	-51.88
272.562	11.61
272.777	40.28
272.993	-27.31
273.209	-19.11
273.425	-39.59
273.64	-12.97
273.856	52.56
274.072	-10.92
274.287	-6.83
274.503	-27.31
274.719	7.51
274.934	13.65
275.15	19.8
275.366	21.85
275.581	-23.21
275.797	54.61
276.012	5.46
276.228	27.99
276.444	25.94
276.659	23.89
276.875	71
277.09	40.28
277.306	-35.5
277.521	30.04
277.737	23.89
277.952	21.85
278.168	-27.31
278.383	71
278.599	-39.59
278.814	44.37
279.03	7.51
279.245	56.66
279.461	42.32
279.676	15.7
279.892	9.56
280.107	19.8
280.322	-12.97
280.538	79.19
280.753	13.65
280.969	91.48
281.184	46.42
281.399	30.04
281.615	21.85
281.83	-49.83
282.045	9.56
282.26	9.56
282.476	89.43
282.691	-19.11
282.906	48.47
283.122	-6.83
283.337	17.75
283.552	62.8
283.767	87.38
283.983	17.75
284.198	3.41
284.413	9.56
284.628	27.99
284.843	32.08
285.058	25.94
285.274	97.62
285.489	40.28
285.704	32.08
285.919	44.37
286.134	56.66
286.349	1.37
286.564	36.18
286.779	11.61
286.995	17.75
287.21	-4.78
287.425	42.32
287.64	-2.73
287.855	54.61
288.07	23.89
288.285	21.85
288.5	36.18
288.715	32.08
288.93	40.28
289.145	9.56
289.36	1.37
289.575	-2.73
289.79	40.28
290.004	-21.16
290.219	5.46
290.434	-17.07
290.649	23.89
290.864	60.76
291.079	-17.07
291.294	30.04
291.509	-51.88
291.724	19.8
291.938	-25.26
292.153	40.28
292.368	15.7
292.583	32.08
292.798	21.85
293.012	-41.64
293.227	21.85
293.442	21.85
293.657	89.43
293.871	1.37
294.086	25.94
294.301	54.61
294.516	7.51
294.73	25.94
294.945	-76.46
295.16	-6.83
295.374	-47.79
295.589	23.89
295.804	30.04
296.018	21.85
296.233	107.86
296.447	32.08
296.662	21.85
296.877	34.13
297.091	62.8
297.306	-21.16
297.52	42.32
297.735	54.61
297.949	34.13
298.164	38.23
298.378	54.61
298.593	15.7
298.807	21.85
299.022	27.99
299.236	-4.78
299.451	-8.87
299.665	15.7
299.88	32.08
300.094	48.47
300.309	60.76
300.523	3.41
300.737	30.04
300.952	75.09
301.166	17.75
301.381	3.41
301.595	-2.73
301.809	-0.68
302.024	-4.78
302.238	71
302.452	83.28
302.667	13.65
302.881	-19.11
303.095	19.8
303.309	38.23
303.524	7.51
303.738	-19.11
303.952	21.85
304.166	7.51
304.381	38.23
304.595	15.7
304.809	1.37
305.023	50.52
305.237	81.24
305.452	7.51
305.666	15.7
305.88	-4.78
306.094	5.46
306.308	30.04
306.522	-15.02
306.736	32.08
306.95	60.76
307.164	42.32
307.379	-29.35
307.593	38.23
307.807	68.95
308.021	54.61
308.235	89.43
308.449	23.89
308.663	-0.68
308.877	46.42
309.091	48.47
309.305	40.28
309.519	-8.87
309.733	7.51
309.947	-41.64
310.161	38.23
310.374	21.85
310.588	15.7
310.802	-0.68
311.016	23.89
311.23	97.62
311.444	71
311.658	13.65
311.872	30.04
312.085	-19.11
312.299	42.32
312.513	107.86
312.727	17.75
312.941	3.41
313.154	25.94
313.368	21.85
313.582	15.7
313.796	-27.31
314.009	19.8
314.223	7.51
314.437	44.37
314.651	40.28
314.864	38.23
315.078	5.46
315.292	1.37
315.505	54.61
315.719	71
315.933	54.61
316.146	-15.02
316.36	17.75
316.573	87.38
316.787	30.04
317.001	-15.02
317.214	-6.83
317.428	77.14
317.641	38.23
317.855	50.52
318.068	23.89
318.282	56.66
318.495	38.23
318.709	-0.68
318.922	17.75
319.136	95.57
319.349	48.47
319.563	38.23
319.776	56.66
319.99	52.56
320.203	48.47
320.417	23.89
320.63	79.19
320.843	9.56
321.057	58.71
321.27	-10.92
321.483	58.71
321.697	15.7
321.91	71
322.124	27.99
322.337	54.61
322.55	11.61
322.763	44.37
322.977	60.76
323.19	48.47
323.403	15.7
323.617	19.8
323.83	34.13
324.043	-0.68
324.256	5.46
324.469	79.19
324.683	77.14
324.896	46.42
325.109	7.51
325.322	46.42
325.535	-2.73
325.748	3.41
325.962	116.05
326.175	-4.78
326.388	44.37
326.601	58.71
326.814	42.32
327.027	27.99
327.24	42.32
327.453	30.04
327.666	3.41
327.879	42.32
328.092	73.04
328.305	23.89
328.518	54.61
328.731	21.85
328.944	87.38
329.157	95.57
329.37	-0.68
329.583	64.85
329.796	13.65
330.009	64.85
330.222	62.8
330.435	5.46
330.648	73.04
330.861	44.37
331.073	75.09
331.286	25.94
331.499	68.95
331.712	25.94
331.925	87.38
332.138	5.46
332.35	-2.73
332.563	38.23
332.776	44.37
332.989	23.89
333.202	-60.07
333.414	54.61
333.627	73.04
333.84	46.42
334.053	25.94
334.265	23.89
334.478	-19.11
334.691	95.57
334.903	36.18
335.116	38.23
335.329	81.24
335.541	-31.4
335.754	97.62
335.966	-0.68
336.179	27.99
336.392	44.37
336.604	56.66
336.817	30.04
337.029	15.7
337.242	-4.78
337.454	95.57
337.667	7.51
337.88	-0.68
338.092	-21.16
338.305	73.04
338.517	32.08
338.729	54.61
338.942	32.08
339.154	7.51
339.367	-12.97
339.579	13.65
339.792	87.38
340.004	77.14
340.217	11.61
340.429	142.68
340.641	23.89
340.854	15.7
341.066	15.7
341.278	54.61
341.491	-23.21
341.703	64.85
341.915	32.08
342.128	40.28
342.34	11.61
342.552	44.37
342.764	-8.87
342.977	25.94
343.189	13.65
343.401	-82.6
343.613	66.9
343.826	111.96
344.038	126.29
344.25	66.9
344.462	79.19
344.674	15.7
344.886	54.61
345.099	13.65
345.311	46.42
345.523	62.8
345.735	34.13
345.947	54.61
346.159	30.04
346.371	89.43
346.583	-68.27
346.795	-23.21
347.007	25.94
347.219	17.75
347.431	-37.55
347.643	40.28
347.855	32.08
348.067	25.94
348.279	-37.55
348.491	54.61
348.703	128.34
348.915	-15.02
349.127	40.28
349.339	40.28
349.551	5.46
349.763	-31.4
349.975	60.76
350.187	62.8
350.399	30.04
350.61	13.65
350.822	-15.02
351.034	38.23
351.246	7.51
351.458	46.42
351.669	-25.26
351.881	91.48
352.093	52.56
352.305	13.65
352.517	89.43
352.728	34.13
352.94	27.99
353.152	32.08
353.363	17.75
353.575	62.8
353.787	56.66
353.999	46.42
354.21	-27.31
354.422	68.95
354.633	83.28
354.845	50.52
355.057	71
355.268	56.66
355.48	40.28
355.692	-6.83
355.903	7.51
356.115	52.56
356.326	3.41
356.538	46.42
356.749	13.65
356.961	89.43
357.172	50.52
357.384	-37.55
357.595	-15.02
357.807	34.13
358.018	13.65
358.23	40.28
358.441	30.04
358.653	95.57
358.864	44.37
359.075	54.61
359.287	95.57
359.498	-0.68
359.709	7.51
359.921	44.37
360.132	30.04
360.344	54.61
360.555	62.8
360.766	25.94
360.977	99.67
361.189	40.28
361.4	17.75
361.611	56.66
361.823	27.99
362.034	87.38
362.245	17.75
362.456	21.85
362.667	62.8
362.879	52.56
363.09	1.37
363.301	58.71
363.512	9.56
363.723	54.61
363.935	-10.92
364.146	21.85
364.357	34.13
364.568	46.42
364.779	-19.11
364.99	38.23
365.201	3.41
365.412	-2.73
365.623	25.94
365.834	91.48
366.045	60.76
366.256	3.41
366.467	64.85
366.678	21.85
366.889	50.52
367.1	89.43
367.311	23.89
367.522	87.38
367.733	38.23
367.944	23.89
368.155	17.75
368.366	23.89
368.577	11.61
368.788	25.94
368.999	54.61
369.209	66.9
369.42	97.62
369.631	27.99
369.842	-8.87
370.053	87.38
370.264	64.85
370.474	48.47
370.685	56.66
370.896	38.23
371.107	34.13
371.317	-4.78
371.528	68.95
371.739	-8.87
371.95	52.56
372.16	36.18
372.371	36.18
372.582	103.76
372.792	30.04
373.003	42.32
373.214	-25.26
373.424	17.75
373.635	19.8
373.846	40.28
374.056	23.89
374.267	105.81
374.477	5.46
374.688	13.65
374.898	40.28
375.109	-17.07
375.319	13.65
375.53	73.04
375.74	-21.16
375.951	-10.92
376.161	-39.59
376.372	79.19
376.582	58.71
376.793	-29.35
377.003	36.18
377.214	62.8
377.424	50.52
377.635	17.75
377.845	-8.87
378.055	48.47
378.266	36.18
378.476	93.52
378.686	3.41
378.897	23.89
379.107	-23.21
379.317	7.51
379.528	9.56
379.738	77.14
379.948	-8.87
380.158	56.66
380.369	23.89
380.579	-29.35
380.789	99.67
380.999	-2.73
381.21	116.05
381.42	44.37
381.63	23.89
381.84	62.8
382.05	87.38
382.261	142.68
382.471	64.85
382.681	52.56
382.891	81.24
383.101	62.8
383.311	5.46
383.521	38.23
383.731	32.08
383.941	9.56
384.151	52.56
384.361	81.24
384.571	32.08
384.781	111.96
384.991	103.76
385.201	95.57
385.411	124.24
385.621	-12.97
385.831	48.47
386.041	46.42
386.251	-19.11
386.461	42.32
386.671	7.51
386.881	-2.73
387.091	58.71
387.301	30.04
387.511	48.47
387.72	132.44
387.93	17.75
388.14	30.04
388.35	-0.68
388.56	54.61
388.769	87.38
388.979	7.51
389.189	87.38
389.399	38.23
389.609	15.7
389.818	87.38
390.028	13.65
390.238	103.76
390.447	85.33
390.657	87.38
390.867	85.33
391.076	17.75
391.286	77.14
391.496	-6.83
391.705	23.89
391.915	19.8
392.125	111.96
392.334	109.91
392.544	54.61
392.753	68.95
392.963	-12.97
393.172	97.62
393.382	50.52
393.591	58.71
393.801	91.48
394.01	34.13
394.22	-6.83
394.429	60.76
394.639	77.14
394.848	68.95
395.058	77.14
395.267	40.28
395.477	15.7
395.686	85.33
395.895	93.52
396.105	134.48
396.314	17.75
396.524	73.04
396.733	97.62
396.942	140.63
397.152	68.95
397.361	91.48
397.57	95.57
397.78	54.61
397.989	87.38
398.198	111.96
398.407	77.14
398.617	58.71
398.826	38.23
399.035	30.04
399.244	101.72
399.453	38.23
399.663	73.04
399.872	46.42
400.081	52.56
400.29	173.39
400.499	109.91
400.708	128.34
400.917	75.09
401.127	54.61
401.336	44.37
401.545	62.8
401.754	95.57
401.963	75.09
402.172	68.95
402.381	54.61
402.59	99.67
402.799	64.85
403.008	71
403.217	118.1
403.426	146.77
403.635	5.46
403.844	103.76
404.053	152.92
404.262	95.57
404.471	152.92
404.68	79.19
404.888	75.09
405.097	101.72
405.306	81.24
405.515	128.34
405.724	54.61
405.933	146.77
406.142	165.2
406.35	146.77
406.559	105.81
406.768	157.01
406.977	165.2
407.185	169.3
407.394	144.72
407.603	157.01
407.812	130.39
408.02	206.16
408.229	150.87
408.438	118.1
408.646	163.15
408.855	138.58
409.064	185.68
409.272	185.68
409.481	251.22
409.69	144.72
409.898	247.12
410.107	249.17
410.315	122.2
410.524	277.84
410.733	253.27
410.941	226.64
411.15	224.59
411.358	283.99
411.567	324.94
411.775	238.93
411.984	290.13
412.192	355.66
412.401	329.04
412.609	320.85
412.818	294.22
413.026	406.86
413.234	376.14
413.443	316.75
413.651	413.01
413.86	410.96
414.068	486.73
414.276	437.58
414.485	382.29
414.693	482.64
414.901	523.6
415.11	425.29
415.318	593.23
415.526	560.46
415.734	546.12
415.943	568.65
416.151	531.79
416.359	628.04
416.567	671.05
416.776	587.08
416.984	709.96
417.192	687.43
417.4	705.87
417.608	687.43
417.817	802.12
418.025	732.49
418.233	861.51
418.441	771.4
418.649	771.4
418.857	929.1
419.065	830.79
419.273	892.23
419.481	998.73
419.689	1082.69
419.897	1033.54
420.105	994.63
420.313	1094.98
420.521	1164.61
420.729	1166.66
420.937	1211.71
421.145	1334.59
421.353	1330.5
421.561	1328.45
421.769	1361.22
421.977	1496.38
422.185	1432.9
422.393	1563.97
422.601	1643.84
422.809	1660.22
423.017	1621.31
423.224	1678.65
423.432	1762.62
423.64	1787.19
423.848	1938.74
424.056	1844.54
424.263	2028.85
424.471	1934.65
424.679	2055.48
424.887	2270.51
425.094	2282.8
425.302	2237.75
425.51	2385.2
425.718	2358.58
425.925	2278.71
426.133	2514.22
426.341	2659.63
426.548	2823.47
426.756	2706.73
426.964	2825.51
427.171	2950.44
427.379	2913.58
427.586	3147.05
427.794	3200.29
428.001	3288.36
428.209	3505.44
428.417	3366.18
428.624	3630.37
428.832	3618.08
429.039	3609.89
429.247	3630.37
429.454	3984.66
429.662	4179.22
429.869	4023.58
430.076	4341.01
430.284	4015.38
430.491	4302.1
430.699	4566.29
430.906	4541.71
431.114	4676.88
431.321	4988.17
431.528	4873.48
431.736	5170.44
431.943	5354.76
432.15	5324.04
432.358	5338.37
432.565	5747.97
432.772	5571.84
432.979	5780.73
433.187	6001.91
433.394	5891.32
433.601	6423.8
433.808	6491.38
434.016	6253.81
434.223	6667.5
434.43	7060.71
434.637	6917.36
434.844	7607.52
435.052	7374.05
435.259	7423.2
435.466	7308.52
435.673	7419.11
435.88	7785.69
436.087	8324.31
436.294	8201.43
436.501	8371.41
436.708	8148.19
436.915	8621.27
437.122	9008.33
437.329	8983.76
437.537	9290.95
437.743	9256.14
437.95	9379.01
438.157	9843.9
438.364	10206.39
438.571	10065.08
438.778	10110.14
438.985	11119.79
439.192	10679.47
439.399	11136.17
439.606	10687.67
439.813	11310.25
440.02	12113.05
440.227	11666.6
440.433	11742.37
440.64	12190.88
440.847	11986.08
441.054	12401.82
441.261	13143.18
441.467	12958.86
441.674	13051.02
441.881	13825.15
442.088	13548.68
442.294	13649.03
442.501	13988.99
442.708	14056.57
442.914	14886
443.121	15336.56
443.328	14779.51
443.534	16000.1
443.741	15645.8
443.948	15490.15
444.154	16481.37
444.361	16297.05
444.568	16542.81
444.774	16389.21
444.981	16694.36
445.187	17134.67
445.394	17804.36
445.6	17767.49
445.807	19244.08
446.013	18402.36
446.22	18826.29
446.426	19524.65
446.633	19831.85
446.839	20593.69
447.046	19575.85
447.252	20593.69
447.459	20585.5
447.665	20728.86
447.871	21548.04
448.078	22547.45
448.284	21306.38
448.491	21910.53
448.697	22801.4
448.903	23061.49
449.11	23131.12
449.316	22764.54
449.522	23217.14
449.728	23878.63
449.935	24173.54
450.141	24136.68
450.347	24484.83
450.553	23636.97
450.76	24153.06
450.966	24663
451.172	24450.02
451.378	25097.17
451.584	24566.75
451.791	25035.74
451.997	25263.06
452.203	25809.87
452.409	25662.41
452.615	25447.38
452.821	24527.84
453.027	24247.27
453.233	25211.86
453.44	24318.95
453.646	24845.27
453.852	24835.03
454.058	25179.09
454.264	24697.82
454.47	25029.59
454.676	24325.09
454.882	25023.45
455.088	22909.94
455.294	23389.17
455.5	23559.15
455.705	23845.87
455.911	22641.66
456.117	22512.64
456.323	22160.39
456.529	20749.34
456.735	21683.21
456.941	21120.02
457.147	20947.99
457.352	20407.33
457.558	20212.77
457.764	20227.1
457.97	19786.79
458.176	19629.1
458.381	19235.89
458.587	18306.11
458.793	18447.42
458.999	17337.42
459.204	18650.17
459.41	18152.51
459.616	16931.92
459.821	16839.76
460.027	17192.01
460.233	16534.62
460.438	15959.14
460.644	15955.04
460.85	15334.51
461.055	14859.38
461.261	15234.16
461.466	14023.81
461.672	13577.35
461.878	14265.47
462.083	13571.21
462.289	13304.97
462.494	13073.55
462.7	12471.45
462.905	12375.19
463.111	12678.29
463.316	12569.75
463.522	12377.24
463.727	12504.21
463.932	12287.13
464.138	12379.29
464.343	12311.71
464.549	11871.39
464.754	12475.54
464.959	12338.33
465.165	12283.03
465.37	11787.43
465.575	11465.89
465.781	11875.49
465.986	12016.8
466.191	11535.53
466.397	11289.77
466.602	10591.41
466.807	10921.13
467.012	11357.35
467.218	11017.39
467.423	11123.88
467.628	10886.32
467.833	11517.09
468.038	11150.51
468.244	10732.72
468.449	11271.34
468.654	10826.93
468.859	10658.99
469.064	10632.37
469.269	10288.31
469.474	10476.73
469.679	10486.97
469.885	10423.48
470.09	10366.14
470.295	10489.01
470.5	10167.48
470.705	10151.1
470.91	9995.45
471.115	10030.27
471.32	9790.66
471.525	10050.75
471.73	9493.7
471.935	9680.07
472.139	9215.18
472.344	9561.28
472.549	9426.12
472.754	9397.45
472.959	8942.8
473.164	9024.72
473.369	8684.75
473.574	9170.12
473.778	9086.15
473.983	9041.1
474.188	8957.13
474.393	8525.01
474.598	8766.67
474.802	8395.99
475.007	8355.03
475.212	8256.73
475.417	8072.41
475.621	8058.07
475.826	8234.2
476.031	8084.7
476.235	7890.14
476.44	8154.33
476.645	8025.31
476.849	7881.95
477.054	7955.68
477.259	7568.61
477.463	7521.51
477.668	7455.97
477.872	7580.9
478.077	7374.05
478.282	7183.59
478.486	7191.78
478.691	7193.83
478.895	7302.37
479.1	7066.86
479.304	7099.62
479.509	6784.24
479.713	7060.71
479.918	6888.68
480.122	6829.29
480.326	6849.77
480.531	6907.12
480.735	6753.52
480.94	6542.58
481.144	6900.97
481.348	6657.26
481.553	6763.76
481.757	6536.43
481.961	6806.77
482.166	6853.87
482.37	6855.92
482.574	6620.4
482.778	6536.43
482.983	6507.76
483.187	6413.56
483.391	6497.52
483.595	6548.72
483.8	6567.15
484.004	6747.37
484.208	6804.72
484.412	6485.23
484.616	6730.99
484.821	6913.26
485.025	6507.76
485.229	6595.82
485.433	6415.6
485.637	6565.11
485.841	6632.69
486.045	6481.14
486.249	6601.97
486.453	6653.17
486.657	6626.54
486.861	6638.83
487.065	6536.43
487.269	6597.87
487.473	6599.92
487.677	6642.93
487.881	6634.74
488.085	6608.11
488.289	6448.37
488.493	6427.89
488.697	6798.57
488.901	6563.06
489.105	6733.04
489.309	6694.13
489.512	6671.6
489.716	6618.35
489.92	6741.23
490.124	6585.58
490.328	6851.82
490.531	6759.66
490.735	6786.29
490.939	6913.26
491.143	6761.71
491.346	6755.57
491.55	6817.01
491.754	6886.64
491.958	6986.99
492.161	7013.61
492.365	7083.24
492.569	6964.46
492.772	6917.36
492.976	7120.1
493.18	7202.02
493.383	7232.74
493.587	7220.46
493.79	7265.51
493.994	7255.27
494.197	7326.95
494.401	7494.88
494.605	7570.66
494.808	7484.64
495.012	7554.27
495.215	7697.63
495.419	7638.24
495.622	7685.34
495.825	7744.74
496.029	7881.95
496.232	7877.85
496.436	7988.44
496.639	8252.63
496.843	8320.21
497.046	8248.54
497.249	8414.42
497.453	8371.41
497.656	8479.96
497.859	8443.09
498.063	8860.88
498.266	8897.74
498.469	8815.82
498.673	8963.28
498.876	9034.96
499.079	9280.71
499.282	9389.25
499.485	9465.03
499.689	9321.67
499.892	9647.3
500.095	9682.11
500.298	9802.94
500.501	10040.51
500.705	10255.54
500.908	10167.48
501.111	10187.96
501.314	10421.43
501.517	10583.22
501.72	10755.25
501.923	10626.23
502.126	10933.42
502.329	11080.88
502.532	11087.02
502.735	11027.63
502.938	11461.8
503.141	11488.42
503.344	11953.31
503.547	11588.77
503.75	11957.41
503.953	12172.44
504.156	12221.59
504.359	12506.26
504.562	12534.93
504.765	12684.44
504.968	12979.34
505.17	13180.04
505.373	13055.12
505.576	13382.79
505.779	13458.57
505.982	13532.29
506.185	14034.05
506.387	13841.54
506.59	14109.82
506.793	14384.25
506.996	14331
507.198	14922.87
507.401	15004.78
507.604	15045.74
507.807	15365.23
508.009	15479.91
508.212	15615.08
508.415	15848.55
508.617	16122.98
508.82	15916.13
509.022	16120.93
509.225	16458.84
509.428	16776.28
509.63	16798.8
509.833	17003.6
510.035	17468.49
510.238	17304.65
510.44	17822.79
510.643	17882.18
510.845	18236.48
511.048	18121.79
511.25	18197.57
511.453	18297.92
511.655	19373.1
511.858	18973.75
512.06	19305.52
512.262	19428.4
512.465	19641.39
512.667	19868.71
512.87	20251.68
513.072	20159.52
513.274	20945.94
513.477	20960.28
513.679	21095.44
513.881	21603.34
514.084	22084.61
514.286	21765.13
514.488	21865.48
514.69	22696.95
514.893	22529.02
515.095	22664.19
515.297	22924.28
515.499	23270.39
515.701	23460.85
515.904	23770.09
516.106	24214.5
516.308	24605.66
516.51	24484.83
516.712	24691.68
516.914	24988.63
517.116	25938.89
517.318	25652.17
517.52	25818.06
517.722	25730
517.925	26471.36
518.127	26565.57
518.329	27065.27
518.531	27124.66
518.733	27427.76
518.935	27784.11
519.136	27952.04
519.338	28584.87
519.54	28396.45
519.742	28740.51
519.944	28978.08
520.146	29299.61
520.348	29643.66
520.55	29737.87
520.752	29932.43
520.954	30432.13
521.155	30288.78
521.357	30845.82
521.559	31228.79
521.761	31648.63
521.963	31568.76
522.164	31675.25
522.366	31921.01
522.568	32312.17
522.77	32383.85
522.971	33346.39
523.173	32793.44
523.375	33045.34
523.576	33200.99
523.778	33262.43
523.98	33954.64
524.181	33708.88
524.383	34081.61
524.584	34358.09
524.786	34415.43
524.988	34270.03
525.189	35085.12
525.391	35185.47
525.592	35588.92
525.794	35547.96
525.995	35437.37
526.197	35695.41
526.398	35713.84
526.6	36379.43
526.801	36457.26
527.003	36406.06
527.204	36109.1
527.406	36868.9
527.607	37012.26
527.808	37157.66
528.01	36277.04
528.211	37026.59
528.412	37724.95
528.614	37393.18
528.815	37380.89
529.016	37974.8
529.218	37407.51
529.419	37483.29
529.62	38046.48
529.822	38193.93
530.023	38028.05
530.224	38390.54
530.425	38390.54
530.626	38089.49
530.828	37870.36
531.029	39187.2
531.23	38445.83
531.431	38386.44
531.632	38785.8
531.833	38957.83
532.035	38949.64
532.236	38941.44
532.437	39019.27
532.638	38531.85
532.839	38937.35
533.04	38888.2
533.241	38970.11
533.442	39463.68
533.643	39549.69
533.844	39232.25
534.045	39549.69
534.246	39256.83
534.447	39928.56
534.648	38914.82
534.849	39439.1
535.05	39131.9
535.251	39615.22
535.451	39138.05
535.652	39502.59
535.853	39467.77
536.054	39525.11
536.255	39729.91
536.456	39156.48
536.657	40051.44
536.857	39355.13
537.058	39174.91
537.259	39299.84
537.46	39635.7
537.66	39539.45
537.861	40014.58
538.062	39394.04
538.263	39543.55
538.463	39568.12
538.664	39400.19
538.865	39564.03
539.065	39731.96
539.266	39367.42
539.466	39752.44
539.667	39095.04
539.868	39779.06
540.068	39691
540.269	39508.73
540.469	39592.7
540.67	39582.46
540.87	39426.81
541.071	39613.18
541.271	39711.48
541.472	39609.08
541.672	39103.23
541.873	39299.84
542.073	39189.25
542.274	39846.65
542.474	39482.11
542.675	39086.85
542.875	39875.32
543.075	39629.56
543.276	39256.83
543.476	39895.8
543.676	39678.71
543.877	39703.29
544.077	39480.06
544.277	39523.07
544.478	39297.79
544.678	39545.59
544.878	39160.58
545.078	39445.24
545.279	39496.44
545.479	39312.13
545.679	39478.01
545.879	39740.15
546.079	39432.96
546.28	39248.64
546.48	39342.85
546.68	39435
546.88	39426.81
547.08	39957.24
547.28	39228.16
547.48	39338.75
547.68	39650.04
547.88	39215.87
548.081	39774.97
548.281	39760.63
548.481	39238.4
548.681	39295.74
548.881	39533.31
549.081	39166.72
549.28	39101.18
549.48	39496.44
549.68	39072.51
549.88	40106.74
550.08	39062.27
550.28	39772.92
550.48	39408.38
550.68	39779.06
550.88	39203.58
551.08	39297.79
551.279	39252.73
551.479	39025.41
551.679	39518.97
551.879	39385.85
552.079	39045.89
552.278	39379.71
552.478	39023.36
552.678	39400.19
552.878	39244.54
553.077	38959.87
553.277	38818.57
553.477	39873.27
553.676	38791.94
553.876	39262.97
554.076	39092.99
554.275	38810.37
554.475	38581
554.674	39088.9
554.874	39090.94
555.074	38804.23
555.273	38978.31
555.473	38916.87
555.672	38542.09
555.872	38554.38
556.071	38769.41
556.271	39215.87
556.47	38687.5
556.67	38540.04
556.869	38474.51
557.068	38736.65
557.268	38144.78
557.467	38339.34
557.667	38413.07
557.866	38279.95
558.065	38501.13
558.265	38122.26
558.464	38163.22
558.663	38388.49
558.863	37925.65
559.062	38327.05
559.261	37714.71
559.461	38120.21
559.66	37890.84
559.859	38255.37
560.058	38263.57
560.258	38009.62
560.457	37579.54
560.656	38189.84
560.855	37694.23
561.054	37839.64
561.253	37430.04
561.453	37466.91
561.652	37677.85
561.851	37507.86
562.05	37098.27
562.249	37229.34
562.448	37534.49
562.647	37032.74
562.846	37180.19
563.045	37325.6
563.244	36856.61
563.443	37333.79
563.642	36612.9
563.841	37122.85
564.04	36576.04
564.239	37221.15
564.438	36756.26
564.637	36594.47
564.836	37108.51
565.035	36457.26
565.234	36688.68
565.432	36543.27
565.631	36426.54
565.83	36602.66
566.029	36229.93
566.228	36236.08
566.427	36555.56
566.625	35939.12
566.824	35638.07
567.023	36062
567.222	35652.41
567.42	35906.35
567.619	35869.49
567.818	35621.69
568.016	35644.21
568.215	35932.98
568.414	35410.75
568.612	35896.11
568.811	35294.01
569.01	35384.12
569.208	34779.97
569.407	35498.81
569.605	35066.69
569.804	35191.61
570.002	35107.65
570.201	35146.56
570.4	34423.62
570.598	34540.36
570.797	34304.84
570.995	34466.63
571.193	34085.71
571.392	34669.38
571.59	33586
571.789	34161.48
571.987	33905.49
572.186	33936.21
572.384	33993.55
572.582	33946.45
572.781	33874.77
572.979	33424.22
573.177	33471.32
573.376	33729.36
573.574	33250.14
573.772	33317.72
573.971	33112.92
574.169	33266.52
574.367	32598.88
574.565	33135.45
574.763	32949.09
574.962	32535.4
575.16	32197.48
575.358	32574.31
575.556	32136.04
575.754	32666.47
575.952	31980.4
576.151	32117.61
576.349	31857.52
576.547	32140.14
576.745	32220.01
576.943	31896.43
577.141	31785.84
577.339	31951.73
577.537	31441.78
577.735	31525.75
577.933	31419.25
578.131	31327.1
578.329	31409.01
578.527	31144.83
578.725	31427.45
578.923	30856.06
579.121	30679.94
579.319	30565.25
579.516	30911.36
579.714	30487.43
579.912	30557.06
580.11	30153.61
580.308	30583.68
580.506	30354.31
580.704	29963.15
580.901	30188.42
581.099	30213
581.297	29916.04
581.495	29637.52
581.692	30086.03
581.89	29666.19
582.088	29971.34
582.285	29408.15
582.483	29983.63
582.681	29242.26
582.878	29578.13
583.076	29008.79
583.274	29369.24
583.471	29025.18
583.669	28799.9
583.866	29152.15
584.064	29103
584.262	28668.83
584.459	28603.3
584.657	28267.43
584.854	28857.24
585.052	28158.89
585.249	28447.65
585.447	28029.87
585.644	28007.34
585.841	28349.35
586.039	28318.63
586.236	27960.23
586.434	27470.77
586.631	27630.51
586.828	27835.31
587.026	27691.95
587.223	27603.89
587.42	27241.4
587.618	27325.36
587.815	27022.26
588.012	27268.02
588.21	27296.69
588.407	26883
588.604	26874.81
588.801	26772.41
588.999	26741.69
589.196	26735.55
589.393	26635.2
589.59	26477.51
589.787	26434.5
589.984	26594.24
590.182	26256.32
590.379	26553.28
590.576	26244.04
590.773	26061.77
590.97	26225.61
591.167	26137.54
591.364	25865.16
591.561	26133.45
591.758	25813.96
591.955	25629.65
592.152	25873.35
592.349	25779.15
592.546	25910.22
592.743	25730
592.94	25357.27
593.137	25488.34
593.334	25693.13
593.531	24878.04
593.727	25177.05
593.924	25111.51
594.121	24939.48
594.318	25175
594.515	24757.21
594.712	24828.89
594.908	24548.32
595.105	24744.92
595.302	24417.25
595.499	24435.68
595.696	24429.54
595.892	24212.45
596.089	24216.55
596.286	24138.72
596.482	24046.57
596.679	24105.96
596.876	24046.57
597.072	23772.14
597.269	23897.06
597.466	23843.82
597.662	23847.91
597.859	23421.94
598.055	23518.19
598.252	23712.75
598.448	23188.47
598.645	23084.02
598.841	23213.04
599.038	23307.25
599.234	23227.38
599.431	22989.81
599.627	23006.2
599.824	23186.42
600.02	22977.53
600.217	23065.59
600.413	22701.05
600.609	22686.72
600.806	22520.83
601.002	22559.74
601.198	22658.04
601.395	22295.55
601.591	22486.01
601.787	22342.66
601.984	22213.63
602.18	22156.29
602.376	22049.8
602.572	21648.39
602.769	21816.33
602.965	21830.66
603.161	21806.09
603.357	21310.48
603.553	21355.54
603.75	21591.05
603.946	21537.8
604.142	21589
604.338	20818.97
604.534	21328.91
604.73	21058.58
604.926	21281.81
605.122	21355.54
605.318	21019.67
605.514	20773.91
605.71	20659.23
605.906	20540.44
606.102	20663.32
606.298	20839.45
606.494	20491.29
606.69	20601.88
606.886	20337.69
607.082	20188.19
607.278	20444.19
607.474	19928.1
607.67	20501.53
607.866	19899.43
608.062	20499.48
608.257	19799.08
608.453	19801.13
608.649	19788.84
608.845	19545.13
609.041	19733.54
609.236	19827.75
609.432	19704.87
609.628	19551.27
609.824	19749.93
610.019	19418.16
610.215	19588.14
610.411	19541.04
610.606	19307.57
610.802	19317.81
610.998	19225.65
611.193	19317.81
611.389	19072.05
611.584	18953.27
611.78	18801.72
611.976	18881.59
612.171	19012.66
612.367	18897.97
612.562	18580.54
612.758	18400.32
612.953	18545.72
613.149	18902.07
613.344	18242.62
613.539	18668.6
613.735	18402.36
613.93	18525.24
614.126	18388.03
614.321	18594.87
614.517	18207.81
614.712	18240.57
614.907	18009.15
615.103	18263.1
615.298	17833.03
615.493	18224.19
615.688	17818.69
615.884	18236.48
616.079	18070.59
616.274	17882.18
616.47	17740.87
616.665	17925.19
616.86	17482.83
617.055	17673.29
617.25	17642.57
617.445	17366.09
617.641	17390.67
617.836	17372.24
618.031	17216.59
618.226	17280.08
618.421	17230.93
618.616	17405
618.811	16786.52
619.006	17263.69
619.201	17122.38
619.396	16888.92
619.591	16575.58
619.786	16831.57
619.981	16585.82
620.176	16610.39
620.371	16573.53
620.566	16608.34
620.761	16374.88
620.956	16483.42
621.151	16120.93
621.346	16268.38
621.541	16016.48
621.735	16049.25
621.93	15766.63
622.125	15905.89
622.32	15709.29
622.515	15889.51
622.709	15684.71
622.904	15287.4
623.099	15332.46
623.294	15387.75
623.488	15287.4
623.683	15383.66
623.878	15230.06
624.072	15252.59
624.267	14994.54
624.462	14713.97
624.656	14763.12
624.851	14615.67
625.046	14873.71
625.24	14419.07
625.435	14171.26
625.629	14589.05
625.824	14312.57
626.018	14261.37
626.213	14001.28
626.407	14134.4
626.602	14036.1
626.796	13980.8
626.991	13794.43
627.185	13790.34
627.38	13739.14
627.574	13847.68
627.768	13608.07
627.963	13511.82
628.157	13288.59
628.352	13309.07
628.546	12727.44
628.74	13370.51
628.935	13202.57
629.129	13370.51
629.323	12917.9
629.517	12801.17
629.712	12979.34
629.906	12938.38
630.1	12754.07
630.294	12709.01
630.489	12450.97
630.683	12627.09
630.877	12362.9
631.071	12276.89
631.265	12418.2
631.459	12352.66
631.653	12256.41
631.848	12440.73
632.042	12127.39
632.236	12094.62
632.43	12008.61
632.624	11957.41
632.818	11900.06
633.012	11771.04
633.206	11930.78
633.4	11719.84
633.594	11525.29
633.788	11719.84
633.982	11613.35
634.176	11629.73
634.369	11492.52
634.563	11263.15
634.757	11359.4
634.951	11398.31
635.145	11201.71
635.339	11404.46
635.533	11142.32
635.726	10937.52
635.92	10853.55
636.114	10837.17
636.308	10990.77
636.501	10777.78
636.695	10771.63
636.889	10583.22
637.083	10665.14
637.276	10560.69
637.47	10509.49
637.664	10628.28
637.857	10628.28
638.051	10648.75
638.244	10202.3
638.438	10212.54
638.632	10196.15
638.825	10116.28
639.019	9919.68
639.212	10126.52
639.406	9864.38
639.599	9968.83
639.793	9831.62
639.986	9845.95
640.18	9710.79
640.373	9733.31
640.567	9487.56
640.76	9571.52
640.954	9458.88
641.147	9467.08
641.34	9206.98
641.534	9313.48
641.727	9249.99
641.92	9366.73
642.114	8981.71
642.307	9125.07
642.5	9028.81
642.694	8998.09
642.887	8832.21
643.08	9131.21
643.273	8907.98
643.467	8817.87
643.66	8563.92
643.853	8813.77
644.046	8539.35
644.239	8490.2
644.432	8709.33
644.626	8355.03
644.819	8391.89
645.012	8568.02
645.205	8297.69
645.398	8383.7
645.591	8205.53
645.784	8289.49
645.977	8066.27
646.17	8101.08
646.363	8078.55
646.556	7914.72
646.749	7986.4
646.942	7910.62
647.135	7771.36
647.328	7824.61
647.521	7752.93
647.714	7714.02
647.907	7695.58
648.099	7718.11
648.292	7443.68
648.485	7525.6
648.678	7421.16
648.871	7490.79
649.064	7238.89
649.256	7345.38
649.449	7206.12
649.642	7193.83
649.835	6986.99
650.027	7046.38
650.22	7079.15
650.413	7034.09
650.605	7034.09
650.798	6939.88
650.991	6874.35
651.183	6989.03
651.376	6900.97
651.568	6780.14
651.761	6845.68
651.954	6782.19
652.146	6653.17
652.339	6561.01
652.531	6608.11
652.724	6571.25
652.916	6413.56
653.109	6624.5
653.301	6382.84
653.494	6577.39
653.686	6321.4
653.879	6561.01
654.071	6221.05
654.263	6051.06
654.456	6307.06
654.648	6302.97
654.84	6227.19
655.033	6020.35
655.225	6022.39
655.417	6059.26
655.61	6012.15
655.802	5872.89
655.994	6036.73
656.186	6063.35
656.379	5897.47
656.571	5840.12
656.763	5735.68
656.955	5801.21
657.148	5801.21
657.34	5678.33
657.532	5524.74
657.724	5428.48
657.916	5631.23
658.108	5559.55
658.3	5545.22
658.492	5387.52
658.684	5338.37
658.876	5326.08
659.068	5344.52
659.26	5272.84
659.452	5330.18
659.644	5190.92
659.836	5012.74
660.028	5264.64
660.22	4977.93
660.412	5033.22
660.604	5166.34
660.796	4934.92
660.988	4986.12
661.18	4912.39
661.372	4902.15
661.563	5016.84
661.755	4887.82
661.947	4736.27
662.139	4668.69
662.331	4625.68
662.522	4656.4
662.714	4762.89
662.906	4744.46
663.097	4707.6
663.289	4433.17
663.481	4386.07
663.673	4523.28
663.864	4357.39
664.056	4332.82
664.247	4424.98
664.439	4300.05
664.631	4554
664.822	4373.78
665.014	4287.76
665.205	4384.02
665.397	4267.28
665.588	4379.92
665.78	4214.04
665.971	4201.75
666.163	4164.89
666.354	4168.98
666.546	4164.89
666.737	3984.66
666.929	4224.28
667.12	4050.2
667.311	4070.68
667.503	3923.23
667.694	4064.54
667.885	3890.46
668.077	3933.47
668.268	3904.79
668.459	3851.55
668.651	3892.51
668.842	3917.08
669.033	3867.93
669.224	3824.92
669.416	3804.44
669.607	3839.26
669.798	3814.68
669.989	3788.06
670.18	3732.76
670.371	3765.53
670.563	3687.71
670.754	3720.48
670.945	3546.4
671.136	3667.23
671.327	3570.97
671.518	3466.53
671.709	3609.89
671.9	3679.52
672.091	3562.78
672.282	3487.01
672.473	3642.65
672.664	3591.45
672.855	3405.09
673.046	3521.82
673.237	3472.67
673.428	3433.76
673.619	3403.04
673.809	3345.7
674	3368.23
674.191	3317.03
674.382	3337.51
674.573	3233.06
674.764	3333.41
674.954	3241.25
675.145	3269.92
675.336	3198.24
675.527	3403.04
675.717	3233.06
675.908	3327.27
676.099	3196.2
676.289	3204.39
676.48	3081.51
676.671	3181.86
676.861	3194.15
677.052	3106.09
677.243	3179.81
677.433	3165.48
677.624	3110.18
677.814	3142.95
678.005	3114.28
678.195	3198.24
678.386	3093.8
678.576	3054.89
678.767	3077.41
678.957	2966.82
679.148	3099.94
679.338	3136.81
679.529	3005.74
679.719	2946.34
679.909	2989.35
680.1	3011.88
680.29	3028.26
680.481	2923.82
680.671	3089.7
680.861	2987.3
681.052	3138.85
681.242	2981.16
681.432	2993.45
681.622	2850.09
681.813	2966.82
682.003	2862.38
682.193	2913.58
682.383	2862.38
682.573	2843.95
682.764	3034.41
682.954	2999.59
683.144	2907.43
683.334	2991.4
683.524	2956.58
683.714	2716.97
683.904	2839.85
684.094	2768.17
684.284	2845.99
684.474	2862.38
684.664	2843.95
684.854	3028.26
685.044	2878.76
685.234	2731.31
685.424	2917.67
685.614	2825.51
685.804	2878.76
685.994	2899.24
686.184	2817.32
686.374	2819.37
686.564	2788.65
686.753	2866.47
686.943	2731.31
687.133	2815.27
687.323	2790.7
687.513	2825.51
687.702	2751.79
687.892	2856.23
688.082	2766.12
688.272	2899.24
688.461	2776.36
688.651	2749.74
688.841	2735.4
689.03	2776.36
689.22	2762.03
689.41	2784.55
689.599	2702.64
689.789	2815.27
689.979	2747.69
690.168	2809.13
690.358	2665.77
690.547	2661.68
690.737	2766.12
690.926	2680.11
691.116	2745.64
691.305	2637.1
691.495	2807.08
691.684	2753.84
691.874	2805.03
692.063	2688.3
692.252	2821.42
692.442	2688.3
692.631	2790.7
692.82	2786.6
693.01	2729.26
693.199	2641.2
693.388	2741.55
693.578	2581.81
693.767	2645.29
693.956	2680.11
694.146	2651.44
694.335	2676.01
694.524	2731.31
694.713	2774.31
694.902	2663.72
695.092	2782.51
695.281	2639.15
695.47	2743.6
695.659	2682.16
695.848	2696.49
696.037	2706.73
696.226	2766.12
696.415	2673.96
696.604	2637.1
696.793	2725.16
696.982	2655.53
697.171	2645.29
697.36	2637.1
697.549	2692.4
697.738	2716.97
697.927	2676.01
698.116	2706.73
698.305	2606.38
698.494	2645.29
698.683	2600.24
698.872	2637.1
699.061	2684.2
699.25	2635.05
699.438	2614.57
699.627	2725.16
699.816	2694.44
700.005	2579.76
700.193	2696.49
700.382	2516.27
700.571	2549.04
700.76	2610.48
700.948	2430.26
701.137	2608.43
701.326	2667.82
701.514	2553.13
701.703	2577.71
701.892	2501.94
702.08	2520.37
702.269	2600.24
702.457	2528.56
702.646	2499.89
702.834	2487.6
703.023	2536.75
703.212	2602.29
703.4	2512.18
703.589	2452.78
703.777	2655.53
703.965	2452.78
704.154	2514.22
704.342	2512.18
704.531	2479.41
704.719	2428.21
704.907	2463.02
705.096	2485.55
705.284	2458.93
705.472	2397.49
705.661	2471.22
705.849	2452.78
706.037	2354.48
706.226	2456.88
706.414	2399.54
706.602	2397.49
706.79	2356.53
706.979	2442.54
707.167	2426.16
707.355	2440.5
707.543	2344.24
707.731	2360.63
707.919	2301.23
708.107	2358.58
708.296	2178.36
708.484	2256.18
708.672	2307.38
708.86	2338.1
709.048	2295.09
709.236	2284.85
709.424	2323.76
709.612	2415.92
709.8	2204.98
709.988	2233.65
710.176	2217.27
710.364	2207.03
710.551	2243.89
710.739	2153.78
710.927	2319.67
711.115	2209.08
711.303	2200.88
711.491	2080.05
711.679	2196.79
711.866	2118.97
712.054	2168.12
712.242	2069.81
712.43	2254.13
712.617	2194.74
712.805	2092.34
712.993	2098.49
713.181	2100.53
713.368	2170.16
713.556	2026.81
713.744	2004.28
713.931	2161.97
714.119	2016.57
714.306	2078.01
714.494	1965.37
714.682	1987.89
714.869	2057.53
715.057	1963.32
715.244	1809.72
715.432	2026.81
715.619	1953.08
715.807	1944.89
715.994	1862.97
716.182	1928.5
716.369	1951.03
716.556	1932.6
716.744	1979.7
716.931	1748.28
717.119	1813.82
717.306	1840.44
717.493	1989.94
717.681	1901.88
717.868	1846.59
718.055	1807.67
718.242	1912.12
718.43	1846.59
718.617	1834.3
718.804	1791.29
718.991	1828.15
719.179	1852.73
719.366	1850.68
719.553	1774.91
719.74	1758.52
719.927	1746.23
720.114	1785.15
720.301	1785.15
720.488	1713.47
720.676	1766.71
720.863	1660.22
721.05	1709.37
721.237	1684.8
721.424	1774.91
721.611	1666.36
721.798	1590.59
721.985	1699.13
722.172	1707.32
722.358	1627.45
722.545	1756.47
722.732	1578.3
722.919	1645.88
723.106	1727.8
723.293	1660.22
723.48	1623.36
723.667	1531.2
723.853	1570.11
724.04	1559.87
724.227	1574.21
724.414	1586.49
724.6	1555.77
724.787	1596.73
724.974	1619.26
725.161	1559.87
725.347	1551.68
725.534	1551.68
725.72	1541.44
725.907	1396.03
726.094	1498.43
726.28	1529.15
726.467	1561.92
726.653	1492.29
726.84	1480
727.027	1480
727.213	1461.57
727.4	1451.33
727.586	1406.27
727.773	1436.99
727.959	1377.6
728.145	1463.62
728.332	1457.47
728.518	1471.81
728.705	1398.08
728.891	1338.69
729.077	1406.27
729.264	1428.8
729.45	1393.98
729.636	1410.37
729.823	1293.63
730.009	1453.38
730.195	1391.94
730.382	1342.78
730.568	1414.46
730.754	1344.83
730.94	1428.8
731.126	1369.41
731.313	1428.8
731.499	1430.85
731.685	1381.7
731.871	1346.88
732.057	1318.21
732.243	1299.78
732.429	1357.12
732.615	1275.2
732.801	1332.55
732.987	1320.26
733.173	1279.3
733.359	1336.64
733.545	1271.11
733.731	1244.48
733.917	1275.2
734.103	1201.47
734.289	1283.39
734.475	1275.2
734.661	1342.78
734.847	1260.87
735.033	1131.84
735.219	1236.29
735.404	1140.04
735.59	1211.71
735.776	1224
735.962	1269.06
736.148	1240.39
736.333	1164.61
736.519	1221.95
736.705	1054.02
736.89	1230.15
737.076	1207.62
737.262	1224
737.447	1176.9
737.633	1248.58
737.819	1170.76
738.004	1140.04
738.19	1146.18
738.375	1189.19
738.561	1086.79
738.747	1123.65
738.932	1172.8
739.118	1135.94
739.303	1088.84
739.489	1160.52
739.674	1078.6
739.859	1062.21
740.045	1080.64
740.23	1092.93
740.416	1099.08
740.601	1086.79
740.786	1123.65
740.972	1062.21
741.157	1107.27
741.342	1076.55
741.528	1135.94
741.713	1072.45
741.898	1135.94
742.084	1070.41
742.269	1043.78
742.454	957.77
742.639	1054.02
742.824	1148.23
743.01	965.96
743.195	1051.97
743.38	992.58
743.565	1051.97
743.75	1092.93
743.935	1035.59
744.12	1017.16
744.305	1023.3
744.49	992.58
744.675	986.44
744.86	1060.17
745.045	994.63
745.23	927.05
745.415	982.34
745.6	1033.54
745.785	920.9
745.97	908.62
746.155	976.2
746.34	963.91
746.525	965.96
746.71	877.9
746.895	972.1
747.079	773.45
747.264	922.95
747.449	881.99
747.634	890.18
747.819	939.34
748.003	906.57
748.188	855.37
748.373	925
748.557	896.33
748.742	843.08
748.927	810.31
749.111	845.13
749.296	816.46
749.481	802.12
749.665	830.79
749.85	783.69
750.034	785.74
750.219	814.41
750.404	793.93
750.588	810.31
750.773	781.64
750.957	793.93
751.141	773.45
751.326	777.55
751.51	849.22
751.695	757.07
751.879	763.21
752.064	752.97
752.248	666.96
752.432	750.92
752.617	773.45
752.801	693.58
752.985	677.2
753.17	740.68
753.354	771.4
753.538	712.01
753.722	728.39
753.907	666.96
754.091	732.49
754.275	705.87
754.459	736.59
754.643	720.2
754.828	687.43
755.012	724.3
755.196	632.14
755.38	687.43
755.564	615.76
755.748	630.09
755.932	738.63
756.116	656.72
756.3	623.95
756.484	687.43
756.668	669
756.852	611.66
757.036	630.09
757.22	640.33
757.404	570.7
757.588	648.52
757.772	681.29
757.956	685.39
758.14	671.05
758.323	580.94
758.507	636.24
758.691	652.62
758.875	582.99
759.059	566.6
759.242	570.7
759.426	589.13
759.61	632.14
759.794	501.07
759.977	587.08
760.161	626
760.345	570.7
760.528	580.94
760.712	539.98
760.895	587.08
761.079	554.32
761.263	580.94
761.446	519.5
761.63	601.42
761.813	576.84
761.997	525.65
762.18	554.32
762.364	572.75
762.547	568.65
762.731	513.36
762.914	548.17
763.098	552.27
763.281	390.48
763.464	499.02
763.648	572.75
763.831	570.7
764.015	472.4
764.198	542.03
764.381	511.31
764.564	501.07
764.748	488.78
764.931	501.07
765.114	423.25
765.297	529.74
765.481	421.2
765.664	501.07
765.847	531.79
766.03	507.21
766.213	427.34
766.397	546.12
766.58	470.35
766.763	548.17
766.946	433.49
767.129	458.06
767.312	429.39
767.495	433.49
767.678	505.17
767.861	480.59
768.044	517.45
768.227	507.21
768.41	435.53
768.593	453.97
768.776	453.97
768.959	460.11
769.142	492.88
769.324	499.02
769.507	564.56
769.69	486.73
769.873	466.25
770.056	410.96
770.239	552.27
770.421	548.17
770.604	470.35
770.787	464.21
770.97	355.66
771.152	456.01
771.335	451.92
771.518	490.83
771.7	537.93
771.883	488.78
772.066	413.01
772.248	423.25
772.431	419.15
772.613	443.73
772.796	423.25
772.978	413.01
773.161	380.24
773.343	367.95
773.526	445.77
773.708	382.29
773.891	435.53
774.073	363.86
774.256	476.49
774.438	449.87
774.621	472.4
774.803	439.63
774.985	404.82
775.168	417.1
775.35	468.3
775.532	367.95
775.715	376.14
775.897	372.05
776.079	351.57
776.261	415.06
776.444	326.99
776.626	380.24
776.808	345.42
776.99	404.82
777.173	355.66
777.355	392.53
777.537	333.14
777.719	363.86
777.901	347.47
778.083	365.9
778.265	316.75
778.447	390.48
778.629	298.32
778.811	374.1
778.993	359.76
779.175	390.48
779.357	326.99
779.539	408.91
779.721	406.86
779.903	363.86
780.085	265.55
780.267	359.76
780.449	245.07
780.631	271.7
780.812	335.18
780.994	343.38
781.176	298.32
781.358	312.66
781.54	367.95
781.721	251.22
781.903	292.18
782.085	279.89
782.267	380.24
782.448	308.56
782.63	263.51
782.812	273.75
782.993	308.56
783.175	308.56
783.357	269.65
783.538	316.75
783.72	230.74
783.901	298.32
784.083	269.65
784.264	222.55
784.446	255.31
784.627	243.03
784.809	261.46
784.99	251.22
785.172	275.79
785.353	298.32
785.535	243.03
785.716	320.85
785.897	230.74
786.079	230.74
786.26	279.89
786.441	226.64
786.623	232.79
786.804	214.35
786.985	220.5
787.167	230.74
787.348	251.22
787.529	253.27
787.71	279.89
787.891	220.5
788.073	251.22
788.254	257.36
788.435	249.17
788.616	240.98
788.797	220.5
788.978	206.16
789.159	288.08
789.34	220.5
789.522	220.5
789.703	279.89
789.884	212.31
790.065	167.25
790.246	290.13
790.427	261.46
790.607	234.83
790.788	171.35
790.969	187.73
791.15	218.45
791.331	154.96
791.512	226.64
791.693	193.87
791.874	218.45
792.054	185.68
792.235	214.35
792.416	202.07
792.597	191.83
792.778	165.2
792.958	275.79
793.139	146.77
793.32	161.11
793.5	177.49
793.681	177.49
793.862	200.02
794.042	185.68
794.223	157.01
794.404	210.26
794.584	179.54
794.765	228.69
794.945	210.26
795.126	193.87
795.306	202.07
795.487	234.83
795.667	195.92
795.848	183.63
796.028	195.92
796.209	130.39
796.389	202.07
796.57	181.59
796.75	132.44
796.93	99.67
797.111	144.72
797.291	152.92
797.471	122.2
797.652	181.59
797.832	101.72
798.012	230.74
798.192	136.53
798.373	126.29
798.553	175.44
798.733	144.72
798.913	185.68
799.093	109.91
799.274	140.63
799.454	210.26
799.634	144.72
799.814	128.34
799.994	134.48
800.174	189.78
800.354	185.68
800.534	140.63
800.714	95.57
800.894	191.83
801.074	109.91
801.254	187.73
801.434	226.64
801.614	142.68
801.794	107.86
801.974	398.67
802.154	130.39
802.334	136.53
802.514	79.19
802.693	114
802.873	118.1
803.053	146.77
803.233	154.96
803.413	138.58
803.592	214.35
803.772	126.29
803.952	136.53
804.131	136.53
804.311	101.72
804.491	140.63
804.67	34.13
804.85	107.86
805.03	175.44
805.209	107.86
805.389	103.76
805.568	87.38
805.748	107.86
805.928	171.35
806.107	152.92
806.287	75.09
806.466	89.43
806.646	130.39
806.825	62.8
807.004	122.2
807.184	109.91
807.363	169.3
807.543	126.29
807.722	136.53
807.901	169.3
808.081	79.19
808.26	60.76
808.439	81.24
808.619	5.46
808.798	97.62
808.977	120.15
809.156	34.13
809.336	34.13
809.515	138.58
809.694	-19.11
809.873	214.35
810.052	105.81
810.231	138.58
810.411	87.38
810.59	95.57
810.769	136.53
810.948	136.53
811.127	36.18
811.306	120.15
811.485	85.33
811.664	105.81
811.843	38.23
812.022	54.61
812.201	73.04
812.38	75.09
812.559	73.04
812.737	52.56
812.916	21.85
813.095	120.15
813.274	109.91
813.453	27.99
813.632	21.85
813.811	132.44
813.989	32.08
814.168	75.09
814.347	122.2
814.526	42.32
814.704	81.24
814.883	157.01
815.062	124.24
815.24	128.34
815.419	71
815.598	85.33
815.776	73.04
815.955	144.72
816.133	62.8
816.312	122.2
816.49	83.28
816.669	73.04
816.847	56.66
817.026	122.2
817.204	44.37
817.383	165.2
817.561	93.52
817.74	75.09
817.918	111.96
818.097	66.9
818.275	9.56
818.453	154.96
818.632	71
818.81	46.42
818.988	73.04
819.167	89.43
819.345	62.8
819.523	-41.64
819.701	68.95
819.879	66.9
820.058	77.14
820.236	1.37
820.414	85.33
820.592	-12.97
820.77	85.33
820.948	95.57
821.127	19.8
821.305	97.62
821.483	85.33
821.661	62.8
821.839	42.32
822.017	58.71
822.195	40.28
822.373	42.32
822.551	83.28
822.729	111.96
822.907	38.23
823.085	68.95
823.262	38.23
823.44	66.9
823.618	17.75
823.796	40.28
823.974	56.66
824.152	11.61
824.329	134.48
824.507	52.56
824.685	50.52
824.863	52.56
825.04	21.85
825.218	87.38
825.396	50.52
825.574	95.57
825.751	99.67
825.929	116.05
826.107	71
826.284	103.76
826.462	114
826.639	23.89
826.817	64.85
826.994	146.77
827.172	118.1
827.349	77.14
827.527	1.37
827.704	134.48
827.882	-27.31
828.059	13.65
828.237	101.72
828.414	62.8
828.591	46.42
828.769	71
828.946	30.04
829.124	-8.87
829.301	75.09
829.478	79.19
829.655	50.52
829.833	25.94
830.01	-70.31
830.187	116.05
830.364	40.28
830.542	95.57
830.719	114
830.896	15.7
831.073	40.28
831.25	87.38
831.427	54.61
831.604	75.09
831.782	114
831.959	54.61
832.136	48.47
832.313	87.38
832.49	21.85
832.667	1.37
832.844	54.61
833.021	71
833.198	30.04
833.374	79.19
833.551	50.52
833.728	-17.07
833.905	38.23
834.082	-27.31
834.259	58.71
834.436	34.13
834.612	52.56
834.789	34.13
834.966	77.14
835.143	1.37
835.319	40.28
835.496	50.52
835.673	107.86
835.85	73.04
836.026	42.32
836.203	126.29
836.38	30.04
836.556	17.75
836.733	11.61
836.909	17.75
837.086	46.42
837.262	64.85
837.439	-21.16
837.616	95.57
837.792	89.43
837.968	99.67
838.145	48.47
838.321	11.61
838.498	46.42
838.674	52.56
838.851	64.85
839.027	81.24
839.203	19.8
839.38	-21.16
839.556	75.09
839.732	38.23
839.909	-25.26
840.085	30.04
840.261	64.85
840.437	95.57
840.614	-29.35
840.79	9.56
840.966	5.46
841.142	89.43
841.318	52.56
841.494	1.37
841.671	46.42
841.847	-25.26
842.023	30.04
842.199	56.66
842.375	-19.11
842.551	75.09
842.727	42.32
842.903	9.56
843.079	62.8
843.255	-31.4
843.431	17.75
843.607	30.04
843.783	48.47
843.959	9.56
844.134	-6.83
844.31	120.15
844.486	56.66
844.662	-33.45
844.838	-2.73
845.013	64.85
845.189	75.09
845.365	21.85
845.541	19.8
845.716	5.46
845.892	21.85
846.068	46.42
846.244	13.65
846.419	40.28
846.595	11.61
846.77	-0.68
846.946	23.89
847.122	-74.41
847.297	-10.92
847.473	50.52
847.648	23.89
847.824	11.61
847.999	34.13
848.175	27.99
848.35	-2.73
848.526	42.32
848.701	-10.92
848.876	79.19
849.052	-6.83
849.227	32.08
849.403	23.89
849.578	11.61
849.753	-31.4
849.929	62.8
850.104	40.28
850.279	-17.07
850.454	13.65
850.63	25.94
850.805	23.89
850.98	-8.87
851.155	3.41
851.33	30.04
851.505	-10.92
851.681	38.23
851.856	-6.83
852.031	71
852.206	34.13
852.381	-8.87
852.556	-2.73
852.731	25.94
852.906	7.51
853.081	66.9
853.256	-10.92
853.431	75.09
853.606	1.37
853.781	17.75
853.956	17.75
854.131	-4.78
854.305	27.99
854.48	81.24
854.655	19.8
854.83	62.8
855.005	13.65
855.18	62.8
855.354	30.04
855.529	50.52
855.704	32.08
855.879	136.53
856.053	-4.78
856.228	77.14
856.403	15.7
856.577	3.41
856.752	66.9
856.926	77.14
857.101	32.08
857.276	32.08
857.45	-51.88
857.625	66.9
857.799	40.28
857.974	-12.97
858.148	-2.73
858.323	7.51
858.497	-39.59
858.672	23.89
858.846	5.46
859.02	91.48
859.195	25.94
859.369	13.65
859.543	-10.92
859.718	30.04
859.892	-55.98
860.066	3.41
860.241	30.04
860.415	66.9
860.589	-41.64
860.763	32.08
860.938	-0.68
861.112	40.28
861.286	52.56
861.46	-6.83
861.634	15.7
861.808	30.04
861.982	1.37
862.157	77.14
862.331	15.7
862.505	-23.21
862.679	-6.83
862.853	-19.11
863.027	3.41
863.201	-10.92
863.375	64.85
863.549	89.43
863.722	-47.79
863.896	-2.73
864.07	11.61
864.244	11.61
864.418	21.85
864.592	62.8
864.766	5.46
864.939	13.65
865.113	9.56
865.287	77.14
865.461	68.95
865.634	-39.59
865.808	7.51
865.982	11.61
866.156	17.75
866.329	34.13
866.503	48.47
866.676	3.41
866.85	-6.83
867.024	-8.87
867.197	-17.07
867.371	32.08
867.544	7.51
867.718	58.71
867.891	-35.5
868.065	56.66
868.238	-17.07
868.412	15.7
868.585	-62.12
868.759	-15.02
868.932	-27.31
869.105	13.65
869.279	-62.12
869.452	40.28
869.625	38.23
869.799	46.42
869.972	32.08
870.145	17.75
870.319	52.56
870.492	-58.03
870.665	13.65
870.838	-66.22
871.011	38.23
871.185	-21.16
871.358	-21.16
871.531	93.52
871.704	-39.59
871.877	30.04
872.05	-17.07
872.223	40.28
872.396	7.51
872.569	50.52
872.742	-49.83
872.915	5.46
873.088	-19.11
873.261	-72.36
873.434	-8.87
873.607	40.28
873.78	-19.11
873.953	-60.07
874.126	5.46
874.299	66.9
874.471	46.42
874.644	7.51
874.817	-43.69
874.99	27.99
875.163	30.04
875.335	-4.78
875.508	-29.35
875.681	-37.55
875.853	15.7
876.026	13.65
876.199	42.32
876.371	62.8
876.544	-17.07
876.717	-33.45
876.889	17.75
877.062	-10.92
877.234	-4.78
877.407	34.13
877.579	-33.45
877.752	81.24
877.924	15.7
878.097	-2.73
878.269	58.71
878.442	-51.88
878.614	95.57
878.786	79.19
878.959	87.38
879.131	64.85
879.303	1.37
879.476	81.24
879.648	3.41
879.82	54.61
879.993	-8.87
880.165	-27.31
880.337	-43.69
880.509	-45.74
880.681	40.28
880.854	52.56
881.026	-37.55
881.198	81.24
881.37	15.7
881.542	34.13
881.714	-31.4
881.886	58.71
882.058	-12.97
882.23	85.33
882.402	-33.45
882.574	-55.98
882.746	30.04
882.918	-45.74
883.09	71
883.262	-8.87
883.434	50.52
883.606	32.08
883.778	34.13
883.95	56.66
884.122	25.94
884.293	79.19
884.465	9.56
884.637	3.41
884.809	56.66
884.98	-33.45
885.152	34.13
885.324	34.13
885.496	73.04
885.667	5.46
885.839	62.8
886.011	21.85
886.182	73.04
886.354	-47.79
886.525	83.28
886.697	-2.73
886.869	-2.73
887.04	-15.02
887.212	60.76
887.383	30.04
887.555	34.13
887.726	-39.59
887.897	-76.46
888.069	23.89
888.24	-41.64
888.412	19.8
888.583	3.41
888.754	73.04
888.926	-6.83
889.097	91.48
889.268	13.65
889.44	36.18
889.611	5.46
889.782	1.37
889.953	40.28
890.125	-45.74
890.296	34.13
890.467	-2.73
890.638	46.42
890.809	77.14
890.98	66.9
891.151	30.04
891.323	3.41
891.494	27.99
891.665	56.66
891.836	32.08
892.007	-37.55
892.178	107.86
892.349	-51.88
892.52	-0.68
892.691	7.51
892.862	77.14
893.032	11.61
893.203	15.7
893.374	-27.31
893.545	21.85
893.716	25.94
893.887	13.65
894.057	-10.92
894.228	64.85
894.399	-0.68
894.57	36.18
894.74	3.41
894.911	17.75
895.082	42.32
895.253	-12.97
895.423	-41.64
895.594	-17.07
895.764	13.65
895.935	17.75
896.106	-0.68
896.276	-2.73
896.447	-17.07
896.617	9.56
896.788	46.42
896.958	-2.73
897.129	-21.16
897.299	-0.68
897.47	19.8
897.64	48.47
897.81	58.71
897.981	128.34
898.151	52.56
898.322	27.99
898.492	13.65
898.662	-25.26
898.832	25.94
899.003	-8.87
899.173	27.99
899.343	19.8
899.513	34.13
