Data from USB4F104151__277__14-02-24-519.txt Node

Date: Thu Mar 13 14:02:24 EDT 2025
User: louis
Spectrometer: USB4F10415
Trigger mode: 4
Integration Time (sec): 1.000000E-2
Scans to average: 1
Electric dark correction enabled: true
Nonlinearity correction enabled: false
Boxcar width: 0
XAxis mode: Wavelengths
Number of Pixels in Spectrum: 3648
>>>>>Begin Spectral Data<<<<<
178.204	-40.79
178.424	-40.79
178.644	-40.79
178.864	-8.02
179.084	59.56
179.304	-63.32
179.524	41.13
179.744	-20.31
179.964	61.61
180.184	-53.08
180.404	53.42
180.624	53.42
180.844	-5.97
181.064	-30.55
181.283	12.46
181.503	-32.6
181.723	-16.21
181.943	43.18
182.163	61.61
182.383	16.55
182.602	49.32
182.822	49.32
183.042	39.08
183.262	14.51
183.482	-18.26
183.701	26.79
183.921	0.17
184.141	59.56
184.361	-8.02
184.58	-24.4
184.8	34.99
185.02	-22.36
185.239	57.51
185.459	20.65
185.679	2.22
185.898	10.41
186.118	6.31
186.338	53.42
186.557	65.71
186.777	-53.08
186.997	20.65
187.216	10.41
187.436	71.85
187.655	14.51
187.875	30.89
188.095	2.22
188.314	34.99
188.534	8.36
188.753	59.56
188.973	20.65
189.192	16.55
189.412	34.99
189.631	16.55
189.851	20.65
190.07	112.81
190.29	-30.55
190.509	6.31
190.729	-8.02
190.948	6.31
191.168	125.1
191.387	59.56
191.607	53.42
191.826	26.79
192.045	77.99
192.265	32.94
192.484	-22.36
192.704	45.23
192.923	-24.4
193.142	80.04
193.362	-24.4
193.581	92.33
193.8	12.46
194.02	75.95
194.239	28.84
194.458	0.17
194.678	41.13
194.897	53.42
195.116	45.23
195.335	22.7
195.555	20.65
195.774	59.56
195.993	32.94
196.212	10.41
196.432	16.55
196.651	26.79
196.87	-32.6
197.089	92.33
197.308	-24.4
197.528	10.41
197.747	-16.21
197.966	-30.55
198.185	32.94
198.404	-28.5
198.623	24.75
198.842	-57.17
199.062	16.55
199.281	80.04
199.5	12.46
199.719	57.51
199.938	37.03
200.157	59.56
200.376	43.18
200.595	24.75
200.814	-34.64
201.033	-12.12
201.252	30.89
201.471	2.22
201.69	0.17
201.909	26.79
202.128	49.32
202.347	-16.21
202.566	125.1
202.785	-12.12
203.004	8.36
203.223	-3.93
203.442	-36.69
203.661	69.8
203.879	30.89
204.098	-32.6
204.317	28.84
204.536	30.89
204.755	28.84
204.974	-8.02
205.193	65.71
205.411	82.09
205.63	90.28
205.849	75.95
206.068	20.65
206.287	65.71
206.505	-20.31
206.724	4.27
206.943	65.71
207.162	6.31
207.381	71.85
207.599	16.55
207.818	-20.31
208.037	69.8
208.255	86.19
208.474	24.75
208.693	24.75
208.911	61.61
209.13	10.41
209.349	49.32
209.567	-24.4
209.786	49.32
210.005	49.32
210.223	8.36
210.442	26.79
210.661	26.79
210.879	32.94
211.098	43.18
211.316	63.66
211.535	-1.88
211.753	57.51
211.972	100.52
212.191	32.94
212.409	26.79
212.628	43.18
212.846	12.46
213.065	118.95
213.283	57.51
213.502	2.22
213.72	16.55
213.938	6.31
214.157	57.51
214.375	-14.17
214.594	106.67
214.812	12.46
215.031	-8.02
215.249	10.41
215.467	41.13
215.686	65.71
215.904	30.89
216.122	32.94
216.341	106.67
216.559	57.51
216.778	32.94
216.996	51.37
217.214	41.13
217.432	104.62
217.651	45.23
217.869	37.03
218.087	-48.98
218.306	73.9
218.524	51.37
218.742	-53.08
218.96	116.9
219.179	41.13
219.397	51.37
219.615	45.23
219.833	86.19
220.051	30.89
220.27	41.13
220.488	57.51
220.706	0.17
220.924	26.79
221.142	32.94
221.36	26.79
221.578	-36.69
221.796	41.13
222.015	37.03
222.233	49.32
222.451	16.55
222.669	63.66
222.887	90.28
223.105	65.71
223.323	28.84
223.541	-38.74
223.759	94.38
223.977	41.13
224.195	16.55
224.413	-91.99
224.631	51.37
224.849	-1.88
225.067	0.17
225.285	26.79
225.503	-28.5
225.721	30.89
225.939	-22.36
226.157	24.75
226.375	26.79
226.592	-63.32
226.81	22.7
227.028	-8.02
227.246	14.51
227.464	71.85
227.682	102.57
227.9	37.03
228.117	131.24
228.335	98.47
228.553	12.46
228.771	0.17
228.989	59.56
229.206	32.94
229.424	49.32
229.642	18.6
229.86	39.08
230.077	67.75
230.295	8.36
230.513	59.56
230.731	-22.36
230.948	53.42
231.166	49.32
231.384	-18.26
231.601	22.7
231.819	37.03
232.037	-32.6
232.254	24.75
232.472	96.43
232.689	24.75
232.907	65.71
233.125	41.13
233.342	0.17
233.56	-5.97
233.777	77.99
233.995	-14.17
234.213	67.75
234.43	16.55
234.648	-32.6
234.865	37.03
235.083	55.47
235.3	-26.45
235.518	34.99
235.735	37.03
235.953	22.7
236.17	28.84
236.388	6.31
236.605	41.13
236.822	55.47
237.04	82.09
237.257	92.33
237.475	-32.6
237.692	55.47
237.909	69.8
238.127	2.22
238.344	22.7
238.562	20.65
238.779	0.17
238.996	-30.55
239.214	-16.21
239.431	92.33
239.648	-16.21
239.865	125.1
240.083	0.17
240.3	16.55
240.517	30.89
240.735	10.41
240.952	32.94
241.169	28.84
241.386	61.61
241.603	24.75
241.821	-34.64
242.038	-20.31
242.255	2.22
242.472	-28.5
242.689	57.51
242.907	43.18
243.124	-67.41
243.341	-16.21
243.558	-32.6
243.775	34.99
243.992	53.42
244.209	24.75
244.426	77.99
244.643	92.33
244.86	59.56
245.078	71.85
245.295	30.89
245.512	30.89
245.729	10.41
245.946	16.55
246.163	-24.4
246.38	51.37
246.597	10.41
246.814	59.56
247.031	24.75
247.248	51.37
247.464	53.42
247.681	2.22
247.898	14.51
248.115	49.32
248.332	-10.07
248.549	67.75
248.766	24.75
248.983	30.89
249.2	-3.93
249.417	-18.26
249.633	18.6
249.85	80.04
250.067	24.75
250.284	45.23
250.501	-3.93
250.717	-3.93
250.934	-32.6
251.151	-18.26
251.368	16.55
251.585	12.46
251.801	37.03
252.018	53.42
252.235	37.03
252.451	2.22
252.668	49.32
252.885	37.03
253.102	16.55
253.318	-14.17
253.535	-28.5
253.752	-18.26
253.968	-36.69
254.185	28.84
254.401	57.51
254.618	34.99
254.835	123.05
255.051	47.27
255.268	43.18
255.484	4.27
255.701	59.56
255.917	16.55
256.134	47.27
256.351	-1.88
256.567	-48.98
256.784	-14.17
257	16.55
257.217	82.09
257.433	20.65
257.65	51.37
257.866	-53.08
258.082	75.95
258.299	65.71
258.515	12.46
258.732	-34.64
258.948	90.28
259.165	28.84
259.381	32.94
259.597	102.57
259.814	37.03
260.03	43.18
260.246	86.19
260.463	-42.84
260.679	80.04
260.895	-1.88
261.112	16.55
261.328	-16.21
261.544	10.41
261.761	32.94
261.977	32.94
262.193	-3.93
262.409	8.36
262.626	20.65
262.842	47.27
263.058	8.36
263.274	24.75
263.49	24.75
263.707	18.6
263.923	-10.07
264.139	84.14
264.355	0.17
264.571	75.95
264.787	41.13
265.004	-28.5
265.22	47.27
265.436	18.6
265.652	55.47
265.868	26.79
266.084	2.22
266.3	69.8
266.516	10.41
266.732	28.84
266.948	84.14
267.164	59.56
267.38	24.75
267.596	92.33
267.812	18.6
268.028	24.75
268.244	53.42
268.46	-20.31
268.676	4.27
268.892	100.52
269.108	86.19
269.324	0.17
269.54	-5.97
269.756	41.13
269.972	-24.4
270.188	98.47
270.403	2.22
270.619	90.28
270.835	57.51
271.051	59.56
271.267	-14.17
271.483	26.79
271.698	41.13
271.914	32.94
272.13	71.85
272.346	45.23
272.562	75.95
272.777	32.94
272.993	37.03
273.209	26.79
273.425	84.14
273.64	-63.32
273.856	69.8
274.072	57.51
274.287	-22.36
274.503	16.55
274.719	51.37
274.934	2.22
275.15	65.71
275.366	14.51
275.581	-36.69
275.797	43.18
276.012	37.03
276.228	12.46
276.444	49.32
276.659	82.09
276.875	0.17
277.09	-5.97
277.306	57.51
277.521	26.79
277.737	30.89
277.952	22.7
278.168	12.46
278.383	-30.55
278.599	8.36
278.814	67.75
279.03	28.84
279.245	-8.02
279.461	32.94
279.676	-10.07
279.892	65.71
280.107	37.03
280.322	45.23
280.538	84.14
280.753	41.13
280.969	77.99
281.184	14.51
281.399	49.32
281.615	69.8
281.83	34.99
282.045	-10.07
282.26	-22.36
282.476	49.32
282.691	4.27
282.906	28.84
283.122	51.37
283.337	8.36
283.552	125.1
283.767	-24.4
283.983	41.13
284.198	-22.36
284.413	26.79
284.628	57.51
284.843	77.99
285.058	131.24
285.274	0.17
285.489	53.42
285.704	53.42
285.919	8.36
286.134	10.41
286.349	-20.31
286.564	-26.45
286.779	75.95
286.995	102.57
287.21	98.47
287.425	32.94
287.64	84.14
287.855	-38.74
288.07	8.36
288.285	24.75
288.5	32.94
288.715	37.03
288.93	49.32
289.145	53.42
289.36	71.85
289.575	-16.21
289.79	73.9
290.004	-3.93
290.219	133.29
290.434	16.55
290.649	-5.97
290.864	49.32
291.079	-5.97
291.294	-5.97
291.509	45.23
291.724	-3.93
291.938	16.55
292.153	51.37
292.368	-28.5
292.583	100.52
292.798	47.27
293.012	24.75
293.227	94.38
293.442	37.03
293.657	102.57
293.871	47.27
294.086	37.03
294.301	49.32
294.516	90.28
294.73	82.09
294.945	-38.74
295.16	77.99
295.374	59.56
295.589	8.36
295.804	41.13
296.018	20.65
296.233	30.89
296.447	34.99
296.662	39.08
296.877	-5.97
297.091	65.71
297.306	41.13
297.52	24.75
297.735	69.8
297.949	41.13
298.164	0.17
298.378	18.6
298.593	-34.64
298.807	84.14
299.022	37.03
299.236	69.8
299.451	51.37
299.665	-12.12
299.88	32.94
300.094	73.9
300.309	43.18
300.523	8.36
300.737	37.03
300.952	92.33
301.166	90.28
301.381	-16.21
301.595	57.51
301.809	98.47
302.024	43.18
302.238	65.71
302.452	0.17
302.667	47.27
302.881	61.61
303.095	86.19
303.309	-22.36
303.524	37.03
303.738	12.46
303.952	16.55
304.166	34.99
304.381	-8.02
304.595	114.86
304.809	57.51
305.023	57.51
305.237	-3.93
305.452	2.22
305.666	43.18
305.88	53.42
306.094	12.46
306.308	12.46
306.522	41.13
306.736	67.75
306.95	16.55
307.164	12.46
307.379	65.71
307.593	73.9
307.807	51.37
308.021	125.1
308.235	-3.93
308.449	73.9
308.663	45.23
308.877	28.84
309.091	98.47
309.305	-42.84
309.519	20.65
309.733	16.55
309.947	61.61
310.161	94.38
310.374	16.55
310.588	4.27
310.802	-61.27
311.016	22.7
311.23	14.51
311.444	82.09
311.658	6.31
311.872	6.31
312.085	96.43
312.299	-1.88
312.513	61.61
312.727	63.66
312.941	12.46
313.154	32.94
313.368	43.18
313.582	65.71
313.796	92.33
314.009	-16.21
314.223	49.32
314.437	63.66
314.651	55.47
314.864	55.47
315.078	0.17
315.292	0.17
315.505	20.65
315.719	32.94
315.933	49.32
316.146	12.46
316.36	22.7
316.573	22.7
316.787	90.28
317.001	49.32
317.214	26.79
317.428	100.52
317.641	43.18
317.855	16.55
318.068	-10.07
318.282	73.9
318.495	-14.17
318.709	73.9
318.922	53.42
319.136	51.37
319.349	41.13
319.563	118.95
319.776	24.75
319.99	8.36
320.203	8.36
320.417	6.31
320.63	16.55
320.843	-8.02
321.057	-32.6
321.27	10.41
321.483	51.37
321.697	37.03
321.91	37.03
322.124	51.37
322.337	65.71
322.55	47.27
322.763	51.37
322.977	28.84
323.19	39.08
323.403	41.13
323.617	14.51
323.83	49.32
324.043	0.17
324.256	51.37
324.469	10.41
324.683	98.47
324.896	92.33
325.109	53.42
325.322	65.71
325.535	37.03
325.748	0.17
325.962	80.04
326.175	37.03
326.388	39.08
326.601	73.9
326.814	32.94
327.027	49.32
327.24	49.32
327.453	2.22
327.666	63.66
327.879	108.71
328.092	131.24
328.305	-5.97
328.518	65.71
328.731	49.32
328.944	65.71
329.157	65.71
329.37	65.71
329.583	98.47
329.796	65.71
330.009	6.31
330.222	39.08
330.435	61.61
330.648	24.75
330.861	-28.5
331.073	20.65
331.286	10.41
331.499	77.99
331.712	32.94
331.925	63.66
332.138	30.89
332.35	32.94
332.563	32.94
332.776	12.46
332.989	20.65
333.202	6.31
333.414	12.46
333.627	98.47
333.84	41.13
334.053	127.14
334.265	55.47
334.478	-24.4
334.691	82.09
334.903	61.61
335.116	45.23
335.329	18.6
335.541	39.08
335.754	108.71
335.966	-22.36
336.179	65.71
336.392	32.94
336.604	0.17
336.817	118.95
337.029	-16.21
337.242	39.08
337.454	26.79
337.667	-5.97
337.88	137.38
338.092	106.67
338.305	28.84
338.517	-5.97
338.729	34.99
338.942	61.61
339.154	94.38
339.367	16.55
339.579	65.71
339.792	22.7
340.004	61.61
340.217	34.99
340.429	69.8
340.641	59.56
340.854	98.47
341.066	114.86
341.278	96.43
341.491	30.89
341.703	57.51
341.915	12.46
342.128	41.13
342.34	-30.55
342.552	45.23
342.764	98.47
342.977	63.66
343.189	10.41
343.401	98.47
343.613	-3.93
343.826	73.9
344.038	-24.4
344.25	102.57
344.462	4.27
344.674	8.36
344.886	26.79
345.099	139.43
345.311	20.65
345.523	10.41
345.735	24.75
345.947	45.23
346.159	49.32
346.371	30.89
346.583	-16.21
346.795	106.67
347.007	57.51
347.219	57.51
347.431	30.89
347.643	102.57
347.855	12.46
348.067	30.89
348.279	-20.31
348.491	59.56
348.703	65.71
348.915	10.41
349.127	-10.07
349.339	0.17
349.551	69.8
349.763	20.65
349.975	-28.5
350.187	106.67
350.399	28.84
350.61	104.62
350.822	8.36
351.034	45.23
351.246	32.94
351.458	57.51
351.669	51.37
351.881	41.13
352.093	12.46
352.305	59.56
352.517	77.99
352.728	63.66
352.94	123.05
353.152	34.99
353.363	41.13
353.575	-8.02
353.787	39.08
353.999	82.09
354.21	-8.02
354.422	-22.36
354.633	125.1
354.845	53.42
355.057	53.42
355.268	34.99
355.48	16.55
355.692	41.13
355.903	30.89
356.115	45.23
356.326	2.22
356.538	114.86
356.749	20.65
356.961	67.75
357.172	43.18
357.384	90.28
357.595	86.19
357.807	59.56
358.018	69.8
358.23	49.32
358.441	4.27
358.653	49.32
358.864	53.42
359.075	49.32
359.287	100.52
359.498	20.65
359.709	2.22
359.921	98.47
360.132	16.55
360.344	-20.31
360.555	26.79
360.766	39.08
360.977	20.65
361.189	8.36
361.4	-1.88
361.611	8.36
361.823	43.18
362.034	123.05
362.245	45.23
362.456	24.75
362.667	24.75
362.879	125.1
363.09	12.46
363.301	57.51
363.512	10.41
363.723	16.55
363.935	77.99
364.146	96.43
364.357	49.32
364.568	104.62
364.779	14.51
364.99	32.94
365.201	39.08
365.412	108.71
365.623	14.51
365.834	4.27
366.045	69.8
366.256	80.04
366.467	98.47
366.678	53.42
366.889	57.51
367.1	49.32
367.311	82.09
367.522	41.13
367.733	34.99
367.944	57.51
368.155	71.85
368.366	30.89
368.577	10.41
368.788	43.18
368.999	-12.12
369.209	30.89
369.42	69.8
369.631	102.57
369.842	39.08
370.053	39.08
370.264	73.9
370.474	37.03
370.685	98.47
370.896	-3.93
371.107	98.47
371.317	98.47
371.528	2.22
371.739	73.9
371.95	118.95
372.16	100.52
372.371	-16.21
372.582	16.55
372.792	45.23
373.003	57.51
373.214	77.99
373.424	73.9
373.635	45.23
373.846	82.09
374.056	57.51
374.267	88.23
374.477	69.8
374.688	43.18
374.898	69.8
375.109	0.17
375.319	69.8
375.53	59.56
375.74	0.17
375.951	10.41
376.161	39.08
376.372	96.43
376.582	-24.4
376.793	49.32
377.003	14.51
377.214	34.99
377.424	67.75
377.635	20.65
377.845	32.94
378.055	73.9
378.266	24.75
378.476	10.41
378.686	82.09
378.897	80.04
379.107	86.19
379.317	20.65
379.528	26.79
379.738	73.9
379.948	69.8
380.158	82.09
380.369	-8.02
380.579	-38.74
380.789	55.47
380.999	49.32
381.21	112.81
381.42	-12.12
381.63	41.13
381.84	34.99
382.05	-42.84
382.261	88.23
382.471	49.32
382.681	65.71
382.891	16.55
383.101	131.24
383.311	-24.4
383.521	71.85
383.731	26.79
383.941	75.95
384.151	30.89
384.361	20.65
384.571	18.6
384.781	34.99
384.991	90.28
385.201	49.32
385.411	116.9
385.621	98.47
385.831	82.09
386.041	118.95
386.251	37.03
386.461	20.65
386.671	59.56
386.881	51.37
387.091	178.34
387.301	-22.36
387.511	57.51
387.72	39.08
387.93	8.36
388.14	24.75
388.35	20.65
388.56	100.52
388.769	127.14
388.979	51.37
389.189	57.51
389.399	57.51
389.609	92.33
389.818	131.24
390.028	65.71
390.238	92.33
390.447	-22.36
390.657	63.66
390.867	82.09
391.076	63.66
391.286	116.9
391.496	90.28
391.705	77.99
391.915	188.58
392.125	30.89
392.334	53.42
392.544	65.71
392.753	135.34
392.963	30.89
393.172	57.51
393.382	43.18
393.591	49.32
393.801	67.75
394.01	49.32
394.22	108.71
394.429	123.05
394.639	69.8
394.848	92.33
395.058	90.28
395.267	141.48
395.477	77.99
395.686	86.19
395.895	137.38
396.105	129.19
396.314	98.47
396.524	131.24
396.733	123.05
396.942	86.19
397.152	39.08
397.361	155.82
397.57	32.94
397.78	106.67
397.989	114.86
398.198	118.95
398.407	133.29
398.617	98.47
398.826	67.75
399.035	69.8
399.244	100.52
399.453	100.52
399.663	137.38
399.872	82.09
400.081	123.05
400.29	92.33
400.499	43.18
400.708	108.71
400.917	116.9
401.127	77.99
401.336	71.85
401.545	135.34
401.754	123.05
401.963	133.29
402.172	98.47
402.381	172.2
402.59	131.24
402.799	129.19
403.008	47.27
403.217	141.48
403.426	118.95
403.635	67.75
403.844	133.29
404.053	159.91
404.262	102.57
404.471	39.08
404.68	106.67
404.888	159.91
405.097	155.82
405.306	77.99
405.515	168.1
405.724	168.1
405.933	196.78
406.142	155.82
406.35	149.67
406.559	174.25
406.768	196.78
406.977	223.4
407.185	82.09
407.394	180.39
407.603	180.39
407.812	245.93
408.02	241.83
408.229	233.64
408.438	200.87
408.646	260.26
408.855	200.87
409.064	235.69
409.272	174.25
409.481	221.35
409.69	260.26
409.898	164.01
410.107	260.26
410.315	315.56
410.524	241.83
410.733	243.88
410.941	356.52
411.15	379.04
411.358	282.79
411.567	426.15
411.775	411.81
411.984	426.15
412.192	327.85
412.401	383.14
412.609	338.09
412.818	432.29
413.026	438.44
413.234	508.07
413.443	467.11
413.651	422.05
413.86	485.54
414.068	549.03
414.276	639.14
414.485	569.51
414.693	600.23
414.901	546.98
415.11	657.57
415.318	622.75
415.526	557.22
415.734	696.48
415.943	714.91
416.151	737.44
416.359	706.72
416.567	719.01
416.776	733.34
416.984	839.84
417.192	819.36
417.4	864.41
417.608	811.17
417.817	884.89
418.025	946.33
418.233	991.39
418.441	946.33
418.649	1030.3
418.857	1038.49
419.065	1056.92
419.273	1106.07
419.481	1149.08
419.689	1251.48
419.897	1249.43
420.105	1224.86
420.313	1308.82
420.521	1368.21
420.729	1333.4
420.937	1308.82
421.145	1476.76
421.353	1527.96
421.561	1577.11
421.769	1728.66
421.977	1695.89
422.185	1749.14
422.393	1728.66
422.601	1855.63
422.809	1968.27
423.017	1853.58
423.224	1978.51
423.432	2072.72
423.64	2138.25
423.848	2228.36
424.056	2353.29
424.263	2355.33
424.471	2435.21
424.679	2308.23
424.887	2613.38
425.094	2613.38
425.302	2695.3
425.51	2728.07
425.718	2932.86
425.925	2824.32
426.133	2924.67
426.341	3096.7
426.548	3389.56
426.756	3268.73
426.964	3272.82
427.171	3477.62
427.379	3668.08
427.586	3727.47
427.794	3727.47
428.001	3819.63
428.209	4188.27
428.417	3999.85
428.624	4460.65
428.832	4239.47
429.039	4292.71
429.247	4319.34
429.454	4651.11
429.662	4919.39
429.869	4474.98
430.076	5042.27
430.284	4825.19
430.491	5042.27
430.699	5365.85
430.906	5359.7
431.114	5419.1
431.321	5445.72
431.528	5722.2
431.736	6174.8
431.943	6193.23
432.15	6146.12
432.358	6137.93
432.565	6563.91
432.772	6572.1
432.979	6803.52
433.187	7006.27
433.394	7059.52
433.601	7514.17
433.808	7514.17
434.016	7395.39
434.223	7823.41
434.43	8333.36
434.637	8276.01
434.844	8599.59
435.052	8851.49
435.259	8765.48
435.466	8765.48
435.673	8712.23
435.88	9365.53
436.087	9656.34
436.294	9840.66
436.501	9551.9
436.708	9871.38
436.915	10104.85
437.122	10584.07
437.329	10453
437.537	10625.03
437.743	10817.54
437.95	10856.45
438.157	11479.04
438.364	11950.07
438.571	11628.54
438.778	11948.02
438.985	13092.83
439.192	12541.93
439.399	12779.5
439.606	12599.27
439.813	13307.87
440.02	14110.68
440.227	13832.15
440.433	13557.72
440.64	14129.11
440.847	14125.01
441.054	14262.23
441.261	15470.53
441.467	15286.21
441.674	15450.05
441.881	16105.4
442.088	16060.34
442.294	15916.98
442.501	16162.74
442.708	16689.07
442.914	17309.6
443.121	18229.14
443.328	17313.7
443.534	18802.57
443.741	18300.82
443.948	17649.57
444.154	19230.6
444.361	19120.01
444.568	19550.08
444.774	19269.51
444.981	19611.52
445.187	19765.12
445.394	21020.52
445.6	20739.95
445.807	22744.91
446.013	21552.99
446.22	22093.66
446.426	23111.5
446.633	23269.19
446.839	24039.23
447.046	23076.68
447.252	24323.9
447.459	24078.14
447.665	24074.04
447.871	25198.38
448.078	26337.05
448.284	25001.77
448.491	25726.75
448.697	26529.56
448.903	27148.04
449.11	27002.64
449.316	26642.2
449.522	27139.85
449.728	28276.48
449.935	28137.21
450.141	27987.71
450.347	28968.69
450.553	28184.32
450.76	28024.58
450.966	29099.76
451.172	28792.56
451.378	29378.28
451.584	28866.29
451.791	29765.35
451.997	29775.59
452.203	29812.45
452.409	30555.86
452.615	30113.5
452.821	28878.58
453.027	28569.33
453.233	29779.68
453.44	28960.5
453.646	29533.93
453.852	29400.81
454.058	29974.24
454.264	28851.95
454.47	29357.8
454.676	28720.88
454.882	29929.19
455.088	27088.65
455.294	27379.46
455.5	27997.95
455.705	28237.56
455.911	27033.36
456.117	26824.47
456.323	26511.13
456.529	25040.68
456.735	25829.15
456.941	25149.23
457.147	25114.41
457.352	24362.81
457.558	23822.14
457.764	23758.66
457.97	23150.41
458.176	22918.99
458.381	23000.91
458.587	21780.32
458.793	21831.52
458.999	20701.04
459.204	22234.97
459.41	21659.49
459.616	20178.81
459.821	20203.38
460.027	20047.74
460.233	19931
460.438	18587.54
460.644	19109.77
460.85	18061.21
461.055	17627.04
461.261	17876.89
461.466	16523.18
461.672	15982.52
461.878	17129.38
462.083	15945.66
462.289	15767.48
462.494	15452.09
462.7	14940.1
462.905	14524.37
463.111	14794.7
463.316	15151.04
463.522	14671.82
463.727	14704.59
463.932	14827.46
464.138	14421.97
464.343	14714.83
464.549	14147.54
464.754	14622.67
464.959	14335.95
465.165	14346.19
465.37	13688.79
465.575	13451.23
465.781	13783
465.986	14204.88
466.191	13469.66
466.397	13107.17
466.602	12591.08
466.807	13158.37
467.012	13084.64
467.218	13148.13
467.423	12724.2
467.628	12883.94
467.833	13412.32
468.038	13064.16
468.244	12894.18
468.449	12961.76
468.654	12888.04
468.859	12455.92
469.064	12412.91
469.269	11937.78
469.474	12115.95
469.679	12161.01
469.885	11972.6
470.09	12027.89
470.295	12206.06
470.5	11730.94
470.705	11839.48
470.91	11657.21
471.115	11565.05
471.32	11859.96
471.525	11556.86
471.73	11491.32
471.935	11382.78
472.139	11038.72
472.344	11102.21
472.549	11042.82
472.754	10913.8
472.959	10539.02
473.164	10291.21
473.369	10285.07
473.574	10653.7
473.778	10434.57
473.983	10432.52
474.188	10315.79
474.393	9760.79
474.598	10018.83
474.802	9824.28
475.007	9775.13
475.212	9863.19
475.417	9320.48
475.621	9365.53
475.826	9392.16
476.031	9283.61
476.235	9005.09
476.44	9429.02
476.645	9281.57
476.849	9154.59
477.054	8849.44
477.259	8814.63
477.463	8871.97
477.668	8546.34
477.872	8708.13
478.077	8472.62
478.282	8437.8
478.486	8407.08
478.691	8269.87
478.895	8185.9
479.1	8216.62
479.304	8196.14
479.509	7780.4
479.713	8030.26
479.918	7962.67
480.122	7630.9
480.326	7901.23
480.531	7983.15
480.735	7792.69
480.94	7786.55
481.144	8036.4
481.348	7522.36
481.553	7694.39
481.757	7585.85
481.961	7833.65
482.166	7700.53
482.37	7561.27
482.574	7473.21
482.778	7616.57
482.983	7708.73
483.187	7469.11
483.391	7637.05
483.595	7536.7
483.8	7571.51
484.004	7581.75
484.208	7823.41
484.412	7460.92
484.616	7616.57
484.821	7696.44
485.025	7319.61
485.229	7575.61
485.433	7477.3
485.637	7508.02
485.841	7501.88
486.045	7495.74
486.249	7413.82
486.453	7483.45
486.657	7551.03
486.861	7620.66
487.065	7305.28
487.269	7366.71
487.473	7292.99
487.677	7587.89
487.881	7585.85
488.085	7626.81
488.289	7577.66
488.493	7536.7
488.697	7667.77
488.901	7594.04
489.105	7692.34
489.309	7651.38
489.512	7643.19
489.716	7688.25
489.92	7653.43
490.124	7645.24
490.328	7778.36
490.531	7802.93
490.735	7714.87
490.939	7755.83
491.143	7573.56
491.346	7684.15
491.55	7934
491.754	8011.82
491.958	7874.61
492.161	7903.28
492.365	8081.46
492.569	7958.58
492.772	8040.5
492.976	7921.71
493.18	8063.02
493.383	8103.98
493.587	8196.14
493.79	8405.03
493.994	8120.37
494.197	8245.29
494.401	8243.24
494.605	8230.96
494.808	8615.98
495.012	8546.34
495.215	8675.37
495.419	8673.32
495.622	8876.07
495.825	8927.27
496.029	8585.26
496.232	8867.88
496.436	8820.77
496.639	9283.61
496.843	9248.8
497.046	9394.2
497.249	9447.45
497.453	9650.2
497.656	9617.43
497.859	9705.49
498.063	9676.82
498.266	9834.52
498.469	9879.57
498.673	9908.24
498.876	10100.75
499.079	10496.01
499.282	10293.26
499.485	10694.66
499.689	10825.73
499.892	10668.04
500.095	10774.53
500.298	10989.57
500.501	11147.26
500.705	11341.82
500.908	11311.1
501.111	11399.16
501.314	11530.23
501.517	11669.5
501.72	11857.91
501.923	11886.58
502.126	12023.8
502.329	12128.24
502.532	12351.47
502.735	12658.67
502.938	12793.83
503.141	12722.15
503.344	13066.21
503.547	13088.74
503.75	13213.67
503.953	13320.16
504.156	13436.89
504.359	13682.65
504.562	14090.2
504.765	14055.38
504.968	14159.83
505.17	14352.34
505.373	14473.17
505.576	14716.87
505.779	14944.2
505.982	14985.16
506.185	15411.14
506.387	15460.29
506.59	15595.45
506.793	15837.11
506.996	15972.28
507.198	16435.12
507.401	16283.57
507.604	16418.74
507.807	16693.16
508.009	17006.5
508.212	17207.2
508.415	17278.88
508.617	17430.43
508.82	17684.38
509.022	17819.55
509.225	18302.87
509.428	18288.53
509.63	18450.32
509.833	18599.82
510.035	19154.82
510.238	19015.56
510.44	19064.71
510.643	19777.4
510.845	19705.73
511.048	20025.21
511.25	20225.91
511.453	20293.49
511.655	20729.71
511.858	20856.68
512.06	21184.36
512.262	21364.58
512.465	21538.66
512.667	21903.2
512.87	21972.83
513.072	22062.94
513.274	22407
513.477	22669.14
513.679	23273.29
513.881	23371.59
514.084	23088.97
514.286	23502.66
514.488	23668.55
514.69	24330.04
514.893	24491.83
515.095	24600.37
515.297	24817.46
515.499	25265.96
515.701	25495.33
515.904	25605.92
516.106	25958.17
516.308	26496.79
516.51	26488.6
516.712	26703.64
516.914	26617.62
517.116	27324.17
517.318	27608.84
517.52	27698.95
517.722	27967.23
517.925	28161.79
518.127	29019.89
518.329	28749.56
518.531	29023.98
518.733	29982.43
518.935	29535.98
519.136	29658.85
519.338	30281.44
519.54	30654.17
519.742	30940.88
519.944	31016.66
520.146	31659.72
520.348	31747.78
520.55	31817.41
520.752	31991.49
520.954	32526.01
521.155	32405.18
521.357	32972.47
521.559	33425.07
521.761	33722.02
521.963	33969.83
522.164	33861.29
522.366	34234.02
522.568	34365.09
522.77	34705.05
522.971	35309.2
523.173	35184.27
523.375	34956.95
523.576	35700.36
523.778	35673.74
523.98	36159.11
524.181	36492.93
524.383	36499.07
524.584	36820.6
524.786	36810.36
524.988	36664.96
525.189	37760.62
525.391	37725.8
525.592	38114.92
525.794	38098.53
525.995	38000.23
526.197	38401.63
526.398	38291.04
526.6	38581.85
526.801	38800.99
527.003	38803.03
527.204	39312.98
527.406	39319.12
527.607	39265.88
527.808	39671.37
528.01	39128.66
528.211	39442
528.412	40126.02
528.614	40085.06
528.815	39865.93
529.016	40685.12
529.218	40060.49
529.419	40392.26
529.62	40836.67
529.822	40875.58
530.023	40666.69
530.224	40777.28
530.425	40683.07
530.626	40449.6
530.828	41006.65
531.029	41750.06
531.23	41037.37
531.431	41147.96
531.632	41133.62
531.833	41246.26
532.035	41238.07
532.236	41436.72
532.437	41424.43
532.638	41442.87
532.839	41909.8
533.04	41950.76
533.241	41305.65
533.442	42401.32
533.643	41711.15
533.844	42006.06
534.045	42180.14
534.246	41360.95
534.447	41526.83
534.648	41635.38
534.849	41891.37
535.05	41852.46
535.251	42042.92
535.451	41600.56
535.652	41883.18
535.853	42208.81
536.054	42225.19
536.255	42399.27
536.456	41674.29
536.657	42552.87
536.857	42364.45
537.058	42006.06
537.259	42733.09
537.46	42135.08
537.66	42161.7
537.861	42135.08
538.062	41999.91
538.263	42214.95
538.463	41786.93
538.664	41987.63
538.865	42108.46
539.065	42542.63
539.266	41877.04
539.466	42489.38
539.667	41743.92
539.868	42333.73
540.068	42110.5
540.269	42096.17
540.469	42503.71
540.67	42049.07
540.87	41989.67
541.071	42260.01
541.271	42200.61
541.472	42298.92
541.672	41766.45
541.873	42059.3
542.073	41735.73
542.274	42217
542.474	42001.96
542.675	42223.14
542.875	42343.97
543.075	42049.07
543.276	41588.27
543.476	42569.25
543.676	41952.81
543.877	42446.37
544.077	42200.61
544.277	41997.87
544.478	41930.28
544.678	42833.44
544.878	41948.71
545.078	42057.26
545.279	41475.63
545.479	41711.15
545.679	41983.53
545.879	41752.11
546.079	41881.13
546.28	41715.25
546.48	41815.6
546.68	42028.59
546.88	41811.5
547.08	42178.09
547.28	41811.5
547.48	41565.74
547.68	42051.11
547.88	41408.05
548.081	41739.82
548.281	41971.24
548.481	42120.74
548.681	41989.67
548.881	41662
549.081	42130.98
549.28	41793.07
549.48	41856.56
549.68	41793.07
549.88	42268.2
550.08	41604.66
550.28	41748.01
550.48	41455.15
550.68	41961
550.88	41918
551.08	41827.88
551.279	42223.14
551.479	41610.8
551.679	41938.47
551.879	41748.01
552.079	41657.9
552.278	41770.54
552.478	41655.86
552.678	41893.42
552.878	41963.05
553.077	41422.39
553.277	40891.96
553.477	41963.05
553.676	41682.48
553.876	41563.7
554.076	41598.51
554.275	41356.85
554.475	41049.66
554.674	41543.22
554.874	41356.85
555.074	41266.74
555.273	41385.52
555.473	41788.97
555.672	40734.27
555.872	41219.64
556.071	41365.04
556.271	41522.74
556.47	41383.48
556.67	40826.43
556.869	41053.75
557.068	40851
557.268	40740.41
557.467	40654.4
557.667	40695.36
557.866	40863.29
558.065	40320.58
558.265	40465.99
558.464	40519.23
558.663	41111.1
558.863	40271.43
559.062	40885.82
559.261	40154.69
559.461	40486.46
559.66	39994.95
559.859	40398.4
560.058	39937.61
560.258	40267.33
560.457	39872.07
560.656	40545.86
560.855	39325.27
561.054	40236.61
561.253	39433.81
561.453	39714.38
561.652	39714.38
561.851	39685.71
562.05	39650.89
562.249	39693.9
562.448	39573.07
562.647	39353.94
562.846	39306.83
563.045	39644.75
563.244	38887
563.443	39507.54
563.642	38784.6
563.841	39128.66
564.04	38723.16
564.239	39214.68
564.438	38422.11
564.637	38960.73
564.836	38831.71
565.035	38712.92
565.234	38815.32
565.432	38317.67
565.631	38540.89
565.83	38399.58
566.029	38368.87
566.228	38368.87
566.427	38233.7
566.625	37934.7
566.824	37781.1
567.023	38346.34
567.222	37887.59
567.42	37981.8
567.619	38116.97
567.818	37756.52
568.016	37441.14
568.215	37885.54
568.414	37881.45
568.612	37860.97
568.811	37676.65
569.01	37512.81
569.208	36763.26
569.407	37578.35
569.605	36759.16
569.804	37179
570.002	36796.03
570.201	36867.7
570.4	36286.08
570.598	36337.28
570.797	36236.93
570.995	36357.76
571.193	35962.5
571.392	36411.01
571.59	35960.45
571.789	36054.66
571.987	36003.46
572.186	35720.84
572.384	35532.43
572.582	35729.03
572.781	35782.28
572.979	35346.06
573.177	35434.13
573.376	35415.69
573.574	35290.77
573.772	34969.24
573.971	34993.81
574.169	34981.52
574.367	34678.43
574.565	34932.37
574.763	34449.05
574.962	34371.23
575.16	34018.98
575.358	34248.35
575.556	33818.28
575.754	34422.43
575.952	34035.36
576.151	34180.77
576.349	33803.94
576.547	33969.83
576.745	33810.09
576.943	33625.77
577.141	33408.68
577.339	33627.82
577.537	33138.35
577.735	33386.16
577.933	33287.85
578.131	33083.06
578.329	32558.78
578.527	32552.63
578.725	32921.27
578.923	32839.35
579.121	32534.2
579.319	32501.43
579.516	32507.58
579.714	32214.72
579.912	32136.9
580.11	31710.92
580.308	31798.98
580.506	31999.68
580.704	31354.57
580.901	31815.37
581.099	32214.72
581.297	31585.99
581.495	31504.07
581.692	31895.24
581.89	31342.28
582.088	31516.36
582.285	30912.21
582.483	31514.31
582.681	30869.2
582.878	31147.73
583.076	30695.13
583.274	30920.4
583.471	30559.96
583.669	30588.63
583.866	30066.4
584.064	30531.29
584.262	30236.38
584.459	30117.6
584.657	29925.09
584.854	29953.76
585.052	29826.79
585.249	29624.04
585.447	29927.14
585.644	29329.13
585.841	29464.3
586.039	29628.13
586.236	29345.51
586.434	29308.65
586.631	29110
586.828	29409
587.026	29409
587.223	28983.02
587.42	28806.9
587.618	28792.56
587.815	28389.11
588.012	28743.41
588.21	28616.44
588.407	28765.94
588.604	28270.33
588.801	28208.89
588.999	28131.07
589.196	28188.41
589.393	28372.73
589.59	28036.86
589.787	28040.96
589.984	27485.96
590.182	27787.01
590.379	27770.63
590.576	27721.48
590.773	27694.85
590.97	27336.46
591.167	27582.21
591.364	27004.69
591.561	27379.46
591.758	26758.93
591.955	27117.32
592.152	27182.86
592.349	26601.24
592.546	26711.83
592.743	26916.62
592.94	26429.21
593.137	26515.22
593.334	26777.36
593.531	26318.62
593.727	26457.88
593.924	26193.69
594.121	26097.44
594.318	26087.2
594.515	25935.65
594.712	26070.81
594.908	25872.16
595.105	25716.51
595.302	25687.84
595.499	25784.1
595.696	25669.41
595.892	25323.3
596.089	25599.78
596.286	25696.03
596.482	25175.85
596.679	25323.3
596.876	25138.99
597.072	25028.4
597.269	24891.18
597.466	24698.67
597.662	24690.48
597.859	24999.73
598.055	24786.74
598.252	24457.01
598.448	24553.27
598.645	24436.53
598.841	24407.86
599.038	24426.29
599.234	24338.23
599.431	24362.81
599.627	24209.21
599.824	24391.48
600.02	23918.4
600.217	24041.28
600.413	23951.17
600.609	23875.39
600.806	23517
601.002	23725.89
601.198	23437.13
601.395	23580.48
601.591	23414.6
601.787	23310.15
601.984	23011.15
602.18	23355.21
602.376	22898.51
602.572	22994.76
602.769	22927.18
602.965	22796.11
603.161	22953.8
603.357	22789.97
603.553	22765.39
603.75	22820.69
603.946	22335.32
604.142	22196.06
604.338	22331.22
604.534	22650.71
604.73	22194.01
604.926	21946.2
605.122	22071.13
605.318	22069.08
605.514	21786.46
605.71	21966.68
605.906	21821.28
606.102	21645.15
606.298	21677.92
606.494	21790.56
606.69	21372.77
606.886	21487.46
607.082	21194.6
607.278	21409.64
607.474	20995.95
607.67	21444.45
607.866	20963.18
608.062	21315.43
608.257	21106.54
608.453	21143.4
608.649	21010.28
608.845	20971.37
609.041	20887.4
609.236	20995.95
609.432	20512.63
609.628	20615.02
609.824	20369.27
610.019	20537.2
610.215	20578.16
610.411	20557.68
610.606	20313.97
610.802	20424.56
610.998	20422.52
611.193	20330.36
611.389	20023.16
611.584	20139.9
611.78	19830.65
611.976	20047.74
612.171	19945.34
612.367	19892.09
612.562	19728.25
612.758	19505.03
612.953	19832.7
613.149	19738.49
613.344	19552.13
613.539	19738.49
613.735	19591.04
613.93	19699.58
614.126	19570.56
614.321	19699.58
614.517	19703.68
614.712	19382.15
614.907	19179.4
615.103	19466.11
615.298	19120.01
615.493	19502.98
615.688	18943.88
615.884	19210.12
616.079	18886.54
616.274	18827.15
616.47	18986.89
616.665	18810.76
616.86	18802.57
617.055	18636.69
617.25	18610.06
617.445	18880.39
617.641	18286.48
617.836	18642.83
618.031	18288.53
618.226	18354.07
618.421	18323.35
618.616	18491.28
618.811	18022.3
619.006	18196.37
619.201	17833.88
619.396	18079.64
619.591	17858.46
619.786	18010.01
619.981	17682.33
620.176	17715.1
620.371	17522.59
620.566	17655.71
620.761	17457.06
620.956	17205.16
621.151	17174.44
621.346	17219.49
621.541	16981.93
621.735	17354.66
621.93	16598.96
622.125	16965.54
622.32	16580.53
622.515	16934.82
622.709	16730.03
622.904	16582.57
623.099	16398.26
623.294	16279.47
623.488	16514.99
623.683	16105.4
623.878	16000.95
624.072	15994.81
624.267	15900.6
624.462	15820.73
624.656	15673.28
624.851	15773.63
625.046	15755.19
625.24	15499.2
625.435	15390.66
625.629	15394.75
625.824	15325.12
626.018	15179.72
626.213	14788.55
626.407	15185.86
626.602	14766.03
626.796	15013.83
626.991	14952.39
627.185	14581.71
627.38	14933.96
627.574	14270.42
627.768	14481.36
627.963	14374.86
628.157	14159.83
628.352	14294.99
628.546	14079.96
628.74	14114.77
628.935	13975.51
629.129	13926.36
629.323	13705.18
629.517	13826.01
629.712	13633.5
629.906	13664.22
630.1	13529.05
630.294	13510.62
630.489	13570.01
630.683	13510.62
630.877	13301.73
631.071	13168.61
631.265	13336.54
631.459	12955.62
631.653	13238.24
631.848	13090.79
632.042	12795.88
632.236	12955.62
632.43	12713.96
632.624	12824.55
632.818	12687.34
633.012	12398.57
633.206	12558.32
633.4	12503.02
633.594	12517.36
633.788	12232.69
633.982	12218.35
634.176	12201.97
634.369	12167.15
634.563	11984.88
634.757	11984.88
634.951	12193.78
635.145	11755.51
635.339	11827.19
635.533	11704.31
635.726	11759.61
635.92	11456.51
636.114	11563
636.308	11634.68
636.501	11378.69
636.695	11589.63
636.889	11188.22
637.083	11065.35
637.276	11094.02
637.47	11177.98
637.664	11134.98
637.857	11055.11
638.051	11175.94
638.244	10807.3
638.438	10962.95
638.632	10817.54
638.825	10784.77
639.019	10700.81
639.212	10534.92
639.406	10584.07
639.599	10520.59
639.793	10272.78
639.986	10354.7
640.18	10358.8
640.373	10338.32
640.567	10274.83
640.76	10299.41
640.954	10178.58
641.147	9971.73
641.34	9996.31
641.534	10027.03
641.727	9807.89
641.92	9936.92
642.114	9621.53
642.307	9707.54
642.5	9627.67
642.694	9318.43
642.887	9660.44
643.08	9637.91
643.273	9351.2
643.467	9273.37
643.66	9283.61
643.853	9347.1
644.046	9093.15
644.239	9162.78
644.432	8945.7
644.626	8990.75
644.819	8945.7
645.012	9152.54
645.205	8785.96
645.398	8949.79
645.591	8806.44
645.784	8650.79
645.977	8853.54
646.17	8615.98
646.363	8392.75
646.556	8464.43
646.749	8521.77
646.942	8458.28
647.135	8390.7
647.328	8347.69
647.521	8140.85
647.714	8099.89
647.907	8169.52
648.099	8134.7
648.292	8142.89
648.485	7983.15
648.678	8036.4
648.871	8081.46
649.064	7845.94
649.256	7882.8
649.449	7794.74
649.642	7710.77
649.835	7956.53
650.027	7589.94
650.22	7610.42
650.413	7411.77
650.605	7505.98
650.798	7602.23
650.991	7305.28
651.183	7315.52
651.376	7202.88
651.568	7190.59
651.761	7292.99
651.954	7364.67
652.146	7180.35
652.339	7190.59
652.531	7082.05
652.724	7004.22
652.916	6854.72
653.109	7014.46
653.301	6860.87
653.494	6733.89
653.686	6828.1
653.879	6809.67
654.071	6733.89
654.263	6664.26
654.456	6758.47
654.648	6840.39
654.84	6488.14
655.033	6598.73
655.225	6561.86
655.417	6459.46
655.61	6553.67
655.802	6510.66
655.994	6410.31
656.186	6400.07
656.379	6209.61
656.571	6262.86
656.763	6182.99
656.955	6256.72
657.148	6139.98
657.34	6264.91
657.532	6142.03
657.724	5980.24
657.916	5967.95
658.108	5990.48
658.3	5861.46
658.492	5982.29
658.684	5797.97
658.876	5849.17
659.068	5728.34
659.26	5824.59
659.452	5726.29
659.644	5726.29
659.836	5748.82
660.028	5644.37
660.22	5595.22
660.412	5572.69
660.604	5404.76
660.796	5449.82
660.988	5283.93
661.18	5341.27
661.372	5259.35
661.563	5351.51
661.755	5316.7
661.947	5263.45
662.139	5294.17
662.331	5279.83
662.522	5161.05
662.714	5070.94
662.906	5066.85
663.097	5062.75
663.289	5103.71
663.481	4966.49
663.673	4905.06
663.864	4952.16
664.056	4962.4
664.247	4900.96
664.439	4720.74
664.631	4739.17
664.822	4812.9
665.014	4810.85
665.205	4708.45
665.397	4710.5
665.588	4647.01
665.78	4638.82
665.971	4653.16
666.163	4661.35
666.354	4528.23
666.546	4589.67
666.737	4384.87
666.929	4450.41
667.12	4464.74
667.311	4452.45
667.503	4413.54
667.694	4548.71
667.885	4272.23
668.077	4409.45
668.268	4214.89
668.459	4409.45
668.651	4149.36
668.842	4186.22
669.033	4233.32
669.224	4075.63
669.416	4257.9
669.607	4268.14
669.798	4114.54
669.989	4247.66
670.18	4173.93
670.371	4059.24
670.563	4130.92
670.754	4040.81
670.945	3991.66
671.136	4014.19
671.327	4141.16
671.518	3815.54
671.709	3958.89
671.9	3977.33
672.091	3954.8
672.282	3876.98
672.473	3827.82
672.664	3932.27
672.855	3885.17
673.046	3952.75
673.237	3985.52
673.428	3885.17
673.619	3721.33
673.809	3635.32
674	3768.43
674.191	3747.95
674.382	3778.67
674.573	3799.15
674.764	3793.01
674.954	3569.78
675.145	3704.95
675.336	3557.49
675.527	3719.28
675.717	3608.69
675.908	3768.43
676.099	3600.5
676.289	3711.09
676.48	3508.34
676.671	3633.27
676.861	3604.6
677.052	3475.57
677.243	3534.96
677.433	3514.49
677.624	3541.11
677.814	3475.57
678.005	3469.43
678.195	3518.58
678.386	3506.29
678.576	3438.71
678.767	3459.19
678.957	3354.74
679.148	3451
679.338	3342.46
679.529	3350.65
679.719	3379.32
679.909	3543.16
680.1	3379.32
680.29	3489.91
680.481	3227.77
680.671	3377.27
680.861	3248.25
681.052	3391.61
681.242	3270.78
681.432	3307.64
681.622	3369.08
681.813	3326.07
682.003	3260.54
682.193	3313.78
682.383	3364.98
682.573	3225.72
682.764	3201.15
682.954	3283.06
683.144	3235.96
683.334	3307.64
683.524	3233.91
683.714	3186.81
683.904	3195
684.094	3219.58
684.284	3256.44
684.474	3324.02
684.664	3319.93
684.854	3231.87
685.044	3186.81
685.234	3088.51
685.424	3135.61
685.614	3031.16
685.804	3117.18
685.994	3186.81
686.184	3119.23
686.374	3068.03
686.564	3156.09
686.753	3154.04
686.943	3141.75
687.133	3086.46
687.323	3135.61
687.513	3076.22
687.702	3055.74
687.892	2994.3
688.082	3053.69
688.272	3059.84
688.461	3080.32
688.651	2973.82
688.841	2877.57
689.03	3117.18
689.22	2969.73
689.41	2982.01
689.599	2867.33
689.789	3080.32
689.979	2975.87
690.168	3072.12
690.358	2947.2
690.547	2939.01
690.737	2859.14
690.926	3043.45
691.116	2926.72
691.305	2926.72
691.495	2857.09
691.684	2844.8
691.874	2951.29
692.063	2857.09
692.252	2998.4
692.442	3004.54
692.631	2998.4
692.82	2844.8
693.01	2916.48
693.199	2959.49
693.388	2951.29
693.578	2705.54
693.767	2875.52
693.956	2941.05
694.146	2855.04
694.335	2850.94
694.524	2959.49
694.713	2900.09
694.902	2924.67
695.092	2879.61
695.281	2908.29
695.47	2779.26
695.659	2787.46
695.848	2908.29
696.037	2932.86
696.226	2814.08
696.415	2818.18
696.604	2926.72
696.793	2902.14
696.982	2869.37
697.171	2834.56
697.36	2875.52
697.549	2812.03
697.738	2746.5
697.927	2875.52
698.116	2922.62
698.305	2852.99
698.494	2834.56
698.683	2777.22
698.872	2877.57
699.061	2896
699.25	2695.3
699.438	2775.17
699.627	2848.9
699.816	2883.71
700.005	2801.79
700.193	2781.31
700.382	2844.8
700.571	2852.99
700.76	2900.09
700.948	2846.85
701.137	2783.36
701.326	2873.47
701.514	2726.02
701.703	2812.03
701.892	2637.95
702.08	2709.63
702.269	2777.22
702.457	2793.6
702.646	2736.26
702.834	2695.3
703.023	2695.3
703.212	2723.97
703.4	2728.07
703.589	2717.83
703.777	2852.99
703.965	2701.44
704.154	2738.3
704.342	2572.42
704.531	2742.4
704.719	2680.96
704.907	2689.15
705.096	2588.8
705.284	2613.38
705.472	2607.23
705.661	2642.05
705.849	2689.15
706.037	2584.71
706.226	2627.71
706.414	2609.28
706.602	2599.04
706.79	2582.66
706.979	2629.76
707.167	2574.47
707.355	2623.62
707.543	2549.89
707.731	2654.34
707.919	2558.08
708.107	2543.75
708.296	2480.26
708.484	2490.5
708.672	2564.23
708.86	2529.41
709.048	2601.09
709.236	2478.21
709.424	2654.34
709.612	2373.77
709.8	2449.54
709.988	2384.01
710.176	2472.07
710.364	2474.12
710.551	2379.91
710.739	2406.53
710.927	2336.9
711.115	2492.55
711.303	2369.67
711.491	2400.39
711.679	2435.21
711.866	2287.75
712.054	2508.93
712.242	2422.92
712.43	2371.72
712.617	2287.75
712.805	2318.47
712.993	2324.62
713.181	2277.51
713.368	2297.99
713.556	2367.62
713.744	2189.45
713.931	2308.23
714.119	2336.9
714.306	2248.84
714.494	2250.89
714.682	2279.56
714.869	2156.68
715.057	2228.36
715.244	2203.79
715.432	2214.02
715.619	2181.26
715.807	2197.64
715.994	2191.5
716.182	2058.38
716.369	2162.83
716.556	2187.4
716.744	2222.22
716.931	2252.94
717.119	2189.45
717.306	2130.06
717.493	2189.45
717.681	2144.39
717.868	1990.8
718.055	2093.19
718.242	2111.63
718.43	2168.97
718.617	2128.01
718.804	2048.14
718.991	2205.83
719.179	2013.32
719.366	2031.76
719.553	2056.33
719.74	1984.65
719.927	2009.23
720.114	2052.24
720.301	2042
720.488	2056.33
720.676	2078.86
720.863	1968.27
721.05	1902.73
721.237	1919.12
721.424	1919.12
721.611	1929.36
721.798	1917.07
721.985	1945.74
722.172	1857.68
722.358	1888.4
722.545	1941.65
722.732	1896.59
722.919	1865.87
723.106	1898.64
723.293	1882.25
723.48	1814.67
723.667	1849.49
723.853	1867.92
724.04	1806.48
724.227	1765.52
724.414	1818.77
724.6	1818.77
724.787	1826.96
724.974	1857.68
725.161	1786
725.347	1745.04
725.534	1802.38
725.72	1788.05
725.907	1689.74
726.094	1747.09
726.28	1867.92
726.467	1624.21
726.653	1857.68
726.84	1742.99
727.027	1732.75
727.213	1726.61
727.4	1683.6
727.586	1716.37
727.773	1624.21
727.959	1749.14
728.145	1702.03
728.332	1671.31
728.518	1585.3
728.705	1683.6
728.891	1673.36
729.077	1622.16
729.264	1683.6
729.45	1640.59
729.636	1597.59
729.823	1452.18
730.009	1718.42
730.195	1697.94
730.382	1601.68
730.568	1644.69
730.754	1628.31
730.94	1667.22
731.126	1652.88
731.313	1675.41
731.499	1618.07
731.685	1548.44
731.871	1554.58
732.057	1679.51
732.243	1624.21
732.429	1548.44
732.615	1640.59
732.801	1648.79
732.987	1503.38
733.173	1515.67
733.359	1624.21
733.545	1620.11
733.731	1482.9
733.917	1706.13
734.103	1573.01
734.289	1609.87
734.475	1499.28
734.661	1474.71
734.847	1550.48
735.033	1552.53
735.219	1454.23
735.404	1515.67
735.59	1491.09
735.776	1597.59
735.962	1468.56
736.148	1517.72
736.333	1450.13
736.519	1482.9
736.705	1423.51
736.89	1466.52
737.076	1466.52
737.262	1491.09
737.447	1489.04
737.633	1538.2
737.819	1456.28
738.004	1450.13
738.19	1417.37
738.375	1374.36
738.561	1452.18
738.747	1337.49
738.932	1390.74
739.118	1351.83
739.303	1314.97
739.489	1413.27
739.674	1374.36
739.859	1368.21
740.045	1306.77
740.23	1337.49
740.416	1351.83
740.601	1396.89
740.786	1405.08
740.972	1245.34
741.157	1329.3
741.342	1339.54
741.528	1282.2
741.713	1237.14
741.898	1267.86
742.084	1187.99
742.269	1144.99
742.454	1265.82
742.639	1263.77
742.824	1286.3
743.01	1224.86
743.195	1228.95
743.38	1224.86
743.565	1255.58
743.75	1261.72
743.935	1312.92
744.12	1304.73
744.305	1222.81
744.49	1181.85
744.675	1192.09
744.86	1224.86
745.045	1235.1
745.23	1155.23
745.415	1245.34
745.6	1179.8
745.785	1149.08
745.97	1134.75
746.155	1179.8
746.34	1198.23
746.525	1104.03
746.71	1196.18
746.895	1106.07
747.079	1237.14
747.264	1046.68
747.449	1116.31
747.634	1020.06
747.819	1149.08
748.003	1065.11
748.188	1046.68
748.373	1155.23
748.557	1067.16
748.742	1052.83
748.927	1001.63
749.111	1050.78
749.296	1091.74
749.481	1015.96
749.665	934.04
749.85	977.05
750.034	1067.16
750.219	1032.35
750.404	968.86
750.588	938.14
750.773	934.04
750.957	1050.78
751.141	1013.92
751.326	958.62
751.51	952.48
751.695	1020.06
751.879	932
752.064	944.28
752.248	981.15
752.432	938.14
752.617	921.76
752.801	927.9
752.985	944.28
753.17	952.48
753.354	878.75
753.538	870.56
753.722	909.47
753.907	913.56
754.091	858.27
754.275	905.37
754.459	893.09
754.643	798.88
754.828	936.09
755.012	921.76
755.196	837.79
755.38	770.21
755.564	811.17
755.748	827.55
755.932	764.06
756.116	794.78
756.3	829.6
756.484	835.74
756.668	813.21
756.852	780.45
757.036	858.27
757.22	807.07
757.404	860.32
757.588	843.93
757.772	731.3
757.956	796.83
758.14	770.21
758.323	725.15
758.507	745.63
758.691	706.72
758.875	716.96
759.059	731.3
759.242	762.02
759.426	727.2
759.61	680.1
759.794	704.67
759.977	731.3
760.161	669.86
760.345	663.71
760.528	678.05
760.712	655.52
760.895	745.63
761.079	729.25
761.263	716.96
761.446	692.38
761.63	671.9
761.813	596.13
761.997	733.34
762.18	690.34
762.364	682.14
762.547	647.33
762.731	655.52
762.914	673.95
763.098	655.52
763.281	700.58
763.464	680.1
763.648	573.6
763.831	692.38
764.015	637.09
764.198	653.47
764.381	725.15
764.564	624.8
764.748	583.84
764.931	678.05
765.114	585.89
765.297	667.81
765.481	573.6
765.664	622.75
765.847	630.95
766.03	587.94
766.213	546.98
766.397	630.95
766.58	583.84
766.763	616.61
766.946	594.08
767.129	602.27
767.312	532.64
767.495	575.65
767.678	592.03
767.861	557.22
768.044	589.99
768.227	592.03
768.41	530.59
768.593	571.55
768.776	532.64
768.959	688.29
769.142	589.99
769.324	639.14
769.507	565.41
769.69	549.03
769.873	575.65
770.056	567.46
770.239	602.27
770.421	534.69
770.604	561.31
770.787	587.94
770.97	536.74
771.152	454.82
771.335	585.89
771.518	460.96
771.7	594.08
771.883	561.31
772.066	549.03
772.248	567.46
772.431	567.46
772.613	561.31
772.796	614.56
772.978	499.88
773.161	506.02
773.343	544.93
773.526	534.69
773.708	473.25
773.891	512.16
774.073	557.22
774.256	542.88
774.438	499.88
774.621	499.88
774.803	528.55
774.985	536.74
775.168	508.07
775.35	501.92
775.532	540.83
775.715	503.97
775.897	467.11
776.079	489.64
776.261	446.63
776.444	489.64
776.626	491.68
776.808	495.78
776.99	413.86
777.173	452.77
777.355	426.15
777.537	426.15
777.719	485.54
777.901	417.96
778.083	477.35
778.265	354.47
778.447	438.44
778.629	415.91
778.811	438.44
778.993	409.76
779.175	501.92
779.357	393.38
779.539	426.15
779.721	417.96
779.903	438.44
780.085	424.1
780.267	450.72
780.449	352.42
780.631	313.51
780.812	358.57
780.994	444.58
781.176	454.82
781.358	379.04
781.54	407.72
781.721	401.57
781.903	420
782.085	364.71
782.267	417.96
782.448	327.85
782.63	327.85
782.812	364.71
782.993	366.76
783.175	381.09
783.357	340.13
783.538	381.09
783.72	348.33
783.901	305.32
784.083	311.46
784.264	383.14
784.446	344.23
784.627	313.51
784.809	344.23
784.99	278.69
785.172	358.57
785.353	346.28
785.535	321.7
785.716	333.99
785.897	362.66
786.079	348.33
786.26	284.84
786.441	247.97
786.623	256.17
786.804	288.93
786.985	262.31
787.167	360.61
787.348	309.41
787.529	305.32
787.71	381.09
787.891	233.64
788.073	299.17
788.254	299.17
788.435	303.27
788.616	288.93
788.797	241.83
788.978	276.65
789.159	217.26
789.34	290.98
789.522	297.13
789.703	280.74
789.884	256.17
790.065	231.59
790.246	258.21
790.427	237.74
790.607	342.18
790.788	227.5
790.969	200.87
791.15	182.44
791.331	250.02
791.512	299.17
791.693	241.83
791.874	258.21
792.054	266.41
792.235	164.01
792.416	282.79
792.597	254.12
792.778	278.69
792.958	270.5
793.139	229.54
793.32	299.17
793.5	239.78
793.681	229.54
793.862	166.06
794.042	346.28
794.223	241.83
794.404	204.97
794.584	237.74
794.765	211.11
794.945	188.58
795.126	223.4
795.306	215.21
795.487	204.97
795.667	176.3
795.848	213.16
796.028	141.48
796.209	221.35
796.389	200.87
796.57	213.16
796.75	202.92
796.93	211.11
797.111	229.54
797.291	217.26
797.471	196.78
797.652	178.34
797.832	207.02
798.012	221.35
798.192	219.3
798.373	254.12
798.553	174.25
798.733	157.86
798.913	143.53
799.093	233.64
799.274	198.82
799.454	172.2
799.634	137.38
799.814	155.82
799.994	198.82
800.174	151.72
800.354	153.77
800.534	188.58
800.714	176.3
800.894	73.9
801.074	178.34
801.254	133.29
801.434	166.06
801.614	137.38
801.794	186.54
801.974	409.76
802.154	172.2
802.334	182.44
802.514	151.72
802.693	180.39
802.873	159.91
803.053	184.49
803.233	145.58
803.413	166.06
803.592	159.91
803.772	131.24
803.952	123.05
804.131	147.62
804.311	180.39
804.491	164.01
804.67	161.96
804.85	178.34
805.03	215.21
805.209	198.82
805.389	174.25
805.568	104.62
805.748	180.39
805.928	84.14
806.107	123.05
806.287	149.67
806.466	67.75
806.646	215.21
806.825	121
807.004	80.04
807.184	147.62
807.363	180.39
807.543	77.99
807.722	59.56
807.901	174.25
808.081	190.63
808.26	157.86
808.439	172.2
808.619	143.53
808.798	159.91
808.977	161.96
809.156	112.81
809.336	84.14
809.515	164.01
809.694	129.19
809.873	155.82
810.052	143.53
810.231	147.62
810.411	131.24
810.59	102.57
810.769	168.1
810.948	172.2
811.127	80.04
811.306	192.68
811.485	94.38
811.664	151.72
811.843	155.82
812.022	92.33
812.201	125.1
812.38	139.43
812.559	164.01
812.737	69.8
812.916	118.95
813.095	82.09
813.274	125.1
813.453	82.09
813.632	125.1
813.811	114.86
813.989	98.47
814.168	137.38
814.347	67.75
814.526	141.48
814.704	143.53
814.883	102.57
815.062	155.82
815.24	131.24
815.419	112.81
815.598	157.86
815.776	65.71
815.955	86.19
816.133	159.91
816.312	16.55
816.49	84.14
816.669	92.33
816.847	110.76
817.026	96.43
817.204	102.57
817.383	106.67
817.561	18.6
817.74	30.89
817.918	47.27
818.097	67.75
818.275	114.86
818.453	139.43
818.632	110.76
818.81	127.14
818.988	-28.5
819.167	75.95
819.345	112.81
819.523	37.03
819.701	86.19
819.879	34.99
820.058	49.32
820.236	106.67
820.414	51.37
820.592	67.75
820.77	100.52
820.948	137.38
821.127	57.51
821.305	82.09
821.483	32.94
821.661	112.81
821.839	71.85
822.017	86.19
822.195	57.51
822.373	75.95
822.551	88.23
822.729	108.71
822.907	92.33
823.085	32.94
823.262	96.43
823.44	82.09
823.618	30.89
823.796	125.1
823.974	82.09
824.152	18.6
824.329	121
824.507	116.9
824.685	-14.17
824.863	108.71
825.04	100.52
825.218	133.29
825.396	24.75
825.574	94.38
825.751	102.57
825.929	116.9
826.107	82.09
826.284	118.95
826.462	102.57
826.639	82.09
826.817	51.37
826.994	49.32
827.172	114.86
827.349	80.04
827.527	55.47
827.704	6.31
827.882	12.46
828.059	32.94
828.237	73.9
828.414	98.47
828.591	69.8
828.769	86.19
828.946	47.27
829.124	125.1
829.301	108.71
829.478	84.14
829.655	80.04
829.833	139.43
830.01	49.32
830.187	53.42
830.364	90.28
830.542	90.28
830.719	43.18
830.896	133.29
831.073	49.32
831.25	92.33
831.427	73.9
831.604	98.47
831.782	61.61
831.959	24.75
832.136	98.47
832.313	108.71
832.49	77.99
832.667	59.56
832.844	75.95
833.021	65.71
833.198	45.23
833.374	147.62
833.551	61.61
833.728	0.17
833.905	84.14
834.082	102.57
834.259	77.99
834.436	43.18
834.612	51.37
834.789	102.57
834.966	86.19
835.143	16.55
835.319	26.79
835.496	59.56
835.673	127.14
835.85	49.32
836.026	75.95
836.203	98.47
836.38	86.19
836.556	90.28
836.733	67.75
836.909	112.81
837.086	69.8
837.262	22.7
837.439	41.13
837.616	65.71
837.792	102.57
837.968	51.37
838.145	16.55
838.321	106.67
838.498	32.94
838.674	34.99
838.851	32.94
839.027	34.99
839.203	69.8
839.38	63.66
839.556	94.38
839.732	94.38
839.909	22.7
840.085	12.46
840.261	39.08
840.437	8.36
840.614	12.46
840.79	65.71
840.966	28.84
841.142	43.18
841.318	67.75
841.494	37.03
841.671	67.75
841.847	98.47
842.023	65.71
842.199	112.81
842.375	32.94
842.551	49.32
842.727	18.6
842.903	51.37
843.079	28.84
843.255	73.9
843.431	34.99
843.607	47.27
843.783	32.94
843.959	57.51
844.134	114.86
844.31	94.38
844.486	80.04
844.662	-8.02
844.838	92.33
845.013	37.03
845.189	65.71
845.365	98.47
845.541	69.8
845.716	41.13
845.892	-14.17
846.068	22.7
846.244	37.03
846.419	51.37
846.595	6.31
846.77	34.99
846.946	98.47
847.122	-28.5
847.297	-16.21
847.473	112.81
847.648	-14.17
847.824	20.65
847.999	63.66
848.175	57.51
848.35	73.9
848.526	84.14
848.701	41.13
848.876	88.23
849.052	92.33
849.227	10.41
849.403	32.94
849.578	-12.12
849.753	88.23
849.929	82.09
850.104	12.46
850.279	51.37
850.454	43.18
850.63	65.71
850.805	51.37
850.98	-8.02
851.155	32.94
851.33	82.09
851.505	73.9
851.681	10.41
851.856	-12.12
852.031	102.57
852.206	-14.17
852.381	96.43
852.556	49.32
852.731	32.94
852.906	96.43
853.081	24.75
853.256	65.71
853.431	69.8
853.606	34.99
853.781	-3.93
853.956	4.27
854.131	26.79
854.305	16.55
854.48	86.19
854.655	6.31
854.83	69.8
855.005	51.37
855.18	65.71
855.354	20.65
855.529	84.14
855.704	61.61
855.879	39.08
856.053	65.71
856.228	57.51
856.403	-32.6
856.577	32.94
856.752	-12.12
856.926	24.75
857.101	39.08
857.276	8.36
857.45	69.8
857.625	-30.55
857.799	-8.02
857.974	12.46
858.148	4.27
858.323	37.03
858.497	75.95
858.672	63.66
858.846	0.17
859.02	30.89
859.195	-5.97
859.369	18.6
859.543	92.33
859.718	53.42
859.892	10.41
860.066	-46.93
860.241	53.42
860.415	4.27
860.589	106.67
860.763	61.61
860.938	32.94
861.112	-12.12
861.286	-42.84
861.46	-73.56
861.634	32.94
861.808	80.04
861.982	26.79
862.157	65.71
862.331	41.13
862.505	0.17
862.679	22.7
862.853	16.55
863.027	28.84
863.201	26.79
863.375	45.23
863.549	4.27
863.722	61.61
863.896	90.28
864.07	-10.07
864.244	10.41
864.418	12.46
864.592	45.23
864.766	-22.36
864.939	67.75
865.113	65.71
865.287	73.9
865.461	20.65
865.634	59.56
865.808	37.03
865.982	16.55
866.156	45.23
866.329	51.37
866.503	28.84
866.676	43.18
866.85	4.27
867.024	8.36
867.197	51.37
867.371	-24.4
867.544	32.94
867.718	73.9
867.891	-14.17
868.065	26.79
868.238	41.13
868.412	37.03
868.585	41.13
868.759	41.13
868.932	-32.6
869.105	53.42
869.279	0.17
869.452	-5.97
869.625	0.17
869.799	41.13
869.972	65.71
870.145	53.42
870.319	0.17
870.492	88.23
870.665	43.18
870.838	-22.36
871.011	-26.45
871.185	10.41
871.358	-16.21
871.531	84.14
871.704	-8.02
871.877	34.99
872.05	73.9
872.223	6.31
872.396	98.47
872.569	57.51
872.742	-30.55
872.915	59.56
873.088	86.19
873.261	51.37
873.434	-55.12
873.607	12.46
873.78	65.71
873.953	32.94
874.126	16.55
874.299	104.62
874.471	30.89
874.644	-5.97
874.817	-12.12
874.99	65.71
875.163	14.51
875.335	30.89
875.508	53.42
875.681	-26.45
875.853	53.42
876.026	28.84
876.199	67.75
876.371	110.76
876.544	-8.02
876.717	16.55
876.889	-3.93
877.062	49.32
877.234	-48.98
877.407	45.23
877.579	-5.97
877.752	4.27
877.924	-3.93
878.097	20.65
878.269	-48.98
878.442	67.75
878.614	20.65
878.786	18.6
878.959	63.66
879.131	67.75
879.303	47.27
879.476	10.41
879.648	-8.02
879.82	-14.17
879.993	84.14
880.165	12.46
880.337	-61.27
880.509	45.23
880.681	30.89
880.854	32.94
881.026	90.28
881.198	57.51
881.37	-3.93
881.542	37.03
881.714	-42.84
881.886	-48.98
882.058	-30.55
882.23	-8.02
882.402	41.13
882.574	49.32
882.746	-1.88
882.918	41.13
883.09	37.03
883.262	22.7
883.434	-10.07
883.606	12.46
883.778	4.27
883.95	28.84
884.122	47.27
884.293	16.55
884.465	-30.55
884.637	24.75
884.809	24.75
884.98	32.94
885.152	24.75
885.324	20.65
885.496	-32.6
885.667	24.75
885.839	-14.17
886.011	2.22
886.182	-10.07
886.354	22.7
886.525	67.75
886.697	-8.02
886.869	80.04
887.04	-40.79
887.212	6.31
887.383	37.03
887.555	37.03
887.726	22.7
887.897	16.55
888.069	32.94
888.24	16.55
888.412	-53.08
888.583	41.13
888.754	-55.12
888.926	8.36
889.097	127.14
889.268	-12.12
889.44	-18.26
889.611	22.7
889.782	-40.79
889.953	28.84
890.125	73.9
890.296	-24.4
890.467	88.23
890.638	28.84
890.809	75.95
890.98	-3.93
891.151	20.65
891.323	39.08
891.494	-40.79
891.665	51.37
891.836	49.32
892.007	34.99
892.178	16.55
892.349	16.55
892.52	-42.84
892.691	8.36
892.862	53.42
893.032	67.75
893.203	-1.88
893.374	24.75
893.545	2.22
893.716	45.23
893.887	30.89
894.057	-28.5
894.228	47.27
894.399	-61.27
894.57	41.13
894.74	49.32
894.911	65.71
895.082	67.75
895.253	-8.02
895.423	67.75
895.594	84.14
895.764	57.51
895.935	-3.93
896.106	12.46
896.276	37.03
896.447	18.6
896.617	61.61
896.788	28.84
896.958	20.65
897.129	-8.02
897.299	-8.02
897.47	30.89
897.64	34.99
897.81	-36.69
897.981	-48.98
898.151	-28.5
898.322	-28.5
898.492	55.47
898.662	-26.45
898.832	94.38
899.003	10.41
899.173	49.32
899.343	28.84
899.513	10.41
