Data from USB4F104151__42__13-53-17-638.txt Node

Date: Thu Mar 13 13:53:17 EDT 2025
User: louis
Spectrometer: USB4F10415
Trigger mode: 4
Integration Time (sec): 1.000000E-2
Scans to average: 1
Electric dark correction enabled: true
Nonlinearity correction enabled: false
Boxcar width: 0
XAxis mode: Wavelengths
Number of Pixels in Spectrum: 3648
>>>>>Begin Spectral Data<<<<<
178.204	-21.5
178.424	-21.5
178.644	-21.5
178.864	-25.6
179.084	-97.28
179.304	-11.26
179.524	29.7
179.744	5.12
179.964	-13.31
180.184	-54.27
180.404	-3.07
180.624	21.5
180.844	-5.12
181.064	-15.36
181.283	35.84
181.503	11.26
181.723	-1.02
181.943	31.74
182.163	82.94
182.383	37.89
182.602	50.18
182.822	44.03
183.042	23.55
183.262	1.02
183.482	56.32
183.701	44.03
183.921	56.32
184.141	21.5
184.361	107.52
184.58	-95.23
184.8	48.13
185.02	39.94
185.239	-23.55
185.459	76.8
185.679	-33.79
185.898	-19.46
186.118	60.42
186.338	-7.17
186.557	11.26
186.777	-35.84
186.997	123.9
187.216	54.27
187.436	37.89
187.655	23.55
187.875	60.42
188.095	87.04
188.314	41.98
188.534	46.08
188.753	17.41
188.973	56.32
189.192	29.7
189.412	1.02
189.631	33.79
189.851	33.79
190.07	25.6
190.29	54.27
190.509	46.08
190.729	25.6
190.948	31.74
191.168	62.46
191.387	54.27
191.607	50.18
191.826	70.65
192.045	-41.98
192.265	52.22
192.484	9.22
192.704	13.31
192.923	-33.79
193.142	66.56
193.362	70.65
193.581	50.18
193.8	1.02
194.02	70.65
194.239	-35.84
194.458	23.55
194.678	-68.61
194.897	46.08
195.116	-27.65
195.335	11.26
195.555	5.12
195.774	72.7
195.993	23.55
196.212	54.27
196.432	29.7
196.651	-9.22
196.87	27.65
197.089	-33.79
197.308	17.41
197.528	64.51
197.747	31.74
197.966	15.36
198.185	5.12
198.404	35.84
198.623	23.55
198.842	107.52
199.062	27.65
199.281	33.79
199.5	-7.17
199.719	15.36
199.938	7.17
200.157	62.46
200.376	19.46
200.595	3.07
200.814	-25.6
201.033	25.6
201.252	58.37
201.471	23.55
201.69	91.13
201.909	50.18
202.128	54.27
202.347	29.7
202.566	46.08
202.785	-23.55
203.004	-7.17
203.223	39.94
203.442	-23.55
203.661	-27.65
203.879	37.89
204.098	46.08
204.317	-25.6
204.536	95.23
204.755	52.22
204.974	3.07
205.193	19.46
205.411	72.7
205.63	19.46
205.849	78.85
206.068	3.07
206.287	-27.65
206.505	60.42
206.724	19.46
206.943	44.03
207.162	66.56
207.381	29.7
207.599	23.55
207.818	70.65
208.037	19.46
208.255	-5.12
208.474	19.46
208.693	25.6
208.911	31.74
209.13	19.46
209.349	109.57
209.567	101.37
209.786	13.31
210.005	44.03
210.223	107.52
210.442	105.47
210.661	39.94
210.879	48.13
211.098	44.03
211.316	-11.26
211.535	74.75
211.753	138.24
211.972	41.98
212.191	46.08
212.409	37.89
212.628	56.32
212.846	1.02
213.065	78.85
213.283	58.37
213.502	15.36
213.72	-11.26
213.938	27.65
214.157	17.41
214.375	52.22
214.594	103.42
214.812	60.42
215.031	9.22
215.249	-89.09
215.467	27.65
215.686	-1.02
215.904	-11.26
216.122	11.26
216.341	-29.7
216.559	3.07
216.778	37.89
216.996	33.79
217.214	-17.41
217.432	70.65
217.651	27.65
217.869	41.98
218.087	21.5
218.306	1.02
218.524	-1.02
218.742	-46.08
218.96	66.56
219.179	56.32
219.397	31.74
219.615	91.13
219.833	-33.79
220.051	64.51
220.27	78.85
220.488	41.98
220.706	44.03
220.924	17.41
221.142	64.51
221.36	72.7
221.578	74.75
221.796	44.03
222.015	35.84
222.233	-21.5
222.451	46.08
222.669	54.27
222.887	37.89
223.105	-19.46
223.323	82.94
223.541	11.26
223.759	50.18
223.977	80.89
224.195	44.03
224.413	-1.02
224.631	52.22
224.849	-44.03
225.067	80.89
225.285	-7.17
225.503	23.55
225.721	-3.07
225.939	58.37
226.157	56.32
226.375	25.6
226.592	-21.5
226.81	13.31
227.028	33.79
227.246	31.74
227.464	66.56
227.682	60.42
227.9	54.27
228.117	-23.55
228.335	-11.26
228.553	-17.41
228.771	-7.17
228.989	82.94
229.206	9.22
229.424	74.75
229.642	9.22
229.86	39.94
230.077	80.89
230.295	1.02
230.513	80.89
230.731	54.27
230.948	78.85
231.166	72.7
231.384	33.79
231.601	46.08
231.819	13.31
232.037	52.22
232.254	11.26
232.472	-9.22
232.689	-5.12
232.907	-25.6
233.125	72.7
233.342	35.84
233.56	27.65
233.777	-1.02
233.995	15.36
234.213	-44.03
234.43	-13.31
234.648	37.89
234.865	-3.07
235.083	68.61
235.3	3.07
235.518	17.41
235.735	91.13
235.953	87.04
236.17	-5.12
236.388	-9.22
236.605	37.89
236.822	95.23
237.04	74.75
237.257	13.31
237.475	97.28
237.692	46.08
237.909	35.84
238.127	101.37
238.344	39.94
238.562	44.03
238.779	3.07
238.996	-52.22
239.214	33.79
239.431	54.27
239.648	39.94
239.865	-15.36
240.083	25.6
240.3	39.94
240.517	21.5
240.735	52.22
240.952	80.89
241.169	52.22
241.386	19.46
241.603	35.84
241.821	56.32
242.038	-9.22
242.255	23.55
242.472	1.02
242.689	39.94
242.907	29.7
243.124	13.31
243.341	9.22
243.558	99.33
243.775	52.22
243.992	11.26
244.209	58.37
244.426	17.41
244.643	54.27
244.86	91.13
245.078	80.89
245.295	15.36
245.512	52.22
245.729	9.22
245.946	64.51
246.163	62.46
246.38	48.13
246.597	87.04
246.814	50.18
247.031	44.03
247.248	60.42
247.464	-1.02
247.681	-19.46
247.898	68.61
248.115	-5.12
248.332	27.65
248.549	48.13
248.766	66.56
248.983	109.57
249.2	46.08
249.417	27.65
249.633	58.37
249.85	48.13
250.067	41.98
250.284	7.17
250.501	46.08
250.717	70.65
250.934	19.46
251.151	58.37
251.368	-29.7
251.585	46.08
251.801	7.17
252.018	119.81
252.235	-1.02
252.451	82.94
252.668	-25.6
252.885	11.26
253.102	46.08
253.318	7.17
253.535	44.03
253.752	76.8
253.968	-89.09
254.185	39.94
254.401	33.79
254.618	142.33
254.835	15.36
255.051	-1.02
255.268	52.22
255.484	-11.26
255.701	-7.17
255.917	72.7
256.134	11.26
256.351	17.41
256.567	-91.13
256.784	46.08
257	50.18
257.217	76.8
257.433	11.26
257.65	-27.65
257.866	3.07
258.082	46.08
258.299	-7.17
258.515	-21.5
258.732	3.07
258.948	27.65
259.165	35.84
259.381	23.55
259.597	17.41
259.814	-44.03
260.03	25.6
260.246	56.32
260.463	54.27
260.679	78.85
260.895	-13.31
261.112	19.46
261.328	17.41
261.544	54.27
261.761	-7.17
261.977	37.89
262.193	37.89
262.409	-9.22
262.626	70.65
262.842	54.27
263.058	60.42
263.274	-17.41
263.49	66.56
263.707	58.37
263.923	46.08
264.139	19.46
264.355	-13.31
264.571	41.98
264.787	33.79
265.004	50.18
265.22	-35.84
265.436	15.36
265.652	23.55
265.868	54.27
266.084	33.79
266.3	80.89
266.516	13.31
266.732	78.85
266.948	46.08
267.164	52.22
267.38	46.08
267.596	62.46
267.812	56.32
268.028	19.46
268.244	17.41
268.46	33.79
268.676	27.65
268.892	15.36
269.108	-29.7
269.324	58.37
269.54	41.98
269.756	44.03
269.972	89.09
270.188	-3.07
270.403	-21.5
270.619	23.55
270.835	35.84
271.051	19.46
271.267	50.18
271.483	44.03
271.698	52.22
271.914	-35.84
272.13	-3.07
272.346	56.32
272.562	72.7
272.777	78.85
272.993	33.79
273.209	19.46
273.425	-7.17
273.64	-31.74
273.856	82.94
274.072	91.13
274.287	9.22
274.503	37.89
274.719	46.08
274.934	76.8
275.15	-27.65
275.366	48.13
275.581	11.26
275.797	31.74
276.012	109.57
276.228	60.42
276.444	9.22
276.659	-44.03
276.875	29.7
277.09	52.22
277.306	-19.46
277.521	-11.26
277.737	60.42
277.952	29.7
278.168	39.94
278.383	74.75
278.599	31.74
278.814	52.22
279.03	-5.12
279.245	5.12
279.461	25.6
279.676	82.94
279.892	44.03
280.107	19.46
280.322	50.18
280.538	87.04
280.753	91.13
280.969	17.41
281.184	19.46
281.399	27.65
281.615	-35.84
281.83	97.28
282.045	29.7
282.26	52.22
282.476	11.26
282.691	13.31
282.906	-3.07
283.122	78.85
283.337	-15.36
283.552	48.13
283.767	33.79
283.983	87.04
284.198	27.65
284.413	29.7
284.628	52.22
284.843	-17.41
285.058	76.8
285.274	52.22
285.489	23.55
285.704	39.94
285.919	17.41
286.134	74.75
286.349	-5.12
286.564	48.13
286.779	68.61
286.995	99.33
287.21	70.65
287.425	80.89
287.64	44.03
287.855	-5.12
288.07	46.08
288.285	56.32
288.5	56.32
288.715	87.04
288.93	31.74
289.145	27.65
289.36	60.42
289.575	72.7
289.79	7.17
290.004	41.98
290.219	-62.46
290.434	25.6
290.649	21.5
290.864	87.04
291.079	-5.12
291.294	121.85
291.509	-33.79
291.724	35.84
291.938	62.46
292.153	119.81
292.368	58.37
292.583	39.94
292.798	17.41
293.012	44.03
293.227	27.65
293.442	21.5
293.657	17.41
293.871	44.03
294.086	-15.36
294.301	44.03
294.516	97.28
294.73	15.36
294.945	9.22
295.16	60.42
295.374	21.5
295.589	27.65
295.804	37.89
296.018	7.17
296.233	46.08
296.447	41.98
296.662	1.02
296.877	54.27
297.091	68.61
297.306	33.79
297.52	111.61
297.735	21.5
297.949	76.8
298.164	33.79
298.378	13.31
298.593	48.13
298.807	50.18
299.022	121.85
299.236	56.32
299.451	17.41
299.665	-7.17
299.88	99.33
300.094	117.76
300.309	27.65
300.523	64.51
300.737	5.12
300.952	-41.98
301.166	50.18
301.381	-7.17
301.595	66.56
301.809	13.31
302.024	23.55
302.238	31.74
302.452	50.18
302.667	68.61
302.881	115.71
303.095	46.08
303.309	17.41
303.524	33.79
303.738	56.32
303.952	46.08
304.166	44.03
304.381	25.6
304.595	46.08
304.809	11.26
305.023	25.6
305.237	21.5
305.452	9.22
305.666	7.17
305.88	27.65
306.094	41.98
306.308	56.32
306.522	7.17
306.736	39.94
306.95	13.31
307.164	60.42
307.379	-15.36
307.593	-27.65
307.807	82.94
308.021	56.32
308.235	68.61
308.449	52.22
308.663	-13.31
308.877	25.6
309.091	54.27
309.305	80.89
309.519	27.65
309.733	19.46
309.947	15.36
310.161	19.46
310.374	-5.12
310.588	9.22
310.802	25.6
311.016	44.03
311.23	41.98
311.444	41.98
311.658	27.65
311.872	9.22
312.085	84.99
312.299	39.94
312.513	44.03
312.727	5.12
312.941	70.65
313.154	87.04
313.368	-5.12
313.582	44.03
313.796	31.74
314.009	64.51
314.223	-5.12
314.437	33.79
314.651	1.02
314.864	56.32
315.078	-23.55
315.292	66.56
315.505	-44.03
315.719	41.98
315.933	44.03
316.146	37.89
316.36	7.17
316.573	13.31
316.787	-5.12
317.001	60.42
317.214	54.27
317.428	58.37
317.641	46.08
317.855	23.55
318.068	7.17
318.282	72.7
318.495	25.6
318.709	70.65
318.922	1.02
319.136	56.32
319.349	50.18
319.563	80.89
319.776	82.94
319.99	41.98
320.203	44.03
320.417	39.94
320.63	-7.17
320.843	93.18
321.057	-9.22
321.27	50.18
321.483	7.17
321.697	23.55
321.91	-7.17
322.124	41.98
322.337	105.47
322.55	41.98
322.763	25.6
322.977	-9.22
323.19	58.37
323.403	41.98
323.617	76.8
323.83	87.04
324.043	17.41
324.256	68.61
324.469	7.17
324.683	33.79
324.896	35.84
325.109	39.94
325.322	39.94
325.535	95.23
325.748	74.75
325.962	-1.02
326.175	13.31
326.388	3.07
326.601	19.46
326.814	39.94
327.027	76.8
327.24	39.94
327.453	35.84
327.666	91.13
327.879	-21.5
328.092	35.84
328.305	62.46
328.518	23.55
328.731	5.12
328.944	66.56
329.157	1.02
329.37	33.79
329.583	19.46
329.796	99.33
330.009	37.89
330.222	68.61
330.435	50.18
330.648	48.13
330.861	39.94
331.073	46.08
331.286	62.46
331.499	48.13
331.712	29.7
331.925	68.61
332.138	-1.02
332.35	56.32
332.563	52.22
332.776	31.74
332.989	54.27
333.202	95.23
333.414	-17.41
333.627	130.05
333.84	46.08
334.053	56.32
334.265	27.65
334.478	44.03
334.691	44.03
334.903	115.71
335.116	80.89
335.329	119.81
335.541	105.47
335.754	80.89
335.966	87.04
336.179	19.46
336.392	72.7
336.604	9.22
336.817	-11.26
337.029	48.13
337.242	1.02
337.454	107.52
337.667	54.27
337.88	-1.02
338.092	37.89
338.305	60.42
338.517	31.74
338.729	89.09
338.942	39.94
339.154	78.85
339.367	9.22
339.579	58.37
339.792	60.42
340.004	46.08
340.217	11.26
340.429	87.04
340.641	101.37
340.854	111.61
341.066	17.41
341.278	95.23
341.491	23.55
341.703	74.75
341.915	27.65
342.128	60.42
342.34	64.51
342.552	-9.22
342.764	23.55
342.977	78.85
343.189	101.37
343.401	17.41
343.613	78.85
343.826	35.84
344.038	56.32
344.25	13.31
344.462	19.46
344.674	-11.26
344.886	31.74
345.099	44.03
345.311	72.7
345.523	35.84
345.735	105.47
345.947	52.22
346.159	78.85
346.371	39.94
346.583	46.08
346.795	44.03
347.007	103.42
347.219	66.56
347.431	11.26
347.643	31.74
347.855	64.51
348.067	74.75
348.279	-25.6
348.491	72.7
348.703	5.12
348.915	3.07
349.127	78.85
349.339	29.7
349.551	-17.41
349.763	87.04
349.975	52.22
350.187	66.56
350.399	80.89
350.61	52.22
350.822	46.08
351.034	91.13
351.246	91.13
351.458	-3.07
351.669	29.7
351.881	70.65
352.093	109.57
352.305	37.89
352.517	13.31
352.728	31.74
352.94	35.84
353.152	15.36
353.363	72.7
353.575	70.65
353.787	54.27
353.999	25.6
354.21	-23.55
354.422	37.89
354.633	50.18
354.845	80.89
355.057	72.7
355.268	105.47
355.48	50.18
355.692	-17.41
355.903	3.07
356.115	50.18
356.326	-39.94
356.538	58.37
356.749	66.56
356.961	46.08
357.172	46.08
357.384	80.89
357.595	89.09
357.807	44.03
358.018	64.51
358.23	48.13
358.441	17.41
358.653	117.76
358.864	23.55
359.075	39.94
359.287	105.47
359.498	62.46
359.709	31.74
359.921	48.13
360.132	119.81
360.344	78.85
360.555	27.65
360.766	60.42
360.977	99.33
361.189	11.26
361.4	27.65
361.611	97.28
361.823	39.94
362.034	52.22
362.245	-11.26
362.456	33.79
362.667	39.94
362.879	78.85
363.09	-33.79
363.301	15.36
363.512	76.8
363.723	64.51
363.935	74.75
364.146	119.81
364.357	9.22
364.568	119.81
364.779	7.17
364.99	29.7
365.201	-21.5
365.412	82.94
365.623	54.27
365.834	39.94
366.045	35.84
366.256	-3.07
366.467	44.03
366.678	66.56
366.889	17.41
367.1	113.66
367.311	70.65
367.522	103.42
367.733	-21.5
367.944	33.79
368.155	33.79
368.366	50.18
368.577	44.03
368.788	58.37
368.999	115.71
369.209	-33.79
369.42	27.65
369.631	41.98
369.842	13.31
370.053	-3.07
370.264	60.42
370.474	-7.17
370.685	-44.03
370.896	80.89
371.107	58.37
371.317	52.22
371.528	56.32
371.739	134.14
371.95	68.61
372.16	54.27
372.371	-25.6
372.582	41.98
372.792	39.94
373.003	17.41
373.214	62.46
373.424	62.46
373.635	-27.65
373.846	46.08
374.056	33.79
374.267	11.26
374.477	56.32
374.688	17.41
374.898	72.7
375.109	56.32
375.319	70.65
375.53	93.18
375.74	76.8
375.951	119.81
376.161	50.18
376.372	93.18
376.582	101.37
376.793	95.23
377.003	9.22
377.214	41.98
377.424	7.17
377.635	60.42
377.845	3.07
378.055	7.17
378.266	9.22
378.476	64.51
378.686	64.51
378.897	17.41
379.107	-25.6
379.317	62.46
379.528	29.7
379.738	46.08
379.948	17.41
380.158	19.46
380.369	-25.6
380.579	128
380.789	-21.5
380.999	25.6
381.21	179.2
381.42	46.08
381.63	62.46
381.84	62.46
382.05	72.7
382.261	70.65
382.471	89.09
382.681	50.18
382.891	54.27
383.101	91.13
383.311	-1.02
383.521	74.75
383.731	99.33
383.941	89.09
384.151	52.22
384.361	72.7
384.571	5.12
384.781	54.27
384.991	91.13
385.201	136.19
385.411	41.98
385.621	76.8
385.831	3.07
386.041	11.26
386.251	-9.22
386.461	87.04
386.671	44.03
386.881	62.46
387.091	54.27
387.301	64.51
387.511	84.99
387.72	41.98
387.93	48.13
388.14	84.99
388.35	52.22
388.56	117.76
388.769	29.7
388.979	17.41
389.189	-17.41
389.399	44.03
389.609	93.18
389.818	25.6
390.028	9.22
390.238	-1.02
390.447	54.27
390.657	107.52
390.867	11.26
391.076	11.26
391.286	44.03
391.496	52.22
391.705	27.65
391.915	125.95
392.125	56.32
392.334	27.65
392.544	107.52
392.753	134.14
392.963	29.7
393.172	123.9
393.382	44.03
393.591	82.94
393.801	27.65
394.01	113.66
394.22	64.51
394.429	54.27
394.639	9.22
394.848	76.8
395.058	84.99
395.267	46.08
395.477	82.94
395.686	78.85
395.895	41.98
396.105	115.71
396.314	154.62
396.524	41.98
396.733	35.84
396.942	123.9
397.152	109.57
397.361	64.51
397.57	138.24
397.78	62.46
397.989	21.5
398.198	117.76
398.407	87.04
398.617	72.7
398.826	74.75
399.035	7.17
399.244	66.56
399.453	39.94
399.663	70.65
399.872	138.24
400.081	37.89
400.29	109.57
400.499	148.48
400.708	134.14
400.917	56.32
401.127	27.65
401.336	107.52
401.545	128
401.754	99.33
401.963	101.37
402.172	103.42
402.381	60.42
402.59	76.8
402.799	60.42
403.008	25.6
403.217	128
403.426	107.52
403.635	44.03
403.844	101.37
404.053	91.13
404.262	107.52
404.471	128
404.68	164.86
404.888	138.24
405.097	158.72
405.306	97.28
405.515	87.04
405.724	68.61
405.933	109.57
406.142	125.95
406.35	95.23
406.559	197.63
406.768	123.9
406.977	99.33
407.185	224.25
407.394	181.25
407.603	111.61
407.812	193.53
408.02	144.38
408.229	148.48
408.438	140.29
408.646	205.82
408.855	84.99
409.064	156.67
409.272	220.16
409.481	193.53
409.69	160.77
409.898	175.1
410.107	246.78
410.315	156.67
410.524	173.05
410.733	220.16
410.941	205.82
411.15	287.74
411.358	234.49
411.567	281.6
411.775	216.06
411.984	222.2
412.192	273.4
412.401	269.31
412.609	263.16
412.818	265.21
413.026	390.14
413.234	289.79
413.443	316.41
413.651	302.08
413.86	361.47
414.068	383.99
414.276	392.19
414.485	406.52
414.693	410.62
414.901	427
415.11	424.95
415.318	383.99
415.526	416.76
415.734	449.53
415.943	431.1
416.151	455.67
416.359	488.44
416.567	476.15
416.776	519.16
416.984	543.74
417.192	611.32
417.4	654.33
417.608	527.35
417.817	576.5
418.025	660.47
418.233	683
418.441	631.8
418.649	678.9
418.857	818.16
419.065	744.44
419.273	744.44
419.481	670.71
419.689	822.26
419.897	891.89
420.105	879.6
420.313	820.21
420.521	895.99
420.729	844.79
420.937	926.71
421.145	1074.16
421.353	1045.49
421.561	1117.17
421.769	1063.92
421.977	1168.37
422.185	1156.08
422.393	1317.87
422.601	1252.33
422.809	1272.81
423.017	1348.59
423.224	1340.4
423.432	1407.98
423.64	1362.92
423.848	1600.49
424.056	1567.72
424.263	1629.16
424.471	1618.92
424.679	1659.88
424.887	1721.32
425.094	1778.66
425.302	1811.43
425.51	1864.68
425.718	1956.83
425.925	1922.02
426.133	2032.61
426.341	2128.86
426.548	2196.45
426.756	2229.21
426.964	2274.27
427.171	2436.06
427.379	2520.03
427.586	2440.15
427.794	2522.07
428.001	2599.9
428.209	2798.55
428.417	2757.59
428.624	2911.19
428.832	2853.84
429.039	2948.05
429.247	3097.55
429.454	3253.2
429.662	3308.49
429.869	3277.77
430.076	3458
430.284	3238.86
430.491	3406.8
430.699	3541.96
430.906	3736.52
431.114	3738.57
431.321	3691.46
431.528	3933.12
431.736	4086.72
431.943	4236.22
432.15	4139.97
432.358	4217.79
432.565	4510.65
432.772	4451.26
432.979	4658.1
433.187	4701.11
433.394	4768.7
433.601	4989.88
433.808	5077.94
434.016	5116.85
434.223	5139.38
434.43	5606.31
434.637	5514.16
434.844	5780.39
435.052	5987.24
435.259	6034.34
435.466	5983.14
435.673	6060.96
435.88	6396.83
436.087	6609.82
436.294	6644.63
436.501	6556.57
436.708	6744.99
436.915	6808.47
437.122	7267.22
437.329	7209.87
437.537	7457.68
437.743	7449.49
437.95	7390.1
438.157	7910.28
438.364	8070.02
438.571	8100.74
438.778	8172.42
438.985	8846.2
439.192	8530.81
439.399	8809.34
439.606	8643.45
439.813	9034.61
440.02	9485.17
440.227	9677.68
440.433	9472.88
440.64	10036.07
440.847	9556.85
441.054	9798.51
441.261	10521.44
441.467	10310.5
441.674	10580.83
441.881	11074.39
442.088	10945.37
442.294	10914.65
442.501	11103.06
442.708	11271
442.914	11838.28
443.121	12217.16
443.328	12010.31
443.534	12655.42
443.741	12655.42
443.948	12319.56
444.154	13294.39
444.361	13183.8
444.568	13228.85
444.774	13341.49
444.981	13396.79
445.187	13732.65
445.394	14230.31
445.6	14076.71
445.807	15543.06
446.013	14564.13
446.22	14957.34
446.426	15917.84
446.633	15622.93
446.839	16345.86
447.046	15688.46
447.252	16478.98
447.459	16620.29
447.665	16599.81
447.871	17052.41
448.078	17830.64
448.284	16990.97
448.491	17650.42
448.697	17842.93
448.903	18498.28
449.11	18520.81
449.316	18481.89
449.522	18557.67
449.728	19290.84
449.935	19587.8
450.141	19231.45
450.347	19655.38
450.553	18995.93
450.76	19278.55
450.966	19856.08
451.172	19639
451.378	20140.75
451.584	19835.6
451.791	20040.4
451.997	20335.31
452.203	20546.25
452.409	20269.77
452.615	20366.03
452.821	19497.69
453.027	19692.24
453.233	20161.23
453.44	19450.58
453.646	19761.87
453.852	20001.49
454.058	20351.69
454.264	19575.51
454.47	19972.82
454.676	19450.58
454.882	20148.94
455.088	18561.76
455.294	18623.2
455.5	19102.43
455.705	19165.92
455.911	18332.39
456.117	17896.17
456.323	17681.14
456.529	16782.08
456.735	17406.71
456.941	17126.14
457.147	16569.09
457.352	16325.38
457.558	16194.31
457.764	16067.34
457.97	15434.52
458.176	15393.56
458.381	15350.55
458.587	14654.24
458.793	14553.89
458.999	13828.91
459.204	15178.52
459.41	14318.37
459.616	13534
459.821	13718.32
460.027	13579.06
460.233	13122.36
460.438	12569.41
460.644	12753.73
460.85	11912.01
461.055	12153.67
461.261	11848.52
461.466	11176.79
461.672	10914.65
461.878	11471.7
462.083	10859.35
462.289	10572.64
462.494	10531.68
462.7	10015.59
462.905	9755.5
463.111	9986.92
463.316	10050.41
463.522	9984.87
463.727	9851.75
463.932	9888.62
464.138	9806.7
464.343	9853.8
464.549	9730.92
464.754	10077.03
464.959	9841.51
465.165	9814.89
465.37	9378.67
465.575	8940.41
465.781	9546.61
465.986	9413.49
466.191	9171.83
466.397	9010.04
466.602	8522.62
466.807	8960.89
467.012	8952.7
467.218	8938.36
467.423	8586.11
467.628	8625.02
467.833	9290.61
468.038	8727.42
468.244	8557.44
468.449	9005.94
468.654	8594.3
468.859	8518.53
469.064	8342.4
469.269	8160.13
469.474	8162.18
469.679	8393.6
469.885	7994.25
470.09	8389.5
470.295	8100.74
470.5	8002.44
470.705	8067.97
470.91	7826.31
471.115	7893.9
471.32	7730.06
471.525	7881.61
471.73	7549.84
471.935	7568.27
472.139	7424.91
472.344	7504.78
472.549	7480.21
472.754	7342.99
472.959	7146.39
473.164	6935.45
473.369	7013.27
473.574	7072.66
473.778	7158.67
473.983	7179.15
474.188	6953.88
474.393	6804.38
474.598	6595.48
474.802	6689.69
475.007	6476.7
475.212	6638.49
475.417	6476.7
475.621	6378.4
475.826	6304.67
476.031	6370.21
476.235	6077.35
476.44	6167.46
476.645	6153.12
476.849	6159.27
477.054	6056.87
477.259	6024.1
477.463	5890.98
477.668	5761.96
477.872	5983.14
478.077	5882.79
478.282	5706.66
478.486	5569.45
478.691	5551.02
478.895	5589.93
479.1	5503.92
479.304	5520.3
479.509	5417.9
479.713	5573.55
479.918	5422
480.122	5413.81
480.326	5503.92
480.531	5614.51
480.735	5352.37
480.94	5303.22
481.144	5321.65
481.348	5272.5
481.553	5137.33
481.757	5120.95
481.961	5329.84
482.166	5366.7
482.37	5280.69
482.574	5116.85
482.778	5172.15
482.983	5350.32
483.187	5262.26
483.391	5198.77
483.595	5088.18
483.8	5116.85
484.004	5034.93
484.208	5313.45
484.412	5147.57
484.616	5161.91
484.821	5233.58
485.025	5090.23
485.229	5206.96
485.433	5237.68
485.637	5166
485.841	5069.75
486.045	5209.01
486.249	5178.29
486.453	5131.19
486.657	5172.15
486.861	5266.35
487.065	5075.89
487.269	5110.71
487.473	5157.81
487.677	5299.12
487.881	5454.76
488.085	5245.87
488.289	5217.2
488.493	5217.2
488.697	5188.53
488.901	5147.57
489.105	5145.52
489.309	5084.08
489.512	5166
489.716	5288.88
489.92	5280.69
490.124	5362.61
490.328	5335.98
490.531	5342.13
490.735	5254.06
490.939	5270.45
491.143	5239.73
491.346	5356.46
491.55	5411.76
491.754	5485.48
491.958	5391.28
492.161	5538.73
492.365	5516.2
492.569	5553.07
492.772	5551.02
492.976	5616.55
493.18	5594.03
493.383	5682.09
493.587	5634.99
493.79	5669.8
493.994	5786.54
494.197	5788.58
494.401	5817.26
494.605	5802.92
494.808	6054.82
495.012	5770.15
495.215	5872.55
495.419	5907.37
495.622	5890.98
495.825	5999.52
496.029	6036.39
496.232	6345.63
496.436	6151.07
496.639	6359.97
496.843	6290.34
497.046	6491.04
497.249	6521.76
497.453	6505.37
497.656	6701.98
497.859	6607.77
498.063	6751.13
498.266	6810.52
498.469	6884.25
498.673	6982.55
498.876	7121.81
499.079	7175.06
499.282	7185.3
499.485	7355.28
499.689	7408.53
499.892	7498.64
500.095	7627.66
500.298	7646.09
500.501	7592.84
500.705	7953.29
500.908	8053.64
501.111	8139.65
501.314	8129.41
501.517	8348.54
501.72	8455.04
501.923	8303.49
502.126	8649.6
502.329	8815.48
502.532	8817.53
502.735	8686.46
502.938	8919.93
503.141	8942.46
503.344	9145.2
503.547	9159.54
503.75	9104.25
503.953	9364.34
504.156	9503.6
504.359	9671.53
504.562	9644.91
504.765	9976.68
504.968	9954.15
505.17	10218.34
505.373	10390.37
505.576	10468.19
505.779	10730.33
505.982	10611.55
506.185	10707.8
506.387	10939.23
506.59	10871.64
506.793	11342.67
506.996	11137.88
507.198	11533.14
507.401	11672.4
507.604	11785.04
507.807	11746.12
508.009	12157.77
508.212	12120.9
508.415	12479.3
508.617	12526.4
508.82	12692.29
509.022	12602.18
509.225	13118.26
509.428	12886.84
509.63	13355.83
509.833	13042.49
510.035	13490.99
510.238	13540.15
510.44	13828.91
510.643	14007.08
510.845	14068.52
511.048	14175.02
511.25	14361.38
511.453	14545.7
511.655	15008.54
511.858	14904.09
512.06	15002.4
512.262	15072.03
512.465	15172.38
512.667	15829.77
512.87	15721.23
513.072	15866.64
513.274	16280.33
513.477	16521.99
513.679	16814.85
513.881	16882.43
514.084	17003.26
514.286	16978.68
514.488	17177.34
514.69	17599.22
514.893	17672.95
515.095	17791.73
515.297	18283.24
515.499	18123.5
515.701	18791.14
515.904	18594.53
516.106	19063.52
516.308	18963.17
516.51	19454.68
516.712	19047.13
516.914	19481.3
517.116	19923.66
517.318	20132.56
517.52	20161.23
517.722	20255.43
517.925	20675.27
518.127	21097.15
518.329	21134.01
518.531	21213.88
518.733	21660.34
518.935	21768.88
519.136	21797.56
519.338	22334.12
519.54	22469.29
519.742	22917.79
519.944	22911.65
520.146	23313.05
520.348	23220.89
520.55	23476.89
520.752	23669.4
520.954	24441.48
521.155	24103.57
521.357	24566.41
521.559	24730.25
521.761	24896.13
521.963	25000.58
522.164	25160.32
522.366	25469.56
522.568	25569.91
522.77	26053.23
522.971	26288.75
523.173	26428.01
523.375	26389.1
523.576	26385.01
523.778	26657.39
523.98	27017.83
524.181	27011.68
524.383	27028.07
524.584	27738.71
524.786	27748.95
524.988	27468.38
525.189	28015.19
525.391	28306
525.592	28349.01
525.794	28236.37
525.995	28226.13
526.197	28781.13
526.398	28723.79
526.6	28871.24
526.801	29145.67
527.003	29100.61
527.204	29329.98
527.406	29424.19
527.607	29352.51
527.808	29798.97
528.01	29436.48
528.211	29764.15
528.412	30349.87
528.614	30063.16
528.815	30419.5
529.016	30595.63
529.218	30761.51
529.419	30401.07
529.62	30710.32
529.822	30571.05
530.023	30792.23
530.224	31103.53
530.425	31144.48
530.626	30401.07
530.828	30589.49
531.029	31314.47
531.23	30827.05
531.431	31394.34
531.632	31187.49
531.833	31025.7
532.035	31351.33
532.236	31754.78
532.437	31457.82
532.638	31375.91
532.839	31775.26
533.04	31617.57
533.241	31142.44
533.442	32234
533.643	31912.47
533.844	31611.42
534.045	31891.99
534.246	31562.27
534.447	32145.94
534.648	31707.68
534.849	31842.84
535.05	31826.46
535.251	31853.08
535.451	31519.26
535.652	32057.88
535.853	31943.19
536.054	32002.58
536.255	32104.98
536.456	31961.62
536.657	32225.81
536.857	32109.08
537.058	31756.83
537.259	32299.54
537.46	32055.83
537.66	31640.09
537.861	32246.29
538.062	32121.37
538.263	32268.82
538.463	32213.52
538.664	31896.09
538.865	32080.41
539.065	32619.02
539.266	32277.01
539.466	32338.45
539.667	31595.04
539.868	32522.77
540.068	32035.35
540.269	31978.01
540.469	32449.04
540.67	32109.08
540.87	31963.67
541.071	32061.97
541.271	32121.37
541.472	32135.7
541.672	32064.02
541.873	32141.85
542.073	31515.17
542.274	32436.75
542.474	31935
542.675	31904.28
542.875	32352.79
543.075	32068.12
543.276	31685.15
543.476	32125.46
543.676	31830.55
543.877	32246.29
544.077	32158.23
544.277	32152.09
544.478	32184.85
544.678	32025.11
544.878	32059.93
545.078	31965.72
545.279	31832.6
545.479	31939.1
545.679	31873.56
545.879	31969.82
546.079	32182.8
546.28	31894.04
546.48	31935
546.68	31908.38
546.88	32258.58
547.08	32025.11
547.28	32195.09
547.48	31648.29
547.68	32246.29
547.88	31906.33
548.081	31932.95
548.281	32002.58
548.481	31687.2
548.681	32178.71
548.881	31586.85
549.081	31955.48
549.28	31674.91
549.48	31969.82
549.68	31875.61
549.88	32326.16
550.08	31842.84
550.28	31875.61
550.48	31943.19
550.68	32219.67
550.88	31617.57
551.08	31910.43
551.279	31889.95
551.479	31830.55
551.679	31810.07
551.879	31844.89
552.079	32373.27
552.278	31937.05
552.478	32129.56
552.678	31670.81
552.878	31904.28
553.077	31576.61
553.277	31396.38
553.477	31982.1
553.676	31480.35
553.876	31947.29
554.076	31834.65
554.275	31439.39
554.475	31617.57
554.674	31570.46
554.874	31502.88
555.074	31279.65
555.273	31810.07
555.473	31676.96
555.672	31228.45
555.872	31474.21
556.071	31611.42
556.271	31502.88
556.47	31418.91
556.67	30607.92
556.869	30947.88
557.068	31523.36
557.268	31132.2
557.467	31093.29
557.667	31019.56
557.866	31072.81
558.065	31175.2
558.265	31117.86
558.464	30724.65
558.663	31058.47
558.863	30526
559.062	30571.05
559.261	30716.46
559.461	31257.12
559.66	30671.4
559.859	30716.46
560.058	30724.65
560.258	30609.96
560.457	30253.62
560.656	30958.12
560.855	30140.98
561.054	30356.02
561.253	30042.68
561.453	30202.42
561.652	30274.1
561.851	30458.42
562.05	30323.25
562.249	30079.54
562.448	30016.05
562.647	30026.29
562.846	29792.83
563.045	29811.26
563.244	29604.41
563.443	29993.53
563.642	29411.9
563.841	29831.74
564.04	29387.33
564.239	29764.15
564.438	29284.93
564.637	29844.02
564.836	29538.88
565.035	29405.76
565.234	29368.9
565.432	29366.85
565.631	29143.62
565.83	29213.25
566.029	29049.41
566.228	29418.05
566.427	28936.77
566.625	28617.29
566.824	28478.03
567.023	28926.53
567.222	28639.82
567.42	28779.08
567.619	28439.12
567.818	28545.61
568.016	28400.21
568.215	28426.83
568.414	28058.2
568.612	28271.18
568.811	28244.56
569.01	28029.52
569.208	27834.97
569.407	28439.12
569.605	27732.57
569.804	28228.18
570.002	27705.95
570.201	27804.25
570.4	27517.53
570.598	27538.01
570.797	27263.58
570.995	27370.08
571.193	26989.16
571.392	27423.33
571.59	26989.16
571.789	27034.21
571.987	27316.83
572.186	27198.05
572.384	26696.3
572.582	27032.16
572.781	26853.99
572.979	26190.45
573.177	26571.37
573.376	26462.83
573.574	26184.3
573.772	26792.55
573.971	26276.46
574.169	25930.36
574.367	25766.52
574.565	26301.04
574.763	25631.35
574.962	25610.87
575.16	25614.97
575.358	25686.65
575.556	25741.94
575.754	25690.74
575.952	25211.52
576.151	25449.08
576.349	25139.84
576.547	25197.18
576.745	25082.5
576.943	25225.86
577.141	24949.38
577.339	25369.21
577.537	24664.71
577.735	24752.77
577.933	24447.63
578.131	24785.54
578.329	24746.63
578.527	24435.34
578.725	24453.77
578.923	24478.35
579.121	24316.56
579.319	24261.26
579.516	24199.82
579.714	24101.52
579.912	24056.46
580.11	23788.18
580.308	23990.93
580.506	23741.08
580.704	23614.1
580.901	23841.43
581.099	23710.36
581.297	23216.8
581.495	23239.33
581.692	23597.72
581.89	23300.76
582.088	23581.34
582.285	23169.69
582.483	22954.66
582.681	22962.85
582.878	23044.77
583.076	22719.14
583.274	22725.29
583.471	22649.51
583.669	22702.76
583.866	22782.63
584.064	22547.11
584.262	22370.99
584.459	22563.5
584.657	22241.96
584.854	22346.41
585.052	21891.76
585.249	22487.72
585.447	22348.46
585.644	21727.92
585.841	22055.6
586.039	21889.71
586.236	21858.99
586.434	21744.31
586.631	21623.48
586.828	21701.3
587.026	21830.32
587.223	21725.88
587.42	21396.15
587.618	21551.8
587.815	21029.57
588.012	21060.29
588.21	21136.06
588.407	21220.03
588.604	20753.09
588.801	20746.95
588.999	20984.51
589.196	20740.8
589.393	21056.19
589.59	20656.84
589.787	20792
589.984	20286.15
590.182	20302.54
590.379	20671.17
590.576	20212.43
590.773	20058.83
590.97	20204.24
591.167	20519.62
591.364	20218.57
591.561	19927.76
591.758	19876.56
591.955	19892.94
592.152	20140.75
592.349	19808.98
592.546	19837.65
592.743	19677.91
592.94	19389.14
593.137	19626.71
593.334	19663.57
593.531	19284.7
593.727	19436.25
593.924	19698.39
594.121	19219.16
594.318	19317.47
594.515	19002.08
594.712	19102.43
594.908	18897.63
595.105	19272.41
595.302	18907.87
595.499	19006.17
595.696	18791.14
595.892	18770.66
596.089	18967.26
596.286	18694.88
596.482	18586.34
596.679	18598.63
596.876	18715.36
597.072	18502.37
597.269	18690.79
597.466	18125.55
597.662	18479.85
597.859	18166.51
598.055	18387.69
598.252	18105.07
598.448	18180.84
598.645	17836.78
598.841	17728.24
599.038	17916.65
599.234	17646.32
599.431	17636.08
599.627	17789.68
599.824	17920.75
600.02	17834.74
600.217	17601.27
600.413	17611.51
600.609	17537.78
600.806	17449.72
601.002	17367.8
601.198	17222.39
601.395	17316.6
601.591	17296.12
601.787	17056.51
601.984	16950.01
602.18	17044.22
602.376	17146.62
602.572	16939.77
602.769	16931.58
602.965	16669.44
603.161	16962.3
603.357	16585.47
603.553	16583.43
603.75	16591.62
603.946	16268.04
604.142	16397.06
604.338	16253.7
604.534	16339.72
604.73	16202.5
604.926	16282.38
605.122	16057.1
605.318	16126.73
605.514	16171.79
605.71	16028.43
605.906	15991.56
606.102	15907.6
606.298	15901.45
606.494	15934.22
606.69	15598.35
606.886	15774.48
607.082	15430.42
607.278	15651.6
607.474	15401.75
607.67	15358.74
607.866	15182.62
608.062	15627.03
608.257	15256.34
608.453	15233.82
608.649	15567.63
608.845	15129.37
609.041	15276.82
609.236	15375.13
609.432	15172.38
609.628	14965.53
609.824	15112.99
610.019	15012.63
610.215	14824.22
610.411	14826.27
610.606	14850.85
610.802	14797.6
610.998	14809.89
611.193	14955.29
611.389	14768.93
611.584	14531.36
611.78	14637.86
611.976	14865.18
612.171	14488.35
612.367	14471.97
612.562	14392.1
612.758	14379.81
612.953	14361.38
613.149	14349.09
613.344	14086.95
613.539	14402.34
613.735	14314.28
613.93	14494.5
614.126	14299.94
614.321	14355.24
614.517	14127.91
614.712	14084.91
614.907	13933.36
615.103	13900.59
615.298	14162.73
615.493	14134.06
615.688	13904.68
615.884	14002.99
616.079	13560.63
616.274	14031.66
616.47	13863.72
616.665	13669.17
616.86	13665.07
617.055	13570.86
617.25	13675.31
617.445	13718.32
617.641	13529.91
617.836	13443.89
618.031	13486.9
618.226	13400.88
618.421	13140.79
618.616	13560.63
618.811	13081.4
619.006	13327.16
619.201	13341.49
619.396	13202.23
619.591	12802.88
619.786	13130.55
619.981	12768.06
620.176	12895.04
620.371	12686.14
620.566	12802.88
620.761	12624.7
620.956	12741.44
621.151	12634.94
621.346	12458.82
621.541	12544.83
621.735	12593.98
621.93	12090.18
622.125	12208.97
622.32	12325.7
622.515	11977.55
622.709	11959.11
622.904	12079.94
623.099	11852.62
623.294	12077.9
623.488	11492.18
623.683	11854.67
623.878	11623.25
624.072	11764.56
624.267	11535.18
624.462	11334.48
624.656	11354.96
624.851	11326.29
625.046	11148.12
625.24	11307.86
625.435	10992.47
625.629	11152.21
625.824	11182.93
626.018	11070.3
626.213	10982.23
626.407	10793.82
626.602	10550.11
626.796	10863.45
626.991	10904.41
627.185	10814.3
627.38	10672.99
627.574	10500.96
627.768	10494.82
627.963	10541.92
628.157	10570.59
628.352	10333.03
628.546	10138.47
628.74	10169.19
628.935	9974.63
629.129	10197.86
629.323	9737.07
629.517	9874.28
629.712	9974.63
629.906	9847.66
630.1	9743.21
630.294	9821.03
630.489	9739.12
630.683	9651.05
630.877	9503.6
631.071	9517.93
631.265	9317.23
631.459	9526.13
631.653	9431.92
631.848	9425.78
632.042	9212.79
632.236	9380.72
632.43	9415.54
632.624	9149.3
632.818	9362.29
633.012	8956.79
633.206	9094.01
633.4	9061.24
633.594	8739.71
633.788	8919.93
633.982	8993.65
634.176	8817.53
634.369	8774.52
634.563	8649.6
634.757	8684.41
634.951	8635.26
635.145	8428.42
635.339	8588.16
635.533	8682.36
635.726	8627.07
635.92	8237.95
636.114	8416.13
636.308	8287.11
636.501	8260.48
636.695	8350.59
636.889	8153.99
637.083	8205.19
637.276	8086.4
637.47	7879.56
637.664	7842.7
637.857	7895.94
638.051	7881.61
638.244	7809.93
638.438	7672.71
638.632	7945.09
638.825	7646.09
639.019	7562.12
639.212	7414.67
639.406	7572.36
639.599	7601.04
639.793	7572.36
639.986	7459.73
640.18	7607.18
640.373	7508.88
640.567	7250.83
640.76	7138.2
640.954	7345.04
641.147	6992.79
641.34	7134.1
641.534	7144.34
641.727	7107.48
641.92	7005.08
642.114	6947.73
642.307	7000.98
642.5	6808.47
642.694	6853.53
642.887	6658.97
643.08	6826.9
643.273	6556.57
643.467	6685.59
643.66	6622.11
643.853	6697.88
644.046	6552.48
644.239	6439.84
644.432	6454.17
644.626	6380.45
644.819	6257.57
645.012	6343.58
645.205	6183.84
645.398	6294.43
645.591	6222.75
645.784	6198.18
645.977	6153.12
646.17	6235.04
646.363	5987.24
646.556	5972.9
646.749	5858.21
646.942	6183.84
647.135	5909.41
647.328	6063.01
647.521	5858.21
647.714	5606.31
647.907	5784.49
648.099	5637.03
648.292	5686.19
648.485	5741.48
648.678	5532.59
648.871	5557.16
649.064	5757.86
649.256	5403.57
649.449	5448.62
649.642	5512.11
649.835	5467.05
650.027	5372.85
650.22	5567.4
650.413	5376.94
650.605	5364.65
650.798	5305.26
650.991	5204.91
651.183	5157.81
651.376	5122.99
651.568	5012.4
651.761	5059.51
651.954	5184.43
652.146	5084.08
652.339	5166
652.531	5008.31
652.724	4963.25
652.916	4844.47
653.109	4905.91
653.301	4850.61
653.494	4817.85
653.686	4766.65
653.879	4830.13
654.071	4793.27
654.263	4811.7
654.456	4807.61
654.648	4654.01
654.84	4666.3
655.033	4666.3
655.225	4608.95
655.417	4549.56
655.61	4643.77
655.802	4557.75
655.994	4547.51
656.186	4545.47
656.379	4387.77
656.571	4465.6
656.763	4398.01
656.955	4424.64
657.148	4328.38
657.34	4451.26
657.532	4244.42
657.724	4318.14
657.916	4248.51
658.108	4223.94
658.3	4303.81
658.492	4289.47
658.684	4080.58
658.876	4117.44
659.068	4039.62
659.26	3947.46
659.452	3969.99
659.644	3898.31
659.836	3888.07
660.028	4117.44
660.22	3945.41
660.412	3791.81
660.604	3836.87
660.796	3873.73
660.988	3869.64
661.18	3736.52
661.372	3691.46
661.563	3908.55
661.755	3773.38
661.947	3820.49
662.139	3791.81
662.331	3718.09
662.522	3654.6
662.714	3617.74
662.906	3646.41
663.097	3615.69
663.289	3519.43
663.481	3625.93
663.673	3384.27
663.864	3570.63
664.056	3410.89
664.247	3466.19
664.439	3302.35
664.631	3482.57
664.822	3421.13
665.014	3402.7
665.205	3439.56
665.397	3396.56
665.588	3347.4
665.78	3398.6
665.971	3355.6
666.163	3242.96
666.354	3326.93
666.546	3259.34
666.737	3298.25
666.929	3292.11
667.12	3105.74
667.311	3255.25
667.503	3204.05
667.694	3140.56
667.885	3013.59
668.077	3134.42
668.268	3046.35
668.459	3103.7
668.651	3081.17
668.842	3056.59
669.033	3066.83
669.224	3023.83
669.416	3068.88
669.607	2950.1
669.798	3025.87
669.989	3003.35
670.18	2859.99
670.371	2894.8
670.563	2853.84
670.754	2974.67
670.945	2950.1
671.136	2876.37
671.327	2878.42
671.518	2839.51
671.709	2900.95
671.9	2939.86
672.091	2702.29
672.282	2823.12
672.473	2841.56
672.664	2720.73
672.855	2798.55
673.046	2796.5
673.237	2769.88
673.428	2773.97
673.619	2749.4
673.809	2657.24
674	2616.28
674.191	2745.3
674.382	2679.77
674.573	2735.06
674.764	2741.21
674.954	2579.42
675.145	2591.7
675.336	2655.19
675.527	2606.04
675.717	2712.53
675.908	2765.78
676.099	2716.63
676.289	2626.52
676.48	2626.52
676.671	2628.57
676.861	2622.42
677.052	2659.29
677.243	2546.65
677.433	2565.08
677.624	2419.68
677.814	2671.58
678.005	2571.22
678.195	2638.81
678.386	2577.37
678.576	2456.54
678.767	2501.59
678.957	2450.39
679.148	2511.83
679.338	2450.39
679.529	2524.12
679.719	2460.63
679.909	2589.66
680.1	2534.36
680.29	2403.29
680.481	2485.21
680.671	2458.59
680.861	2399.2
681.052	2436.06
681.242	2407.39
681.432	2411.48
681.622	2319.32
681.813	2517.98
682.003	2415.58
682.193	2397.15
682.383	2409.44
682.573	2354.14
682.764	2462.68
682.954	2464.73
683.144	2477.02
683.334	2438.11
683.524	2409.44
683.714	2290.65
683.904	2513.88
684.094	2429.91
684.284	2399.2
684.474	2329.56
684.664	2425.82
684.854	2309.08
685.044	2407.39
685.234	2366.43
685.424	2352.09
685.614	2356.19
685.804	2319.32
685.994	2405.34
686.184	2380.76
686.374	2425.82
686.564	2366.43
686.753	2417.63
686.943	2329.56
687.133	2395.1
687.323	2358.24
687.513	2325.47
687.702	2298.84
687.892	2364.38
688.082	2382.81
688.272	2352.09
688.461	2378.72
688.651	2333.66
688.841	2339.8
689.03	2337.76
689.22	2333.66
689.41	2333.66
689.599	2284.51
689.789	2259.93
689.979	2325.47
690.168	2388.96
690.358	2417.63
690.547	2218.97
690.737	2231.26
690.926	2264.03
691.116	2225.12
691.305	2288.61
691.495	2206.69
691.684	2200.54
691.874	2300.89
692.063	2337.76
692.252	2331.61
692.442	2200.54
692.631	2147.3
692.82	2395.1
693.01	2294.75
693.199	2264.03
693.388	2290.65
693.578	2294.75
693.767	2337.76
693.956	2208.73
694.146	2356.19
694.335	2257.89
694.524	2348
694.713	2393.05
694.902	2321.37
695.092	2350.04
695.281	2196.45
695.47	2249.69
695.659	2286.56
695.848	2214.88
696.037	2257.89
696.226	2253.79
696.415	2245.6
696.604	2331.61
696.793	2294.75
696.982	2288.61
697.171	2239.45
697.36	2317.28
697.549	2356.19
697.738	2245.6
697.927	2309.08
698.116	2319.32
698.305	2397.15
698.494	2247.65
698.683	2221.02
698.872	2327.52
699.061	2304.99
699.25	2188.25
699.438	2247.65
699.627	2229.21
699.816	2315.23
700.005	2259.93
700.193	2300.89
700.382	2216.93
700.571	2270.17
700.76	2239.45
700.948	2253.79
701.137	2206.69
701.326	2233.31
701.514	2253.79
701.703	2247.65
701.892	2221.02
702.08	2216.93
702.269	2321.37
702.457	2294.75
702.646	2339.8
702.834	2212.83
703.023	2216.93
703.212	2327.52
703.4	2243.55
703.589	2225.12
703.777	2214.88
703.965	2173.92
704.154	2102.24
704.342	2376.67
704.531	2233.31
704.719	2266.08
704.907	2184.16
705.096	2180.06
705.284	2270.17
705.472	2173.92
705.661	2042.85
705.849	2165.73
706.037	2128.86
706.226	2053.09
706.414	2094.05
706.602	2130.91
706.79	2094.05
706.979	2106.34
707.167	2194.4
707.355	2108.38
707.543	2229.21
707.731	2110.43
707.919	2145.25
708.107	2237.41
708.296	2135.01
708.484	2130.91
708.672	2085.86
708.86	2059.23
709.048	2085.86
709.236	2057.18
709.424	2073.57
709.612	2145.25
709.8	2001.89
709.988	2110.43
710.176	2057.18
710.364	2120.67
710.551	2100.19
710.739	1981.41
710.927	2096.1
711.115	2022.37
711.303	2077.66
711.491	2048.99
711.679	1905.63
711.866	1952.74
712.054	1962.98
712.242	1887.2
712.43	1979.36
712.617	1944.55
712.805	1911.78
712.993	2020.32
713.181	1911.78
713.368	1962.98
713.556	1967.07
713.744	1948.64
713.931	1956.83
714.119	1836
714.306	1915.87
714.494	1899.49
714.682	1977.31
714.869	1764.33
715.057	1922.02
715.244	1760.23
715.432	1917.92
715.619	1883.11
715.807	1776.61
715.994	1815.52
716.182	1885.16
716.369	1901.54
716.556	1866.72
716.744	1760.23
716.931	1733.61
717.119	1813.48
717.306	1704.93
717.493	1731.56
717.681	1788.9
717.868	1702.89
718.055	1735.65
718.242	1668.07
718.43	1694.69
718.617	1815.52
718.804	1635.3
718.991	1735.65
719.179	1754.09
719.366	1715.17
719.553	1663.97
719.74	1663.97
719.927	1702.89
720.114	1627.11
720.301	1674.21
720.488	1643.49
720.676	1674.21
720.863	1659.88
721.05	1553.38
721.237	1692.65
721.424	1627.11
721.611	1635.3
721.798	1641.45
721.985	1573.86
722.172	1573.86
722.358	1639.4
722.545	1629.16
722.732	1502.19
722.919	1618.92
723.106	1598.44
723.293	1571.82
723.48	1629.16
723.667	1557.48
723.853	1545.19
724.04	1625.06
724.227	1534.95
724.414	1528.81
724.6	1534.95
724.787	1514.47
724.974	1555.43
725.161	1571.82
725.347	1446.89
725.534	1528.81
725.72	1600.49
725.907	1561.58
726.094	1526.76
726.28	1534.95
726.467	1502.19
726.653	1569.77
726.84	1469.42
727.027	1545.19
727.213	1483.75
727.4	1545.19
727.586	1463.27
727.773	1485.8
727.959	1524.71
728.145	1430.51
728.332	1389.55
728.518	1549.29
728.705	1391.59
728.891	1457.13
729.077	1444.84
729.264	1450.99
729.45	1367.02
729.636	1448.94
729.823	1371.12
730.009	1416.17
730.195	1475.56
730.382	1467.37
730.568	1442.79
730.754	1401.83
730.94	1385.45
731.126	1373.16
731.313	1420.27
731.499	1309.68
731.685	1369.07
731.871	1332.2
732.057	1471.47
732.243	1422.31
732.429	1358.83
732.615	1403.88
732.801	1426.41
732.987	1391.59
733.173	1340.4
733.359	1303.53
733.545	1344.49
733.731	1317.87
733.917	1459.18
734.103	1264.62
734.289	1385.45
734.475	1367.02
734.661	1338.35
734.847	1340.4
735.033	1360.88
735.219	1289.2
735.404	1360.88
735.59	1346.54
735.776	1260.52
735.962	1326.06
736.148	1272.81
736.333	1307.63
736.519	1242.09
736.705	1238
736.89	1330.16
737.076	1268.72
737.262	1133.55
737.447	1199.09
737.633	1211.37
737.819	1201.13
738.004	1313.77
738.19	1260.52
738.375	1307.63
738.561	1201.13
738.747	1305.58
738.932	1223.66
739.118	1250.28
739.303	1217.52
739.489	1182.7
739.674	1156.08
739.859	1215.47
740.045	1211.37
740.23	1090.54
740.416	1215.47
740.601	1192.94
740.786	1215.47
740.972	1086.45
741.157	1268.72
741.342	1182.7
741.528	1139.69
741.713	1129.45
741.898	1217.52
742.084	1223.66
742.269	1127.41
742.454	1108.98
742.639	1129.45
742.824	1250.28
743.01	1108.98
743.195	1176.56
743.38	1123.31
743.565	1035.25
743.75	1131.5
743.935	1080.3
744.12	1147.89
744.305	988.14
744.49	1129.45
744.675	1049.58
744.86	1104.88
745.045	1037.3
745.23	1033.2
745.415	1086.45
745.6	1082.35
745.785	1039.34
745.97	1025.01
746.155	1022.96
746.34	998.38
746.525	977.91
746.71	1033.2
746.895	1033.2
747.079	1037.3
747.264	977.91
747.449	914.42
747.634	1008.62
747.819	986.1
748.003	967.67
748.188	1002.48
748.373	1025.01
748.557	895.99
748.742	984.05
748.927	947.19
749.111	996.34
749.296	932.85
749.481	941.04
749.665	918.51
749.85	809.97
750.034	881.65
750.219	900.08
750.404	834.55
750.588	859.12
750.773	855.03
750.957	879.6
751.141	863.22
751.326	914.42
751.51	730.1
751.695	764.92
751.879	838.64
752.064	883.7
752.248	885.75
752.432	850.93
752.617	748.53
752.801	834.55
752.985	814.07
753.17	826.36
753.354	842.74
753.538	769.01
753.722	697.33
753.907	867.31
754.091	760.82
754.275	828.4
754.459	742.39
754.643	764.92
754.828	719.86
755.012	814.07
755.196	738.29
755.38	764.92
755.564	748.53
755.748	814.07
755.932	738.29
756.116	738.29
756.3	740.34
756.484	734.2
756.668	652.28
756.852	746.48
757.036	691.19
757.22	719.86
757.404	709.62
757.588	693.24
757.772	683
757.956	635.89
758.14	756.72
758.323	599.03
758.507	678.9
758.691	670.71
758.875	551.93
759.059	648.18
759.242	611.32
759.426	619.51
759.61	623.61
759.794	619.51
759.977	775.16
760.161	678.9
760.345	625.65
760.528	625.65
760.712	668.66
760.895	621.56
761.079	637.94
761.263	619.51
761.446	646.13
761.63	629.75
761.813	568.31
761.997	568.31
762.18	668.66
762.364	549.88
762.547	584.7
762.731	570.36
762.914	558.07
763.098	611.32
763.281	609.27
763.464	572.41
763.648	492.54
763.831	551.93
764.015	498.68
764.198	498.68
764.381	549.88
764.564	596.98
764.748	498.68
764.931	572.41
765.114	543.74
765.297	578.55
765.481	506.87
765.664	525.3
765.847	531.45
766.03	539.64
766.213	519.16
766.397	560.12
766.58	513.02
766.763	590.84
766.946	476.15
767.129	506.87
767.312	551.93
767.495	478.2
767.678	539.64
767.861	519.16
768.044	513.02
768.227	496.63
768.41	535.54
768.593	463.86
768.776	506.87
768.959	482.3
769.142	517.11
769.324	482.3
769.507	574.46
769.69	531.45
769.873	478.2
770.056	467.96
770.239	472.06
770.421	553.98
770.604	498.68
770.787	465.91
770.97	582.65
771.152	451.58
771.335	510.97
771.518	549.88
771.7	453.63
771.883	500.73
772.066	560.12
772.248	459.77
772.431	496.63
772.613	451.58
772.796	502.78
772.978	465.91
773.161	424.95
773.343	443.39
773.526	377.85
773.708	467.96
773.891	506.87
774.073	498.68
774.256	408.57
774.438	463.86
774.621	433.15
774.803	437.24
774.985	467.96
775.168	508.92
775.35	515.06
775.532	441.34
775.715	457.72
775.897	394.23
776.079	406.52
776.261	486.39
776.444	451.58
776.626	422.91
776.808	363.51
776.99	394.23
777.173	451.58
777.355	410.62
777.537	375.8
777.719	392.19
777.901	408.57
778.083	412.67
778.265	373.75
778.447	306.17
778.629	338.94
778.811	383.99
778.993	449.53
779.175	373.75
779.357	306.17
779.539	377.85
779.721	359.42
779.903	361.47
780.085	330.75
780.267	427
780.449	334.84
780.631	461.82
780.812	388.09
780.994	302.08
781.176	332.79
781.358	310.27
781.54	351.23
781.721	396.28
781.903	367.61
782.085	322.56
782.267	320.51
782.448	347.13
782.63	334.84
782.812	232.44
782.993	234.49
783.175	285.69
783.357	265.21
783.538	312.32
783.72	330.75
783.901	392.19
784.083	285.69
784.264	246.78
784.446	279.55
784.627	271.36
784.809	363.51
784.99	269.31
785.172	326.65
785.353	273.4
785.535	271.36
785.716	273.4
785.897	322.56
786.079	211.96
786.26	216.06
786.441	244.73
786.623	254.97
786.804	300.03
786.985	261.12
787.167	297.98
787.348	293.88
787.529	244.73
787.71	218.11
787.891	283.64
788.073	275.45
788.254	297.98
788.435	259.07
788.616	326.65
788.797	242.68
788.978	252.92
789.159	209.92
789.34	250.88
789.522	209.92
789.703	283.64
789.884	238.59
790.065	240.64
790.246	193.53
790.427	254.97
790.607	195.58
790.788	211.96
790.969	156.67
791.15	228.35
791.331	224.25
791.512	191.49
791.693	181.25
791.874	205.82
792.054	197.63
792.235	238.59
792.416	209.92
792.597	191.49
792.778	250.88
792.958	230.4
793.139	154.62
793.32	259.07
793.5	252.92
793.681	195.58
793.862	234.49
794.042	195.58
794.223	136.19
794.404	156.67
794.584	201.72
794.765	162.81
794.945	236.54
795.126	281.6
795.306	183.29
795.487	191.49
795.667	218.11
795.848	193.53
796.028	218.11
796.209	197.63
796.389	179.2
796.57	207.87
796.75	142.33
796.93	209.92
797.111	125.95
797.291	78.85
797.471	152.57
797.652	162.81
797.832	211.96
798.012	166.91
798.192	209.92
798.373	160.77
798.553	173.05
798.733	150.53
798.913	195.58
799.093	199.68
799.274	179.2
799.454	209.92
799.634	201.72
799.814	130.05
799.994	181.25
800.174	152.57
800.354	99.33
800.534	175.1
800.714	166.91
800.894	199.68
801.074	93.18
801.254	107.52
801.434	175.1
801.614	300.03
801.794	150.53
801.974	394.23
802.154	216.06
802.334	119.81
802.514	58.37
802.693	138.24
802.873	117.76
803.053	160.77
803.233	214.01
803.413	103.42
803.592	113.66
803.772	132.09
803.952	107.52
804.131	148.48
804.311	160.77
804.491	191.49
804.67	160.77
804.85	64.51
805.03	95.23
805.209	97.28
805.389	89.09
805.568	117.76
805.748	144.38
805.928	144.38
806.107	97.28
806.287	171.01
806.466	207.87
806.646	156.67
806.825	160.77
807.004	152.57
807.184	138.24
807.363	148.48
807.543	111.61
807.722	80.89
807.901	121.85
808.081	207.87
808.26	99.33
808.439	113.66
808.619	134.14
808.798	80.89
808.977	175.1
809.156	97.28
809.336	142.33
809.515	91.13
809.694	52.22
809.873	166.91
810.052	113.66
810.231	111.61
810.411	72.7
810.59	154.62
810.769	121.85
810.948	95.23
811.127	140.29
811.306	138.24
811.485	125.95
811.664	171.01
811.843	91.13
812.022	168.96
812.201	72.7
812.38	138.24
812.559	91.13
812.737	103.42
812.916	76.8
813.095	103.42
813.274	44.03
813.453	158.72
813.632	95.23
813.811	107.52
813.989	74.75
814.168	91.13
814.347	72.7
814.526	115.71
814.704	150.53
814.883	72.7
815.062	87.04
815.24	119.81
815.419	48.13
815.598	89.09
815.776	5.12
815.955	97.28
816.133	58.37
816.312	107.52
816.49	82.94
816.669	62.46
816.847	62.46
817.026	74.75
817.204	138.24
817.383	58.37
817.561	60.42
817.74	72.7
817.918	93.18
818.097	33.79
818.275	19.46
818.453	97.28
818.632	46.08
818.81	25.6
818.988	166.91
819.167	19.46
819.345	113.66
819.523	109.57
819.701	136.19
819.879	48.13
820.058	138.24
820.236	115.71
820.414	130.05
820.592	46.08
820.77	35.84
820.948	84.99
821.127	33.79
821.305	109.57
821.483	46.08
821.661	156.67
821.839	78.85
822.017	46.08
822.195	60.42
822.373	56.32
822.551	68.61
822.729	48.13
822.907	72.7
823.085	109.57
823.262	80.89
823.44	128
823.618	140.29
823.796	87.04
823.974	97.28
824.152	72.7
824.329	91.13
824.507	60.42
824.685	44.03
824.863	154.62
825.04	95.23
825.218	123.9
825.396	72.7
825.574	52.22
825.751	74.75
825.929	74.75
826.107	121.85
826.284	146.43
826.462	64.51
826.639	87.04
826.817	99.33
826.994	39.94
827.172	23.55
827.349	97.28
827.527	93.18
827.704	82.94
827.882	107.52
828.059	15.36
828.237	89.09
828.414	115.71
828.591	41.98
828.769	117.76
828.946	60.42
829.124	68.61
829.301	130.05
829.478	50.18
829.655	68.61
829.833	56.32
830.01	5.12
830.187	11.26
830.364	125.95
830.542	103.42
830.719	39.94
830.896	74.75
831.073	119.81
831.25	54.27
831.427	66.56
831.604	39.94
831.782	44.03
831.959	41.98
832.136	-5.12
832.313	78.85
832.49	54.27
832.667	103.42
832.844	13.31
833.021	87.04
833.198	29.7
833.374	48.13
833.551	-9.22
833.728	80.89
833.905	44.03
834.082	27.65
834.259	48.13
834.436	128
834.612	1.02
834.789	84.99
834.966	68.61
835.143	97.28
835.319	19.46
835.496	66.56
835.673	72.7
835.85	125.95
836.026	48.13
836.203	66.56
836.38	35.84
836.556	62.46
836.733	39.94
836.909	99.33
837.086	31.74
837.262	111.61
837.439	87.04
837.616	54.27
837.792	68.61
837.968	44.03
838.145	62.46
838.321	29.7
838.498	46.08
838.674	117.76
838.851	37.89
839.027	70.65
839.203	35.84
839.38	56.32
839.556	52.22
839.732	105.47
839.909	64.51
840.085	41.98
840.261	78.85
840.437	78.85
840.614	-17.41
840.79	9.22
840.966	29.7
841.142	80.89
841.318	35.84
841.494	121.85
841.671	17.41
841.847	91.13
842.023	89.09
842.199	93.18
842.375	62.46
842.551	13.31
842.727	66.56
842.903	78.85
843.079	23.55
843.255	119.81
843.431	-46.08
843.607	-13.31
843.783	-37.89
843.959	111.61
844.134	76.8
844.31	68.61
844.486	29.7
844.662	-5.12
844.838	68.61
845.013	89.09
845.189	134.14
845.365	101.37
845.541	9.22
845.716	44.03
845.892	76.8
846.068	125.95
846.244	74.75
846.419	-15.36
846.595	35.84
846.77	5.12
846.946	84.99
847.122	87.04
847.297	-9.22
847.473	35.84
847.648	68.61
847.824	19.46
847.999	52.22
848.175	-23.55
848.35	-11.26
848.526	91.13
848.701	-35.84
848.876	50.18
849.052	56.32
849.227	17.41
849.403	89.09
849.578	46.08
849.753	52.22
849.929	52.22
850.104	54.27
850.279	52.22
850.454	13.31
850.63	82.94
850.805	99.33
850.98	50.18
851.155	41.98
851.33	5.12
851.505	46.08
851.681	29.7
851.856	-1.02
852.031	103.42
852.206	-17.41
852.381	54.27
852.556	29.7
852.731	23.55
852.906	11.26
853.081	70.65
853.256	44.03
853.431	64.51
853.606	29.7
853.781	5.12
853.956	-56.32
854.131	35.84
854.305	82.94
854.48	48.13
854.655	-9.22
854.83	50.18
855.005	33.79
855.18	64.51
855.354	87.04
855.529	19.46
855.704	-1.02
855.879	-33.79
856.053	39.94
856.228	44.03
856.403	15.36
856.577	60.42
856.752	78.85
856.926	72.7
857.101	21.5
857.276	-5.12
857.45	89.09
857.625	101.37
857.799	52.22
857.974	72.7
858.148	-5.12
858.323	80.89
858.497	60.42
858.672	23.55
858.846	-23.55
859.02	48.13
859.195	78.85
859.369	37.89
859.543	33.79
859.718	5.12
859.892	105.47
860.066	76.8
860.241	15.36
860.415	37.89
860.589	35.84
860.763	123.9
860.938	72.7
861.112	19.46
861.286	39.94
861.46	27.65
861.634	89.09
861.808	44.03
861.982	74.75
862.157	76.8
862.331	25.6
862.505	37.89
862.679	3.07
862.853	-13.31
863.027	-7.17
863.201	87.04
863.375	-35.84
863.549	-15.36
863.722	72.7
863.896	66.56
864.07	-5.12
864.244	9.22
864.418	5.12
864.592	37.89
864.766	46.08
864.939	-11.26
865.113	64.51
865.287	41.98
865.461	15.36
865.634	117.76
865.808	25.6
865.982	50.18
866.156	21.5
866.329	44.03
866.503	89.09
866.676	80.89
866.85	5.12
867.024	-21.5
867.197	1.02
867.371	-11.26
867.544	44.03
867.718	11.26
867.891	19.46
868.065	17.41
868.238	97.28
868.412	-3.07
868.585	-46.08
868.759	-27.65
868.932	-5.12
869.105	89.09
869.279	29.7
869.452	68.61
869.625	15.36
869.799	-11.26
869.972	7.17
870.145	37.89
870.319	117.76
870.492	35.84
870.665	31.74
870.838	60.42
871.011	-54.27
871.185	-31.74
871.358	21.5
871.531	37.89
871.704	72.7
871.877	84.99
872.05	15.36
872.223	50.18
872.396	3.07
872.569	44.03
872.742	44.03
872.915	35.84
873.088	-1.02
873.261	-7.17
873.434	5.12
873.607	76.8
873.78	21.5
873.953	-37.89
874.126	-11.26
874.299	19.46
874.471	54.27
874.644	66.56
874.817	37.89
874.99	70.65
875.163	72.7
875.335	-41.98
875.508	11.26
875.681	76.8
875.853	31.74
876.026	1.02
876.199	50.18
876.371	91.13
876.544	27.65
876.717	29.7
876.889	76.8
877.062	140.29
877.234	-56.32
877.407	31.74
877.579	-1.02
877.752	11.26
877.924	48.13
878.097	19.46
878.269	66.56
878.442	-13.31
878.614	9.22
878.786	23.55
878.959	-13.31
879.131	80.89
879.303	1.02
879.476	60.42
879.648	29.7
879.82	93.18
879.993	-1.02
880.165	-7.17
880.337	39.94
880.509	50.18
880.681	5.12
880.854	-11.26
881.026	-1.02
881.198	11.26
881.37	78.85
881.542	41.98
881.714	19.46
881.886	66.56
882.058	-25.6
882.23	35.84
882.402	13.31
882.574	64.51
882.746	-19.46
882.918	76.8
883.09	89.09
883.262	3.07
883.434	-31.74
883.606	-37.89
883.778	-17.41
883.95	-44.03
884.122	84.99
884.293	31.74
884.465	37.89
884.637	33.79
884.809	15.36
884.98	13.31
885.152	29.7
885.324	11.26
885.496	17.41
885.667	29.7
885.839	-62.46
886.011	39.94
886.182	-13.31
886.354	39.94
886.525	31.74
886.697	-21.5
886.869	15.36
887.04	17.41
887.212	-5.12
887.383	7.17
887.555	-7.17
887.726	13.31
887.897	31.74
888.069	68.61
888.24	-3.07
888.412	-41.98
888.583	64.51
888.754	117.76
888.926	-21.5
889.097	1.02
889.268	-48.13
889.44	48.13
889.611	48.13
889.782	44.03
889.953	-1.02
890.125	70.65
890.296	25.6
890.467	-11.26
890.638	23.55
890.809	23.55
890.98	13.31
891.151	64.51
891.323	25.6
891.494	68.61
891.665	-1.02
891.836	41.98
892.007	46.08
892.178	87.04
892.349	-17.41
892.52	-52.22
892.691	-19.46
892.862	80.89
893.032	27.65
893.203	23.55
893.374	25.6
893.545	50.18
893.716	66.56
893.887	50.18
894.057	60.42
894.228	64.51
894.399	25.6
894.57	15.36
894.74	52.22
894.911	29.7
895.082	37.89
895.253	39.94
895.423	29.7
895.594	23.55
895.764	-9.22
895.935	13.31
896.106	-58.37
896.276	93.18
896.447	1.02
896.617	39.94
896.788	-21.5
896.958	-17.41
897.129	19.46
897.299	-46.08
897.47	39.94
897.64	-3.07
897.81	48.13
897.981	50.18
898.151	41.98
898.322	35.84
898.492	68.61
898.662	54.27
898.832	5.12
899.003	68.61
899.173	56.32
899.343	9.22
899.513	-23.55
