Data from USB4F104151__250__14-01-30-931.txt Node

Date: Thu Mar 13 14:01:30 EDT 2025
User: louis
Spectrometer: USB4F10415
Trigger mode: 4
Integration Time (sec): 1.000000E-2
Scans to average: 1
Electric dark correction enabled: true
Nonlinearity correction enabled: false
Boxcar width: 0
XAxis mode: Wavelengths
Number of Pixels in Spectrum: 3648
>>>>>Begin Spectral Data<<<<<
178.204	-8.87
178.424	-8.87
178.644	-8.87
178.864	-31.4
179.084	-53.93
179.304	17.75
179.524	32.08
179.744	19.8
179.964	30.04
180.184	7.51
180.404	-45.74
180.624	-12.97
180.844	32.08
181.064	-25.26
181.283	11.61
181.503	-17.07
181.723	-49.83
181.943	-41.64
182.163	3.41
182.383	-35.5
182.602	25.94
182.822	44.37
183.042	30.04
183.262	85.33
183.482	58.71
183.701	30.04
183.921	50.52
184.141	64.85
184.361	-23.21
184.58	-10.92
184.8	81.24
185.02	1.37
185.239	19.8
185.459	32.08
185.679	50.52
185.898	-27.31
186.118	-43.69
186.338	23.89
186.557	40.28
186.777	-35.5
186.997	15.7
187.216	-19.11
187.436	52.56
187.655	25.94
187.875	-0.68
188.095	9.56
188.314	58.71
188.534	11.61
188.753	56.66
188.973	48.47
189.192	42.32
189.412	-25.26
189.631	62.8
189.851	60.76
190.07	46.42
190.29	48.47
190.509	1.37
190.729	23.89
190.948	-43.69
191.168	75.09
191.387	17.75
191.607	-2.73
191.826	23.89
192.045	64.85
192.265	-29.35
192.484	-4.78
192.704	32.08
192.923	42.32
193.142	-27.31
193.362	19.8
193.581	77.14
193.8	64.85
194.02	83.28
194.239	25.94
194.458	36.18
194.678	25.94
194.897	40.28
195.116	-49.83
195.335	60.76
195.555	56.66
195.774	15.7
195.993	68.95
196.212	93.52
196.432	-39.59
196.651	13.65
196.87	38.23
197.089	-8.87
197.308	3.41
197.528	109.91
197.747	13.65
197.966	7.51
198.185	42.32
198.404	58.71
198.623	25.94
198.842	34.13
199.062	36.18
199.281	64.85
199.5	52.56
199.719	-25.26
199.938	7.51
200.157	34.13
200.376	66.9
200.595	50.52
200.814	79.19
201.033	-27.31
201.252	1.37
201.471	58.71
201.69	3.41
201.909	44.37
202.128	-17.07
202.347	-25.26
202.566	-51.88
202.785	25.94
203.004	-21.16
203.223	71
203.442	17.75
203.661	81.24
203.879	42.32
204.098	-6.83
204.317	81.24
204.536	68.95
204.755	-53.93
204.974	44.37
205.193	87.38
205.411	107.86
205.63	81.24
205.849	38.23
206.068	-12.97
206.287	38.23
206.505	40.28
206.724	-17.07
206.943	91.48
207.162	23.89
207.381	19.8
207.599	-49.83
207.818	-15.02
208.037	11.61
208.255	17.75
208.474	9.56
208.693	91.48
208.911	-10.92
209.13	68.95
209.349	56.66
209.567	19.8
209.786	-25.26
210.005	15.7
210.223	-43.69
210.442	-0.68
210.661	50.52
210.879	7.51
211.098	52.56
211.316	-17.07
211.535	54.61
211.753	-0.68
211.972	15.7
212.191	7.51
212.409	21.85
212.628	32.08
212.846	48.47
213.065	40.28
213.283	81.24
213.502	13.65
213.72	25.94
213.938	48.47
214.157	11.61
214.375	89.43
214.594	71
214.812	-19.11
215.031	23.89
215.249	60.76
215.467	13.65
215.686	9.56
215.904	105.81
216.122	99.67
216.341	93.52
216.559	50.52
216.778	122.2
216.996	73.04
217.214	87.38
217.432	19.8
217.651	64.85
217.869	40.28
218.087	58.71
218.306	34.13
218.524	48.47
218.742	38.23
218.96	-6.83
219.179	-49.83
219.397	-4.78
219.615	-17.07
219.833	15.7
220.051	38.23
220.27	91.48
220.488	-23.21
220.706	81.24
220.924	40.28
221.142	77.14
221.36	-23.21
221.578	-15.02
221.796	-21.16
222.015	40.28
222.233	32.08
222.451	42.32
222.669	-47.79
222.887	56.66
223.105	13.65
223.323	-25.26
223.541	-6.83
223.759	73.04
223.977	40.28
224.195	66.9
224.413	42.32
224.631	21.85
224.849	44.37
225.067	169.3
225.285	1.37
225.503	38.23
225.721	48.47
225.939	95.57
226.157	-29.35
226.375	3.41
226.592	15.7
226.81	32.08
227.028	73.04
227.246	54.61
227.464	48.47
227.682	64.85
227.9	60.76
228.117	50.52
228.335	36.18
228.553	-4.78
228.771	40.28
228.989	7.51
229.206	-29.35
229.424	144.72
229.642	89.43
229.86	13.65
230.077	58.71
230.295	101.72
230.513	13.65
230.731	34.13
230.948	75.09
231.166	99.67
231.384	34.13
231.601	44.37
231.819	83.28
232.037	50.52
232.254	-29.35
232.472	-0.68
232.689	15.7
232.907	50.52
233.125	56.66
233.342	7.51
233.56	13.65
233.777	38.23
233.995	-2.73
234.213	105.81
234.43	42.32
234.648	60.76
234.865	-6.83
235.083	79.19
235.3	73.04
235.518	71
235.735	40.28
235.953	40.28
236.17	40.28
236.388	64.85
236.605	44.37
236.822	34.13
237.04	40.28
237.257	58.71
237.475	21.85
237.692	140.63
237.909	-21.16
238.127	56.66
238.344	-49.83
238.562	13.65
238.779	38.23
238.996	-8.87
239.214	34.13
239.431	23.89
239.648	-4.78
239.865	9.56
240.083	-6.83
240.3	42.32
240.517	11.61
240.735	38.23
240.952	-55.98
241.169	23.89
241.386	-17.07
241.603	25.94
241.821	32.08
242.038	101.72
242.255	44.37
242.472	21.85
242.689	34.13
242.907	11.61
243.124	60.76
243.341	9.56
243.558	44.37
243.775	13.65
243.992	-8.87
244.209	62.8
244.426	81.24
244.643	42.32
244.86	5.46
245.078	81.24
245.295	46.42
245.512	68.95
245.729	-12.97
245.946	56.66
246.163	68.95
246.38	-2.73
246.597	7.51
246.814	-21.16
247.031	19.8
247.248	44.37
247.464	5.46
247.681	34.13
247.898	7.51
248.115	-39.59
248.332	54.61
248.549	79.19
248.766	52.56
248.983	66.9
249.2	21.85
249.417	97.62
249.633	-4.78
249.85	1.37
250.067	40.28
250.284	11.61
250.501	23.89
250.717	58.71
250.934	60.76
251.151	-0.68
251.368	44.37
251.585	32.08
251.801	-21.16
252.018	-0.68
252.235	9.56
252.451	99.67
252.668	40.28
252.885	34.13
253.102	-0.68
253.318	23.89
253.535	-15.02
253.752	-33.45
253.968	52.56
254.185	-10.92
254.401	95.57
254.618	66.9
254.835	30.04
255.051	40.28
255.268	48.47
255.484	-58.03
255.701	42.32
255.917	38.23
256.134	54.61
256.351	32.08
256.567	-76.46
256.784	48.47
257	-25.26
257.217	73.04
257.433	30.04
257.65	-2.73
257.866	54.61
258.082	-6.83
258.299	19.8
258.515	50.52
258.732	-10.92
258.948	42.32
259.165	32.08
259.381	95.57
259.597	54.61
259.814	27.99
260.03	30.04
260.246	-8.87
260.463	9.56
260.679	-0.68
260.895	40.28
261.112	46.42
261.328	17.75
261.544	56.66
261.761	60.76
261.977	91.48
262.193	-0.68
262.409	40.28
262.626	21.85
262.842	25.94
263.058	-37.55
263.274	48.47
263.49	64.85
263.707	38.23
263.923	36.18
264.139	48.47
264.355	60.76
264.571	85.33
264.787	77.14
265.004	64.85
265.22	38.23
265.436	-25.26
265.652	-2.73
265.868	66.9
266.084	52.56
266.3	56.66
266.516	-43.69
266.732	7.51
266.948	81.24
267.164	11.61
267.38	-33.45
267.596	66.9
267.812	71
268.028	3.41
268.244	48.47
268.46	105.81
268.676	23.89
268.892	73.04
269.108	42.32
269.324	-2.73
269.54	-0.68
269.756	111.96
269.972	42.32
270.188	73.04
270.403	54.61
270.619	81.24
270.835	50.52
271.051	73.04
271.267	23.89
271.483	44.37
271.698	58.71
271.914	73.04
272.13	54.61
272.346	17.75
272.562	48.47
272.777	1.37
272.993	52.56
273.209	-4.78
273.425	15.7
273.64	-8.87
273.856	62.8
274.072	11.61
274.287	85.33
274.503	27.99
274.719	-39.59
274.934	7.51
275.15	7.51
275.366	7.51
275.581	-29.35
275.797	-43.69
276.012	68.95
276.228	68.95
276.444	75.09
276.659	148.82
276.875	11.61
277.09	109.91
277.306	-23.21
277.521	-27.31
277.737	38.23
277.952	56.66
278.168	42.32
278.383	23.89
278.599	64.85
278.814	75.09
279.03	66.9
279.245	32.08
279.461	46.42
279.676	-0.68
279.892	21.85
280.107	-49.83
280.322	7.51
280.538	83.28
280.753	-4.78
280.969	89.43
281.184	-47.79
281.399	68.95
281.615	85.33
281.83	75.09
282.045	15.7
282.26	-6.83
282.476	25.94
282.691	83.28
282.906	-8.87
283.122	93.52
283.337	48.47
283.552	83.28
283.767	42.32
283.983	11.61
284.198	64.85
284.413	42.32
284.628	-49.83
284.843	25.94
285.058	-39.59
285.274	32.08
285.489	21.85
285.704	23.89
285.919	25.94
286.134	-23.21
286.349	34.13
286.564	17.75
286.779	46.42
286.995	23.89
287.21	11.61
287.425	9.56
287.64	-41.64
287.855	9.56
288.07	23.89
288.285	36.18
288.5	3.41
288.715	40.28
288.93	38.23
289.145	32.08
289.36	-10.92
289.575	9.56
289.79	48.47
290.004	101.72
290.219	25.94
290.434	64.85
290.649	-33.45
290.864	9.56
291.079	-0.68
291.294	54.61
291.509	7.51
291.724	7.51
291.938	99.67
292.153	93.52
292.368	32.08
292.583	58.71
292.798	73.04
293.012	42.32
293.227	83.28
293.442	83.28
293.657	5.46
293.871	46.42
294.086	77.14
294.301	81.24
294.516	52.56
294.73	25.94
294.945	-45.74
295.16	32.08
295.374	48.47
295.589	23.89
295.804	56.66
296.018	56.66
296.233	23.89
296.447	85.33
296.662	52.56
296.877	11.61
297.091	21.85
297.306	87.38
297.52	1.37
297.735	32.08
297.949	64.85
298.164	-8.87
298.378	19.8
298.593	48.47
298.807	60.76
299.022	93.52
299.236	62.8
299.451	-29.35
299.665	-8.87
299.88	11.61
300.094	38.23
300.309	46.42
300.523	38.23
300.737	42.32
300.952	19.8
301.166	85.33
301.381	21.85
301.595	34.13
301.809	3.41
302.024	42.32
302.238	5.46
302.452	56.66
302.667	68.95
302.881	25.94
303.095	13.65
303.309	13.65
303.524	1.37
303.738	23.89
303.952	68.95
304.166	73.04
304.381	-17.07
304.595	19.8
304.809	9.56
305.023	62.8
305.237	48.47
305.452	97.62
305.666	38.23
305.88	56.66
306.094	46.42
306.308	25.94
306.522	5.46
306.736	138.58
306.95	30.04
307.164	71
307.379	7.51
307.593	89.43
307.807	11.61
308.021	32.08
308.235	64.85
308.449	52.56
308.663	34.13
308.877	34.13
309.091	15.7
309.305	83.28
309.519	40.28
309.733	3.41
309.947	58.71
310.161	34.13
310.374	75.09
310.588	52.56
310.802	32.08
311.016	54.61
311.23	27.99
311.444	7.51
311.658	27.99
311.872	46.42
312.085	5.46
312.299	124.24
312.513	62.8
312.727	64.85
312.941	34.13
313.154	64.85
313.368	85.33
313.582	58.71
313.796	23.89
314.009	42.32
314.223	23.89
314.437	3.41
314.651	40.28
314.864	32.08
315.078	79.19
315.292	-6.83
315.505	7.51
315.719	25.94
315.933	23.89
316.146	-2.73
316.36	17.75
316.573	-2.73
316.787	40.28
317.001	5.46
317.214	11.61
317.428	68.95
317.641	34.13
317.855	48.47
318.068	15.7
318.282	-21.16
318.495	-8.87
318.709	83.28
318.922	101.72
319.136	19.8
319.349	42.32
319.563	81.24
319.776	68.95
319.99	-31.4
320.203	40.28
320.417	122.2
320.63	34.13
320.843	85.33
321.057	52.56
321.27	83.28
321.483	42.32
321.697	56.66
321.91	3.41
322.124	46.42
322.337	25.94
322.55	64.85
322.763	38.23
322.977	50.52
323.19	-8.87
323.403	-31.4
323.617	3.41
323.83	54.61
324.043	73.04
324.256	42.32
324.469	52.56
324.683	32.08
324.896	-8.87
325.109	17.75
325.322	9.56
325.535	64.85
325.748	-25.26
325.962	50.52
326.175	3.41
326.388	15.7
326.601	48.47
326.814	11.61
327.027	9.56
327.24	79.19
327.453	58.71
327.666	17.75
327.879	42.32
328.092	85.33
328.305	-8.87
328.518	46.42
328.731	87.38
328.944	15.7
329.157	17.75
329.37	109.91
329.583	56.66
329.796	-2.73
330.009	-6.83
330.222	71
330.435	-72.36
330.648	60.76
330.861	60.76
331.073	32.08
331.286	15.7
331.499	17.75
331.712	-10.92
331.925	73.04
332.138	1.37
332.35	64.85
332.563	32.08
332.776	60.76
332.989	34.13
333.202	48.47
333.414	36.18
333.627	40.28
333.84	83.28
334.053	23.89
334.265	46.42
334.478	-10.92
334.691	-37.55
334.903	97.62
335.116	68.95
335.329	11.61
335.541	-17.07
335.754	34.13
335.966	-0.68
336.179	111.96
336.392	23.89
336.604	17.75
336.817	116.05
337.029	21.85
337.242	15.7
337.454	60.76
337.667	21.85
337.88	34.13
338.092	42.32
338.305	1.37
338.517	54.61
338.729	66.9
338.942	17.75
339.154	7.51
339.367	9.56
339.579	64.85
339.792	124.24
340.004	36.18
340.217	66.9
340.429	34.13
340.641	-35.5
340.854	97.62
341.066	73.04
341.278	36.18
341.491	38.23
341.703	81.24
341.915	126.29
342.128	38.23
342.34	27.99
342.552	23.89
342.764	93.52
342.977	83.28
343.189	-6.83
343.401	52.56
343.613	81.24
343.826	40.28
344.038	-0.68
344.25	60.76
344.462	58.71
344.674	52.56
344.886	91.48
345.099	73.04
345.311	-2.73
345.523	58.71
345.735	19.8
345.947	66.9
346.159	52.56
346.371	34.13
346.583	-12.97
346.795	81.24
347.007	25.94
347.219	-0.68
347.431	27.99
347.643	3.41
347.855	85.33
348.067	52.56
348.279	44.37
348.491	21.85
348.703	85.33
348.915	56.66
349.127	-78.51
349.339	48.47
349.551	52.56
349.763	15.7
349.975	27.99
350.187	95.57
350.399	-4.78
350.61	66.9
350.822	1.37
351.034	38.23
351.246	27.99
351.458	23.89
351.669	40.28
351.881	44.37
352.093	64.85
352.305	56.66
352.517	-78.51
352.728	62.8
352.94	-23.21
353.152	89.43
353.363	62.8
353.575	38.23
353.787	138.58
353.999	44.37
354.21	-8.87
354.422	54.61
354.633	68.95
354.845	34.13
355.057	9.56
355.268	-15.02
355.48	54.61
355.692	46.42
355.903	34.13
356.115	93.52
356.326	-19.11
356.538	93.52
356.749	19.8
356.961	25.94
357.172	11.61
357.384	23.89
357.595	32.08
357.807	21.85
358.018	-17.07
358.23	25.94
358.441	64.85
358.653	71
358.864	48.47
359.075	32.08
359.287	30.04
359.498	56.66
359.709	109.91
359.921	42.32
360.132	3.41
360.344	52.56
360.555	48.47
360.766	-8.87
360.977	56.66
361.189	9.56
361.4	89.43
361.611	19.8
361.823	83.28
362.034	87.38
362.245	13.65
362.456	52.56
362.667	124.24
362.879	64.85
363.09	103.76
363.301	15.7
363.512	83.28
363.723	42.32
363.935	52.56
364.146	71
364.357	-31.4
364.568	13.65
364.779	34.13
364.99	7.51
365.201	50.52
365.412	50.52
365.623	36.18
365.834	7.51
366.045	62.8
366.256	-0.68
366.467	89.43
366.678	40.28
366.889	62.8
367.1	60.76
367.311	11.61
367.522	42.32
367.733	23.89
367.944	175.44
368.155	21.85
368.366	23.89
368.577	89.43
368.788	64.85
368.999	46.42
369.209	77.14
369.42	32.08
369.631	116.05
369.842	15.7
370.053	56.66
370.264	97.62
370.474	7.51
370.685	3.41
370.896	23.89
371.107	132.44
371.317	77.14
371.528	-6.83
371.739	27.99
371.95	126.29
372.16	40.28
372.371	89.43
372.582	34.13
372.792	73.04
373.003	42.32
373.214	32.08
373.424	71
373.635	46.42
373.846	73.04
374.056	-0.68
374.267	81.24
374.477	46.42
374.688	36.18
374.898	40.28
375.109	7.51
375.319	48.47
375.53	52.56
375.74	89.43
375.951	60.76
376.161	101.72
376.372	68.95
376.582	1.37
376.793	52.56
377.003	52.56
377.214	-10.92
377.424	91.48
377.635	27.99
377.845	15.7
378.055	101.72
378.266	19.8
378.476	40.28
378.686	15.7
378.897	40.28
379.107	48.47
379.317	68.95
379.528	42.32
379.738	99.67
379.948	19.8
380.158	77.14
380.369	27.99
380.579	17.75
380.789	38.23
380.999	46.42
381.21	48.47
381.42	66.9
381.63	-27.31
381.84	77.14
382.05	-58.03
382.261	60.76
382.471	44.37
382.681	34.13
382.891	81.24
383.101	40.28
383.311	81.24
383.521	81.24
383.731	36.18
383.941	130.39
384.151	87.38
384.361	-2.73
384.571	64.85
384.781	75.09
384.991	120.15
385.201	97.62
385.411	95.57
385.621	44.37
385.831	68.95
386.041	56.66
386.251	120.15
386.461	81.24
386.671	-15.02
386.881	50.52
387.091	23.89
387.301	64.85
387.511	19.8
387.72	30.04
387.93	34.13
388.14	32.08
388.35	7.51
388.56	73.04
388.769	64.85
388.979	60.76
389.189	15.7
389.399	62.8
389.609	105.81
389.818	60.76
390.028	23.89
390.238	44.37
390.447	89.43
390.657	68.95
390.867	97.62
391.076	85.33
391.286	17.75
391.496	107.86
391.705	15.7
391.915	23.89
392.125	81.24
392.334	42.32
392.544	83.28
392.753	114
392.963	3.41
393.172	85.33
393.382	64.85
393.591	148.82
393.801	3.41
394.01	50.52
394.22	27.99
394.429	122.2
394.639	83.28
394.848	103.76
395.058	97.62
395.267	116.05
395.477	56.66
395.686	75.09
395.895	83.28
396.105	79.19
396.314	25.94
396.524	54.61
396.733	111.96
396.942	64.85
397.152	15.7
397.361	91.48
397.57	71
397.78	52.56
397.989	99.67
398.198	66.9
398.407	52.56
398.617	56.66
398.826	42.32
399.035	122.2
399.244	81.24
399.453	42.32
399.663	87.38
399.872	81.24
400.081	130.39
400.29	114
400.499	75.09
400.708	107.86
400.917	34.13
401.127	56.66
401.336	66.9
401.545	122.2
401.754	-25.26
401.963	-10.92
402.172	50.52
402.381	91.48
402.59	58.71
402.799	111.96
403.008	36.18
403.217	142.68
403.426	157.01
403.635	114
403.844	91.48
404.053	85.33
404.262	120.15
404.471	73.04
404.68	66.9
404.888	114
405.097	165.2
405.306	66.9
405.515	68.95
405.724	83.28
405.933	36.18
406.142	122.2
406.35	75.09
406.559	105.81
406.768	154.96
406.977	75.09
407.185	161.11
407.394	75.09
407.603	175.44
407.812	144.72
408.02	177.49
408.229	87.38
408.438	114
408.646	161.11
408.855	128.34
409.064	99.67
409.272	118.1
409.481	177.49
409.69	171.35
409.898	157.01
410.107	150.87
410.315	200.02
410.524	148.82
410.733	224.59
410.941	52.56
411.15	257.36
411.358	234.83
411.567	302.42
411.775	281.94
411.984	294.22
412.192	253.27
412.401	208.21
412.609	245.07
412.818	265.55
413.026	318.8
413.234	281.94
413.443	243.03
413.651	314.7
413.86	353.62
414.068	267.6
414.276	355.66
414.485	386.38
414.693	312.66
414.901	410.96
415.11	281.94
415.318	367.95
415.526	337.23
415.734	306.51
415.943	396.62
416.151	511.31
416.359	413.01
416.567	488.78
416.776	449.87
416.984	449.87
417.192	482.64
417.4	572.75
417.608	562.51
417.817	537.93
418.025	585.04
418.233	634.19
418.441	576.84
418.649	621.9
418.857	677.19
419.065	750.92
419.273	703.82
419.481	687.43
419.689	791.88
419.897	785.74
420.105	853.32
420.313	908.62
420.521	881.99
420.729	804.17
420.937	933.19
421.145	1000.77
421.353	1021.25
421.561	1006.92
421.769	1135.94
421.977	1062.21
422.185	1094.98
422.393	1158.47
422.601	1160.52
422.809	1236.29
423.017	1260.87
423.224	1400.13
423.432	1359.17
423.64	1361.22
423.848	1391.94
424.056	1490.24
424.263	1539.39
424.471	1520.96
424.679	1563.97
424.887	1664.32
425.094	1703.23
425.302	1666.36
425.51	1695.04
425.718	1797.43
425.925	1822.01
426.133	1752.38
426.341	1977.66
426.548	1998.13
426.756	2176.31
426.964	2178.36
427.171	2250.03
427.379	2262.32
427.586	2237.75
427.794	2385.2
428.001	2465.07
428.209	2495.79
428.417	2524.46
428.624	2702.64
428.832	2653.48
429.039	2725.16
429.247	2678.06
429.454	3007.78
429.662	3104.04
429.869	3013.93
430.076	3210.53
430.284	2946.34
430.491	3169.57
430.699	3497.25
430.906	3448.1
431.114	3403.04
431.321	3595.55
431.528	3708.19
431.736	3812.64
431.943	4031.77
432.15	4027.67
432.358	3960.09
432.565	4226.32
432.772	4195.61
432.979	4461.84
433.187	4453.65
433.394	4447.51
433.601	4840.72
433.808	4723.98
434.016	4814.09
434.223	4930.83
434.43	5207.3
434.637	5156.1
434.844	5588.22
435.052	5584.13
435.259	5676.29
435.466	5504.26
435.673	5551.36
435.88	5799.16
436.087	6241.53
436.294	6243.57
436.501	6092.02
436.708	6300.92
436.915	6405.36
437.122	6720.75
437.329	6618.35
437.537	6847.72
437.743	6810.86
437.95	7036.14
438.157	7230.7
438.364	7613.67
438.571	7376.1
438.778	7603.43
438.985	8221.91
439.192	7947.48
439.399	8228.06
439.606	7929.05
439.813	8535.25
440.02	8875.21
440.227	8791.25
440.433	8670.42
440.64	8893.65
440.847	8957.13
441.054	9239.75
441.261	9682.11
441.467	9460.93
441.674	9936.06
441.881	10288.31
442.088	10169.53
442.294	10255.54
442.501	10382.52
442.708	10550.45
442.914	10874.03
443.121	11461.8
443.328	11146.41
443.534	11820.19
443.741	11760.8
443.948	11439.27
444.154	12139.68
444.361	12184.73
444.568	12131.48
444.774	12563.61
444.981	12573.85
445.187	12903.57
445.394	13458.57
445.6	13165.71
445.807	14478.46
446.013	13849.73
446.22	13835.39
446.426	14634.1
446.633	14689.4
446.839	15217.77
447.046	14550.14
447.252	15055.98
447.459	15402.09
447.665	15346.8
447.871	16034.91
448.078	16512.09
448.284	15832.16
448.491	16299.1
448.697	17032.27
448.903	17251.41
449.11	17458.25
449.316	17222.73
449.522	17314.89
449.728	17917
449.935	18111.55
450.141	17968.2
450.347	18553.91
450.553	17290.32
450.76	17878.08
450.966	18732.09
451.172	18334.78
451.378	18957.36
451.584	18361.41
451.791	18783.29
451.997	18598.97
452.203	19221.55
452.409	19264.56
452.615	19373.1
452.821	18170.94
453.027	18209.86
453.233	19072.05
453.44	18555.96
453.646	18410.56
453.852	18738.23
454.058	19115.06
454.264	18181.18
454.47	18916.4
454.676	18332.73
454.882	18889.78
455.088	17292.37
455.294	17673.29
455.5	17759.3
455.705	17931.33
455.911	17501.26
456.117	16917.59
456.323	16768.09
456.529	15670.37
456.735	16647.26
456.941	15950.95
457.147	15629.41
457.352	15584.36
457.558	14963.82
457.764	15121.52
457.97	14877.81
458.176	14507.13
458.381	14543.99
458.587	14036.1
458.793	13698.18
458.999	13171.85
459.204	14351.48
459.41	13814.91
459.616	12723.35
459.821	12936.34
460.027	12797.07
460.233	12651.67
460.438	12057.76
460.644	12027.04
460.85	11375.78
461.055	11326.63
461.261	11398.31
461.466	10529.97
461.672	10165.43
461.878	10833.07
462.083	10126.52
462.289	10036.41
462.494	9915.58
462.7	9616.58
462.905	9202.89
463.111	9485.51
463.316	9637.06
463.522	9403.59
463.727	9307.34
463.932	9323.72
464.138	9247.94
464.343	9307.34
464.549	9118.92
464.754	9342.15
464.959	9211.08
465.165	9290.95
465.37	8879.31
465.575	8670.42
465.781	8846.54
465.986	8989.9
466.191	8715.47
466.397	8578.26
466.602	8021.21
466.807	8422.61
467.012	8545.49
467.218	8439
467.423	8232.15
467.628	8160.47
467.833	8768.72
468.038	8346.84
468.244	8146.14
468.449	8535.25
468.654	8236.25
468.859	7875.81
469.064	8109.27
469.269	7814.37
469.474	7699.68
469.679	7888.09
469.885	7658.72
470.09	7920.86
470.295	7851.23
470.5	7623.9
470.705	7517.41
470.91	7558.37
471.115	7322.85
471.32	7505.12
471.525	7378.15
471.73	7433.44
471.935	7251.17
472.139	7052.52
472.344	7038.19
472.549	6995.18
472.754	6933.74
472.959	6898.92
473.164	6655.22
473.369	6534.39
473.574	6819.05
473.778	6569.2
473.983	6583.54
474.188	6565.11
474.393	6374.64
474.598	6370.55
474.802	6360.31
475.007	6202.61
475.212	6438.13
475.417	6143.22
475.621	6118.65
475.826	6130.94
476.031	5979.39
476.235	5907.71
476.44	5938.43
476.645	5647.62
476.849	6053.11
477.054	5733.63
477.259	5612.8
477.463	5653.76
477.668	5600.51
477.872	5711.1
478.077	5692.67
478.282	5403.91
478.486	5434.63
478.691	5455.11
478.895	5508.35
479.1	5342.47
479.304	5416.19
479.509	5086.47
479.713	5207.3
479.918	5084.42
480.122	5047.56
480.326	5213.45
480.531	5022.98
480.735	5022.98
480.94	5246.21
481.144	5143.81
481.348	5045.51
481.553	4936.97
481.757	4975.88
481.961	5002.51
482.166	5059.85
482.37	4988.17
482.574	4934.92
482.778	4924.68
482.983	5074.18
483.187	4879.63
483.391	4982.03
483.595	4936.97
483.8	4881.67
484.004	4922.63
484.208	4984.07
484.412	4914.44
484.616	4855.05
484.821	4945.16
485.025	4820.24
485.229	4969.74
485.433	4900.11
485.637	4934.92
485.841	4979.98
486.045	4824.33
486.249	4920.59
486.453	4773.13
486.657	4939.02
486.861	5020.94
487.065	4791.56
487.269	4984.07
487.473	5000.46
487.677	4900.11
487.881	4957.45
488.085	4857.1
488.289	4891.91
488.493	4891.91
488.697	4939.02
488.901	5014.79
489.105	4979.98
489.309	4865.29
489.512	5010.7
489.716	4939.02
489.92	5012.74
490.124	4883.72
490.328	5084.42
490.531	5188.87
490.735	5082.38
490.939	5080.33
491.143	5020.94
491.346	4951.31
491.55	5149.96
491.754	5207.3
491.958	5168.39
492.161	5238.02
492.365	5186.82
492.569	5195.01
492.772	5209.35
492.976	5420.29
493.18	5240.07
493.383	5367.04
493.587	5371.14
493.79	5373.19
493.994	5387.52
494.197	5403.91
494.401	5453.06
494.605	5549.31
494.808	5516.55
495.012	5694.72
495.215	5651.71
495.419	5829.88
495.622	5729.53
495.825	5817.6
496.029	5938.43
496.232	5946.62
496.436	5876.99
496.639	6118.65
496.843	5948.67
497.046	6182.14
497.249	6102.26
497.453	6245.62
497.656	6372.6
497.859	6391.03
498.063	6458.61
498.266	6577.39
498.469	6593.78
498.673	6599.92
498.876	6757.61
499.079	6728.94
499.282	6802.67
499.485	7007.47
499.689	7077.1
499.892	7023.85
500.095	6923.5
500.298	7306.47
500.501	7251.17
500.705	7476.45
500.908	7453.92
501.111	7771.36
501.314	7691.49
501.517	7808.22
501.72	7912.67
501.923	7742.69
502.126	8035.55
502.329	8223.96
502.532	8264.92
502.735	8154.33
502.938	8432.85
503.141	8557.78
503.344	8781.01
503.547	8781.01
503.75	8946.89
503.953	9080.01
504.156	8948.94
504.359	9133.26
504.562	9176.27
504.765	9381.06
504.968	9442.5
505.17	9651.39
505.373	9671.87
505.576	9915.58
505.779	9995.45
505.982	9985.21
506.185	10304.7
506.387	10222.78
506.59	10296.5
506.793	10785.97
506.996	10529.97
507.198	10851.5
507.401	10771.63
507.604	11099.31
507.807	11353.26
508.009	11357.35
508.212	11515.05
508.415	11758.75
508.617	11586.72
508.82	11570.34
509.022	11771.04
509.225	12055.71
509.428	12340.38
509.63	12491.93
509.833	12569.75
510.035	12463.26
510.238	12926.1
510.44	12848.27
510.643	13057.17
510.845	13309.07
511.048	13364.36
511.25	13540.49
511.453	13460.62
511.655	14095.49
511.858	14070.91
512.06	14197.88
512.262	14568.57
512.465	14322.81
512.667	14693.49
512.87	14726.26
513.072	14943.35
513.274	15293.55
513.477	15289.45
513.679	15576.17
513.881	15768.68
514.084	15819.88
514.286	15793.25
514.488	16067.68
514.69	16561.24
514.893	16608.34
515.095	16673.88
515.297	16880.72
515.499	16817.24
515.701	17308.75
515.904	17699.91
516.106	17765.45
516.308	17765.45
516.51	18099.27
516.712	18240.57
516.914	18336.83
517.116	18578.49
517.318	18793.53
517.52	19070
517.722	18916.4
517.925	19489.84
518.127	19448.88
518.329	19784.74
518.531	19700.78
518.733	20106.27
518.935	20356.13
519.136	20741.14
519.338	20902.93
519.54	20900.89
519.742	20890.65
519.944	21046.29
520.146	21492.75
520.348	21584.91
520.55	21732.36
520.752	21738.51
520.954	22289.41
521.155	22117.38
521.357	22774.78
521.559	22817.79
521.761	23133.17
521.963	23053.3
522.164	23600.11
522.366	23495.66
522.568	23944.17
522.77	23862.25
522.971	24312.8
523.173	24013.8
523.375	24429.54
523.576	24488.93
523.778	24161.25
523.98	25013.21
524.181	25193.43
524.383	25304.02
524.584	25340.88
524.786	25680.85
524.988	25439.19
525.189	25754.57
525.391	26000.33
525.592	25945.03
525.794	26397.63
525.995	26201.03
526.197	26241.99
526.398	26598.34
526.6	26891.19
526.801	26825.66
527.003	27102.14
527.204	26983.35
527.406	27370.42
527.607	27577.26
527.808	27358.13
528.01	27308.98
528.211	27317.17
528.412	27851.69
528.614	27681.71
528.815	27530.16
529.016	28185.51
529.218	27737.01
529.419	28093.35
529.62	28152.74
529.822	28109.74
530.023	27880.36
530.224	28302.25
530.425	28079.02
530.626	28287.91
530.828	28279.72
531.029	29086.62
531.23	28412.84
531.431	28591.01
531.632	28818.33
531.833	28736.41
532.035	29082.52
532.236	28933.02
532.437	29289.37
532.638	29082.52
532.839	29244.31
533.04	29322.13
533.241	28636.06
533.442	29604.75
533.643	29152.15
533.844	28935.07
534.045	29332.37
534.246	28818.33
534.447	29084.57
534.648	29156.25
534.849	29275.03
535.05	28896.16
535.251	29096.86
535.451	29135.77
535.652	29246.36
535.853	29281.17
536.054	29301.65
536.255	29385.62
536.456	29121.43
536.657	29922.19
536.857	29309.85
537.058	28947.36
537.259	29381.52
537.46	29475.73
537.66	29215.64
537.861	29553.55
538.062	29084.57
538.263	29463.44
538.463	29008.79
538.664	29227.93
538.865	29422.48
539.065	29758.35
539.266	29260.69
539.466	29412.24
539.667	28877.72
539.868	29858.7
540.068	29227.93
540.269	29213.59
540.469	29143.96
540.67	29051.8
540.87	29379.48
541.071	29555.6
541.271	29500.31
541.472	29209.5
541.672	28801.95
541.873	29232.02
542.073	29027.23
542.274	29434.77
542.474	29582.23
542.675	28885.92
542.875	29510.55
543.075	29154.2
543.276	28586.91
543.476	29252.5
543.676	29080.47
543.877	29754.26
544.077	29389.72
544.277	29119.38
544.478	29225.88
544.678	29459.35
544.878	29399.96
545.078	29266.84
545.279	28955.55
545.479	29064.09
545.679	29500.31
545.879	29016.99
546.079	29219.74
546.28	28822.43
546.48	29150.1
546.68	29244.31
546.88	29074.33
547.08	29404.05
547.28	29199.26
547.48	29156.25
547.68	29537.17
547.88	29070.23
548.081	29311.89
548.281	29150.1
548.481	29064.09
548.681	29363.09
548.881	29148.06
549.081	29180.82
549.28	28881.82
549.48	29291.41
549.68	29463.44
549.88	29535.12
550.08	28885.92
550.28	29191.06
550.48	29225.88
550.68	29510.55
550.88	28810.14
551.08	29088.67
551.279	29168.54
551.479	29096.86
551.679	29473.68
551.879	28926.88
552.079	29305.75
552.278	28711.84
552.478	29125.53
552.678	29256.6
552.878	29139.86
553.077	28976.03
553.277	28875.68
553.477	29049.75
553.676	28804
553.876	28887.96
554.076	29170.58
554.275	28724.13
554.475	28699.55
554.674	28545.95
554.874	28916.64
555.074	28736.41
555.273	28758.94
555.473	28875.68
555.672	29080.47
555.872	28840.86
556.071	28951.45
556.271	28838.81
556.47	28416.93
556.67	28103.59
556.869	28230.57
557.068	28652.45
557.268	28287.91
557.467	28648.35
557.667	28517.28
557.866	28842.91
558.065	27962.28
558.265	28124.07
558.464	28058.54
558.663	28384.16
558.863	27724.72
559.062	28552.1
559.261	28154.79
559.461	28404.64
559.66	27941.8
559.859	28097.45
560.058	27755.44
560.258	27544.5
560.457	27481.01
560.656	28232.61
560.855	27949.99
561.054	28076.97
561.253	27556.78
561.453	27370.42
561.652	27849.64
561.851	27849.64
562.05	27456.43
562.249	27427.76
562.448	27988.91
562.647	27321.27
562.846	27560.88
563.045	27421.62
563.244	27151.29
563.443	27450.29
563.642	26911.67
563.841	26987.45
564.04	27186.1
564.239	27268.02
564.438	26921.91
564.637	26948.54
564.836	27364.28
565.035	26764.22
565.234	26844.09
565.432	26893.24
565.631	26852.28
565.83	27007.93
566.029	26540.99
566.228	26559.42
566.427	26325.96
566.625	26274.76
566.824	26151.88
567.023	26426.31
567.222	25889.74
567.42	26213.32
567.619	26000.33
567.818	26121.16
568.016	26006.47
568.215	26457.03
568.414	25938.89
568.612	26112.97
568.811	25725.9
569.01	25893.83
569.208	25422.8
569.407	25969.61
569.605	25433.04
569.804	25861.07
570.002	25586.64
570.201	25435.09
570.4	25641.93
570.598	25058.26
570.797	25041.88
570.995	25244.63
571.193	24916.95
571.392	25146.33
571.59	24587.23
571.789	25265.11
571.987	24816.6
572.186	24701.92
572.384	24318.95
572.582	24761.31
572.781	24835.03
572.979	24224.74
573.177	24527.84
573.376	24327.14
573.574	24437.73
573.772	24263.65
573.971	24331.23
574.169	24132.58
574.367	23964.65
574.565	24099.81
574.763	23661.55
574.962	23845.87
575.16	23608.3
575.358	23821.29
575.556	22965.24
575.754	23514.09
575.952	23278.58
576.151	23534.57
576.349	23098.36
576.547	22918.14
576.745	23108.6
576.943	23225.33
577.141	22719.48
577.339	23352.3
577.537	22694.91
577.735	22711.29
577.933	22795.26
578.131	22995.96
578.329	22617.08
578.527	22488.06
578.725	22488.06
578.923	22610.94
579.121	22469.63
579.319	22234.11
579.516	22502.4
579.714	22207.49
579.912	22074.37
580.11	22336.51
580.308	21861.38
580.506	21808.14
580.704	21740.55
580.901	21914.63
581.099	21918.73
581.297	21502.99
581.495	21453.84
581.692	21572.62
581.89	21425.17
582.088	21433.36
582.285	21629.96
582.483	21349.39
582.681	21265.42
582.878	21285.9
583.076	21167.12
583.274	21203.99
583.471	20872.21
583.669	20821.02
583.866	20880.41
584.064	20700.19
584.262	20683.8
584.459	20628.51
584.657	20429.85
584.854	20759.58
585.052	20202.53
585.249	20466.72
585.447	20192.29
585.644	19930.15
585.841	20423.71
586.039	20427.81
586.236	20106.27
586.434	19891.24
586.631	20204.58
586.828	19887.14
587.026	20036.64
587.223	19885.09
587.42	19962.92
587.618	19758.12
587.815	19676.2
588.012	19604.52
588.21	19385.39
588.407	19670.06
588.604	19520.56
588.801	19176.5
588.999	19321.9
589.196	19211.31
589.393	19311.66
589.59	19164.21
589.787	18936.88
589.984	19004.47
590.182	18842.68
590.379	19182.64
590.576	19006.52
590.773	18820.15
590.97	18578.49
591.167	18656.31
591.364	18377.79
591.561	18844.73
591.758	18334.78
591.955	18641.98
592.152	18543.67
592.349	18353.21
592.546	18445.37
592.743	18336.83
592.94	18046.02
593.137	17998.91
593.334	17962.05
593.531	17845.32
593.727	17947.72
593.924	17853.51
594.121	18048.07
594.318	17759.3
594.515	17626.18
594.712	17742.92
594.908	17370.19
595.105	17773.64
595.302	17300.56
595.499	17833.03
595.696	17425.48
595.892	17214.54
596.089	17417.29
596.286	17501.26
596.482	17425.48
596.679	17263.69
596.876	17298.51
597.072	17200.21
597.269	17165.39
597.466	16936.02
597.662	16831.57
597.859	16835.67
598.055	17015.89
598.252	16852.05
598.448	16993.36
598.645	16702.55
598.841	16616.54
599.038	16542.81
599.234	16583.77
599.431	16649.3
599.627	16581.72
599.824	16436.31
600.02	16272.48
600.217	16395.36
600.413	16311.39
600.609	16409.69
600.806	16155.74
601.002	16120.93
601.198	16073.82
601.395	15907.94
601.591	15928.42
601.787	15783.01
601.984	15805.54
602.18	16053.34
602.376	15535.21
602.572	15862.88
602.769	15635.56
602.965	15506.54
603.161	15576.17
603.357	15432.81
603.553	15500.39
603.75	15121.52
603.946	15420.52
604.142	15139.95
604.338	15174.77
604.534	15371.37
604.73	14953.59
604.926	14978.16
605.122	15191.15
605.318	14748.79
605.514	14974.06
605.71	14736.5
605.906	14845.04
606.102	15015.02
606.298	14720.12
606.494	14750.84
606.69	14842.99
606.886	14750.84
607.082	14478.46
607.278	14666.87
607.474	14195.84
607.67	14498.94
607.866	14345.34
608.062	14462.07
608.257	14423.16
608.453	14058.62
608.649	14324.86
608.845	14085.25
609.041	14148.73
609.236	14064.77
609.432	14048.38
609.628	14052.48
609.824	14097.53
610.019	13888.64
610.215	13726.85
610.411	14107.77
610.606	13675.65
610.802	13845.63
610.998	13671.56
611.193	13599.88
611.389	13651.08
611.584	13585.54
611.78	13556.87
611.976	13673.6
612.171	13280.39
612.367	13583.49
612.562	13333.64
612.758	13180.04
612.953	13384.84
613.149	13390.98
613.344	12911.76
613.539	13274.25
613.735	13044.88
613.93	13128.84
614.126	13118.61
614.321	13331.59
614.517	13163.66
614.712	12745.87
614.907	12827.79
615.103	13180.04
615.298	12829.84
615.493	12934.29
615.688	12778.64
615.884	12743.83
616.079	12864.66
616.274	12954.77
616.47	12762.26
616.665	12868.75
616.86	12672.15
617.055	12637.33
617.25	12774.55
617.445	12690.58
617.641	12336.28
617.836	12424.34
618.031	12219.55
618.226	12434.58
618.421	12332.19
618.616	12334.23
618.811	12455.06
619.006	12199.07
619.201	11902.11
619.396	12221.59
619.591	12010.65
619.786	12174.49
619.981	11967.65
620.176	12172.44
620.371	11961.5
620.566	11895.97
620.761	11617.44
620.956	11590.82
621.151	11723.94
621.346	11381.93
621.541	11375.78
621.735	11670.69
621.93	11394.22
622.125	11168.94
622.32	11320.49
622.515	11127.98
622.709	11146.41
622.904	11072.68
623.099	11052.2
623.294	11199.66
623.488	10845.36
623.683	10808.5
623.878	10663.09
624.072	10652.85
624.267	10900.65
624.462	10585.27
624.656	10626.23
624.851	10675.38
625.046	10489.01
625.24	10372.28
625.435	10364.09
625.629	10347.7
625.824	10196.15
626.018	10185.91
626.213	10130.62
626.407	10060.99
626.602	9993.4
626.796	9915.58
626.991	9852.09
627.185	9880.77
627.38	10015.93
627.574	9759.94
627.768	9604.29
627.963	9700.55
628.157	9526.47
628.352	9653.44
628.546	9514.18
628.74	9366.73
628.935	9213.13
629.129	9479.36
629.323	9184.46
629.517	9028.81
629.712	9065.67
629.906	9018.57
630.1	8944.84
630.294	8877.26
630.489	9049.29
630.683	9106.63
630.877	9018.57
631.071	8883.41
631.265	8957.13
631.459	8897.74
631.653	8672.46
631.848	8744.14
632.042	8778.96
632.236	8598.74
632.43	8486.1
632.624	8750.29
632.818	8443.09
633.012	8428.76
633.206	8338.65
633.4	8422.61
633.594	8273.11
633.788	8203.48
633.982	8146.14
634.176	8133.85
634.369	8121.56
634.563	7941.34
634.757	8117.47
634.951	8053.98
635.145	8015.07
635.339	7998.68
635.533	7951.58
635.726	7791.84
635.92	7761.12
636.114	7711.97
636.308	7646.43
636.501	7568.61
636.695	7451.88
636.889	7593.19
637.083	7484.64
637.276	7453.92
637.47	7431.4
637.664	7359.72
637.857	7474.4
638.051	7257.32
638.244	7228.65
638.438	7132.39
638.632	7267.56
638.825	7142.63
639.019	7308.52
639.212	7138.54
639.406	7101.67
639.599	7183.59
639.793	6896.88
639.986	6690.03
640.18	6970.6
640.373	6878.44
640.567	6730.99
640.76	6651.12
640.954	6628.59
641.147	6733.04
641.34	6735.09
641.534	6542.58
641.727	6487.28
641.92	6579.44
642.114	6540.53
642.307	6311.16
642.5	6380.79
642.694	6249.72
642.887	6366.45
643.08	6491.38
643.273	6141.18
643.467	6077.69
643.66	6169.85
643.853	6184.18
644.046	6126.84
644.239	6046.97
644.432	6145.27
644.626	5975.29
644.819	5848.32
645.012	5897.47
645.205	5768.45
645.398	5864.7
645.591	5887.23
645.784	5922.04
645.977	5586.18
646.17	5745.92
646.363	5735.68
646.556	5514.5
646.749	5629.18
646.942	5569.79
647.135	5459.2
647.328	5512.45
647.521	5453.06
647.714	5479.68
647.907	5459.2
648.099	5313.8
648.292	5459.2
648.485	5360.9
648.678	5457.15
648.871	5192.97
649.064	5278.98
649.256	5281.03
649.449	5195.01
649.642	5229.83
649.835	5051.66
650.027	5135.62
650.22	5117.19
650.413	4998.41
650.605	5096.71
650.798	4996.36
650.991	4922.63
651.183	4830.48
651.376	4826.38
651.568	4887.82
651.761	4758.8
651.954	4775.18
652.146	4695.31
652.339	4650.25
652.531	4719.89
652.724	4637.97
652.916	4670.73
653.109	4582.67
653.301	4621.58
653.494	4603.15
653.686	4541.71
653.879	4554
654.071	4644.11
654.263	4439.31
654.456	4359.44
654.648	4549.9
654.84	4367.63
655.033	4300.05
655.225	4359.44
655.417	4334.87
655.61	4252.95
655.802	4265.24
655.994	4128.02
656.186	4226.32
656.379	4074.78
656.571	4150.55
656.763	4103.45
656.955	4148.5
657.148	4183.32
657.34	4105.49
657.532	3947.8
657.724	4005.14
657.916	4013.34
658.108	4039.96
658.3	3892.51
658.492	4054.3
658.684	3919.13
658.876	3951.9
659.068	3800.35
659.26	3788.06
659.452	3798.3
659.644	3745.05
659.836	3753.24
660.028	3777.82
660.22	3609.89
660.412	3597.6
660.604	3648.8
660.796	3710.24
660.988	3611.93
661.18	3376.42
661.372	3630.37
661.563	3546.4
661.755	3573.02
661.947	3427.62
662.139	3446.05
662.331	3331.36
662.522	3321.12
662.714	3382.56
662.906	3329.31
663.097	3259.68
663.289	3398.95
663.481	3243.3
663.673	3278.12
663.864	3241.25
664.056	3263.78
664.247	3181.86
664.439	3165.48
664.631	3239.2
664.822	3190.05
665.014	3083.56
665.205	3106.09
665.397	3079.46
665.588	3204.39
665.78	3126.57
665.971	3132.71
666.163	3140.9
666.354	3048.74
666.546	3054.89
666.737	2970.92
666.929	2970.92
667.12	3114.28
667.311	2903.34
667.503	2893.1
667.694	2895.15
667.885	2891.05
668.077	2815.27
668.268	2743.6
668.459	2899.24
668.651	2790.7
668.842	2835.75
669.033	2776.36
669.224	2776.36
669.416	2837.8
669.607	2723.12
669.798	2735.4
669.989	2815.27
670.18	2704.68
670.371	2776.36
670.563	2800.94
670.754	2731.31
670.945	2678.06
671.136	2700.59
671.327	2753.84
671.518	2610.48
671.709	2655.53
671.9	2596.14
672.091	2594.09
672.282	2596.14
672.473	2639.15
672.664	2579.76
672.855	2579.76
673.046	2542.89
673.237	2530.61
673.428	2565.42
673.619	2581.81
673.809	2395.44
674	2469.17
674.191	2438.45
674.382	2563.37
674.573	2542.89
674.764	2436.4
674.954	2491.7
675.145	2475.31
675.336	2374.96
675.527	2366.77
675.717	2319.67
675.908	2391.34
676.099	2436.4
676.289	2440.5
676.48	2444.59
676.671	2452.78
676.861	2372.91
677.052	2250.03
677.243	2387.25
677.433	2325.81
677.624	2227.51
677.814	2325.81
678.005	2293.04
678.195	2366.77
678.386	2295.09
678.576	2268.47
678.767	2250.03
678.957	2323.76
679.148	2290.99
679.338	2217.27
679.529	2268.47
679.719	2336.05
679.909	2295.09
680.1	2323.76
680.29	2231.6
680.481	2227.51
680.671	2303.28
680.861	2211.12
681.052	2168.12
681.242	2202.93
681.432	2256.18
681.622	2290.99
681.813	2305.33
682.003	2338.1
682.193	2221.36
682.383	2164.02
682.573	2178.36
682.764	2139.44
682.954	2202.93
683.144	2147.64
683.334	2182.45
683.524	2090.29
683.714	2161.97
683.904	2157.88
684.094	2174.26
684.284	2272.56
684.474	2116.92
684.664	2239.8
684.854	2192.69
685.044	2143.54
685.234	1989.94
685.424	2057.53
685.614	2196.79
685.804	2137.4
685.994	2030.9
686.184	2100.53
686.374	2131.25
686.564	2129.2
686.753	2051.38
686.943	2096.44
687.133	2075.96
687.323	2166.07
687.513	2108.73
687.702	2223.41
687.892	2143.54
688.082	2127.16
688.272	2135.35
688.461	2045.24
688.651	2047.29
688.841	2170.16
689.03	1967.42
689.22	2039.09
689.41	2004.28
689.599	2004.28
689.789	2055.48
689.979	2145.59
690.168	2041.14
690.358	1987.89
690.547	2051.38
690.737	2067.77
690.926	1940.79
691.116	2014.52
691.305	1996.09
691.495	2035
691.684	2055.48
691.874	2006.33
692.063	2145.59
692.252	2047.29
692.442	2133.3
692.631	2004.28
692.82	2037.05
693.01	2026.81
693.199	2084.15
693.388	1959.22
693.578	1942.84
693.767	2049.33
693.956	2065.72
694.146	2053.43
694.335	2016.57
694.524	1916.22
694.713	1940.79
694.902	1862.97
695.092	2104.63
695.281	2049.33
695.47	1961.27
695.659	1934.65
695.848	1961.27
696.037	2065.72
696.226	1961.27
696.415	2012.47
696.604	1975.61
696.793	2032.95
696.982	2051.38
697.171	1991.99
697.36	2006.33
697.549	2002.23
697.738	1987.89
697.927	1926.46
698.116	2045.24
698.305	2045.24
698.494	2059.57
698.683	2041.14
698.872	2014.52
699.061	1967.42
699.25	1996.09
699.438	1987.89
699.627	2043.19
699.816	1971.51
700.005	1969.46
700.193	1953.08
700.382	1932.6
700.571	2026.81
700.76	1994.04
700.948	1989.94
701.137	1965.37
701.326	2049.33
701.514	1895.74
701.703	2061.62
701.892	1887.54
702.08	1983.8
702.269	2045.24
702.457	1918.26
702.646	2104.63
702.834	1936.7
703.023	1885.5
703.212	2010.42
703.4	1967.42
703.589	1897.78
703.777	1926.46
703.965	1983.8
704.154	1994.04
704.342	1926.46
704.531	1946.94
704.719	1817.91
704.907	2039.09
705.096	1948.98
705.284	1858.87
705.472	1895.74
705.661	1797.43
705.849	1953.08
706.037	1869.11
706.226	1844.54
706.414	1938.74
706.602	1867.06
706.79	1822.01
706.979	1803.58
707.167	1834.3
707.355	1891.64
707.543	1860.92
707.731	1762.62
707.919	1854.78
708.107	1811.77
708.296	1897.78
708.484	1877.3
708.672	1746.23
708.86	1822.01
709.048	1797.43
709.236	1756.47
709.424	1744.19
709.612	1805.63
709.8	1776.95
709.988	1684.8
710.176	1725.75
710.364	1803.58
710.551	1688.89
710.739	1756.47
710.927	1738.04
711.115	1670.46
711.303	1783.1
711.491	1662.27
711.679	1756.47
711.866	1695.04
712.054	1707.32
712.242	1711.42
712.43	1703.23
712.617	1688.89
712.805	1674.56
712.993	1752.38
713.181	1570.11
713.368	1604.92
713.556	1609.02
713.744	1576.25
713.931	1613.12
714.119	1559.87
714.306	1625.4
714.494	1692.99
714.682	1598.78
714.869	1621.31
715.057	1574.21
715.244	1641.79
715.432	1578.3
715.619	1621.31
715.807	1637.69
715.994	1457.47
716.182	1570.11
716.369	1475.9
716.556	1633.6
716.744	1627.45
716.931	1518.91
717.119	1525.05
717.306	1527.1
717.493	1551.68
717.681	1551.68
717.868	1512.77
718.055	1559.87
718.242	1572.16
718.43	1572.16
718.617	1572.16
718.804	1465.66
718.991	1506.62
719.179	1490.24
719.366	1473.85
719.553	1506.62
719.74	1396.03
719.927	1457.47
720.114	1498.43
720.301	1434.94
720.488	1402.18
720.676	1285.44
720.863	1449.28
721.05	1557.82
721.237	1361.22
721.424	1414.46
721.611	1418.56
721.798	1330.5
721.985	1314.11
722.172	1461.57
722.358	1400.13
722.545	1260.87
722.732	1391.94
722.919	1324.35
723.106	1398.08
723.293	1377.6
723.48	1348.93
723.667	1436.99
723.853	1301.83
724.04	1291.59
724.227	1301.83
724.414	1301.83
724.6	1303.87
724.787	1398.08
724.974	1367.36
725.161	1340.74
725.347	1262.91
725.534	1305.92
725.72	1267.01
725.907	1205.57
726.094	1318.21
726.28	1224
726.467	1260.87
726.653	1285.44
726.84	1293.63
727.027	1281.35
727.213	1264.96
727.4	1297.73
727.586	1301.83
727.773	1264.96
727.959	1275.2
728.145	1369.41
728.332	1219.91
728.518	1181
728.705	1285.44
728.891	1217.86
729.077	1238.34
729.264	1211.71
729.45	1221.95
729.636	1219.91
729.823	1187.14
730.009	1215.81
730.195	1244.48
730.382	1158.47
730.568	1191.24
730.754	1137.99
730.94	1072.45
731.126	1195.33
731.313	1156.42
731.499	1203.52
731.685	1170.76
731.871	1162.56
732.057	1254.72
732.243	1164.61
732.429	1207.62
732.615	1146.18
732.801	1176.9
732.987	1203.52
733.173	1121.6
733.359	1084.74
733.545	1121.6
733.731	1047.88
733.917	1117.51
734.103	1060.17
734.289	1113.41
734.475	1056.07
734.661	1236.29
734.847	1078.6
735.033	1013.06
735.219	1047.88
735.404	1129.8
735.59	1078.6
735.776	941.38
735.962	1127.75
736.148	1123.65
736.333	1103.17
736.519	1119.56
736.705	1113.41
736.89	1068.36
737.076	1142.08
737.262	1068.36
737.447	957.77
737.633	1023.3
737.819	1084.74
738.004	1068.36
738.19	1056.07
738.375	945.48
738.561	1039.69
738.747	949.57
738.932	918.86
739.118	1090.88
739.303	1027.4
739.489	1023.3
739.674	1025.35
739.859	1023.3
740.045	925
740.23	902.47
740.416	992.58
740.601	941.38
740.786	908.62
740.972	925
741.157	918.86
741.342	970.05
741.528	918.86
741.713	1047.88
741.898	941.38
742.084	955.72
742.269	892.23
742.454	939.33
742.639	875.85
742.824	877.9
743.01	849.22
743.195	1011.01
743.38	941.38
743.565	957.77
743.75	910.66
743.935	904.52
744.12	853.32
744.305	884.04
744.49	965.96
744.675	871.75
744.86	865.61
745.045	943.43
745.23	834.89
745.415	791.88
745.6	970.05
745.785	910.66
745.97	859.46
746.155	851.27
746.34	779.59
746.525	818.5
746.71	904.52
746.895	857.42
747.079	830.79
747.264	810.31
747.449	757.07
747.634	769.35
747.819	847.18
748.003	705.87
748.188	793.93
748.373	802.12
748.557	791.88
748.742	818.5
748.927	793.93
749.111	734.54
749.296	791.88
749.481	832.84
749.665	787.79
749.85	812.36
750.034	763.21
750.219	712.01
750.404	701.77
750.588	769.35
750.773	705.87
750.957	714.06
751.141	683.34
751.326	798.03
751.51	652.62
751.695	734.54
751.879	732.49
752.064	695.63
752.248	613.71
752.432	650.57
752.617	712.01
752.801	769.35
752.985	652.62
753.17	730.44
753.354	744.78
753.538	634.19
753.722	695.63
753.907	681.29
754.091	650.57
754.275	697.67
754.459	574.8
754.643	656.72
754.828	671.05
755.012	730.44
755.196	664.91
755.38	630.09
755.564	552.27
755.748	685.39
755.932	613.71
756.116	644.43
756.3	570.7
756.484	589.13
756.668	595.28
756.852	533.84
757.036	548.17
757.22	568.65
757.404	576.84
757.588	589.13
757.772	564.56
757.956	605.52
758.14	648.52
758.323	552.27
758.507	621.9
758.691	568.65
758.875	589.13
759.059	566.6
759.242	558.41
759.426	523.6
759.61	505.17
759.794	486.73
759.977	564.56
760.161	548.17
760.345	511.31
760.528	589.13
760.712	580.94
760.895	537.93
761.079	560.46
761.263	539.98
761.446	462.16
761.63	486.73
761.813	501.07
761.997	476.49
762.18	453.97
762.364	496.97
762.547	404.82
762.731	474.45
762.914	525.65
763.098	472.4
763.281	468.3
763.464	468.3
763.648	441.68
763.831	499.02
764.015	474.45
764.198	447.82
764.381	499.02
764.564	490.83
764.748	482.64
764.931	425.29
765.114	503.12
765.297	519.5
765.481	460.11
765.664	410.96
765.847	417.1
766.03	433.49
766.213	355.66
766.397	515.41
766.58	449.87
766.763	451.92
766.946	468.3
767.129	449.87
767.312	388.43
767.495	464.21
767.678	488.78
767.861	451.92
768.044	388.43
768.227	441.68
768.41	388.43
768.593	474.45
768.776	427.34
768.959	470.35
769.142	515.41
769.324	437.58
769.507	482.64
769.69	466.25
769.873	413.01
770.056	408.91
770.239	408.91
770.421	386.38
770.604	441.68
770.787	443.73
770.97	370
771.152	376.14
771.335	435.53
771.518	425.29
771.7	417.1
771.883	476.49
772.066	400.72
772.248	398.67
772.431	433.49
772.613	425.29
772.796	406.86
772.978	406.86
773.161	376.14
773.343	359.76
773.526	400.72
773.708	376.14
773.891	361.81
774.073	396.62
774.256	415.06
774.438	322.9
774.621	439.63
774.803	392.53
774.985	343.38
775.168	290.13
775.35	400.72
775.532	394.58
775.715	357.71
775.897	320.85
776.079	359.76
776.261	355.66
776.444	294.22
776.626	349.52
776.808	345.42
776.99	378.19
777.173	374.1
777.355	390.48
777.537	345.42
777.719	365.9
777.901	335.18
778.083	384.34
778.265	333.14
778.447	265.55
778.629	306.51
778.811	347.47
778.993	224.59
779.175	345.42
779.357	384.34
779.539	275.79
779.721	314.7
779.903	304.46
780.085	318.8
780.267	302.42
780.449	345.42
780.631	314.7
780.812	343.38
780.994	279.89
781.176	265.55
781.358	326.99
781.54	195.92
781.721	286.03
781.903	273.75
782.085	294.22
782.267	277.84
782.448	236.88
782.63	200.02
782.812	290.13
782.993	259.41
783.175	269.65
783.357	245.07
783.538	312.66
783.72	253.27
783.901	263.51
784.083	273.75
784.264	253.27
784.446	273.75
784.627	245.07
784.809	263.51
784.99	234.83
785.172	255.31
785.353	197.97
785.535	236.88
785.716	249.17
785.897	216.4
786.079	245.07
786.26	228.69
786.441	187.73
786.623	222.55
786.804	281.94
786.985	240.98
787.167	236.88
787.348	208.21
787.529	159.06
787.71	265.55
787.891	210.26
788.073	210.26
788.254	236.88
788.435	245.07
788.616	259.41
788.797	173.39
788.978	232.79
789.159	163.15
789.34	167.25
789.522	200.02
789.703	179.54
789.884	193.87
790.065	249.17
790.246	124.24
790.427	142.68
790.607	140.63
790.788	130.39
790.969	212.31
791.15	245.07
791.331	179.54
791.512	228.69
791.693	224.59
791.874	173.39
792.054	183.63
792.235	234.83
792.416	247.12
792.597	220.5
792.778	171.35
792.958	232.79
793.139	200.02
793.32	191.83
793.5	183.63
793.681	185.68
793.862	183.63
794.042	228.69
794.223	183.63
794.404	124.24
794.584	138.58
794.765	95.57
794.945	148.82
795.126	171.35
795.306	224.59
795.487	165.2
795.667	165.2
795.848	146.77
796.028	140.63
796.209	154.96
796.389	146.77
796.57	79.19
796.75	144.72
796.93	206.16
797.111	171.35
797.291	124.24
797.471	150.87
797.652	154.96
797.832	165.2
798.012	148.82
798.192	154.96
798.373	152.91
798.553	91.48
798.733	200.02
798.913	167.25
799.093	118.1
799.274	175.44
799.454	195.92
799.634	152.91
799.814	232.79
799.994	66.9
800.174	134.48
800.354	89.43
800.534	99.67
800.714	224.59
800.894	124.24
801.074	116.05
801.254	138.58
801.434	54.61
801.614	89.43
801.794	93.52
801.974	402.77
802.154	109.91
802.334	89.43
802.514	64.85
802.693	157.01
802.873	107.86
803.053	181.59
803.233	136.53
803.413	114
803.592	68.95
803.772	142.68
803.952	85.33
804.131	89.43
804.311	163.15
804.491	187.73
804.67	146.77
804.85	132.44
805.03	114
805.209	46.42
805.389	132.44
805.568	173.39
805.748	220.5
805.928	83.28
806.107	109.91
806.287	152.91
806.466	118.1
806.646	138.58
806.825	116.05
807.004	163.15
807.184	132.44
807.363	138.58
807.543	109.91
807.722	148.82
807.901	138.58
808.081	44.37
808.26	107.86
808.439	66.9
808.619	140.63
808.798	116.05
808.977	52.56
809.156	89.43
809.336	95.57
809.515	79.19
809.694	46.42
809.873	148.82
810.052	120.15
810.231	101.72
810.411	150.87
810.59	126.29
810.769	48.47
810.948	77.14
811.127	144.72
811.306	138.58
811.485	107.86
811.664	62.8
811.843	114
812.022	109.91
812.201	71
812.38	118.1
812.559	132.44
812.737	107.86
812.916	91.48
813.095	99.67
813.274	103.76
813.453	124.24
813.632	103.76
813.811	114
813.989	75.09
814.168	122.2
814.347	101.72
814.526	109.91
814.704	23.89
814.883	46.42
815.062	36.18
815.24	93.52
815.419	68.95
815.598	79.19
815.776	68.95
815.955	173.39
816.133	99.67
816.312	124.24
816.49	48.47
816.669	105.81
816.847	32.08
817.026	89.43
817.204	120.15
817.383	122.2
817.561	-6.83
817.74	130.39
817.918	83.28
818.097	118.1
818.275	-0.68
818.453	93.52
818.632	87.38
818.81	120.15
818.988	19.8
819.167	97.62
819.345	3.41
819.523	44.37
819.701	1.37
819.879	83.28
820.058	101.72
820.236	105.81
820.414	34.13
820.592	111.96
820.77	38.23
820.948	85.33
821.127	-43.69
821.305	93.52
821.483	114
821.661	109.91
821.839	44.37
822.017	64.85
822.195	36.18
822.373	91.48
822.551	85.33
822.729	105.81
822.907	68.95
823.085	68.95
823.262	62.8
823.44	95.57
823.618	62.8
823.796	38.23
823.974	40.28
824.152	66.9
824.329	97.62
824.507	56.66
824.685	79.19
824.863	81.24
825.04	32.08
825.218	68.95
825.396	101.72
825.574	56.66
825.751	126.29
825.929	93.52
826.107	32.08
826.284	81.24
826.462	17.75
826.639	17.75
826.817	60.76
826.994	58.71
827.172	32.08
827.349	75.09
827.527	75.09
827.704	77.14
827.882	66.9
828.059	118.1
828.237	77.14
828.414	120.15
828.591	11.61
828.769	64.85
828.946	50.52
829.124	75.09
829.301	118.1
829.478	27.99
829.655	40.28
829.833	9.56
830.01	75.09
830.187	44.37
830.364	52.56
830.542	7.51
830.719	79.19
830.896	89.43
831.073	42.32
831.25	36.18
831.427	116.05
831.604	111.96
831.782	27.99
831.959	114
832.136	52.56
832.313	40.28
832.49	27.99
832.667	103.76
832.844	-0.68
833.021	-4.78
833.198	48.47
833.374	-41.64
833.551	56.66
833.728	56.66
833.905	66.9
834.082	64.85
834.259	25.94
834.436	103.76
834.612	-27.31
834.789	77.14
834.966	40.28
835.143	118.1
835.319	19.8
835.496	56.66
835.673	19.8
835.85	87.38
836.026	60.76
836.203	118.1
836.38	44.37
836.556	71
836.733	1.37
836.909	91.48
837.086	34.13
837.262	60.76
837.439	77.14
837.616	81.24
837.792	124.24
837.968	34.13
838.145	40.28
838.321	52.56
838.498	64.85
838.674	32.08
838.851	11.61
839.027	81.24
839.203	-47.79
839.38	62.8
839.556	52.56
839.732	38.23
839.909	122.2
840.085	126.29
840.261	17.75
840.437	-8.87
840.614	23.89
840.79	48.47
840.966	81.24
841.142	81.24
841.318	30.04
841.494	48.47
841.671	15.7
841.847	30.04
842.023	15.7
842.199	32.08
842.375	56.66
842.551	23.89
842.727	1.37
842.903	-43.69
843.079	-0.68
843.255	71
843.431	27.99
843.607	109.91
843.783	-35.5
843.959	32.08
844.134	48.47
844.31	1.37
844.486	42.32
844.662	-0.68
844.838	15.7
845.013	38.23
845.189	73.04
845.365	50.52
845.541	7.51
845.716	64.85
845.892	42.32
846.068	85.33
846.244	52.56
846.419	114
846.595	89.43
846.77	56.66
846.946	32.08
847.122	-17.07
847.297	56.66
847.473	118.1
847.648	42.32
847.824	122.2
847.999	54.61
848.175	17.75
848.35	34.13
848.526	32.08
848.701	32.08
848.876	58.71
849.052	-12.97
849.227	1.37
849.403	27.99
849.578	9.56
849.753	11.61
849.929	44.37
850.104	25.94
850.279	81.24
850.454	25.94
850.63	-23.21
850.805	23.89
850.98	95.57
851.155	21.85
851.33	81.24
851.505	83.28
851.681	105.81
851.856	-45.74
852.031	99.67
852.206	114
852.381	126.29
852.556	42.32
852.731	-31.4
852.906	66.9
853.081	68.95
853.256	-6.83
853.431	19.8
853.606	17.75
853.781	32.08
853.956	-33.45
854.131	27.99
854.305	-10.92
854.48	-60.07
854.655	-10.92
854.83	11.61
855.005	-31.4
855.18	120.15
855.354	23.89
855.529	38.23
855.704	23.89
855.879	66.9
856.053	-25.26
856.228	-6.83
856.403	79.19
856.577	30.04
856.752	15.7
856.926	23.89
857.101	52.56
857.276	-0.68
857.45	32.08
857.625	21.85
857.799	60.76
857.974	56.66
858.148	-29.35
858.323	19.8
858.497	-2.73
858.672	93.52
858.846	52.56
859.02	85.33
859.195	58.71
859.369	50.52
859.543	66.9
859.718	52.56
859.892	25.94
860.066	48.47
860.241	91.48
860.415	25.94
860.589	7.51
860.763	9.56
860.938	-25.26
861.112	15.7
861.286	54.61
861.46	50.52
861.634	17.75
861.808	81.24
861.982	73.04
862.157	83.28
862.331	44.37
862.505	89.43
862.679	-17.07
862.853	50.52
863.027	-35.5
863.201	64.85
863.375	-27.31
863.549	75.09
863.722	19.8
863.896	93.52
864.07	25.94
864.244	36.18
864.418	3.41
864.592	21.85
864.766	7.51
864.939	25.94
865.113	71
865.287	1.37
865.461	32.08
865.634	40.28
865.808	48.47
865.982	42.32
866.156	46.42
866.329	7.51
866.503	27.99
866.676	-6.83
866.85	32.08
867.024	50.52
867.197	21.85
867.371	40.28
867.544	107.86
867.718	56.66
867.891	54.61
868.065	11.61
868.238	-15.02
868.412	44.37
868.585	-70.31
868.759	17.75
868.932	36.18
869.105	9.56
869.279	64.85
869.452	32.08
869.625	46.42
869.799	56.66
869.972	32.08
870.145	-2.73
870.319	23.89
870.492	-23.21
870.665	23.89
870.838	1.37
871.011	17.75
871.185	-23.21
871.358	7.51
871.531	30.04
871.704	-33.45
871.877	48.47
872.05	-25.26
872.223	-4.78
872.396	44.37
872.569	132.44
872.742	-0.68
872.915	-0.68
873.088	126.29
873.261	9.56
873.434	17.75
873.607	-6.83
873.78	64.85
873.953	-8.87
874.126	50.52
874.299	48.47
874.471	66.9
874.644	99.67
874.817	-12.97
874.99	89.43
875.163	52.56
875.335	27.99
875.508	23.89
875.681	58.71
875.853	1.37
876.026	54.61
876.199	25.94
876.371	48.47
876.544	60.76
876.717	60.76
876.889	-29.35
877.062	-29.35
877.234	15.7
877.407	-6.83
877.579	32.08
877.752	48.47
877.924	48.47
878.097	52.56
878.269	81.24
878.442	52.56
878.614	11.61
878.786	58.71
878.959	77.14
879.131	91.48
879.303	48.47
879.476	-15.02
879.648	107.86
879.82	7.51
879.993	-31.4
880.165	75.09
880.337	-23.21
880.509	83.28
880.681	-0.68
880.854	1.37
881.026	3.41
881.198	73.04
881.37	21.85
881.542	23.89
881.714	46.42
881.886	23.89
882.058	95.57
882.23	48.47
882.402	13.65
882.574	91.48
882.746	-4.78
882.918	60.76
883.09	9.56
883.262	-23.21
883.434	15.7
883.606	27.99
883.778	5.46
883.95	56.66
884.122	40.28
884.293	101.72
884.465	-6.83
884.637	21.85
884.809	-23.21
884.98	32.08
885.152	3.41
885.324	89.43
885.496	3.41
885.667	-23.21
885.839	73.04
886.011	40.28
886.182	27.99
886.354	62.8
886.525	52.56
886.697	40.28
886.869	13.65
887.04	-6.83
887.212	34.13
887.383	32.08
887.555	77.14
887.726	-6.83
887.897	15.7
888.069	60.76
888.24	-27.31
888.412	-41.64
888.583	7.51
888.754	32.08
888.926	34.13
889.097	-17.07
889.268	48.47
889.44	40.28
889.611	13.65
889.782	19.8
889.953	15.7
890.125	54.61
890.296	60.76
890.467	77.14
890.638	75.09
890.809	15.7
890.98	64.85
891.151	-8.87
891.323	21.85
891.494	60.76
891.665	9.56
891.836	93.52
892.007	27.99
892.178	68.95
892.349	-12.97
892.52	50.52
892.691	68.95
892.862	44.37
893.032	48.47
893.203	87.38
893.374	32.08
893.545	68.95
893.716	3.41
893.887	56.66
894.057	-10.92
894.228	-4.78
894.399	-6.83
894.57	58.71
894.74	-23.21
894.911	27.99
895.082	9.56
895.253	44.37
895.423	-15.02
895.594	42.32
895.764	-15.02
895.935	9.56
896.106	23.89
896.276	38.23
896.447	-19.11
896.617	-37.55
896.788	-27.31
896.958	68.95
897.129	-49.83
897.299	25.94
897.47	-0.68
897.64	-103.08
897.81	15.7
897.981	85.33
898.151	-58.03
898.322	9.56
898.492	93.52
898.662	3.41
898.832	-15.02
899.003	21.85
899.173	56.66
899.343	50.52
899.513	48.47
