Data from USB4F104151__79__13-54-19-292.txt Node

Date: Thu Mar 13 13:54:19 EDT 2025
User: louis
Spectrometer: USB4F10415
Trigger mode: 4
Integration Time (sec): 1.000000E-2
Scans to average: 1
Electric dark correction enabled: true
Nonlinearity correction enabled: false
Boxcar width: 0
XAxis mode: Wavelengths
Number of Pixels in Spectrum: 3648
>>>>>Begin Spectral Data<<<<<
178.204	-63.66
178.424	-63.66
178.644	-63.66
178.864	16.21
179.084	-55.47
179.304	-28.84
179.524	-61.61
179.744	30.55
179.964	36.69
180.184	-24.75
180.404	22.36
180.624	18.26
180.844	34.64
181.064	1.88
181.283	40.79
181.503	-57.51
181.723	-12.46
181.943	-26.79
182.163	12.12
182.383	14.17
182.602	18.26
182.822	-10.41
183.042	18.26
183.262	-30.89
183.482	30.55
183.701	-10.41
183.921	20.31
184.141	1.88
184.361	3.93
184.58	14.17
184.8	22.36
185.02	59.22
185.239	69.46
185.459	-26.79
185.679	12.12
185.898	-18.6
186.118	61.27
186.338	-37.03
186.557	-10.41
186.777	-49.32
186.997	-4.27
187.216	-4.27
187.436	110.42
187.655	-16.55
187.875	10.07
188.095	20.31
188.314	26.45
188.534	38.74
188.753	-57.51
188.973	24.4
189.192	36.69
189.412	83.8
189.631	36.69
189.851	12.12
190.07	3.93
190.29	-22.7
190.509	-63.66
190.729	18.26
190.948	28.5
191.168	36.69
191.387	-16.55
191.607	16.21
191.826	-22.7
192.045	-12.46
192.265	73.56
192.484	-28.84
192.704	57.17
192.923	32.6
193.142	-16.55
193.362	57.17
193.581	132.95
193.8	-28.84
194.02	16.21
194.239	51.03
194.458	63.32
194.678	-63.66
194.897	18.26
195.116	5.97
195.335	63.32
195.555	-10.41
195.774	10.07
195.993	5.97
196.212	12.12
196.432	-47.27
196.651	-8.36
196.87	42.84
197.089	14.17
197.308	-47.27
197.528	94.04
197.747	-39.08
197.966	-12.46
198.185	24.4
198.404	32.6
198.623	5.97
198.842	-71.85
199.062	44.88
199.281	20.31
199.5	1.88
199.719	12.12
199.938	-4.27
200.157	51.03
200.376	-14.51
200.595	14.17
200.814	18.26
201.033	42.84
201.252	24.4
201.471	53.08
201.69	34.64
201.909	42.84
202.128	28.5
202.347	59.22
202.566	-51.37
202.785	36.69
203.004	30.55
203.223	5.97
203.442	-47.27
203.661	-16.55
203.879	-96.43
204.098	-4.27
204.317	-6.31
204.536	30.55
204.755	-4.27
204.974	40.79
205.193	34.64
205.411	24.4
205.63	40.79
205.849	22.36
206.068	28.5
206.287	-10.41
206.505	57.17
206.724	20.31
206.943	-16.55
207.162	24.4
207.381	10.07
207.599	3.93
207.818	20.31
208.037	-0.17
208.255	24.4
208.474	34.64
208.693	38.74
208.911	-18.6
209.13	-22.7
209.349	28.5
209.567	51.03
209.786	38.74
210.005	-45.23
210.223	67.41
210.442	3.93
210.661	34.64
210.879	48.98
211.098	-2.22
211.316	-2.22
211.535	94.04
211.753	53.08
211.972	59.22
212.191	-32.94
212.409	-47.27
212.628	22.36
212.846	-37.03
213.065	10.07
213.283	120.66
213.502	-30.89
213.72	14.17
213.938	32.6
214.157	-4.27
214.375	-4.27
214.594	36.69
214.812	-37.03
215.031	-28.84
215.249	16.21
215.467	67.41
215.686	34.64
215.904	75.6
216.122	44.88
216.341	28.5
216.559	-16.55
216.778	18.26
216.996	14.17
217.214	-22.7
217.432	-22.7
217.651	-6.31
217.869	-41.13
218.087	-12.46
218.306	-67.75
218.524	28.5
218.742	40.79
218.96	63.32
219.179	44.88
219.397	-43.18
219.615	-39.08
219.833	-16.55
220.051	87.89
220.27	51.03
220.488	79.7
220.706	20.31
220.924	22.36
221.142	-22.7
221.36	38.74
221.578	-8.36
221.796	8.02
222.015	-2.22
222.233	24.4
222.451	75.6
222.669	10.07
222.887	20.31
223.105	28.5
223.323	44.88
223.541	55.12
223.759	12.12
223.977	59.22
224.195	22.36
224.413	-4.27
224.631	5.97
224.849	26.45
225.067	83.8
225.285	-10.41
225.503	26.45
225.721	12.12
225.939	59.22
226.157	5.97
226.375	16.21
226.592	-12.46
226.81	40.79
227.028	16.21
227.246	40.79
227.464	-26.79
227.682	63.32
227.9	10.07
228.117	-8.36
228.335	40.79
228.553	69.46
228.771	55.12
228.989	18.26
229.206	61.27
229.424	34.64
229.642	55.12
229.86	67.41
230.077	26.45
230.295	32.6
230.513	-20.65
230.731	1.88
230.948	12.12
231.166	46.93
231.384	-14.51
231.601	-8.36
231.819	-4.27
232.037	10.07
232.254	-14.51
232.472	12.12
232.689	-6.31
232.907	1.88
233.125	51.03
233.342	73.56
233.56	8.02
233.777	32.6
233.995	5.97
234.213	48.98
234.43	5.97
234.648	-0.17
234.865	69.46
235.083	16.21
235.3	8.02
235.518	12.12
235.735	61.27
235.953	61.27
236.17	96.08
236.388	22.36
236.605	-26.79
236.822	16.21
237.04	51.03
237.257	42.84
237.475	-8.36
237.692	-14.51
237.909	-8.36
238.127	65.36
238.344	-20.65
238.562	85.84
238.779	94.04
238.996	53.08
239.214	-0.17
239.431	-12.46
239.648	38.74
239.865	3.93
240.083	-6.31
240.3	89.94
240.517	-14.51
240.735	42.84
240.952	5.97
241.169	34.64
241.386	22.36
241.603	36.69
241.821	-55.47
242.038	-26.79
242.255	-30.89
242.472	14.17
242.689	-0.17
242.907	3.93
243.124	65.36
243.341	20.31
243.558	22.36
243.775	34.64
243.992	-32.94
244.209	36.69
244.426	42.84
244.643	5.97
244.86	3.93
245.078	8.02
245.295	12.12
245.512	-20.65
245.729	24.4
245.946	61.27
246.163	-20.65
246.38	81.75
246.597	65.36
246.814	28.5
247.031	36.69
247.248	5.97
247.464	-2.22
247.681	85.84
247.898	57.17
248.115	-20.65
248.332	1.88
248.549	44.88
248.766	114.52
248.983	14.17
249.2	10.07
249.417	67.41
249.633	-6.31
249.85	59.22
250.067	48.98
250.284	-30.89
250.501	38.74
250.717	-2.22
250.934	1.88
251.151	12.12
251.368	42.84
251.585	16.21
251.801	51.03
252.018	12.12
252.235	-0.17
252.451	63.32
252.668	-2.22
252.885	26.45
253.102	75.6
253.318	-30.89
253.535	20.31
253.752	16.21
253.968	1.88
254.185	-14.51
254.401	-8.36
254.618	16.21
254.835	8.02
255.051	-8.36
255.268	102.23
255.484	26.45
255.701	12.12
255.917	-8.36
256.134	26.45
256.351	24.4
256.567	14.17
256.784	40.79
257	44.88
257.217	91.99
257.433	24.4
257.65	71.51
257.866	32.6
258.082	32.6
258.299	5.97
258.515	-14.51
258.732	81.75
258.948	8.02
259.165	-8.36
259.381	42.84
259.597	34.64
259.814	77.65
260.03	-6.31
260.246	18.26
260.463	28.5
260.679	51.03
260.895	81.75
261.112	5.97
261.328	18.26
261.544	-45.23
261.761	30.55
261.977	61.27
262.193	55.12
262.409	59.22
262.626	-8.36
262.842	16.21
263.058	38.74
263.274	73.56
263.49	-57.51
263.707	38.74
263.923	65.36
264.139	51.03
264.355	12.12
264.571	36.69
264.787	12.12
265.004	67.41
265.22	12.12
265.436	-86.19
265.652	85.84
265.868	22.36
266.084	-6.31
266.3	32.6
266.516	42.84
266.732	20.31
266.948	-32.94
267.164	-6.31
267.38	14.17
267.596	67.41
267.812	-34.99
268.028	46.93
268.244	53.08
268.46	-24.75
268.676	3.93
268.892	24.4
269.108	-53.42
269.324	24.4
269.54	81.75
269.756	-30.89
269.972	71.51
270.188	46.93
270.403	-10.41
270.619	-55.47
270.835	-14.51
271.051	40.79
271.267	-34.99
271.483	42.84
271.698	36.69
271.914	46.93
272.13	-0.17
272.346	-6.31
272.562	71.51
272.777	-32.94
272.993	26.45
273.209	-6.31
273.425	87.89
273.64	14.17
273.856	5.97
274.072	12.12
274.287	-10.41
274.503	18.26
274.719	51.03
274.934	96.08
275.15	-39.08
275.366	-6.31
275.581	20.31
275.797	40.79
276.012	28.5
276.228	5.97
276.444	32.6
276.659	5.97
276.875	3.93
277.09	5.97
277.306	32.6
277.521	36.69
277.737	8.02
277.952	-28.84
278.168	-55.47
278.383	16.21
278.599	-20.65
278.814	75.6
279.03	34.64
279.245	20.31
279.461	24.4
279.676	40.79
279.892	34.64
280.107	53.08
280.322	1.88
280.538	53.08
280.753	-43.18
280.969	3.93
281.184	48.98
281.399	71.51
281.615	55.12
281.83	-37.03
282.045	36.69
282.26	-28.84
282.476	18.26
282.691	46.93
282.906	32.6
283.122	-4.27
283.337	18.26
283.552	24.4
283.767	46.93
283.983	-34.99
284.198	-71.85
284.413	83.8
284.628	5.97
284.843	-24.75
285.058	-59.56
285.274	28.5
285.489	20.31
285.704	81.75
285.919	38.74
286.134	-65.71
286.349	65.36
286.564	51.03
286.779	-6.31
286.995	32.6
287.21	24.4
287.425	59.22
287.64	32.6
287.855	-6.31
288.07	16.21
288.285	53.08
288.5	-28.84
288.715	18.26
288.93	-69.8
289.145	102.23
289.36	46.93
289.575	16.21
289.79	-57.51
290.004	42.84
290.219	22.36
290.434	53.08
290.649	12.12
290.864	-47.27
291.079	57.17
291.294	87.89
291.509	38.74
291.724	-80.04
291.938	-80.04
292.153	61.27
292.368	55.12
292.583	28.5
292.798	-16.55
293.012	36.69
293.227	71.51
293.442	36.69
293.657	-10.41
293.871	-47.27
294.086	18.26
294.301	-2.22
294.516	-0.17
294.73	3.93
294.945	-32.94
295.16	30.55
295.374	-20.65
295.589	12.12
295.804	10.07
296.018	8.02
296.233	40.79
296.447	-22.7
296.662	-4.27
296.877	83.8
297.091	-24.75
297.306	94.04
297.52	87.89
297.735	3.93
297.949	120.66
298.164	-43.18
298.378	24.4
298.593	-4.27
298.807	73.56
299.022	42.84
299.236	73.56
299.451	-34.99
299.665	38.74
299.88	42.84
300.094	32.6
300.309	8.02
300.523	36.69
300.737	106.32
300.952	71.51
301.166	8.02
301.381	8.02
301.595	34.64
301.809	46.93
302.024	-47.27
302.238	-10.41
302.452	81.75
302.667	16.21
302.881	14.17
303.095	65.36
303.309	44.88
303.524	34.64
303.738	-8.36
303.952	34.64
304.166	57.17
304.381	-6.31
304.595	73.56
304.809	-12.46
305.023	36.69
305.237	-22.7
305.452	24.4
305.666	-14.51
305.88	118.61
306.094	44.88
306.308	55.12
306.522	28.5
306.736	79.7
306.95	-39.08
307.164	-4.27
307.379	5.97
307.593	38.74
307.807	69.46
308.021	-28.84
308.235	26.45
308.449	-57.51
308.663	-24.75
308.877	14.17
309.091	1.88
309.305	5.97
309.519	-26.79
309.733	120.66
309.947	42.84
310.161	94.04
310.374	40.79
310.588	61.27
310.802	32.6
311.016	73.56
311.23	12.12
311.444	51.03
311.658	18.26
311.872	26.45
312.085	-39.08
312.299	77.65
312.513	38.74
312.727	-8.36
312.941	24.4
313.154	69.46
313.368	16.21
313.582	3.93
313.796	5.97
314.009	57.17
314.223	1.88
314.437	-12.46
314.651	38.74
314.864	14.17
315.078	24.4
315.292	20.31
315.505	24.4
315.719	-63.66
315.933	36.69
316.146	26.45
316.36	63.32
316.573	-2.22
316.787	18.26
317.001	32.6
317.214	26.45
317.428	108.37
317.641	-18.6
317.855	18.26
318.068	-6.31
318.282	124.76
318.495	44.88
318.709	-20.65
318.922	-67.75
319.136	42.84
319.349	16.21
319.563	44.88
319.776	26.45
319.99	36.69
320.203	-4.27
320.417	53.08
320.63	94.04
320.843	44.88
321.057	-30.89
321.27	-16.55
321.483	-0.17
321.697	34.64
321.91	71.51
322.124	42.84
322.337	38.74
322.55	22.36
322.763	24.4
322.977	42.84
323.19	26.45
323.403	-6.31
323.617	44.88
323.83	53.08
324.043	22.36
324.256	32.6
324.469	1.88
324.683	36.69
324.896	40.79
325.109	10.07
325.322	26.45
325.535	89.94
325.748	28.5
325.962	-30.89
326.175	-71.85
326.388	3.93
326.601	34.64
326.814	71.51
327.027	102.23
327.24	32.6
327.453	-26.79
327.666	40.79
327.879	-43.18
328.092	36.69
328.305	53.08
328.518	75.6
328.731	-16.55
328.944	26.45
329.157	16.21
329.37	10.07
329.583	77.65
329.796	42.84
330.009	10.07
330.222	-6.31
330.435	-6.31
330.648	18.26
330.861	24.4
331.073	85.84
331.286	55.12
331.499	38.74
331.712	-20.65
331.925	12.12
332.138	77.65
332.35	48.98
332.563	28.5
332.776	-8.36
332.989	26.45
333.202	57.17
333.414	-22.7
333.627	-65.71
333.84	-4.27
334.053	59.22
334.265	-18.6
334.478	46.93
334.691	22.36
334.903	36.69
335.116	26.45
335.329	-22.7
335.541	-26.79
335.754	-20.65
335.966	-28.84
336.179	8.02
336.392	36.69
336.604	87.89
336.817	44.88
337.029	65.36
337.242	26.45
337.454	87.89
337.667	55.12
337.88	98.13
338.092	-51.37
338.305	18.26
338.517	46.93
338.729	30.55
338.942	-6.31
339.154	-37.03
339.367	44.88
339.579	24.4
339.792	-4.27
340.004	34.64
340.217	75.6
340.429	18.26
340.641	57.17
340.854	91.99
341.066	-20.65
341.278	28.5
341.491	51.03
341.703	-55.47
341.915	8.02
342.128	71.51
342.34	-6.31
342.552	28.5
342.764	61.27
342.977	-0.17
343.189	16.21
343.401	40.79
343.613	48.98
343.826	48.98
344.038	-24.75
344.25	59.22
344.462	36.69
344.674	-57.51
344.886	53.08
345.099	-22.7
345.311	26.45
345.523	5.97
345.735	36.69
345.947	-14.51
346.159	46.93
346.371	46.93
346.583	26.45
346.795	69.46
347.007	-47.27
347.219	12.12
347.431	42.84
347.643	-8.36
347.855	-4.27
348.067	5.97
348.279	63.32
348.491	-2.22
348.703	38.74
348.915	28.5
349.127	69.46
349.339	24.4
349.551	51.03
349.763	3.93
349.975	-47.27
350.187	14.17
350.399	22.36
350.61	69.46
350.822	16.21
351.034	44.88
351.246	44.88
351.458	67.41
351.669	34.64
351.881	-6.31
352.093	-8.36
352.305	46.93
352.517	87.89
352.728	65.36
352.94	67.41
353.152	124.76
353.363	38.74
353.575	20.31
353.787	51.03
353.999	8.02
354.21	14.17
354.422	-59.56
354.633	-10.41
354.845	28.5
355.057	30.55
355.268	42.84
355.48	65.36
355.692	-22.7
355.903	57.17
356.115	14.17
356.326	22.36
356.538	51.03
356.749	1.88
356.961	30.55
357.172	57.17
357.384	-32.94
357.595	67.41
357.807	22.36
358.018	24.4
358.23	46.93
358.441	77.65
358.653	69.46
358.864	51.03
359.075	36.69
359.287	28.5
359.498	65.36
359.709	55.12
359.921	-20.65
360.132	122.71
360.344	61.27
360.555	55.12
360.766	44.88
360.977	-8.36
361.189	65.36
361.4	18.26
361.611	34.64
361.823	48.98
362.034	1.88
362.245	-22.7
362.456	65.36
362.667	106.32
362.879	102.23
363.09	14.17
363.301	71.51
363.512	-12.46
363.723	14.17
363.935	10.07
364.146	55.12
364.357	-104.62
364.568	-0.17
364.779	12.12
364.99	87.89
365.201	-8.36
365.412	69.46
365.623	-24.75
365.834	14.17
366.045	63.32
366.256	79.7
366.467	8.02
366.678	28.5
366.889	46.93
367.1	-20.65
367.311	96.08
367.522	28.5
367.733	-12.46
367.944	44.88
368.155	36.69
368.366	67.41
368.577	16.21
368.788	55.12
368.999	42.84
369.209	55.12
369.42	40.79
369.631	30.55
369.842	14.17
370.053	12.12
370.264	12.12
370.474	-4.27
370.685	18.26
370.896	36.69
371.107	69.46
371.317	-8.36
371.528	63.32
371.739	-4.27
371.95	55.12
372.16	24.4
372.371	40.79
372.582	91.99
372.792	51.03
373.003	71.51
373.214	75.6
373.424	57.17
373.635	-0.17
373.846	44.88
374.056	73.56
374.267	116.56
374.477	-28.84
374.688	57.17
374.898	114.52
375.109	26.45
375.319	-8.36
375.53	81.75
375.74	51.03
375.951	26.45
376.161	-24.75
376.372	-30.89
376.582	53.08
376.793	55.12
377.003	48.98
377.214	94.04
377.424	-26.79
377.635	83.8
377.845	34.64
378.055	40.79
378.266	26.45
378.476	28.5
378.686	-4.27
378.897	-16.55
379.107	71.51
379.317	44.88
379.528	1.88
379.738	59.22
379.948	106.32
380.158	18.26
380.369	81.75
380.579	91.99
380.789	48.98
380.999	67.41
381.21	34.64
381.42	130.9
381.63	-0.17
381.84	59.22
382.05	53.08
382.261	30.55
382.471	16.21
382.681	5.97
382.891	79.7
383.101	108.37
383.311	-14.51
383.521	61.27
383.731	46.93
383.941	112.47
384.151	135
384.361	16.21
384.571	59.22
384.781	69.46
384.991	16.21
385.201	26.45
385.411	22.36
385.621	51.03
385.831	40.79
386.041	38.74
386.251	20.31
386.461	32.6
386.671	-34.99
386.881	-6.31
387.091	-34.99
387.301	85.84
387.511	-14.51
387.72	51.03
387.93	22.36
388.14	-39.08
388.35	75.6
388.56	91.99
388.769	44.88
388.979	59.22
389.189	44.88
389.399	71.51
389.609	28.5
389.818	100.18
390.028	89.94
390.238	20.31
390.447	-16.55
390.657	106.32
390.867	8.02
391.076	3.93
391.286	46.93
391.496	63.32
391.705	69.46
391.915	40.79
392.125	48.98
392.334	-16.55
392.544	38.74
392.753	20.31
392.963	59.22
393.172	69.46
393.382	124.76
393.591	59.22
393.801	16.21
394.01	24.4
394.22	-18.6
394.429	102.23
394.639	-14.51
394.848	57.17
395.058	38.74
395.267	36.69
395.477	71.51
395.686	-6.31
395.895	12.12
396.105	91.99
396.314	73.56
396.524	94.04
396.733	16.21
396.942	110.42
397.152	108.37
397.361	94.04
397.57	61.27
397.78	75.6
397.989	77.65
398.198	104.28
398.407	100.18
398.617	102.23
398.826	118.61
399.035	20.31
399.244	32.6
399.453	75.6
399.663	71.51
399.872	98.13
400.081	55.12
400.29	75.6
400.499	75.6
400.708	75.6
400.917	18.26
401.127	38.74
401.336	57.17
401.545	118.61
401.754	67.41
401.963	163.67
402.172	73.56
402.381	-2.22
402.59	51.03
402.799	44.88
403.008	94.04
403.217	100.18
403.426	91.99
403.635	94.04
403.844	61.27
404.053	67.41
404.262	83.8
404.471	81.75
404.68	73.56
404.888	153.43
405.097	53.08
405.306	118.61
405.515	155.47
405.724	128.85
405.933	65.36
406.142	161.62
406.35	110.42
406.559	135
406.768	96.08
406.977	81.75
407.185	130.9
407.394	65.36
407.603	153.43
407.812	161.62
408.02	184.15
408.229	194.39
408.438	132.95
408.646	112.47
408.855	196.43
409.064	214.87
409.272	155.47
409.481	188.24
409.69	124.76
409.898	178
410.107	208.72
410.315	173.91
410.524	175.95
410.733	196.43
410.941	126.8
411.15	235.35
411.358	126.8
411.567	249.68
411.775	206.67
411.984	225.11
412.192	229.2
412.401	235.35
412.609	292.69
412.818	319.31
413.026	286.54
413.234	386.9
413.443	341.84
413.651	360.27
413.86	264.02
414.068	395.09
414.276	415.57
414.485	431.95
414.693	382.8
414.901	397.14
415.11	472.91
415.318	415.57
415.526	438.09
415.734	509.77
415.943	436.05
416.151	458.57
416.359	505.68
416.567	560.97
416.776	517.97
416.984	610.12
417.192	571.21
417.4	573.26
417.608	632.65
417.817	687.95
418.025	614.22
418.233	722.76
418.441	726.86
418.649	704.33
418.857	790.35
419.065	823.11
419.273	765.77
419.481	790.35
419.689	950.09
419.897	819.02
420.105	921.42
420.313	945.99
420.521	1029.96
420.729	993.09
420.937	1032.01
421.145	1068.87
421.353	1077.06
421.561	1220.42
421.769	1228.61
421.977	1249.09
422.185	1267.52
422.393	1290.05
422.601	1255.23
422.809	1441.6
423.017	1443.65
423.224	1515.33
423.432	1523.52
423.64	1513.28
423.848	1666.88
424.056	1656.64
424.263	1810.23
424.471	1670.97
424.679	1732.41
424.887	1863.48
425.094	1972.02
425.302	1859.38
425.51	2025.27
425.718	2033.46
425.925	2088.76
426.133	2266.93
426.341	2133.81
426.548	2361.14
426.756	2320.18
426.964	2365.23
427.171	2408.24
427.379	2647.85
427.586	2658.09
427.794	2746.16
428.001	2916.14
428.209	3049.25
428.417	2862.89
428.624	3110.69
428.832	3131.17
429.039	3071.78
429.247	3069.73
429.454	3475.23
429.662	3598.11
429.869	3516.19
430.076	3624.73
430.284	3647.26
430.491	3618.59
430.699	3761.95
430.906	3847.96
431.114	3970.84
431.321	4087.57
431.528	4192.02
431.736	4411.15
431.943	4609.81
432.15	4568.85
432.358	4613.9
432.565	4962.06
432.772	4923.15
432.979	5078.79
433.187	5076.74
433.394	5109.51
433.601	5437.19
433.808	5340.93
434.016	5623.55
434.223	5801.72
434.43	5973.75
434.637	5877.5
434.844	6168.31
435.052	6366.96
435.259	6225.65
435.466	6522.61
435.673	6405.88
435.88	6754.03
436.087	7034.6
436.294	7239.4
436.501	7014.12
436.708	7249.64
436.915	7403.24
437.122	7864.03
437.329	7790.3
437.537	8005.34
437.743	8128.22
437.95	7950.04
438.157	8400.6
438.364	8546
438.571	8830.67
438.778	8636.11
438.985	9746.11
439.192	9182.92
439.399	9332.42
439.606	9109.19
439.813	9678.53
440.02	10288.82
440.227	10307.26
440.433	9912
440.64	10514.1
440.847	10325.69
441.054	10628.79
441.261	11245.23
441.467	11183.79
441.674	11308.71
441.881	11663.01
442.088	11736.74
442.294	11673.25
442.501	12162.72
442.708	12334.75
442.914	12736.15
443.121	13033.1
443.328	12965.52
443.534	13928.06
443.741	13166.22
443.948	13227.66
444.154	14132.86
444.361	14116.48
444.568	14319.23
444.774	14153.34
444.981	14149.25
445.187	14782.07
445.394	15328.88
445.6	15052.4
445.807	16567.9
446.013	15693.41
446.22	16363.1
446.426	16840.28
446.633	16866.9
446.839	17536.59
447.046	16752.21
447.252	17698.38
447.459	17745.48
447.665	17575.5
447.871	18445.88
448.078	19142.19
448.284	18378.3
448.491	18873.91
448.697	19367.47
448.903	19543.6
449.11	19797.54
449.316	19557.93
449.522	19811.88
449.728	20217.38
449.935	20424.22
450.141	20526.62
450.347	20979.22
450.553	20194.85
450.76	20373.02
450.966	21026.32
451.172	21237.27
451.378	21247.51
451.584	21126.67
451.791	21489.17
451.997	21503.5
452.203	21739.02
452.409	21638.67
452.615	21767.69
452.821	20872.73
453.027	20655.64
453.233	21687.82
453.44	20532.76
453.646	20917.78
453.852	20905.49
454.058	21308.94
454.264	20491.8
454.47	21329.42
454.676	20497.95
454.882	21243.41
455.088	19334.7
455.294	19654.19
455.5	19926.57
455.705	19887.65
455.911	19353.13
456.117	18656.82
456.323	18386.49
456.529	17567.31
456.735	18308.67
456.941	17763.91
457.147	17575.5
457.352	16987.73
457.558	16774.74
457.764	17022.55
457.97	16535.13
458.176	16080.48
458.381	16303.71
458.587	15423.08
458.793	15337.07
458.999	14698.1
459.204	15799.91
459.41	15029.87
459.616	14239.36
459.821	14444.15
460.027	14278.27
460.233	13921.92
460.438	13256.33
460.644	13373.07
460.85	12752.53
461.055	12832.4
461.261	12660.37
461.466	11687.59
461.672	11183.79
461.878	11925.15
462.083	11286.19
462.289	11159.21
462.494	11095.72
462.7	10450.61
462.905	10301.11
463.111	10387.13
463.316	10645.17
463.522	10563.25
463.727	10378.93
463.932	10370.74
464.138	10251.96
464.343	10208.95
464.549	10157.75
464.754	10663.6
464.959	10180.28
465.165	10137.27
465.37	9832.13
465.575	9629.38
465.781	10008.25
465.986	10086.08
466.191	9707.2
466.397	9451.21
466.602	8867.53
466.807	9348.81
467.012	9232.07
467.218	9459.4
467.423	9158.35
467.628	9275.08
467.833	9400.01
468.038	9189.07
468.244	9084.62
468.449	9490.12
468.654	9037.52
468.859	9033.42
469.064	8806.09
469.269	8511.19
469.474	8732.37
469.679	8785.62
469.885	8496.85
470.09	8838.86
470.295	8535.76
470.5	8408.79
470.705	8392.41
470.91	8308.44
471.115	8257.24
471.32	8388.31
471.525	8292.05
471.73	8099.55
471.935	8025.82
472.139	7755.49
472.344	7861.98
472.549	7802.59
472.754	7632.61
472.959	7630.56
473.164	7384.8
473.369	7266.02
473.574	7591.65
473.778	7476.96
473.983	7470.82
474.188	7349.99
474.393	7081.71
474.598	7114.47
474.802	6942.44
475.007	6954.73
475.212	6979.31
475.417	6692.59
475.621	6688.5
475.826	6647.54
476.031	6690.54
476.235	6506.23
476.44	6530.8
476.645	6317.81
476.849	6440.69
477.054	6297.33
477.259	6244.09
477.463	6434.55
477.668	6094.58
477.872	6350.58
478.077	6131.45
478.282	6092.54
478.486	6016.76
478.691	5926.65
478.895	5881.6
479.1	5758.72
479.304	5676.8
479.509	5728
479.713	5515.01
479.918	5570.3
480.122	5617.41
480.326	5695.23
480.531	5605.12
480.735	5566.21
480.94	5656.32
481.144	5641.98
481.348	5299.97
481.553	5568.26
481.757	5562.11
481.961	5369.6
482.166	5613.31
482.37	5529.34
482.574	5269.25
482.778	5455.62
482.983	5476.1
483.187	5512.96
483.391	5580.54
483.595	5367.56
483.8	5410.56
484.004	5435.14
484.208	5549.82
484.412	5451.52
484.616	5424.9
484.821	5502.72
485.025	5367.56
485.229	5422.85
485.433	5388.04
485.637	5283.59
485.841	5400.32
486.045	5363.46
486.249	5365.51
486.453	5385.99
486.657	5512.96
486.861	5422.85
487.065	5345.03
487.269	5385.99
487.473	5347.08
487.677	5408.51
487.881	5322.5
488.085	5302.02
488.289	5416.71
488.493	5412.61
488.697	5406.47
488.901	5506.82
489.105	5611.26
489.309	5461.76
489.512	5506.82
489.716	5496.58
489.92	5607.17
490.124	5461.76
490.328	5478.15
490.531	5457.67
490.735	5631.74
490.939	5451.52
491.143	5474.05
491.346	5467.91
491.55	5480.19
491.754	5588.74
491.958	5709.57
492.161	5768.96
492.365	5725.95
492.569	5781.25
492.772	5725.95
492.976	5781.25
493.18	5693.18
493.383	5842.68
493.587	5918.46
493.79	5885.69
493.994	5938.94
494.197	5994.23
494.401	6094.58
494.605	6104.82
494.808	6231.8
495.012	6127.35
495.215	6307.57
495.419	6246.13
495.622	6229.75
495.825	6248.18
496.029	6364.92
496.232	6471.41
496.436	6448.88
496.639	6680.3
496.843	6614.77
497.046	6682.35
497.249	6799.09
497.453	6835.95
497.656	6924.01
497.859	7042.79
498.063	7022.31
498.266	7274.21
498.469	7093.99
498.673	7225.06
498.876	7349.99
499.079	7519.97
499.282	7323.37
499.485	7485.16
499.689	7431.91
499.892	7624.42
500.095	7845.6
500.298	8134.36
500.501	7950.04
500.705	8181.46
500.908	8247
501.111	8167.13
501.314	8472.28
501.517	8505.04
501.72	8414.93
501.923	8687.31
502.126	8804.05
502.329	8894.16
502.532	8879.82
502.735	9074.38
502.938	9225.93
503.141	9121.48
503.344	9406.15
503.547	9533.12
503.75	9531.08
503.953	9858.75
504.156	9721.54
504.359	9805.5
504.562	9991.87
504.765	9993.92
504.968	10235.58
505.17	10200.76
505.373	10327.74
505.576	10598.07
505.779	10596.02
505.982	10739.38
506.185	11056.81
506.387	11265.71
506.59	11007.66
506.793	11656.87
506.996	11439.78
507.198	11673.25
507.401	11654.82
507.604	11837.09
507.807	12107.42
508.009	12281.5
508.212	12289.69
508.415	12560.02
508.617	12574.36
508.82	12668.56
509.022	12555.93
509.225	13014.67
509.428	13235.85
509.63	13069.97
509.833	13338.25
510.035	13289.1
510.238	13551.24
510.44	13762.18
510.643	14096
510.845	14126.72
511.048	14343.8
511.25	14462.58
511.453	14614.13
511.655	15095.41
511.858	14794.36
512.06	15132.27
512.262	15169.13
512.465	15439.47
512.667	15402.6
512.87	15580.78
513.072	15720.04
513.274	16154.21
513.477	16234.08
513.679	16246.37
513.881	16780.89
514.084	16864.85
514.286	16903.76
514.488	16985.68
514.69	17598.02
514.893	17632.84
515.095	17505.87
515.297	17954.37
515.499	17876.55
515.701	18038.34
515.904	18394.68
516.106	18484.8
516.308	18830.9
516.51	18964.02
516.712	18925.11
516.914	19234.35
517.116	19596.84
517.318	19357.23
517.52	19662.38
517.722	19781.16
517.925	20174.37
518.127	20424.22
518.329	20532.76
518.531	20491.8
518.733	21155.35
518.935	20882.97
519.136	21061.14
519.338	21753.35
519.54	21745.16
519.742	22017.54
519.944	22091.27
520.146	22633.98
520.348	22324.74
520.55	22887.93
520.752	22840.82
520.954	23033.33
521.155	23197.17
521.357	23578.09
521.559	23408.11
521.761	24098.28
521.963	24106.47
522.164	24217.06
522.366	24092.13
522.568	24669.66
522.77	24636.89
522.971	25132.5
523.173	24708.57
523.375	25222.61
523.576	25150.93
523.778	25376.21
523.98	25636.3
524.181	25906.63
524.383	25828.81
524.584	26351.04
524.786	26291.65
524.988	26185.16
525.189	26514.88
525.391	26633.66
525.592	26852.8
525.794	27094.46
525.995	26969.53
526.197	27266.49
526.398	27143.61
526.6	27379.12
526.801	27676.08
527.003	27786.67
527.204	27915.69
527.406	28097.96
527.607	28116.39
527.808	28247.46
528.01	27917.74
528.211	28239.27
528.412	28786.08
528.614	28575.14
528.815	28698.02
529.016	28665.25
529.218	28368.29
529.419	28716.45
529.62	28685.73
529.822	28888.48
530.023	29236.63
530.224	28781.98
530.425	29048.22
530.626	28714.4
530.828	28941.72
531.029	29635.99
531.23	29054.36
531.431	28956.06
531.632	29412.76
531.833	29590.93
532.035	29222.3
532.236	29744.53
532.437	29443.48
532.638	29478.29
532.839	29783.44
533.04	30055.82
533.241	29484.44
533.442	29906.32
533.643	29445.52
533.844	29961.61
534.045	30248.33
534.246	29451.67
534.447	30006.67
534.648	29900.17
534.849	29799.82
535.05	30094.73
535.251	29683.09
535.451	29998.48
535.652	30135.69
535.853	29828.49
536.054	30156.17
536.255	29992.33
536.456	29953.42
536.657	30406.02
536.857	29535.63
537.058	29978
537.259	30279.05
537.46	30123.4
537.66	30100.87
537.861	30193.03
538.062	30090.63
538.263	30023.05
538.463	29795.73
538.664	29812.11
538.865	30270.86
539.065	30092.68
539.266	29744.53
539.466	30408.07
539.667	29769.1
539.868	30147.98
540.068	30309.77
540.269	30053.77
540.469	30311.81
540.67	29988.24
540.87	30068.11
541.071	30225.8
541.271	30092.68
541.472	30117.26
541.672	30002.57
541.873	29685.14
542.073	29601.17
542.274	29998.48
542.474	30053.77
542.675	29947.28
542.875	30199.18
543.075	30174.6
543.276	29738.38
543.476	30031.24
543.676	30231.94
543.877	30238.09
544.077	30352.77
544.277	30168.46
544.478	29996.43
544.678	30266.76
544.878	29941.13
545.078	30057.87
545.279	29885.84
545.479	29894.03
545.679	29898.13
545.879	30133.64
546.079	30211.46
546.28	30307.72
546.48	29799.82
546.68	30109.07
546.88	30406.02
547.08	30109.07
547.28	30193.03
547.48	29773.2
547.68	30113.16
547.88	29678.99
548.081	30369.16
548.281	30252.42
548.481	29601.17
548.681	29963.66
548.881	30137.74
549.081	30092.68
549.28	30121.35
549.48	30049.67
549.68	29898.13
549.88	30293.38
550.08	29891.98
550.28	30358.92
550.48	29531.54
550.68	30328.2
550.88	29808.01
551.08	29978
551.279	29853.07
551.479	29648.27
551.679	30184.84
551.879	30029.2
552.079	29879.69
552.278	29896.08
552.478	29676.94
552.678	29633.94
552.878	29984.14
553.077	29732.24
553.277	29601.17
553.477	30064.01
553.676	29762.96
553.876	29754.77
554.076	29431.19
554.275	29388.18
554.475	29613.46
554.674	29750.67
554.874	29390.23
555.074	29357.46
555.273	29844.88
555.473	29650.32
555.672	29328.79
555.872	29568.4
556.071	29560.21
556.271	29787.53
556.47	29633.94
556.67	28638.62
556.869	29375.89
557.068	29650.32
557.268	29423
557.467	29476.24
557.667	29316.5
557.866	29322.65
558.065	28992.92
558.265	28788.13
558.464	28716.45
558.663	29615.51
558.863	28650.91
559.062	29080.99
559.261	28683.68
559.461	29255.06
559.66	28796.32
559.859	28827.04
560.058	28708.26
560.258	29042.07
560.457	28409.25
560.656	28786.08
560.855	28704.16
561.054	28583.33
561.253	28190.12
561.453	28566.95
561.652	28485.03
561.851	28951.96
562.05	28306.85
562.249	28333.48
562.448	28687.78
562.647	28495.27
562.846	28501.41
563.045	28458.4
563.244	27893.16
563.443	28356
563.642	27801.01
563.841	28134.82
564.04	27829.68
564.239	28128.68
564.438	27776.43
564.637	28083.62
564.836	27981.23
565.035	27512.24
565.234	27731.37
565.432	27610.54
565.631	27291.06
565.83	27530.67
566.029	27485.62
566.228	27502
566.427	27293.11
566.625	27084.22
566.824	27327.92
567.023	27465.14
567.222	26957.24
567.42	27180.47
567.619	27428.27
567.818	26967.48
568.016	26734.01
568.215	27022.78
568.414	26727.87
568.612	26803.64
568.811	26725.82
569.01	26822.08
569.208	26586.56
569.407	26785.21
569.605	26285.51
569.804	26445.25
570.002	26095.05
570.201	26301.89
570.4	26125.77
570.598	26025.42
570.797	26299.84
570.995	25976.26
571.193	25705.93
571.392	25951.69
571.59	25529.81
571.789	25804.24
571.987	25538
572.186	25855.43
572.384	25628.11
572.582	25662.93
572.781	25490.9
572.979	24964.57
573.177	25144.79
573.376	25552.34
573.574	24800.73
573.772	25257.43
573.971	24901.08
574.169	24964.57
574.367	24571.36
574.565	25253.33
574.763	24653.28
574.962	24659.42
575.16	24483.3
575.358	24808.92
575.556	24217.06
575.754	24591.84
575.952	24202.72
576.151	24352.23
576.349	23936.49
576.547	24077.8
576.745	23881.19
576.943	24143.33
577.141	23973.35
577.339	24073.7
577.537	23758.31
577.735	23770.6
577.933	23643.63
578.131	23766.51
578.329	23305.71
578.527	23197.17
578.725	23602.67
578.923	23328.24
579.121	23344.63
579.319	23127.54
579.516	23401.97
579.714	23160.31
579.912	23045.62
580.11	22918.65
580.308	22838.78
580.506	22648.32
580.704	22627.84
580.901	22810.11
581.099	22908.41
581.297	22541.82
581.495	22347.26
581.692	22707.71
581.89	22488.57
582.088	22433.28
582.285	22318.59
582.483	22441.47
582.681	22095.36
582.878	22113.8
583.076	22283.78
583.274	21972.49
583.471	21849.61
583.669	22064.64
583.866	21581.32
584.064	21847.56
584.262	21536.27
584.459	21548.56
584.657	21548.56
584.854	21444.11
585.052	21122.58
585.249	21415.44
585.447	21161.49
585.644	21083.67
585.841	21046.8
586.039	21145.11
586.236	20913.69
586.434	20762.14
586.631	20997.65
586.828	20936.21
587.026	20688.41
587.223	20778.52
587.42	20426.27
587.618	20766.23
587.815	20629.02
588.012	20420.13
588.21	20321.82
588.407	20833.82
588.604	20157.99
588.801	20469.28
588.999	20145.7
589.196	20078.11
589.393	19928.61
589.59	19949.09
589.787	19717.67
589.984	20010.53
590.182	19666.47
590.379	19895.85
590.576	19498.54
590.773	19619.37
590.97	19680.81
591.167	19676.71
591.364	19596.84
591.561	19549.74
591.758	19463.72
591.955	19385.9
592.152	19471.92
592.349	19351.09
592.546	19072.56
592.743	19303.98
592.94	18957.88
593.137	19213.87
593.334	18896.44
593.531	18685.5
593.727	19074.61
593.924	18875.96
594.121	18613.82
594.318	18755.13
594.515	18556.47
594.712	18593.34
594.908	18599.48
595.105	18667.06
595.302	18300.48
595.499	18449.98
595.696	18267.71
595.892	18226.75
596.089	18277.95
596.286	18001.47
596.482	17997.38
596.679	18167.36
596.876	17940.04
597.072	17835.59
597.269	17796.68
597.466	17925.7
597.662	17774.15
597.859	18073.15
598.055	17905.22
598.252	18040.39
598.448	17866.31
598.645	17456.71
598.841	17339.98
599.038	17196.62
599.234	17174.1
599.431	17206.86
599.627	17491.53
599.824	17206.86
600.02	17231.44
600.217	17223.25
600.413	17151.57
600.609	16934.48
600.806	16821.84
601.002	16963.15
601.198	16696.92
601.395	16723.54
601.591	16610.9
601.787	16633.43
601.984	16637.53
602.18	16717.4
602.376	16379.48
602.572	16320.09
602.769	16442.97
602.965	16324.19
603.161	16512.6
603.357	16385.63
603.553	16295.52
603.75	16291.42
603.946	16137.82
604.142	16197.21
604.338	15591.02
604.534	16170.59
604.73	15744.61
604.926	15892.07
605.122	15957.6
605.318	15906.4
605.514	15789.67
605.71	15615.59
605.906	15679.08
606.102	15697.51
606.298	15435.37
606.494	15449.71
606.69	15447.66
606.886	15201.9
607.082	15521.38
607.278	15355.5
607.474	14808.69
607.67	14978.67
607.866	15210.09
608.062	15154.8
608.257	15029.87
608.453	15201.9
608.649	14843.51
608.845	14927.47
609.041	14972.53
609.236	14970.48
609.432	14755.44
609.628	14825.08
609.824	14710.39
610.019	14493.3
610.215	14730.87
610.411	14880.37
610.606	14757.49
610.802	14513.78
610.998	14407.29
611.193	14640.76
611.389	14376.57
611.584	14470.78
611.78	14096
611.976	14276.22
612.171	14290.56
612.367	14378.62
612.562	14165.63
612.758	14159.49
612.953	13934.21
613.149	14149.25
613.344	13973.12
613.539	14007.94
613.735	13860.48
613.93	14102.14
614.126	13880.96
614.321	14124.67
614.517	13921.92
614.712	13842.05
614.907	13799.04
615.103	13887.11
615.298	13704.84
615.493	13899.39
615.688	13502.09
615.884	14106.24
616.079	13637.25
616.274	13481.61
616.47	13526.66
616.665	13440.65
616.86	13469.32
617.055	13291.15
617.25	13325.96
617.445	13395.59
617.641	13139.6
617.836	13233.8
618.031	13172.36
618.226	13364.87
618.421	13264.52
618.616	13246.09
618.811	12828.31
619.006	13100.69
619.201	12719.76
619.396	12879.5
619.591	12439.19
619.786	12730
619.981	12748.43
620.176	12820.11
620.371	12547.73
620.566	12576.41
620.761	12568.21
620.956	12611.22
621.151	12420.76
621.346	12600.98
621.541	12293.79
621.735	12385.94
621.93	11943.58
622.125	12101.28
622.32	11898.53
622.515	12050.08
622.709	11916.96
622.904	11974.3
623.099	11794.08
623.294	11738.79
623.488	11558.56
623.683	11843.23
623.878	11581.09
624.072	11384.49
624.267	11316.9
624.462	11478.69
624.656	11095.72
624.851	11323.05
625.046	11173.55
625.24	11103.92
625.435	10913.45
625.629	11005.61
625.824	10950.32
626.018	10917.55
626.213	10770.1
626.407	10702.51
626.602	10772.14
626.796	10692.27
626.991	10518.2
627.185	10522.29
627.38	10456.76
627.574	10423.99
627.768	10421.94
627.963	10270.39
628.157	10075.84
628.352	10423.99
628.546	10202.81
628.74	10176.19
628.935	9928.38
629.129	10135.23
629.323	10038.97
629.517	9889.47
629.712	9871.04
629.906	9744.06
630.1	9727.68
630.294	9930.43
630.489	9631.43
630.683	9502.4
630.877	9565.89
631.071	9297.61
631.265	9625.28
631.459	9543.36
631.653	9416.39
631.848	9275.08
632.042	9363.14
632.236	9211.59
632.43	9041.61
632.624	9168.59
632.818	9160.39
633.012	8949.45
633.206	8818.38
633.4	8873.68
633.594	8822.48
633.788	8871.63
633.982	8810.19
634.176	8763.09
634.369	8562.39
634.563	8576.72
634.757	8378.07
634.951	8584.91
635.145	8476.37
635.339	8468.18
635.533	8431.32
635.726	8312.53
635.92	8341.21
636.114	8396.5
636.308	8341.21
636.501	8257.24
636.695	8115.93
636.889	8169.18
637.083	8130.27
637.276	7890.65
637.47	8019.67
637.664	8066.78
637.857	7788.25
638.051	7909.08
638.244	7835.36
638.438	7681.76
638.632	7773.92
638.825	7579.36
639.019	7573.22
639.212	7612.13
639.406	7501.54
639.599	7390.95
639.793	7442.15
639.986	7343.85
640.18	7382.76
640.373	7306.98
640.567	7423.72
640.76	7079.66
640.954	7323.37
641.147	7147.24
641.34	7206.63
641.534	7263.97
641.727	7003.88
641.92	7132.9
642.114	7053.03
642.307	6946.54
642.5	6917.87
642.694	6760.17
642.887	6758.13
643.08	6792.94
643.273	6751.98
643.467	6754.03
643.66	6684.4
643.853	6618.86
644.046	6512.37
644.239	6690.54
644.432	6393.59
644.626	6553.33
644.819	6383.35
645.012	6446.83
645.205	6348.53
645.398	6481.65
645.591	6229.75
645.784	6188.79
645.977	6217.46
646.17	6139.64
646.363	6072.06
646.556	5977.85
646.749	6004.47
646.942	6063.86
647.135	6082.3
647.328	5785.34
647.521	5938.94
647.714	5959.42
647.907	5930.75
648.099	5758.72
648.292	5938.94
648.485	5758.72
648.678	5844.73
648.871	5613.31
649.064	5627.65
649.256	5592.83
649.449	5592.83
649.642	5551.87
649.835	5580.54
650.027	5502.72
650.22	5500.67
650.413	5455.62
650.605	5480.19
650.798	5314.31
650.991	5383.94
651.183	5400.32
651.376	5211.91
651.568	5275.4
651.761	5187.33
651.954	5170.95
652.146	5232.39
652.339	5285.64
652.531	5119.75
652.724	5076.74
652.916	4880.14
653.109	5091.08
653.301	4960.01
653.494	4968.2
653.686	4947.72
653.879	4816.65
654.071	4890.38
654.263	4929.29
654.456	4769.55
654.648	4953.87
654.84	4640.53
655.033	4642.57
655.225	4814.6
655.417	4658.96
655.61	4673.29
655.802	4521.74
655.994	4589.33
656.186	4548.37
656.379	4593.42
656.571	4544.27
656.763	4546.32
656.955	4359.95
657.148	4429.59
657.34	4511.5
657.532	4362
657.724	4362
657.916	4339.48
658.108	4300.56
658.3	4425.49
658.492	4235.03
658.684	4230.93
658.876	4194.07
659.068	4247.32
659.26	4093.72
659.452	4216.6
659.644	4085.53
659.836	4171.54
660.028	4165.4
660.22	4065.05
660.412	3944.22
660.604	3911.45
660.796	3839.77
660.988	3976.98
661.18	3878.68
661.372	3843.87
661.563	3874.59
661.755	3882.78
661.947	3847.96
662.139	3659.55
662.331	3839.77
662.522	3643.17
662.714	3766.04
662.906	3731.23
663.097	3829.53
663.289	3514.14
663.481	3503.9
663.673	3671.84
663.864	3503.9
664.056	3454.75
664.247	3585.82
664.439	3458.85
664.631	3510.05
664.822	3522.34
665.014	3399.46
665.205	3430.18
665.397	3419.94
665.588	3391.27
665.78	3307.3
665.971	3374.88
666.163	3477.28
666.354	3282.72
666.546	3370.79
666.737	3249.96
666.929	3354.4
667.12	3284.77
667.311	3280.68
667.503	3239.72
667.694	3213.09
667.885	3151.65
668.077	3077.93
668.268	3159.85
668.459	3020.58
668.651	3032.87
668.842	3276.58
669.033	3215.14
669.224	3096.36
669.416	3112.74
669.607	3094.31
669.798	3116.84
669.989	3002.15
670.18	3090.21
670.371	3012.39
670.563	2862.89
670.754	3006.25
670.945	2957.1
671.136	2899.75
671.327	2998.06
671.518	2903.85
671.709	2877.23
671.9	2928.42
672.091	2873.13
672.282	2793.26
672.473	2866.99
672.664	2922.28
672.855	2813.74
673.046	2805.55
673.237	2912.04
673.428	2705.2
673.619	2838.31
673.809	2795.31
674	2713.39
674.191	2727.72
674.382	2729.77
674.573	2840.36
674.764	2707.24
674.954	2656.04
675.145	2678.57
675.336	2758.44
675.527	2707.24
675.717	2647.85
675.908	2701.1
676.099	2645.8
676.289	2670.38
676.48	2711.34
676.671	2617.13
676.861	2629.42
677.052	2551.6
677.243	2602.8
677.433	2541.36
677.624	2533.17
677.814	2567.98
678.005	2486.06
678.195	2600.75
678.386	2613.04
678.576	2516.78
678.767	2457.39
678.957	2518.83
679.148	2586.41
679.338	2535.21
679.529	2473.78
679.719	2545.45
679.909	2518.83
680.1	2430.77
680.29	2498.35
680.481	2424.62
680.671	2443.06
680.861	2445.1
681.052	2588.46
681.242	2412.34
681.432	2549.55
681.622	2430.77
681.813	2336.56
682.003	2391.86
682.193	2500.4
682.383	2316.08
682.573	2324.27
682.764	2418.48
682.954	2451.25
683.144	2393.9
683.334	2365.23
683.524	2387.76
683.714	2387.76
683.904	2285.36
684.094	2299.7
684.284	2385.71
684.474	2414.38
684.664	2322.23
684.854	2273.07
685.044	2383.66
685.234	2281.27
685.424	2393.9
685.614	2246.45
685.804	2211.64
685.994	2230.07
686.184	2287.41
686.374	2289.46
686.564	2168.63
686.753	2279.22
686.943	2146.1
687.133	2221.88
687.323	2152.24
687.513	2256.69
687.702	2236.21
687.892	2135.86
688.082	2205.49
688.272	2207.54
688.461	2219.83
688.651	2174.77
688.841	2203.44
689.03	2137.91
689.22	2185.01
689.41	2094.9
689.599	2156.34
689.789	2043.7
689.979	2142
690.168	2115.38
690.358	2033.46
690.547	2092.85
690.737	2133.81
690.926	2119.48
691.116	2035.51
691.305	2090.81
691.495	2129.72
691.684	2172.72
691.874	2094.9
692.063	2008.89
692.252	2051.89
692.442	2068.28
692.631	2062.13
692.82	2060.09
693.01	2006.84
693.199	1933.11
693.388	2064.18
693.578	1933.11
693.767	2074.42
693.956	2045.75
694.146	2084.66
694.335	1982.26
694.524	2023.22
694.713	2062.13
694.902	1969.98
695.092	2055.99
695.281	2019.13
695.47	2084.66
695.659	2082.61
695.848	1945.4
696.037	2137.91
696.226	2000.69
696.415	2035.51
696.604	1976.12
696.793	1992.5
696.982	2058.04
697.171	1961.78
697.36	2012.98
697.549	1922.87
697.738	1945.4
697.927	2000.69
698.116	2064.18
698.305	1941.3
698.494	1967.93
698.683	1900.34
698.872	2131.76
699.061	1959.74
699.25	2004.79
699.438	1943.35
699.627	2023.22
699.816	2055.99
700.005	1943.35
700.193	1996.6
700.382	2053.94
700.571	1955.64
700.76	1879.86
700.948	1894.2
701.137	1812.28
701.326	1947.45
701.514	2008.89
701.703	1910.58
701.892	1969.98
702.08	1902.39
702.269	1886.01
702.457	1896.25
702.646	1894.2
702.834	1959.74
703.023	1994.55
703.212	1867.58
703.4	1961.78
703.589	1802.04
703.777	1851.19
703.965	1861.43
704.154	1916.73
704.342	2021.17
704.531	1902.39
704.719	1793.85
704.907	1894.2
705.096	1865.53
705.284	1861.43
705.472	1914.68
705.661	1838.91
705.849	1863.48
706.037	1814.33
706.226	1879.86
706.414	1945.4
706.602	1888.06
706.79	1855.29
706.979	1843
707.167	1843
707.355	1888.06
707.543	1707.84
707.731	1771.32
707.919	1756.99
708.107	1746.75
708.296	1851.19
708.484	1804.09
708.672	1773.37
708.86	1662.78
709.048	1750.84
709.236	1773.37
709.424	1806.14
709.612	1761.08
709.8	1791.8
709.988	1640.25
710.176	1752.89
710.364	1664.83
710.551	1660.73
710.739	1632.06
710.927	1630.01
711.115	1748.79
711.303	1802.04
711.491	1705.79
711.679	1705.79
711.866	1634.11
712.054	1724.22
712.242	1625.92
712.43	1603.39
712.617	1537.85
712.805	1564.48
712.993	1603.39
713.181	1568.57
713.368	1535.81
713.556	1638.2
713.744	1584.96
713.931	1525.57
714.119	1636.16
714.306	1597.24
714.494	1607.48
714.682	1617.72
714.869	1574.72
715.057	1566.53
715.244	1566.53
715.432	1595.2
715.619	1617.72
715.807	1445.7
715.994	1527.61
716.182	1566.53
716.369	1554.24
716.556	1464.13
716.744	1365.82
716.931	1476.41
717.119	1486.65
717.306	1527.61
717.493	1566.53
717.681	1496.89
717.868	1529.66
718.055	1429.31
718.242	1427.26
718.43	1539.9
718.617	1427.26
718.804	1531.71
718.991	1359.68
719.179	1345.34
719.366	1343.3
719.553	1353.54
719.74	1460.03
719.927	1451.84
720.114	1374.02
720.301	1419.07
720.488	1388.35
720.676	1408.83
720.863	1361.73
721.05	1470.27
721.237	1451.84
721.424	1347.39
721.611	1427.26
721.798	1359.68
721.985	1326.91
722.172	1355.58
722.358	1320.77
722.545	1288
722.732	1306.43
722.919	1337.15
723.106	1308.48
723.293	1374.02
723.48	1220.42
723.667	1335.1
723.853	1218.37
724.04	1234.75
724.227	1283.91
724.414	1220.42
724.6	1296.19
724.787	1259.33
724.974	1265.47
725.161	1306.43
725.347	1232.71
725.534	1251.14
725.72	1216.32
725.907	1222.47
726.094	1273.67
726.28	1206.08
726.467	1230.66
726.653	1218.37
726.84	1210.18
727.027	1343.3
727.213	1259.33
727.4	1222.47
727.586	1173.32
727.773	1187.65
727.959	1140.55
728.145	1195.84
728.332	1103.68
728.518	1101.64
728.705	1261.38
728.891	1070.92
729.077	1109.83
729.264	1083.2
729.45	1167.17
729.636	1199.94
729.823	1052.49
730.009	1230.66
730.195	1136.45
730.382	1204.03
730.568	1115.97
730.754	1126.21
730.94	1093.44
731.126	1191.75
731.313	1113.92
731.499	1130.31
731.685	1105.73
731.871	1052.49
732.057	1118.02
732.243	1091.4
732.429	1138.5
732.615	1079.11
732.801	1115.97
732.987	1021.77
733.173	1109.83
733.359	989
733.545	1052.49
733.731	1091.4
733.917	1138.5
734.103	1001.29
734.289	1072.96
734.475	1038.15
734.661	1050.44
734.847	1109.83
735.033	1001.29
735.219	976.71
735.404	1161.03
735.59	1021.77
735.776	1058.63
735.962	1062.73
736.148	1068.87
736.333	907.08
736.519	1032.01
736.705	1079.11
736.89	1062.73
737.076	997.19
737.262	972.61
737.447	1007.43
737.633	952.13
737.819	984.9
738.004	1029.96
738.19	958.28
738.375	919.37
738.561	999.24
738.747	931.66
738.932	954.18
739.118	1023.81
739.303	1013.57
739.489	972.61
739.674	984.9
739.859	880.46
740.045	972.61
740.23	970.57
740.416	843.59
740.601	892.74
740.786	970.57
740.972	915.27
741.157	909.13
741.342	886.6
741.528	886.6
741.713	917.32
741.898	868.17
742.084	870.22
742.269	864.07
742.454	892.74
742.639	939.85
742.824	868.17
743.01	808.78
743.195	907.08
743.38	905.03
743.565	814.92
743.75	874.31
743.935	857.93
744.12	923.46
744.305	812.87
744.49	831.3
744.675	859.98
744.86	833.35
745.045	851.78
745.23	823.11
745.415	892.74
745.6	810.82
745.785	827.21
745.97	876.36
746.155	886.6
746.34	812.87
746.525	833.35
746.71	759.63
746.895	819.02
747.079	790.35
747.264	784.2
747.449	722.76
747.634	800.59
747.819	700.23
748.003	747.34
748.188	687.95
748.373	821.06
748.557	710.47
748.742	755.53
748.927	683.85
749.111	788.3
749.296	649.04
749.481	745.29
749.665	667.47
749.85	739.15
750.034	692.04
750.219	683.85
750.404	651.08
750.588	730.95
750.773	730.95
750.957	712.52
751.141	706.38
751.326	657.23
751.51	689.99
751.695	634.7
751.879	626.51
752.064	692.04
752.248	593.74
752.432	733
752.617	659.28
752.801	665.42
752.985	692.04
753.17	632.65
753.354	616.27
753.538	591.69
753.722	550.73
753.907	606.03
754.091	565.07
754.275	638.8
754.459	653.13
754.643	567.12
754.828	610.12
755.012	595.79
755.196	616.27
755.38	573.26
755.564	681.8
755.748	567.12
755.932	618.32
756.116	550.73
756.3	532.3
756.484	515.92
756.668	479.05
756.852	583.5
757.036	585.55
757.22	552.78
757.404	507.73
757.588	532.3
757.772	554.83
757.956	595.79
758.14	491.34
758.323	517.97
758.507	507.73
758.691	450.38
758.875	567.12
759.059	515.92
759.242	503.63
759.426	573.26
759.61	481.1
759.794	509.77
759.977	509.77
760.161	438.09
760.345	485.2
760.528	546.64
760.712	460.62
760.895	522.06
761.079	474.96
761.263	429.9
761.446	429.9
761.63	434
761.813	427.85
761.997	474.96
762.18	491.34
762.364	446.29
762.547	460.62
762.731	401.23
762.914	444.24
763.098	534.35
763.281	528.21
763.464	501.58
763.648	460.62
763.831	446.29
764.015	425.81
764.198	378.7
764.381	395.09
764.564	427.85
764.748	431.95
764.931	409.42
765.114	456.53
765.297	495.44
765.481	452.43
765.664	446.29
765.847	448.33
766.03	431.95
766.213	436.05
766.397	452.43
766.58	479.05
766.763	421.71
766.946	403.28
767.129	458.57
767.312	452.43
767.495	343.89
767.678	423.76
767.861	397.14
768.044	413.52
768.227	468.81
768.41	395.09
768.593	421.71
768.776	405.33
768.959	378.7
769.142	489.29
769.324	444.24
769.507	425.81
769.69	411.47
769.873	386.9
770.056	360.27
770.239	454.48
770.421	411.47
770.604	417.61
770.787	350.03
770.97	405.33
771.152	364.37
771.335	356.18
771.518	401.23
771.7	390.99
771.883	427.85
772.066	378.7
772.248	393.04
772.431	442.19
772.613	386.9
772.796	284.5
772.978	313.17
773.161	376.66
773.343	319.31
773.526	384.85
773.708	356.18
773.891	274.26
774.073	358.22
774.256	300.88
774.438	388.94
774.621	307.02
774.803	331.6
774.985	331.6
775.168	333.65
775.35	358.22
775.532	405.33
775.715	302.93
775.897	307.02
776.079	362.32
776.261	284.5
776.444	339.79
776.626	311.12
776.808	294.74
776.99	286.54
777.173	335.7
777.355	362.32
777.537	290.64
777.719	343.89
777.901	253.78
778.083	341.84
778.265	331.6
778.447	284.5
778.629	350.03
778.811	298.83
778.993	292.69
779.175	296.78
779.357	333.65
779.539	321.36
779.721	302.93
779.903	386.9
780.085	319.31
780.267	282.45
780.449	321.36
780.631	270.16
780.812	243.54
780.994	264.02
781.176	259.92
781.358	270.16
781.54	300.88
781.721	221.01
781.903	243.54
782.085	341.84
782.267	378.7
782.448	270.16
782.63	284.5
782.812	282.45
782.993	290.64
783.175	233.3
783.357	227.15
783.538	362.32
783.72	235.35
783.901	300.88
784.083	227.15
784.264	268.11
784.446	231.25
784.627	272.21
784.809	200.53
784.99	257.87
785.172	255.83
785.353	216.91
785.535	198.48
785.716	261.97
785.897	192.34
786.079	196.43
786.26	208.72
786.441	175.95
786.623	206.67
786.804	204.63
786.985	268.11
787.167	214.87
787.348	120.66
787.529	132.95
787.71	243.54
787.891	198.48
788.073	225.11
788.254	173.91
788.435	202.58
788.616	247.63
788.797	178
788.978	178
789.159	186.19
789.34	208.72
789.522	85.84
789.703	147.28
789.884	151.38
790.065	116.56
790.246	141.14
790.427	212.82
790.607	202.58
790.788	180.05
790.969	167.76
791.15	264.02
791.331	255.83
791.512	141.14
791.693	159.57
791.874	157.52
792.054	182.1
792.235	212.82
792.416	280.4
792.597	182.1
792.778	155.47
792.958	135
793.139	186.19
793.32	227.15
793.5	186.19
793.681	190.29
793.862	122.71
794.042	149.33
794.223	178
794.404	186.19
794.584	139.09
794.765	126.8
794.945	167.76
795.126	128.85
795.306	155.47
795.487	151.38
795.667	167.76
795.848	128.85
796.028	100.18
796.209	143.19
796.389	137.04
796.57	143.19
796.75	143.19
796.93	143.19
797.111	163.67
797.291	194.39
797.471	147.28
797.652	120.66
797.832	46.93
798.012	200.53
798.192	114.52
798.373	110.42
798.553	38.74
798.733	147.28
798.913	139.09
799.093	149.33
799.274	120.66
799.454	145.24
799.634	110.42
799.814	98.13
799.994	159.57
800.174	163.67
800.354	135
800.534	71.51
800.714	46.93
800.894	102.23
801.074	104.28
801.254	171.86
801.434	114.52
801.614	194.39
801.794	122.71
801.974	272.21
802.154	223.06
802.334	67.41
802.514	94.04
802.693	126.8
802.873	16.21
803.053	178
803.233	147.28
803.413	167.76
803.592	85.84
803.772	163.67
803.952	122.71
804.131	104.28
804.311	116.56
804.491	159.57
804.67	79.7
804.85	83.8
805.03	81.75
805.209	63.32
805.389	104.28
805.568	106.32
805.748	34.64
805.928	141.14
806.107	141.14
806.287	102.23
806.466	51.03
806.646	57.17
806.825	81.75
807.004	122.71
807.184	110.42
807.363	112.47
807.543	128.85
807.722	122.71
807.901	100.18
808.081	116.56
808.26	81.75
808.439	85.84
808.619	57.17
808.798	53.08
808.977	77.65
809.156	120.66
809.336	75.6
809.515	137.04
809.694	34.64
809.873	124.76
810.052	96.08
810.231	110.42
810.411	98.13
810.59	96.08
810.769	63.32
810.948	63.32
811.127	67.41
811.306	91.99
811.485	106.32
811.664	112.47
811.843	67.41
812.022	98.13
812.201	55.12
812.38	1.88
812.559	81.75
812.737	112.47
812.916	36.69
813.095	102.23
813.274	87.89
813.453	65.36
813.632	89.94
813.811	128.85
813.989	40.79
814.168	96.08
814.347	110.42
814.526	120.66
814.704	67.41
814.883	83.8
815.062	122.71
815.24	89.94
815.419	67.41
815.598	16.21
815.776	91.99
815.955	73.56
816.133	59.22
816.312	59.22
816.49	77.65
816.669	57.17
816.847	96.08
817.026	83.8
817.204	108.37
817.383	-22.7
817.561	28.5
817.74	46.93
817.918	116.56
818.097	28.5
818.275	34.64
818.453	-8.36
818.632	55.12
818.81	85.84
818.988	48.98
819.167	46.93
819.345	65.36
819.523	61.27
819.701	44.88
819.879	91.99
820.058	94.04
820.236	96.08
820.414	83.8
820.592	-2.22
820.77	55.12
820.948	-0.17
821.127	63.32
821.305	118.61
821.483	44.88
821.661	120.66
821.839	69.46
822.017	-14.51
822.195	22.36
822.373	30.55
822.551	122.71
822.729	30.55
822.907	104.28
823.085	-45.23
823.262	116.56
823.44	-14.51
823.618	65.36
823.796	53.08
823.974	114.52
824.152	116.56
824.329	71.51
824.507	118.61
824.685	38.74
824.863	42.84
825.04	36.69
825.218	12.12
825.396	48.98
825.574	22.36
825.751	69.46
825.929	120.66
826.107	16.21
826.284	67.41
826.462	-0.17
826.639	79.7
826.817	-12.46
826.994	87.89
827.172	12.12
827.349	73.56
827.527	42.84
827.704	34.64
827.882	38.74
828.059	40.79
828.237	73.56
828.414	106.32
828.591	-6.31
828.769	96.08
828.946	24.4
829.124	53.08
829.301	-18.6
829.478	1.88
829.655	67.41
829.833	69.46
830.01	-10.41
830.187	83.8
830.364	81.75
830.542	20.31
830.719	51.03
830.896	108.37
831.073	32.6
831.25	75.6
831.427	61.27
831.604	34.64
831.782	89.94
831.959	30.55
832.136	-24.75
832.313	42.84
832.49	114.52
832.667	36.69
832.844	94.04
833.021	-8.36
833.198	1.88
833.374	75.6
833.551	153.43
833.728	-8.36
833.905	85.84
834.082	48.98
834.259	100.18
834.436	87.89
834.612	87.89
834.789	32.6
834.966	87.89
835.143	-14.51
835.319	-2.22
835.496	55.12
835.673	32.6
835.85	79.7
836.026	18.26
836.203	98.13
836.38	87.89
836.556	-18.6
836.733	5.97
836.909	104.28
837.086	8.02
837.262	38.74
837.439	16.21
837.616	10.07
837.792	8.02
837.968	28.5
838.145	-8.36
838.321	10.07
838.498	89.94
838.674	-0.17
838.851	46.93
839.027	1.88
839.203	46.93
839.38	36.69
839.556	36.69
839.732	12.12
839.909	57.17
840.085	28.5
840.261	51.03
840.437	-8.36
840.614	32.6
840.79	94.04
840.966	-12.46
841.142	89.94
841.318	85.84
841.494	-43.18
841.671	36.69
841.847	26.45
842.023	8.02
842.199	-0.17
842.375	10.07
842.551	3.93
842.727	38.74
842.903	10.07
843.079	24.4
843.255	55.12
843.431	-43.18
843.607	22.36
843.783	24.4
843.959	65.36
844.134	1.88
844.31	36.69
844.486	20.31
844.662	46.93
844.838	-12.46
845.013	36.69
845.189	-24.75
845.365	3.93
845.541	5.97
845.716	40.79
845.892	18.26
846.068	79.7
846.244	-18.6
846.419	-18.6
846.595	30.55
846.77	40.79
846.946	18.26
847.122	1.88
847.297	-34.99
847.473	34.64
847.648	-34.99
847.824	26.45
847.999	1.88
848.175	38.74
848.35	12.12
848.526	87.89
848.701	14.17
848.876	-22.7
849.052	22.36
849.227	28.5
849.403	100.18
849.578	-43.18
849.753	32.6
849.929	18.26
850.104	44.88
850.279	5.97
850.454	-0.17
850.63	40.79
850.805	-39.08
850.98	79.7
851.155	46.93
851.33	-2.22
851.505	3.93
851.681	18.26
851.856	67.41
852.031	55.12
852.206	44.88
852.381	18.26
852.556	61.27
852.731	79.7
852.906	-6.31
853.081	73.56
853.256	48.98
853.431	16.21
853.606	36.69
853.781	-75.95
853.956	30.55
854.131	1.88
854.305	10.07
854.48	-24.75
854.655	-39.08
854.83	24.4
855.005	126.8
855.18	59.22
855.354	77.65
855.529	-26.79
855.704	14.17
855.879	51.03
856.053	-2.22
856.228	-57.51
856.403	20.31
856.577	24.4
856.752	-14.51
856.926	24.4
857.101	63.32
857.276	14.17
857.45	75.6
857.625	16.21
857.799	-41.13
857.974	63.32
858.148	26.45
858.323	59.22
858.497	-10.41
858.672	36.69
858.846	-16.55
859.02	16.21
859.195	16.21
859.369	20.31
859.543	77.65
859.718	-34.99
859.892	65.36
860.066	22.36
860.241	8.02
860.415	24.4
860.589	48.98
860.763	22.36
860.938	1.88
861.112	10.07
861.286	100.18
861.46	-43.18
861.634	-51.37
861.808	5.97
861.982	18.26
862.157	-4.27
862.331	-2.22
862.505	-14.51
862.679	34.64
862.853	24.4
863.027	24.4
863.201	-10.41
863.375	48.98
863.549	59.22
863.722	-12.46
863.896	73.56
864.07	-65.71
864.244	18.26
864.418	32.6
864.592	16.21
864.766	8.02
864.939	8.02
865.113	14.17
865.287	30.55
865.461	67.41
865.634	36.69
865.808	67.41
865.982	-4.27
866.156	55.12
866.329	30.55
866.503	-30.89
866.676	20.31
866.85	10.07
867.024	69.46
867.197	69.46
867.371	24.4
867.544	-55.47
867.718	18.26
867.891	28.5
868.065	81.75
868.238	1.88
868.412	40.79
868.585	-32.94
868.759	30.55
868.932	22.36
869.105	85.84
869.279	12.12
869.452	1.88
869.625	5.97
869.799	20.31
869.972	-53.42
870.145	34.64
870.319	102.23
870.492	53.08
870.665	16.21
870.838	-20.65
871.011	-34.99
871.185	18.26
871.358	18.26
871.531	55.12
871.704	-28.84
871.877	96.08
872.05	14.17
872.223	42.84
872.396	-47.27
872.569	46.93
872.742	-24.75
872.915	-4.27
873.088	28.5
873.261	46.93
873.434	22.36
873.607	-28.84
873.78	5.97
873.953	-20.65
874.126	-26.79
874.299	26.45
874.471	91.99
874.644	-80.04
874.817	1.88
874.99	16.21
875.163	-24.75
875.335	44.88
875.508	-2.22
875.681	-16.55
875.853	51.03
876.026	48.98
876.199	36.69
876.371	5.97
876.544	-26.79
876.717	40.79
876.889	1.88
877.062	30.55
877.234	-32.94
877.407	65.36
877.579	26.45
877.752	-45.23
877.924	5.97
878.097	24.4
878.269	-39.08
878.442	44.88
878.614	69.46
878.786	28.5
878.959	-39.08
879.131	-39.08
879.303	14.17
879.476	-28.84
879.648	34.64
879.82	26.45
879.993	-39.08
880.165	16.21
880.337	77.65
880.509	24.4
880.681	3.93
880.854	-0.17
881.026	8.02
881.198	20.31
881.37	-4.27
881.542	71.51
881.714	40.79
881.886	-6.31
882.058	5.97
882.23	-43.18
882.402	-4.27
882.574	-6.31
882.746	44.88
882.918	61.27
883.09	26.45
883.262	38.74
883.434	-28.84
883.606	42.84
883.778	3.93
883.95	5.97
884.122	-51.37
884.293	-10.41
884.465	10.07
884.637	24.4
884.809	26.45
884.98	38.74
885.152	40.79
885.324	-34.99
885.496	1.88
885.667	-6.31
885.839	12.12
886.011	-90.28
886.182	12.12
886.354	5.97
886.525	28.5
886.697	3.93
886.869	1.88
887.04	-2.22
887.212	-34.99
887.383	85.84
887.555	-32.94
887.726	3.93
887.897	-37.03
888.069	32.6
888.24	-43.18
888.412	98.13
888.583	10.07
888.754	-8.36
888.926	8.02
889.097	-0.17
889.268	98.13
889.44	16.21
889.611	28.5
889.782	28.5
889.953	8.02
890.125	-6.31
890.296	36.69
890.467	1.88
890.638	-14.51
890.809	10.07
890.98	30.55
891.151	24.4
891.323	40.79
891.494	20.31
891.665	16.21
891.836	34.64
892.007	-0.17
892.178	-28.84
892.349	-10.41
892.52	-73.9
892.691	-71.85
892.862	53.08
893.032	-45.23
893.203	14.17
893.374	5.97
893.545	3.93
893.716	-18.6
893.887	26.45
894.057	-20.65
894.228	22.36
894.399	-41.13
894.57	57.17
894.74	-26.79
894.911	10.07
895.082	3.93
895.253	30.55
895.423	-6.31
895.594	-14.51
895.764	8.02
895.935	34.64
896.106	-8.36
896.276	3.93
896.447	-43.18
896.617	-4.27
896.788	-2.22
896.958	-57.51
897.129	26.45
897.299	18.26
897.47	51.03
897.64	-47.27
897.81	-8.36
897.981	-4.27
898.151	5.97
898.322	30.55
898.492	8.02
898.662	-55.47
898.832	-6.31
899.003	81.75
899.173	-10.41
899.343	3.93
899.513	3.93
