Data from USB4F104151__187__13-59-10-970.txt Node

Date: Thu Mar 13 13:59:10 EDT 2025
User: louis
Spectrometer: USB4F10415
Trigger mode: 4
Integration Time (sec): 1.000000E-2
Scans to average: 1
Electric dark correction enabled: true
Nonlinearity correction enabled: false
Boxcar width: 0
XAxis mode: Wavelengths
Number of Pixels in Spectrum: 3648
>>>>>Begin Spectral Data<<<<<
178.204	-31.91
178.424	-31.91
178.644	-31.91
178.864	-15.53
179.084	-58.54
179.304	-29.87
179.524	-31.91
179.744	-15.53
179.964	33.62
180.184	50
180.404	-13.48
180.624	21.33
180.844	-19.63
181.064	9.05
181.283	29.52
181.503	-42.15
181.723	9.05
181.943	23.38
182.163	-48.3
182.383	-21.67
182.602	19.29
182.822	-19.63
183.042	-29.87
183.262	-1.19
183.482	21.33
183.701	11.09
183.921	76.63
184.141	31.57
184.361	21.33
184.58	-11.43
184.8	-5.29
185.02	11.09
185.239	33.62
185.459	68.44
185.679	17.24
185.898	31.57
186.118	-15.53
186.338	23.38
186.557	60.24
186.777	-56.49
186.997	-29.87
187.216	-29.87
187.436	-31.91
187.655	-50.35
187.875	35.67
188.095	0.85
188.314	84.82
188.534	-33.96
188.753	-13.48
188.973	-15.53
189.192	0.85
189.412	-62.63
189.631	-13.48
189.851	37.72
190.07	25.43
190.29	-36.01
190.509	25.43
190.729	9.05
190.948	27.48
191.168	19.29
191.387	47.96
191.607	-60.59
191.826	13.14
192.045	13.14
192.265	33.62
192.484	56.15
192.704	19.29
192.923	-31.91
193.142	47.96
193.362	-48.3
193.581	-36.01
193.8	19.29
194.02	66.39
194.239	-33.96
194.458	-27.82
194.678	-93.35
194.897	33.62
195.116	-40.11
195.335	-9.39
195.555	35.67
195.774	4.95
195.993	-11.43
196.212	0.85
196.432	27.48
196.651	-13.48
196.87	47.96
197.089	50
197.308	50
197.528	33.62
197.747	-7.34
197.966	-42.15
198.185	-1.19
198.404	0.85
198.623	54.1
198.842	-38.06
199.062	47.96
199.281	0.85
199.5	31.57
199.719	-17.58
199.938	62.29
200.157	17.24
200.376	39.76
200.595	7
200.814	11.09
201.033	76.63
201.252	15.19
201.471	21.33
201.69	62.29
201.909	23.38
202.128	-7.34
202.347	-25.77
202.566	-3.24
202.785	50
203.004	23.38
203.223	-1.19
203.442	-9.39
203.661	19.29
203.879	66.39
204.098	-11.43
204.317	37.72
204.536	-11.43
204.755	11.09
204.974	13.14
205.193	52.05
205.411	37.72
205.63	17.24
205.849	19.29
206.068	-11.43
206.287	-15.53
206.505	31.57
206.724	-3.24
206.943	21.33
207.162	62.29
207.381	56.15
207.599	29.52
207.818	50
208.037	-17.58
208.255	0.85
208.474	-48.3
208.693	9.05
208.911	68.44
209.13	52.05
209.349	21.33
209.567	-5.29
209.786	66.39
210.005	33.62
210.223	-1.19
210.442	19.29
210.661	33.62
210.879	39.76
211.098	54.1
211.316	-5.29
211.535	4.95
211.753	-52.39
211.972	19.29
212.191	70.48
212.409	142.16
212.628	-7.34
212.846	-21.67
213.065	21.33
213.283	0.85
213.502	74.58
213.72	-89.26
213.938	-40.11
214.157	60.24
214.375	-76.97
214.594	33.62
214.812	78.68
215.031	45.91
215.249	39.76
215.467	0.85
215.686	54.1
215.904	45.91
216.122	-29.87
216.341	27.48
216.559	-23.72
216.778	64.34
216.996	50
217.214	45.91
217.432	74.58
217.651	37.72
217.869	-17.58
218.087	0.85
218.306	107.35
218.524	-46.25
218.742	56.15
218.96	-9.39
219.179	90.96
219.397	39.76
219.615	-7.34
219.833	-33.96
220.051	4.95
220.27	68.44
220.488	-36.01
220.706	-7.34
220.924	-33.96
221.142	66.39
221.36	17.24
221.578	-3.24
221.796	68.44
222.015	60.24
222.233	17.24
222.451	-5.29
222.669	4.95
222.887	54.1
223.105	-31.91
223.323	54.1
223.541	-11.43
223.759	125.78
223.977	-13.48
224.195	43.86
224.413	25.43
224.631	-5.29
224.849	-42.15
225.067	19.29
225.285	23.38
225.503	62.29
225.721	-15.53
225.939	-25.77
226.157	-7.34
226.375	45.91
226.592	31.57
226.81	56.15
227.028	4.95
227.246	9.05
227.464	29.52
227.682	23.38
227.9	17.24
228.117	25.43
228.335	-27.82
228.553	-5.29
228.771	31.57
228.989	7
229.206	-21.67
229.424	33.62
229.642	11.09
229.86	-19.63
230.077	66.39
230.295	52.05
230.513	41.81
230.731	13.14
230.948	31.57
231.166	27.48
231.384	-17.58
231.601	52.05
231.819	68.44
232.037	17.24
232.254	4.95
232.472	-60.59
232.689	-29.87
232.907	0.85
233.125	19.29
233.342	17.24
233.56	27.48
233.777	-21.67
233.995	-19.63
234.213	21.33
234.43	101.2
234.648	-1.19
234.865	35.67
235.083	19.29
235.3	-36.01
235.518	56.15
235.735	27.48
235.953	78.68
236.17	-42.15
236.388	25.43
236.605	2.9
236.822	-7.34
237.04	-19.63
237.257	25.43
237.475	27.48
237.692	41.81
237.909	76.63
238.127	19.29
238.344	78.68
238.562	103.25
238.779	25.43
238.996	2.9
239.214	-62.63
239.431	-38.06
239.648	21.33
239.865	80.72
240.083	9.05
240.3	47.96
240.517	64.34
240.735	37.72
240.952	45.91
241.169	17.24
241.386	37.72
241.603	74.58
241.821	9.05
242.038	15.19
242.255	37.72
242.472	-1.19
242.689	43.86
242.907	9.05
243.124	0.85
243.341	-44.2
243.558	-7.34
243.775	17.24
243.992	-3.24
244.209	21.33
244.426	54.1
244.643	35.67
244.86	-13.48
245.078	-13.48
245.295	17.24
245.512	-40.11
245.729	-11.43
245.946	62.29
246.163	-17.58
246.38	-3.24
246.597	68.44
246.814	21.33
247.031	13.14
247.248	19.29
247.464	25.43
247.681	23.38
247.898	-70.83
248.115	80.72
248.332	43.86
248.549	68.44
248.766	39.76
248.983	60.24
249.2	-27.82
249.417	74.58
249.633	-13.48
249.85	82.77
250.067	-56.49
250.284	25.43
250.501	50
250.717	74.58
250.934	-48.3
251.151	23.38
251.368	23.38
251.585	9.05
251.801	-23.72
252.018	-50.35
252.235	29.52
252.451	25.43
252.668	-15.53
252.885	9.05
253.102	-11.43
253.318	17.24
253.535	39.76
253.752	25.43
253.968	-7.34
254.185	-31.91
254.401	41.81
254.618	19.29
254.835	-56.49
255.051	142.16
255.268	15.19
255.484	11.09
255.701	-31.91
255.917	11.09
256.134	-62.63
256.351	29.52
256.567	-11.43
256.784	43.86
257	-38.06
257.217	25.43
257.433	-17.58
257.65	58.2
257.866	17.24
258.082	-13.48
258.299	41.81
258.515	43.86
258.732	-33.96
258.948	4.95
259.165	-25.77
259.381	58.2
259.597	41.81
259.814	15.19
260.03	19.29
260.246	-54.44
260.463	37.72
260.679	47.96
260.895	4.95
261.112	11.09
261.328	-1.19
261.544	66.39
261.761	52.05
261.977	17.24
262.193	50
262.409	9.05
262.626	39.76
262.842	39.76
263.058	19.29
263.274	41.81
263.49	78.68
263.707	101.2
263.923	-27.82
264.139	27.48
264.355	45.91
264.571	11.09
264.787	64.34
265.004	90.96
265.22	35.67
265.436	43.86
265.652	19.29
265.868	-11.43
266.084	-64.68
266.3	45.91
266.516	17.24
266.732	-21.67
266.948	-29.87
267.164	9.05
267.38	23.38
267.596	-44.2
267.812	19.29
268.028	-7.34
268.244	-13.48
268.46	-5.29
268.676	-5.29
268.892	-7.34
269.108	19.29
269.324	-27.82
269.54	97.11
269.756	-23.72
269.972	-54.44
270.188	45.91
270.403	-89.26
270.619	27.48
270.835	-19.63
271.051	15.19
271.267	82.77
271.483	66.39
271.698	0.85
271.914	41.81
272.13	60.24
272.346	-54.44
272.562	35.67
272.777	64.34
272.993	-13.48
273.209	90.96
273.425	50
273.64	-27.82
273.856	0.85
274.072	45.91
274.287	-17.58
274.503	27.48
274.719	13.14
274.934	15.19
275.15	-76.97
275.366	103.25
275.581	-23.72
275.797	52.05
276.012	-7.34
276.228	-46.25
276.444	-15.53
276.659	70.48
276.875	-85.16
277.09	13.14
277.306	58.2
277.521	35.67
277.737	-7.34
277.952	33.62
278.168	27.48
278.383	15.19
278.599	58.2
278.814	11.09
279.03	64.34
279.245	101.2
279.461	27.48
279.676	27.48
279.892	-38.06
280.107	-15.53
280.322	13.14
280.538	45.91
280.753	-5.29
280.969	29.52
281.184	58.2
281.399	58.2
281.615	-15.53
281.83	68.44
282.045	43.86
282.26	68.44
282.476	0.85
282.691	9.05
282.906	29.52
283.122	-15.53
283.337	-29.87
283.552	0.85
283.767	-29.87
283.983	50
284.198	33.62
284.413	41.81
284.628	27.48
284.843	-36.01
285.058	2.9
285.274	11.09
285.489	2.9
285.704	58.2
285.919	-11.43
286.134	-9.39
286.349	-60.59
286.564	37.72
286.779	115.54
286.995	-29.87
287.21	11.09
287.425	4.95
287.64	-27.82
287.855	29.52
288.07	52.05
288.285	11.09
288.5	84.82
288.715	27.48
288.93	-29.87
289.145	-13.48
289.36	82.77
289.575	74.58
289.79	-21.67
290.004	33.62
290.219	50
290.434	9.05
290.649	86.87
290.864	-19.63
291.079	-29.87
291.294	31.57
291.509	68.44
291.724	25.43
291.938	29.52
292.153	27.48
292.368	29.52
292.583	-15.53
292.798	-38.06
293.012	50
293.227	13.14
293.442	-15.53
293.657	33.62
293.871	80.72
294.086	54.1
294.301	39.76
294.516	27.48
294.73	21.33
294.945	33.62
295.16	11.09
295.374	7
295.589	35.67
295.804	-1.19
296.018	-3.24
296.233	-7.34
296.447	-13.48
296.662	4.95
296.877	43.86
297.091	-27.82
297.306	78.68
297.52	2.9
297.735	-15.53
297.949	37.72
298.164	33.62
298.378	66.39
298.593	2.9
298.807	41.81
299.022	19.29
299.236	17.24
299.451	15.19
299.665	-60.59
299.88	56.15
300.094	76.63
300.309	31.57
300.523	39.76
300.737	37.72
300.952	11.09
301.166	21.33
301.381	17.24
301.595	56.15
301.809	54.1
302.024	4.95
302.238	-13.48
302.452	41.81
302.667	56.15
302.881	17.24
303.095	-19.63
303.309	54.1
303.524	37.72
303.738	80.72
303.952	-21.67
304.166	17.24
304.381	9.05
304.595	76.63
304.809	35.67
305.023	45.91
305.237	19.29
305.452	23.38
305.666	-52.39
305.88	76.63
306.094	-5.29
306.308	60.24
306.522	21.33
306.736	101.2
306.95	-54.44
307.164	50
307.379	-9.39
307.593	72.53
307.807	99.16
308.021	27.48
308.235	21.33
308.449	103.25
308.663	64.34
308.877	64.34
309.091	-9.39
309.305	43.86
309.519	-5.29
309.733	27.48
309.947	-13.48
310.161	-7.34
310.374	21.33
310.588	-15.53
310.802	4.95
311.016	21.33
311.23	41.81
311.444	56.15
311.658	2.9
311.872	-21.67
312.085	58.2
312.299	60.24
312.513	29.52
312.727	35.67
312.941	-13.48
313.154	50
313.368	-48.3
313.582	-9.39
313.796	-42.15
314.009	-3.24
314.223	101.2
314.437	-50.35
314.651	-15.53
314.864	39.76
315.078	-38.06
315.292	9.05
315.505	4.95
315.719	17.24
315.933	17.24
316.146	-58.54
316.36	-38.06
316.573	-9.39
316.787	11.09
317.001	50
317.214	7
317.428	152.4
317.641	7
317.855	43.86
318.068	-5.29
318.282	33.62
318.495	84.82
318.709	33.62
318.922	37.72
319.136	66.39
319.349	0.85
319.563	52.05
319.776	45.91
319.99	84.82
320.203	15.19
320.417	-5.29
320.63	-5.29
320.843	56.15
321.057	21.33
321.27	99.16
321.483	45.91
321.697	31.57
321.91	-44.2
322.124	27.48
322.337	-33.96
322.55	45.91
322.763	-1.19
322.977	41.81
323.19	60.24
323.403	90.96
323.617	25.43
323.83	76.63
324.043	39.76
324.256	66.39
324.469	-17.58
324.683	95.06
324.896	47.96
325.109	17.24
325.322	-21.67
325.535	31.57
325.748	50
325.962	0.85
326.175	27.48
326.388	-11.43
326.601	144.21
326.814	-7.34
327.027	-38.06
327.24	35.67
327.453	35.67
327.666	33.62
327.879	9.05
328.092	35.67
328.305	-29.87
328.518	-27.82
328.731	43.86
328.944	-56.49
329.157	-52.39
329.37	64.34
329.583	-29.87
329.796	33.62
330.009	33.62
330.222	0.85
330.435	54.1
330.648	-21.67
330.861	17.24
331.073	-25.77
331.286	62.29
331.499	-15.53
331.712	-11.43
331.925	-29.87
332.138	41.81
332.35	47.96
332.563	0.85
332.776	17.24
332.989	72.53
333.202	-13.48
333.414	27.48
333.627	-7.34
333.84	50
334.053	7
334.265	21.33
334.478	-5.29
334.691	-48.3
334.903	0.85
335.116	54.1
335.329	-13.48
335.541	13.14
335.754	35.67
335.966	50
336.179	50
336.392	52.05
336.604	4.95
336.817	-27.82
337.029	50
337.242	2.9
337.454	27.48
337.667	60.24
337.88	82.77
338.092	35.67
338.305	4.95
338.517	13.14
338.729	11.09
338.942	35.67
339.154	25.43
339.367	88.92
339.579	-1.19
339.792	19.29
340.004	-33.96
340.217	-5.29
340.429	60.24
340.641	11.09
340.854	2.9
341.066	-40.11
341.278	31.57
341.491	37.72
341.703	11.09
341.915	-1.19
342.128	21.33
342.34	-52.39
342.552	-13.48
342.764	19.29
342.977	-23.72
343.189	-13.48
343.401	-7.34
343.613	7
343.826	19.29
344.038	58.2
344.25	43.86
344.462	62.29
344.674	56.15
344.886	86.87
345.099	11.09
345.311	43.86
345.523	25.43
345.735	19.29
345.947	52.05
346.159	43.86
346.371	0.85
346.583	56.15
346.795	54.1
347.007	27.48
347.219	58.2
347.431	25.43
347.643	-23.72
347.855	35.67
348.067	58.2
348.279	-11.43
348.491	21.33
348.703	4.95
348.915	39.76
349.127	74.58
349.339	17.24
349.551	86.87
349.763	17.24
349.975	54.1
350.187	-7.34
350.399	31.57
350.61	43.86
350.822	0.85
351.034	58.2
351.246	60.24
351.458	0.85
351.669	-42.15
351.881	78.68
352.093	41.81
352.305	62.29
352.517	19.29
352.728	41.81
352.94	21.33
353.152	7
353.363	-27.82
353.575	-31.91
353.787	72.53
353.999	47.96
354.21	41.81
354.422	72.53
354.633	-21.67
354.845	0.85
355.057	43.86
355.268	31.57
355.48	-21.67
355.692	4.95
355.903	-17.58
356.115	33.62
356.326	-42.15
356.538	68.44
356.749	-7.34
356.961	41.81
357.172	60.24
357.384	74.58
357.595	74.58
357.807	37.72
358.018	0.85
358.23	23.38
358.441	58.2
358.653	43.86
358.864	62.29
359.075	-17.58
359.287	2.9
359.498	31.57
359.709	39.76
359.921	31.57
360.132	74.58
360.344	82.77
360.555	-5.29
360.766	52.05
360.977	56.15
361.189	9.05
361.4	39.76
361.611	54.1
361.823	50
362.034	-15.53
362.245	0.85
362.456	-29.87
362.667	72.53
362.879	56.15
363.09	58.2
363.301	90.96
363.512	37.72
363.723	99.16
363.935	2.9
364.146	56.15
364.357	43.86
364.568	25.43
364.779	41.81
364.99	52.05
365.201	17.24
365.412	90.96
365.623	17.24
365.834	66.39
366.045	93.01
366.256	29.52
366.467	58.2
366.678	78.68
366.889	43.86
367.1	54.1
367.311	-7.34
367.522	-7.34
367.733	56.15
367.944	-25.77
368.155	56.15
368.366	29.52
368.577	70.48
368.788	35.67
368.999	27.48
369.209	27.48
369.42	35.67
369.631	84.82
369.842	0.85
370.053	-15.53
370.264	56.15
370.474	-17.58
370.685	37.72
370.896	-17.58
371.107	15.19
371.317	39.76
371.528	11.09
371.739	43.86
371.95	35.67
372.16	41.81
372.371	29.52
372.582	39.76
372.792	99.16
373.003	25.43
373.214	58.2
373.424	76.63
373.635	7
373.846	62.29
374.056	-5.29
374.267	9.05
374.477	58.2
374.688	9.05
374.898	39.76
375.109	4.95
375.319	119.64
375.53	27.48
375.74	-7.34
375.951	2.9
376.161	-7.34
376.372	19.29
376.582	0.85
376.793	93.01
377.003	33.62
377.214	35.67
377.424	62.29
377.635	43.86
377.845	39.76
378.055	41.81
378.266	23.38
378.476	70.48
378.686	11.09
378.897	17.24
379.107	66.39
379.317	19.29
379.528	70.48
379.738	113.49
379.948	9.05
380.158	82.77
380.369	60.24
380.579	86.87
380.789	35.67
380.999	60.24
381.21	-15.53
381.42	72.53
381.63	74.58
381.84	50
382.05	47.96
382.261	95.06
382.471	37.72
382.681	2.9
382.891	84.82
383.101	66.39
383.311	23.38
383.521	105.3
383.731	105.3
383.941	58.2
384.151	35.67
384.361	13.14
384.571	54.1
384.781	29.52
384.991	90.96
385.201	43.86
385.411	43.86
385.621	99.16
385.831	56.15
386.041	17.24
386.251	101.2
386.461	58.2
386.671	-3.24
386.881	19.29
387.091	39.76
387.301	90.96
387.511	0.85
387.72	39.76
387.93	60.24
388.14	35.67
388.35	58.2
388.56	37.72
388.769	-23.72
388.979	25.43
389.189	25.43
389.399	74.58
389.609	11.09
389.818	0.85
390.028	66.39
390.238	86.87
390.447	7
390.657	29.52
390.867	19.29
391.076	-27.82
391.286	-31.91
391.496	50
391.705	25.43
391.915	50
392.125	21.33
392.334	-13.48
392.544	13.14
392.753	86.87
392.963	15.19
393.172	58.2
393.382	25.43
393.591	105.3
393.801	-15.53
394.01	33.62
394.22	0.85
394.429	60.24
394.639	64.34
394.848	93.01
395.058	58.2
395.267	62.29
395.477	-3.24
395.686	119.64
395.895	-1.19
396.105	84.82
396.314	-29.87
396.524	52.05
396.733	13.14
396.942	78.68
397.152	23.38
397.361	50
397.57	103.25
397.78	68.44
397.989	9.05
398.198	82.77
398.407	-9.39
398.617	31.57
398.826	45.91
399.035	101.2
399.244	45.91
399.453	95.06
399.663	41.81
399.872	127.83
400.081	64.34
400.29	105.3
400.499	-46.25
400.708	84.82
400.917	58.2
401.127	148.31
401.336	33.62
401.545	64.34
401.754	68.44
401.963	99.16
402.172	84.82
402.381	11.09
402.59	29.52
402.799	93.01
403.008	97.11
403.217	174.93
403.426	80.72
403.635	47.96
403.844	31.57
404.053	103.25
404.262	43.86
404.471	189.27
404.68	86.87
404.888	27.48
405.097	19.29
405.306	99.16
405.515	54.1
405.724	97.11
405.933	86.87
406.142	113.49
406.35	150.36
406.559	113.49
406.768	127.83
406.977	88.92
407.185	119.64
407.394	113.49
407.603	84.82
407.812	95.06
408.02	99.16
408.229	93.01
408.438	138.07
408.646	183.12
408.855	205.65
409.064	176.98
409.272	160.59
409.481	205.65
409.69	199.51
409.898	234.32
410.107	244.56
410.315	107.35
410.524	174.93
410.733	195.41
410.941	236.37
411.15	219.99
411.358	252.75
411.567	265.04
411.775	287.57
411.984	267.09
412.192	262.99
412.401	219.99
412.609	281.43
412.818	287.57
413.026	338.77
413.234	285.52
413.443	301.9
413.651	310.1
413.86	303.95
414.068	371.54
414.276	353.1
414.485	385.87
414.693	426.83
414.901	428.88
415.11	402.26
415.318	484.17
415.526	451.41
415.734	500.56
415.943	496.46
416.151	437.07
416.359	539.47
416.567	535.37
416.776	582.48
416.984	582.48
417.192	619.34
417.4	650.06
417.608	549.71
417.817	682.83
418.025	686.92
418.233	717.64
418.441	684.87
418.649	682.83
418.857	734.03
419.065	693.07
419.273	715.59
419.481	820.04
419.689	803.66
419.897	926.54
420.105	848.71
420.313	926.54
420.521	901.96
420.729	1016.65
420.937	1035.08
421.145	961.35
421.353	1112.9
421.561	1180.48
421.769	1141.57
421.977	1209.15
422.185	1178.44
422.393	1213.25
422.601	1319.75
422.809	1325.89
423.017	1385.28
423.224	1452.86
423.432	1467.2
423.64	1344.32
423.848	1612.6
424.056	1600.32
424.263	1725.24
424.471	1667.9
424.679	1674.04
424.887	1782.59
425.094	1803.07
425.302	1850.17
425.51	1921.85
425.718	1917.75
425.925	1897.27
426.133	2116.41
426.341	2169.65
426.548	2265.91
426.756	2183.99
426.964	2360.11
427.171	2429.74
427.379	2405.17
427.586	2616.11
427.794	2583.34
428.001	2749.23
428.209	2837.29
428.417	2810.67
428.624	2951.98
428.832	2868.01
429.039	3081
429.247	3091.24
429.454	3230.5
429.662	3445.54
429.869	3210.02
430.076	3423.01
430.284	3449.63
430.491	3494.69
430.699	3670.81
430.906	3664.67
431.114	3816.22
431.321	3961.62
431.528	3916.57
431.736	4102.93
431.943	4367.12
432.15	4246.29
432.358	4266.77
432.565	4571.92
432.772	4588.3
432.979	4754.19
433.187	4928.27
433.394	4997.9
433.601	5276.42
433.808	5235.46
434.016	5176.07
434.223	5272.32
434.43	5692.16
434.637	5460.74
434.844	5978.87
435.052	6023.93
435.259	5882.62
435.466	6114.04
435.673	6030.07
435.88	6558.45
436.087	6601.46
436.294	6761.2
436.501	6839.02
436.708	6763.25
436.915	6882.03
437.122	7260.9
437.329	7316.2
437.537	7381.73
437.743	7740.13
437.95	7508.71
438.157	8057.56
438.364	8264.41
438.571	8346.33
438.778	8286.93
438.985	8991.44
439.192	8731.34
439.399	8997.58
439.606	8696.53
439.813	9267.91
440.02	9685.7
440.227	9620.16
440.433	9661.12
440.64	9855.68
440.847	9650.88
441.054	10011.32
441.261	10709.68
441.467	10556.08
441.674	10812.08
441.881	11135.66
442.088	11002.54
442.294	11174.57
442.501	11444.9
442.708	11565.73
442.914	12030.62
443.121	12442.26
443.328	12159.64
443.534	13013.65
443.741	12419.74
443.948	12452.5
444.154	13470.34
444.361	13261.45
444.568	13384.33
444.774	13451.91
444.981	13353.61
445.187	14017.15
445.394	14514.81
445.6	14363.26
445.807	15696.49
446.013	15092.34
446.22	15377
446.426	15970.91
446.633	15968.87
446.839	16687.7
447.046	15962.72
447.252	16880.21
447.459	16892.5
447.665	16720.47
447.871	17386.06
448.078	18221.63
448.284	17650.25
448.491	17824.33
448.697	18582.07
448.903	18780.73
449.11	18885.17
449.316	18514.49
449.522	19257.9
449.728	19515.95
449.935	19337.77
450.141	19495.47
450.347	20032.04
450.553	19276.34
450.76	19687.98
450.966	20429.34
451.172	20271.65
451.378	20535.84
451.584	20296.22
451.791	20916.76
451.997	20965.91
452.203	21017.11
452.409	21271.06
452.615	20937.24
452.821	20195.87
453.027	19892.77
453.233	21080.6
453.44	20032.04
453.646	20234.78
453.852	20355.61
454.058	20847.13
454.264	19898.92
454.47	20490.78
454.676	20089.38
454.882	20861.46
455.088	19085.87
455.294	19044.91
455.5	19608.11
455.705	19890.73
455.911	18858.55
456.117	18780.73
456.323	18534.97
456.529	17353.29
456.735	18473.53
456.941	17793.61
457.147	17384.01
457.352	16921.17
457.558	16839.25
457.764	16708.18
457.97	16540.25
458.176	15661.67
458.381	16040.54
458.587	15379.05
458.793	15286.89
458.999	14561.91
459.204	15665.77
459.41	15090.29
459.616	14054.01
459.821	14469.75
460.027	14148.22
460.233	13855.36
460.438	13120.14
460.644	13470.34
460.85	12921.49
461.055	12624.53
461.261	12614.29
461.466	11487.91
461.672	11160.24
461.878	12139.16
462.083	11244.2
462.289	11037.36
462.494	10945.2
462.7	10437.3
462.905	10302.14
463.111	10588.85
463.316	10570.42
463.522	10324.66
463.727	10502.84
463.932	10449.59
464.138	10263.22
464.343	10244.79
464.549	9992.89
464.754	10431.16
464.959	10283.7
465.165	10035.9
465.37	9972.41
465.575	9519.81
465.781	9843.39
465.986	9867.97
466.191	9716.42
466.397	9501.38
466.602	9073.35
466.807	9163.47
467.012	9398.98
467.218	8921.81
467.423	9151.18
467.628	9288.39
467.833	9487.04
468.038	9124.55
468.244	8956.62
468.449	9480.9
468.654	8966.86
468.859	8868.56
469.064	8905.42
469.269	8577.75
469.474	8569.55
469.679	8903.37
469.885	8399.57
470.09	8551.12
470.295	8637.14
470.5	8391.38
470.705	8377.05
470.91	8264.41
471.115	8248.02
471.32	8211.16
471.525	8250.07
471.73	7987.93
471.935	7854.81
472.139	7725.79
472.344	7953.12
472.549	7803.61
472.754	7512.8
472.959	7629.54
473.164	7351.01
473.369	7301.86
473.574	7375.59
473.778	7570.15
473.983	7326.44
474.188	7365.35
474.393	7084.78
474.598	7107.3
474.802	7041.77
475.007	7162.6
475.212	7000.81
475.417	6826.73
475.621	6810.35
475.826	6742.77
476.031	6593.26
476.235	6652.66
476.44	6558.45
476.645	6413.04
476.849	6433.52
477.054	6304.5
477.259	6296.31
477.463	6480.63
477.668	6122.23
477.872	6351.6
478.077	6118.14
478.282	5997.31
478.486	5911.29
478.691	5839.61
478.895	5948.15
479.1	5812.99
479.304	5810.94
479.509	5657.34
479.713	5841.66
479.918	5712.64
480.122	5604.1
480.326	5698.3
480.531	5602.05
480.735	5595.9
480.94	5513.99
481.144	5733.12
481.348	5423.87
481.553	5554.94
481.757	5354.24
481.961	5532.42
482.166	5616.38
482.37	5458.69
482.574	5382.92
482.778	5278.47
482.983	5518.08
483.187	5358.34
483.391	5407.49
483.595	5335.81
483.8	5268.23
484.004	5382.92
484.208	5403.39
484.412	5192.45
484.616	5393.16
484.821	5356.29
485.025	5409.54
485.229	5493.51
485.433	5552.9
485.637	5366.53
485.841	5262.09
486.045	5339.91
486.249	5532.42
486.453	5268.23
486.657	5366.53
486.861	5427.97
487.065	5384.96
487.269	5452.55
487.473	5438.21
487.677	5305.09
487.881	5485.31
488.085	5358.34
488.289	5432.07
488.493	5479.17
488.697	5518.08
488.901	5587.71
489.105	5464.83
489.309	5462.79
489.512	5538.56
489.716	5497.6
489.92	5434.11
490.124	5577.47
490.328	5516.03
490.531	5427.97
490.735	5767.93
490.939	5464.83
491.143	5518.08
491.346	5640.96
491.55	5675.77
491.754	5645.06
491.958	5647.1
492.161	5835.52
492.365	5837.56
492.569	5729.02
492.772	5550.85
492.976	5919.48
493.18	5815.04
493.383	6028.03
493.587	5980.92
493.79	6003.45
493.994	5925.63
494.197	5913.34
494.401	6097.66
494.605	6152.95
494.808	6198.01
495.012	6230.77
495.215	6259.45
495.419	6382.32
495.622	6173.43
495.825	6353.65
496.029	6451.95
496.232	6548.21
496.436	6640.37
496.639	6716.14
496.843	6781.68
497.046	7043.82
497.249	6900.46
497.453	6898.41
497.656	7017.19
497.859	7117.54
498.063	7154.41
498.266	7166.7
498.469	7310.05
498.673	7459.56
498.876	7506.66
499.079	7580.39
499.282	7631.58
499.485	7774.94
499.689	8071.9
499.892	8016.6
500.095	8137.43
500.298	8258.26
500.501	8137.43
500.705	8354.52
500.908	8534.74
501.111	8518.36
501.314	8764.11
501.517	8846.03
501.72	8993.48
501.923	8960.72
502.126	9163.47
502.329	9079.5
502.532	9433.8
502.735	9528
502.938	9747.14
503.141	9525.96
503.344	9980.61
503.547	9630.4
503.75	10158.78
503.953	9992.89
504.156	10347.19
504.359	10293.94
504.562	10531.51
504.765	10719.92
504.968	11072.17
505.17	11059.88
505.373	11010.73
505.576	11229.87
505.779	11586.21
505.982	11539.11
506.185	11940.51
506.387	11717.28
506.59	11829.92
506.793	12290.71
506.996	12259.99
507.198	12610.2
507.401	12640.92
507.604	12728.98
507.807	13054.61
508.009	13161.1
508.212	13277.83
508.415	13505.16
508.617	13781.64
508.82	13857.41
509.022	13998.72
509.225	14353.02
509.428	14461.56
509.63	14643.83
509.833	14750.32
510.035	15016.56
510.238	15143.53
510.44	15340.14
510.643	15704.68
510.845	15848.04
511.048	15796.84
511.25	16208.48
511.453	16212.57
511.655	16544.34
511.858	16491.1
512.06	16771.67
512.262	17320.53
512.465	17332.81
512.667	17584.71
512.87	17943.11
513.072	17748.55
513.274	18072.13
513.477	18285.12
513.679	18645.56
513.881	18831.93
514.084	19167.79
514.286	18891.32
514.488	19302.96
514.69	19937.83
514.893	20247.07
515.095	20036.13
515.297	20486.68
515.499	20515.36
515.701	21168.66
515.904	21254.67
516.106	21348.88
516.308	21602.83
516.51	21742.09
516.712	21983.75
516.914	22139.4
517.116	22757.88
517.318	22759.93
517.52	23071.22
517.722	23071.22
517.925	23288.31
518.127	23908.84
518.329	23933.42
518.531	23865.83
518.733	24736.22
518.935	24994.26
519.136	25139.67
519.338	25424.34
519.54	25592.27
519.742	25739.72
519.944	26270.15
520.146	26202.57
520.348	26311.11
520.55	26798.52
520.752	27179.45
520.954	27371.96
521.155	27216.31
521.357	27924.91
521.559	28389.8
521.761	28332.45
521.963	28502.43
522.164	28692.9
522.366	28604.83
522.568	29122.97
522.77	29200.79
522.971	29882.77
523.173	29555.09
523.375	30153.1
523.576	30179.72
523.778	30421.38
523.98	30542.21
524.181	30894.46
524.383	30802.3
524.584	31363.45
524.786	31414.65
524.988	31394.17
525.189	31873.39
525.391	32397.67
525.592	32299.37
525.794	32252.27
525.995	32538.98
526.197	32577.89
526.398	33048.93
526.6	32948.57
526.801	33212.76
527.003	33286.49
527.204	33747.28
527.406	33868.11
527.607	33489.24
527.808	34077.01
528.01	33272.15
528.211	33757.52
528.412	34652.48
528.614	34324.81
528.815	34808.13
529.016	34761.03
529.218	34046.29
529.419	34462.02
529.62	34543.94
529.822	35027.26
530.023	35152.19
530.224	34894.14
530.425	35295.55
530.626	35037.5
530.828	34855.23
531.029	35602.74
531.23	35094.85
531.431	35070.27
531.632	35756.34
531.833	35559.73
532.035	35471.67
532.236	35555.64
532.437	35977.52
532.638	35926.32
532.839	35916.08
533.04	35963.18
533.241	36061.49
533.442	36520.23
533.643	35846.45
533.844	36018.48
534.045	36251.95
534.246	35723.57
534.447	35903.79
534.648	36294.96
534.849	36215.08
535.05	35879.22
535.251	36423.98
535.451	35901.75
535.652	36256.04
535.853	36528.42
536.054	36292.91
536.255	36348.2
536.456	35879.22
536.657	37142.81
536.857	36297
537.058	35963.18
537.259	36569.38
537.46	36653.35
537.66	36489.51
537.861	36358.44
538.062	36131.12
538.263	36266.28
538.463	36399.4
538.664	36430.12
538.865	36397.35
539.065	36942.11
539.266	36182.32
539.466	36958.5
539.667	36167.98
539.868	36751.65
540.068	36819.24
540.269	36182.32
540.469	36624.68
540.67	36393.26
540.87	36151.6
541.071	36233.52
541.271	36473.13
541.472	36311.34
541.672	36198.7
541.873	36530.47
542.073	36313.39
542.274	36673.83
542.474	36174.13
542.675	36026.67
542.875	36747.56
543.075	36294.96
543.276	36100.4
543.476	36665.64
543.676	36059.44
543.877	36616.49
544.077	36247.85
544.277	36589.86
544.478	36440.36
544.678	36415.79
544.878	36501.8
545.078	36641.06
545.279	36139.31
545.479	36458.79
545.679	36129.07
545.879	36372.78
546.079	36299.05
546.28	36278.57
546.48	35963.18
546.68	36325.68
546.88	36290.86
547.08	36622.63
547.28	36247.85
547.48	36174.13
547.68	36442.41
547.88	36268.33
548.081	36135.21
548.281	36096.3
548.481	36112.69
548.681	36473.13
548.881	36292.91
549.081	36106.54
549.28	36403.5
549.48	36387.11
549.68	35991.86
549.88	36751.65
550.08	36098.35
550.28	36448.55
550.48	36041.01
550.68	36712.74
550.88	36235.56
551.08	36284.72
551.279	36421.93
551.479	36196.65
551.679	36163.89
551.879	35881.27
552.079	36546.86
552.278	36102.45
552.478	36264.24
552.678	36000.05
552.878	36522.28
553.077	35911.99
553.277	35332.41
553.477	36573.48
553.676	35744.05
553.876	35817.78
554.076	35918.13
554.275	35780.92
554.475	34986.3
554.674	35961.14
554.874	36249.9
555.074	35950.9
555.273	35963.18
555.473	36053.3
555.672	35244.35
555.872	35914.03
556.071	35653.94
556.271	35928.37
556.47	35617.08
556.67	35422.52
556.869	35025.21
557.068	35318.07
557.268	35547.45
557.467	35414.33
557.667	35127.61
557.866	35539.26
558.065	35393.85
558.265	35062.08
558.464	35488.06
558.663	35260.73
558.863	35123.52
559.062	35410.23
559.261	34830.66
559.461	35455.29
559.66	34451.78
559.859	34914.62
560.058	34615.62
560.258	35017.02
560.457	34324.81
560.656	34898.24
560.855	34560.33
561.054	34273.61
561.253	34453.83
561.453	34263.37
561.652	34545.99
561.851	34615.62
562.05	34333
562.249	34163.02
562.448	34394.44
562.647	34453.83
562.846	34138.44
563.045	34455.88
563.244	33997.13
563.443	34212.17
563.642	33665.36
563.841	33800.53
564.04	33913.17
564.239	33888.59
564.438	33747.28
564.637	33978.7
564.836	33583.44
565.035	33509.72
565.234	33610.07
565.432	33616.21
565.631	33778
565.83	33749.33
566.029	33278.3
566.228	33302.87
566.427	33157.47
566.625	32858.46
566.824	32768.35
567.023	33360.22
567.222	32719.2
567.42	33122.65
567.619	33026.4
567.818	32911.71
568.016	32790.88
568.215	32844.13
568.414	32727.39
568.612	32596.32
568.811	32383.34
569.01	32844.13
569.208	32055.66
569.407	32594.28
569.605	31965.55
569.804	32569.7
570.002	32133.48
570.201	32479.59
570.4	31684.98
570.598	31644.02
570.797	31242.62
570.995	31560.05
571.193	31375.73
571.392	31871.34
571.59	31080.83
571.789	31375.73
571.987	31363.45
572.186	31064.44
572.384	31220.09
572.582	30998.91
572.781	31224.18
572.979	30804.35
573.177	30771.58
573.376	30902.65
573.574	30441.86
573.772	30726.53
573.971	30273.93
574.169	30335.37
574.367	30271.88
574.565	30587.27
574.763	30175.62
574.962	30155.15
575.16	29671.82
575.358	30077.32
575.556	29448.6
575.754	29976.97
575.952	29247.9
576.151	29806.99
576.349	29225.37
576.547	29245.85
576.745	29634.96
576.943	29376.92
577.141	28975.52
577.339	29256.09
577.537	28688.8
577.735	28950.94
577.933	28580.26
578.131	29165.98
578.329	28635.55
578.527	28297.64
578.725	28510.63
578.923	28559.78
579.121	28389.8
579.319	28230.05
579.516	28156.33
579.714	28180.9
579.912	28076.46
580.11	28037.55
580.308	28002.73
580.506	27929
580.704	27681.2
580.901	27611.57
581.099	27771.31
581.297	27161.01
581.495	27287.99
581.692	27646.38
581.89	27070.9
582.088	27374
582.285	26751.42
582.483	27242.93
582.681	26972.6
582.878	26657.21
583.076	26943.93
583.274	26710.46
583.471	26462.66
583.669	26464.71
583.866	26407.36
584.064	26685.89
584.262	26157.51
584.459	26415.55
584.657	26196.42
584.854	26313.16
585.052	25704.91
585.249	26231.24
585.447	25801.16
585.644	25749.96
585.841	25602.51
586.039	25784.78
586.236	25375.19
586.434	25268.69
586.631	25111
586.828	25063.89
587.026	25141.72
587.223	25035.22
587.42	25219.54
587.618	24994.26
587.815	24836.57
588.012	24676.83
588.21	24553.95
588.407	24855
588.604	24613.34
588.801	24512.99
588.999	24359.39
589.196	24254.95
589.393	24603.1
589.59	24248.8
589.787	24211.94
589.984	24125.93
590.182	23749.1
590.379	24101.35
590.576	23695.85
590.773	23906.79
590.97	23462.38
591.167	23931.37
591.364	23546.35
591.561	23359.98
591.758	23767.53
591.955	23456.24
592.152	23400.94
592.349	23435.76
592.546	23013.88
592.743	22983.16
592.94	22694.4
593.137	23015.93
593.334	23120.37
593.531	22823.42
593.727	22960.63
593.924	23116.28
594.121	22807.03
594.318	23048.69
594.515	22614.52
594.712	22737.4
594.908	22448.64
595.105	22522.37
595.302	22292.99
595.499	22241.79
595.696	22401.54
595.892	22063.62
596.089	22037
596.286	22118.92
596.482	21862.92
596.679	21967.37
596.876	21873.16
597.072	21651.98
597.269	21635.6
597.466	21596.68
597.662	21692.94
597.859	21568.01
598.055	21606.92
598.252	21283.34
598.448	21262.86
598.645	21197.33
598.841	21105.17
599.038	21111.32
599.234	21334.54
599.431	21099.03
599.627	21105.17
599.824	21105.17
600.02	20773.4
600.217	20881.94
600.413	20986.39
600.609	20779.54
600.806	20394.53
601.002	20640.28
601.198	20546.08
601.395	20294.18
601.591	20142.63
601.787	20476.44
601.984	20009.51
602.18	20322.85
602.376	20040.23
602.572	19997.22
602.769	19864.1
602.965	19700.26
603.161	19726.89
603.357	19743.27
603.553	19749.42
603.75	19497.52
603.946	19391.02
604.142	19651.11
604.338	19018.29
604.534	19262
604.73	19026.48
604.926	19202.61
605.122	19055.15
605.318	18950.71
605.514	18864.69
605.71	18786.87
605.906	18780.73
606.102	18577.98
606.298	18819.64
606.494	18690.62
606.69	18555.45
606.886	18623.03
607.082	18088.51
607.278	18655.8
607.474	18219.58
607.67	18303.55
607.866	17912.39
608.062	18580.03
608.257	17832.52
608.453	17977.92
608.649	18055.75
608.845	17848.9
609.041	17924.68
609.236	18070.08
609.432	17728.07
609.628	17754.69
609.824	17857.09
610.019	17627.72
610.215	17519.18
610.411	17453.64
610.606	17330.76
610.802	17390.16
610.998	17171.02
611.193	17408.59
611.389	16857.68
611.584	17062.48
611.78	17146.45
611.976	16851.54
612.171	16955.99
612.367	17054.29
612.562	17052.24
612.758	16548.44
612.953	16597.59
613.149	16749.14
613.344	16339.55
613.539	16523.87
613.735	16620.12
613.93	16511.58
614.126	16335.45
614.321	16634.46
614.517	16192.09
614.712	16308.83
614.907	16151.13
615.103	16325.21
615.298	16214.62
615.493	16138.85
615.688	16183.9
615.884	16452.19
616.079	16083.55
616.274	15802.98
616.47	16030.3
616.665	16208.48
616.86	15858.28
617.055	15784.55
617.25	15641.19
617.445	15624.81
617.641	15409.77
617.836	15700.58
618.031	15178.35
618.226	15395.43
618.421	15297.13
618.616	15467.11
618.811	14887.54
619.006	15272.56
619.201	15188.59
619.396	15026.8
619.591	14795.38
619.786	15006.32
619.981	14701.17
620.176	14934.64
620.371	14518.9
620.566	14783.09
620.761	14680.69
620.956	14697.08
621.151	14449.27
621.346	14410.36
621.541	14029.44
621.735	14334.59
621.93	13873.79
622.125	14264.96
622.32	14078.59
622.515	13881.99
622.709	13816.45
622.904	13744.77
623.099	13771.4
623.294	13707.91
623.488	13462.15
623.683	13531.78
623.878	13267.59
624.072	13181.58
624.267	13456.01
624.462	13189.77
624.656	13179.53
624.851	12919.44
625.046	12968.59
625.24	12714.64
625.435	12872.34
625.629	12513.94
625.824	12526.23
626.018	12542.61
626.213	12554.9
626.407	12661.4
626.602	12243.61
626.796	12624.53
626.991	12272.28
627.185	12436.12
627.38	11920.03
627.574	12022.43
627.768	11950.75
627.963	11913.89
628.157	11659.94
628.352	11782.82
628.546	11461.29
628.74	11909.79
628.935	11676.32
629.129	11690.66
629.323	11231.91
629.517	11371.18
629.712	11442.85
629.906	11246.25
630.1	11076.27
630.294	11285.16
630.489	11070.12
630.683	11176.62
630.877	11063.98
631.071	10955.44
631.265	11023.02
631.459	10818.22
631.653	10828.46
631.848	10781.36
632.042	10558.13
632.236	10666.67
632.43	10537.65
632.624	10777.26
632.818	10332.86
633.012	10519.22
633.206	10314.42
633.4	10285.75
633.594	10103.48
633.788	10185.4
633.982	10336.95
634.176	10068.67
634.369	10156.73
634.563	9910.97
634.757	9984.7
634.951	9902.78
635.145	9874.11
635.339	9890.49
635.533	9931.45
635.726	9634.5
635.92	9697.99
636.114	9702.08
636.308	9695.94
636.501	9523.91
636.695	9659.07
636.889	9525.96
637.083	9372.36
637.276	9390.79
637.47	9233.1
637.664	9302.73
637.857	9429.7
638.051	9134.79
638.244	9075.4
638.438	9134.79
638.632	8964.81
638.825	8950.48
639.019	9044.68
639.212	8600.27
639.406	8618.71
639.599	8579.79
639.793	8852.17
639.986	8506.07
640.18	8938.19
640.373	8706.77
640.567	8426.2
640.76	8567.51
640.954	8428.24
641.147	8395.48
641.34	8354.52
641.534	8323.8
641.727	8102.62
641.92	8313.56
642.114	8282.84
642.307	8202.97
642.5	7979.74
642.694	8026.84
642.887	7955.16
643.08	8012.51
643.273	7936.73
643.467	7791.33
643.66	7877.34
643.853	7793.37
644.046	7727.84
644.239	7516.9
644.432	7748.32
644.626	7504.61
644.819	7471.84
645.012	7586.53
645.205	7449.32
645.398	7592.67
645.591	7355.11
645.784	7246.57
645.977	7144.17
646.17	7072.49
646.363	7181.03
646.556	6886.12
646.749	7111.4
646.942	7121.64
647.135	7066.35
647.328	7064.3
647.521	6824.69
647.714	6871.79
647.907	6744.81
648.099	6701.81
648.292	6703.86
648.485	6570.74
648.678	6601.46
648.871	6585.07
649.064	6507.25
649.256	6505.2
649.449	6341.36
649.642	6365.94
649.835	6236.92
650.027	6214.39
650.22	6269.69
650.413	6247.16
650.605	6247.16
650.798	6021.88
650.991	6204.15
651.183	6011.64
651.376	5864.19
651.568	5993.21
651.761	5960.44
651.954	5870.33
652.146	5812.99
652.339	5860.09
652.531	5819.13
652.724	5776.13
652.916	5673.73
653.109	5647.1
653.301	5692.16
653.494	5602.05
653.686	5567.23
653.879	5544.7
654.071	5468.93
654.263	5423.87
654.456	5325.57
654.648	5380.87
654.84	5237.51
655.033	5288.71
655.225	5294.85
655.417	5301
655.61	5225.22
655.802	5245.7
655.994	5006.09
656.186	5137.16
656.379	5176.07
656.571	4915.98
656.763	4926.22
656.955	4924.17
657.148	4901.64
657.34	4963.08
657.532	4764.43
657.724	4809.48
657.916	4702.99
658.108	4528.91
658.3	4698.89
658.492	4709.13
658.684	4461.33
658.876	4627.21
659.068	4510.48
659.26	4451.09
659.452	4444.95
659.644	4399.89
659.836	4293.4
660.028	4334.36
660.22	4178.71
660.412	4401.94
660.604	4215.57
660.796	4332.31
660.988	4207.38
661.18	4107.03
661.372	4061.98
661.563	4053.78
661.755	4137.75
661.947	3994.39
662.139	3984.15
662.331	3912.47
662.522	3957.53
662.714	3992.34
662.906	3791.64
663.097	3851.03
663.289	3781.4
663.481	3773.21
663.673	3801.88
663.864	3738.4
664.056	3742.49
664.247	3724.06
664.439	3562.27
664.631	3529.5
664.822	3629.85
665.014	3519.26
665.205	3617.57
665.397	3453.73
665.588	3427.11
665.78	3443.49
665.971	3396.39
666.163	3537.7
666.354	3271.46
666.546	3396.39
666.737	3425.06
666.929	3212.07
667.12	3367.71
667.311	3283.75
667.503	3185.44
667.694	3255.08
667.885	3179.3
668.077	3175.2
668.268	3121.96
668.459	3134.25
668.651	3193.64
668.842	3093.29
669.033	3097.38
669.224	3005.22
669.416	3048.23
669.607	2966.31
669.798	3093.29
669.989	3025.7
670.18	3054.37
670.371	2939.69
670.563	3017.51
670.754	2841.39
670.945	2982.7
671.136	2917.16
671.327	2929.45
671.518	2861.87
671.709	2851.63
671.9	2931.5
672.091	2784.04
672.282	2773.8
672.473	2810.67
672.664	2919.21
672.855	2726.7
673.046	2798.38
673.237	2712.36
673.428	2732.84
673.619	2736.94
673.809	2704.17
674	2808.62
674.191	2743.08
674.382	2837.29
674.573	2681.64
674.764	2646.83
674.954	2583.34
675.145	2507.57
675.336	2675.5
675.527	2622.25
675.717	2849.58
675.908	2558.77
676.099	2593.58
676.289	2636.59
676.48	2540.33
676.671	2517.81
676.861	2575.15
677.052	2528.05
677.243	2450.22
677.433	2605.87
677.624	2552.62
677.814	2476.85
678.005	2437.94
678.195	2468.66
678.386	2646.83
678.576	2593.58
678.767	2374.45
678.957	2517.81
679.148	2474.8
679.338	2501.42
679.529	2401.07
679.719	2485.04
679.909	2626.35
680.1	2374.45
680.29	2394.93
680.481	2489.14
680.671	2499.38
680.861	2325.3
681.052	2460.46
681.242	2509.62
681.432	2480.94
681.622	2401.07
681.813	2396.98
682.003	2382.64
682.193	2360.11
682.383	2421.55
682.573	2353.97
682.764	2503.47
682.954	2419.5
683.144	2417.46
683.334	2294.58
683.524	2405.17
683.714	2360.11
683.904	2337.59
684.094	2417.46
684.284	2401.07
684.474	2390.83
684.664	2276.15
684.854	2384.69
685.044	2341.68
685.234	2417.46
685.424	2374.45
685.614	2456.37
685.804	2335.54
685.994	2421.55
686.184	2448.18
686.374	2343.73
686.564	2343.73
686.753	2429.74
686.943	2214.71
687.133	2386.74
687.323	2282.29
687.513	2308.91
687.702	2335.54
687.892	2310.96
688.082	2319.15
688.272	2446.13
688.461	2417.46
688.651	2462.51
688.841	2327.35
689.03	2288.43
689.22	2237.24
689.41	2321.2
689.599	2337.59
689.789	2374.45
689.979	2331.44
690.168	2335.54
690.358	2394.93
690.547	2376.5
690.737	2325.3
690.926	2351.92
691.116	2329.39
691.305	2415.41
691.495	2374.45
691.684	2360.11
691.874	2399.02
692.063	2335.54
692.252	2431.79
692.442	2407.22
692.631	2296.63
692.82	2396.98
693.01	2487.09
693.199	2337.59
693.388	2261.81
693.578	2409.26
693.767	2362.16
693.956	2384.69
694.146	2351.92
694.335	2296.63
694.524	2278.19
694.713	2394.93
694.902	2329.39
695.092	2233.14
695.281	2353.97
695.47	2302.77
695.659	2409.26
695.848	2233.14
696.037	2370.35
696.226	2442.03
696.415	2394.93
696.604	2327.35
696.793	2313.01
696.982	2315.06
697.171	2313.01
697.36	2376.5
697.549	2409.26
697.738	2306.87
697.927	2194.23
698.116	2343.73
698.305	2310.96
698.494	2353.97
698.683	2294.58
698.872	2327.35
699.061	2321.2
699.25	2319.15
699.438	2245.43
699.627	2327.35
699.816	2384.69
700.005	2442.03
700.193	2274.1
700.382	2403.12
700.571	2227
700.76	2319.15
700.948	2427.7
701.137	2317.11
701.326	2329.39
701.514	2292.53
701.703	2212.66
701.892	2243.38
702.08	2272.05
702.269	2335.54
702.457	2372.4
702.646	2202.42
702.834	2296.63
703.023	2321.2
703.212	2220.85
703.4	2339.63
703.589	2118.45
703.777	2210.61
703.965	2210.61
704.154	2149.17
704.342	2216.76
704.531	2188.08
704.719	2190.13
704.907	2075.45
705.096	2231.09
705.284	2165.56
705.472	2067.25
705.661	2161.46
705.849	2069.3
706.037	2136.88
706.226	2022.2
706.414	2167.6
706.602	2073.4
706.79	2063.16
706.979	1958.71
707.167	2048.82
707.355	2001.72
707.543	2065.21
707.731	2097.97
707.919	2052.92
708.107	2024.25
708.296	2120.5
708.484	1981.24
708.672	1946.42
708.86	1971
709.048	2011.96
709.236	2057.01
709.424	1983.29
709.612	1927.99
709.8	2032.44
709.988	1940.28
710.176	1993.53
710.364	2054.97
710.551	1893.18
710.739	2022.2
710.927	1919.8
711.115	1878.84
711.303	1887.03
711.491	1927.99
711.679	1858.36
711.866	1942.33
712.054	1866.55
712.242	1770.3
712.43	1893.18
712.617	1860.41
712.805	1825.59
712.993	1870.65
713.181	1805.11
713.368	1870.65
713.556	1860.41
713.744	1891.13
713.931	1848.12
714.119	1837.88
714.306	1733.43
714.494	1823.55
714.682	1776.44
714.869	1717.05
715.057	1700.67
715.244	1651.52
715.432	1618.75
715.619	1694.52
715.807	1753.91
715.994	1657.66
716.182	1712.96
716.369	1755.96
716.556	1655.61
716.744	1663.8
716.931	1657.66
717.119	1680.19
717.306	1588.03
717.493	1602.36
717.681	1567.55
717.868	1641.28
718.055	1563.45
718.242	1624.89
718.43	1540.93
718.617	1542.97
718.804	1555.26
718.991	1590.08
719.179	1520.45
719.366	1542.97
719.553	1549.12
719.74	1545.02
719.927	1549.12
720.114	1557.31
720.301	1534.78
720.488	1469.25
720.676	1446.72
720.863	1483.58
721.05	1483.58
721.237	1585.98
721.424	1469.25
721.611	1418.05
721.798	1438.53
721.985	1418.05
722.172	1481.53
722.358	1327.94
722.545	1446.72
722.732	1422.14
722.919	1346.37
723.106	1375.04
723.293	1379.14
723.48	1428.29
723.667	1428.29
723.853	1418.05
724.04	1348.42
724.227	1379.14
724.414	1360.7
724.6	1416
724.787	1266.5
724.974	1274.69
725.161	1442.62
725.347	1319.75
725.534	1377.09
725.72	1409.86
725.907	1289.03
726.094	1307.46
726.28	1293.12
726.467	1323.84
726.653	1327.94
726.84	1250.11
727.027	1311.55
727.213	1270.59
727.4	1295.17
727.586	1321.79
727.773	1383.23
727.959	1346.37
728.145	1274.69
728.332	1248.07
728.518	1239.87
728.705	1307.46
728.891	1211.2
729.077	1205.06
729.264	1176.39
729.45	1192.77
729.636	1252.16
729.823	1215.3
730.009	1256.26
730.195	1180.48
730.382	1180.48
730.568	1200.96
730.754	1229.63
730.94	1123.14
731.126	1112.9
731.313	1182.53
731.499	1172.29
731.685	1123.14
731.871	1203.01
732.057	1006.41
732.243	1123.14
732.429	1221.44
732.615	1082.18
732.801	1071.94
732.987	1139.52
733.173	1145.67
733.359	1160
733.545	1172.29
733.731	1033.03
733.917	1104.71
734.103	1096.52
734.289	1076.04
734.475	1069.89
734.661	1073.99
734.847	1088.32
735.033	1047.37
735.219	1018.69
735.404	1059.65
735.59	949.06
735.776	979.78
735.962	1026.89
736.148	992.07
736.333	977.73
736.519	1028.93
736.705	1053.51
736.89	1082.18
737.076	1026.89
737.262	1020.74
737.447	996.17
737.633	1012.55
737.819	1014.6
738.004	926.54
738.19	930.63
738.375	1041.22
738.561	1006.41
738.747	930.63
738.932	908.1
739.118	893.77
739.303	897.86
739.489	938.82
739.674	914.25
739.859	938.82
740.045	1004.36
740.23	922.44
740.416	963.4
740.601	951.11
740.786	877.38
740.972	904.01
741.157	895.82
741.342	895.82
741.528	961.35
741.713	926.54
741.898	928.58
742.084	877.38
742.269	861
742.454	928.58
742.639	811.85
742.824	926.54
743.01	891.72
743.195	861
743.38	846.66
743.565	766.79
743.75	815.94
743.935	768.84
744.12	762.7
744.305	820.04
744.49	817.99
744.675	803.66
744.86	846.66
745.045	758.6
745.23	815.94
745.415	721.74
745.6	844.62
745.785	820.04
745.97	826.18
746.155	830.28
746.34	779.08
746.525	783.18
746.71	832.33
746.895	717.64
747.079	633.68
747.264	672.59
747.449	817.99
747.634	734.03
747.819	768.84
748.003	803.66
748.188	748.36
748.373	648.01
748.557	746.31
748.742	746.31
748.927	680.78
749.111	705.35
749.296	674.64
749.481	611.15
749.665	691.02
749.85	600.91
750.034	686.92
750.219	691.02
750.404	645.96
750.588	695.11
750.773	609.1
750.957	705.35
751.141	631.63
751.326	586.57
751.51	666.44
751.695	625.48
751.879	617.29
752.064	643.92
752.248	576.33
752.432	697.16
752.617	580.43
752.801	639.82
752.985	680.78
753.17	648.01
753.354	547.66
753.538	570.19
753.722	635.72
753.907	637.77
754.091	584.52
754.275	568.14
754.459	607.05
754.643	521.04
754.828	557.9
755.012	572.24
755.196	516.94
755.38	566.09
755.564	518.99
755.748	549.71
755.932	510.8
756.116	537.42
756.3	549.71
756.484	506.7
756.668	502.61
756.852	500.56
757.036	482.13
757.22	512.85
757.404	482.13
757.588	568.14
757.772	504.65
757.956	551.76
758.14	527.18
758.323	508.75
758.507	484.17
758.691	516.94
758.875	545.61
759.059	545.61
759.242	510.8
759.426	428.88
759.61	445.26
759.794	467.79
759.977	473.93
760.161	508.75
760.345	504.65
760.528	498.51
760.712	422.73
760.895	443.21
761.079	385.87
761.263	416.59
761.446	457.55
761.63	445.26
761.813	484.17
761.997	439.12
762.18	467.79
762.364	492.37
762.547	465.74
762.731	398.16
762.914	441.17
763.098	385.87
763.281	402.26
763.464	410.45
763.648	443.21
763.831	400.21
764.015	426.83
764.198	410.45
764.381	426.83
764.564	412.5
764.748	422.73
764.931	439.12
765.114	389.97
765.297	430.93
765.481	414.54
765.664	441.17
765.847	508.75
766.03	404.3
766.213	363.34
766.397	406.35
766.58	404.3
766.763	420.69
766.946	437.07
767.129	453.45
767.312	379.73
767.495	418.64
767.678	385.87
767.861	418.64
768.044	392.02
768.227	396.11
768.41	377.68
768.593	469.84
768.776	387.92
768.959	293.71
769.142	443.21
769.324	428.88
769.507	383.82
769.69	402.26
769.873	381.78
770.056	371.54
770.239	351.06
770.421	361.3
770.604	336.72
770.787	396.11
770.97	351.06
771.152	371.54
771.335	355.15
771.518	365.39
771.7	295.76
771.883	385.87
772.066	353.1
772.248	324.43
772.431	410.45
772.613	367.44
772.796	330.58
772.978	441.17
773.161	336.72
773.343	377.68
773.526	322.38
773.708	265.04
773.891	262.99
774.073	400.21
774.256	277.33
774.438	297.81
774.621	297.81
774.803	410.45
774.985	287.57
775.168	318.29
775.35	359.25
775.532	379.73
775.715	275.28
775.897	402.26
776.079	310.1
776.261	320.34
776.444	279.38
776.626	306
776.808	240.47
776.99	297.81
777.173	349.01
777.355	402.26
777.537	224.08
777.719	371.54
777.901	297.81
778.083	291.66
778.265	242.51
778.447	269.14
778.629	240.47
778.811	338.77
778.993	289.62
779.175	269.14
779.357	226.13
779.539	318.29
779.721	262.99
779.903	349.01
780.085	289.62
780.267	267.09
780.449	275.28
780.631	256.85
780.812	240.47
780.994	228.18
781.176	287.57
781.358	228.18
781.54	197.46
781.721	250.71
781.903	271.19
782.085	224.08
782.267	238.42
782.448	295.76
782.63	287.57
782.812	230.23
782.993	240.47
783.175	281.43
783.357	203.6
783.538	228.18
783.72	246.61
783.901	258.9
784.083	254.8
784.264	242.51
784.446	230.23
784.627	197.46
784.809	234.32
784.99	238.42
785.172	226.13
785.353	205.65
785.535	187.22
785.716	224.08
785.897	189.27
786.079	265.04
786.26	183.12
786.441	197.46
786.623	181.07
786.804	179.03
786.985	185.17
787.167	222.03
787.348	215.89
787.529	199.51
787.71	207.7
787.891	189.27
788.073	152.4
788.254	252.75
788.435	213.84
788.616	211.79
788.797	181.07
788.978	213.84
789.159	164.69
789.34	142.16
789.522	187.22
789.703	131.92
789.884	129.88
790.065	181.07
790.246	103.25
790.427	207.7
790.607	195.41
790.788	201.55
790.969	140.12
791.15	164.69
791.331	170.83
791.512	105.3
791.693	217.94
791.874	181.07
792.054	224.08
792.235	213.84
792.416	170.83
792.597	179.03
792.778	158.55
792.958	181.07
793.139	123.73
793.32	140.12
793.5	125.78
793.681	174.93
793.862	179.03
794.042	181.07
794.223	164.69
794.404	121.68
794.584	123.73
794.765	140.12
794.945	74.58
795.126	123.73
795.306	74.58
795.487	99.16
795.667	115.54
795.848	160.59
796.028	80.72
796.209	99.16
796.389	144.21
796.57	191.31
796.75	121.68
796.93	156.5
797.111	101.2
797.291	146.26
797.471	144.21
797.652	176.98
797.832	170.83
798.012	109.4
798.192	33.62
798.373	197.46
798.553	111.44
798.733	111.44
798.913	93.01
799.093	68.44
799.274	80.72
799.454	121.68
799.634	78.68
799.814	189.27
799.994	90.96
800.174	144.21
800.354	62.29
800.534	156.5
800.714	144.21
800.894	136.02
801.074	74.58
801.254	113.49
801.434	156.5
801.614	70.48
801.794	123.73
801.974	336.72
802.154	101.2
802.334	144.21
802.514	99.16
802.693	97.11
802.873	127.83
803.053	99.16
803.233	166.74
803.413	142.16
803.592	125.78
803.772	121.68
803.952	21.33
804.131	101.2
804.311	47.96
804.491	168.79
804.67	142.16
804.85	93.01
805.03	103.25
805.209	76.63
805.389	68.44
805.568	117.59
805.748	50
805.928	88.92
806.107	203.6
806.287	97.11
806.466	60.24
806.646	107.35
806.825	111.44
807.004	99.16
807.184	144.21
807.363	140.12
807.543	107.35
807.722	84.82
807.901	121.68
808.081	133.97
808.26	76.63
808.439	95.06
808.619	56.15
808.798	27.48
808.977	146.26
809.156	117.59
809.336	84.82
809.515	70.48
809.694	62.29
809.873	43.86
810.052	93.01
810.231	25.43
810.411	27.48
810.59	64.34
810.769	33.62
810.948	52.05
811.127	90.96
811.306	150.36
811.485	84.82
811.664	95.06
811.843	66.39
812.022	27.48
812.201	23.38
812.38	27.48
812.559	41.81
812.737	117.59
812.916	76.63
813.095	58.2
813.274	21.33
813.453	50
813.632	27.48
813.811	113.49
813.989	0.85
814.168	50
814.347	45.91
814.526	76.63
814.704	140.12
814.883	43.86
815.062	-7.34
815.24	58.2
815.419	70.48
815.598	105.3
815.776	90.96
815.955	90.96
816.133	27.48
816.312	27.48
816.49	131.92
816.669	93.01
816.847	27.48
817.026	39.76
817.204	74.58
817.383	78.68
817.561	27.48
817.74	76.63
817.918	37.72
818.097	60.24
818.275	31.57
818.453	133.97
818.632	2.9
818.81	142.16
818.988	19.29
819.167	25.43
819.345	17.24
819.523	-58.54
819.701	21.33
819.879	41.81
820.058	17.24
820.236	15.19
820.414	21.33
820.592	74.58
820.77	50
820.948	17.24
821.127	25.43
821.305	11.09
821.483	33.62
821.661	45.91
821.839	78.68
822.017	76.63
822.195	56.15
822.373	90.96
822.551	123.73
822.729	88.92
822.907	66.39
823.085	74.58
823.262	109.4
823.44	52.05
823.618	9.05
823.796	74.58
823.974	9.05
824.152	11.09
824.329	66.39
824.507	37.72
824.685	-31.91
824.863	66.39
825.04	35.67
825.218	-15.53
825.396	-1.19
825.574	95.06
825.751	78.68
825.929	64.34
826.107	27.48
826.284	29.52
826.462	66.39
826.639	66.39
826.817	-7.34
826.994	25.43
827.172	31.57
827.349	-23.72
827.527	-29.87
827.704	47.96
827.882	-40.11
828.059	37.72
828.237	78.68
828.414	68.44
828.591	74.58
828.769	50
828.946	-3.24
829.124	41.81
829.301	60.24
829.478	-1.19
829.655	78.68
829.833	62.29
830.01	25.43
830.187	58.2
830.364	-13.48
830.542	-7.34
830.719	58.2
830.896	60.24
831.073	23.38
831.25	131.92
831.427	54.1
831.604	-38.06
831.782	35.67
831.959	47.96
832.136	50
832.313	9.05
832.49	-9.39
832.667	-17.58
832.844	41.81
833.021	66.39
833.198	31.57
833.374	35.67
833.551	47.96
833.728	-7.34
833.905	33.62
834.082	23.38
834.259	25.43
834.436	58.2
834.612	11.09
834.789	35.67
834.966	62.29
835.143	43.86
835.319	15.19
835.496	90.96
835.673	17.24
835.85	78.68
836.026	-27.82
836.203	72.53
836.38	-11.43
836.556	27.48
836.733	41.81
836.909	115.54
837.086	-19.63
837.262	-7.34
837.439	-1.19
837.616	50
837.792	-7.34
837.968	43.86
838.145	-1.19
838.321	7
838.498	17.24
838.674	56.15
838.851	21.33
839.027	21.33
839.203	39.76
839.38	-5.29
839.556	52.05
839.732	56.15
839.909	-9.39
840.085	56.15
840.261	4.95
840.437	9.05
840.614	-29.87
840.79	19.29
840.966	56.15
841.142	17.24
841.318	29.52
841.494	-7.34
841.671	-5.29
841.847	0.85
842.023	86.87
842.199	17.24
842.375	25.43
842.551	-38.06
842.727	-5.29
842.903	58.2
843.079	54.1
843.255	43.86
843.431	-36.01
843.607	31.57
843.783	99.16
843.959	-17.58
844.134	21.33
844.31	68.44
844.486	29.52
844.662	-11.43
844.838	-7.34
845.013	0.85
845.189	9.05
845.365	115.54
845.541	56.15
845.716	17.24
845.892	50
846.068	23.38
846.244	-7.34
846.419	56.15
846.595	-25.77
846.77	31.57
846.946	2.9
847.122	-13.48
847.297	37.72
847.473	107.35
847.648	2.9
847.824	23.38
847.999	-1.19
848.175	82.77
848.35	15.19
848.526	-23.72
848.701	2.9
848.876	-7.34
849.052	-97.45
849.227	90.96
849.403	9.05
849.578	23.38
849.753	2.9
849.929	107.35
850.104	-23.72
850.279	52.05
850.454	21.33
850.63	17.24
850.805	23.38
850.98	4.95
851.155	88.92
851.33	15.19
851.505	-15.53
851.681	2.9
851.856	21.33
852.031	29.52
852.206	-3.24
852.381	-21.67
852.556	-27.82
852.731	25.43
852.906	13.14
853.081	47.96
853.256	80.72
853.431	54.1
853.606	-15.53
853.781	21.33
853.956	13.14
854.131	-15.53
854.305	-42.15
854.48	-1.19
854.655	-31.91
854.83	-19.63
855.005	2.9
855.18	19.29
855.354	58.2
855.529	35.67
855.704	66.39
855.879	-29.87
856.053	-19.63
856.228	74.58
856.403	23.38
856.577	-3.24
856.752	-38.06
856.926	-58.54
857.101	64.34
857.276	86.87
857.45	-1.19
857.625	0.85
857.799	115.54
857.974	-31.91
858.148	-23.72
858.323	-13.48
858.497	52.05
858.672	0.85
858.846	84.82
859.02	74.58
859.195	-40.11
859.369	19.29
859.543	31.57
859.718	4.95
859.892	21.33
860.066	84.82
860.241	13.14
860.415	68.44
860.589	27.48
860.763	0.85
860.938	-40.11
861.112	-27.82
861.286	-31.91
861.46	58.2
861.634	56.15
861.808	33.62
861.982	-23.72
862.157	-15.53
862.331	13.14
862.505	-3.24
862.679	-33.96
862.853	-7.34
863.027	45.91
863.201	11.09
863.375	17.24
863.549	41.81
863.722	47.96
863.896	19.29
864.07	2.9
864.244	86.87
864.418	27.48
864.592	-13.48
864.766	-48.3
864.939	25.43
865.113	41.81
865.287	0.85
865.461	21.33
865.634	-15.53
865.808	-29.87
865.982	11.09
866.156	4.95
866.329	39.76
866.503	21.33
866.676	27.48
866.85	-36.01
867.024	-83.11
867.197	-9.39
867.371	99.16
867.544	43.86
867.718	-31.91
867.891	23.38
868.065	27.48
868.238	-36.01
868.412	9.05
868.585	0.85
868.759	4.95
868.932	-29.87
869.105	-40.11
869.279	15.19
869.452	66.39
869.625	25.43
869.799	11.09
869.972	4.95
870.145	-44.2
870.319	25.43
870.492	17.24
870.665	2.9
870.838	-7.34
871.011	19.29
871.185	-15.53
871.358	27.48
871.531	29.52
871.704	52.05
871.877	25.43
872.05	60.24
872.223	-9.39
872.396	50
872.569	29.52
872.742	-7.34
872.915	97.11
873.088	41.81
873.261	-5.29
873.434	-19.63
873.607	76.63
873.78	25.43
873.953	23.38
874.126	25.43
874.299	11.09
874.471	-15.53
874.644	27.48
874.817	52.05
874.99	23.38
875.163	-17.58
875.335	17.24
875.508	-11.43
875.681	74.58
875.853	9.05
876.026	35.67
876.199	84.82
876.371	33.62
876.544	-25.77
876.717	66.39
876.889	11.09
877.062	58.2
877.234	-27.82
877.407	41.81
877.579	35.67
877.752	-3.24
877.924	13.14
878.097	58.2
878.269	-36.01
878.442	11.09
878.614	29.52
878.786	33.62
878.959	47.96
879.131	68.44
879.303	2.9
879.476	-36.01
879.648	17.24
879.82	70.48
879.993	41.81
880.165	21.33
880.337	-81.07
880.509	35.67
880.681	19.29
880.854	9.05
881.026	-29.87
881.198	21.33
881.37	35.67
881.542	17.24
881.714	25.43
881.886	29.52
882.058	-36.01
882.23	9.05
882.402	52.05
882.574	2.9
882.746	-3.24
882.918	17.24
883.09	4.95
883.262	-7.34
883.434	9.05
883.606	33.62
883.778	33.62
883.95	27.48
884.122	-25.77
884.293	33.62
884.465	43.86
884.637	-85.16
884.809	-5.29
884.98	-7.34
885.152	43.86
885.324	39.76
885.496	82.77
885.667	-1.19
885.839	-42.15
886.011	25.43
886.182	-15.53
886.354	72.53
886.525	37.72
886.697	11.09
886.869	21.33
887.04	54.1
887.212	-29.87
887.383	17.24
887.555	-44.2
887.726	19.29
887.897	27.48
888.069	-15.53
888.24	11.09
888.412	9.05
888.583	-11.43
888.754	60.24
888.926	-15.53
889.097	-13.48
889.268	-31.91
889.44	-13.48
889.611	31.57
889.782	15.19
889.953	-31.91
890.125	-15.53
890.296	31.57
890.467	47.96
890.638	4.95
890.809	23.38
890.98	4.95
891.151	33.62
891.323	-15.53
891.494	-7.34
891.665	21.33
891.836	-7.34
892.007	58.2
892.178	9.05
892.349	39.76
892.52	-7.34
892.691	7
892.862	11.09
893.032	0.85
893.203	-23.72
893.374	-1.19
893.545	56.15
893.716	-11.43
893.887	70.48
894.057	-50.35
894.228	11.09
894.399	-62.63
894.57	-11.43
894.74	25.43
894.911	45.91
895.082	-23.72
895.253	-5.29
895.423	62.29
895.594	115.54
895.764	-44.2
895.935	4.95
896.106	-5.29
896.276	-1.19
896.447	78.68
896.617	-7.34
896.788	-19.63
896.958	25.43
897.129	-70.83
897.299	-31.91
897.47	39.76
897.64	-38.06
897.81	31.57
897.981	62.29
898.151	45.91
898.322	-36.01
898.492	-15.53
898.662	-23.72
898.832	2.9
899.003	-7.34
899.173	4.95
899.343	-7.34
899.513	7
