Data from USB4F104151__202__13-59-49-666.txt Node

Date: Thu Mar 13 13:59:49 EDT 2025
User: louis
Spectrometer: USB4F10415
Trigger mode: 4
Integration Time (sec): 1.000000E-2
Scans to average: 1
Electric dark correction enabled: true
Nonlinearity correction enabled: false
Boxcar width: 0
XAxis mode: Wavelengths
Number of Pixels in Spectrum: 3648
>>>>>Begin Spectral Data<<<<<
178.204	-25.26
178.424	-25.26
178.644	-25.26
178.864	-53.93
179.084	-53.93
179.304	15.7
179.524	-66.22
179.744	13.65
179.964	34.13
180.184	19.8
180.404	-15.02
180.624	-21.16
180.844	-27.31
181.064	-4.78
181.283	-8.87
181.503	27.99
181.723	32.08
181.943	-41.64
182.163	42.32
182.383	5.46
182.602	-29.35
182.822	7.51
183.042	27.99
183.262	-88.75
183.482	-29.35
183.701	11.61
183.921	-0.68
184.141	-2.73
184.361	71
184.58	7.51
184.8	19.8
185.02	81.24
185.239	-19.11
185.459	36.18
185.679	-58.03
185.898	36.18
186.118	5.46
186.338	9.56
186.557	75.09
186.777	32.08
186.997	-6.83
187.216	58.71
187.436	19.8
187.655	-15.02
187.875	34.13
188.095	40.28
188.314	73.04
188.534	15.7
188.753	-53.93
188.973	-23.21
189.192	3.41
189.412	17.75
189.631	58.71
189.851	7.51
190.07	50.52
190.29	1.37
190.509	25.94
190.729	48.47
190.948	13.65
191.168	32.08
191.387	109.91
191.607	-47.79
191.826	34.13
192.045	-23.21
192.265	17.75
192.484	75.09
192.704	-6.83
192.923	-35.5
193.142	42.32
193.362	64.85
193.581	-64.17
193.8	-33.45
194.02	7.51
194.239	-8.87
194.458	66.9
194.678	71
194.897	42.32
195.116	-10.92
195.335	-72.36
195.555	75.09
195.774	54.61
195.993	36.18
196.212	15.7
196.432	46.42
196.651	42.32
196.87	21.85
197.089	-2.73
197.308	13.65
197.528	120.15
197.747	19.8
197.966	1.37
198.185	21.85
198.404	-8.87
198.623	52.56
198.842	34.13
199.062	58.71
199.281	77.14
199.5	-0.68
199.719	36.18
199.938	32.08
200.157	1.37
200.376	64.85
200.595	-15.02
200.814	64.85
201.033	27.99
201.252	-17.07
201.471	42.32
201.69	64.85
201.909	27.99
202.128	-6.83
202.347	-25.26
202.566	116.05
202.785	75.09
203.004	9.56
203.223	-2.73
203.442	64.85
203.661	25.94
203.879	27.99
204.098	124.24
204.317	3.41
204.536	118.1
204.755	66.9
204.974	68.95
205.193	-10.92
205.411	34.13
205.63	21.85
205.849	50.52
206.068	103.76
206.287	62.8
206.505	13.65
206.724	9.56
206.943	15.7
207.162	-35.5
207.381	32.08
207.599	9.56
207.818	91.48
208.037	-19.11
208.255	60.76
208.474	-12.97
208.693	58.71
208.911	52.56
209.13	60.76
209.349	68.95
209.567	60.76
209.786	93.52
210.005	21.85
210.223	50.52
210.442	13.65
210.661	32.08
210.879	68.95
211.098	-6.83
211.316	79.19
211.535	21.85
211.753	34.13
211.972	-10.92
212.191	97.62
212.409	-15.02
212.628	68.95
212.846	32.08
213.065	-15.02
213.283	32.08
213.502	19.8
213.72	52.56
213.938	-10.92
214.157	17.75
214.375	68.95
214.594	-33.45
214.812	-64.17
215.031	44.37
215.249	30.04
215.467	54.61
215.686	-27.31
215.904	85.33
216.122	19.8
216.341	36.18
216.559	15.7
216.778	50.52
216.996	56.66
217.214	23.89
217.432	64.85
217.651	17.75
217.869	1.37
218.087	40.28
218.306	-43.69
218.524	-19.11
218.742	54.61
218.96	83.28
219.179	-60.07
219.397	-4.78
219.615	34.13
219.833	-15.02
220.051	32.08
220.27	-6.83
220.488	-70.31
220.706	-6.83
220.924	-2.73
221.142	62.8
221.36	36.18
221.578	23.89
221.796	17.75
222.015	7.51
222.233	-25.26
222.451	62.8
222.669	-6.83
222.887	58.71
223.105	13.65
223.323	-29.35
223.541	-2.73
223.759	101.72
223.977	27.99
224.195	-2.73
224.413	17.75
224.631	75.09
224.849	-12.97
225.067	56.66
225.285	-29.35
225.503	101.72
225.721	13.65
225.939	36.18
226.157	32.08
226.375	89.43
226.592	46.42
226.81	-6.83
227.028	60.76
227.246	60.76
227.464	40.28
227.682	56.66
227.9	1.37
228.117	25.94
228.335	17.75
228.553	-25.26
228.771	25.94
228.989	132.44
229.206	17.75
229.424	54.61
229.642	3.41
229.86	25.94
230.077	13.65
230.295	-6.83
230.513	52.56
230.731	68.95
230.948	50.52
231.166	9.56
231.384	48.47
231.601	13.65
231.819	95.57
232.037	-0.68
232.254	17.75
232.472	7.51
232.689	46.42
232.907	77.14
233.125	46.42
233.342	13.65
233.56	-25.26
233.777	46.42
233.995	27.99
234.213	44.37
234.43	-43.69
234.648	34.13
234.865	62.8
235.083	40.28
235.3	36.18
235.518	64.85
235.735	64.85
235.953	9.56
236.17	-23.21
236.388	54.61
236.605	79.19
236.822	3.41
237.04	30.04
237.257	42.32
237.475	54.61
237.692	44.37
237.909	34.13
238.127	19.8
238.344	83.28
238.562	36.18
238.779	42.32
238.996	58.71
239.214	-10.92
239.431	81.24
239.648	13.65
239.865	54.61
240.083	68.95
240.3	32.08
240.517	60.76
240.735	44.37
240.952	-43.69
241.169	62.8
241.386	77.14
241.603	87.38
241.821	-6.83
242.038	38.23
242.255	15.7
242.472	23.89
242.689	15.7
242.907	19.8
243.124	13.65
243.341	62.8
243.558	36.18
243.775	73.04
243.992	38.23
244.209	15.7
244.426	30.04
244.643	36.18
244.86	-39.59
245.078	-15.02
245.295	50.52
245.512	19.8
245.729	27.99
245.946	91.48
246.163	68.95
246.38	62.8
246.597	34.13
246.814	38.23
247.031	13.65
247.248	134.48
247.464	48.47
247.681	40.28
247.898	-2.73
248.115	3.41
248.332	21.85
248.549	19.8
248.766	21.85
248.983	3.41
249.2	36.18
249.417	-10.92
249.633	-27.31
249.85	-55.98
250.067	-4.78
250.284	19.8
250.501	48.47
250.717	17.75
250.934	36.18
251.151	68.95
251.368	34.13
251.585	34.13
251.801	-21.16
252.018	54.61
252.235	99.67
252.451	64.85
252.668	23.89
252.885	-2.73
253.102	1.37
253.318	27.99
253.535	9.56
253.752	7.51
253.968	75.09
254.185	5.46
254.401	36.18
254.618	13.65
254.835	58.71
255.051	81.24
255.268	-35.5
255.484	32.08
255.701	89.43
255.917	30.04
256.134	-39.59
256.351	13.65
256.567	44.37
256.784	30.04
257	9.56
257.217	83.28
257.433	52.56
257.65	50.52
257.866	44.37
258.082	-19.11
258.299	13.65
258.515	56.66
258.732	-2.73
258.948	19.8
259.165	68.95
259.381	85.33
259.597	58.71
259.814	66.9
260.03	66.9
260.246	17.75
260.463	-53.93
260.679	42.32
260.895	-4.78
261.112	5.46
261.328	34.13
261.544	3.41
261.761	52.56
261.977	25.94
262.193	-33.45
262.409	15.7
262.626	44.37
262.842	105.81
263.058	-17.07
263.274	-17.07
263.49	81.24
263.707	46.42
263.923	40.28
264.139	34.13
264.355	44.37
264.571	60.76
264.787	42.32
265.004	89.43
265.22	13.65
265.436	25.94
265.652	85.33
265.868	15.7
266.084	48.47
266.3	95.57
266.516	21.85
266.732	-2.73
266.948	25.94
267.164	1.37
267.38	56.66
267.596	99.67
267.812	-12.97
268.028	3.41
268.244	38.23
268.46	9.56
268.676	-12.97
268.892	66.9
269.108	60.76
269.324	-47.79
269.54	54.61
269.756	46.42
269.972	30.04
270.188	36.18
270.403	-2.73
270.619	25.94
270.835	21.85
271.051	56.66
271.267	46.42
271.483	17.75
271.698	58.71
271.914	5.46
272.13	42.32
272.346	-45.74
272.562	-35.5
272.777	62.8
272.993	93.52
273.209	42.32
273.425	81.24
273.64	87.38
273.856	60.76
274.072	58.71
274.287	5.46
274.503	83.28
274.719	48.47
274.934	25.94
275.15	99.67
275.366	75.09
275.581	-15.02
275.797	-15.02
276.012	44.37
276.228	-23.21
276.444	42.32
276.659	56.66
276.875	5.46
277.09	79.19
277.306	58.71
277.521	3.41
277.737	23.89
277.952	48.47
278.168	50.52
278.383	25.94
278.599	46.42
278.814	116.05
279.03	56.66
279.245	152.92
279.461	-19.11
279.676	-27.31
279.892	79.19
280.107	42.32
280.322	21.85
280.538	38.23
280.753	7.51
280.969	73.04
281.184	-2.73
281.399	93.52
281.615	36.18
281.83	52.56
282.045	99.67
282.26	-25.26
282.476	-19.11
282.691	142.68
282.906	32.08
283.122	3.41
283.337	-66.22
283.552	7.51
283.767	1.37
283.983	-8.87
284.198	54.61
284.413	48.47
284.628	-31.4
284.843	13.65
285.058	87.38
285.274	25.94
285.489	23.89
285.704	60.76
285.919	7.51
286.134	-31.4
286.349	15.7
286.564	21.85
286.779	109.91
286.995	52.56
287.21	38.23
287.425	64.85
287.64	44.37
287.855	38.23
288.07	97.62
288.285	42.32
288.5	42.32
288.715	95.57
288.93	-0.68
289.145	-4.78
289.36	-19.11
289.575	42.32
289.79	15.7
290.004	66.9
290.219	40.28
290.434	60.76
290.649	40.28
290.864	19.8
291.079	36.18
291.294	36.18
291.509	46.42
291.724	66.9
291.938	32.08
292.153	30.04
292.368	-6.83
292.583	50.52
292.798	-4.78
293.012	114
293.227	66.9
293.442	25.94
293.657	101.72
293.871	85.33
294.086	-23.21
294.301	118.1
294.516	-6.83
294.73	91.48
294.945	-39.59
295.16	79.19
295.374	124.24
295.589	105.81
295.804	-15.02
296.018	81.24
296.233	36.18
296.447	52.56
296.662	-25.26
296.877	68.95
297.091	1.37
297.306	11.61
297.52	-27.31
297.735	58.71
297.949	32.08
298.164	44.37
298.378	-19.11
298.593	19.8
298.807	-0.68
299.022	68.95
299.236	50.52
299.451	68.95
299.665	11.61
299.88	64.85
300.094	75.09
300.309	-6.83
300.523	-12.97
300.737	66.9
300.952	116.05
301.166	50.52
301.381	-17.07
301.595	75.09
301.809	25.94
302.024	68.95
302.238	3.41
302.452	46.42
302.667	13.65
302.881	62.8
303.095	34.13
303.309	42.32
303.524	-23.21
303.738	36.18
303.952	-4.78
304.166	85.33
304.381	13.65
304.595	58.71
304.809	30.04
305.023	91.48
305.237	21.85
305.452	99.67
305.666	21.85
305.88	19.8
306.094	5.46
306.308	-35.5
306.522	-8.87
306.736	79.19
306.95	89.43
307.164	30.04
307.379	71
307.593	38.23
307.807	68.95
308.021	66.9
308.235	-10.92
308.449	52.56
308.663	56.66
308.877	48.47
309.091	54.61
309.305	27.99
309.519	-10.92
309.733	68.95
309.947	-58.03
310.161	66.9
310.374	75.09
310.588	-37.55
310.802	11.61
311.016	-17.07
311.23	40.28
311.444	17.75
311.658	-2.73
311.872	68.95
312.085	19.8
312.299	48.47
312.513	75.09
312.727	93.52
312.941	23.89
313.154	58.71
313.368	-17.07
313.582	11.61
313.796	21.85
314.009	-10.92
314.223	132.44
314.437	38.23
314.651	66.9
314.864	42.32
315.078	-19.11
315.292	-4.78
315.505	-37.55
315.719	66.9
315.933	124.24
316.146	68.95
316.36	23.89
316.573	50.52
316.787	32.08
317.001	-6.83
317.214	58.71
317.428	77.14
317.641	11.61
317.855	56.66
318.068	27.99
318.282	175.44
318.495	134.48
318.709	9.56
318.922	30.04
319.136	99.67
319.349	75.09
319.563	95.57
319.776	68.95
319.99	5.46
320.203	32.08
320.417	13.65
320.63	38.23
320.843	73.04
321.057	50.52
321.27	34.13
321.483	56.66
321.697	-0.68
321.91	32.08
322.124	13.65
322.337	93.52
322.55	36.18
322.763	34.13
322.977	17.75
323.19	-29.35
323.403	54.61
323.617	-17.07
323.83	56.66
324.043	46.42
324.256	66.9
324.469	9.56
324.683	-10.92
324.896	-35.5
325.109	118.1
325.322	60.76
325.535	58.71
325.748	27.99
325.962	7.51
326.175	60.76
326.388	93.52
326.601	71
326.814	46.42
327.027	30.04
327.24	32.08
327.453	25.94
327.666	56.66
327.879	58.71
328.092	58.71
328.305	-15.02
328.518	52.56
328.731	36.18
328.944	91.48
329.157	62.8
329.37	71
329.583	64.85
329.796	114
330.009	75.09
330.222	111.96
330.435	62.8
330.648	75.09
330.861	34.13
331.073	-4.78
331.286	60.76
331.499	7.51
331.712	142.68
331.925	64.85
332.138	1.37
332.35	46.42
332.563	-19.11
332.776	111.96
332.989	5.46
333.202	34.13
333.414	97.62
333.627	30.04
333.84	3.41
334.053	87.38
334.265	64.85
334.478	25.94
334.691	25.94
334.903	21.85
335.116	-49.83
335.329	9.56
335.541	79.19
335.754	40.28
335.966	-17.07
336.179	7.51
336.392	-15.02
336.604	38.23
336.817	75.09
337.029	50.52
337.242	64.85
337.454	52.56
337.667	44.37
337.88	27.99
338.092	11.61
338.305	-17.07
338.517	62.8
338.729	40.28
338.942	75.09
339.154	46.42
339.367	81.24
339.579	75.09
339.792	32.08
340.004	52.56
340.217	34.13
340.429	66.9
340.641	79.19
340.854	40.28
341.066	27.99
341.278	79.19
341.491	109.91
341.703	-10.92
341.915	-6.83
342.128	109.91
342.34	-0.68
342.552	-15.02
342.764	27.99
342.977	25.94
343.189	21.85
343.401	5.46
343.613	27.99
343.826	11.61
344.038	17.75
344.25	66.9
344.462	79.19
344.674	9.56
344.886	48.47
345.099	-0.68
345.311	89.43
345.523	52.56
345.735	-27.31
345.947	91.48
346.159	44.37
346.371	-0.68
346.583	36.18
346.795	58.71
347.007	9.56
347.219	91.48
347.431	75.09
347.643	157.01
347.855	44.37
348.067	68.95
348.279	-4.78
348.491	44.37
348.703	17.75
348.915	17.75
349.127	73.04
349.339	46.42
349.551	40.28
349.763	13.65
349.975	87.38
350.187	30.04
350.399	77.14
350.61	60.76
350.822	44.37
351.034	48.47
351.246	50.52
351.458	77.14
351.669	3.41
351.881	52.56
352.093	5.46
352.305	23.89
352.517	77.14
352.728	85.33
352.94	66.9
353.152	27.99
353.363	25.94
353.575	81.24
353.787	109.91
353.999	23.89
354.21	44.37
354.422	71
354.633	-41.64
354.845	103.76
355.057	32.08
355.268	58.71
355.48	66.9
355.692	71
355.903	77.14
356.115	17.75
356.326	-4.78
356.538	36.18
356.749	-10.92
356.961	91.48
357.172	21.85
357.384	77.14
357.595	-2.73
357.807	-37.55
358.018	50.52
358.23	64.85
358.441	107.86
358.653	52.56
358.864	11.61
359.075	71
359.287	40.28
359.498	40.28
359.709	99.67
359.921	21.85
360.132	42.32
360.344	107.86
360.555	7.51
360.766	50.52
360.977	54.61
361.189	68.95
361.4	15.7
361.611	118.1
361.823	15.7
362.034	17.75
362.245	32.08
362.456	38.23
362.667	50.52
362.879	19.8
363.09	15.7
363.301	-2.73
363.512	66.9
363.723	23.89
363.935	-6.83
364.146	58.71
364.357	9.56
364.568	66.9
364.779	-0.68
364.99	101.72
365.201	52.56
365.412	52.56
365.623	19.8
365.834	9.56
366.045	21.85
366.256	68.95
366.467	54.61
366.678	-45.74
366.889	9.56
367.1	75.09
367.311	83.28
367.522	34.13
367.733	32.08
367.944	34.13
368.155	-15.02
368.366	60.76
368.577	64.85
368.788	34.13
368.999	15.7
369.209	75.09
369.42	85.33
369.631	21.85
369.842	15.7
370.053	60.76
370.264	62.8
370.474	62.8
370.685	54.61
370.896	42.32
371.107	89.43
371.317	54.61
371.528	-47.79
371.739	68.95
371.95	75.09
372.16	25.94
372.371	66.9
372.582	23.89
372.792	-37.55
373.003	124.24
373.214	7.51
373.424	73.04
373.635	38.23
373.846	30.04
374.056	71
374.267	32.08
374.477	60.76
374.688	34.13
374.898	36.18
375.109	73.04
375.319	62.8
375.53	91.48
375.74	-15.02
375.951	66.9
376.161	32.08
376.372	109.91
376.582	79.19
376.793	21.85
377.003	15.7
377.214	103.76
377.424	62.8
377.635	-2.73
377.845	93.52
378.055	161.11
378.266	19.8
378.476	68.95
378.686	5.46
378.897	17.75
379.107	54.61
379.317	66.9
379.528	64.85
379.738	9.56
379.948	85.33
380.158	150.87
380.369	21.85
380.579	-4.78
380.789	25.94
380.999	79.19
381.21	38.23
381.42	17.75
381.63	-2.73
381.84	75.09
382.05	58.71
382.261	32.08
382.471	73.04
382.681	27.99
382.891	-15.02
383.101	124.24
383.311	58.71
383.521	89.43
383.731	50.52
383.941	83.28
384.151	23.89
384.361	87.38
384.571	15.7
384.781	128.34
384.991	25.94
385.201	105.81
385.411	124.24
385.621	42.32
385.831	5.46
386.041	85.33
386.251	64.85
386.461	66.9
386.671	-37.55
386.881	66.9
387.091	64.85
387.301	25.94
387.511	75.09
387.72	50.52
387.93	95.57
388.14	103.76
388.35	124.24
388.56	25.94
388.769	56.66
388.979	77.14
389.189	17.75
389.399	21.85
389.609	11.61
389.818	195.92
390.028	89.43
390.238	64.85
390.447	54.61
390.657	91.48
390.867	89.43
391.076	62.8
391.286	93.52
391.496	140.63
391.705	89.43
391.915	87.38
392.125	81.24
392.334	83.28
392.544	124.24
392.753	23.89
392.963	77.14
393.172	93.52
393.382	73.04
393.591	152.92
393.801	124.24
394.01	75.09
394.22	103.76
394.429	83.28
394.639	66.9
394.848	77.14
395.058	87.38
395.267	103.76
395.477	83.28
395.686	23.89
395.895	95.57
396.105	101.72
396.314	-10.92
396.524	64.85
396.733	54.61
396.942	19.8
397.152	71
397.361	77.14
397.57	71
397.78	95.57
397.989	34.13
398.198	152.92
398.407	144.72
398.617	95.57
398.826	17.75
399.035	95.57
399.244	130.39
399.453	46.42
399.663	83.28
399.872	152.92
400.081	144.72
400.29	103.76
400.499	89.43
400.708	85.33
400.917	134.48
401.127	132.44
401.336	91.48
401.545	130.39
401.754	62.8
401.963	136.53
402.172	118.1
402.381	132.44
402.59	128.34
402.799	62.8
403.008	132.44
403.217	157.01
403.426	124.24
403.635	175.44
403.844	120.15
404.053	144.72
404.262	73.04
404.471	165.2
404.68	165.2
404.888	77.14
405.097	64.85
405.306	99.67
405.515	208.21
405.724	140.63
405.933	179.54
406.142	157.01
406.35	200.02
406.559	234.83
406.768	216.4
406.977	191.83
407.185	187.73
407.394	183.63
407.603	249.17
407.812	177.49
408.02	247.12
408.229	189.78
408.438	222.55
408.646	173.39
408.855	273.75
409.064	286.03
409.272	255.31
409.481	288.08
409.69	253.27
409.898	238.93
410.107	300.37
410.315	365.9
410.524	376.14
410.733	353.62
410.941	392.53
411.15	380.24
411.358	388.43
411.567	378.19
411.775	435.53
411.984	400.72
412.192	406.86
412.401	429.39
412.609	419.15
412.818	517.45
413.026	519.5
413.234	468.3
413.443	519.5
413.651	544.08
413.86	488.78
414.068	587.08
414.276	593.23
414.485	591.18
414.693	566.6
414.901	669
415.11	628.04
415.318	673.1
415.526	755.02
415.734	752.97
415.943	761.16
416.151	820.55
416.359	787.79
416.567	814.41
416.776	941.38
416.984	920.9
417.192	1035.59
417.4	953.67
417.608	978.25
417.817	937.29
418.025	1140.04
418.233	1027.4
418.441	1074.5
418.649	1168.71
418.857	1205.57
419.065	1224
419.273	1219.91
419.481	1373.5
419.689	1445.18
419.897	1410.37
420.105	1480
420.313	1488.19
420.521	1635.64
420.729	1639.74
420.937	1606.97
421.145	1758.52
421.353	1787.19
421.561	1973.56
421.769	1955.13
421.977	2026.81
422.185	1987.9
422.393	2145.59
422.601	2192.69
422.809	2149.68
423.017	2184.5
423.224	2270.51
423.432	2444.59
423.64	2229.56
423.848	2700.59
424.056	2581.81
424.263	2671.92
424.471	2913.58
424.679	2858.28
424.887	3104.04
425.094	3042.6
425.302	3036.45
425.51	3163.43
425.718	3298.6
425.925	3388.71
426.133	3400.99
426.341	3667.23
426.548	3812.64
426.756	3685.66
426.964	3814.68
427.171	4121.88
427.379	4168.98
427.586	4263.19
427.794	4328.72
428.001	4508.94
428.209	4869.39
428.417	4619.53
428.624	5004.55
428.832	5041.42
429.039	4965.64
429.247	5039.37
429.454	5420.29
429.662	5811.45
429.869	5383.43
430.076	5813.5
430.284	5506.31
430.491	5930.23
430.699	6165.75
430.906	6257.91
431.114	6331.64
431.321	6448.37
431.528	6657.26
431.736	7161.06
431.943	7566.56
432.15	7081.19
432.358	7234.79
432.565	7738.59
432.772	7425.25
432.979	7902.43
433.187	7941.34
433.394	8086.75
433.601	8883.41
433.808	8838.35
434.016	8633.55
434.223	9243.85
434.43	9612.48
434.637	9331.91
434.844	9776.32
435.052	10104
435.259	10108.09
435.466	10325.18
435.673	10091.71
435.88	10851.5
436.087	11381.93
436.294	11355.3
436.501	10949.81
436.708	11158.7
436.915	11693.22
437.122	12082.33
437.329	12174.49
437.537	12364.95
437.743	12709.01
437.95	12661.91
438.157	13347.98
438.364	13898.88
438.571	13810.82
438.778	13841.54
438.985	15228.01
439.192	14593.14
439.399	14842.99
439.606	14507.13
439.813	15631.46
440.02	16327.77
440.227	16065.63
440.433	15983.71
440.64	16616.54
440.847	16282.72
441.054	16798.81
441.261	17740.87
441.467	17769.54
441.674	17949.76
441.881	18543.67
442.088	18656.31
442.294	18445.37
442.501	18967.6
442.708	19323.95
442.914	20124.71
443.121	20642.84
443.328	20356.13
443.534	21775.37
443.741	21154.83
443.948	20808.73
444.154	22381.57
444.361	22254.59
444.568	22750.2
444.774	22375.42
444.981	22334.46
445.187	23065.59
445.394	24333.28
445.6	23913.45
445.807	26237.89
446.013	25158.61
446.22	25863.11
446.426	26624.96
446.633	26891.19
446.839	27689.9
447.046	26508.22
447.252	28165.03
447.459	28378.02
447.665	28134.31
447.871	29453.2
448.078	30501.76
448.284	29113.24
448.491	29981.58
448.697	31071.1
448.903	31601.52
449.11	31996.78
449.316	31236.98
449.522	31441.78
449.728	32318.31
449.935	32732
450.141	33223.51
450.347	33252.19
450.553	32158.57
450.76	33170.27
450.966	33680.21
451.172	33870.67
451.378	34454.34
451.584	33434.46
451.791	34458.44
451.997	34769.73
452.203	35359.55
452.409	35197.76
452.615	35003.2
452.821	33758.03
453.027	33207.13
453.233	35285.82
453.44	33442.65
453.646	34007.89
453.852	34501.45
454.058	34378.57
454.264	33688.4
454.47	34382.66
454.676	33669.97
454.882	34669.38
455.088	31812.46
455.294	32123.76
455.5	32609.12
455.705	32971.61
455.911	31896.43
456.117	31224.7
456.323	30821.25
456.529	29506.45
456.735	30331.78
456.941	29690.77
457.147	29500.31
457.352	28142.5
457.558	28160.94
457.764	28251.05
457.97	27448.24
458.176	27083.7
458.381	26837.95
458.587	25768.91
458.793	25496.53
458.999	24435.68
459.204	25934.79
459.41	25258.96
459.616	23864.3
459.821	23661.55
460.027	23643.12
460.233	23167.99
460.438	22072.32
460.644	22412.29
460.85	21388.3
461.055	20954.13
461.261	21050.39
461.466	19364.91
461.672	18926.64
461.878	20122.66
462.083	18801.72
462.289	18515
462.494	18363.45
462.7	17751.11
462.905	17198.16
463.111	17863.75
463.316	17726.53
463.522	17617.99
463.727	17486.92
463.932	17366.09
464.138	17212.49
464.343	17407.05
464.549	16604.25
464.754	17372.24
464.959	17210.45
465.165	17106
465.37	16284.76
465.575	15905.89
465.781	16512.09
465.986	17015.89
466.191	16211.04
466.397	15553.64
466.602	14824.56
466.807	15662.18
467.012	15680.61
467.218	15653.99
467.423	15441
467.628	15653.99
467.833	16043.1
468.038	15539.3
468.244	15322.22
468.449	15651.94
468.654	15033.46
468.859	15045.74
469.064	14789.75
469.269	14304.38
469.474	14611.57
469.679	14914.67
469.885	14423.16
470.09	14464.12
470.295	14476.41
470.5	14279.8
470.705	14226.56
470.91	14177.4
471.115	13630.6
471.32	14046.33
471.525	14134.4
471.73	13669.51
471.935	13505.67
472.139	13122.7
472.344	13067.41
472.549	13042.83
472.754	13051.02
472.959	12706.96
473.164	12397.72
473.369	12305.56
473.574	12952.72
473.778	12762.26
473.983	12389.53
474.188	12457.11
474.393	11941.02
474.598	12053.66
474.802	11910.3
475.007	11721.89
475.212	11844.77
475.417	11300.01
475.621	11447.46
475.826	11435.17
476.031	11291.82
476.235	11015.34
476.44	11199.66
476.645	10894.51
476.849	10929.33
477.054	10691.76
477.259	10679.47
477.463	10699.95
477.668	10343.61
477.872	10640.56
478.077	10202.3
478.282	10122.43
478.486	10155.19
478.691	9964.73
478.895	9862.33
479.1	9880.77
479.304	9831.62
479.509	9598.15
479.713	9747.65
479.918	9364.68
480.122	9307.34
480.326	9462.98
480.531	9579.72
480.735	9516.23
480.94	9065.67
481.144	9604.29
481.348	9272.52
481.553	9129.16
481.757	9086.15
481.961	9133.26
482.166	9387.21
482.37	9288.9
482.574	9043.15
482.778	8895.69
482.983	9086.15
483.187	9133.26
483.391	9336.01
483.595	8953.04
483.8	9118.92
484.004	8805.58
484.208	9155.79
484.412	9045.2
484.616	9258.18
484.821	9145.55
485.025	9206.98
485.229	9071.82
485.433	8895.69
485.637	9092.3
485.841	9071.82
486.045	8828.11
486.249	9043.15
486.453	8946.89
486.657	9028.81
486.861	9043.15
487.065	8838.35
487.269	9032.91
487.473	8768.72
487.677	9149.64
487.881	9227.46
488.085	9098.44
488.289	9137.35
488.493	8994
488.697	9229.51
488.901	9299.14
489.105	9137.35
489.309	9307.34
489.512	9198.79
489.716	9282.76
489.92	9454.79
490.124	9397.45
490.328	9336.01
490.531	9393.35
490.735	9393.35
490.939	9460.93
491.143	9426.12
491.346	9213.13
491.55	9549
491.754	9374.92
491.958	9583.81
492.161	9499.84
492.365	9827.52
492.569	9540.8
492.772	9639.11
492.976	9807.04
493.18	10005.69
493.383	9893.05
493.587	9956.54
493.79	10151.1
493.994	9970.88
494.197	10142.91
494.401	10448.05
494.605	10452.15
494.808	10534.07
495.012	10607.8
495.215	10353.85
495.419	10859.7
495.622	10572.98
495.825	11005.1
496.029	10779.82
496.232	11062.44
496.436	11015.34
496.639	11228.33
496.843	11222.19
497.046	11482.28
497.249	11457.7
497.453	11781.28
497.656	11979.93
497.859	12039.33
498.063	11926.69
498.266	12133.53
498.469	12358.81
498.673	12280.99
498.876	12682.39
499.079	12960.91
499.282	12588.18
499.485	13141.13
499.689	13175.95
499.892	13288.59
500.095	13446.28
500.298	13966.46
500.501	13780.1
500.705	14199.93
500.908	14204.03
501.111	14507.13
501.314	14363.77
501.517	14558.33
501.72	14906.48
501.923	14914.67
502.126	15369.32
502.329	15377.51
502.532	15627.37
502.735	15852.64
502.938	16073.82
503.141	15989.86
503.344	16632.92
503.547	16551
503.75	16661.59
503.953	16972.88
504.156	17255.5
504.359	17263.69
504.562	17626.18
504.765	17785.93
504.968	17591.37
505.17	18230.34
505.373	18572.35
505.576	18687.03
505.779	19002.42
505.982	19153.97
506.185	19538.99
506.387	19455.02
506.59	20005.92
506.793	20681.75
506.996	20411.42
507.198	20984.85
507.401	20726.81
507.604	21042.2
507.807	21513.23
508.009	21781.51
508.212	21464.08
508.415	22258.69
508.617	22658.04
508.82	22836.22
509.022	22772.73
509.225	23421.94
509.428	23368.69
509.63	23888.87
509.833	23950.31
510.035	24728.54
510.238	24456.16
510.44	24679.39
510.643	25412.56
510.845	25592.78
511.048	25588.69
511.25	25832.4
511.453	26530.75
511.655	27243.45
511.858	27020.22
512.06	27315.12
512.262	27554.74
512.465	27702.19
512.667	28279.72
512.87	28617.63
513.072	28728.22
513.274	29100.95
513.477	29674.38
513.679	29846.41
513.881	30137.23
514.084	30593.92
514.286	30540.68
514.488	30899.07
514.69	32004.97
514.893	31785.84
515.095	32060.27
515.297	32586.6
515.499	32818.02
515.701	32977.76
515.904	33655.64
516.106	33848.14
516.308	34245.45
516.51	34956.1
516.712	34886.46
516.914	35160.89
517.116	35910.45
517.318	35943.22
517.52	36133.68
517.722	36709.16
517.925	36602.66
518.127	37495.58
518.329	37333.79
518.531	37296.92
518.733	38699.78
518.935	38828.8
519.136	38671.11
519.338	39299.84
519.54	39443.2
519.742	40196.85
519.944	40534.76
520.146	40827.62
520.348	41255.65
520.55	41298.66
520.752	41480.92
520.954	42504.91
521.155	41911
521.357	42877.64
521.559	42980.04
521.761	43678.39
521.963	43539.13
522.164	44221.11
522.366	44167.86
522.568	44960.42
522.77	45126.31
522.971	45505.18
523.173	45165.22
523.375	45544.09
523.576	45628.06
523.778	46353.04
523.98	46512.78
524.181	47295.11
524.383	46412.43
524.584	47581.82
524.786	47813.24
524.988	47348.35
525.189	47755.9
525.391	48497.27
525.592	48267.89
525.794	48826.99
525.995	49080.94
526.197	48364.15
526.398	49222.25
526.6	49574.5
526.801	49582.69
527.003	50090.58
527.204	49855.07
527.406	50459.22
527.607	50498.13
527.808	50707.02
528.01	50311.77
528.211	50635.34
528.412	51184.2
528.614	51368.52
528.815	51151.43
529.016	51622.47
529.218	51153.48
529.419	51915.33
529.62	51579.46
529.822	51798.59
530.023	52054.59
530.224	51868.22
530.425	52136.51
530.626	51475.01
530.828	51982.91
531.029	52910.64
531.23	52449.84
531.431	52093.5
531.632	52730.42
531.833	53183.02
532.035	52820.53
532.236	52791.86
532.437	52961.84
532.638	52668.98
532.839	53033.52
533.04	52804.14
533.241	52537.91
533.442	53465.64
533.643	53045.8
533.844	53146.15
534.045	53609
534.246	52849.2
534.447	53604.9
534.648	52988.46
534.849	53531.17
535.05	53049.9
535.251	53314.09
535.451	53381.67
535.652	53957.15
535.853	53375.53
536.054	53498.4
536.255	53488.17
536.456	53170.73
536.657	54071.84
536.857	53824.03
537.058	53338.66
537.259	53430.82
537.46	53527.08
537.66	53436.97
537.861	53572.13
538.062	53486.12
538.263	53750.31
538.463	53248.55
538.664	53670.43
538.865	53396.01
539.065	54145.56
539.266	53414.44
539.466	53985.82
539.667	52918.83
539.868	54282.78
540.068	53522.98
540.269	53172.78
540.469	53606.95
540.67	53459.49
540.87	53271.08
541.071	53662.24
541.271	53639.71
541.472	53654.05
541.672	53514.79
541.873	53375.53
542.073	53178.92
542.274	54481.43
542.474	53715.49
542.675	53336.62
542.875	53879.33
543.075	53553.7
543.276	53127.72
543.476	53609
543.676	53228.07
543.877	53461.54
544.077	53660.19
544.277	53320.23
544.478	53498.4
544.678	53746.21
544.878	53555.75
545.078	53928.48
545.279	52902.45
545.479	53355.05
545.679	53764.64
545.879	53037.61
546.079	53541.41
546.28	53309.99
546.48	52922.93
546.68	53568.04
546.88	53508.64
547.08	53539.36
547.28	53215.79
547.48	53344.81
547.68	53363.24
547.88	52974.12
548.081	53490.21
548.281	53821.98
548.481	53092.91
548.681	53609
548.881	53494.31
549.081	53678.63
549.28	52898.35
549.48	53537.32
549.68	53150.25
549.88	54143.52
550.08	53203.5
550.28	53379.62
550.48	52904.49
550.68	53656.1
550.88	52976.17
551.08	53656.1
551.279	53482.02
551.479	52998.7
551.679	53422.63
551.879	53342.76
552.079	53217.83
552.278	53348.9
552.478	53133.87
552.678	52615.73
552.878	53559.84
553.077	53453.35
553.277	52443.7
553.477	53342.76
553.676	53156.39
553.876	52912.69
554.076	52503.09
554.275	52695.6
554.475	52189.75
554.674	52935.21
554.874	52961.84
555.074	52425.27
555.273	52789.81
555.473	52970.03
555.672	52408.89
555.872	52392.5
556.071	52701.75
556.271	52935.21
556.47	51941.95
556.67	51976.76
556.869	52204.09
557.068	52300.34
557.268	51878.46
557.467	52204.09
557.667	52355.64
557.866	52435.51
558.065	52220.47
558.265	51841.6
558.464	51669.57
558.663	52089.4
558.863	51368.52
559.062	51898.94
559.261	51728.96
559.461	51700.29
559.66	50842.19
559.859	51665.47
560.058	51356.23
560.258	51685.95
560.457	51362.37
560.656	51894.85
560.855	51405.38
561.054	51612.23
561.253	50811.47
561.453	51311.17
561.652	51558.98
561.851	51563.07
562.05	51020.36
562.249	50719.31
562.448	51532.35
562.647	50915.92
562.846	50938.44
563.045	50790.99
563.244	50119.26
563.443	51106.38
563.642	50385.49
563.841	50879.05
564.04	50391.64
564.239	50877
564.438	49998.43
564.637	50666.06
564.836	50707.02
565.035	49955.42
565.234	50408.02
565.432	50131.54
565.631	49945.18
565.83	50174.55
566.029	50080.35
566.228	49492.58
566.427	49902.17
566.625	49527.39
566.824	48718.45
567.023	49844.83
567.222	48663.15
567.42	49709.66
567.619	49468
567.818	49025.64
568.016	48863.85
568.215	49392.23
568.414	48874.09
568.612	49425
568.811	48984.68
569.01	49248.87
569.208	48689.77
569.407	49226.34
569.605	48679.53
569.804	48917.1
570.002	48552.56
570.201	48259.7
570.4	48403.06
570.598	48128.63
570.797	48292.47
570.995	48226.93
571.193	47731.32
571.392	47946.36
571.59	47501.95
571.789	47899.26
571.987	47753.85
572.186	47538.82
572.384	47504
572.582	47528.58
572.781	47886.97
572.979	46940.81
573.177	46963.34
573.376	46942.86
573.574	46662.29
573.772	46672.53
573.971	46609.04
574.169	46953.1
574.367	46248.6
574.565	46267.03
574.763	46494.35
574.962	45931.16
575.16	45773.47
575.358	46256.79
575.556	45382.3
575.754	46189.2
575.952	44714.67
576.151	45873.82
576.349	45165.22
576.547	45429.41
576.745	45640.35
576.943	45482.66
577.141	45236.9
577.339	45253.28
577.537	45036.2
577.735	44417.71
577.933	44370.61
578.131	44436.14
578.329	44180.15
578.527	43989.69
578.725	44067.51
578.923	44647.08
579.121	44354.22
579.319	43721.4
579.516	43842.23
579.714	43432.64
579.912	43555.52
580.11	43205.31
580.308	43352.77
580.506	43551.42
580.704	42506.96
580.901	43143.87
581.099	43590.33
581.297	42599.12
581.495	42695.37
581.692	42969.8
581.89	42375.89
582.088	42384.08
582.285	42136.27
582.483	42545.87
582.681	42212.05
582.878	41865.94
583.076	41859.8
583.274	42199.76
583.471	41171.68
583.669	41464.54
583.866	41472.73
584.064	41269.98
584.262	41224.93
584.459	41401.05
584.657	41177.82
584.854	41005.8
585.052	40792.81
585.249	40927.97
585.447	40426.22
585.644	40186.61
585.841	40561.39
586.039	40829.67
586.236	40061.68
586.434	39797.49
586.631	39650.04
586.828	40149.74
587.026	40164.08
587.223	39627.51
587.42	39594.75
587.618	39326.46
587.815	39142.14
588.012	39455.48
588.21	38761.22
588.407	39377.66
588.604	38927.11
588.801	38556.42
588.999	38562.57
589.196	38939.4
589.393	38568.71
589.59	38247.18
589.787	38308.62
589.984	38007.57
590.182	37622.55
590.379	38312.72
590.576	37581.59
590.773	37952.27
590.97	37692.18
591.167	37886.74
591.364	37122.85
591.561	37290.78
591.758	36993.82
591.955	37184.29
592.152	37108.51
592.349	37120.8
592.546	36680.49
592.743	37024.54
592.94	36483.88
593.137	36688.68
593.334	36846.37
593.531	35838.77
593.727	36264.75
593.924	36336.43
594.121	36113.2
594.318	36524.84
594.515	36129.58
594.712	36258.6
594.908	35633.97
595.105	35779.38
595.302	35322.68
595.499	35466.04
595.696	35570.49
595.892	35203.9
596.089	35584.82
596.286	35310.39
596.482	35027.77
596.679	34906.94
596.876	34958.14
597.072	34855.75
597.269	35103.55
597.466	34521.93
597.662	34593.61
597.859	34612.04
598.055	34315.08
598.252	34233.16
598.448	34173.77
598.645	34011.98
598.841	34181.96
599.038	33774.42
599.234	33989.45
599.431	33571.67
599.627	33256.28
599.824	33907.54
600.02	33373.02
600.217	33063.77
600.413	33440.6
600.609	33250.14
600.806	32721.76
601.002	33104.73
601.198	32928.61
601.395	32285.54
601.591	32254.83
601.787	32811.87
601.984	32222.06
602.18	32615.27
602.376	32295.78
602.572	32187.24
602.769	31814.51
602.965	31757.17
603.161	31662.96
603.357	31308.66
603.553	31230.84
603.75	31892.33
603.946	31454.07
604.142	31554.42
604.338	31067
604.534	31404.92
604.73	30870.4
604.926	30778.24
605.122	30829.44
605.318	30606.21
605.514	30256.01
605.71	30198.66
605.906	30032.78
606.102	30425.99
606.298	30432.13
606.494	29971.34
606.69	30000.01
606.886	29952.91
607.082	29406.1
607.278	29617.04
607.474	29203.35
607.67	29580.18
607.866	29223.83
608.062	29608.85
608.257	29354.9
608.453	29246.36
608.649	29117.34
608.845	28672.93
609.041	28957.6
609.236	29246.36
609.432	28482.47
609.628	28777.37
609.824	28697.5
610.019	28558.24
610.215	28443.56
610.411	28640.16
610.606	28087.21
610.802	28578.72
610.998	28386.21
611.193	28218.28
611.389	28212.13
611.584	27984.81
611.78	27757.49
611.976	27913.13
612.171	27745.2
612.367	27640.75
612.562	27669.42
612.758	27450.29
612.953	27212.73
613.149	27515.83
613.344	27108.28
613.539	27499.44
613.735	27249.59
613.93	27280.31
614.126	26917.82
614.321	27397.04
614.517	26969.02
614.712	26477.51
614.907	26540.99
615.103	26694.59
615.298	26307.52
615.493	26977.21
615.688	26344.39
615.884	26622.91
616.079	26168.26
616.274	26004.42
616.47	26123.21
616.665	26305.48
616.86	26096.58
617.055	26334.15
617.25	25951.18
617.445	26151.88
617.641	25631.69
617.836	26047.43
618.031	25418.71
618.226	25689.04
618.421	25193.43
618.616	25535.44
618.811	25095.13
619.006	25957.32
619.201	24718.3
619.396	24912.86
619.591	24921.05
619.786	24859.61
619.981	24325.09
620.176	24710.11
620.371	24325.09
620.566	24421.34
620.761	24392.67
620.956	24458.21
621.151	23802.86
621.346	24097.77
621.541	23557.1
621.735	23811.05
621.93	23131.12
622.125	23360.5
622.32	23026.68
622.515	23223.28
622.709	22823.93
622.904	22799.35
623.099	22678.52
623.294	22670.33
623.488	22678.52
623.683	22473.73
623.878	21976.07
624.072	22352.9
624.267	22184.96
624.462	22395.9
624.656	21941.25
624.851	21347.34
625.046	21373.97
625.24	21527.56
625.435	21599.24
625.629	21265.42
625.824	21156.88
626.018	21103.64
626.213	20628.51
626.407	20857.88
626.602	20337.69
626.796	20558.88
626.991	20640.79
627.185	20397.09
627.38	20190.24
627.574	20149.28
627.768	19940.39
627.963	19719.21
628.157	20057.12
628.352	19676.2
628.546	19360.81
628.74	19758.12
628.935	19557.42
629.129	19303.47
629.323	19350.57
629.517	19207.22
629.712	18895.92
629.906	19264.56
630.1	18877.49
630.294	18603.07
630.489	18615.35
630.683	18836.53
630.877	18220.1
631.071	18189.38
631.265	18375.74
631.459	18240.58
631.653	18041.92
631.848	18203.71
632.042	17898.56
632.236	18142.27
632.43	17894.47
632.624	17661
632.818	17841.22
633.012	17470.54
633.206	17341.52
633.4	17341.52
633.594	17124.43
633.788	17206.35
633.982	17065.04
634.176	16880.72
634.369	16923.73
634.563	16647.26
634.757	16659.54
634.951	16798.81
635.145	16780.37
635.339	16684.12
635.533	16462.94
635.726	16460.89
635.92	16141.41
636.114	16399.45
636.308	15934.56
636.501	15985.76
636.695	16211.04
636.889	16045.15
637.083	15760.48
637.276	15748.2
637.47	15647.85
637.664	15316.08
637.857	15647.85
638.051	15404.14
638.244	15377.51
638.438	15062.13
638.632	15117.42
638.825	15182.96
639.019	14865.52
639.212	14945.39
639.406	14918.77
639.599	14888.05
639.793	14824.56
639.986	14525.56
640.18	14609.53
640.373	14496.89
640.567	14345.34
640.76	14310.52
640.954	14353.53
641.147	14285.95
641.34	14165.12
641.534	14105.73
641.727	13982.85
641.92	13798.53
642.114	13993.09
642.307	13857.92
642.5	13962.37
642.694	13513.86
642.887	13370.51
643.08	13606.02
643.273	13311.11
643.467	13530.25
643.66	13124.75
643.853	13247.63
644.046	12885.14
644.239	13200.52
644.432	13053.07
644.626	12903.57
644.819	12950.67
645.012	12858.51
645.205	12850.32
645.398	12577.94
645.591	12377.24
645.784	12485.78
645.977	12293.27
646.17	12485.78
646.363	12348.57
646.556	12328.09
646.749	12182.68
646.942	12158.11
647.135	11920.54
647.328	11828.38
647.521	11816.1
647.714	11879.58
647.907	11887.78
648.099	11351.21
648.292	11695.27
648.485	11621.54
648.678	11545.77
648.871	11248.81
649.064	11175.08
649.256	11396.26
649.449	11365.54
649.642	11142.32
649.835	10951.85
650.027	10884.27
650.22	10976.43
650.413	10896.56
650.605	10953.9
650.798	10732.72
650.991	10622.13
651.183	10689.71
651.376	10462.39
651.568	10390.71
651.761	10284.22
651.954	10282.17
652.146	10273.98
652.339	10153.15
652.531	10159.29
652.724	10204.35
652.916	9747.65
653.109	9960.64
653.301	10112.19
653.494	9823.42
653.686	9645.25
653.879	9766.08
654.071	9409.73
654.263	9323.72
654.456	9417.93
654.648	9596.1
654.84	9104.59
655.033	9313.48
655.225	9161.93
655.417	9290.95
655.61	9067.72
655.802	8971.47
655.994	9020.62
656.186	8914.13
656.379	8907.98
656.571	8815.82
656.763	8514.77
656.955	8791.25
657.148	8588.5
657.34	8643.79
657.532	8475.86
657.724	8357.08
657.916	8365.27
658.108	8121.56
658.3	8183
658.492	8195.29
658.684	8119.51
658.876	8013.02
659.068	7793.89
659.26	7933.15
659.452	7822.56
659.644	7869.66
659.836	7515.36
660.028	7976.16
660.22	7501.03
660.412	7544.03
660.604	7513.31
660.796	7294.18
660.988	7263.46
661.18	7404.77
661.372	7269.61
661.563	7029.99
661.755	7023.85
661.947	7062.76
662.139	7027.95
662.331	6962.41
662.522	6984.94
662.714	6937.84
662.906	6946.03
663.097	6759.66
663.289	6819.05
663.481	6702.32
663.673	6671.6
663.864	6501.62
664.056	6497.52
664.247	6485.23
664.439	6372.6
664.631	6509.81
664.822	6380.79
665.014	6194.42
665.205	6472.95
665.397	6092.02
665.588	6077.69
665.78	6104.31
665.971	5965.05
666.163	6001.91
666.354	5838.08
666.546	6079.74
666.737	5840.12
666.929	5967.1
667.12	5850.36
667.311	5891.32
667.503	5633.28
667.694	5604.61
667.885	5582.08
668.077	5725.44
668.268	5580.03
668.459	5539.07
668.651	5498.11
668.842	5424.39
669.033	5555.46
669.224	5334.28
669.416	5506.31
669.607	5238.02
669.798	5252.36
669.989	5211.4
670.18	5133.57
670.371	5213.45
670.563	5205.25
670.754	5186.82
670.945	4943.11
671.136	5111.05
671.327	5074.18
671.518	5072.14
671.709	5057.8
671.9	4988.17
672.091	4961.55
672.282	4965.64
672.473	4885.77
672.664	4826.38
672.855	4713.74
673.046	4781.32
673.237	4922.63
673.428	4781.32
673.619	4855.05
673.809	4662.54
674	4730.13
674.191	4709.65
674.382	4574.48
674.573	4683.02
674.764	4566.29
674.954	4756.75
675.145	4384.02
675.336	4599.06
675.527	4506.9
675.717	4521.23
675.908	4422.93
676.099	4482.32
676.289	4392.21
676.48	4275.48
676.671	4310.29
676.861	4406.55
677.052	4500.75
677.243	4222.23
677.433	4150.55
677.624	4357.39
677.814	4185.37
678.005	4359.44
678.195	4148.5
678.386	4232.47
678.576	4130.07
678.767	4070.68
678.957	4001.05
679.148	4220.18
679.338	4214.04
679.529	4044.06
679.719	4005.14
679.909	4052.25
680.1	4015.38
680.29	4023.58
680.481	4171.03
680.671	4029.72
680.861	4074.78
681.052	4017.43
681.242	3992.86
681.432	3874.07
681.622	3822.88
681.813	3912.99
682.003	3786.01
682.193	3845.4
682.383	3851.55
682.573	3923.23
682.764	3806.49
682.954	3935.51
683.144	3804.44
683.334	3878.17
683.524	3919.13
683.714	3824.92
683.904	3732.76
684.094	3876.12
684.284	3892.51
684.474	3874.07
684.664	3790.11
684.854	3818.78
685.044	3679.52
685.234	3622.17
685.424	3695.9
685.614	3613.98
685.804	3642.65
685.994	3771.68
686.184	3673.37
686.374	3681.57
686.564	3671.33
686.753	3716.38
686.943	3691.81
687.133	3693.85
687.323	3728.67
687.513	3556.64
687.702	3532.06
687.892	3568.93
688.082	3605.79
688.272	3659.04
688.461	3644.7
688.651	3599.65
688.841	3568.93
689.03	3618.08
689.22	3507.49
689.41	3706.14
689.599	3622.17
689.789	3616.03
689.979	3706.14
690.168	3587.36
690.358	3423.52
690.547	3636.51
690.737	3566.88
690.926	3542.3
691.116	3499.3
691.305	3777.82
691.495	3491.1
691.684	3540.26
691.874	3630.37
692.063	3521.82
692.252	3540.26
692.442	3579.17
692.631	3511.58
692.82	3575.07
693.01	3673.37
693.199	3448.1
693.388	3427.62
693.578	3560.74
693.767	3460.38
693.956	3497.25
694.146	3398.95
694.335	3532.06
694.524	3605.79
694.713	3536.16
694.902	3558.69
695.092	3566.88
695.281	3491.1
695.47	3579.17
695.659	3429.66
695.848	3616.03
696.037	3458.34
696.226	3407.14
696.415	3499.3
696.604	3487.01
696.793	3503.39
696.982	3421.47
697.171	3323.17
697.36	3458.34
697.549	3476.77
697.738	3349.79
697.927	3368.23
698.116	3487.01
698.305	3405.09
698.494	3349.79
698.683	3388.71
698.872	3474.72
699.061	3255.59
699.25	3335.46
699.438	3382.56
699.627	3390.75
699.816	3353.89
700.005	3378.47
700.193	3255.59
700.382	3357.99
700.571	3339.55
700.76	3216.68
700.948	3269.92
701.137	3237.16
701.326	3140.9
701.514	3284.26
701.703	3261.73
701.892	3212.58
702.08	3263.78
702.269	3280.16
702.457	3126.57
702.646	3300.64
702.834	3157.29
703.023	3118.37
703.212	3251.49
703.4	3142.95
703.589	3058.98
703.777	3157.29
703.965	3147.05
704.154	3079.46
704.342	3007.78
704.531	2991.4
704.719	2893.1
704.907	2862.38
705.096	2886.95
705.284	3056.93
705.472	2876.71
705.661	2921.77
705.849	3003.69
706.037	2899.24
706.226	2895.15
706.414	2864.43
706.602	2956.58
706.79	2995.5
706.979	2895.15
707.167	2794.79
707.355	2796.84
707.543	2925.86
707.731	2938.15
707.919	2852.14
708.107	2721.07
708.296	2921.77
708.484	2776.36
708.672	2753.84
708.86	2712.88
709.048	2739.5
709.236	2727.21
709.424	2725.16
709.612	2721.07
709.8	2684.2
709.988	2594.09
710.176	2762.03
710.364	2639.15
710.551	2655.53
710.739	2696.49
710.927	2583.85
711.115	2710.83
711.303	2620.72
711.491	2499.89
711.679	2526.51
711.866	2510.13
712.054	2639.15
712.242	2485.55
712.43	2546.99
712.617	2546.99
712.805	2420.02
712.993	2483.5
713.181	2340.15
713.368	2477.36
713.556	2499.89
713.744	2266.42
713.931	2387.25
714.119	2415.92
714.306	2454.83
714.494	2364.72
714.682	2366.77
714.869	2270.51
715.057	2393.39
715.244	2299.19
715.432	2264.37
715.619	2301.23
715.807	2215.22
715.994	2204.98
716.182	2295.09
716.369	2221.36
716.556	2290.99
716.744	2250.03
716.931	2161.97
717.119	2241.84
717.306	2174.26
717.493	2053.43
717.681	2172.21
717.868	2127.16
718.055	2194.74
718.242	2106.68
718.43	2131.25
718.617	2114.87
718.804	2213.17
718.991	2075.96
719.179	2041.14
719.366	2014.52
719.553	2053.43
719.74	1940.79
719.927	1998.13
720.114	2016.57
720.301	1983.8
720.488	1901.88
720.676	1879.35
720.863	2024.76
721.05	2047.29
721.237	1877.3
721.424	1899.83
721.611	1901.88
721.798	1908.02
721.985	1860.92
722.172	1867.06
722.358	1942.84
722.545	1803.58
722.732	1873.21
722.919	1903.93
723.106	1832.25
723.293	1678.65
723.48	1676.6
723.667	1762.62
723.853	1830.2
724.04	1844.54
724.227	1674.56
724.414	1717.56
724.6	1727.8
724.787	1623.36
724.974	1760.57
725.161	1699.13
725.347	1860.92
725.534	1697.08
725.72	1713.47
725.907	1623.36
726.094	1733.95
726.28	1553.73
726.467	1631.55
726.653	1539.39
726.84	1660.22
727.027	1692.99
727.213	1592.64
727.4	1604.92
727.586	1684.8
727.773	1471.81
727.959	1494.33
728.145	1647.93
728.332	1543.49
728.518	1547.58
728.705	1561.92
728.891	1553.73
729.077	1566.01
729.264	1598.78
729.45	1492.29
729.636	1541.44
729.823	1568.06
730.009	1414.46
730.195	1471.81
730.382	1498.43
730.568	1531.2
730.754	1477.95
730.94	1498.43
731.126	1549.63
731.313	1445.18
731.499	1443.14
731.685	1303.87
731.871	1426.75
732.057	1467.71
732.243	1447.23
732.429	1475.9
732.615	1361.22
732.801	1518.91
732.987	1371.46
733.173	1355.07
733.359	1410.37
733.545	1393.98
733.731	1361.22
733.917	1242.43
734.103	1320.26
734.289	1363.26
734.475	1264.96
734.661	1322.31
734.847	1357.12
735.033	1393.98
735.219	1264.96
735.404	1330.5
735.59	1400.13
735.776	1207.62
735.962	1236.29
736.148	1264.96
736.333	1215.81
736.519	1189.19
736.705	1217.86
736.89	1199.43
737.076	1291.59
737.262	1299.78
737.447	1252.67
737.633	1285.44
737.819	1242.43
738.004	1277.25
738.19	1189.19
738.375	1264.96
738.561	1170.76
738.747	1197.38
738.932	1191.24
739.118	1224
739.303	1246.53
739.489	1160.52
739.674	1135.94
739.859	1078.6
740.045	1197.38
740.23	1234.24
740.416	1049.93
740.601	1164.61
740.786	1142.08
740.972	1103.17
741.157	1047.88
741.342	1103.17
741.528	1240.39
741.713	1097.03
741.898	1109.32
742.084	1054.02
742.269	1062.21
742.454	990.53
742.639	1123.65
742.824	1039.69
743.01	933.19
743.195	1086.79
743.38	1146.18
743.565	1037.64
743.75	929.1
743.935	1051.97
744.12	943.43
744.305	937.29
744.49	929.1
744.675	1027.4
744.86	959.81
745.045	910.66
745.23	953.67
745.415	970.05
745.6	984.39
745.785	890.18
745.97	947.53
746.155	951.62
746.34	910.66
746.525	951.62
746.71	879.94
746.895	787.79
747.079	916.81
747.264	965.96
747.449	849.22
747.634	929.1
747.819	812.36
748.003	836.94
748.188	861.51
748.373	841.03
748.557	867.66
748.742	875.85
748.927	896.33
749.111	861.51
749.296	773.45
749.481	865.61
749.665	824.65
749.85	779.59
750.034	775.5
750.219	849.22
750.404	828.74
750.588	824.65
750.773	781.64
750.957	834.89
751.141	787.79
751.326	838.98
751.51	734.54
751.695	810.31
751.879	812.36
752.064	785.74
752.248	763.21
752.432	771.4
752.617	707.91
752.801	767.31
752.985	734.54
753.17	709.96
753.354	744.78
753.538	761.16
753.722	712.01
753.907	759.11
754.091	705.87
754.275	705.87
754.459	646.48
754.643	748.87
754.828	695.63
755.012	759.11
755.196	628.04
755.38	726.35
755.564	681.29
755.748	666.96
755.932	671.05
756.116	664.91
756.3	578.89
756.484	671.05
756.668	609.61
756.852	615.76
757.036	648.52
757.22	734.54
757.404	644.43
757.588	628.04
757.772	650.57
757.956	552.27
758.14	623.95
758.323	562.51
758.507	675.15
758.691	570.7
758.875	621.9
759.059	578.89
759.242	585.04
759.426	673.1
759.61	568.65
759.794	525.65
759.977	582.99
760.161	628.04
760.345	591.18
760.528	564.56
760.712	507.21
760.895	568.65
761.079	621.9
761.263	548.17
761.446	580.94
761.63	585.04
761.813	570.7
761.997	560.46
762.18	533.84
762.364	537.93
762.547	601.42
762.731	484.69
762.914	587.08
763.098	492.88
763.281	519.5
763.464	513.36
763.648	421.2
763.831	619.85
764.015	427.34
764.198	521.55
764.381	484.69
764.564	529.74
764.748	488.78
764.931	496.97
765.114	544.08
765.297	552.27
765.481	441.68
765.664	429.39
765.847	511.31
766.03	517.45
766.213	474.45
766.397	564.56
766.58	533.84
766.763	519.5
766.946	421.2
767.129	525.65
767.312	511.31
767.495	525.65
767.678	566.6
767.861	531.79
768.044	554.32
768.227	570.7
768.41	570.7
768.593	482.64
768.776	480.59
768.959	554.32
769.142	572.75
769.324	554.32
769.507	482.64
769.69	519.5
769.873	503.12
770.056	460.11
770.239	511.31
770.421	466.25
770.604	542.03
770.787	427.34
770.97	503.12
771.152	433.49
771.335	470.35
771.518	484.69
771.7	470.35
771.883	472.4
772.066	480.59
772.248	488.78
772.431	537.93
772.613	410.96
772.796	361.81
772.978	484.69
773.161	494.93
773.343	427.34
773.526	427.34
773.708	458.06
773.891	492.88
774.073	494.93
774.256	519.5
774.438	443.73
774.621	443.73
774.803	445.77
774.985	441.68
775.168	398.67
775.35	490.83
775.532	394.58
775.715	361.81
775.897	425.29
776.079	453.97
776.261	370
776.444	460.11
776.626	335.18
776.808	400.72
776.99	386.38
777.173	376.14
777.355	378.19
777.537	353.62
777.719	351.57
777.901	326.99
778.083	337.23
778.265	361.81
778.447	294.22
778.629	337.23
778.811	322.9
778.993	410.96
779.175	376.14
779.357	439.63
779.539	335.18
779.721	367.95
779.903	308.56
780.085	294.22
780.267	273.75
780.449	351.57
780.631	300.37
780.812	329.04
780.994	361.81
781.176	298.32
781.358	329.04
781.54	351.57
781.721	378.19
781.903	312.66
782.085	318.8
782.267	318.8
782.448	298.32
782.63	259.41
782.812	286.03
782.993	226.64
783.175	331.09
783.357	333.14
783.538	279.89
783.72	202.07
783.901	353.62
784.083	234.83
784.264	335.18
784.446	296.27
784.627	273.75
784.809	251.22
784.99	329.04
785.172	253.27
785.353	337.23
785.535	304.46
785.716	294.22
785.897	263.51
786.079	308.56
786.26	290.13
786.441	226.64
786.623	245.07
786.804	290.13
786.985	212.31
787.167	228.69
787.348	279.89
787.529	271.7
787.71	281.94
787.891	255.31
788.073	275.79
788.254	202.07
788.435	228.69
788.616	296.27
788.797	273.75
788.978	312.66
789.159	224.59
789.34	214.35
789.522	255.31
789.703	210.26
789.884	189.78
790.065	224.59
790.246	238.93
790.427	206.16
790.607	202.07
790.788	267.6
790.969	265.55
791.15	173.39
791.331	232.79
791.512	206.16
791.693	167.25
791.874	255.31
792.054	308.56
792.235	159.06
792.416	134.48
792.597	142.68
792.778	200.02
792.958	247.12
793.139	189.78
793.32	238.93
793.5	152.92
793.681	208.21
793.862	181.59
794.042	181.59
794.223	189.78
794.404	214.35
794.584	271.7
794.765	169.3
794.945	134.48
795.126	191.83
795.306	251.22
795.487	126.29
795.667	101.72
795.848	263.51
796.028	163.15
796.209	189.78
796.389	140.63
796.57	173.39
796.75	91.48
796.93	173.39
797.111	140.63
797.291	159.06
797.471	177.49
797.652	243.03
797.832	161.11
798.012	175.44
798.192	165.2
798.373	181.59
798.553	200.02
798.733	173.39
798.913	185.68
799.093	116.05
799.274	208.21
799.454	152.92
799.634	181.59
799.814	167.25
799.994	177.49
800.174	124.24
800.354	144.72
800.534	197.97
800.714	148.82
800.894	126.29
801.074	161.11
801.254	134.48
801.434	132.44
801.614	171.35
801.794	214.35
801.974	353.62
802.154	83.28
802.334	183.63
802.514	83.28
802.693	93.52
802.873	185.68
803.053	97.62
803.233	193.87
803.413	152.92
803.592	107.86
803.772	154.96
803.952	146.77
804.131	95.57
804.311	161.11
804.491	111.96
804.67	111.96
804.85	66.9
805.03	150.87
805.209	107.86
805.389	83.28
805.568	181.59
805.748	77.14
805.928	21.85
806.107	87.38
806.287	111.96
806.466	185.68
806.646	85.33
806.825	107.86
807.004	136.53
807.184	122.2
807.363	134.48
807.543	62.8
807.722	109.91
807.901	157.01
808.081	83.28
808.26	134.48
808.439	68.95
808.619	144.72
808.798	95.57
808.977	79.19
809.156	105.81
809.336	95.57
809.515	126.29
809.694	58.71
809.873	75.09
810.052	118.1
810.231	126.29
810.411	152.92
810.59	126.29
810.769	85.33
810.948	103.76
811.127	79.19
811.306	89.43
811.485	38.23
811.664	161.11
811.843	52.56
812.022	103.76
812.201	122.2
812.38	154.96
812.559	87.38
812.737	134.48
812.916	91.48
813.095	73.04
813.274	122.2
813.453	142.68
813.632	83.28
813.811	71
813.989	19.8
814.168	99.67
814.347	103.76
814.526	177.49
814.704	83.28
814.883	134.48
815.062	83.28
815.24	93.52
815.419	136.53
815.598	87.38
815.776	-55.98
815.955	114
816.133	91.48
816.312	60.76
816.49	71
816.669	58.71
816.847	30.04
817.026	152.92
817.204	134.48
817.383	75.09
817.561	46.42
817.74	23.89
817.918	120.15
818.097	66.9
818.275	87.38
818.453	71
818.632	46.42
818.81	95.57
818.988	79.19
819.167	5.46
819.345	32.08
819.523	56.66
819.701	83.28
819.879	66.9
820.058	89.43
820.236	103.76
820.414	93.52
820.592	99.67
820.77	64.85
820.948	38.23
821.127	-23.21
821.305	58.71
821.483	93.52
821.661	122.2
821.839	38.23
822.017	93.52
822.195	54.61
822.373	42.32
822.551	-12.97
822.729	48.47
822.907	79.19
823.085	1.37
823.262	44.37
823.44	103.76
823.618	93.52
823.796	111.96
823.974	148.82
824.152	42.32
824.329	42.32
824.507	89.43
824.685	54.61
824.863	114
825.04	42.32
825.218	9.56
825.396	13.65
825.574	13.65
825.751	93.52
825.929	118.1
826.107	38.23
826.284	-41.64
826.462	60.76
826.639	75.09
826.817	25.94
826.994	83.28
827.172	60.76
827.349	52.56
827.527	66.9
827.704	99.67
827.882	85.33
828.059	79.19
828.237	66.9
828.414	142.68
828.591	11.61
828.769	42.32
828.946	93.52
829.124	95.57
829.301	60.76
829.478	42.32
829.655	99.67
829.833	42.32
830.01	36.18
830.187	30.04
830.364	30.04
830.542	68.95
830.719	114
830.896	-12.97
831.073	101.72
831.25	85.33
831.427	97.62
831.604	107.86
831.782	1.37
831.959	132.44
832.136	50.52
832.313	75.09
832.49	79.19
832.667	79.19
832.844	30.04
833.021	87.38
833.198	83.28
833.374	79.19
833.551	83.28
833.728	89.43
833.905	83.28
834.082	5.46
834.259	52.56
834.436	48.47
834.612	-0.68
834.789	36.18
834.966	21.85
835.143	50.52
835.319	-12.97
835.496	-27.31
835.673	-10.92
835.85	83.28
836.026	50.52
836.203	36.18
836.38	75.09
836.556	105.81
836.733	68.95
836.909	56.66
837.086	21.85
837.262	66.9
837.439	75.09
837.616	44.37
837.792	124.24
837.968	116.05
838.145	-47.79
838.321	79.19
838.498	50.52
838.674	58.71
838.851	50.52
839.027	25.94
839.203	42.32
839.38	77.14
839.556	71
839.732	-10.92
839.909	89.43
840.085	93.52
840.261	44.37
840.437	99.67
840.614	38.23
840.79	97.62
840.966	60.76
841.142	107.86
841.318	58.71
841.494	13.65
841.671	50.52
841.847	34.13
842.023	68.95
842.199	-21.16
842.375	-47.79
842.551	25.94
842.727	15.7
842.903	122.2
843.079	-10.92
843.255	75.09
843.431	83.28
843.607	75.09
843.783	5.46
843.959	30.04
844.134	36.18
844.31	38.23
844.486	38.23
844.662	42.32
844.838	36.18
845.013	-0.68
845.189	-43.69
845.365	27.99
845.541	30.04
845.716	32.08
845.892	60.76
846.068	13.65
846.244	81.24
846.419	93.52
846.595	-31.4
846.77	36.18
846.946	50.52
847.122	-12.97
847.297	48.47
847.473	46.42
847.648	7.51
847.824	64.85
847.999	34.13
848.175	-4.78
848.35	56.66
848.526	99.67
848.701	17.75
848.876	44.37
849.052	9.56
849.227	27.99
849.403	66.9
849.578	58.71
849.753	23.89
849.929	25.94
850.104	58.71
850.279	66.9
850.454	46.42
850.63	-47.79
850.805	54.61
850.98	105.81
851.155	116.05
851.33	-19.11
851.505	-76.46
851.681	81.24
851.856	9.56
852.031	36.18
852.206	-15.02
852.381	-21.16
852.556	54.61
852.731	13.65
852.906	52.56
853.081	42.32
853.256	42.32
853.431	71
853.606	30.04
853.781	56.66
853.956	13.65
854.131	-0.68
854.305	-2.73
854.48	19.8
854.655	27.99
854.83	17.75
855.005	66.9
855.18	34.13
855.354	32.08
855.529	3.41
855.704	15.7
855.879	21.85
856.053	54.61
856.228	32.08
856.403	-33.45
856.577	107.86
856.752	36.18
856.926	11.61
857.101	64.85
857.276	27.99
857.45	46.42
857.625	7.51
857.799	-21.16
857.974	79.19
858.148	-15.02
858.323	21.85
858.497	-15.02
858.672	56.66
858.846	5.46
859.02	50.52
859.195	-51.88
859.369	17.75
859.543	83.28
859.718	19.8
859.892	48.47
860.066	25.94
860.241	17.75
860.415	-55.98
860.589	-39.59
860.763	34.13
860.938	25.94
861.112	40.28
861.286	134.48
861.46	7.51
861.634	5.46
861.808	85.33
861.982	52.56
862.157	-0.68
862.331	44.37
862.505	-60.07
862.679	17.75
862.853	-15.02
863.027	9.56
863.201	77.14
863.375	38.23
863.549	56.66
863.722	-39.59
863.896	17.75
864.07	34.13
864.244	44.37
864.418	103.76
864.592	50.52
864.766	52.56
864.939	13.65
865.113	-31.4
865.287	54.61
865.461	-15.02
865.634	-15.02
865.808	27.99
865.982	21.85
866.156	38.23
866.329	-29.35
866.503	-8.87
866.676	-31.4
866.85	19.8
867.024	27.99
867.197	19.8
867.371	-23.21
867.544	-35.5
867.718	85.33
867.891	17.75
868.065	-15.02
868.238	13.65
868.412	-6.83
868.585	9.56
868.759	19.8
868.932	58.71
869.105	19.8
869.279	36.18
869.452	11.61
869.625	-29.35
869.799	46.42
869.972	11.61
870.145	101.72
870.319	23.89
870.492	9.56
870.665	3.41
870.838	25.94
871.011	-55.98
871.185	-60.07
871.358	-2.73
871.531	46.42
871.704	13.65
871.877	1.37
872.05	-15.02
872.223	-6.83
872.396	68.95
872.569	34.13
872.742	5.46
872.915	44.37
873.088	93.52
873.261	-39.59
873.434	116.05
873.607	30.04
873.78	56.66
873.953	-55.98
874.126	-39.59
874.299	-4.78
874.471	-4.78
874.644	25.94
874.817	32.08
874.99	30.04
875.163	-72.36
875.335	17.75
875.508	34.13
875.681	46.42
875.853	54.61
876.026	68.95
876.199	-53.93
876.371	-23.21
876.544	-45.74
876.717	38.23
876.889	-111.27
877.062	13.65
877.234	48.47
877.407	-23.21
877.579	34.13
877.752	32.08
877.924	-10.92
878.097	17.75
878.269	-15.02
878.442	17.75
878.614	58.71
878.786	36.18
878.959	25.94
879.131	42.32
879.303	-64.17
879.476	62.8
879.648	-35.5
879.82	-4.78
879.993	32.08
880.165	48.47
880.337	-35.5
880.509	-15.02
880.681	-10.92
880.854	-4.78
881.026	19.8
881.198	60.76
881.37	-53.93
881.542	46.42
881.714	64.85
881.886	19.8
882.058	9.56
882.23	36.18
882.402	-2.73
882.574	-43.69
882.746	15.7
882.918	7.51
883.09	40.28
883.262	42.32
883.434	11.61
883.606	-15.02
883.778	5.46
883.95	38.23
884.122	-15.02
884.293	38.23
884.465	-8.87
884.637	11.61
884.809	62.8
884.98	1.37
885.152	-62.12
885.324	30.04
885.496	30.04
885.667	-62.12
885.839	36.18
886.011	95.57
886.182	42.32
886.354	21.85
886.525	42.32
886.697	17.75
886.869	-10.92
887.04	25.94
887.212	-17.07
887.383	66.9
887.555	-6.83
887.726	21.85
887.897	-29.35
888.069	15.7
888.24	-31.4
888.412	25.94
888.583	-0.68
888.754	21.85
888.926	-19.11
889.097	30.04
889.268	-15.02
889.44	7.51
889.611	-10.92
889.782	36.18
889.953	38.23
890.125	-25.26
890.296	11.61
890.467	-4.78
890.638	-31.4
890.809	9.56
890.98	5.46
891.151	42.32
891.323	73.04
891.494	60.76
891.665	-0.68
891.836	17.75
892.007	52.56
892.178	-4.78
892.349	32.08
892.52	58.71
892.691	1.37
892.862	-6.83
893.032	68.95
893.203	-68.27
893.374	15.7
893.545	-8.87
893.716	-17.07
893.887	34.13
894.057	-43.69
894.228	34.13
894.399	-6.83
894.57	-6.83
894.74	-2.73
894.911	34.13
895.082	19.8
895.253	-10.92
895.423	50.52
895.594	87.38
895.764	-6.83
895.935	-4.78
896.106	50.52
896.276	-60.07
896.447	-60.07
896.617	50.52
896.788	87.38
896.958	-51.88
897.129	-10.92
897.299	95.57
897.47	-39.59
897.64	11.61
897.81	-6.83
897.981	27.99
898.151	11.61
898.322	46.42
898.492	5.46
898.662	34.13
898.832	-43.69
899.003	-41.64
899.173	-4.78
899.343	-29.35
899.513	40.28
