Data from USB4F104151__199__13-59-41-326.txt Node

Date: Thu Mar 13 13:59:41 EDT 2025
User: louis
Spectrometer: USB4F10415
Trigger mode: 4
Integration Time (sec): 1.000000E-2
Scans to average: 1
Electric dark correction enabled: true
Nonlinearity correction enabled: false
Boxcar width: 0
XAxis mode: Wavelengths
Number of Pixels in Spectrum: 3648
>>>>>Begin Spectral Data<<<<<
178.204	-11.43
178.424	-11.43
178.644	-11.43
178.864	7
179.084	-7.34
179.304	-5.29
179.524	-25.77
179.744	-17.58
179.964	-17.58
180.184	45.91
180.404	-29.87
180.624	-70.83
180.844	9.05
181.064	-9.39
181.283	11.09
181.503	64.34
181.723	45.91
181.943	0.85
182.163	62.29
182.383	29.52
182.602	-7.34
182.822	23.38
183.042	19.29
183.262	9.05
183.482	35.67
183.701	-46.25
183.921	-11.43
184.141	9.05
184.361	33.62
184.58	64.34
184.8	-13.48
185.02	-66.73
185.239	31.57
185.459	23.38
185.679	64.34
185.898	19.29
186.118	88.92
186.338	23.38
186.557	33.62
186.777	52.05
186.997	-33.96
187.216	-25.77
187.436	35.67
187.655	-29.87
187.875	90.96
188.095	-25.77
188.314	7
188.534	54.1
188.753	45.91
188.973	-5.29
189.192	56.15
189.412	47.96
189.631	2.9
189.851	60.24
190.07	56.15
190.29	-29.87
190.509	31.57
190.729	-7.34
190.948	72.53
191.168	45.91
191.387	-7.34
191.607	41.81
191.826	66.39
192.045	47.96
192.265	15.19
192.484	60.24
192.704	64.34
192.923	15.19
193.142	25.43
193.362	-5.29
193.581	103.25
193.8	15.19
194.02	39.76
194.239	7
194.458	43.86
194.678	-17.58
194.897	31.57
195.116	27.48
195.335	-46.25
195.555	47.96
195.774	-29.87
195.993	47.96
196.212	-15.53
196.432	7
196.651	-19.63
196.87	54.1
197.089	66.39
197.308	21.33
197.528	41.81
197.747	45.91
197.966	50
198.185	54.1
198.404	2.9
198.623	50
198.842	95.06
199.062	31.57
199.281	-15.53
199.5	-5.29
199.719	66.39
199.938	41.81
200.157	72.53
200.376	21.33
200.595	43.86
200.814	54.1
201.033	41.81
201.252	74.58
201.471	11.09
201.69	50
201.909	23.38
202.128	0.85
202.347	43.86
202.566	2.9
202.785	47.96
203.004	-21.67
203.223	25.43
203.442	105.3
203.661	-13.48
203.879	15.19
204.098	-70.83
204.317	58.2
204.536	103.25
204.755	37.72
204.974	-23.72
205.193	15.19
205.411	66.39
205.63	43.86
205.849	39.76
206.068	80.72
206.287	74.58
206.505	-3.24
206.724	9.05
206.943	131.92
207.162	72.53
207.381	-1.19
207.599	43.86
207.818	-40.11
208.037	54.1
208.255	19.29
208.474	19.29
208.693	105.3
208.911	17.24
209.13	43.86
209.349	7
209.567	58.2
209.786	62.29
210.005	37.72
210.223	64.34
210.442	-11.43
210.661	4.95
210.879	95.06
211.098	-27.82
211.316	31.57
211.535	0.85
211.753	43.86
211.972	60.24
212.191	-27.82
212.409	13.14
212.628	56.15
212.846	19.29
213.065	0.85
213.283	88.92
213.502	33.62
213.72	56.15
213.938	76.63
214.157	11.09
214.375	58.2
214.594	17.24
214.812	56.15
215.031	52.05
215.249	82.77
215.467	72.53
215.686	50
215.904	58.2
216.122	43.86
216.341	54.1
216.559	-9.39
216.778	0.85
216.996	-5.29
217.214	80.72
217.432	82.77
217.651	90.96
217.869	15.19
218.087	74.58
218.306	-9.39
218.524	47.96
218.742	45.91
218.96	0.85
219.179	-29.87
219.397	29.52
219.615	39.76
219.833	23.38
220.051	43.86
220.27	-29.87
220.488	68.44
220.706	47.96
220.924	90.96
221.142	74.58
221.36	-40.11
221.578	27.48
221.796	9.05
222.015	31.57
222.233	23.38
222.451	101.2
222.669	25.43
222.887	99.16
223.105	35.67
223.323	97.11
223.541	-9.39
223.759	15.19
223.977	54.1
224.195	25.43
224.413	86.87
224.631	115.54
224.849	-19.63
225.067	103.25
225.285	78.68
225.503	15.19
225.721	0.85
225.939	-44.2
226.157	64.34
226.375	74.58
226.592	-38.06
226.81	31.57
227.028	97.11
227.246	66.39
227.464	27.48
227.682	-1.19
227.9	97.11
228.117	23.38
228.335	19.29
228.553	86.87
228.771	138.07
228.989	74.58
229.206	29.52
229.424	78.68
229.642	-5.29
229.86	-7.34
230.077	47.96
230.295	33.62
230.513	60.24
230.731	70.48
230.948	-1.19
231.166	60.24
231.384	-5.29
231.601	50
231.819	43.86
232.037	39.76
232.254	52.05
232.472	39.76
232.689	2.9
232.907	86.87
233.125	23.38
233.342	66.39
233.56	60.24
233.777	58.2
233.995	68.44
234.213	68.44
234.43	64.34
234.648	9.05
234.865	27.48
235.083	56.15
235.3	68.44
235.518	107.35
235.735	68.44
235.953	66.39
236.17	2.9
236.388	17.24
236.605	-33.96
236.822	119.64
237.04	103.25
237.257	105.3
237.475	-9.39
237.692	78.68
237.909	66.39
238.127	-5.29
238.344	45.91
238.562	127.83
238.779	72.53
238.996	66.39
239.214	25.43
239.431	80.72
239.648	84.82
239.865	88.92
240.083	64.34
240.3	62.29
240.517	45.91
240.735	72.53
240.952	60.24
241.169	41.81
241.386	74.58
241.603	-21.67
241.821	68.44
242.038	47.96
242.255	70.48
242.472	62.29
242.689	15.19
242.907	146.26
243.124	33.62
243.341	37.72
243.558	23.38
243.775	25.43
243.992	-11.43
244.209	56.15
244.426	76.63
244.643	45.91
244.86	-7.34
245.078	76.63
245.295	-31.91
245.512	27.48
245.729	2.9
245.946	47.96
246.163	43.86
246.38	-29.87
246.597	74.58
246.814	66.39
247.031	-1.19
247.248	60.24
247.464	70.48
247.681	23.38
247.898	56.15
248.115	99.16
248.332	-5.29
248.549	93.01
248.766	64.34
248.983	43.86
249.2	27.48
249.417	88.92
249.633	70.48
249.85	64.34
250.067	80.72
250.284	47.96
250.501	35.67
250.717	129.88
250.934	-1.19
251.151	52.05
251.368	43.86
251.585	68.44
251.801	31.57
252.018	9.05
252.235	64.34
252.451	39.76
252.668	9.05
252.885	82.77
253.102	27.48
253.318	107.35
253.535	74.58
253.752	9.05
253.968	76.63
254.185	82.77
254.401	47.96
254.618	90.96
254.835	41.81
255.051	111.44
255.268	74.58
255.484	47.96
255.701	35.67
255.917	41.81
256.134	15.19
256.351	47.96
256.567	68.44
256.784	35.67
257	45.91
257.217	105.3
257.433	64.34
257.65	4.95
257.866	119.64
258.082	21.33
258.299	35.67
258.515	31.57
258.732	66.39
258.948	58.2
259.165	19.29
259.381	23.38
259.597	19.29
259.814	64.34
260.03	47.96
260.246	50
260.463	74.58
260.679	60.24
260.895	60.24
261.112	27.48
261.328	7
261.544	31.57
261.761	54.1
261.977	72.53
262.193	-56.49
262.409	27.48
262.626	70.48
262.842	37.72
263.058	64.34
263.274	25.43
263.49	105.3
263.707	80.72
263.923	45.91
264.139	21.33
264.355	27.48
264.571	-27.82
264.787	58.2
265.004	82.77
265.22	39.76
265.436	-17.58
265.652	82.77
265.868	41.81
266.084	29.52
266.3	-1.19
266.516	19.29
266.732	76.63
266.948	64.34
267.164	58.2
267.38	33.62
267.596	80.72
267.812	105.3
268.028	-13.48
268.244	84.82
268.46	52.05
268.676	107.35
268.892	52.05
269.108	58.2
269.324	17.24
269.54	23.38
269.756	80.72
269.972	9.05
270.188	117.59
270.403	99.16
270.619	-9.39
270.835	80.72
271.051	4.95
271.267	25.43
271.483	76.63
271.698	-66.73
271.914	45.91
272.13	47.96
272.346	47.96
272.562	72.53
272.777	62.29
272.993	68.44
273.209	66.39
273.425	37.72
273.64	138.07
273.856	-27.82
274.072	105.3
274.287	-5.29
274.503	50
274.719	9.05
274.934	39.76
275.15	-9.39
275.366	58.2
275.581	50
275.797	-40.11
276.012	4.95
276.228	101.2
276.444	43.86
276.659	82.77
276.875	64.34
277.09	103.25
277.306	11.09
277.521	17.24
277.737	31.57
277.952	90.96
278.168	78.68
278.383	17.24
278.599	105.3
278.814	84.82
279.03	66.39
279.245	117.59
279.461	60.24
279.676	74.58
279.892	2.9
280.107	80.72
280.322	68.44
280.538	35.67
280.753	68.44
280.969	7
281.184	76.63
281.399	35.67
281.615	27.48
281.83	82.77
282.045	88.92
282.26	47.96
282.476	29.52
282.691	105.3
282.906	-27.82
283.122	15.19
283.337	21.33
283.552	2.9
283.767	88.92
283.983	-56.49
284.198	52.05
284.413	39.76
284.628	113.49
284.843	15.19
285.058	11.09
285.274	33.62
285.489	-15.53
285.704	70.48
285.919	33.62
286.134	33.62
286.349	41.81
286.564	23.38
286.779	4.95
286.995	82.77
287.21	25.43
287.425	47.96
287.64	27.48
287.855	72.53
288.07	25.43
288.285	7
288.5	50
288.715	84.82
288.93	76.63
289.145	76.63
289.36	25.43
289.575	35.67
289.79	54.1
290.004	2.9
290.219	133.97
290.434	-3.24
290.649	29.52
290.864	45.91
291.079	23.38
291.294	35.67
291.509	72.53
291.724	19.29
291.938	50
292.153	56.15
292.368	37.72
292.583	31.57
292.798	-3.24
293.012	84.82
293.227	74.58
293.442	54.1
293.657	27.48
293.871	80.72
294.086	21.33
294.301	19.29
294.516	86.87
294.73	27.48
294.945	45.91
295.16	27.48
295.374	80.72
295.589	-3.24
295.804	39.76
296.018	47.96
296.233	47.96
296.447	187.22
296.662	93.01
296.877	84.82
297.091	52.05
297.306	72.53
297.52	43.86
297.735	56.15
297.949	58.2
298.164	50
298.378	17.24
298.593	-7.34
298.807	95.06
299.022	33.62
299.236	123.73
299.451	64.34
299.665	15.19
299.88	43.86
300.094	21.33
300.309	66.39
300.523	86.87
300.737	39.76
300.952	86.87
301.166	52.05
301.381	60.24
301.595	31.57
301.809	13.14
302.024	-38.06
302.238	86.87
302.452	29.52
302.667	39.76
302.881	82.77
303.095	76.63
303.309	15.19
303.524	41.81
303.738	39.76
303.952	80.72
304.166	31.57
304.381	31.57
304.595	76.63
304.809	88.92
305.023	19.29
305.237	39.76
305.452	17.24
305.666	66.39
305.88	80.72
306.094	68.44
306.308	52.05
306.522	93.01
306.736	15.19
306.95	17.24
307.164	80.72
307.379	39.76
307.593	64.34
307.807	70.48
308.021	58.2
308.235	43.86
308.449	84.82
308.663	76.63
308.877	52.05
309.091	74.58
309.305	66.39
309.519	25.43
309.733	66.39
309.947	23.38
310.161	97.11
310.374	58.2
310.588	90.96
310.802	41.81
311.016	103.25
311.23	84.82
311.444	76.63
311.658	-7.34
311.872	50
312.085	47.96
312.299	64.34
312.513	25.43
312.727	39.76
312.941	47.96
313.154	33.62
313.368	97.11
313.582	52.05
313.796	47.96
314.009	50
314.223	119.64
314.437	47.96
314.651	103.25
314.864	74.58
315.078	-9.39
315.292	72.53
315.505	90.96
315.719	62.29
315.933	50
316.146	54.1
316.36	90.96
316.573	115.54
316.787	60.24
317.001	25.43
317.214	9.05
317.428	39.76
317.641	66.39
317.855	80.72
318.068	7
318.282	54.1
318.495	43.86
318.709	119.64
318.922	23.38
319.136	113.49
319.349	66.39
319.563	39.76
319.776	19.29
319.99	107.35
320.203	78.68
320.417	54.1
320.63	45.91
320.843	-17.58
321.057	39.76
321.27	90.96
321.483	31.57
321.697	31.57
321.91	-11.43
322.124	113.49
322.337	29.52
322.55	7
322.763	4.95
322.977	19.29
323.19	7
323.403	76.63
323.617	17.24
323.83	113.49
324.043	56.15
324.256	41.81
324.469	70.48
324.683	76.63
324.896	78.68
325.109	31.57
325.322	39.76
325.535	27.48
325.748	68.44
325.962	37.72
326.175	99.16
326.388	136.02
326.601	113.49
326.814	97.11
327.027	23.38
327.24	84.82
327.453	50
327.666	76.63
327.879	80.72
328.092	80.72
328.305	47.96
328.518	154.45
328.731	23.38
328.944	45.91
329.157	15.19
329.37	31.57
329.583	54.1
329.796	93.01
330.009	23.38
330.222	113.49
330.435	66.39
330.648	52.05
330.861	41.81
331.073	74.58
331.286	86.87
331.499	76.63
331.712	15.19
331.925	86.87
332.138	15.19
332.35	80.72
332.563	64.34
332.776	64.34
332.989	103.25
333.202	88.92
333.414	-25.77
333.627	23.38
333.84	25.43
334.053	70.48
334.265	111.44
334.478	50
334.691	9.05
334.903	113.49
335.116	39.76
335.329	47.96
335.541	86.87
335.754	52.05
335.966	86.87
336.179	107.35
336.392	56.15
336.604	72.53
336.817	2.9
337.029	39.76
337.242	64.34
337.454	47.96
337.667	119.64
337.88	101.2
338.092	39.76
338.305	72.53
338.517	60.24
338.729	39.76
338.942	95.06
339.154	58.2
339.367	54.1
339.579	97.11
339.792	0.85
340.004	43.86
340.217	82.77
340.429	68.44
340.641	47.96
340.854	0.85
341.066	146.26
341.278	154.45
341.491	35.67
341.703	90.96
341.915	35.67
342.128	52.05
342.34	33.62
342.552	76.63
342.764	93.01
342.977	72.53
343.189	60.24
343.401	33.62
343.613	68.44
343.826	185.17
344.038	29.52
344.25	60.24
344.462	111.44
344.674	74.58
344.886	35.67
345.099	0.85
345.311	25.43
345.523	97.11
345.735	41.81
345.947	56.15
346.159	9.05
346.371	105.3
346.583	15.19
346.795	60.24
347.007	86.87
347.219	33.62
347.431	70.48
347.643	72.53
347.855	97.11
348.067	52.05
348.279	95.06
348.491	127.83
348.703	23.38
348.915	80.72
349.127	121.68
349.339	60.24
349.551	27.48
349.763	82.77
349.975	142.16
350.187	39.76
350.399	-29.87
350.61	15.19
350.822	56.15
351.034	84.82
351.246	95.06
351.458	76.63
351.669	50
351.881	88.92
352.093	58.2
352.305	66.39
352.517	76.63
352.728	13.14
352.94	15.19
353.152	58.2
353.363	74.58
353.575	101.2
353.787	90.96
353.999	68.44
354.21	50
354.422	19.29
354.633	47.96
354.845	131.92
355.057	64.34
355.268	82.77
355.48	70.48
355.692	99.16
355.903	43.86
356.115	60.24
356.326	68.44
356.538	45.91
356.749	33.62
356.961	133.97
357.172	80.72
357.384	56.15
357.595	68.44
357.807	88.92
358.018	113.49
358.23	62.29
358.441	13.14
358.653	58.2
358.864	66.39
359.075	47.96
359.287	47.96
359.498	86.87
359.709	84.82
359.921	41.81
360.132	123.73
360.344	54.1
360.555	119.64
360.766	74.58
360.977	123.73
361.189	111.44
361.4	84.82
361.611	23.38
361.823	31.57
362.034	174.93
362.245	76.63
362.456	66.39
362.667	109.4
362.879	136.02
363.09	35.67
363.301	82.77
363.512	56.15
363.723	-7.34
363.935	33.62
364.146	58.2
364.357	123.73
364.568	70.48
364.779	97.11
364.99	56.15
365.201	52.05
365.412	-9.39
365.623	39.76
365.834	70.48
366.045	160.59
366.256	82.77
366.467	125.78
366.678	86.87
366.889	64.34
367.1	52.05
367.311	7
367.522	-29.87
367.733	70.48
367.944	58.2
368.155	54.1
368.366	107.35
368.577	64.34
368.788	131.92
368.999	58.2
369.209	146.26
369.42	23.38
369.631	99.16
369.842	70.48
370.053	68.44
370.264	62.29
370.474	50
370.685	78.68
370.896	105.3
371.107	99.16
371.317	76.63
371.528	68.44
371.739	113.49
371.95	76.63
372.16	13.14
372.371	70.48
372.582	138.07
372.792	93.01
373.003	41.81
373.214	138.07
373.424	68.44
373.635	-11.43
373.846	60.24
374.056	-3.24
374.267	127.83
374.477	62.29
374.688	64.34
374.898	15.19
375.109	0.85
375.319	93.01
375.53	33.62
375.74	78.68
375.951	76.63
376.161	64.34
376.372	88.92
376.582	60.24
376.793	119.64
377.003	19.29
377.214	47.96
377.424	86.87
377.635	123.73
377.845	93.01
378.055	23.38
378.266	39.76
378.476	111.44
378.686	86.87
378.897	80.72
379.107	17.24
379.317	7
379.528	90.96
379.738	90.96
379.948	72.53
380.158	111.44
380.369	90.96
380.579	25.43
380.789	68.44
380.999	80.72
381.21	90.96
381.42	97.11
381.63	35.67
381.84	86.87
382.05	181.07
382.261	107.35
382.471	80.72
382.681	50
382.891	88.92
383.101	60.24
383.311	21.33
383.521	113.49
383.731	88.92
383.941	84.82
384.151	50
384.361	64.34
384.571	195.41
384.781	107.35
384.991	58.2
385.201	121.68
385.411	19.29
385.621	99.16
385.831	64.34
386.041	39.76
386.251	105.3
386.461	74.58
386.671	-17.58
386.881	158.55
387.091	74.58
387.301	78.68
387.511	74.58
387.72	90.96
387.93	115.54
388.14	105.3
388.35	-11.43
388.56	148.31
388.769	138.07
388.979	58.2
389.189	39.76
389.399	64.34
389.609	86.87
389.818	142.16
390.028	107.35
390.238	54.1
390.447	111.44
390.657	117.59
390.867	146.26
391.076	113.49
391.286	58.2
391.496	41.81
391.705	133.97
391.915	129.88
392.125	68.44
392.334	123.73
392.544	113.49
392.753	37.72
392.963	62.29
393.172	152.4
393.382	58.2
393.591	88.92
393.801	64.34
394.01	80.72
394.22	99.16
394.429	166.74
394.639	129.88
394.848	62.29
395.058	107.35
395.267	70.48
395.477	41.81
395.686	88.92
395.895	129.88
396.105	158.55
396.314	150.36
396.524	129.88
396.733	197.46
396.942	168.79
397.152	160.59
397.361	66.39
397.57	101.2
397.78	162.64
397.989	125.78
398.198	129.88
398.407	101.2
398.617	152.4
398.826	166.74
399.035	146.26
399.244	146.26
399.453	109.4
399.663	215.89
399.872	172.88
400.081	146.26
400.29	136.02
400.499	78.68
400.708	148.31
400.917	187.22
401.127	154.45
401.336	80.72
401.545	158.55
401.754	115.54
401.963	52.05
402.172	80.72
402.381	131.92
402.59	119.64
402.799	179.03
403.008	189.27
403.217	203.6
403.426	199.51
403.635	123.73
403.844	136.02
404.053	172.88
404.262	172.88
404.471	211.79
404.68	148.31
404.888	240.47
405.097	195.41
405.306	260.95
405.515	172.88
405.724	168.79
405.933	222.03
406.142	199.51
406.35	199.51
406.559	213.84
406.768	199.51
406.977	297.81
407.185	287.57
407.394	238.42
407.603	269.14
407.812	297.81
408.02	279.38
408.229	289.62
408.438	283.47
408.646	277.33
408.855	308.05
409.064	367.44
409.272	318.29
409.481	338.77
409.69	353.1
409.898	346.96
410.107	402.26
410.315	443.21
410.524	375.63
410.733	367.44
410.941	484.17
411.15	406.35
411.358	432.97
411.567	473.93
411.775	482.13
411.984	461.65
412.192	523.09
412.401	510.8
412.609	541.52
412.818	564.04
413.026	557.9
413.234	539.47
413.443	629.58
413.651	660.3
413.86	697.16
414.068	723.79
414.276	750.41
414.485	723.79
414.693	826.18
414.901	820.04
415.11	820.04
415.318	807.75
415.526	897.86
415.734	834.38
415.943	850.76
416.151	934.73
416.359	998.21
416.567	953.16
416.776	1135.43
416.984	1196.87
417.192	1190.72
417.4	1239.87
417.608	1112.9
417.817	1243.97
418.025	1221.44
418.233	1344.32
418.441	1372.99
418.649	1375.04
418.857	1514.3
419.065	1540.93
419.273	1418.05
419.481	1553.21
419.689	1512.25
419.897	1710.91
420.105	1788.73
420.313	1739.58
420.521	1846.07
420.729	1911.61
420.937	1850.17
421.145	2032.44
421.353	2106.17
421.561	2222.9
421.769	2302.77
421.977	2308.91
422.185	2374.45
422.393	2409.26
422.601	2745.13
422.809	2571.05
423.017	2665.26
423.224	2736.94
423.432	2820.91
423.64	2833.19
423.848	3126.05
424.056	2982.7
424.263	3212.07
424.471	3177.25
424.679	3300.13
424.887	3640.09
425.094	3470.11
425.302	3711.77
425.51	3689.25
425.718	3781.4
425.925	3820.32
426.133	4025.11
426.341	4289.3
426.548	4455.19
426.756	4561.68
426.964	4481.81
427.171	4766.48
427.379	4786.96
427.586	5073.67
427.794	5186.31
428.001	5278.47
428.209	5438.21
428.417	5409.54
428.624	5913.34
428.832	5870.33
429.039	5954.3
429.247	5907.2
429.454	6527.73
429.662	6707.95
429.869	6511.35
430.076	6947.56
430.284	6492.91
430.491	6820.59
430.699	7289.57
430.906	7346.92
431.114	7310.05
431.321	7553.76
431.528	7715.55
431.736	8331.99
431.943	8624.85
432.15	8252.12
432.358	8669.91
432.565	9024.2
432.772	8858.32
432.979	9214.66
433.187	9544.39
433.394	9556.68
433.601	10326.71
433.808	10207.93
434.016	10283.7
434.223	10511.03
434.43	11276.97
434.637	11131.56
434.844	11686.56
435.052	12061.34
435.259	11797.15
435.466	12010.14
435.673	11944.61
435.88	12737.17
436.087	13363.85
436.294	13089.42
436.501	12800.66
436.708	13353.61
436.915	13527.69
437.122	14353.02
437.329	14307.96
437.537	14748.28
437.743	14953.07
437.95	14834.29
438.157	15473.26
438.364	16218.72
438.571	16071.26
438.778	16212.57
438.985	17678.92
439.192	17222.22
439.399	17539.66
439.606	17048.15
439.813	18205.25
440.02	19554.86
440.227	18815.54
440.433	18543.16
440.64	19329.58
440.847	19419.69
441.054	19522.09
441.261	21092.88
441.467	20781.59
441.674	21428.75
441.881	21903.88
442.088	22034.95
442.294	21895.69
442.501	22149.64
442.708	22669.82
442.914	23560.69
443.121	24576.48
443.328	23876.07
443.534	25823.69
443.741	24664.54
443.948	24664.54
444.154	26444.23
444.361	26278.34
444.568	26200.52
444.774	26407.36
444.981	26851.77
445.187	27351.48
445.394	28477.86
445.6	28092.84
445.807	30775.68
446.013	29331.86
446.22	29968.78
446.426	31166.84
446.633	31275.38
446.839	32346.47
447.046	31220.09
447.252	32868.7
447.459	33198.43
447.665	32856.42
447.871	34679.11
448.078	35549.49
448.284	34089.29
448.491	35258.68
448.697	36684.07
448.903	36909.35
449.11	37304.6
449.316	36630.82
449.522	37112.1
449.728	37773.59
449.935	38623.5
450.141	38711.56
450.347	39483.64
450.553	38156.56
450.76	38500.62
450.966	39805.17
451.172	39440.64
451.378	40294.64
451.584	39371
451.791	40745.19
451.997	40339.69
452.203	41083.11
452.409	40923.36
452.615	41597.15
452.821	39473.4
453.027	39278.85
453.233	41015.52
453.44	39776.5
453.646	39962.87
453.852	39846.13
454.058	40993
454.264	39428.35
454.47	40257.78
454.676	39342.33
454.882	40812.77
455.088	37194.01
455.294	37970.19
455.5	38344.97
455.705	38621.45
455.911	37253.4
456.117	36581.67
456.323	36045.1
456.529	33974.61
456.735	35666.23
456.941	34455.88
457.147	34492.74
457.352	33313.11
457.558	32969.05
457.764	33032.54
457.97	32151.91
458.176	31705.46
458.381	31891.82
458.587	30247.3
458.793	30017.93
458.999	28653.98
459.204	30531.97
459.41	29798.8
459.616	27959.72
459.821	27873.71
460.027	27806.13
460.233	26892.73
460.438	26051.02
460.644	26304.96
460.85	25043.42
461.055	24541.66
461.261	24664.54
461.466	22704.63
461.672	22073.86
461.878	23951.85
462.083	22278.66
462.289	21674.51
462.494	21336.59
462.7	20734.49
462.905	20156.96
463.111	20853.27
463.316	20695.58
463.522	20476.44
463.727	20632.09
463.932	20384.29
464.138	20404.77
464.343	20314.66
464.549	19800.62
464.754	20472.35
464.959	19954.21
465.165	19984.93
465.37	19202.61
465.575	18686.52
465.781	19362.35
465.986	19296.81
466.191	18674.23
466.397	18297.41
466.602	17408.59
466.807	18108.99
467.012	18217.54
467.218	18176.58
467.423	17926.72
467.628	18145.86
467.833	19020.34
468.038	18324.03
468.244	17709.64
468.449	18391.61
468.654	17908.29
468.859	17789.51
469.064	17547.85
469.269	16884.31
469.474	16919.12
469.679	17492.55
469.885	16865.88
470.09	16853.59
470.295	16929.36
470.5	16394.84
470.705	16712.28
470.91	16134.75
471.115	16124.51
471.32	16349.79
471.525	16382.56
471.73	15948.39
471.935	15866.47
472.139	15178.35
472.344	15536.74
472.549	15213.17
472.754	15250.03
472.959	14938.74
473.164	14633.59
473.369	14293.63
473.574	14965.36
473.778	14846.58
473.983	14445.18
474.188	14756.47
474.393	13951.62
474.598	14101.12
474.802	13888.13
475.007	13787.78
475.212	13859.46
475.417	13191.82
475.621	13251.21
475.826	13435.53
476.031	13019.79
476.235	12958.35
476.44	13134.48
476.645	12755.6
476.849	12829.33
477.054	12556.95
477.259	12300.95
477.463	12520.09
477.668	11997.85
477.872	12456.6
478.077	11944.61
478.282	11627.17
478.486	11610.79
478.691	11524.77
478.895	11610.79
479.1	11291.31
479.304	11428.52
479.509	11211.43
479.713	11309.74
479.918	11004.59
480.122	11006.64
480.326	11213.48
480.531	11219.63
480.735	10824.37
480.94	10898.1
481.144	10961.58
481.348	10715.83
481.553	10889.9
481.757	10590.9
481.961	10826.42
482.166	10865.33
482.37	10719.92
482.574	10349.24
482.778	10623.67
482.983	10707.63
483.187	10670.77
483.391	10580.66
483.595	10504.89
483.8	10459.83
484.004	10377.91
484.208	10515.12
484.412	10638
484.616	10670.77
484.821	10699.44
485.025	10465.97
485.229	10681.01
485.433	10648.24
485.637	10615.48
485.841	10646.19
486.045	10525.36
486.249	10627.76
486.453	10476.21
486.657	10775.22
486.861	10582.71
487.065	10183.35
487.269	10615.48
487.473	10404.53
487.677	10463.93
487.881	10695.35
488.085	10592.95
488.289	10392.25
488.493	10623.67
488.697	10853.04
488.901	10660.53
489.105	10588.85
489.309	10828.46
489.512	10828.46
489.716	10822.32
489.92	10625.72
490.124	10801.84
490.328	11018.93
490.531	11043.5
490.735	10914.48
490.939	11023.02
491.143	10873.52
491.346	10910.38
491.55	11180.71
491.754	11238.06
491.958	11272.87
492.161	11201.19
492.365	11264.68
492.569	11213.48
492.772	11289.26
492.976	11455.14
493.18	11500.2
493.383	11647.65
493.587	11829.92
493.79	11913.89
493.994	11723.43
494.197	11979.42
494.401	11737.76
494.605	12159.64
494.808	12016.29
495.012	12098.2
495.215	12421.78
495.419	12456.6
495.622	12389.02
495.825	12556.95
496.029	12575.38
496.232	12743.31
496.436	12892.82
496.639	12976.78
496.843	12974.74
497.046	13339.27
497.249	13406.86
497.453	13369.99
497.656	13718.15
497.859	13746.82
498.063	14000.77
498.266	14049.92
498.469	14447.22
498.673	14248.57
498.876	14451.32
499.079	14617.21
499.282	14920.31
499.485	14797.43
499.689	15096.43
499.892	15555.18
500.095	15374.95
500.298	15817.32
500.501	15903.33
500.705	16265.82
500.908	16341.6
501.111	16505.43
501.314	16841.3
501.517	16724.57
501.72	16919.12
501.923	17168.98
502.126	17742.41
502.329	17881.67
502.532	18022.98
502.735	17977.92
502.938	18152
503.141	18467.39
503.344	18874.93
503.547	18743.86
503.75	19483.18
503.953	19530.28
504.156	19851.81
504.359	19831.33
504.562	20367.9
504.765	20541.98
504.968	20603.42
505.17	21115.41
505.373	21103.12
505.576	21395.98
505.779	21535.24
505.982	21815.82
506.185	22491.65
506.387	22600.19
506.59	22804.99
506.793	23273.97
506.996	23288.31
507.198	23636.46
507.401	23763.43
507.604	24023.53
507.807	24664.54
508.009	24777.18
508.212	25119.19
508.415	25266.64
508.617	25651.66
508.82	25862.6
509.022	26159.56
509.225	26630.59
509.428	26831.29
509.63	27011.51
509.833	27527.6
510.035	27910.57
510.238	27718.06
510.44	28451.24
510.643	28391.84
510.845	28985.76
511.048	28842.4
511.25	29403.54
511.453	29448.6
511.655	30755.2
511.858	30685.57
512.06	30957.95
512.262	31439.22
512.465	31244.66
512.667	31822.19
512.87	32616.8
513.072	32348.52
513.274	33214.81
513.477	33241.43
513.679	33661.27
513.881	34216.27
514.084	34492.74
514.286	34367.82
514.488	34957.63
514.69	36124.97
514.893	36176.17
515.095	35770.68
515.297	36477.22
515.499	36880.67
515.701	37296.41
515.904	37652.76
516.106	37869.84
516.308	38615.3
516.51	38990.08
516.712	38942.98
516.914	39588.09
517.116	39985.4
517.318	40687.85
517.52	40468.72
517.722	40943.84
517.925	41212.13
518.127	41662.68
518.329	42041.56
518.531	42262.74
518.733	42905.8
518.935	43348.16
519.136	43808.95
519.338	44251.31
519.54	44484.78
519.742	44814.51
519.944	44921
520.146	45762.72
520.348	45826.2
520.55	46094.49
520.752	46078.1
520.954	47163.53
521.155	46966.92
521.357	47739
521.559	47814.78
521.761	48685.17
521.963	48531.57
522.164	48699.5
522.366	49098.86
522.568	49670.24
522.77	49703.01
522.971	50985.04
523.173	50640.98
523.375	51046.47
523.576	51046.47
523.778	50864.21
523.98	51836.99
524.181	51955.77
524.383	52105.27
524.584	52969.52
524.786	52942.89
524.988	52998.19
525.189	53538.85
525.391	53833.76
525.592	54038.56
525.794	53907.49
525.995	54263.83
526.197	54272.03
526.398	54308.89
526.6	55052.3
526.801	54917.14
527.003	55322.63
527.204	55394.31
527.406	55906.3
527.607	56082.43
527.808	56227.84
528.01	55580.68
528.211	56158.2
528.412	57071.6
528.614	56600.57
528.815	56721.4
529.016	57110.51
529.218	57016.3
529.419	56991.73
529.62	56907.76
529.822	56991.73
530.023	57335.79
530.224	57380.84
530.425	57298.92
530.626	56965.1
530.828	57167.85
531.029	57989.09
531.23	57618.41
531.431	58062.82
531.632	57735.14
531.833	58290.14
532.035	58036.19
532.236	58175.45
532.437	58654.68
532.638	58193.89
532.839	58470.36
533.04	58423.26
533.241	58120.16
533.442	59011.02
533.643	58806.23
533.844	58451.93
534.045	58798.04
534.246	58015.71
534.447	58722.26
534.648	58748.88
534.849	59045.84
535.05	58222.56
535.251	58769.36
535.451	59015.12
535.652	58994.64
535.853	58752.98
536.054	59039.7
536.255	59103.18
536.456	58552.28
536.657	59529.16
536.857	58808.28
537.058	58720.21
537.259	59320.27
537.46	58955.73
537.66	59076.56
537.861	58982.35
538.062	58527.7
538.263	59142.09
538.463	58400.73
538.664	58316.76
538.865	58845.14
539.065	59205.58
539.266	58626.01
539.466	59199.44
539.667	58513.37
539.868	59557.83
540.068	58886.1
540.269	58925.01
540.469	59090.9
540.67	58666.97
540.87	58900.43
541.071	58630.1
541.271	59273.16
541.472	58922.96
541.672	58773.46
541.873	58697.69
542.073	58380.25
542.274	59043.79
542.474	58574.81
542.675	58879.95
542.875	58789.84
543.075	58779.6
543.276	58245.08
543.476	59381.71
543.676	58673.11
543.877	59111.38
544.077	58654.68
544.277	58855.38
544.478	58642.39
544.678	59166.67
544.878	58548.18
545.078	58601.43
545.279	58914.77
545.479	58458.07
545.679	58861.52
545.879	58570.71
546.079	58443.74
546.28	58724.31
546.48	57954.27
546.68	58937.3
546.88	58216.41
547.08	58654.68
547.28	58707.93
547.48	58329.05
547.68	58847.19
547.88	57982.94
548.081	58961.87
548.281	58312.67
548.481	58458.07
548.681	59207.63
548.881	58351.58
549.081	58417.11
549.28	58439.64
549.48	58742.74
549.68	58245.08
549.88	58795.99
550.08	58185.69
550.28	58662.87
550.48	58208.22
550.68	58347.48
550.88	58296.28
551.08	58390.49
551.279	58187.74
551.479	58148.83
551.679	58552.28
551.879	57892.83
552.079	58906.58
552.278	58132.45
552.478	58140.64
552.678	58040.29
552.878	58552.28
553.077	58023.9
553.277	57880.55
553.477	58566.62
553.676	57567.21
553.876	58245.08
554.076	57702.37
554.275	57757.67
554.475	57536.49
554.674	57976.8
554.874	57806.82
555.074	58142.69
555.273	58015.71
555.473	58056.67
555.672	57491.43
555.872	57563.11
556.071	57901.03
556.271	57692.13
556.47	57436.14
556.67	57208.81
556.869	57223.15
557.068	56975.34
557.268	56915.95
557.467	57063.41
557.667	57298.92
557.866	57268.2
558.065	56961.01
558.265	56741.88
558.464	56709.11
558.663	57255.92
558.863	56510.46
559.062	56887.28
559.261	56453.11
559.461	57333.74
559.66	55930.88
559.859	56655.86
560.058	55984.13
560.258	56064
560.457	55965.7
560.656	56469.5
560.855	55746.56
561.054	56346.62
561.253	55930.88
561.453	56039.42
561.652	56107.01
561.851	56274.94
562.05	55703.56
562.249	55564.29
562.448	56242.17
562.647	56016.89
562.846	55762.95
563.045	55601.16
563.244	54988.81
563.443	55990.27
563.642	55306.25
563.841	55674.88
564.04	55162.89
564.239	55969.79
564.438	55420.94
564.637	55519.24
564.836	55449.61
565.035	54470.68
565.234	55650.31
565.432	54962.19
565.631	55005.2
565.83	55205.9
566.029	54448.15
566.228	54863.89
566.427	54143
566.625	54437.91
566.824	53864.48
567.023	54597.65
567.222	53481.51
567.42	54364.18
567.619	53870.62
567.818	54007.84
568.016	53946.4
568.215	54607.89
568.414	53473.32
568.612	54161.43
568.811	53626.92
569.01	53844
569.208	53194.79
569.407	53594.15
569.605	53350.44
569.804	53852.19
570.002	52766.77
570.201	53579.81
570.4	52781.1
570.598	52770.86
570.797	52838.45
570.995	52488.24
571.193	51986.49
571.392	53037.1
571.59	52373.56
571.789	51695.68
571.987	51621.95
572.186	52283.45
572.384	51984.44
572.582	52037.69
572.781	52150.33
572.979	51325
573.177	51574.85
573.376	51376.2
573.574	50774.09
573.772	51441.73
573.971	50819.15
574.169	50866.25
574.367	50481.24
574.565	50423.89
574.763	50444.37
574.962	49842.27
575.16	50288.73
575.358	50487.38
575.556	49967.19
575.754	50657.36
575.952	49547.36
576.151	49928.28
576.349	49299.56
576.547	49610.85
576.745	49893.47
576.943	49086.57
577.141	49332.32
577.339	49668.19
577.537	48519.28
577.735	48935.02
577.933	48158.84
578.131	48826.48
578.329	48666.73
578.527	48320.63
578.725	48611.44
578.923	48173.17
579.121	47931.51
579.319	47951.99
579.516	48033.91
579.714	48029.82
579.912	47626.37
580.11	47233.16
580.308	47571.07
580.506	47206.53
580.704	46807.18
580.901	47272.07
581.099	47511.68
581.297	46749.84
581.495	46434.45
581.692	46739.6
581.89	46164.12
582.088	46487.7
582.285	45699.23
582.483	46260.37
582.681	46092.44
582.878	45815.96
583.076	45502.62
583.274	45813.91
583.471	45240.48
583.669	45346.98
583.866	45201.57
584.064	45258.91
584.262	44572.85
584.459	45226.15
584.657	44570.8
584.854	44869.8
585.052	44161.2
585.249	44476.59
585.447	44783.79
585.644	44456.11
585.841	44613.8
586.039	44159.16
586.236	43270.34
586.434	43710.65
586.631	43722.94
586.828	43620.54
587.026	43606.2
587.223	43600.06
587.42	43186.37
587.618	43315.39
587.815	43110.6
588.012	42678.47
588.21	43088.07
588.407	42924.23
588.604	42719.43
588.801	42631.37
588.999	42195.15
589.196	42057.94
589.393	42031.32
589.59	41943.25
589.787	41822.42
589.984	41554.14
590.182	41089.25
590.379	41873.62
590.576	41615.58
590.773	41402.59
590.97	40894.69
591.167	41228.51
591.364	40720.62
591.561	41044.2
591.758	40454.38
591.955	40782.06
592.152	41009.38
592.349	40452.33
592.546	40669.42
592.743	40368.37
592.94	40050.93
593.137	39753.97
593.334	40192.24
593.531	39776.5
593.727	39909.62
593.924	39772.41
594.121	39072
594.318	39872.76
594.515	39016.71
594.712	38965.51
594.908	38957.31
595.105	39160.06
595.302	38490.38
595.499	38963.46
595.696	38568.2
595.892	38240.53
596.089	38768.9
596.286	38893.83
596.482	38254.86
596.679	38367.5
596.876	38328.59
597.072	37880.08
597.269	37671.19
597.466	37718.29
597.662	37458.2
597.859	37665.05
598.055	37398.81
598.252	37316.89
598.448	37357.85
598.645	37306.65
598.841	36694.31
599.038	37058.85
599.234	37064.99
599.431	36567.34
599.627	36532.52
599.824	36747.56
600.02	36053.3
600.217	36327.72
600.413	36012.34
600.609	36008.24
600.806	35877.17
601.002	36260.14
601.198	35369.27
601.395	35273.02
601.591	35506.49
601.787	35557.69
601.984	35152.19
602.18	35475.77
602.376	35012.93
602.572	34771.27
602.769	34998.59
602.965	34324.81
603.161	34928.96
603.357	34568.52
603.553	34459.98
603.75	34351.43
603.946	34339.15
604.142	34177.36
604.338	33870.16
604.534	34316.62
604.73	33821.01
604.926	33859.92
605.122	33915.22
605.318	33493.33
605.514	33294.68
605.71	32989.53
605.906	32860.51
606.102	33227.1
606.298	33188.19
606.494	33089.88
606.69	32663.91
606.886	32737.63
607.082	32346.47
607.278	32737.63
607.474	32102.76
607.67	32586.08
607.866	32057.71
608.062	32108.91
608.257	32033.13
608.453	32063.85
608.649	31664.5
608.845	31797.62
609.041	31641.97
609.236	31682.93
609.432	31517.04
609.628	31336.82
609.824	31377.78
610.019	31037.82
610.215	30978.43
610.411	31172.99
610.606	30855.55
610.802	31172.99
610.998	30798.21
611.193	30992.76
611.389	30927.23
611.584	30556.55
611.78	30202.25
611.976	30620.03
612.171	30413.19
612.367	30265.74
612.562	30146.95
612.758	29518.23
612.953	30046.6
613.149	30149
613.344	29897.1
613.539	30175.62
613.735	29620.63
613.93	29831.57
614.126	29645.2
614.321	29962.64
614.517	29669.78
614.712	29489.56
614.907	29077.91
615.103	29295
615.298	29129.11
615.493	29438.36
615.688	28768.67
615.884	29194.65
616.079	28639.65
616.274	29022.62
616.47	28699.04
616.665	28826.01
616.86	28332.45
617.055	28359.08
617.25	28367.27
617.445	28383.65
617.641	28008.87
617.836	28537.25
618.031	27810.22
618.226	28283.3
618.421	27392.44
618.616	27842.99
618.811	27011.51
619.006	27738.54
619.201	27437.49
619.396	27476.4
619.591	26630.59
619.786	27177.4
619.981	26722.75
620.176	27062.71
620.371	26421.7
620.566	26534.34
620.761	26372.55
620.956	26657.21
621.151	26282.44
621.346	26440.13
621.541	25881.03
621.735	26071.5
621.93	25528.78
622.125	25960.91
622.32	25209.3
622.515	25534.93
622.709	25338.32
622.904	25070.04
623.099	25000.41
623.294	24973.78
623.488	24402.4
623.683	24689.12
623.878	24543.71
624.072	24326.63
624.267	24263.14
624.462	23984.62
624.656	23839.21
624.851	24113.64
625.046	23740.91
625.24	23595.5
625.435	23493.1
625.629	23390.7
625.824	23239.15
626.018	23130.61
626.213	22553.09
626.407	22895.1
626.602	22637.05
626.796	22352.38
626.991	22622.72
627.185	22362.62
627.38	22131.2
627.574	21965.32
627.768	22108.68
627.963	21654.03
628.157	21615.12
628.352	21658.12
628.546	21408.27
628.74	21525
628.935	21301.78
629.129	21438.99
629.323	20906.52
629.517	20908.57
629.712	20693.53
629.906	20806.17
630.1	20480.54
630.294	20503.07
630.489	20273.7
630.683	20671
630.877	20140.58
631.071	20197.92
631.265	20212.26
631.459	19773.99
631.653	19907.11
631.848	19694.12
632.042	19593.77
632.236	19743.27
632.43	19628.59
632.624	19460.65
632.818	19206.7
633.012	19098.16
633.206	19339.82
633.4	18864.69
633.594	18641.46
633.788	18864.69
633.982	18954.8
634.176	18852.41
634.369	18387.52
634.563	18512.44
634.757	18303.55
634.951	18420.28
635.145	18168.38
635.339	18053.7
635.533	17908.29
635.726	18111.04
635.92	17674.82
636.114	17785.41
636.308	17627.72
636.501	17752.65
636.695	17549.9
636.889	17318.48
637.083	17148.5
637.276	17191.5
637.47	17056.34
637.664	17289.81
637.857	16929.36
638.051	16994.9
638.244	16847.44
638.438	16968.27
638.632	16751.19
638.825	16603.74
639.019	16226.91
639.212	16362.08
639.406	16138.85
639.599	16259.68
639.793	16177.76
639.986	16134.75
640.18	15956.58
640.373	15819.36
640.567	15696.49
640.76	15768.16
640.954	15587.94
641.147	15467.11
641.34	15182.45
641.534	15401.58
641.727	15223.41
641.92	15434.35
642.114	15137.39
642.307	14985.84
642.5	14942.83
642.694	14676.6
642.887	14654.07
643.08	14860.91
643.273	14764.66
643.467	14772.85
643.66	14457.46
643.853	14516.86
644.046	14115.45
644.239	14264.96
644.432	14416.51
644.626	13900.42
644.819	14041.73
645.012	13904.51
645.205	13965.95
645.398	13703.81
645.591	13613.7
645.784	13701.76
645.977	13462.15
646.17	13458.06
646.363	13337.23
646.556	13269.64
646.749	13202.06
646.942	13111.95
647.135	13034.13
647.328	12950.16
647.521	13032.08
647.714	12737.17
647.907	12849.81
648.099	12769.94
648.292	12692.12
648.485	12647.06
648.678	12397.21
648.871	12518.04
649.064	12311.19
649.256	12165.79
649.449	12356.25
649.642	12073.63
649.835	12227.23
650.027	12040.86
650.22	11815.59
650.413	11748
650.605	11926.18
650.798	11645.6
650.991	11676.32
651.183	11700.9
651.376	11369.13
651.568	11549.35
651.761	11137.71
651.954	11266.73
652.146	11324.07
652.339	11121.32
652.531	11012.78
652.724	10943.15
652.916	10826.42
653.109	10812.08
653.301	10701.49
653.494	10603.19
653.686	10459.83
653.879	10625.72
654.071	10558.13
654.263	10267.32
654.456	10371.77
654.648	10410.68
654.84	10152.63
655.033	9923.26
655.225	10064.57
655.417	10119.87
655.61	9908.93
655.802	9853.63
655.994	9779.9
656.186	9935.55
656.379	9626.31
656.571	9611.97
656.763	9450.18
656.955	9597.63
657.148	9362.12
657.34	9327.3
657.532	8993.48
657.724	9126.6
657.916	9110.22
658.108	8930
658.3	9026.25
658.492	9112.27
658.684	8749.78
658.876	8782.54
659.068	8784.59
659.26	8766.16
659.452	8764.11
659.644	8594.13
659.836	8331.99
660.028	8350.42
660.22	8456.92
660.412	8270.55
660.604	8202.97
660.796	8178.39
660.988	8000.22
661.18	7918.3
661.372	7918.3
661.563	7979.74
661.755	7838.43
661.947	7858.91
662.139	7742.18
662.331	7715.55
662.522	7668.45
662.714	7412.45
662.906	7529.19
663.097	7541.47
663.289	7359.21
663.481	7174.89
663.673	7338.73
663.864	7344.87
664.056	7187.18
664.247	7074.54
664.439	6912.75
664.631	7097.07
664.822	7119.59
665.014	7117.54
665.205	6800.11
665.397	6972.14
665.588	6769.39
665.78	6732.53
665.971	6572.79
666.163	6908.65
666.354	6617.84
666.546	6542.07
666.737	6552.31
666.929	6370.04
667.12	6587.12
667.311	6396.66
667.503	6324.98
667.694	6230.77
667.885	6290.17
668.077	6208.25
668.268	6136.57
668.459	6177.53
668.651	6261.49
668.842	6093.56
669.033	6066.94
669.224	6216.44
669.416	6040.31
669.607	5952.25
669.798	5950.2
669.989	5896.96
670.18	5786.37
670.371	5905.15
670.563	5858.04
670.754	5776.13
670.945	5681.92
671.136	5677.82
671.327	5522.18
671.518	5583.62
671.709	5550.85
671.9	5620.48
672.091	5436.16
672.282	5458.69
672.473	5526.27
672.664	5528.32
672.855	5313.28
673.046	5362.44
673.237	5327.62
673.428	5309.19
673.619	5176.07
673.809	5210.89
674	5325.57
674.191	5292.8
674.382	5337.86
674.573	5147.4
674.764	5245.7
674.954	5085.96
675.145	5047.05
675.336	5053.19
675.527	5051.14
675.717	5143.3
675.908	5036.81
676.099	4842.25
676.289	5022.47
676.48	4893.45
676.671	5036.81
676.861	4938.51
677.052	4932.36
677.243	4707.09
677.433	4784.91
677.624	4834.06
677.814	4784.91
678.005	4854.54
678.195	4676.37
678.386	4711.18
678.576	4692.75
678.767	4752.14
678.957	4571.92
679.148	4768.52
679.338	4758.28
679.529	4590.35
679.719	4606.74
679.909	4678.41
680.1	4457.23
680.29	4459.28
680.481	4455.19
680.671	4561.68
680.861	4537.1
681.052	4475.67
681.242	4623.12
681.432	4512.53
681.622	4274.96
681.813	4471.57
682.003	4651.79
682.193	4473.62
682.383	4438.8
682.573	4332.31
682.764	4315.92
682.954	4203.29
683.144	4279.06
683.334	4313.88
683.524	4242.2
683.714	4406.03
683.904	4293.4
684.094	4209.43
684.284	4377.36
684.474	4322.07
684.664	4418.32
684.854	4360.98
685.044	4293.4
685.234	4281.11
685.424	4209.43
685.614	4131.61
685.804	4137.75
685.994	4201.24
686.184	4201.24
686.374	4252.44
686.564	4238.1
686.753	4158.23
686.943	4211.48
687.133	4178.71
687.323	4209.43
687.513	4147.99
687.702	4227.86
687.892	4018.97
688.082	4172.57
688.272	4016.92
688.461	3992.34
688.651	4121.37
688.841	4086.55
689.03	4102.93
689.22	4123.41
689.41	4041.5
689.599	4137.75
689.789	4115.22
689.979	3926.81
690.168	4104.98
690.358	3967.77
690.547	4055.83
690.737	4006.68
690.926	4188.95
691.116	3947.29
691.305	4064.02
691.495	3930.91
691.684	3881.75
691.874	3851.03
692.063	3963.67
692.252	3996.44
692.442	3963.67
692.631	4059.93
692.82	4023.06
693.01	3877.66
693.199	3851.03
693.388	3848.99
693.578	4018.97
693.767	3990.3
693.956	4002.58
694.146	3908.38
694.335	3941.15
694.524	3900.19
694.713	3941.15
694.902	4033.3
695.092	3881.75
695.281	3937.05
695.47	3826.46
695.659	3762.97
695.848	3928.86
696.037	3871.51
696.226	3928.86
696.415	3838.75
696.604	3891.99
696.793	3818.27
696.982	3822.36
697.171	3713.82
697.36	3658.53
697.549	3726.11
697.738	3773.21
697.927	3701.53
698.116	3652.38
698.305	3834.65
698.494	3769.12
698.683	3664.67
698.872	3713.82
699.061	3676.96
699.25	3779.36
699.438	3650.33
699.627	3656.48
699.816	3808.03
700.005	3713.82
700.193	3705.63
700.382	3726.11
700.571	3570.46
700.76	3574.56
700.948	3631.9
701.137	3609.37
701.326	3584.8
701.514	3527.46
701.703	3558.18
701.892	3412.77
702.08	3578.65
702.269	3623.71
702.457	3627.81
702.646	3531.55
702.834	3517.22
703.023	3513.12
703.212	3474.21
703.4	3478.3
703.589	3439.39
703.777	3568.41
703.965	3566.37
704.154	3353.38
704.342	3316.51
704.531	3351.33
704.719	3412.77
704.907	3334.95
705.096	3402.53
705.284	3316.51
705.472	3293.99
705.661	3214.12
705.849	3220.26
706.037	3302.18
706.226	3349.28
706.414	3212.07
706.602	3269.41
706.79	3271.46
706.979	3308.32
707.167	3269.41
707.355	3138.34
707.543	3322.66
707.731	3070.76
707.919	3146.53
708.107	3177.25
708.296	3033.9
708.484	3074.85
708.672	3091.24
708.86	2956.07
709.048	3138.34
709.236	2833.19
709.424	3052.33
709.612	2999.08
709.8	3126.05
709.988	3033.9
710.176	3097.38
710.364	2990.89
710.551	2886.44
710.739	2919.21
710.927	2999.08
711.115	2859.82
711.303	2923.3
711.491	2876.2
711.679	2933.54
711.866	2900.78
712.054	2902.83
712.242	2892.59
712.43	2851.63
712.617	2796.33
712.805	2726.7
712.993	2825
713.181	2806.57
713.368	2681.64
713.556	2814.76
713.744	2779.95
713.931	2702.12
714.119	2708.27
714.306	2622.25
714.494	2566.96
714.682	2720.56
714.869	2683.69
715.057	2663.21
715.244	2646.83
715.432	2509.62
715.619	2628.4
715.807	2569.01
715.994	2603.82
716.182	2433.84
716.369	2542.38
716.556	2493.23
716.744	2456.37
716.931	2546.48
717.119	2562.86
717.306	2546.48
717.493	2376.5
717.681	2464.56
717.868	2405.17
718.055	2288.43
718.242	2503.47
718.43	2351.92
718.617	2374.45
718.804	2396.98
718.991	2333.49
719.179	2366.26
719.366	2177.84
719.553	2296.63
719.74	2292.53
719.927	2243.38
720.114	2239.28
720.301	2198.32
720.488	2194.23
720.676	2265.91
720.863	2216.76
721.05	2161.46
721.237	2048.82
721.424	2192.18
721.611	2229.04
721.798	2147.12
721.985	2177.84
722.172	2186.04
722.358	2153.27
722.545	2089.78
722.732	2095.93
722.919	2089.78
723.106	2079.54
723.293	1966.9
723.48	1915.7
723.667	2106.17
723.853	1958.71
724.04	2108.21
724.227	1950.52
724.414	2063.16
724.6	1897.27
724.787	2026.29
724.974	1964.86
725.161	1973.05
725.347	1930.04
725.534	1907.51
725.72	2009.91
725.907	1895.22
726.094	1944.38
726.28	1975.1
726.467	1882.94
726.653	1874.74
726.84	1936.18
727.027	1825.59
727.213	1768.25
727.4	1825.59
727.586	1768.25
727.773	1762.11
727.959	1762.11
728.145	1710.91
728.332	1776.44
728.518	1727.29
728.705	1790.78
728.891	1721.15
729.077	1760.06
729.264	1827.64
729.45	1753.91
729.636	1743.67
729.823	1702.72
730.009	1721.15
730.195	1772.35
730.382	1639.23
730.568	1610.56
730.754	1663.8
730.94	1678.14
731.126	1674.04
731.313	1655.61
731.499	1676.09
731.685	1602.36
731.871	1639.23
732.057	1665.85
732.243	1680.19
732.429	1555.26
732.615	1620.8
732.801	1506.11
732.987	1540.93
733.173	1653.56
733.359	1512.25
733.545	1438.53
733.731	1612.6
733.917	1567.55
734.103	1475.39
734.289	1540.93
734.475	1499.97
734.661	1555.26
734.847	1545.02
735.033	1448.77
735.219	1454.91
735.404	1540.93
735.59	1459.01
735.776	1387.33
735.962	1475.39
736.148	1409.86
736.333	1450.82
736.519	1448.77
736.705	1362.75
736.89	1395.52
737.076	1344.32
737.262	1344.32
737.447	1385.28
737.633	1448.77
737.819	1329.99
738.004	1452.86
738.19	1280.83
738.375	1295.17
738.561	1321.79
738.747	1329.99
738.932	1332.03
739.118	1366.85
739.303	1305.41
739.489	1246.02
739.674	1397.57
739.859	1160
740.045	1305.41
740.23	1256.26
740.416	1254.21
740.601	1360.7
740.786	1256.26
740.972	1252.16
741.157	1233.73
741.342	1200.96
741.528	1270.59
741.713	1215.3
741.898	1190.72
742.084	1157.96
742.269	1305.41
742.454	1203.01
742.639	1207.11
742.824	1186.63
743.01	1241.92
743.195	1223.49
743.38	1174.34
743.565	1100.61
743.75	1147.72
743.935	1149.76
744.12	1135.43
744.305	1143.62
744.49	1180.48
744.675	1125.19
744.86	1168.2
745.045	1084.23
745.23	1231.68
745.415	1090.37
745.6	996.17
745.785	1102.66
745.97	1139.52
746.155	1205.06
746.34	1045.32
746.525	1073.99
746.71	1006.41
746.895	1076.04
747.079	977.73
747.264	990.02
747.449	1063.75
747.634	1051.46
747.819	983.88
748.003	1055.56
748.188	1016.65
748.373	983.88
748.557	961.35
748.742	985.93
748.927	990.02
749.111	893.77
749.296	973.64
749.481	908.1
749.665	908.1
749.85	889.67
750.034	926.54
750.219	973.64
750.404	994.12
750.588	934.73
750.773	858.95
750.957	1002.31
751.141	877.38
751.326	830.28
751.51	914.25
751.695	772.94
751.879	947.01
752.064	877.38
752.248	867.14
752.432	861
752.617	832.33
752.801	967.49
752.985	871.24
753.17	834.38
753.354	805.71
753.538	832.33
753.722	822.09
753.907	822.09
754.091	844.62
754.275	736.07
754.459	801.61
754.643	793.42
754.828	738.12
755.012	809.8
755.196	828.23
755.38	750.41
755.564	750.41
755.748	719.69
755.932	770.89
756.116	756.55
756.3	811.85
756.484	695.11
756.668	813.9
756.852	674.64
757.036	731.98
757.22	736.07
757.404	670.54
757.588	746.31
757.772	693.07
757.956	793.42
758.14	686.92
758.323	635.72
758.507	764.75
758.691	770.89
758.875	639.82
759.059	670.54
759.242	711.5
759.426	703.31
759.61	670.54
759.794	639.82
759.977	711.5
760.161	744.27
760.345	664.4
760.528	744.27
760.712	676.68
760.895	729.93
761.079	633.68
761.263	660.3
761.446	621.39
761.63	637.77
761.813	594.76
761.997	584.52
762.18	605
762.364	627.53
762.547	676.68
762.731	600.91
762.914	615.24
763.098	568.14
763.281	631.63
763.464	605
763.648	631.63
763.831	598.86
764.015	533.33
764.198	574.28
764.381	572.24
764.564	566.09
764.748	531.28
764.931	607.05
765.114	609.1
765.297	568.14
765.481	564.04
765.664	549.71
765.847	453.45
766.03	637.77
766.213	551.76
766.397	594.76
766.58	555.85
766.763	570.19
766.946	496.46
767.129	547.66
767.312	580.43
767.495	527.18
767.678	598.86
767.861	629.58
768.044	629.58
768.227	566.09
768.41	658.25
768.593	564.04
768.776	613.2
768.959	574.28
769.142	619.34
769.324	523.09
769.507	465.74
769.69	488.27
769.873	615.24
770.056	615.24
770.239	559.95
770.421	572.24
770.604	574.28
770.787	510.8
770.97	576.33
771.152	570.19
771.335	529.23
771.518	572.24
771.7	465.74
771.883	557.9
772.066	482.13
772.248	508.75
772.431	621.39
772.613	521.04
772.796	453.45
772.978	539.47
773.161	529.23
773.343	547.66
773.526	539.47
773.708	537.42
773.891	490.32
774.073	463.69
774.256	535.37
774.438	574.28
774.621	518.99
774.803	502.61
774.985	437.07
775.168	467.79
775.35	379.73
775.532	432.97
775.715	437.07
775.897	482.13
776.079	459.6
776.261	451.41
776.444	469.84
776.626	408.4
776.808	459.6
776.99	416.59
777.173	469.84
777.355	455.5
777.537	500.56
777.719	437.07
777.901	451.41
778.083	432.97
778.265	449.36
778.447	392.02
778.629	461.65
778.811	459.6
778.993	467.79
779.175	398.16
779.357	357.2
779.539	351.06
779.721	432.97
779.903	359.25
780.085	379.73
780.267	457.55
780.449	357.2
780.631	422.73
780.812	373.58
780.994	369.49
781.176	437.07
781.358	359.25
781.54	439.12
781.721	361.3
781.903	385.87
782.085	353.1
782.267	303.95
782.448	308.05
782.63	385.87
782.812	375.63
782.993	375.63
783.175	400.21
783.357	355.15
783.538	367.44
783.72	396.11
783.901	367.44
784.083	375.63
784.264	248.66
784.446	283.47
784.627	344.91
784.809	326.48
784.99	342.86
785.172	385.87
785.353	351.06
785.535	310.1
785.716	295.76
785.897	320.34
786.079	361.3
786.26	336.72
786.441	357.2
786.623	316.24
786.804	344.91
786.985	316.24
787.167	306
787.348	328.53
787.529	207.7
787.71	330.58
787.891	246.61
788.073	224.08
788.254	260.95
788.435	314.19
788.616	248.66
788.797	326.48
788.978	275.28
789.159	279.38
789.34	256.85
789.522	293.71
789.703	271.19
789.884	361.3
790.065	238.42
790.246	269.14
790.427	314.19
790.607	176.98
790.788	254.8
790.969	271.19
791.15	320.34
791.331	224.08
791.512	248.66
791.693	230.23
791.874	238.42
792.054	254.8
792.235	222.03
792.416	279.38
792.597	232.27
792.778	275.28
792.958	318.29
793.139	256.85
793.32	215.89
793.5	293.71
793.681	293.71
793.862	209.75
794.042	232.27
794.223	201.55
794.404	154.45
794.584	187.22
794.765	262.99
794.945	170.83
795.126	181.07
795.306	269.14
795.487	236.37
795.667	224.08
795.848	254.8
796.028	236.37
796.209	199.51
796.389	93.01
796.57	213.84
796.75	252.75
796.93	199.51
797.111	205.65
797.291	222.03
797.471	191.31
797.652	232.27
797.832	224.08
798.012	195.41
798.192	170.83
798.373	260.95
798.553	191.31
798.733	242.51
798.913	205.65
799.093	250.71
799.274	189.27
799.454	275.28
799.634	197.46
799.814	219.99
799.994	215.89
800.174	170.83
800.354	203.6
800.534	162.64
800.714	168.79
800.894	199.51
801.074	156.5
801.254	121.68
801.434	224.08
801.614	172.88
801.794	97.11
801.974	432.97
802.154	207.7
802.334	164.69
802.514	215.89
802.693	189.27
802.873	152.4
803.053	219.99
803.233	181.07
803.413	168.79
803.592	224.08
803.772	187.22
803.952	236.37
804.131	168.79
804.311	219.99
804.491	174.93
804.67	131.92
804.85	179.03
805.03	207.7
805.209	140.12
805.389	174.93
805.568	148.31
805.748	179.03
805.928	82.77
806.107	164.69
806.287	187.22
806.466	168.79
806.646	138.07
806.825	121.68
807.004	90.96
807.184	166.74
807.363	152.4
807.543	146.26
807.722	162.64
807.901	86.87
808.081	209.75
808.26	54.1
808.439	162.64
808.619	168.79
808.798	140.12
808.977	78.68
809.156	131.92
809.336	142.16
809.515	162.64
809.694	158.55
809.873	146.26
810.052	84.82
810.231	156.5
810.411	136.02
810.59	166.74
810.769	76.63
810.948	146.26
811.127	133.97
811.306	197.46
811.485	154.45
811.664	213.84
811.843	95.06
812.022	117.59
812.201	121.68
812.38	105.3
812.559	123.73
812.737	189.27
812.916	201.55
813.095	138.07
813.274	152.4
813.453	154.45
813.632	146.26
813.811	181.07
813.989	113.49
814.168	117.59
814.347	113.49
814.526	111.44
814.704	162.64
814.883	119.64
815.062	93.01
815.24	144.21
815.419	29.52
815.598	68.44
815.776	146.26
815.955	154.45
816.133	86.87
816.312	117.59
816.49	115.54
816.669	142.16
816.847	115.54
817.026	133.97
817.204	115.54
817.383	121.68
817.561	90.96
817.74	23.38
817.918	107.35
818.097	88.92
818.275	158.55
818.453	152.4
818.632	181.07
818.81	162.64
818.988	76.63
819.167	31.57
819.345	125.78
819.523	68.44
819.701	78.68
819.879	103.25
820.058	123.73
820.236	101.2
820.414	72.53
820.592	111.44
820.77	181.07
820.948	121.68
821.127	111.44
821.305	90.96
821.483	72.53
821.661	68.44
821.839	47.96
822.017	31.57
822.195	121.68
822.373	99.16
822.551	74.58
822.729	105.3
822.907	74.58
823.085	107.35
823.262	41.81
823.44	140.12
823.618	125.78
823.796	119.64
823.974	109.4
824.152	115.54
824.329	105.3
824.507	4.95
824.685	64.34
824.863	74.58
825.04	97.11
825.218	76.63
825.396	62.29
825.574	-17.58
825.751	84.82
825.929	7
826.107	62.29
826.284	86.87
826.462	58.2
826.639	80.72
826.817	101.2
826.994	117.59
827.172	39.76
827.349	76.63
827.527	101.2
827.704	66.39
827.882	84.82
828.059	90.96
828.237	66.39
828.414	35.67
828.591	47.96
828.769	64.34
828.946	9.05
829.124	64.34
829.301	37.72
829.478	99.16
829.655	99.16
829.833	15.19
830.01	84.82
830.187	121.68
830.364	93.01
830.542	62.29
830.719	80.72
830.896	117.59
831.073	58.2
831.25	82.77
831.427	39.76
831.604	64.34
831.782	58.2
831.959	27.48
832.136	103.25
832.313	41.81
832.49	39.76
832.667	56.15
832.844	117.59
833.021	113.49
833.198	66.39
833.374	117.59
833.551	95.06
833.728	72.53
833.905	33.62
834.082	27.48
834.259	47.96
834.436	47.96
834.612	131.92
834.789	103.25
834.966	27.48
835.143	105.3
835.319	17.24
835.496	23.38
835.673	58.2
835.85	58.2
836.026	21.33
836.203	97.11
836.38	-17.58
836.556	39.76
836.733	-3.24
836.909	80.72
837.086	47.96
837.262	138.07
837.439	103.25
837.616	62.29
837.792	-19.63
837.968	-17.58
838.145	95.06
838.321	74.58
838.498	72.53
838.674	82.77
838.851	82.77
839.027	41.81
839.203	86.87
839.38	99.16
839.556	58.2
839.732	103.25
839.909	31.57
840.085	68.44
840.261	111.44
840.437	101.2
840.614	15.19
840.79	56.15
840.966	25.43
841.142	56.15
841.318	35.67
841.494	72.53
841.671	113.49
841.847	43.86
842.023	41.81
842.199	90.96
842.375	43.86
842.551	41.81
842.727	31.57
842.903	74.58
843.079	31.57
843.255	125.78
843.431	15.19
843.607	31.57
843.783	68.44
843.959	68.44
844.134	47.96
844.31	13.14
844.486	17.24
844.662	9.05
844.838	13.14
845.013	11.09
845.189	35.67
845.365	78.68
845.541	58.2
845.716	-1.19
845.892	-9.39
846.068	41.81
846.244	21.33
846.419	66.39
846.595	-11.43
846.77	56.15
846.946	0.85
847.122	41.81
847.297	56.15
847.473	0.85
847.648	58.2
847.824	17.24
847.999	-9.39
848.175	39.76
848.35	54.1
848.526	109.4
848.701	47.96
848.876	27.48
849.052	7
849.227	152.4
849.403	29.52
849.578	103.25
849.753	35.67
849.929	25.43
850.104	58.2
850.279	148.31
850.454	33.62
850.63	93.01
850.805	33.62
850.98	23.38
851.155	74.58
851.33	33.62
851.505	-46.25
851.681	68.44
851.856	78.68
852.031	113.49
852.206	-15.53
852.381	80.72
852.556	19.29
852.731	58.2
852.906	52.05
853.081	45.91
853.256	25.43
853.431	70.48
853.606	70.48
853.781	41.81
853.956	39.76
854.131	0.85
854.305	64.34
854.48	107.35
854.655	7
854.83	68.44
855.005	88.92
855.18	21.33
855.354	31.57
855.529	74.58
855.704	31.57
855.879	27.48
856.053	13.14
856.228	97.11
856.403	-15.53
856.577	45.91
856.752	19.29
856.926	121.68
857.101	64.34
857.276	4.95
857.45	68.44
857.625	-11.43
857.799	25.43
857.974	33.62
858.148	-48.3
858.323	33.62
858.497	39.76
858.672	47.96
858.846	-42.15
859.02	56.15
859.195	11.09
859.369	41.81
859.543	7
859.718	138.07
859.892	25.43
860.066	117.59
860.241	-15.53
860.415	64.34
860.589	39.76
860.763	2.9
860.938	-42.15
861.112	76.63
861.286	-11.43
861.46	47.96
861.634	-66.73
861.808	47.96
861.982	25.43
862.157	7
862.331	-23.72
862.505	-50.35
862.679	-17.58
862.853	-5.29
863.027	-15.53
863.201	39.76
863.375	56.15
863.549	23.38
863.722	31.57
863.896	2.9
864.07	43.86
864.244	27.48
864.418	66.39
864.592	56.15
864.766	-21.67
864.939	47.96
865.113	113.49
865.287	74.58
865.461	21.33
865.634	33.62
865.808	-5.29
865.982	82.77
866.156	-25.77
866.329	-33.96
866.503	64.34
866.676	31.57
866.85	66.39
867.024	41.81
867.197	68.44
867.371	11.09
867.544	27.48
867.718	50
867.891	29.52
868.065	27.48
868.238	23.38
868.412	50
868.585	43.86
868.759	99.16
868.932	-23.72
869.105	9.05
869.279	19.29
869.452	-19.63
869.625	23.38
869.799	97.11
869.972	-31.91
870.145	123.73
870.319	76.63
870.492	-3.24
870.665	52.05
870.838	31.57
871.011	2.9
871.185	66.39
871.358	47.96
871.531	4.95
871.704	-5.29
871.877	45.91
872.05	15.19
872.223	19.29
872.396	72.53
872.569	66.39
872.742	-21.67
872.915	123.73
873.088	80.72
873.261	-17.58
873.434	11.09
873.607	107.35
873.78	68.44
873.953	37.72
874.126	19.29
874.299	45.91
874.471	54.1
874.644	-68.78
874.817	-7.34
874.99	101.2
875.163	25.43
875.335	129.88
875.508	41.81
875.681	-15.53
875.853	88.92
876.026	41.81
876.199	21.33
876.371	21.33
876.544	80.72
876.717	64.34
876.889	37.72
877.062	76.63
877.234	25.43
877.407	15.19
877.579	7
877.752	17.24
877.924	-54.44
878.097	-54.44
878.269	56.15
878.442	15.19
878.614	93.01
878.786	11.09
878.959	-5.29
879.131	78.68
879.303	78.68
879.476	17.24
879.648	-46.25
879.82	39.76
879.993	7
880.165	17.24
880.337	47.96
880.509	31.57
880.681	-3.24
880.854	4.95
881.026	19.29
881.198	47.96
881.37	13.14
881.542	64.34
881.714	-7.34
881.886	31.57
882.058	-21.67
882.23	7
882.402	-3.24
882.574	9.05
882.746	27.48
882.918	52.05
883.09	47.96
883.262	84.82
883.434	-9.39
883.606	56.15
883.778	11.09
883.95	41.81
884.122	84.82
884.293	-27.82
884.465	7
884.637	21.33
884.809	47.96
884.98	-46.25
885.152	39.76
885.324	43.86
885.496	82.77
885.667	35.67
885.839	39.76
886.011	103.25
886.182	-46.25
886.354	93.01
886.525	45.91
886.697	111.44
886.869	-31.91
887.04	35.67
887.212	23.38
887.383	25.43
887.555	-7.34
887.726	2.9
887.897	-7.34
888.069	50
888.24	23.38
888.412	2.9
888.583	-64.68
888.754	9.05
888.926	-9.39
889.097	17.24
889.268	-3.24
889.44	-25.77
889.611	-33.96
889.782	74.58
889.953	25.43
890.125	70.48
890.296	-3.24
890.467	43.86
890.638	37.72
890.809	21.33
890.98	72.53
891.151	127.83
891.323	74.58
891.494	113.49
891.665	50
891.836	58.2
892.007	74.58
892.178	0.85
892.349	-7.34
892.52	74.58
892.691	25.43
892.862	27.48
893.032	0.85
893.203	43.86
893.374	13.14
893.545	-1.19
893.716	15.19
893.887	54.1
894.057	-17.58
894.228	64.34
894.399	39.76
894.57	-3.24
894.74	56.15
894.911	15.19
895.082	-3.24
895.253	39.76
895.423	-17.58
895.594	37.72
895.764	7
895.935	47.96
896.106	82.77
896.276	70.48
896.447	21.33
896.617	70.48
896.788	2.9
896.958	15.19
897.129	31.57
897.299	54.1
897.47	-29.87
897.64	19.29
897.81	64.34
897.981	-9.39
898.151	72.53
898.322	37.72
898.492	35.67
898.662	47.96
898.832	21.33
899.003	25.43
899.173	39.76
899.343	9.05
899.513	45.91
