Data from USB4F104151__219__14-00-11-463.txt Node

Date: Thu Mar 13 14:00:11 EDT 2025
User: louis
Spectrometer: USB4F10415
Trigger mode: 4
Integration Time (sec): 1.000000E-2
Scans to average: 1
Electric dark correction enabled: true
Nonlinearity correction enabled: false
Boxcar width: 0
XAxis mode: Wavelengths
Number of Pixels in Spectrum: 3648
>>>>>Begin Spectral Data<<<<<
178.204	-48.47
178.424	-48.47
178.644	-48.47
178.864	-52.56
179.084	-62.8
179.304	-38.23
179.524	-13.65
179.744	33.45
179.964	35.5
180.184	-71
180.404	-25.94
180.624	-34.13
180.844	15.02
181.064	41.64
181.283	6.83
181.503	25.26
181.723	25.26
181.943	-30.04
182.163	-5.46
182.383	39.59
182.602	55.98
182.822	49.83
183.042	-19.8
183.262	58.03
183.482	27.31
183.701	-21.85
183.921	35.5
184.141	-71
184.361	4.78
184.58	43.69
184.8	51.88
185.02	47.79
185.239	49.83
185.459	19.11
185.679	-19.8
185.898	23.21
186.118	4.78
186.338	19.11
186.557	-1.37
186.777	43.69
186.997	6.83
187.216	60.07
187.436	19.11
187.655	4.78
187.875	25.26
188.095	43.69
188.314	29.35
188.534	74.41
188.753	64.17
188.973	127.66
189.192	35.5
189.412	51.88
189.631	-7.51
189.851	27.31
190.07	2.73
190.29	-40.28
190.509	19.11
190.729	2.73
190.948	17.07
191.168	23.21
191.387	-32.08
191.607	8.87
191.826	-36.18
192.045	49.83
192.265	10.92
192.484	47.79
192.704	-15.7
192.923	21.16
193.142	58.03
193.362	33.45
193.581	98.99
193.8	68.27
194.02	62.12
194.239	37.55
194.458	8.87
194.678	6.83
194.897	6.83
195.116	33.45
195.335	35.5
195.555	-44.37
195.774	-15.7
195.993	4.78
196.212	29.35
196.432	-3.41
196.651	2.73
196.87	17.07
197.089	-13.65
197.308	23.21
197.528	21.16
197.747	41.64
197.966	21.16
198.185	0.68
198.404	53.93
198.623	-3.41
198.842	10.92
199.062	131.75
199.281	6.83
199.5	19.11
199.719	51.88
199.938	-27.99
200.157	68.27
200.376	115.37
200.595	-7.51
200.814	-23.89
201.033	17.07
201.252	0.68
201.471	35.5
201.69	12.97
201.909	51.88
202.128	29.35
202.347	66.22
202.566	53.93
202.785	8.87
203.004	-21.85
203.223	33.45
203.442	68.27
203.661	-1.37
203.879	-11.61
204.098	27.31
204.317	-11.61
204.536	74.41
204.755	-7.51
204.974	21.16
205.193	78.51
205.411	10.92
205.63	-15.7
205.849	37.55
206.068	17.07
206.287	-38.23
206.505	-23.89
206.724	49.83
206.943	41.64
207.162	6.83
207.381	29.35
207.599	55.98
207.818	8.87
208.037	37.55
208.255	66.22
208.474	51.88
208.693	45.74
208.911	70.31
209.13	-13.65
209.349	33.45
209.567	-7.51
209.786	43.69
210.005	58.03
210.223	74.41
210.442	4.78
210.661	35.5
210.879	2.73
211.098	10.92
211.316	27.31
211.535	62.12
211.753	-9.56
211.972	29.35
212.191	58.03
212.409	43.69
212.628	-44.37
212.846	-40.28
213.065	49.83
213.283	-5.46
213.502	33.45
213.72	19.11
213.938	-9.56
214.157	123.56
214.375	4.78
214.594	58.03
214.812	31.4
215.031	33.45
215.249	-58.71
215.467	31.4
215.686	0.68
215.904	113.32
216.122	0.68
216.341	17.07
216.559	15.02
216.778	6.83
216.996	23.21
217.214	10.92
217.432	62.12
217.651	4.78
217.869	53.93
218.087	17.07
218.306	12.97
218.524	31.4
218.742	-44.37
218.96	10.92
219.179	-32.08
219.397	25.26
219.615	76.46
219.833	15.02
220.051	72.36
220.27	90.79
220.488	60.07
220.706	19.11
220.924	82.6
221.142	51.88
221.36	15.02
221.578	29.35
221.796	33.45
222.015	27.31
222.233	10.92
222.451	53.93
222.669	-58.71
222.887	103.08
223.105	53.93
223.323	15.02
223.541	49.83
223.759	-9.56
223.977	-11.61
224.195	135.85
224.413	-11.61
224.631	-15.7
224.849	68.27
225.067	21.16
225.285	-56.66
225.503	51.88
225.721	-60.76
225.939	-25.94
226.157	68.27
226.375	72.36
226.592	29.35
226.81	-58.71
227.028	10.92
227.246	29.35
227.464	68.27
227.682	-11.61
227.9	-13.65
228.117	64.17
228.335	146.09
228.553	-38.23
228.771	19.11
228.989	33.45
229.206	-19.8
229.424	66.22
229.642	-15.7
229.86	41.64
230.077	35.5
230.295	103.08
230.513	-15.7
230.731	0.68
230.948	49.83
231.166	33.45
231.384	-5.46
231.601	12.97
231.819	-21.85
232.037	45.74
232.254	-15.7
232.472	90.79
232.689	-15.7
232.907	10.92
233.125	49.83
233.342	-7.51
233.56	-42.32
233.777	41.64
233.995	51.88
234.213	70.31
234.43	17.07
234.648	39.59
234.865	-11.61
235.083	0.68
235.3	2.73
235.518	39.59
235.735	43.69
235.953	51.88
236.17	15.02
236.388	-30.04
236.605	-9.56
236.822	43.69
237.04	-27.99
237.257	-1.37
237.475	25.26
237.692	17.07
237.909	-17.75
238.127	43.69
238.344	12.97
238.562	66.22
238.779	-5.46
238.996	8.87
239.214	12.97
239.431	-44.37
239.648	29.35
239.865	-34.13
240.083	-15.7
240.3	-36.18
240.517	37.55
240.735	-58.71
240.952	53.93
241.169	68.27
241.386	21.16
241.603	37.55
241.821	58.03
242.038	17.07
242.255	58.03
242.472	-30.04
242.689	6.83
242.907	68.27
243.124	27.31
243.341	29.35
243.558	19.11
243.775	-7.51
243.992	-109.91
244.209	37.55
244.426	35.5
244.643	12.97
244.86	31.4
245.078	53.93
245.295	37.55
245.512	86.7
245.729	27.31
245.946	8.87
246.163	41.64
246.38	76.46
246.597	-32.08
246.814	-7.51
247.031	-48.47
247.248	68.27
247.464	8.87
247.681	41.64
247.898	-19.8
248.115	92.84
248.332	35.5
248.549	47.79
248.766	31.4
248.983	-3.41
249.2	-38.23
249.417	21.16
249.633	35.5
249.85	66.22
250.067	55.98
250.284	51.88
250.501	0.68
250.717	45.74
250.934	51.88
251.151	94.89
251.368	2.73
251.585	55.98
251.801	-13.65
252.018	58.03
252.235	6.83
252.451	-27.99
252.668	72.36
252.885	2.73
253.102	43.69
253.318	0.68
253.535	-3.41
253.752	4.78
253.968	-15.7
254.185	27.31
254.401	78.51
254.618	29.35
254.835	19.11
255.051	41.64
255.268	-40.28
255.484	4.78
255.701	27.31
255.917	66.22
256.134	41.64
256.351	-5.46
256.567	-44.37
256.784	10.92
257	70.31
257.217	-1.37
257.433	51.88
257.65	51.88
257.866	103.08
258.082	45.74
258.299	-32.08
258.515	92.84
258.732	-32.08
258.948	45.74
259.165	21.16
259.381	45.74
259.597	-19.8
259.814	58.03
260.03	10.92
260.246	66.22
260.463	45.74
260.679	33.45
260.895	0.68
261.112	74.41
261.328	45.74
261.544	47.79
261.761	6.83
261.977	25.26
262.193	37.55
262.409	68.27
262.626	53.93
262.842	49.83
263.058	41.64
263.274	4.78
263.49	51.88
263.707	60.07
263.923	-48.47
264.139	4.78
264.355	27.31
264.571	35.5
264.787	-9.56
265.004	31.4
265.22	60.07
265.436	39.59
265.652	-17.75
265.868	103.08
266.084	84.65
266.3	29.35
266.516	27.31
266.732	6.83
266.948	21.16
267.164	35.5
267.38	74.41
267.596	45.74
267.812	76.46
268.028	15.02
268.244	66.22
268.46	84.65
268.676	62.12
268.892	-21.85
269.108	117.42
269.324	84.65
269.54	12.97
269.756	25.26
269.972	25.26
270.188	-50.52
270.403	-5.46
270.619	-7.51
270.835	19.11
271.051	49.83
271.267	8.87
271.483	37.55
271.698	33.45
271.914	66.22
272.13	-11.61
272.346	-13.65
272.562	53.93
272.777	103.08
272.993	-9.56
273.209	45.74
273.425	-9.56
273.64	31.4
273.856	-13.65
274.072	103.08
274.287	33.45
274.503	10.92
274.719	17.07
274.934	47.79
275.15	66.22
275.366	15.02
275.581	90.79
275.797	90.79
276.012	21.16
276.228	49.83
276.444	88.75
276.659	109.22
276.875	23.21
277.09	-114
277.306	-46.42
277.521	43.69
277.737	35.5
277.952	60.07
278.168	129.7
278.383	107.18
278.599	-15.7
278.814	51.88
279.03	-13.65
279.245	88.75
279.461	49.83
279.676	4.78
279.892	15.02
280.107	2.73
280.322	15.02
280.538	103.08
280.753	35.5
280.969	-15.7
281.184	62.12
281.399	62.12
281.615	25.26
281.83	25.26
282.045	25.26
282.26	-1.37
282.476	-34.13
282.691	62.12
282.906	-48.47
283.122	68.27
283.337	-38.23
283.552	-40.28
283.767	10.92
283.983	15.02
284.198	35.5
284.413	25.26
284.628	15.02
284.843	17.07
285.058	78.51
285.274	23.21
285.489	2.73
285.704	66.22
285.919	2.73
286.134	-30.04
286.349	23.21
286.564	21.16
286.779	25.26
286.995	92.84
287.21	51.88
287.425	49.83
287.64	49.83
287.855	115.37
288.07	-50.52
288.285	25.26
288.5	51.88
288.715	-15.7
288.93	-1.37
289.145	51.88
289.36	86.7
289.575	31.4
289.79	23.21
290.004	90.79
290.219	90.79
290.434	17.07
290.649	-52.56
290.864	6.83
291.079	21.16
291.294	2.73
291.509	-27.99
291.724	-15.7
291.938	68.27
292.153	35.5
292.368	-15.7
292.583	10.92
292.798	55.98
293.012	8.87
293.227	-13.65
293.442	8.87
293.657	88.75
293.871	109.22
294.086	74.41
294.301	35.5
294.516	60.07
294.73	15.02
294.945	41.64
295.16	12.97
295.374	21.16
295.589	51.88
295.804	6.83
296.018	-13.65
296.233	74.41
296.447	72.36
296.662	19.11
296.877	68.27
297.091	33.45
297.306	31.4
297.52	10.92
297.735	19.11
297.949	39.59
298.164	19.11
298.378	4.78
298.593	2.73
298.807	37.55
299.022	49.83
299.236	27.31
299.451	-15.7
299.665	-5.46
299.88	45.74
300.094	-38.23
300.309	76.46
300.523	41.64
300.737	17.07
300.952	41.64
301.166	-46.42
301.381	8.87
301.595	41.64
301.809	-7.51
302.024	82.6
302.238	-64.85
302.452	51.88
302.667	-52.56
302.881	70.31
303.095	-15.7
303.309	58.03
303.524	-25.94
303.738	39.59
303.952	17.07
304.166	45.74
304.381	-11.61
304.595	-11.61
304.809	68.27
305.023	47.79
305.237	-19.8
305.452	-13.65
305.666	-11.61
305.88	45.74
306.094	21.16
306.308	43.69
306.522	33.45
306.736	47.79
306.95	25.26
307.164	49.83
307.379	-32.08
307.593	51.88
307.807	98.99
308.021	29.35
308.235	58.03
308.449	37.55
308.663	-9.56
308.877	60.07
309.091	12.97
309.305	55.98
309.519	107.18
309.733	80.55
309.947	25.26
310.161	4.78
310.374	64.17
310.588	58.03
310.802	-3.41
311.016	17.07
311.23	-23.89
311.444	58.03
311.658	119.46
311.872	84.65
312.085	47.79
312.299	47.79
312.513	51.88
312.727	-30.04
312.941	43.69
313.154	86.7
313.368	23.21
313.582	51.88
313.796	4.78
314.009	101.03
314.223	68.27
314.437	68.27
314.651	-56.66
314.864	86.7
315.078	49.83
315.292	80.55
315.505	49.83
315.719	43.69
315.933	37.55
316.146	72.36
316.36	31.4
316.573	68.27
316.787	-11.61
317.001	-13.65
317.214	47.79
317.428	70.31
317.641	33.45
317.855	-5.46
318.068	-13.65
318.282	84.65
318.495	109.22
318.709	78.51
318.922	0.68
319.136	60.07
319.349	58.03
319.563	74.41
319.776	131.75
319.99	49.83
320.203	41.64
320.417	37.55
320.63	25.26
320.843	23.21
321.057	-50.52
321.27	23.21
321.483	45.74
321.697	76.46
321.91	-11.61
322.124	47.79
322.337	25.26
322.55	-32.08
322.763	74.41
322.977	25.26
323.19	-5.46
323.403	58.03
323.617	55.98
323.83	66.22
324.043	17.07
324.256	74.41
324.469	0.68
324.683	78.51
324.896	12.97
325.109	64.17
325.322	31.4
325.535	27.31
325.748	49.83
325.962	109.22
326.175	45.74
326.388	66.22
326.601	90.79
326.814	43.69
327.027	27.31
327.24	88.75
327.453	-17.75
327.666	-23.89
327.879	2.73
328.092	45.74
328.305	-11.61
328.518	62.12
328.731	19.11
328.944	66.22
329.157	-11.61
329.37	29.35
329.583	129.7
329.796	107.18
330.009	-11.61
330.222	90.79
330.435	49.83
330.648	-9.56
330.861	-1.37
331.073	66.22
331.286	29.35
331.499	45.74
331.712	76.46
331.925	76.46
332.138	-56.66
332.35	-1.37
332.563	0.68
332.776	27.31
332.989	21.16
333.202	21.16
333.414	12.97
333.627	27.31
333.84	31.4
334.053	-30.04
334.265	31.4
334.478	19.11
334.691	-32.08
334.903	58.03
335.116	51.88
335.329	60.07
335.541	19.11
335.754	27.31
335.966	84.65
336.179	53.93
336.392	6.83
336.604	86.7
336.817	45.74
337.029	74.41
337.242	19.11
337.454	43.69
337.667	29.35
337.88	58.03
338.092	-34.13
338.305	101.03
338.517	41.64
338.729	76.46
338.942	51.88
339.154	66.22
339.367	-17.75
339.579	119.46
339.792	47.79
340.004	92.84
340.217	17.07
340.429	53.93
340.641	25.26
340.854	17.07
341.066	35.5
341.278	17.07
341.491	17.07
341.703	-19.8
341.915	17.07
342.128	76.46
342.34	-15.7
342.552	-21.85
342.764	84.65
342.977	141.99
343.189	70.31
343.401	-13.65
343.613	19.11
343.826	17.07
344.038	70.31
344.25	41.64
344.462	72.36
344.674	41.64
344.886	66.22
345.099	17.07
345.311	19.11
345.523	33.45
345.735	21.16
345.947	-48.47
346.159	27.31
346.371	76.46
346.583	37.55
346.795	12.97
347.007	6.83
347.219	94.89
347.431	0.68
347.643	-40.28
347.855	19.11
348.067	31.4
348.279	-5.46
348.491	23.21
348.703	41.64
348.915	-5.46
349.127	31.4
349.339	41.64
349.551	47.79
349.763	19.11
349.975	-38.23
350.187	70.31
350.399	103.08
350.61	94.89
350.822	49.83
351.034	92.84
351.246	-36.18
351.458	19.11
351.669	84.65
351.881	66.22
352.093	12.97
352.305	35.5
352.517	41.64
352.728	-30.04
352.94	92.84
353.152	74.41
353.363	-5.46
353.575	-7.51
353.787	19.11
353.999	109.22
354.21	58.03
354.422	19.11
354.633	8.87
354.845	47.79
355.057	88.75
355.268	84.65
355.48	113.32
355.692	29.35
355.903	-25.94
356.115	60.07
356.326	-30.04
356.538	45.74
356.749	74.41
356.961	76.46
357.172	6.83
357.384	62.12
357.595	47.79
357.807	47.79
358.018	-5.46
358.23	37.55
358.441	62.12
358.653	-7.51
358.864	35.5
359.075	-3.41
359.287	19.11
359.498	109.22
359.709	0.68
359.921	76.46
360.132	53.93
360.344	53.93
360.555	78.51
360.766	35.5
360.977	2.73
361.189	10.92
361.4	-1.37
361.611	96.94
361.823	72.36
362.034	68.27
362.245	80.55
362.456	51.88
362.667	76.46
362.879	23.21
363.09	62.12
363.301	92.84
363.512	47.79
363.723	49.83
363.935	-5.46
364.146	117.42
364.357	39.59
364.568	109.22
364.779	49.83
364.99	-1.37
365.201	55.98
365.412	23.21
365.623	10.92
365.834	92.84
366.045	51.88
366.256	17.07
366.467	-17.75
366.678	82.6
366.889	0.68
367.1	17.07
367.311	58.03
367.522	84.65
367.733	27.31
367.944	72.36
368.155	-7.51
368.366	23.21
368.577	53.93
368.788	98.99
368.999	25.26
369.209	55.98
369.42	96.94
369.631	35.5
369.842	10.92
370.053	139.94
370.264	-13.65
370.474	41.64
370.685	-17.75
370.896	8.87
371.107	70.31
371.317	78.51
371.528	90.79
371.739	45.74
371.95	53.93
372.16	58.03
372.371	68.27
372.582	-13.65
372.792	66.22
373.003	12.97
373.214	49.83
373.424	64.17
373.635	37.55
373.846	101.03
374.056	4.78
374.267	27.31
374.477	125.61
374.688	66.22
374.898	60.07
375.109	21.16
375.319	127.66
375.53	60.07
375.74	2.73
375.951	62.12
376.161	49.83
376.372	15.02
376.582	12.97
376.793	76.46
377.003	10.92
377.214	64.17
377.424	33.45
377.635	84.65
377.845	86.7
378.055	31.4
378.266	66.22
378.476	17.07
378.686	41.64
378.897	41.64
379.107	82.6
379.317	33.45
379.528	62.12
379.738	150.18
379.948	17.07
380.158	86.7
380.369	-19.8
380.579	49.83
380.789	92.84
380.999	-21.85
381.21	72.36
381.42	-7.51
381.63	49.83
381.84	103.08
382.05	-19.8
382.261	58.03
382.471	96.94
382.681	-5.46
382.891	60.07
383.101	-19.8
383.311	60.07
383.521	68.27
383.731	49.83
383.941	66.22
384.151	58.03
384.361	55.98
384.571	78.51
384.781	86.7
384.991	19.11
385.201	25.26
385.411	53.93
385.621	60.07
385.831	2.73
386.041	27.31
386.251	49.83
386.461	90.79
386.671	47.79
386.881	17.07
387.091	117.42
387.301	17.07
387.511	90.79
387.72	68.27
387.93	53.93
388.14	47.79
388.35	72.36
388.56	109.22
388.769	25.26
388.979	66.22
389.189	-13.65
389.399	96.94
389.609	-23.89
389.818	119.46
390.028	64.17
390.238	68.27
390.447	133.8
390.657	156.33
390.867	58.03
391.076	17.07
391.286	96.94
391.496	115.37
391.705	70.31
391.915	41.64
392.125	-13.65
392.334	55.98
392.544	86.7
392.753	96.94
392.963	86.7
393.172	55.98
393.382	80.55
393.591	107.18
393.801	90.79
394.01	62.12
394.22	76.46
394.429	35.5
394.639	58.03
394.848	111.27
395.058	101.03
395.267	113.32
395.477	127.66
395.686	103.08
395.895	90.79
396.105	96.94
396.314	90.79
396.524	121.51
396.733	25.26
396.942	117.42
397.152	64.17
397.361	96.94
397.57	117.42
397.78	107.18
397.989	90.79
398.198	94.89
398.407	103.08
398.617	117.42
398.826	107.18
399.035	66.22
399.244	86.7
399.453	96.94
399.663	201.38
399.872	101.03
400.081	68.27
400.29	86.7
400.499	0.68
400.708	111.27
400.917	25.26
401.127	178.86
401.336	27.31
401.545	139.94
401.754	168.62
401.963	123.56
402.172	86.7
402.381	58.03
402.59	37.55
402.799	156.33
403.008	105.13
403.217	168.62
403.426	125.61
403.635	125.61
403.844	121.51
404.053	74.41
404.262	109.22
404.471	166.57
404.68	98.99
404.888	141.99
405.097	131.75
405.306	117.42
405.515	174.76
405.724	137.9
405.933	199.34
406.142	101.03
406.35	242.34
406.559	160.42
406.768	197.29
406.977	238.25
407.185	199.34
407.394	195.24
407.603	193.19
407.812	174.76
408.02	266.92
408.229	203.43
408.438	185
408.646	279.21
408.855	297.64
409.064	252.58
409.272	293.54
409.481	367.27
409.69	225.96
409.898	303.78
410.107	279.21
410.315	228.01
410.524	342.69
410.733	328.36
410.941	293.54
411.15	363.17
411.358	289.45
411.567	387.75
411.775	365.22
411.984	408.23
412.192	453.28
412.401	447.14
412.609	438.95
412.818	545.44
413.026	449.19
413.234	535.2
413.443	559.78
413.651	645.79
413.86	475.81
414.068	527.01
414.276	570.02
414.485	594.59
414.693	610.98
414.901	658.08
415.11	686.75
415.318	678.56
415.526	682.66
415.734	748.19
415.943	717.47
416.151	815.77
416.359	819.87
416.567	799.39
416.776	852.64
416.984	866.97
417.192	903.84
417.4	942.75
417.608	1014.43
417.817	1032.86
418.025	1118.87
418.233	1110.68
418.441	1161.88
418.649	1198.74
418.857	1274.52
419.065	1280.66
419.273	1319.57
419.481	1254.04
419.689	1460.88
419.897	1426.07
420.105	1518.23
420.313	1528.47
420.521	1614.48
420.729	1534.61
420.937	1682.06
421.145	1671.83
421.353	1880.72
421.561	1845.9
421.769	1958.54
421.977	2048.65
422.185	1897.1
422.393	2028.17
422.601	2189.96
422.809	2237.06
423.017	2198.15
423.224	2372.23
423.432	2417.29
423.64	2464.39
423.848	2634.37
424.056	2458.25
424.263	2810.5
424.471	2777.73
424.679	2790.02
424.887	3113.6
425.094	3142.27
425.302	3121.79
425.51	3213.95
425.718	3383.93
425.925	3494.52
426.133	3465.85
426.341	3570.29
426.548	3791.47
426.756	3660.4
426.964	3840.62
427.171	4106.86
427.379	4260.46
427.586	4287.08
427.794	4289.13
428.001	4581.99
428.209	4778.59
428.417	4770.4
428.624	4889.18
428.832	4987.49
429.039	5116.51
429.247	4893.28
429.454	5425.75
429.662	5884.5
429.869	5491.29
430.076	5878.35
430.284	5761.62
430.491	6054.48
430.699	6230.6
430.906	6443.59
431.114	6359.63
431.321	6570.57
431.528	6900.29
431.736	6885.95
431.943	7596.6
432.15	7248.44
432.358	7141.95
432.565	7668.28
432.772	7770.68
432.979	8137.26
433.187	8362.54
433.394	8354.35
433.601	8741.41
433.808	8806.95
434.016	8806.95
434.223	9280.03
434.43	9757.21
434.637	9538.07
434.844	10152.46
435.052	10240.53
435.259	10168.85
435.466	10400.27
435.673	10316.3
435.88	10924.55
436.087	11618.81
436.294	11538.94
436.501	11309.57
436.708	11579.9
436.915	11958.77
437.122	12345.84
437.329	12345.84
437.537	12780.01
437.743	13113.83
437.95	12880.36
438.157	13562.33
438.364	14074.32
438.571	14006.74
438.778	13982.17
438.985	15264.19
439.192	14518.73
439.399	15018.44
439.606	14721.48
439.813	15593.92
440.02	16658.86
440.227	16257.46
440.433	16073.14
440.64	16699.82
440.847	16617.9
441.054	17007.02
441.261	18147.73
441.467	17973.66
441.674	18221.46
441.881	18954.63
442.088	18862.47
442.294	18682.25
442.501	19204.49
442.708	19755.39
442.914	20433.27
443.121	21242.21
443.328	20808.05
443.534	22165.85
443.741	21287.27
443.948	21072.23
444.154	22700.37
444.361	22473.04
444.568	23021.9
444.774	22972.75
444.981	22896.97
445.187	23515.46
445.394	24985.9
445.6	24385.85
445.807	27001.1
446.013	25506.09
446.22	26013.98
446.426	26980.62
446.633	26878.22
446.839	28172.54
447.046	27031.82
447.252	28358.91
447.459	28594.42
447.665	28254.46
447.871	29440.23
448.078	30929.11
448.284	29343.98
448.491	30347.48
448.697	31629.51
448.903	31860.93
449.11	31959.24
449.316	31363.28
449.522	31836.36
449.728	32731.32
449.935	33269.93
450.141	32876.72
450.347	34199.71
450.553	32932.02
450.76	33159.34
450.966	34031.78
451.172	33562.79
451.378	34781.34
451.584	33949.86
451.791	35145.87
451.997	34873.49
452.203	35575.95
452.409	35172.5
452.615	34955.41
452.821	33931.43
453.027	33304.75
453.233	35125.39
453.44	34085.03
453.646	34273.44
453.852	34168.99
454.058	34773.14
454.264	34076.83
454.47	34652.31
454.676	33894.57
454.882	34826.39
455.088	31715.53
455.294	32551.1
455.5	32952.5
455.705	33161.39
455.911	32018.63
456.117	30931.15
456.323	30773.46
456.529	29126.89
456.735	30660.82
456.941	29638.89
457.147	29198.57
457.352	28571.89
457.558	27869.44
457.764	28213.5
457.97	27248.91
458.176	26618.13
458.381	26767.63
458.587	25862.43
458.793	25510.18
458.999	24410.42
459.204	25889.06
459.41	25450.79
459.616	23679.3
459.821	23746.88
460.027	23654.72
460.233	23144.78
460.438	21862.75
460.644	22317.4
460.85	21256.55
461.055	20687.22
461.261	20812.14
461.466	19505.54
461.672	18479.5
461.878	20234.61
462.083	18712.97
462.289	18446.74
462.494	18241.94
462.7	17861.02
462.905	16953.77
463.111	17564.06
463.316	17631.65
463.522	17342.88
463.727	17498.53
463.932	17379.75
464.138	17043.88
464.343	17080.74
464.549	16535.98
464.754	17443.23
464.959	17152.42
465.165	17191.33
465.37	16472.5
465.575	16040.37
465.781	16540.08
465.986	16470.45
466.191	16064.95
466.397	15659.45
466.602	14985.67
466.807	15286.72
467.012	15661.5
467.218	15460.8
467.423	15051.21
467.628	15280.58
467.833	16134.58
468.038	15458.75
468.244	14903.75
468.449	15704.51
468.654	15049.16
468.859	14801.35
469.064	14793.16
469.269	14186.96
469.474	14533.07
469.679	14844.36
469.885	14082.52
470.09	14485.97
470.295	14281.17
470.5	13992.41
470.705	14107.09
470.91	13760.98
471.115	13621.72
471.32	13685.21
471.525	13795.8
471.73	13392.35
471.935	13195.75
472.139	13009.38
472.344	12999.14
472.549	13087.2
472.754	12937.7
472.959	12296.69
473.164	12481
473.369	12077.55
473.574	12612.07
473.778	12468.72
473.983	12358.13
474.188	12378.61
474.393	11895.29
474.598	11926
474.802	11647.48
475.007	11586.04
475.212	11624.95
475.417	11282.94
475.621	11166.21
475.826	11207.17
476.031	11084.29
476.235	10750.47
476.44	11096.58
476.645	10775.05
476.849	11061.76
477.054	10492.43
477.259	10560.01
477.463	10426.89
477.668	10283.53
477.872	10430.99
478.077	10095.12
478.282	9974.29
478.486	9898.52
478.691	9867.8
478.895	9638.42
479.1	9744.92
479.304	9681.43
479.509	9366.04
479.713	9642.52
479.918	9595.42
480.122	9368.09
480.326	9409.05
480.531	9515.55
480.735	9353.76
480.94	9101.86
481.144	9474.59
481.348	8923.68
481.553	9044.51
481.757	8882.72
481.961	9048.61
482.166	9216.54
482.37	9087.52
482.574	9228.83
482.778	9044.51
482.983	9323.04
483.187	8972.83
483.391	9234.97
483.595	9042.46
483.8	8997.41
484.004	8823.33
484.208	8974.88
484.412	8907.3
484.616	8956.45
484.821	8901.15
485.025	8878.63
485.229	9013.79
485.433	8913.44
485.637	8972.83
485.841	9064.99
486.045	8913.44
486.249	8874.53
486.453	8731.17
486.657	9019.94
486.861	9009.7
487.065	8813.09
487.269	9230.88
487.473	8696.36
487.677	8761.89
487.881	8940.07
488.085	8972.83
488.289	9155.1
488.493	9075.23
488.697	9069.09
488.901	9054.75
489.105	9087.52
489.309	9077.28
489.512	9097.76
489.716	9040.42
489.92	8933.92
490.124	9214.49
490.328	9314.84
490.531	9257.5
490.735	9466.39
490.939	9257.5
491.143	9351.71
491.346	9284.12
491.55	9386.52
491.754	9257.5
491.958	9587.22
492.161	9415.19
492.365	9503.26
492.569	9558.55
492.772	9675.29
492.976	9497.11
493.18	9767.45
493.383	9857.56
493.587	9826.84
493.79	9982.48
493.994	9654.81
494.197	9949.71
494.401	10162.7
494.605	9992.72
494.808	10299.92
495.012	10144.27
495.215	10357.26
495.419	10324.49
495.622	10406.41
495.825	10715.66
496.029	10500.62
496.232	10975.75
496.436	10918.4
496.639	10865.16
496.843	10955.27
497.046	11254.27
497.249	11297.28
497.453	11340.29
497.656	11586.04
497.859	11586.04
498.063	11444.73
498.266	12085.75
498.469	11815.41
498.673	12192.24
498.876	12124.66
499.079	12503.53
499.282	12343.79
499.485	12593.64
499.689	12698.09
499.892	12952.04
500.095	13019.62
500.298	13226.46
500.501	13109.73
500.705	13423.07
500.908	13986.26
501.111	13937.11
501.314	13955.54
501.517	14037.46
501.72	14150.1
501.923	14285.26
502.126	14617.04
502.329	14881.22
502.532	15053.25
502.735	15047.11
502.938	15403.46
503.141	15495.61
503.344	15778.23
503.547	15622.59
503.75	15907.26
503.953	16384.43
504.156	16507.31
504.359	16499.12
504.562	17043.88
504.765	17361.31
504.968	17375.65
505.17	17521.06
505.373	17523.1
505.576	17944.98
505.779	18035.1
505.982	18121.11
506.185	18706.83
506.387	18739.6
506.59	18690.45
506.793	19157.38
506.996	19245.44
507.198	19882.36
507.401	19792.25
507.604	19945.85
507.807	20482.42
508.009	20629.87
508.212	20687.22
508.415	21291.37
508.617	21428.58
508.82	21449.06
509.022	21404
509.225	22116.7
509.428	22182.23
509.63	22268.25
509.833	22448.47
510.035	23253.32
510.238	23290.18
510.44	23482.69
510.643	24162.62
510.845	24299.83
511.048	24133.95
511.25	24512.82
511.453	24914.22
511.655	25614.63
511.858	25233.71
512.06	25631.01
512.262	26022.17
512.465	26198.3
512.667	26571.03
512.87	26904.85
513.072	26960.14
513.274	27326.73
513.477	27574.53
513.679	27990.27
513.881	28309.75
514.084	28887.28
514.286	28367.1
514.488	29036.78
514.69	30091.49
514.893	29931.75
515.095	29997.28
515.297	30556.38
515.499	30705.88
515.701	30912.72
515.904	31819.97
516.106	31641.8
516.308	31996.1
516.51	32358.59
516.712	32506.04
516.914	32956.6
517.116	33632.43
517.318	33659.05
517.52	33691.82
517.722	34005.16
517.925	34830.49
518.127	35278.99
518.329	35111.06
518.531	35479.69
518.733	35840.14
518.935	36421.76
519.136	36282.5
519.338	37017.72
519.54	37242.99
519.742	37777.51
519.944	37922.92
520.146	38078.57
520.348	38590.56
520.55	38834.27
520.752	39229.52
520.954	39665.74
521.155	39729.23
521.357	40390.72
521.559	40394.82
521.761	41115.7
521.963	40915
522.164	41271.35
522.366	41500.72
522.568	42033.19
522.77	42111.02
522.971	42592.29
523.173	42401.83
523.375	42741.79
523.576	43122.71
523.778	43171.86
523.98	44230.66
524.181	43776.01
524.383	44068.87
524.584	44980.22
524.786	44736.51
524.988	44554.24
525.189	45355
525.391	45234.17
525.592	45760.5
525.794	45750.26
525.995	46049.26
526.197	46237.67
526.398	46286.82
526.6	46563.3
526.801	46862.3
527.003	47372.25
527.204	46983.13
527.406	47398.87
527.607	47605.72
527.808	47984.59
528.01	46901.21
528.211	47970.25
528.412	48539.59
528.614	48281.55
528.815	48502.73
529.016	49258.43
529.218	48201.68
529.419	48699.33
529.62	48771.01
529.822	48744.39
530.023	49250.24
530.224	49145.79
530.425	49235.9
530.626	48762.82
530.828	49225.66
531.029	49749.94
531.23	49457.08
531.431	49569.72
531.632	49876.91
531.833	50022.32
532.035	49598.39
532.236	49838
532.437	50032.56
532.638	49825.71
532.839	49813.43
533.04	50542.5
533.241	49868.72
533.442	51011.49
533.643	50266.03
533.844	49942.45
534.045	50941.86
534.246	49848.24
534.447	50433.96
534.648	50073.52
534.849	50251.69
535.05	50421.67
535.251	50446.25
535.451	50335.66
535.652	50663.33
535.853	50755.49
536.054	50808.74
536.255	50495.4
536.456	49960.88
536.657	51271.58
536.857	50292.65
537.058	50104.24
537.259	50927.52
537.46	50546.6
537.66	50339.75
537.861	50769.83
538.062	50730.92
538.263	51081.12
538.463	50593.7
538.664	50444.2
538.865	50534.31
539.065	51058.59
539.266	50737.06
539.466	50988.96
539.667	49864.63
539.868	51068.83
540.068	50577.32
540.269	50522.02
540.469	50364.33
540.67	49911.73
540.87	50761.64
541.071	50720.68
541.271	50833.31
541.472	50300.84
541.672	50423.72
541.873	50380.71
542.073	49964.98
542.274	50837.41
542.474	50274.22
542.675	49780.66
542.875	50646.95
543.075	50761.64
543.276	49786.8
543.476	50464.68
543.676	50368.43
543.877	50579.37
544.077	50915.23
544.277	50503.59
544.478	50620.33
544.678	50694.05
544.878	50380.71
545.078	51173.28
545.279	50409.39
545.479	50515.88
545.679	50470.82
545.879	50714.53
546.079	50331.56
546.28	50075.57
546.48	50001.84
546.68	50628.52
546.88	50708.39
547.08	50388.91
547.28	50220.97
547.48	49991.6
547.68	50161.58
547.88	49561.53
548.081	50495.4
548.281	50274.22
548.481	49999.79
548.681	50673.57
548.881	50436.01
549.081	50284.46
549.28	50001.84
549.48	50548.65
549.68	49610.68
549.88	50847.65
550.08	50096.05
550.28	50507.69
550.48	50028.46
550.68	50667.43
550.88	50016.18
551.08	50225.07
551.279	50243.5
551.479	49977.26
551.679	50214.83
551.879	49932.21
552.079	50192.3
552.278	49780.66
552.478	49960.88
552.678	49950.64
552.878	49940.4
553.077	49782.71
553.277	49487.8
553.477	50343.85
553.676	49612.73
553.876	50186.16
554.076	49381.31
554.275	49733.56
554.475	49651.64
554.674	50116.53
554.874	49745.84
555.074	49420.22
555.273	49903.54
555.473	49743.8
555.672	49309.63
555.872	49199.04
556.071	49493.94
556.271	49700.79
556.47	49375.16
556.67	48668.61
556.869	49512.38
557.068	49514.42
557.268	48834.5
557.467	48961.47
557.667	49385.4
557.866	49393.59
558.065	49502.14
558.265	48732.1
558.464	48674.76
558.663	49196.99
558.863	48107.47
559.062	49225.66
559.261	48357.32
559.461	48994.24
559.66	47876.05
559.859	48412.62
560.058	48152.52
560.258	48699.33
560.457	48000.97
560.656	48562.12
560.855	48375.75
561.054	48113.61
561.253	47869.9
561.453	48179.15
561.652	48265.16
561.851	48439.24
562.05	48009.17
562.249	47423.45
562.448	48357.32
562.647	47902.67
562.846	47564.76
563.045	47583.19
563.244	47083.48
563.443	48349.13
563.642	47183.83
563.841	47654.87
564.04	47380.44
564.239	47656.92
564.438	46563.3
564.637	47161.31
564.836	47482.84
565.035	46360.55
565.234	47079.39
565.432	47116.25
565.631	46694.37
565.83	47134.68
566.029	46841.82
566.228	46391.27
566.427	46876.64
566.625	45940.72
566.824	45955.05
567.023	46776.29
567.222	45723.63
567.42	46948.32
567.619	46182.38
567.818	45656.05
568.016	45697.01
568.215	46241.77
568.414	45682.67
568.612	46118.89
568.811	45586.42
569.01	45615.09
569.208	44474.37
569.407	45567.99
569.605	44652.55
569.804	45414.39
570.002	44849.15
570.201	45424.63
570.4	44716.03
570.598	44673.03
570.797	44515.33
570.995	44566.53
571.193	43995.15
571.392	44570.63
571.59	44072.97
571.789	44318.73
571.987	44120.07
572.186	44130.31
572.384	44177.42
572.582	43788.3
572.781	43726.86
572.979	43360.28
573.177	43360.28
573.376	43509.78
573.574	43073.56
573.772	43218.97
573.971	43184.15
574.169	42352.68
574.367	42668.06
574.565	42586.14
574.763	42889.24
574.962	42367.01
575.16	42080.3
575.358	42043.43
575.556	41852.97
575.754	42336.29
575.952	41623.6
576.151	42508.32
576.349	41490.48
576.547	41979.95
576.745	41803.82
576.943	41355.32
577.141	41375.8
577.339	41175.09
577.537	41322.55
577.735	41015.35
577.933	40671.29
578.131	40978.49
578.329	40421.44
578.527	40171.59
578.725	40437.83
578.923	40423.49
579.121	40220.74
579.319	39921.74
579.516	40499.26
579.714	40038.47
579.912	39757.9
580.11	39598.16
580.308	40067.14
580.506	39602.25
580.704	38858.84
580.901	39639.12
581.099	39684.17
581.297	39250
581.495	38813.79
581.692	38994.01
581.89	38867.03
582.088	39022.68
582.285	38500.45
582.483	38703.2
582.681	38563.93
582.878	38150.24
583.076	37865.58
583.274	38332.51
583.471	37865.58
583.669	38205.54
583.866	37603.44
584.064	37677.16
584.262	37660.78
584.459	38025.32
584.657	37460.08
584.854	37464.17
585.052	37019.77
585.249	37240.95
585.447	37124.21
585.644	36644.99
585.841	36939.89
586.039	36933.75
586.236	36489.34
586.434	36384.9
586.631	36395.14
586.828	36122.76
587.026	36305.02
587.223	36161.67
587.42	35838.09
587.618	36001.93
587.815	35672.2
588.012	35668.11
588.21	35647.63
588.407	35655.82
588.604	35469.45
588.801	34967.7
588.999	35453.07
589.196	35207.31
589.393	34912.41
589.59	34914.45
589.787	34689.18
589.984	34916.5
590.182	34164.9
590.379	34341.02
590.576	34402.46
590.773	34244.77
590.97	34234.53
591.167	34511
591.364	33585.32
591.561	33974.44
591.758	33618.09
591.955	33661.1
592.152	33716.39
592.349	33269.93
592.546	33280.17
592.743	33566.89
592.94	32956.6
593.137	33368.24
593.334	32981.17
593.531	32923.83
593.727	33038.51
593.924	33263.79
594.121	32946.36
594.318	32581.82
594.515	32041.15
594.712	32686.26
594.908	32383.16
595.105	32616.63
595.302	32182.46
595.499	32415.93
595.696	31975.62
595.892	31838.4
596.089	32012.48
596.286	32065.73
596.482	31434.96
596.679	31545.55
596.876	31750.34
597.072	31434.96
597.269	31504.59
597.466	31195.34
597.662	31305.93
597.859	31043.79
598.055	31129.81
598.252	31260.88
598.448	30775.51
598.645	30824.66
598.841	30494.94
599.038	30339.29
599.234	30492.89
599.431	30298.33
599.627	30343.39
599.824	30562.52
600.02	30200.03
600.217	29962.47
600.413	29929.7
600.609	29622.5
600.806	29499.62
601.002	30021.86
601.198	29436.14
601.395	29460.71
601.591	29307.12
601.787	29325.55
601.984	29079.79
602.18	29253.87
602.376	29049.07
602.572	29024.5
602.769	28707.06
602.965	28528.89
603.161	28713.2
603.357	28342.52
603.553	28223.74
603.75	28602.61
603.946	28127.49
604.142	28645.62
604.338	27832.58
604.534	28123.39
604.73	27498.76
604.926	27785.47
605.122	27830.53
605.318	27961.6
605.514	27459.85
605.71	27633.92
605.906	27328.78
606.102	27228.43
606.298	27291.91
606.494	27382.02
606.69	27302.15
606.886	27341.07
607.082	26706.2
607.278	27019.53
607.474	26497.3
607.67	26986.77
607.866	26333.46
608.062	26591.51
608.257	26390.81
608.453	26073.37
608.649	26378.52
608.845	26126.62
609.041	26167.58
609.236	26448.15
609.432	25757.99
609.628	26013.98
609.824	25876.77
610.019	25665.83
610.215	25745.7
610.411	25649.44
610.606	25106.73
610.802	25483.56
610.998	25383.21
611.193	25301.29
611.389	25432.36
611.584	25340.2
611.78	24848.69
611.976	25235.75
612.171	24877.36
612.367	24820.02
612.562	24930.61
612.758	24373.56
612.953	24441.14
613.149	24815.92
613.344	24506.68
613.539	24975.66
613.735	24660.27
613.93	24609.08
614.126	24312.12
614.321	24510.77
614.517	24193.34
614.712	24041.79
614.907	24289.59
615.103	24224.06
615.298	23671.11
615.493	24037.69
615.688	23605.57
615.884	24060.22
616.079	23671.11
616.274	23845.18
616.47	23613.76
616.665	23873.85
616.86	23372.1
617.055	23574.85
617.25	23415.11
617.445	23425.35
617.641	22804.81
617.836	23132.49
618.031	22944.08
618.226	22980.94
618.421	22778.19
618.616	23085.39
618.811	22550.87
619.006	22892.88
619.201	22507.86
619.396	22565.2
619.591	22260.06
619.786	22245.72
619.981	21844.32
620.176	22155.61
620.371	21815.65
620.566	21987.68
620.761	21543.27
620.956	21870.94
621.151	21242.21
621.346	21569.89
621.541	20879.72
621.735	21260.65
621.93	20750.7
622.125	21090.66
622.32	21078.38
622.515	21025.13
622.709	20494.71
622.904	20640.11
623.099	20390.26
623.294	20400.5
623.488	20271.48
623.683	20103.54
623.878	19995
624.072	20187.51
624.267	19939.71
624.462	19880.32
624.656	19353.99
624.851	19612.03
625.046	19294.6
625.24	19286.4
625.435	19360.13
625.629	18993.54
625.824	18950.54
626.018	18983.31
626.213	18299.28
626.407	18844.04
626.602	18477.46
626.796	18366.87
626.991	18459.03
627.185	18254.23
627.38	18114.97
627.574	17963.42
627.768	17899.93
627.963	17752.48
628.157	17631.65
628.352	17572.25
628.546	17461.66
628.74	17715.61
628.935	17416.61
629.129	17349.03
629.323	17019.3
629.517	17177
629.712	17189.28
629.906	17123.75
630.1	16699.82
630.294	16781.74
630.489	16523.69
630.683	16634.28
630.877	16366
631.071	16437.68
631.265	16572.85
631.459	16474.54
631.653	16228.79
631.848	16302.51
632.042	16042.42
632.236	16087.48
632.43	15753.66
632.624	16087.48
632.818	15761.85
633.012	15532.48
633.206	15514.05
633.4	15772.09
633.594	15581.63
633.788	15333.82
633.982	15526.33
634.176	15284.67
634.369	15167.94
634.563	15129.03
634.757	15026.63
634.951	15235.52
635.145	14934.47
635.339	14981.57
635.533	14498.25
635.726	14485.97
635.92	14602.7
636.114	14631.37
636.308	14377.42
636.501	14289.36
636.695	14356.94
636.889	14272.98
637.083	14264.78
637.276	14326.22
637.47	13877.72
637.664	13775.32
637.857	13900.25
638.051	13898.2
638.244	13662.68
638.438	13654.49
638.632	13763.03
638.825	13558.24
639.019	13156.83
639.212	13455.84
639.406	13388.25
639.599	13128.16
639.793	13191.65
639.986	13029.86
640.18	12990.95
640.373	13011.43
640.567	12911.08
640.76	12730.86
640.954	12464.62
641.147	12675.56
641.34	12438
641.534	12665.32
641.727	12427.76
641.92	12431.85
642.114	12214.77
642.307	12413.42
642.5	12394.99
642.694	11948.53
642.887	12030.45
643.08	11848.18
643.273	11723.26
643.467	11782.65
643.66	11698.68
643.853	11534.84
644.046	11461.12
644.239	11301.37
644.432	11567.61
644.626	11430.4
644.819	11295.23
645.012	11352.57
645.205	11235.84
645.398	11379.2
645.591	10883.59
645.784	11162.11
645.977	10990.08
646.17	10891.78
646.363	10840.58
646.556	10596.87
646.749	10428.94
646.942	10637.83
647.135	10531.34
647.328	10596.87
647.521	10314.25
647.714	10369.55
647.907	10050.07
648.099	10103.31
648.292	10312.21
648.485	10037.78
648.678	10062.35
648.871	9912.85
649.064	9802.26
649.256	10068.5
649.449	9910.8
649.642	9888.28
649.835	9517.59
650.027	9798.17
650.22	9273.89
650.413	9407
650.605	9361.95
650.798	9439.77
650.991	9151.01
651.183	9329.18
651.376	9064.99
651.568	9245.21
651.761	9019.94
651.954	9075.23
652.146	9003.55
652.339	8890.92
652.531	9034.27
652.724	8872.48
652.916	8716.84
653.109	8643.11
653.301	8720.93
653.494	8573.48
653.686	8489.51
653.879	8499.75
654.071	8337.96
654.263	8198.7
654.456	8270.38
654.648	8462.89
654.84	8251.95
655.033	8206.89
655.225	8186.41
655.417	7942.71
655.61	8137.26
655.802	7875.12
655.994	7948.85
656.186	8012.34
656.379	7768.63
656.571	7895.6
656.763	7813.68
656.955	7639.61
657.148	7705.14
657.34	7647.8
657.532	7592.5
657.724	7451.19
657.916	7381.56
658.108	7516.73
658.3	7307.84
658.492	7350.84
658.684	7277.12
658.876	7035.46
659.068	7053.89
659.26	7141.95
659.452	7096.89
659.644	6914.63
659.836	6769.22
660.028	6879.81
660.22	6818.37
660.412	6699.59
660.604	6652.49
660.796	6642.25
660.988	6668.87
661.18	6556.23
661.372	6554.18
661.563	6492.74
661.755	6513.22
661.947	6265.42
662.139	6490.7
662.331	6273.61
662.522	6431.3
662.714	6306.38
662.906	6216.27
663.097	5974.61
663.289	6142.54
663.481	6003.28
663.673	6107.73
663.864	5911.12
664.056	5978.7
664.247	5894.74
664.439	5782.1
664.631	5868.11
664.822	5902.93
665.014	5796.43
665.205	5763.67
665.397	5655.12
665.588	5735
665.78	5612.12
665.971	5532.25
666.163	5507.67
666.354	5341.79
666.546	5427.8
666.737	5331.55
666.929	5503.57
667.12	5311.07
667.311	5370.46
667.503	5243.48
667.694	5384.79
667.885	5255.77
668.077	5169.76
668.268	5177.95
668.459	5284.44
668.651	5114.46
668.842	5020.25
669.033	5171.8
669.224	5012.06
669.416	5034.59
669.607	4825.7
669.798	4958.81
669.989	4926.05
670.18	4876.9
670.371	4942.43
670.563	4876.9
670.754	4848.22
670.945	4876.9
671.136	4741.73
671.327	4717.15
671.518	4647.52
671.709	4684.39
671.9	4715.11
672.091	4747.87
672.282	4647.52
672.473	4680.29
672.664	4627.04
672.855	4670.05
673.046	4565.6
673.237	4416.1
673.428	4446.82
673.619	4332.14
673.809	4360.81
674	4420.2
674.191	4455.01
674.382	4305.51
674.573	4401.77
674.764	4168.3
674.954	4348.52
675.145	4252.27
675.336	4336.23
675.527	4334.18
675.717	4295.27
675.908	4274.79
676.099	4147.82
676.289	4227.69
676.48	4330.09
676.671	4184.68
676.861	4182.63
677.052	4139.63
677.243	3994.22
677.433	4010.61
677.624	4123.24
677.814	4096.62
678.005	4014.7
678.195	4061.8
678.386	3908.21
678.576	3897.97
678.767	3932.78
678.957	3857.01
679.148	4039.28
679.338	3957.36
679.529	3854.96
679.719	3940.97
679.909	3967.6
680.1	3807.86
680.29	3900.02
680.481	3934.83
680.671	3754.61
680.861	3871.34
681.052	3721.84
681.242	3764.85
681.432	3859.06
681.622	3709.55
681.813	3670.64
682.003	3750.51
682.193	3834.48
682.383	3717.75
682.573	3697.27
682.764	3824.24
682.954	3840.62
683.144	3746.42
683.334	3621.49
683.524	3742.32
683.714	3693.17
683.904	3744.37
684.094	3617.4
684.284	3584.63
684.474	3486.33
684.664	3711.6
684.854	3639.92
685.044	3572.34
685.234	3555.96
685.424	3496.57
685.614	3545.72
685.804	3644.02
685.994	3359.35
686.184	3482.23
686.374	3648.11
686.564	3383.93
686.753	3527.28
686.943	3451.51
687.133	3627.64
687.323	3533.43
687.513	3474.04
687.702	3451.51
687.892	3566.2
688.082	3433.08
688.272	3402.36
688.461	3351.16
688.651	3408.5
688.841	3363.45
689.03	3392.12
689.22	3494.52
689.41	3388.02
689.599	3404.41
689.789	3373.69
689.979	3469.94
690.168	3402.36
690.358	3263.1
690.547	3265.14
690.737	3334.78
690.926	3342.97
691.116	3283.58
691.305	3574.39
691.495	3295.86
691.684	3369.59
691.874	3510.9
692.063	3474.04
692.252	3357.3
692.442	3420.79
692.631	3320.44
692.82	3326.58
693.01	3459.7
693.199	3295.86
693.388	3312.25
693.578	3263.1
693.767	3304.06
693.956	3392.12
694.146	3336.82
694.335	3269.24
694.524	3261.05
694.713	3189.37
694.902	3328.63
695.092	3363.45
695.281	3164.79
695.47	3334.78
695.659	3347.06
695.848	3232.38
696.037	3248.76
696.226	3318.39
696.415	3289.72
696.604	3211.9
696.793	3267.19
696.982	3340.92
697.171	3316.34
697.36	3220.09
697.549	3369.59
697.738	3281.53
697.927	3197.56
698.116	3345.02
698.305	3246.71
698.494	3230.33
698.683	3205.75
698.872	3123.84
699.061	3259
699.25	3175.03
699.438	3320.44
699.627	3201.66
699.816	3142.27
700.005	3195.51
700.193	3185.27
700.382	3232.38
700.571	3175.03
700.76	3172.99
700.948	3263.1
701.137	3244.67
701.326	3232.38
701.514	3146.36
701.703	3220.09
701.892	3201.66
702.08	3035.77
702.269	3205.75
702.457	3170.94
702.646	3035.77
702.834	3080.83
703.023	2974.33
703.212	3101.31
703.4	3144.31
703.589	2949.76
703.777	3093.12
703.965	2904.7
704.154	3039.87
704.342	2853.5
704.531	3117.69
704.719	2857.6
704.907	3037.82
705.096	2873.98
705.284	2843.26
705.472	2925.18
705.661	2798.21
705.849	2867.84
706.037	2947.71
706.226	2902.65
706.414	2775.68
706.602	2986.62
706.79	2835.07
706.979	2900.61
707.167	2845.31
707.355	2736.77
707.543	2769.54
707.731	2898.56
707.919	2773.63
708.107	2722.43
708.296	2763.39
708.484	2755.2
708.672	2673.28
708.86	2716.29
709.048	2710.15
709.236	2830.98
709.424	2679.43
709.612	2624.13
709.8	2708.1
709.988	2617.99
710.176	2585.22
710.364	2753.15
710.551	2669.19
710.739	2511.49
710.927	2638.47
711.115	2691.71
711.303	2607.75
711.491	2560.64
711.679	2480.77
711.866	2501.25
712.054	2574.98
712.242	2519.68
712.43	2464.39
712.617	2503.3
712.805	2468.48
712.993	2491.01
713.181	2439.81
713.368	2493.06
713.556	2472.58
713.744	2392.71
713.931	2374.28
714.119	2394.76
714.306	2388.61
714.494	2359.94
714.682	2300.55
714.869	2269.83
715.057	2351.75
715.244	2224.78
715.432	2400.9
715.619	2316.94
715.807	2333.32
715.994	2314.89
716.182	2396.81
716.369	2294.41
716.556	2222.73
716.744	2228.87
716.931	2204.3
717.119	2290.31
717.306	2179.72
717.493	2122.38
717.681	2175.63
717.868	2105.99
718.055	2128.52
718.242	2212.49
718.43	2146.95
718.617	2114.19
718.804	2237.06
718.991	2101.9
719.179	2132.62
719.366	2009.74
719.553	2073.23
719.74	2087.56
719.927	2024.08
720.114	1972.88
720.301	2105.99
720.488	1974.92
720.676	2087.56
720.863	1962.64
721.05	2042.51
721.237	2040.46
721.424	1966.73
721.611	2034.32
721.798	1921.68
721.985	1944.2
722.172	2013.84
722.358	1866.38
722.545	1917.58
722.732	1884.81
722.919	1913.49
723.106	1831.57
723.293	1778.32
723.48	1829.52
723.667	1845.9
723.853	1948.3
724.04	1794.7
724.227	1858.19
724.414	1753.74
724.6	1673.87
724.787	1768.08
724.974	1806.99
725.161	1741.46
725.347	1774.22
725.534	1763.98
725.72	1792.66
725.907	1737.36
726.094	1763.98
726.28	1788.56
726.467	1706.64
726.653	1714.83
726.84	1727.12
727.027	1647.25
727.213	1630.87
727.4	1686.16
727.586	1813.13
727.773	1747.6
727.959	1663.63
728.145	1684.11
728.332	1686.16
728.518	1583.76
728.705	1727.12
728.891	1639.06
729.077	1655.44
729.264	1663.63
729.45	1591.95
729.636	1637.01
729.823	1604.24
730.009	1604.24
730.195	1503.89
730.382	1487.51
730.568	1540.76
730.754	1585.81
730.94	1643.15
731.126	1577.62
731.313	1532.56
731.499	1487.51
731.685	1540.76
731.871	1436.31
732.057	1487.51
732.243	1397.4
732.429	1448.6
732.615	1507.99
732.801	1507.99
732.987	1499.8
733.173	1415.83
733.359	1436.31
733.545	1514.13
733.731	1356.44
733.917	1501.84
734.103	1477.27
734.289	1432.21
734.475	1426.07
734.661	1303.19
734.847	1401.49
735.033	1454.74
735.219	1360.53
735.404	1323.67
735.59	1354.39
735.776	1385.11
735.962	1323.67
736.148	1434.26
736.333	1321.62
736.519	1413.78
736.705	1331.86
736.89	1352.34
737.076	1303.19
737.262	1331.86
737.447	1278.62
737.633	1280.66
737.819	1284.76
738.004	1282.71
738.19	1288.86
738.375	1264.28
738.561	1243.8
738.747	1274.52
738.932	1192.6
739.118	1262.23
739.303	1231.51
739.489	1264.28
739.674	1256.09
739.859	1348.25
740.045	1196.7
740.23	1084.06
740.416	1190.55
740.601	1204.89
740.786	1159.83
740.972	1149.59
741.157	1231.51
741.342	1206.94
741.528	1163.93
741.713	1231.51
741.898	1079.96
742.084	1137.31
742.269	1106.59
742.454	1176.22
742.639	1118.87
742.824	1231.51
743.01	1182.36
743.195	1131.16
743.38	1086.11
743.565	1092.25
743.75	1110.68
743.935	1061.53
744.12	1102.49
744.305	1051.29
744.49	1022.62
744.675	1077.91
744.86	1131.16
745.045	1034.91
745.23	1112.73
745.415	1092.25
745.6	942.75
745.785	981.66
745.97	967.32
746.155	1139.35
746.34	1073.82
746.525	1002.14
746.71	981.66
746.895	932.51
747.079	975.52
747.264	1008.28
747.449	1067.67
747.634	989.85
747.819	987.8
748.003	989.85
748.188	1008.28
748.373	905.88
748.557	977.56
748.742	934.56
748.927	834.21
749.111	895.64
749.296	938.65
749.481	944.8
749.665	879.26
749.85	864.93
750.034	959.13
750.219	877.21
750.404	828.06
750.588	877.21
750.773	862.88
750.957	805.53
751.141	891.55
751.326	846.49
751.51	895.64
751.695	801.44
751.879	744.1
752.064	885.41
752.248	940.7
752.432	848.54
752.617	766.62
752.801	840.35
752.985	854.69
753.17	778.91
753.354	776.86
753.538	774.81
753.722	797.34
753.907	795.29
754.091	746.14
754.275	748.19
754.459	815.77
754.643	690.85
754.828	701.09
755.012	731.81
755.196	756.38
755.38	692.9
755.564	721.57
755.748	803.49
755.932	713.38
756.116	721.57
756.3	713.38
756.484	684.7
756.668	727.71
756.852	670.37
757.036	647.84
757.22	783.01
757.404	699.04
757.588	660.13
757.772	574.11
757.956	582.31
758.14	737.95
758.323	641.7
758.507	629.41
758.691	699.04
758.875	631.46
759.059	707.23
759.242	672.42
759.426	656.03
759.61	678.56
759.794	596.64
759.977	584.35
760.161	668.32
760.345	592.55
760.528	645.79
760.712	606.88
760.895	598.69
761.079	537.25
761.263	621.22
761.446	590.5
761.63	633.5
761.813	584.35
761.997	631.46
762.18	567.97
762.364	602.79
762.547	572.07
762.731	592.55
762.914	533.15
763.098	582.31
763.281	623.27
763.464	574.11
763.648	619.17
763.831	582.31
764.015	594.59
764.198	635.55
764.381	516.77
764.564	479.91
764.748	567.97
764.931	543.39
765.114	496.29
765.297	572.07
765.481	557.73
765.664	563.87
765.847	510.63
766.03	567.97
766.213	615.07
766.397	594.59
766.58	563.87
766.763	588.45
766.946	488.1
767.129	529.06
767.312	570.02
767.495	565.92
767.678	471.72
767.861	535.2
768.044	592.55
768.227	570.02
768.41	527.01
768.593	555.68
768.776	557.73
768.959	436.9
769.142	545.44
769.324	541.35
769.507	527.01
769.69	492.2
769.873	424.61
770.056	563.87
770.239	461.48
770.421	500.39
770.604	512.67
770.787	469.67
770.97	514.72
771.152	535.2
771.335	467.62
771.518	459.43
771.7	496.29
771.883	541.35
772.066	510.63
772.248	467.62
772.431	459.43
772.613	455.33
772.796	438.95
772.978	494.24
773.161	484
773.343	502.43
773.526	496.29
773.708	430.76
773.891	455.33
774.073	481.96
774.256	443.04
774.438	461.48
774.621	422.56
774.803	428.71
774.985	406.18
775.168	434.85
775.35	514.72
775.532	467.62
775.715	379.56
775.897	402.08
776.079	420.52
776.261	367.27
776.444	484
776.626	414.37
776.808	451.24
776.99	383.65
777.173	518.82
777.355	432.8
777.537	397.99
777.719	352.93
777.901	391.84
778.083	428.71
778.265	393.89
778.447	393.89
778.629	346.79
778.811	412.32
778.993	342.69
779.175	406.18
779.357	434.85
779.539	303.78
779.721	322.21
779.903	414.37
780.085	307.88
780.267	414.37
780.449	408.23
780.631	406.18
780.812	357.03
780.994	326.31
781.176	406.18
781.358	303.78
781.54	365.22
781.721	365.22
781.903	301.73
782.085	283.3
782.267	352.93
782.448	318.12
782.63	336.55
782.812	354.98
782.993	266.92
783.175	279.21
783.357	359.08
783.538	322.21
783.72	346.79
783.901	287.4
784.083	215.72
784.264	307.88
784.446	316.07
784.627	264.87
784.809	318.12
784.99	297.64
785.172	334.5
785.353	328.36
785.535	215.72
785.716	324.26
785.897	309.93
786.079	271.01
786.26	268.97
786.441	336.55
786.623	191.14
786.804	273.06
786.985	266.92
787.167	301.73
787.348	246.44
787.529	326.31
787.71	185
787.891	246.44
788.073	246.44
788.254	273.06
788.435	303.78
788.616	307.88
788.797	246.44
788.978	217.77
789.159	172.71
789.34	207.53
789.522	195.24
789.703	250.53
789.884	209.58
790.065	203.43
790.246	277.16
790.427	215.72
790.607	211.62
790.788	180.9
790.969	180.9
791.15	246.44
791.331	248.49
791.512	209.58
791.693	160.42
791.874	182.95
792.054	273.06
792.235	191.14
792.416	223.91
792.597	209.58
792.778	262.82
792.958	182.95
793.139	262.82
793.32	166.57
793.5	150.18
793.681	242.34
793.862	191.14
794.042	191.14
794.223	191.14
794.404	127.66
794.584	205.48
794.765	176.81
794.945	189.1
795.126	185
795.306	182.95
795.487	199.34
795.667	178.86
795.848	213.67
796.028	133.8
796.209	199.34
796.389	209.58
796.57	164.52
796.75	180.9
796.93	156.33
797.111	135.85
797.291	133.8
797.471	193.19
797.652	197.29
797.832	236.2
798.012	185
798.192	158.38
798.373	150.18
798.553	205.48
798.733	221.86
798.913	146.09
799.093	148.14
799.274	172.71
799.454	150.18
799.634	127.66
799.814	123.56
799.994	135.85
800.174	211.62
800.354	180.9
800.534	74.41
800.714	168.62
800.894	139.94
801.074	182.95
801.254	234.15
801.434	176.81
801.614	170.66
801.794	129.7
801.974	393.89
802.154	170.66
802.334	172.71
802.514	107.18
802.693	141.99
802.873	92.84
803.053	82.6
803.233	141.99
803.413	195.24
803.592	98.99
803.772	168.62
803.952	129.7
804.131	123.56
804.311	131.75
804.491	139.94
804.67	172.71
804.85	103.08
805.03	121.51
805.209	193.19
805.389	53.93
805.568	119.46
805.748	129.7
805.928	123.56
806.107	68.27
806.287	203.43
806.466	82.6
806.646	123.56
806.825	29.35
807.004	86.7
807.184	146.09
807.363	205.48
807.543	129.7
807.722	96.94
807.901	144.04
808.081	164.52
808.26	58.03
808.439	117.42
808.619	90.79
808.798	78.51
808.977	92.84
809.156	121.51
809.336	166.57
809.515	115.37
809.694	0.68
809.873	131.75
810.052	172.71
810.231	137.9
810.411	58.03
810.59	152.23
810.769	172.71
810.948	125.61
811.127	60.07
811.306	139.94
811.485	135.85
811.664	88.75
811.843	43.69
812.022	90.79
812.201	101.03
812.38	152.23
812.559	90.79
812.737	158.38
812.916	88.75
813.095	72.36
813.274	82.6
813.453	109.22
813.632	125.61
813.811	76.46
813.989	74.41
814.168	76.46
814.347	66.22
814.526	27.31
814.704	53.93
814.883	78.51
815.062	113.32
815.24	156.33
815.419	60.07
815.598	68.27
815.776	51.88
815.955	111.27
816.133	72.36
816.312	8.87
816.49	27.31
816.669	29.35
816.847	31.4
817.026	146.09
817.204	47.79
817.383	90.79
817.561	53.93
817.74	21.16
817.918	107.18
818.097	64.17
818.275	74.41
818.453	86.7
818.632	90.79
818.81	117.42
818.988	107.18
819.167	82.6
819.345	129.7
819.523	92.84
819.701	55.98
819.879	49.83
820.058	17.07
820.236	98.99
820.414	90.79
820.592	37.55
820.77	53.93
820.948	74.41
821.127	94.89
821.305	33.45
821.483	53.93
821.661	82.6
821.839	35.5
822.017	68.27
822.195	88.75
822.373	109.22
822.551	92.84
822.729	74.41
822.907	82.6
823.085	90.79
823.262	94.89
823.44	62.12
823.618	33.45
823.796	0.68
823.974	49.83
824.152	-13.65
824.329	25.26
824.507	39.59
824.685	37.55
824.863	86.7
825.04	51.88
825.218	121.51
825.396	27.31
825.574	74.41
825.751	96.94
825.929	107.18
826.107	-9.56
826.284	113.32
826.462	23.21
826.639	64.17
826.817	49.83
826.994	92.84
827.172	27.31
827.349	41.64
827.527	19.11
827.704	76.46
827.882	94.89
828.059	70.31
828.237	141.99
828.414	88.75
828.591	19.11
828.769	51.88
828.946	51.88
829.124	70.31
829.301	80.55
829.478	68.27
829.655	35.5
829.833	113.32
830.01	37.55
830.187	84.65
830.364	35.5
830.542	31.4
830.719	172.71
830.896	29.35
831.073	-7.51
831.25	25.26
831.427	80.55
831.604	33.45
831.782	74.41
831.959	84.65
832.136	64.17
832.313	41.64
832.49	17.07
832.667	84.65
832.844	29.35
833.021	47.79
833.198	72.36
833.374	66.22
833.551	103.08
833.728	55.98
833.905	41.64
834.082	55.98
834.259	27.31
834.436	72.36
834.612	62.12
834.789	111.27
834.966	41.64
835.143	0.68
835.319	41.64
835.496	45.74
835.673	164.52
835.85	88.75
836.026	-40.28
836.203	49.83
836.38	51.88
836.556	47.79
836.733	49.83
836.909	64.17
837.086	-25.94
837.262	47.79
837.439	94.89
837.616	4.78
837.792	-1.37
837.968	98.99
838.145	-40.28
838.321	55.98
838.498	-1.37
838.674	19.11
838.851	-21.85
839.027	41.64
839.203	47.79
839.38	0.68
839.556	19.11
839.732	4.78
839.909	19.11
840.085	88.75
840.261	17.07
840.437	35.5
840.614	21.16
840.79	43.69
840.966	-48.47
841.142	94.89
841.318	2.73
841.494	51.88
841.671	111.27
841.847	41.64
842.023	68.27
842.199	15.02
842.375	148.14
842.551	51.88
842.727	60.07
842.903	45.74
843.079	53.93
843.255	55.98
843.431	103.08
843.607	-3.41
843.783	-15.7
843.959	58.03
844.134	4.78
844.31	74.41
844.486	2.73
844.662	45.74
844.838	8.87
845.013	76.46
845.189	94.89
845.365	12.97
845.541	-7.51
845.716	-15.7
845.892	23.21
846.068	43.69
846.244	31.4
846.419	-42.32
846.595	64.17
846.77	-9.56
846.946	-13.65
847.122	6.83
847.297	-32.08
847.473	21.16
847.648	-7.51
847.824	6.83
847.999	-71
848.175	113.32
848.35	21.16
848.526	8.87
848.701	45.74
848.876	58.03
849.052	25.26
849.227	25.26
849.403	-56.66
849.578	49.83
849.753	51.88
849.929	66.22
850.104	74.41
850.279	17.07
850.454	-30.04
850.63	-73.04
850.805	0.68
850.98	-23.89
851.155	-23.89
851.33	-30.04
851.505	25.26
851.681	33.45
851.856	-1.37
852.031	78.51
852.206	-25.94
852.381	-1.37
852.556	-48.47
852.731	35.5
852.906	62.12
853.081	55.98
853.256	29.35
853.431	15.02
853.606	10.92
853.781	64.17
853.956	29.35
854.131	-21.85
854.305	19.11
854.48	-9.56
854.655	10.92
854.83	68.27
855.005	58.03
855.18	21.16
855.354	82.6
855.529	17.07
855.704	47.79
855.879	47.79
856.053	-23.89
856.228	6.83
856.403	43.69
856.577	-1.37
856.752	-27.99
856.926	68.27
857.101	8.87
857.276	17.07
857.45	49.83
857.625	-48.47
857.799	27.31
857.974	51.88
858.148	43.69
858.323	49.83
858.497	-3.41
858.672	92.84
858.846	6.83
859.02	33.45
859.195	-5.46
859.369	47.79
859.543	8.87
859.718	0.68
859.892	15.02
860.066	41.64
860.241	31.4
860.415	70.31
860.589	-32.08
860.763	37.55
860.938	21.16
861.112	41.64
861.286	-40.28
861.46	78.51
861.634	-30.04
861.808	58.03
861.982	49.83
862.157	0.68
862.331	-3.41
862.505	137.9
862.679	-5.46
862.853	62.12
863.027	-36.18
863.201	35.5
863.375	31.4
863.549	-25.94
863.722	-64.85
863.896	17.07
864.07	45.74
864.244	29.35
864.418	-27.99
864.592	-7.51
864.766	-77.14
864.939	8.87
865.113	-15.7
865.287	41.64
865.461	25.26
865.634	-7.51
865.808	35.5
865.982	8.87
866.156	-15.7
866.329	-60.76
866.503	-11.61
866.676	78.51
866.85	92.84
867.024	33.45
867.197	25.26
867.371	33.45
867.544	-83.28
867.718	103.08
867.891	-5.46
868.065	19.11
868.238	33.45
868.412	21.16
868.585	-17.75
868.759	-7.51
868.932	-11.61
869.105	94.89
869.279	-3.41
869.452	19.11
869.625	-15.7
869.799	29.35
869.972	-15.7
870.145	17.07
870.319	-11.61
870.492	39.59
870.665	33.45
870.838	19.11
871.011	25.26
871.185	-54.61
871.358	25.26
871.531	4.78
871.704	66.22
871.877	64.17
872.05	8.87
872.223	33.45
872.396	-68.95
872.569	25.26
872.742	-5.46
872.915	86.7
873.088	15.02
873.261	33.45
873.434	-3.41
873.607	-30.04
873.78	17.07
873.953	2.73
874.126	19.11
874.299	21.16
874.471	15.02
874.644	-62.8
874.817	-17.75
874.99	23.21
875.163	-27.99
875.335	-13.65
875.508	29.35
875.681	-30.04
875.853	2.73
876.026	8.87
876.199	-5.46
876.371	43.69
876.544	25.26
876.717	49.83
876.889	37.55
877.062	27.31
877.234	-36.18
877.407	-13.65
877.579	-13.65
877.752	53.93
877.924	-5.46
878.097	8.87
878.269	-9.56
878.442	66.22
878.614	35.5
878.786	21.16
878.959	-21.85
879.131	2.73
879.303	-19.8
879.476	64.17
879.648	58.03
879.82	21.16
879.993	15.02
880.165	25.26
880.337	27.31
880.509	15.02
880.681	-3.41
880.854	0.68
881.026	21.16
881.198	43.69
881.37	2.73
881.542	-9.56
881.714	-25.94
881.886	4.78
882.058	-19.8
882.23	10.92
882.402	15.02
882.574	21.16
882.746	41.64
882.918	33.45
883.09	-17.75
883.262	-7.51
883.434	35.5
883.606	0.68
883.778	-19.8
883.95	17.07
884.122	-36.18
884.293	17.07
884.465	-15.7
884.637	-34.13
884.809	37.55
884.98	19.11
885.152	-3.41
885.324	35.5
885.496	17.07
885.667	127.66
885.839	-30.04
886.011	33.45
886.182	68.27
886.354	51.88
886.525	-15.7
886.697	31.4
886.869	-7.51
887.04	10.92
887.212	55.98
887.383	-9.56
887.555	-7.51
887.726	-58.71
887.897	2.73
888.069	2.73
888.24	8.87
888.412	-19.8
888.583	-13.65
888.754	37.55
888.926	51.88
889.097	27.31
889.268	-15.7
889.44	-3.41
889.611	-42.32
889.782	8.87
889.953	12.97
890.125	49.83
890.296	-58.71
890.467	6.83
890.638	31.4
890.809	17.07
890.98	-38.23
891.151	66.22
891.323	-7.51
891.494	29.35
891.665	-36.18
891.836	-48.47
892.007	0.68
892.178	-30.04
892.349	-34.13
892.52	8.87
892.691	-30.04
892.862	-21.85
893.032	12.97
893.203	17.07
893.374	-11.61
893.545	-32.08
893.716	68.27
893.887	-7.51
894.057	-5.46
894.228	-48.47
894.399	12.97
894.57	35.5
894.74	-7.51
894.911	-7.51
895.082	41.64
895.253	12.97
895.423	2.73
895.594	94.89
895.764	51.88
895.935	-7.51
896.106	-25.94
896.276	-30.04
896.447	21.16
896.617	17.07
896.788	-7.51
896.958	12.97
897.129	-32.08
897.299	-5.46
897.47	19.11
897.64	19.11
897.81	27.31
897.981	10.92
898.151	-9.56
898.322	2.73
898.492	-13.65
898.662	27.31
898.832	-25.94
899.003	12.97
899.173	66.22
899.343	53.93
899.513	-1.37
