Data from USB4F104151__248__14-01-29-945.txt Node

Date: Thu Mar 13 14:01:29 EDT 2025
User: louis
Spectrometer: USB4F10415
Trigger mode: 4
Integration Time (sec): 1.000000E-2
Scans to average: 1
Electric dark correction enabled: true
Nonlinearity correction enabled: false
Boxcar width: 0
XAxis mode: Wavelengths
Number of Pixels in Spectrum: 3648
>>>>>Begin Spectral Data<<<<<
178.204	11.78
178.424	11.78
178.644	11.78
178.864	-70.14
179.084	3.58
179.304	-4.61
179.524	38.4
179.744	-10.75
179.964	62.98
180.184	-68.09
180.404	-35.33
180.624	-31.23
180.844	44.54
181.064	-6.66
181.283	5.63
181.503	3.58
181.723	1.54
181.943	-86.53
182.163	81.41
182.383	50.69
182.602	40.45
182.822	-25.09
183.042	3.58
183.262	44.54
183.482	52.74
183.701	34.3
183.921	-27.14
184.141	-0.51
184.361	26.11
184.58	19.97
184.8	-20.99
185.02	1.54
185.239	15.87
185.459	28.16
185.679	-39.42
185.898	-6.66
186.118	36.35
186.338	9.73
186.557	15.87
186.777	38.4
186.997	13.82
187.216	69.12
187.436	-4.61
187.655	-2.56
187.875	48.64
188.095	-12.8
188.314	40.45
188.534	28.16
188.753	-6.66
188.973	-20.99
189.192	15.87
189.412	-8.7
189.631	-37.38
189.851	7.68
190.07	-41.47
190.29	22.02
190.509	5.63
190.729	56.83
190.948	52.74
191.168	-25.09
191.387	11.78
191.607	110.08
191.826	-4.61
192.045	56.83
192.265	-25.09
192.484	24.06
192.704	-12.8
192.923	-41.47
193.142	30.21
193.362	44.54
193.581	46.59
193.8	5.63
194.02	42.5
194.239	7.68
194.458	50.69
194.678	15.87
194.897	9.73
195.116	-43.52
195.335	46.59
195.555	-4.61
195.774	69.12
195.993	40.45
196.212	5.63
196.432	40.45
196.651	9.73
196.87	-2.56
197.089	-10.75
197.308	89.6
197.528	28.16
197.747	-16.9
197.966	7.68
198.185	34.3
198.404	38.4
198.623	-39.42
198.842	75.26
199.062	1.54
199.281	67.07
199.5	-37.38
199.719	26.11
199.938	17.92
200.157	50.69
200.376	30.21
200.595	9.73
200.814	-33.28
201.033	69.12
201.252	28.16
201.471	22.02
201.69	3.58
201.909	58.88
202.128	3.58
202.347	-16.9
202.566	50.69
202.785	-47.62
203.004	-49.66
203.223	50.69
203.442	-18.94
203.661	9.73
203.879	-4.61
204.098	50.69
204.317	9.73
204.536	-49.66
204.755	24.06
204.974	67.07
205.193	-92.67
205.411	89.6
205.63	-37.38
205.849	11.78
206.068	62.98
206.287	-33.28
206.505	22.02
206.724	3.58
206.943	-23.04
207.162	-82.43
207.381	15.87
207.599	58.88
207.818	46.59
208.037	62.98
208.255	24.06
208.474	-2.56
208.693	-4.61
208.911	42.5
209.13	-0.51
209.349	13.82
209.567	-8.7
209.786	-2.56
210.005	3.58
210.223	44.54
210.442	75.26
210.661	-47.62
210.879	60.93
211.098	-23.04
211.316	24.06
211.535	26.11
211.753	30.21
211.972	-23.04
212.191	3.58
212.409	42.5
212.628	-12.8
212.846	48.64
213.065	19.97
213.283	50.69
213.502	-35.33
213.72	58.88
213.938	65.02
214.157	-49.66
214.375	-72.19
214.594	-16.9
214.812	44.54
215.031	13.82
215.249	19.97
215.467	73.21
215.686	17.92
215.904	69.12
216.122	15.87
216.341	30.21
216.559	81.41
216.778	54.78
216.996	58.88
217.214	3.58
217.432	15.87
217.651	28.16
217.869	24.06
218.087	19.97
218.306	40.45
218.524	24.06
218.742	65.02
218.96	40.45
219.179	-6.66
219.397	-66.05
219.615	24.06
219.833	32.26
220.051	46.59
220.27	36.35
220.488	-8.7
220.706	-12.8
220.924	9.73
221.142	38.4
221.36	-4.61
221.578	40.45
221.796	1.54
222.015	22.02
222.233	24.06
222.451	32.26
222.669	-4.61
222.887	81.41
223.105	89.6
223.323	-53.76
223.541	-2.56
223.759	65.02
223.977	-10.75
224.195	48.64
224.413	7.68
224.631	11.78
224.849	-10.75
225.067	9.73
225.285	32.26
225.503	7.68
225.721	-43.52
225.939	9.73
226.157	15.87
226.375	-0.51
226.592	-43.52
226.81	65.02
227.028	65.02
227.246	56.83
227.464	3.58
227.682	-16.9
227.9	-8.7
228.117	48.64
228.335	-4.61
228.553	24.06
228.771	77.31
228.989	65.02
229.206	-0.51
229.424	42.5
229.642	-10.75
229.86	22.02
230.077	13.82
230.295	60.93
230.513	-25.09
230.731	75.26
230.948	26.11
231.166	24.06
231.384	44.54
231.601	-2.56
231.819	38.4
232.037	36.35
232.254	36.35
232.472	7.68
232.689	-6.66
232.907	11.78
233.125	24.06
233.342	-35.33
233.56	65.02
233.777	-4.61
233.995	3.58
234.213	7.68
234.43	-49.66
234.648	34.3
234.865	-2.56
235.083	-6.66
235.3	32.26
235.518	48.64
235.735	42.5
235.953	-2.56
236.17	11.78
236.388	-4.61
236.605	38.4
236.822	5.63
237.04	24.06
237.257	48.64
237.475	13.82
237.692	85.5
237.909	-61.95
238.127	-6.66
238.344	17.92
238.562	5.63
238.779	-53.76
238.996	34.3
239.214	-33.28
239.431	-37.38
239.648	-12.8
239.865	58.88
240.083	54.78
240.3	40.45
240.517	44.54
240.735	-49.66
240.952	15.87
241.169	24.06
241.386	7.68
241.603	7.68
241.821	-43.52
242.038	-6.66
242.255	-14.85
242.472	54.78
242.689	-66.05
242.907	-31.23
243.124	28.16
243.341	69.12
243.558	11.78
243.775	65.02
243.992	17.92
244.209	-16.9
244.426	34.3
244.643	85.5
244.86	15.87
245.078	32.26
245.295	36.35
245.512	24.06
245.729	7.68
245.946	52.74
246.163	34.3
246.38	32.26
246.597	42.5
246.814	34.3
247.031	38.4
247.248	17.92
247.464	-0.51
247.681	-4.61
247.898	34.3
248.115	50.69
248.332	-23.04
248.549	11.78
248.766	32.26
248.983	114.17
249.2	-2.56
249.417	-61.95
249.633	73.21
249.85	69.12
250.067	-2.56
250.284	3.58
250.501	36.35
250.717	-16.9
250.934	1.54
251.151	-8.7
251.368	34.3
251.585	11.78
251.801	62.98
252.018	7.68
252.235	52.74
252.451	9.73
252.668	-49.66
252.885	-8.7
253.102	32.26
253.318	-23.04
253.535	-10.75
253.752	32.26
253.968	-53.76
254.185	73.21
254.401	-39.42
254.618	77.31
254.835	1.54
255.051	-0.51
255.268	34.3
255.484	32.26
255.701	69.12
255.917	7.68
256.134	-12.8
256.351	22.02
256.567	15.87
256.784	7.68
257	-4.61
257.217	-0.51
257.433	-6.66
257.65	24.06
257.866	-29.18
258.082	-6.66
258.299	34.3
258.515	-12.8
258.732	24.06
258.948	48.64
259.165	13.82
259.381	26.11
259.597	-39.42
259.814	-2.56
260.03	-59.9
260.246	7.68
260.463	-12.8
260.679	-8.7
260.895	-57.86
261.112	34.3
261.328	69.12
261.544	52.74
261.761	30.21
261.977	-0.51
262.193	22.02
262.409	-8.7
262.626	44.54
262.842	-8.7
263.058	-25.09
263.274	67.07
263.49	-6.66
263.707	42.5
263.923	54.78
264.139	9.73
264.355	83.45
264.571	114.17
264.787	56.83
265.004	32.26
265.22	-20.99
265.436	44.54
265.652	1.54
265.868	-0.51
266.084	17.92
266.3	-49.66
266.516	-74.24
266.732	-16.9
266.948	17.92
267.164	11.78
267.38	3.58
267.596	3.58
267.812	11.78
268.028	89.6
268.244	40.45
268.46	48.64
268.676	-4.61
268.892	-14.85
269.108	-33.28
269.324	75.26
269.54	65.02
269.756	13.82
269.972	5.63
270.188	22.02
270.403	-0.51
270.619	-4.61
270.835	42.5
271.051	-8.7
271.267	7.68
271.483	13.82
271.698	7.68
271.914	52.74
272.13	60.93
272.346	48.64
272.562	-45.57
272.777	69.12
272.993	11.78
273.209	83.45
273.425	-25.09
273.64	-41.47
273.856	-57.86
274.072	7.68
274.287	13.82
274.503	15.87
274.719	52.74
274.934	-37.38
275.15	-8.7
275.366	-29.18
275.581	-27.14
275.797	-20.99
276.012	7.68
276.228	42.5
276.444	50.69
276.659	-39.42
276.875	-6.66
277.09	3.58
277.306	48.64
277.521	54.78
277.737	-76.29
277.952	7.68
278.168	26.11
278.383	-0.51
278.599	32.26
278.814	87.55
279.03	3.58
279.245	56.83
279.461	112.13
279.676	17.92
279.892	7.68
280.107	9.73
280.322	30.21
280.538	-39.42
280.753	-23.04
280.969	50.69
281.184	83.45
281.399	30.21
281.615	24.06
281.83	69.12
282.045	1.54
282.26	24.06
282.476	38.4
282.691	-12.8
282.906	-37.38
283.122	-68.09
283.337	58.88
283.552	-6.66
283.767	52.74
283.983	-29.18
284.198	65.02
284.413	56.83
284.628	-12.8
284.843	54.78
285.058	3.58
285.274	36.35
285.489	7.68
285.704	85.5
285.919	-41.47
286.134	7.68
286.349	-8.7
286.564	24.06
286.779	3.58
286.995	-23.04
287.21	34.3
287.425	40.45
287.64	52.74
287.855	-18.94
288.07	44.54
288.285	73.21
288.5	-16.9
288.715	36.35
288.93	38.4
289.145	19.97
289.36	24.06
289.575	-37.38
289.79	40.45
290.004	1.54
290.219	-25.09
290.434	40.45
290.649	15.87
290.864	32.26
291.079	-0.51
291.294	-23.04
291.509	32.26
291.724	-41.47
291.938	17.92
292.153	24.06
292.368	-8.7
292.583	69.12
292.798	-59.9
293.012	65.02
293.227	48.64
293.442	-8.7
293.657	30.21
293.871	85.5
294.086	24.06
294.301	-39.42
294.516	28.16
294.73	50.69
294.945	-23.04
295.16	48.64
295.374	24.06
295.589	89.6
295.804	-23.04
296.018	32.26
296.233	-16.9
296.447	46.59
296.662	32.26
296.877	26.11
297.091	50.69
297.306	-12.8
297.52	-47.62
297.735	11.78
297.949	110.08
298.164	-14.85
298.378	11.78
298.593	19.97
298.807	56.83
299.022	13.82
299.236	5.63
299.451	-23.04
299.665	28.16
299.88	-41.47
300.094	30.21
300.309	-8.7
300.523	15.87
300.737	-29.18
300.952	30.21
301.166	19.97
301.381	-14.85
301.595	7.68
301.809	48.64
302.024	81.41
302.238	60.93
302.452	140.8
302.667	3.58
302.881	34.3
303.095	36.35
303.309	-66.05
303.524	11.78
303.738	9.73
303.952	30.21
304.166	30.21
304.381	56.83
304.595	-0.51
304.809	7.68
305.023	24.06
305.237	26.11
305.452	58.88
305.666	7.68
305.88	93.69
306.094	40.45
306.308	-2.56
306.522	34.3
306.736	65.02
306.95	9.73
307.164	-47.62
307.379	3.58
307.593	36.35
307.807	32.26
308.021	-29.18
308.235	-8.7
308.449	11.78
308.663	-53.76
308.877	30.21
309.091	-6.66
309.305	103.93
309.519	-33.28
309.733	26.11
309.947	9.73
310.161	69.12
310.374	19.97
310.588	81.41
310.802	-4.61
311.016	75.26
311.23	67.07
311.444	34.3
311.658	7.68
311.872	24.06
312.085	-16.9
312.299	34.3
312.513	40.45
312.727	26.11
312.941	26.11
313.154	30.21
313.368	-29.18
313.582	56.83
313.796	1.54
314.009	15.87
314.223	75.26
314.437	69.12
314.651	-64
314.864	60.93
315.078	-53.76
315.292	38.4
315.505	73.21
315.719	-14.85
315.933	1.54
316.146	40.45
316.36	-18.94
316.573	30.21
316.787	-14.85
317.001	15.87
317.214	-29.18
317.428	28.16
317.641	67.07
317.855	67.07
318.068	22.02
318.282	65.02
318.495	-33.28
318.709	79.36
318.922	1.54
319.136	-16.9
319.349	52.74
319.563	52.74
319.776	7.68
319.99	7.68
320.203	19.97
320.417	62.98
320.63	38.4
320.843	19.97
321.057	-20.99
321.27	85.5
321.483	-37.38
321.697	87.55
321.91	26.11
322.124	32.26
322.337	7.68
322.55	32.26
322.763	56.83
322.977	26.11
323.19	3.58
323.403	60.93
323.617	46.59
323.83	99.84
324.043	32.26
324.256	-0.51
324.469	7.68
324.683	34.3
324.896	7.68
325.109	-0.51
325.322	-43.52
325.535	89.6
325.748	44.54
325.962	7.68
326.175	-2.56
326.388	-6.66
326.601	48.64
326.814	26.11
327.027	-14.85
327.24	3.58
327.453	7.68
327.666	54.78
327.879	7.68
328.092	24.06
328.305	24.06
328.518	19.97
328.731	81.41
328.944	89.6
329.157	81.41
329.37	-18.94
329.583	77.31
329.796	89.6
330.009	-23.04
330.222	15.87
330.435	30.21
330.648	97.79
330.861	34.3
331.073	26.11
331.286	30.21
331.499	-8.7
331.712	91.65
331.925	-16.9
332.138	97.79
332.35	144.89
332.563	11.78
332.776	28.16
332.989	3.58
333.202	-4.61
333.414	-41.47
333.627	26.11
333.84	32.26
334.053	-41.47
334.265	3.58
334.478	-4.61
334.691	32.26
334.903	97.79
335.116	36.35
335.329	56.83
335.541	56.83
335.754	26.11
335.966	26.11
336.179	69.12
336.392	50.69
336.604	42.5
336.817	34.3
337.029	126.46
337.242	15.87
337.454	83.45
337.667	-35.33
337.88	48.64
338.092	24.06
338.305	48.64
338.517	60.93
338.729	44.54
338.942	28.16
339.154	52.74
339.367	-18.94
339.579	50.69
339.792	-47.62
340.004	32.26
340.217	9.73
340.429	38.4
340.641	-6.66
340.854	52.74
341.066	-41.47
341.278	89.6
341.491	130.56
341.703	83.45
341.915	34.3
342.128	-31.23
342.34	-23.04
342.552	54.78
342.764	32.26
342.977	85.5
343.189	15.87
343.401	7.68
343.613	-25.09
343.826	-29.18
344.038	-2.56
344.25	24.06
344.462	-0.51
344.674	60.93
344.886	110.08
345.099	26.11
345.311	-39.42
345.523	7.68
345.735	-33.28
345.947	65.02
346.159	-33.28
346.371	67.07
346.583	-29.18
346.795	30.21
347.007	65.02
347.219	15.87
347.431	-6.66
347.643	83.45
347.855	-41.47
348.067	77.31
348.279	-25.09
348.491	-27.14
348.703	26.11
348.915	95.74
349.127	-41.47
349.339	54.78
349.551	40.45
349.763	87.55
349.975	75.26
350.187	17.92
350.399	26.11
350.61	48.64
350.822	-49.66
351.034	11.78
351.246	7.68
351.458	77.31
351.669	-23.04
351.881	65.02
352.093	85.5
352.305	65.02
352.517	30.21
352.728	9.73
352.94	-8.7
353.152	56.83
353.363	65.02
353.575	32.26
353.787	81.41
353.999	17.92
354.21	-16.9
354.422	56.83
354.633	-25.09
354.845	24.06
355.057	-59.9
355.268	89.6
355.48	17.92
355.692	-8.7
355.903	69.12
356.115	-25.09
356.326	-14.85
356.538	32.26
356.749	34.3
356.961	36.35
357.172	118.27
357.384	-2.56
357.595	60.93
357.807	11.78
358.018	-10.75
358.23	19.97
358.441	71.17
358.653	118.27
358.864	-25.09
359.075	79.36
359.287	32.26
359.498	95.74
359.709	46.59
359.921	69.12
360.132	58.88
360.344	11.78
360.555	34.3
360.766	67.07
360.977	24.06
361.189	56.83
361.4	42.5
361.611	1.54
361.823	-86.53
362.034	15.87
362.245	-0.51
362.456	9.73
362.667	-64
362.879	13.82
363.09	58.88
363.301	17.92
363.512	9.73
363.723	-39.42
363.935	69.12
364.146	9.73
364.357	30.21
364.568	93.69
364.779	19.97
364.99	26.11
365.201	32.26
365.412	32.26
365.623	24.06
365.834	32.26
366.045	81.41
366.256	40.45
366.467	3.58
366.678	114.17
366.889	36.35
367.1	105.98
367.311	67.07
367.522	-0.51
367.733	77.31
367.944	38.4
368.155	-0.51
368.366	48.64
368.577	26.11
368.788	65.02
368.999	-12.8
369.209	81.41
369.42	54.78
369.631	83.45
369.842	52.74
370.053	30.21
370.264	58.88
370.474	116.22
370.685	9.73
370.896	85.5
371.107	36.35
371.317	19.97
371.528	-57.86
371.739	110.08
371.95	-6.66
372.16	15.87
372.371	26.11
372.582	24.06
372.792	42.5
373.003	50.69
373.214	62.98
373.424	58.88
373.635	44.54
373.846	-51.71
374.056	-29.18
374.267	50.69
374.477	15.87
374.688	36.35
374.898	-41.47
375.109	75.26
375.319	-0.51
375.53	52.74
375.74	3.58
375.951	-12.8
376.161	19.97
376.372	81.41
376.582	54.78
376.793	54.78
377.003	40.45
377.214	99.84
377.424	24.06
377.635	46.59
377.845	24.06
378.055	26.11
378.266	9.73
378.476	19.97
378.686	65.02
378.897	97.79
379.107	-16.9
379.317	67.07
379.528	22.02
379.738	75.26
379.948	3.58
380.158	42.5
380.369	-0.51
380.579	-16.9
380.789	36.35
380.999	-29.18
381.21	73.21
381.42	89.6
381.63	48.64
381.84	24.06
382.05	54.78
382.261	83.45
382.471	44.54
382.681	13.82
382.891	17.92
383.101	52.74
383.311	13.82
383.521	-102.91
383.731	38.4
383.941	46.59
384.151	28.16
384.361	40.45
384.571	30.21
384.781	54.78
384.991	15.87
385.201	75.26
385.411	9.73
385.621	7.68
385.831	67.07
386.041	58.88
386.251	-14.85
386.461	28.16
386.671	99.84
386.881	15.87
387.091	15.87
387.301	69.12
387.511	26.11
387.72	-8.7
387.93	-8.7
388.14	32.26
388.35	73.21
388.56	-12.8
388.769	-31.23
388.979	17.92
389.189	69.12
389.399	48.64
389.609	34.3
389.818	32.26
390.028	24.06
390.238	-33.28
390.447	48.64
390.657	36.35
390.867	30.21
391.076	65.02
391.286	65.02
391.496	7.68
391.705	60.93
391.915	89.6
392.125	-29.18
392.334	48.64
392.544	-14.85
392.753	-6.66
392.963	-41.47
393.172	52.74
393.382	48.64
393.591	77.31
393.801	-25.09
394.01	9.73
394.22	-12.8
394.429	97.79
394.639	34.3
394.848	-31.23
395.058	-20.99
395.267	-4.61
395.477	15.87
395.686	42.5
395.895	69.12
396.105	140.8
396.314	28.16
396.524	71.17
396.733	83.45
396.942	28.16
397.152	40.45
397.361	50.69
397.57	56.83
397.78	-57.86
397.989	91.65
398.198	81.41
398.407	85.5
398.617	132.61
398.826	40.45
399.035	42.5
399.244	22.02
399.453	71.17
399.663	77.31
399.872	87.55
400.081	67.07
400.29	50.69
400.499	83.45
400.708	75.26
400.917	130.56
401.127	56.83
401.336	77.31
401.545	52.74
401.754	114.17
401.963	50.69
402.172	7.68
402.381	97.79
402.59	48.64
402.799	116.22
403.008	54.78
403.217	44.54
403.426	44.54
403.635	118.27
403.844	52.74
404.053	105.98
404.262	42.5
404.471	7.68
404.68	34.3
404.888	122.37
405.097	134.65
405.306	101.89
405.515	67.07
405.724	95.74
405.933	169.47
406.142	108.03
406.35	108.03
406.559	105.98
406.768	62.98
406.977	110.08
407.185	67.07
407.394	157.18
407.603	105.98
407.812	126.46
408.02	138.75
408.229	114.17
408.438	108.03
408.646	65.02
408.855	165.37
409.064	118.27
409.272	130.56
409.481	171.52
409.69	196.09
409.898	87.55
410.107	206.33
410.315	163.33
410.524	253.44
410.733	198.14
410.941	214.52
411.15	175.61
411.358	200.19
411.567	249.34
411.775	212.48
411.984	157.18
412.192	189.95
412.401	212.48
412.609	159.23
412.818	310.78
413.026	294.4
413.234	212.48
413.443	261.63
413.651	339.45
413.86	237.05
414.068	339.45
414.276	321.02
414.485	316.92
414.693	335.35
414.901	396.79
415.11	327.16
415.318	298.49
415.526	421.37
415.734	415.23
415.943	466.42
416.151	374.27
416.359	495.1
416.567	454.14
416.776	402.94
416.984	454.14
417.192	527.86
417.4	507.38
417.608	560.63
417.817	617.97
418.025	515.58
418.233	609.78
418.441	626.17
418.649	630.26
418.857	751.09
419.065	724.47
419.273	706.04
419.481	683.51
419.689	757.24
419.897	777.72
420.105	851.44
420.313	859.63
420.521	818.68
420.729	974.32
420.937	933.36
421.145	959.99
421.353	1000.94
421.561	974.32
421.769	1089.01
421.977	1119.73
422.185	1132.01
422.393	1189.36
422.601	1152.49
422.809	1252.84
423.017	1230.32
423.224	1336.81
423.432	1388.01
423.64	1295.85
423.848	1459.69
424.056	1400.3
424.263	1482.22
424.471	1519.08
424.679	1623.53
424.887	1590.76
425.094	1623.53
425.302	1641.96
425.51	1705.45
425.718	1867.24
425.925	1840.61
426.133	1967.59
426.341	2043.36
426.548	2096.61
426.756	2162.14
426.964	2215.39
427.171	2399.71
427.379	2305.5
427.586	2432.47
427.794	2440.67
428.001	2469.34
428.209	2719.19
428.417	2577.88
428.624	2878.93
428.832	2725.33
429.039	2852.31
429.247	2870.74
429.454	2979.28
429.662	3179.98
429.869	3018.19
430.076	3202.51
430.284	3198.42
430.491	3231.18
430.699	3552.71
430.906	3413.45
431.114	3526.09
431.321	3753.41
431.528	3669.45
431.736	3923.4
431.943	4097.47
432.15	3997.12
432.358	3982.79
432.565	4242.88
432.772	4169.15
432.979	4457.92
433.187	4425.15
433.394	4513.21
433.601	4793.78
433.808	4877.75
434.016	4828.6
434.223	4957.62
434.43	5440.94
434.637	5195.18
434.844	5586.35
435.052	5721.51
435.259	5572.01
435.466	5621.16
435.673	5426.61
435.88	5944.74
436.087	6184.35
436.294	6227.36
436.501	6036.9
436.708	6354.34
436.915	6569.37
437.122	6671.77
437.329	6946.2
437.537	7077.27
437.743	7136.66
437.95	6983.06
438.157	7370.13
438.364	7562.64
438.571	7646.6
438.778	7677.32
438.985	8482.17
439.192	8144.26
439.399	8408.45
439.606	8258.95
439.813	8437.12
440.02	8990.07
440.227	8871.29
440.433	8785.27
440.64	9174.39
440.847	9121.14
441.054	9305.46
441.261	9872.75
441.467	9856.36
441.674	10059.11
441.881	10308.96
442.088	10440.03
442.294	9985.38
442.501	10632.54
442.708	10753.37
442.914	11101.53
443.121	11492.69
443.328	11205.97
443.534	11959.63
443.741	11869.51
443.948	11564.37
444.154	12418.37
444.361	12385.6
444.568	12657.98
444.774	12512.58
444.981	12451.14
445.187	13059.38
445.394	13464.88
445.6	13260.09
445.807	14724.38
446.013	14114.09
446.22	14257.45
446.426	14818.59
446.633	14837.02
446.839	15623.44
447.046	14906.65
447.252	15711.5
447.459	15707.41
447.665	15482.13
447.871	16297.22
448.078	16637.19
448.284	16239.88
448.491	16807.17
448.697	17372.41
448.903	17327.35
449.11	17532.15
449.316	17618.16
449.522	17618.16
449.728	17825.01
449.935	18576.61
450.141	18455.78
450.347	18713.83
450.553	18253.03
450.76	18382.06
450.966	18674.92
451.172	18705.63
451.378	19299.55
451.584	18713.83
451.791	19221.72
451.997	18820.32
452.203	19340.5
452.409	19471.57
452.615	19334.36
452.821	18777.31
453.027	18615.52
453.233	19643.6
453.44	18406.63
453.646	18765.03
453.852	18857.18
454.058	19264.73
454.264	18439.4
454.47	19246.3
454.676	18388.2
454.882	19188.96
455.088	17523.96
455.294	17874.16
455.5	18095.34
455.705	18453.73
455.911	17483
456.117	17300.73
456.323	17081.6
456.529	16020.75
456.735	16788.74
456.941	16291.08
457.147	15940.88
457.352	15637.78
457.558	15406.36
457.764	15424.79
457.97	15287.57
458.176	14892.32
458.381	14681.38
458.587	14357.8
458.793	14277.93
458.999	13319.48
459.204	14273.83
459.41	14028.07
459.616	13049.14
459.821	13129.02
460.027	12956.99
460.233	12784.96
460.438	12047.69
460.644	12209.48
460.85	11590.99
461.055	11437.39
461.261	11623.76
461.466	10782.04
461.672	10493.28
461.878	11216.21
462.083	10163.56
462.289	10120.55
462.494	10050.92
462.7	9749.87
462.905	9346.42
463.111	9766.25
463.316	9672.04
463.522	9448.82
463.727	9624.94
463.932	9391.47
464.138	9391.47
464.343	9487.73
464.549	9166.2
464.754	9575.79
464.959	9510.25
465.165	9401.71
465.37	9078.13
465.575	8555.9
465.781	9102.71
465.986	9117.04
466.191	8875.38
466.397	8508.8
466.602	8144.26
466.807	8646.01
467.012	8494.46
467.218	8351.1
467.423	8269.19
467.628	8457.6
467.833	8897.91
468.038	8557.95
468.244	8177.03
468.449	8574.33
468.654	8377.73
468.859	8183.17
469.064	8007.05
469.269	7855.5
469.474	7867.78
469.679	8275.33
469.885	7855.5
470.09	7812.49
470.295	7892.36
470.5	7712.14
470.705	7855.5
470.91	7593.36
471.115	7478.67
471.32	7617.93
471.525	7714.19
471.73	7495.05
471.935	7314.83
472.139	7155.09
472.344	7341.46
472.549	7245.2
472.754	7099.8
472.959	6886.81
473.164	6981.01
473.369	6880.66
473.574	6751.64
473.778	6776.22
473.983	6745.5
474.188	6702.49
474.393	6684.06
474.598	6534.56
474.802	6389.15
475.007	6315.42
475.212	6331.81
475.417	6315.42
475.621	6251.94
475.826	6028.71
476.031	5993.89
476.235	6045.09
476.44	6036.9
476.645	5897.64
476.849	5914.02
477.054	5969.32
477.259	5838.25
477.463	5868.97
477.668	5703.08
477.872	5926.31
478.077	5686.7
478.282	5430.7
478.486	5455.28
478.691	5492.14
478.895	5471.66
479.1	5348.78
479.304	5389.74
479.509	5176.75
479.713	5311.92
479.918	5150.13
480.122	5166.51
480.326	5299.63
480.531	5277.1
480.735	5184.94
480.94	5057.97
481.144	5230
481.348	5014.96
481.553	5115.31
481.757	5004.72
481.961	5111.22
482.166	5131.7
482.37	4971.96
482.574	4902.33
482.778	4849.08
482.983	5141.94
483.187	4957.62
483.391	5012.92
483.595	4945.33
483.8	4892.09
484.004	5135.79
484.208	5053.87
484.412	4961.72
484.616	5109.17
484.821	4892.09
485.025	4955.57
485.229	5074.35
485.433	4922.8
485.637	5148.08
485.841	4945.33
486.045	4896.18
486.249	4879.8
486.453	4892.09
486.657	4992.44
486.861	4955.57
487.065	4869.56
487.269	4996.53
487.473	4683.19
487.677	4984.24
487.881	5070.26
488.085	4855.22
488.289	4894.13
488.493	5121.46
488.697	5029.3
488.901	4984.24
489.105	4887.99
489.309	5100.98
489.512	4941.24
489.716	5080.5
489.92	5168.56
490.124	4957.62
490.328	5049.78
490.531	5080.5
490.735	5045.68
490.939	5078.45
491.143	5103.03
491.346	5096.88
491.55	5287.34
491.754	5166.51
491.958	5213.62
492.161	5342.64
492.365	5094.83
492.569	5471.66
492.772	5363.12
492.976	5434.8
493.18	5399.98
493.383	5455.28
493.587	5582.25
493.79	5502.38
493.994	5420.46
494.197	5701.03
494.401	5606.83
494.605	5684.65
494.808	5688.75
495.012	5512.62
495.215	5600.68
495.419	5795.24
495.622	5741.99
495.825	5881.25
496.029	5793.19
496.232	6026.66
496.436	6053.28
496.639	6264.22
496.843	6065.57
497.046	6309.28
497.249	6294.94
497.453	6389.15
497.656	6524.32
497.859	6546.84
498.063	6413.73
498.266	6858.14
498.469	6426.01
498.673	6571.42
498.876	6800.79
499.079	6888.85
499.282	6938.01
499.485	6964.63
499.689	7110.04
499.892	7165.33
500.095	7101.84
500.298	7581.07
500.501	7239.06
500.705	7529.87
500.908	7581.07
501.111	7861.64
501.314	7835.02
501.517	7804.3
501.72	7972.23
501.923	8142.21
502.126	8095.11
502.329	8342.91
502.532	8371.58
502.735	8277.38
502.938	8469.89
503.141	8594.81
503.344	8588.67
503.547	8766.84
503.75	8693.12
503.953	8985.97
504.156	9172.34
504.359	9295.22
504.562	9385.33
504.765	9530.73
504.968	9618.8
505.17	9686.38
505.373	9858.41
505.576	10155.37
505.779	9862.51
505.982	10063.21
506.185	10417.51
506.387	10530.14
506.59	10495.33
506.793	10730.84
506.996	10691.93
507.198	11199.83
507.401	11214.16
507.604	11183.45
507.807	11453.78
508.009	11496.78
508.212	11767.12
508.415	11797.84
508.617	11908.43
508.82	11728.21
509.022	11908.43
509.225	12326.21
509.428	12330.31
509.63	12479.81
509.833	12696.89
510.035	13124.92
510.238	12889.4
510.44	13147.45
510.643	13307.19
510.845	13540.66
511.048	13511.99
511.25	13849.9
511.453	13753.65
511.655	14257.45
511.858	14251.3
512.06	14314.79
512.262	14767.39
512.465	14695.71
512.667	14669.09
512.87	15093.02
513.072	15031.58
513.274	15613.2
513.477	15549.71
513.679	15971.6
513.881	16117
514.084	16221.45
514.286	15926.54
514.488	15969.55
514.69	16829.7
514.893	16911.61
515.095	17028.35
515.297	17042.68
515.499	17278.2
515.701	17478.9
515.904	17882.35
516.106	17800.43
516.308	18070.76
516.51	18365.67
516.712	18552.04
516.914	18742.5
517.116	19121.37
517.318	19170.52
517.52	19389.66
517.722	19281.11
517.925	19784.91
518.127	20012.24
518.329	20085.97
518.531	20036.81
518.733	20718.79
518.935	20778.18
519.136	20516.04
519.338	20892.87
519.54	21140.67
519.742	21355.71
519.944	21691.57
520.146	22029.49
520.348	21742.77
520.55	22226.09
520.752	22152.37
520.954	22607.02
521.155	22713.51
521.357	23020.7
521.559	23215.26
521.761	23577.75
521.963	23684.25
522.164	23530.65
522.366	23915.67
522.568	24224.91
522.77	24274.06
522.971	24368.27
523.173	24743.05
523.375	24870.02
523.576	24847.49
523.778	25007.23
523.98	25347.2
524.181	25664.63
524.383	25519.23
524.584	25777.27
524.786	25939.06
524.988	26033.27
525.189	26289.26
525.391	26356.85
525.592	26319.98
525.794	26598.51
525.995	26565.74
526.197	26827.88
526.398	26942.56
526.6	27169.89
526.801	27505.76
527.003	27241.57
527.204	27528.28
527.406	27632.73
527.607	27823.19
527.808	28365.9
528.01	27309.15
528.211	27894.87
528.412	28361.81
528.614	28304.46
528.815	28345.42
529.016	28726.35
529.218	28245.07
529.419	28843.08
529.62	28517.45
529.822	28515.4
530.023	28486.73
530.224	28748.87
530.425	28929.09
530.626	28623.95
530.828	28890.18
531.029	29140.04
531.23	28877.9
531.431	28984.39
531.632	29176.9
531.833	29529.15
532.035	29092.93
532.236	29520.96
532.437	29467.71
532.638	29283.39
532.839	29275.2
533.04	29533.25
533.241	29129.8
533.442	29733.95
533.643	29686.84
533.844	29549.63
534.045	29619.26
534.246	29277.25
534.447	29490.24
534.648	29359.17
534.849	29692.99
535.05	29516.86
535.251	29566.01
535.451	29731.9
535.652	29705.27
535.853	30073.91
536.054	29862.97
536.255	30233.65
536.456	29408.32
536.657	30082.1
536.857	29580.35
537.058	29633.6
537.259	29602.88
537.46	29754.43
537.66	29776.95
537.861	29760.57
538.062	29860.92
538.263	29779
538.463	29699.13
538.664	29832.25
538.865	30139.44
539.065	29930.55
539.266	29377.6
539.466	29680.7
539.667	29078.6
539.868	30192.69
540.068	29844.54
540.269	29705.27
540.469	30151.73
540.67	29916.22
540.87	29664.32
541.071	29441.09
541.271	30028.85
541.472	29844.54
541.672	29473.85
541.873	29533.25
542.073	29318.21
542.274	29791.29
542.474	29774.91
542.675	29305.92
542.875	29944.89
543.075	29535.29
543.276	29498.43
543.476	30176.31
543.676	29846.58
543.877	30073.91
544.077	29627.45
544.277	29633.6
544.478	29735.99
544.678	29928.5
544.878	29709.37
545.078	30032.95
545.279	29629.5
545.479	29316.16
545.679	29633.6
545.879	29776.95
546.079	29557.82
546.28	29883.45
546.48	29465.66
546.68	29600.83
546.88	30067.77
547.08	29965.37
547.28	29854.78
547.48	29449.28
547.68	29480
547.88	29318.21
548.081	29645.88
548.281	29494.33
548.481	29652.03
548.681	29754.43
548.881	29709.37
549.081	29201.47
549.28	29664.32
549.48	29969.46
549.68	29609.02
549.88	29922.36
550.08	29504.57
550.28	29432.89
550.48	29281.35
550.68	29735.99
550.88	29502.53
551.08	29412.42
551.279	29813.82
551.479	29404.22
551.679	29443.13
551.879	29289.54
552.079	29506.62
552.278	29152.32
552.478	29606.97
552.678	29340.74
552.878	29723.71
553.077	29619.26
553.277	29049.92
553.477	29340.74
553.676	29221.95
553.876	29316.16
554.076	29428.8
554.275	29211.71
554.475	29406.27
554.674	29156.42
554.874	29541.44
555.074	29254.72
555.273	29299.78
555.473	29490.24
555.672	28925
555.872	29006.92
556.071	29254.72
556.271	29183.04
556.47	28750.92
556.67	28908.61
556.869	28716.11
557.068	29285.44
557.268	28777.54
557.467	28937.29
557.667	28824.65
557.866	29099.08
558.065	28820.55
558.265	28673.1
558.464	28615.76
558.663	28863.56
558.863	28408.91
559.062	29029.45
559.261	28470.35
559.461	28607.56
559.66	28255.31
559.859	28648.52
560.058	28134.48
560.258	28423.25
560.457	28097.62
560.656	28370
560.855	28406.86
561.054	28066.9
561.253	28046.42
561.453	27948.12
561.652	27964.5
561.851	28079.19
562.05	27722.84
562.249	27868.25
562.448	28048.47
562.647	27815
562.846	27866.2
563.045	27714.65
563.244	27579.48
563.443	28081.24
563.642	27098.21
563.841	27485.28
564.04	27372.64
564.239	27769.94
564.438	27589.72
564.637	27559
564.836	27505.76
565.035	26958.95
565.234	27569.24
565.432	26872.93
565.631	26938.47
565.83	27053.16
566.029	27040.87
566.228	27032.68
566.427	26907.75
566.625	26860.65
566.824	26494.06
567.023	26770.54
567.222	26322.03
567.42	26788.97
567.619	26657.9
567.818	26514.54
568.016	26649.71
568.215	26563.69
568.414	26492.01
568.612	26647.66
568.811	26279.02
569.01	26328.17
569.208	25965.68
569.407	26416.24
569.605	25658.49
569.804	25832.57
570.002	25631.86
570.201	25828.47
570.4	25652.34
570.598	25683.06
570.797	25619.58
570.995	25279.61
571.193	25586.81
571.392	25373.82
571.59	25293.95
571.789	25195.65
571.987	25103.49
572.186	25191.55
572.384	25044.1
572.582	25121.92
572.781	25304.19
572.979	24867.97
573.177	24771.72
573.376	24378.51
573.574	24618.12
573.772	24771.72
573.971	24396.94
574.169	24136.85
574.367	24175.76
574.565	24218.77
574.763	23993.49
574.962	24069.26
575.16	23583.9
575.358	24452.23
575.556	23420.06
575.754	23868.56
575.952	23843.99
576.151	23798.93
576.349	23504.03
576.547	23463.07
576.745	23592.09
576.943	23559.32
577.141	23497.88
577.339	23315.61
577.537	23155.87
577.735	22996.13
577.933	23133.34
578.131	23202.97
578.329	22844.58
578.527	22633.64
578.725	22832.29
578.923	22797.48
579.121	22363.31
579.319	22523.05
579.516	22779.04
579.714	22717.61
579.912	22721.7
580.11	22355.11
580.308	22361.26
580.506	22009.01
580.704	21974.19
580.901	21857.46
581.099	22209.71
581.297	21888.18
581.495	21783.73
581.692	22131.89
581.89	22029.49
582.088	21802.16
582.285	21492.92
582.483	21785.78
582.681	21408.95
582.878	21306.55
583.076	21161.15
583.274	21384.38
583.471	21161.15
583.669	21431.48
583.866	21030.08
584.064	21331.13
584.262	20935.87
584.459	21224.64
584.657	20882.63
584.854	21003.46
585.052	20569.29
585.249	20856
585.447	20776.13
585.644	20466.89
585.841	20708.55
586.039	20679.88
586.236	20331.72
586.434	20257.99
586.631	20513.99
586.828	20401.35
587.026	20366.54
587.223	20389.06
587.42	20014.29
587.618	20212.94
587.815	19911.89
588.012	19969.23
588.21	20055.25
588.407	20057.29
588.604	19877.07
588.801	19598.55
588.999	19676.37
589.196	19477.72
589.393	19598.55
589.59	19447
589.787	19191
589.984	19303.64
590.182	19043.55
590.379	19197.15
590.576	18986.21
590.773	19137.76
590.97	19092.7
591.167	18844.9
591.364	18885.86
591.561	18857.18
591.758	18877.66
591.955	18881.76
592.152	18529.51
592.349	18631.91
592.546	18889.95
592.743	18623.72
592.94	18418.92
593.137	18486.5
593.334	18216.17
593.531	18060.52
593.727	18064.62
593.924	18177.26
594.121	17841.39
594.318	18253.03
594.515	17929.45
594.712	18097.39
594.908	17968.37
595.105	17861.87
595.302	17716.47
595.499	17720.56
595.696	17741.04
595.892	17874.16
596.089	17738.99
596.286	17579.25
596.482	17476.85
596.679	17579.25
596.876	17573.11
597.072	17526
597.269	17216.76
597.466	17083.64
597.662	17173.75
597.859	17274.1
598.055	17292.54
598.252	17073.4
598.448	17034.49
598.645	16747.78
598.841	16839.94
599.038	17153.27
599.234	16704.77
599.431	16776.45
599.627	16848.13
599.824	16719.1
600.02	16645.38
600.217	16811.26
600.413	16491.78
600.609	16432.39
600.806	16299.27
601.002	16295.18
601.198	16213.26
601.395	16117
601.591	16006.41
601.787	16229.64
601.984	16268.55
602.18	16192.78
602.376	15975.69
602.572	15822.09
602.769	15789.33
602.965	15639.83
603.161	16014.6
603.357	15578.39
603.553	15478.04
603.75	15715.6
603.946	15437.08
604.142	15670.54
604.338	15353.11
604.534	15519
604.73	15453.46
604.926	15314.2
605.122	15246.62
605.318	15230.23
605.514	15191.32
605.71	15021.34
605.906	15023.39
606.102	15228.18
606.298	15052.06
606.494	15072.54
606.69	14837.02
606.886	14916.89
607.082	14693.66
607.278	15007
607.474	14558.5
607.67	14783.77
607.866	14550.31
608.062	14478.63
608.257	14558.5
608.453	14441.76
608.649	14419.24
608.845	14404.9
609.041	14363.94
609.236	14234.92
609.432	14204.2
609.628	14333.22
609.824	14089.51
610.019	14138.66
610.215	13942.06
610.411	14253.35
610.606	13999.4
610.802	14015.79
610.998	13917.48
611.193	13970.73
611.389	13899.05
611.584	13645.1
611.78	13647.15
611.976	13690.16
612.171	13567.28
612.367	13624.62
612.562	13602.1
612.758	13608.24
612.953	13643.06
613.149	13536.56
613.344	13399.35
613.539	13448.5
613.735	13518.13
613.93	13641.01
614.126	13247.8
614.321	13354.29
614.517	13563.19
614.712	13096.25
614.907	13329.72
615.103	13020.47
615.298	13292.85
615.493	13008.19
615.688	12854.59
615.884	13133.11
616.079	12866.88
616.274	13163.83
616.47	13014.33
616.665	13073.72
616.86	12696.89
617.055	12727.61
617.25	12823.87
617.445	12784.96
617.641	12508.48
617.836	12436.8
618.031	12481.86
618.226	12582.21
618.421	12328.26
618.616	12590.4
618.811	12236.1
619.006	12567.87
619.201	12059.98
619.396	12154.18
619.591	12166.47
619.786	12039.5
619.981	11928.91
620.176	11988.3
620.371	11967.82
620.566	12223.81
620.761	11715.92
620.956	11834.7
621.151	11736.4
621.346	11838.8
621.541	11568.46
621.735	11887.95
621.93	11550.03
622.125	11595.09
622.32	11468.11
622.515	11361.62
622.709	11138.39
622.904	11349.33
623.099	11365.71
623.294	11289.94
623.488	11140.44
623.683	11205.97
623.878	11017.56
624.072	11097.43
624.267	11158.87
624.462	10958.17
624.656	10704.22
624.851	10560.86
625.046	10528.1
625.24	10509.66
625.435	10456.42
625.629	10388.83
625.824	10546.53
626.018	10423.65
626.213	10005.86
626.407	10065.25
626.602	10210.66
626.796	10063.21
626.991	10190.18
627.185	9870.7
627.38	10087.78
627.574	10081.64
627.768	9829.74
627.963	9854.31
628.157	9561.45
628.352	9803.11
628.546	9866.6
628.74	9674.09
628.935	9387.38
629.129	9633.13
629.323	9399.66
629.517	9418.1
629.712	9397.62
629.906	9313.65
630.1	9115
630.294	9313.65
630.489	9071.99
630.683	9241.97
630.877	8871.29
631.071	8861.05
631.265	9174.39
631.459	8883.58
631.653	8805.75
631.848	8742.27
632.042	8705.4
632.236	8719.74
632.43	8668.54
632.624	8732.03
632.818	8439.17
633.012	8451.46
633.206	8494.46
633.4	8637.82
633.594	8217.99
633.788	8330.62
633.982	8402.3
634.176	8433.02
634.369	8308.1
634.563	8091.01
634.757	8148.36
634.951	8007.05
635.145	8086.92
635.339	8062.34
635.533	8005
635.726	8005
635.92	7904.65
636.114	7929.22
636.308	7896.46
636.501	7767.43
636.695	7691.66
636.889	7667.08
637.083	7771.53
637.276	7419.28
637.47	7447.95
637.664	7462.29
637.857	7378.32
638.051	7536.01
638.244	7386.51
638.438	7400.85
638.632	7355.79
638.825	7265.68
639.019	7232.91
639.212	7255.44
639.406	7034.26
639.599	7064.98
639.793	7177.62
639.986	7003.54
640.18	7179.67
640.373	7083.41
640.567	6782.36
640.76	6864.28
640.954	6907.29
641.147	6958.49
641.34	6612.38
641.534	6714.78
641.727	6712.73
641.92	6602.14
642.114	6518.17
642.307	6675.87
642.5	6356.38
642.694	6417.82
642.887	6456.73
643.08	6350.24
643.273	6374.81
643.467	6319.52
643.66	6323.62
643.853	6206.88
644.046	6196.64
644.239	6104.48
644.432	6049.19
644.626	6079.91
644.819	6098.34
645.012	6067.62
645.205	5963.17
645.398	5836.2
645.591	5836.2
645.784	5729.7
645.977	5934.5
646.17	5844.39
646.363	5705.13
646.556	5852.58
646.749	5746.09
646.942	5658.03
647.135	5696.94
647.328	5567.92
647.521	5486
647.714	5475.76
647.907	5479.85
648.099	5488.04
648.292	5416.37
648.485	5348.78
648.678	5326.25
648.871	5385.65
649.064	5279.15
649.256	5359.02
649.449	5201.33
649.642	5098.93
649.835	5047.73
650.027	5053.87
650.22	5342.64
650.413	5096.88
650.605	4924.85
650.798	4908.47
650.991	5006.77
651.183	4865.46
651.376	4773.3
651.568	5004.72
651.761	4744.63
651.954	4767.16
652.146	4849.08
652.339	4902.33
652.531	4750.78
652.724	4711.86
652.916	4652.47
653.109	4675
653.301	4650.43
653.494	4822.45
653.686	4511.16
653.879	4580.79
654.071	4693.43
654.263	4494.78
654.456	4623.8
654.648	4527.55
654.84	4462.01
655.033	4318.65
655.225	4357.57
655.417	4439.48
655.61	4365.76
655.802	4349.37
655.994	4257.22
656.186	4160.96
656.379	4251.07
656.571	4263.36
656.763	4076.99
656.955	4085.19
657.148	4064.71
657.34	4083.14
657.532	4083.14
657.724	4036.03
657.916	4033.99
658.108	4015.55
658.3	3800.52
658.492	3968.45
658.684	3866.05
658.876	3878.34
659.068	3829.19
659.26	3833.29
659.452	3780.04
659.644	3759.56
659.836	3749.32
660.028	3653.06
660.22	3767.75
660.412	3749.32
660.604	3728.84
660.796	3569.1
660.988	3687.88
661.18	3526.09
661.372	3622.34
661.563	3597.77
661.755	3427.79
661.947	3546.57
662.139	3444.17
662.331	3366.35
662.522	3462.6
662.714	3460.56
662.906	3431.88
663.097	3276.24
663.289	3235.28
663.481	3354.06
663.673	3450.32
663.864	3358.16
664.056	3034.58
664.247	3270.09
664.439	3300.81
664.631	3235.28
664.822	3284.43
665.014	3112.4
665.205	3077.59
665.397	3171.79
665.588	3182.03
665.78	3163.6
665.971	3112.4
666.163	3175.89
666.354	3034.58
666.546	3046.87
666.737	2987.47
666.929	3014.1
667.12	2975.19
667.311	2946.52
667.503	2956.75
667.694	3042.77
667.885	2889.17
668.077	2887.12
668.268	2737.62
668.459	2829.78
668.651	2772.44
668.842	2735.57
669.033	2741.72
669.224	2821.59
669.416	2848.21
669.607	2715.09
669.798	2786.77
669.989	2842.07
670.18	2676.18
670.371	2727.38
670.563	2692.57
670.754	2721.24
670.945	2631.13
671.136	2706.9
671.327	2575.83
671.518	2686.42
671.709	2653.66
671.9	2629.08
672.091	2586.07
672.282	2692.57
672.473	2756.05
672.664	2631.13
672.855	2565.59
673.046	2682.33
673.237	2614.74
673.428	2596.31
673.619	2598.36
673.809	2489.82
674	2551.26
674.191	2498.01
674.382	2563.54
674.573	2624.98
674.764	2504.15
674.954	2680.28
675.145	2389.47
675.336	2473.43
675.527	2412
675.717	2481.63
675.908	2442.71
676.099	2471.39
676.289	2319.84
676.48	2543.07
676.671	2401.76
676.861	2434.52
677.052	2459.1
677.243	2346.46
677.433	2485.72
677.624	2342.36
677.814	2278.88
678.005	2457.05
678.195	2311.64
678.386	2342.36
678.576	2280.93
678.767	2196.96
678.957	2364.89
679.148	2381.28
679.338	2242.01
679.529	2293.21
679.719	2254.3
679.909	2274.78
680.1	2297.31
680.29	2248.16
680.481	2270.69
680.671	2285.02
680.861	2268.64
681.052	2246.11
681.242	2141.66
681.432	2278.88
681.622	2291.17
681.813	2203.1
682.003	2268.64
682.193	2166.24
682.383	2217.44
682.573	2239.97
682.764	2090.46
682.954	2233.82
683.144	2156
683.334	2207.2
683.524	2209.25
683.714	2233.82
683.904	2221.53
684.094	2188.77
684.284	2328.03
684.474	2270.69
684.664	2135.52
684.854	2084.32
685.044	2145.76
685.234	2084.32
685.424	2268.64
685.614	2151.9
685.804	2254.3
685.994	2164.19
686.184	2104.8
686.374	2160.1
686.564	2219.49
686.753	2201.05
686.943	2008.55
687.133	2147.81
687.323	2156
687.513	2149.86
687.702	2186.72
687.892	2156
688.082	2106.85
688.272	2149.86
688.461	2067.94
688.651	2074.08
688.841	2063.84
689.03	2016.74
689.22	2072.03
689.41	1973.73
689.599	2108.9
689.789	2121.18
689.979	2098.66
690.168	2147.81
690.358	1992.16
690.547	1979.87
690.737	1994.21
690.926	2016.74
691.116	2076.13
691.305	2041.31
691.495	1953.25
691.684	2002.4
691.874	2055.65
692.063	2072.03
692.252	1932.77
692.442	2219.49
692.631	2006.5
692.82	1965.54
693.01	2145.76
693.199	2121.18
693.388	2225.63
693.578	2137.57
693.767	1947.11
693.956	1979.87
694.146	2047.46
694.335	2074.08
694.524	2000.35
694.713	2018.79
694.902	2074.08
695.092	2049.5
695.281	1988.07
695.47	2029.03
695.659	2049.5
695.848	1983.97
696.037	2010.59
696.226	1928.67
696.415	2092.51
696.604	2006.5
696.793	2033.12
696.982	2024.93
697.171	2002.4
697.36	1928.67
697.549	2096.61
697.738	2055.65
697.927	2051.55
698.116	1998.31
698.305	2031.07
698.494	1955.3
698.683	1969.63
698.872	2018.79
699.061	1983.97
699.25	1928.67
699.438	1973.73
699.627	2041.31
699.816	2024.93
700.005	2024.93
700.193	2020.83
700.382	2049.5
700.571	2008.55
700.76	1983.97
700.948	1957.35
701.137	1959.39
701.326	1988.07
701.514	2045.41
701.703	2051.55
701.892	1908.19
702.08	2022.88
702.269	2029.03
702.457	2002.4
702.646	1990.11
702.834	1900
703.023	1926.63
703.212	1973.73
703.4	1904.1
703.589	1932.77
703.777	1842.66
703.965	2016.74
704.154	1895.91
704.342	1912.29
704.531	2031.07
704.719	1949.15
704.907	1934.82
705.096	1879.52
705.284	1787.36
705.472	1961.44
705.661	1842.66
705.849	1914.34
706.037	1912.29
706.226	1852.9
706.414	1920.48
706.602	1887.72
706.79	1965.54
706.979	1879.52
707.167	1883.62
707.355	1992.16
707.543	1900
707.731	1783.27
707.919	1895.91
708.107	1730.02
708.296	1807.84
708.484	1770.98
708.672	1816.04
708.86	1811.94
709.048	1756.65
709.236	1727.97
709.424	1760.74
709.612	1795.56
709.8	1910.24
709.988	1832.42
710.176	1791.46
710.364	1805.8
710.551	1744.36
710.739	1787.36
710.927	1715.69
711.115	1795.56
711.303	1793.51
711.491	1797.6
711.679	1617.38
711.866	1678.82
712.054	1723.88
712.242	1816.04
712.43	1762.79
712.617	1709.54
712.805	1736.17
712.993	1773.03
713.181	1637.86
713.368	1648.1
713.556	1701.35
713.744	1752.55
713.931	1697.25
714.119	1693.16
714.306	1613.29
714.494	1621.48
714.682	1629.67
714.869	1633.77
715.057	1691.11
715.244	1625.58
715.432	1648.1
715.619	1596.9
715.807	1576.42
715.994	1654.25
716.182	1525.22
716.369	1691.11
716.556	1596.9
716.744	1562.09
716.931	1551.85
717.119	1508.84
717.306	1531.37
717.493	1590.76
717.681	1562.09
717.868	1490.41
718.055	1555.94
718.242	1576.42
718.43	1510.89
718.617	1584.62
718.804	1521.13
718.991	1607.14
719.179	1482.22
719.366	1564.14
719.553	1402.35
719.74	1496.55
719.927	1555.94
720.114	1476.07
720.301	1383.91
720.488	1336.81
720.676	1441.26
720.863	1465.83
721.05	1457.64
721.237	1414.63
721.424	1439.21
721.611	1381.87
721.798	1385.96
721.985	1402.35
722.172	1478.12
722.358	1490.41
722.545	1377.77
722.732	1318.38
722.919	1396.2
723.106	1338.86
723.293	1463.79
723.48	1426.92
723.667	1363.44
723.853	1398.25
724.04	1293.8
724.227	1316.33
724.414	1383.91
724.6	1375.72
724.787	1383.91
724.974	1381.87
725.161	1342.96
725.347	1271.28
725.534	1250.8
725.72	1383.91
725.907	1256.94
726.094	1363.44
726.28	1349.1
726.467	1297.9
726.653	1318.38
726.84	1277.42
727.027	1299.95
727.213	1320.43
727.4	1218.03
727.586	1258.99
727.773	1224.17
727.959	1142.25
728.145	1314.28
728.332	1195.5
728.518	1236.46
728.705	1185.26
728.891	1191.41
729.077	1254.89
729.264	1279.47
729.45	1228.27
729.636	1258.99
729.823	1230.32
730.009	1256.94
730.195	1283.56
730.382	1146.35
730.568	1250.8
730.754	1199.6
730.94	1154.54
731.126	1246.7
731.313	1166.83
731.499	1156.59
731.685	1269.23
731.871	1179.12
732.057	1179.12
732.243	1132.01
732.429	1095.15
732.615	1187.31
732.801	1162.73
732.987	1222.13
733.173	1097.2
733.359	1146.35
733.545	1138.16
733.731	1138.16
733.917	1152.49
734.103	1150.45
734.289	1138.16
734.475	1107.44
734.661	1140.21
734.847	1158.64
735.033	1082.86
735.219	1103.34
735.404	1052.14
735.59	1052.14
735.776	1121.77
735.962	1084.91
736.148	1066.48
736.333	1058.29
736.519	1095.15
736.705	1105.39
736.89	1103.34
737.076	1125.87
737.262	1093.1
737.447	1060.34
737.633	1017.33
737.819	1091.06
738.004	1082.86
738.19	957.94
738.375	1089.01
738.561	1043.95
738.747	982.51
738.932	1072.62
739.118	1062.38
739.303	1080.82
739.489	992.75
739.674	1054.19
739.859	978.42
740.045	1058.29
740.23	1050.1
740.416	1031.66
740.601	982.51
740.786	953.84
740.972	1025.52
741.157	908.79
741.342	982.51
741.528	929.27
741.713	884.21
741.898	896.5
742.084	1000.94
742.269	880.11
742.454	953.84
742.639	871.92
742.824	953.84
743.01	896.5
743.195	845.3
743.38	994.8
743.565	914.93
743.75	900.59
743.935	935.41
744.12	984.56
744.305	886.26
744.49	894.45
744.675	902.64
744.86	833.01
745.045	919.03
745.23	853.49
745.415	853.49
745.6	863.73
745.785	876.02
745.97	826.87
746.155	787.96
746.34	896.5
746.525	810.48
746.71	888.31
746.895	851.44
747.079	824.82
747.264	796.15
747.449	830.96
747.634	773.62
747.819	802.29
748.003	851.44
748.188	792.05
748.373	871.92
748.557	718.33
748.742	824.82
748.927	796.15
749.111	835.06
749.296	794.1
749.481	720.37
749.665	759.28
749.85	804.34
750.034	804.34
750.219	859.63
750.404	730.61
750.588	726.52
750.773	687.61
750.957	798.2
751.141	681.46
751.326	648.69
751.51	730.61
751.695	679.41
751.879	753.14
752.064	783.86
752.248	732.66
752.432	654.84
752.617	689.65
752.801	654.84
752.985	650.74
753.17	691.7
753.354	663.03
753.538	628.21
753.722	663.03
753.907	734.71
754.091	646.65
754.275	652.79
754.459	617.97
754.643	591.35
754.828	550.39
755.012	585.21
755.196	630.26
755.38	564.73
755.564	757.24
755.748	597.49
755.932	546.3
756.116	589.3
756.3	648.69
756.484	611.83
756.668	564.73
756.852	531.96
757.036	523.77
757.22	630.26
757.404	589.3
757.588	585.21
757.772	673.27
757.956	531.96
758.14	665.08
758.323	634.36
758.507	597.49
758.691	591.35
758.875	587.26
759.059	560.63
759.242	513.53
759.426	540.15
759.61	431.61
759.794	450.04
759.977	515.58
760.161	529.91
760.345	538.1
760.528	452.09
760.712	507.38
760.895	507.38
761.079	474.62
761.263	509.43
761.446	517.62
761.63	484.86
761.813	476.66
761.997	476.66
762.18	421.37
762.364	529.91
762.547	511.48
762.731	435.71
762.914	523.77
763.098	464.38
763.281	460.28
763.464	417.27
763.648	531.96
763.831	501.24
764.015	441.85
764.198	474.62
764.381	404.99
764.564	445.95
764.748	493.05
764.931	452.09
765.114	466.42
765.297	486.9
765.481	390.65
765.664	450.04
765.847	458.23
766.03	540.15
766.213	441.85
766.397	445.95
766.58	419.32
766.763	409.08
766.946	458.23
767.129	493.05
767.312	415.23
767.495	525.82
767.678	409.08
767.861	443.9
768.044	392.7
768.227	439.8
768.41	456.19
768.593	470.52
768.776	452.09
768.959	378.36
769.142	466.42
769.324	394.75
769.507	421.37
769.69	378.36
769.873	482.81
770.056	396.79
770.239	378.36
770.421	433.66
770.604	443.9
770.787	433.66
770.97	353.79
771.152	396.79
771.335	404.99
771.518	472.57
771.7	433.66
771.883	468.47
772.066	417.27
772.248	339.45
772.431	372.22
772.613	437.75
772.796	351.74
772.978	341.5
773.161	376.31
773.343	474.62
773.526	388.6
773.708	314.88
773.891	282.11
774.073	392.7
774.256	333.31
774.438	445.95
774.621	392.7
774.803	400.89
774.985	314.88
775.168	347.64
775.35	376.31
775.532	351.74
775.715	327.16
775.897	351.74
776.079	308.73
776.261	327.16
776.444	347.64
776.626	261.63
776.808	419.32
776.99	306.68
777.173	355.83
777.355	368.12
777.537	251.39
777.719	292.35
777.901	380.41
778.083	259.58
778.265	339.45
778.447	364.03
778.629	314.88
778.811	329.21
778.993	310.78
779.175	359.93
779.357	359.93
779.539	425.47
779.721	335.35
779.903	318.97
780.085	228.86
780.267	255.48
780.449	312.83
780.631	329.21
780.812	333.31
780.994	230.91
781.176	249.34
781.358	306.68
781.54	310.78
781.721	263.68
781.903	251.39
782.085	271.87
782.267	284.16
782.448	253.44
782.63	265.72
782.812	255.48
782.993	314.88
783.175	200.19
783.357	321.02
783.538	245.24
783.72	206.33
783.901	290.3
784.083	263.68
784.264	202.24
784.446	208.38
784.627	198.14
784.809	235
784.99	286.2
785.172	220.67
785.353	183.81
785.535	208.38
785.716	286.2
785.897	200.19
786.079	232.96
786.26	333.31
786.441	241.15
786.623	310.78
786.804	202.24
786.985	185.85
787.167	273.92
787.348	208.38
787.529	214.52
787.71	185.85
787.891	224.76
788.073	220.67
788.254	183.81
788.435	189.95
788.616	198.14
788.797	151.04
788.978	222.72
789.159	179.71
789.34	179.71
789.522	157.18
789.703	142.85
789.884	230.91
790.065	187.9
790.246	271.87
790.427	181.76
790.607	208.38
790.788	159.23
790.969	179.71
791.15	228.86
791.331	142.85
791.512	187.9
791.693	140.8
791.874	151.04
792.054	220.67
792.235	198.14
792.416	157.18
792.597	171.52
792.778	212.48
792.958	157.18
793.139	171.52
793.32	181.76
793.5	138.75
793.681	124.41
793.862	232.96
794.042	196.09
794.223	126.46
794.404	105.98
794.584	99.84
794.765	144.89
794.945	103.93
795.126	155.13
795.306	136.7
795.487	142.85
795.667	179.71
795.848	220.67
796.028	83.45
796.209	255.48
796.389	60.93
796.57	140.8
796.75	40.45
796.93	83.45
797.111	101.89
797.291	214.52
797.471	198.14
797.652	232.96
797.832	171.52
798.012	169.47
798.192	105.98
798.373	140.8
798.553	126.46
798.733	140.8
798.913	128.51
799.093	169.47
799.274	108.03
799.454	128.51
799.634	157.18
799.814	171.52
799.994	118.27
800.174	114.17
800.354	99.84
800.534	128.51
800.714	101.89
800.894	130.56
801.074	136.7
801.254	110.08
801.434	44.54
801.614	165.37
801.794	110.08
801.974	288.25
802.154	148.99
802.334	65.02
802.514	110.08
802.693	153.09
802.873	75.26
803.053	97.79
803.233	89.6
803.413	108.03
803.592	93.69
803.772	97.79
803.952	93.69
804.131	114.17
804.311	58.88
804.491	87.55
804.67	140.8
804.85	75.26
805.03	132.61
805.209	105.98
805.389	93.69
805.568	81.41
805.748	120.32
805.928	116.22
806.107	105.98
806.287	132.61
806.466	62.98
806.646	81.41
806.825	118.27
807.004	97.79
807.184	75.26
807.363	241.15
807.543	69.12
807.722	58.88
807.901	26.11
808.081	75.26
808.26	110.08
808.439	108.03
808.619	75.26
808.798	56.83
808.977	101.89
809.156	36.35
809.336	60.93
809.515	50.69
809.694	52.74
809.873	44.54
810.052	-2.56
810.231	73.21
810.411	171.52
810.59	91.65
810.769	36.35
810.948	83.45
811.127	89.6
811.306	50.69
811.485	24.06
811.664	58.88
811.843	24.06
812.022	65.02
812.201	42.5
812.38	32.26
812.559	73.21
812.737	112.13
812.916	67.07
813.095	32.26
813.274	13.82
813.453	9.73
813.632	67.07
813.811	85.5
813.989	44.54
814.168	19.97
814.347	1.54
814.526	75.26
814.704	28.16
814.883	124.41
815.062	42.5
815.24	91.65
815.419	7.68
815.598	97.79
815.776	120.32
815.955	99.84
816.133	9.73
816.312	105.98
816.49	69.12
816.669	56.83
816.847	83.45
817.026	58.88
817.204	42.5
817.383	75.26
817.561	26.11
817.74	93.69
817.918	101.89
818.097	73.21
818.275	50.69
818.453	69.12
818.632	38.4
818.81	15.87
818.988	52.74
819.167	48.64
819.345	28.16
819.523	73.21
819.701	48.64
819.879	36.35
820.058	28.16
820.236	89.6
820.414	28.16
820.592	128.51
820.77	9.73
820.948	99.84
821.127	95.74
821.305	-8.7
821.483	26.11
821.661	58.88
821.839	79.36
822.017	38.4
822.195	56.83
822.373	58.88
822.551	24.06
822.729	9.73
822.907	46.59
823.085	38.4
823.262	17.92
823.44	81.41
823.618	73.21
823.796	44.54
823.974	38.4
824.152	83.45
824.329	-25.09
824.507	97.79
824.685	7.68
824.863	93.69
825.04	73.21
825.218	34.3
825.396	40.45
825.574	26.11
825.751	81.41
825.929	126.46
826.107	30.21
826.284	91.65
826.462	91.65
826.639	110.08
826.817	71.17
826.994	24.06
827.172	50.69
827.349	71.17
827.527	-6.66
827.704	87.55
827.882	54.78
828.059	-0.51
828.237	60.93
828.414	67.07
828.591	38.4
828.769	132.61
828.946	34.3
829.124	3.58
829.301	103.93
829.478	-0.51
829.655	58.88
829.833	24.06
830.01	-18.94
830.187	71.17
830.364	46.59
830.542	56.83
830.719	36.35
830.896	52.74
831.073	17.92
831.25	-10.75
831.427	42.5
831.604	79.36
831.782	52.74
831.959	9.73
832.136	-18.94
832.313	56.83
832.49	1.54
832.667	26.11
832.844	48.64
833.021	105.98
833.198	-53.76
833.374	75.26
833.551	56.83
833.728	110.08
833.905	101.89
834.082	22.02
834.259	52.74
834.436	81.41
834.612	36.35
834.789	65.02
834.966	26.11
835.143	24.06
835.319	52.74
835.496	93.69
835.673	48.64
835.85	58.88
836.026	15.87
836.203	112.13
836.38	-29.18
836.556	26.11
836.733	-0.51
836.909	99.84
837.086	-41.47
837.262	95.74
837.439	-2.56
837.616	-2.56
837.792	15.87
837.968	56.83
838.145	50.69
838.321	83.45
838.498	9.73
838.674	87.55
838.851	7.68
839.027	32.26
839.203	-20.99
839.38	87.55
839.556	36.35
839.732	56.83
839.909	15.87
840.085	42.5
840.261	22.02
840.437	71.17
840.614	11.78
840.79	11.78
840.966	60.93
841.142	19.97
841.318	54.78
841.494	75.26
841.671	77.31
841.847	-33.28
842.023	-20.99
842.199	48.64
842.375	-12.8
842.551	-8.7
842.727	75.26
842.903	11.78
843.079	-8.7
843.255	69.12
843.431	-16.9
843.607	79.36
843.783	34.3
843.959	-16.9
844.134	24.06
844.31	-0.51
844.486	17.92
844.662	26.11
844.838	-16.9
845.013	15.87
845.189	3.58
845.365	60.93
845.541	48.64
845.716	99.84
845.892	19.97
846.068	40.45
846.244	15.87
846.419	-25.09
846.595	81.41
846.77	-39.42
846.946	77.31
847.122	30.21
847.297	-8.7
847.473	71.17
847.648	-25.09
847.824	9.73
847.999	-0.51
848.175	-61.95
848.35	19.97
848.526	56.83
848.701	32.26
848.876	48.64
849.052	-61.95
849.227	24.06
849.403	48.64
849.578	65.02
849.753	34.3
849.929	50.69
850.104	24.06
850.279	101.89
850.454	38.4
850.63	122.37
850.805	-66.05
850.98	19.97
851.155	-4.61
851.33	13.82
851.505	24.06
851.681	-4.61
851.856	3.58
852.031	56.83
852.206	15.87
852.381	50.69
852.556	24.06
852.731	114.17
852.906	17.92
853.081	22.02
853.256	-23.04
853.431	89.6
853.606	19.97
853.781	9.73
853.956	-47.62
854.131	-4.61
854.305	60.93
854.48	46.59
854.655	-29.18
854.83	3.58
855.005	9.73
855.18	24.06
855.354	69.12
855.529	65.02
855.704	73.21
855.879	15.87
856.053	1.54
856.228	-12.8
856.403	48.64
856.577	93.69
856.752	-14.85
856.926	-16.9
857.101	11.78
857.276	22.02
857.45	15.87
857.625	-8.7
857.799	-8.7
857.974	52.74
858.148	5.63
858.323	22.02
858.497	-12.8
858.672	-66.05
858.846	-20.99
859.02	15.87
859.195	58.88
859.369	58.88
859.543	-14.85
859.718	56.83
859.892	24.06
860.066	77.31
860.241	-20.99
860.415	22.02
860.589	-14.85
860.763	52.74
860.938	-29.18
861.112	-33.28
861.286	34.3
861.46	60.93
861.634	-8.7
861.808	-6.66
861.982	-27.14
862.157	81.41
862.331	9.73
862.505	-29.18
862.679	-59.9
862.853	28.16
863.027	-47.62
863.201	50.69
863.375	-33.28
863.549	-20.99
863.722	-18.94
863.896	42.5
864.07	40.45
864.244	28.16
864.418	-57.86
864.592	91.65
864.766	-16.9
864.939	65.02
865.113	44.54
865.287	22.02
865.461	24.06
865.634	-12.8
865.808	3.58
865.982	42.5
866.156	-2.56
866.329	19.97
866.503	-2.56
866.676	50.69
866.85	30.21
867.024	50.69
867.197	-35.33
867.371	-27.14
867.544	62.98
867.718	-4.61
867.891	-66.05
868.065	24.06
868.238	-20.99
868.412	-20.99
868.585	-4.61
868.759	-18.94
868.932	75.26
869.105	-23.04
869.279	-47.62
869.452	36.35
869.625	15.87
869.799	3.58
869.972	-49.66
870.145	46.59
870.319	60.93
870.492	3.58
870.665	56.83
870.838	-20.99
871.011	15.87
871.185	-61.95
871.358	19.97
871.531	-14.85
871.704	-49.66
871.877	-31.23
872.05	-10.75
872.223	56.83
872.396	-0.51
872.569	7.68
872.742	-37.38
872.915	28.16
873.088	-45.57
873.261	-49.66
873.434	58.88
873.607	40.45
873.78	40.45
873.953	19.97
874.126	34.3
874.299	34.3
874.471	7.68
874.644	-39.42
874.817	36.35
874.99	73.21
875.163	67.07
875.335	58.88
875.508	9.73
875.681	24.06
875.853	-25.09
876.026	-47.62
876.199	-4.61
876.371	26.11
876.544	-16.9
876.717	-23.04
876.889	65.02
877.062	-33.28
877.234	-45.57
877.407	7.68
877.579	60.93
877.752	3.58
877.924	-10.75
878.097	-8.7
878.269	19.97
878.442	48.64
878.614	54.78
878.786	-39.42
878.959	46.59
879.131	32.26
879.303	-4.61
879.476	-25.09
879.648	36.35
879.82	30.21
879.993	-16.9
880.165	5.63
880.337	-10.75
880.509	24.06
880.681	-2.56
880.854	19.97
881.026	-35.33
881.198	-25.09
881.37	-8.7
881.542	24.06
881.714	19.97
881.886	-10.75
882.058	15.87
882.23	-33.28
882.402	15.87
882.574	-31.23
882.746	19.97
882.918	89.6
883.09	58.88
883.262	48.64
883.434	50.69
883.606	-57.86
883.778	-53.76
883.95	-10.75
884.122	40.45
884.293	32.26
884.465	60.93
884.637	-25.09
884.809	-41.47
884.98	-10.75
885.152	-10.75
885.324	13.82
885.496	28.16
885.667	1.54
885.839	-0.51
886.011	11.78
886.182	1.54
886.354	15.87
886.525	24.06
886.697	-37.38
886.869	-23.04
887.04	60.93
887.212	28.16
887.383	-16.9
887.555	-31.23
887.726	-61.95
887.897	-33.28
888.069	58.88
888.24	69.12
888.412	26.11
888.583	48.64
888.754	73.21
888.926	5.63
889.097	24.06
889.268	40.45
889.44	-27.14
889.611	-14.85
889.782	-14.85
889.953	34.3
890.125	24.06
890.296	-12.8
890.467	-33.28
890.638	22.02
890.809	-82.43
890.98	-49.66
891.151	17.92
891.323	3.58
891.494	17.92
891.665	-23.04
891.836	7.68
892.007	-12.8
892.178	11.78
892.349	42.5
892.52	32.26
892.691	-8.7
892.862	50.69
893.032	-43.52
893.203	-25.09
893.374	-8.7
893.545	-8.7
893.716	11.78
893.887	-23.04
894.057	-33.28
894.228	44.54
894.399	11.78
894.57	24.06
894.74	28.16
894.911	42.5
895.082	1.54
895.253	24.06
895.423	13.82
895.594	-12.8
895.764	-33.28
895.935	42.5
896.106	60.93
896.276	7.68
896.447	28.16
896.617	15.87
896.788	26.11
896.958	-66.05
897.129	30.21
897.299	-14.85
897.47	46.59
897.64	26.11
897.81	-4.61
897.981	48.64
898.151	19.97
898.322	32.26
898.492	-29.18
898.662	60.93
898.832	3.58
899.003	17.92
899.173	7.68
899.343	-66.05
899.513	-23.04
