Data from USB4F104151__122__13-57-52-844.txt Node

Date: Thu Mar 13 13:57:52 EDT 2025
User: louis
Spectrometer: USB4F10415
Trigger mode: 4
Integration Time (sec): 1.000000E-2
Scans to average: 1
Electric dark correction enabled: true
Nonlinearity correction enabled: false
Boxcar width: 0
XAxis mode: Wavelengths
Number of Pixels in Spectrum: 3648
>>>>>Begin Spectral Data<<<<<
178.204	-83.11
178.424	-83.11
178.644	-83.11
178.864	-74.92
179.084	-79.02
179.304	-5.29
179.524	-13.48
179.744	-17.58
179.964	84.82
180.184	7
180.404	-15.53
180.624	-25.77
180.844	-9.39
181.064	-66.73
181.283	-1.19
181.503	74.58
181.723	-11.43
181.943	-13.48
182.163	43.86
182.383	-29.87
182.602	66.39
182.822	35.67
183.042	47.96
183.262	64.34
183.482	-1.19
183.701	39.76
183.921	54.1
184.141	19.29
184.361	-19.63
184.58	21.33
184.8	9.05
185.02	-7.34
185.239	21.33
185.459	41.81
185.679	33.62
185.898	-31.91
186.118	-33.96
186.338	39.76
186.557	-1.19
186.777	35.67
186.997	21.33
187.216	-13.48
187.436	47.96
187.655	17.24
187.875	86.87
188.095	-46.25
188.314	4.95
188.534	-15.53
188.753	50
188.973	-23.72
189.192	-56.49
189.412	-54.44
189.631	23.38
189.851	21.33
190.07	80.72
190.29	47.96
190.509	31.57
190.729	66.39
190.948	-5.29
191.168	0.85
191.387	-13.48
191.607	17.24
191.826	37.72
192.045	33.62
192.265	-64.68
192.484	33.62
192.704	52.05
192.923	45.91
193.142	70.48
193.362	29.52
193.581	31.57
193.8	27.48
194.02	41.81
194.239	23.38
194.458	9.05
194.678	50
194.897	41.81
195.116	4.95
195.335	54.1
195.555	29.52
195.774	2.9
195.993	-23.72
196.212	-13.48
196.432	52.05
196.651	-7.34
196.87	41.81
197.089	66.39
197.308	43.86
197.528	-7.34
197.747	-21.67
197.966	11.09
198.185	54.1
198.404	-9.39
198.623	-3.24
198.842	56.15
199.062	50
199.281	47.96
199.5	-3.24
199.719	-1.19
199.938	80.72
200.157	-50.35
200.376	17.24
200.595	27.48
200.814	7
201.033	-11.43
201.252	4.95
201.471	29.52
201.69	23.38
201.909	88.92
202.128	2.9
202.347	-9.39
202.566	17.24
202.785	25.43
203.004	-11.43
203.223	52.05
203.442	33.62
203.661	17.24
203.879	39.76
204.098	50
204.317	-21.67
204.536	60.24
204.755	17.24
204.974	-9.39
205.193	-15.53
205.411	31.57
205.63	9.05
205.849	-1.19
206.068	-40.11
206.287	52.05
206.505	43.86
206.724	15.19
206.943	-48.3
207.162	17.24
207.381	11.09
207.599	27.48
207.818	-89.26
208.037	58.2
208.255	39.76
208.474	21.33
208.693	56.15
208.911	35.67
209.13	39.76
209.349	72.53
209.567	43.86
209.786	9.05
210.005	-15.53
210.223	-9.39
210.442	9.05
210.661	115.54
210.879	35.67
211.098	39.76
211.316	35.67
211.535	-3.24
211.753	-5.29
211.972	25.43
212.191	-3.24
212.409	27.48
212.628	86.87
212.846	7
213.065	37.72
213.283	58.2
213.502	33.62
213.72	11.09
213.938	25.43
214.157	117.59
214.375	37.72
214.594	-33.96
214.812	-5.29
215.031	27.48
215.249	-9.39
215.467	-33.96
215.686	52.05
215.904	15.19
216.122	43.86
216.341	-7.34
216.559	13.14
216.778	39.76
216.996	15.19
217.214	54.1
217.432	60.24
217.651	-9.39
217.869	31.57
218.087	19.29
218.306	15.19
218.524	29.52
218.742	13.14
218.96	60.24
219.179	19.29
219.397	-1.19
219.615	74.58
219.833	78.68
220.051	47.96
220.27	23.38
220.488	50
220.706	47.96
220.924	4.95
221.142	33.62
221.36	66.39
221.578	47.96
221.796	23.38
222.015	-36.01
222.233	-56.49
222.451	109.4
222.669	21.33
222.887	41.81
223.105	-66.73
223.323	25.43
223.541	43.86
223.759	39.76
223.977	9.05
224.195	11.09
224.413	97.11
224.631	23.38
224.849	99.16
225.067	23.38
225.285	17.24
225.503	9.05
225.721	-1.19
225.939	41.81
226.157	-13.48
226.375	99.16
226.592	-5.29
226.81	33.62
227.028	64.34
227.246	90.96
227.464	23.38
227.682	23.38
227.9	-21.67
228.117	-56.49
228.335	23.38
228.553	58.2
228.771	23.38
228.989	50
229.206	54.1
229.424	11.09
229.642	7
229.86	27.48
230.077	35.67
230.295	23.38
230.513	56.15
230.731	27.48
230.948	19.29
231.166	31.57
231.384	17.24
231.601	113.49
231.819	-5.29
232.037	-1.19
232.254	4.95
232.472	52.05
232.689	29.52
232.907	-27.82
233.125	15.19
233.342	58.2
233.56	7
233.777	39.76
233.995	23.38
234.213	54.1
234.43	7
234.648	39.76
234.865	39.76
235.083	45.91
235.3	-23.72
235.518	-9.39
235.735	27.48
235.953	19.29
236.17	-21.67
236.388	-56.49
236.605	29.52
236.822	11.09
237.04	52.05
237.257	-15.53
237.475	-15.53
237.692	64.34
237.909	-5.29
238.127	31.57
238.344	58.2
238.562	21.33
238.779	-50.35
238.996	19.29
239.214	31.57
239.431	4.95
239.648	54.1
239.865	56.15
240.083	-11.43
240.3	70.48
240.517	25.43
240.735	13.14
240.952	-23.72
241.169	19.29
241.386	-21.67
241.603	47.96
241.821	39.76
242.038	60.24
242.255	-15.53
242.472	9.05
242.689	15.19
242.907	-15.53
243.124	82.77
243.341	33.62
243.558	-23.72
243.775	-9.39
243.992	0.85
244.209	62.29
244.426	58.2
244.643	-7.34
244.86	-50.35
245.078	25.43
245.295	-21.67
245.512	15.19
245.729	4.95
245.946	25.43
246.163	-46.25
246.38	52.05
246.597	-5.29
246.814	43.86
247.031	88.92
247.248	11.09
247.464	-109.74
247.681	80.72
247.898	29.52
248.115	17.24
248.332	-42.15
248.549	41.81
248.766	19.29
248.983	0.85
249.2	50
249.417	4.95
249.633	-3.24
249.85	-7.34
250.067	39.76
250.284	72.53
250.501	-9.39
250.717	41.81
250.934	39.76
251.151	56.15
251.368	70.48
251.585	21.33
251.801	-17.58
252.018	17.24
252.235	11.09
252.451	25.43
252.668	-15.53
252.885	41.81
253.102	54.1
253.318	47.96
253.535	-9.39
253.752	64.34
253.968	-27.82
254.185	-9.39
254.401	-52.39
254.618	50
254.835	-38.06
255.051	105.3
255.268	21.33
255.484	50
255.701	-1.19
255.917	31.57
256.134	27.48
256.351	0.85
256.567	-27.82
256.784	50
257	-21.67
257.217	27.48
257.433	27.48
257.65	35.67
257.866	11.09
258.082	-31.91
258.299	17.24
258.515	88.92
258.732	17.24
258.948	-44.2
259.165	80.72
259.381	2.9
259.597	50
259.814	45.91
260.03	39.76
260.246	29.52
260.463	-13.48
260.679	-13.48
260.895	-23.72
261.112	64.34
261.328	39.76
261.544	-27.82
261.761	31.57
261.977	13.14
262.193	-15.53
262.409	29.52
262.626	17.24
262.842	56.15
263.058	78.68
263.274	41.81
263.49	25.43
263.707	50
263.923	9.05
264.139	50
264.355	11.09
264.571	60.24
264.787	21.33
265.004	50
265.22	15.19
265.436	-7.34
265.652	64.34
265.868	-17.58
266.084	17.24
266.3	54.1
266.516	4.95
266.732	21.33
266.948	-1.19
267.164	-9.39
267.38	-64.68
267.596	-17.58
267.812	-25.77
268.028	-7.34
268.244	-1.19
268.46	52.05
268.676	-46.25
268.892	37.72
269.108	-7.34
269.324	60.24
269.54	13.14
269.756	-1.19
269.972	62.29
270.188	181.07
270.403	-44.2
270.619	58.2
270.835	33.62
271.051	0.85
271.267	-17.58
271.483	21.33
271.698	-36.01
271.914	7
272.13	-17.58
272.346	64.34
272.562	72.53
272.777	72.53
272.993	-1.19
273.209	-42.15
273.425	37.72
273.64	-7.34
273.856	39.76
274.072	60.24
274.287	-29.87
274.503	21.33
274.719	9.05
274.934	54.1
275.15	-19.63
275.366	54.1
275.581	15.19
275.797	52.05
276.012	37.72
276.228	45.91
276.444	-19.63
276.659	-19.63
276.875	15.19
277.09	2.9
277.306	-3.24
277.521	25.43
277.737	-3.24
277.952	33.62
278.168	19.29
278.383	17.24
278.599	-66.73
278.814	0.85
279.03	43.86
279.245	97.11
279.461	25.43
279.676	11.09
279.892	-54.44
280.107	7
280.322	41.81
280.538	-21.67
280.753	-36.01
280.969	41.81
281.184	37.72
281.399	56.15
281.615	19.29
281.83	13.14
282.045	19.29
282.26	93.01
282.476	17.24
282.691	25.43
282.906	41.81
283.122	23.38
283.337	25.43
283.552	7
283.767	-7.34
283.983	21.33
284.198	-42.15
284.413	50
284.628	-7.34
284.843	-27.82
285.058	-56.49
285.274	-38.06
285.489	-3.24
285.704	52.05
285.919	35.67
286.134	7
286.349	-13.48
286.564	64.34
286.779	-23.72
286.995	43.86
287.21	-3.24
287.425	-15.53
287.64	25.43
287.855	-19.63
288.07	15.19
288.285	25.43
288.5	64.34
288.715	60.24
288.93	-9.39
289.145	-25.77
289.36	7
289.575	70.48
289.79	7
290.004	-29.87
290.219	45.91
290.434	54.1
290.649	-42.15
290.864	39.76
291.079	-1.19
291.294	86.87
291.509	-68.78
291.724	4.95
291.938	9.05
292.153	50
292.368	11.09
292.583	52.05
292.798	56.15
293.012	23.38
293.227	21.33
293.442	-9.39
293.657	11.09
293.871	29.52
294.086	82.77
294.301	90.96
294.516	7
294.73	25.43
294.945	27.48
295.16	0.85
295.374	2.9
295.589	72.53
295.804	47.96
296.018	27.48
296.233	25.43
296.447	33.62
296.662	-27.82
296.877	31.57
297.091	43.86
297.306	-9.39
297.52	-64.68
297.735	-7.34
297.949	64.34
298.164	-13.48
298.378	7
298.593	31.57
298.807	23.38
299.022	50
299.236	35.67
299.451	-1.19
299.665	2.9
299.88	-11.43
300.094	-7.34
300.309	45.91
300.523	62.29
300.737	-7.34
300.952	0.85
301.166	-64.68
301.381	-9.39
301.595	43.86
301.809	43.86
302.024	-64.68
302.238	-48.3
302.452	58.2
302.667	29.52
302.881	50
303.095	66.39
303.309	-19.63
303.524	-21.67
303.738	72.53
303.952	21.33
304.166	-48.3
304.381	31.57
304.595	45.91
304.809	140.12
305.023	0.85
305.237	70.48
305.452	13.14
305.666	-17.58
305.88	-13.48
306.094	2.9
306.308	-19.63
306.522	-13.48
306.736	66.39
306.95	15.19
307.164	-52.39
307.379	-21.67
307.593	0.85
307.807	66.39
308.021	-25.77
308.235	-9.39
308.449	-60.59
308.663	-7.34
308.877	80.72
309.091	-17.58
309.305	27.48
309.519	37.72
309.733	43.86
309.947	-13.48
310.161	66.39
310.374	0.85
310.588	2.9
310.802	19.29
311.016	2.9
311.23	50
311.444	4.95
311.658	-3.24
311.872	66.39
312.085	93.01
312.299	37.72
312.513	66.39
312.727	64.34
312.941	-1.19
313.154	68.44
313.368	0.85
313.582	7
313.796	-36.01
314.009	0.85
314.223	13.14
314.437	-21.67
314.651	-25.77
314.864	25.43
315.078	43.86
315.292	31.57
315.505	-76.97
315.719	82.77
315.933	66.39
316.146	37.72
316.36	11.09
316.573	-5.29
316.787	39.76
317.001	-17.58
317.214	-5.29
317.428	35.67
317.641	21.33
317.855	43.86
318.068	43.86
318.282	41.81
318.495	70.48
318.709	-17.58
318.922	-23.72
319.136	9.05
319.349	23.38
319.563	54.1
319.776	19.29
319.99	25.43
320.203	-5.29
320.417	-9.39
320.63	37.72
320.843	70.48
321.057	-40.11
321.27	35.67
321.483	31.57
321.697	25.43
321.91	25.43
322.124	31.57
322.337	-48.3
322.55	-13.48
322.763	-46.25
322.977	47.96
323.19	60.24
323.403	-21.67
323.617	-38.06
323.83	66.39
324.043	4.95
324.256	50
324.469	23.38
324.683	23.38
324.896	-5.29
325.109	-27.82
325.322	82.77
325.535	47.96
325.748	43.86
325.962	68.44
326.175	15.19
326.388	52.05
326.601	7
326.814	-25.77
327.027	-68.78
327.24	105.3
327.453	-17.58
327.666	66.39
327.879	23.38
328.092	101.2
328.305	43.86
328.518	90.96
328.731	-25.77
328.944	64.34
329.157	27.48
329.37	64.34
329.583	88.92
329.796	-36.01
330.009	31.57
330.222	7
330.435	31.57
330.648	72.53
330.861	58.2
331.073	-46.25
331.286	27.48
331.499	-7.34
331.712	39.76
331.925	82.77
332.138	0.85
332.35	-5.29
332.563	-3.24
332.776	2.9
332.989	13.14
333.202	19.29
333.414	25.43
333.627	50
333.84	58.2
334.053	17.24
334.265	27.48
334.478	88.92
334.691	78.68
334.903	-40.11
335.116	60.24
335.329	-33.96
335.541	-46.25
335.754	9.05
335.966	23.38
336.179	9.05
336.392	62.29
336.604	7
336.817	19.29
337.029	82.77
337.242	-9.39
337.454	113.49
337.667	0.85
337.88	31.57
338.092	31.57
338.305	78.68
338.517	31.57
338.729	-25.77
338.942	64.34
339.154	29.52
339.367	-21.67
339.579	35.67
339.792	101.2
340.004	39.76
340.217	19.29
340.429	35.67
340.641	-50.35
340.854	41.81
341.066	37.72
341.278	64.34
341.491	-9.39
341.703	86.87
341.915	0.85
342.128	68.44
342.34	35.67
342.552	56.15
342.764	-1.19
342.977	-9.39
343.189	43.86
343.401	86.87
343.613	45.91
343.826	9.05
344.038	15.19
344.25	33.62
344.462	9.05
344.674	-13.48
344.886	-15.53
345.099	29.52
345.311	-25.77
345.523	-7.34
345.735	15.19
345.947	31.57
346.159	29.52
346.371	68.44
346.583	-60.59
346.795	74.58
347.007	9.05
347.219	-7.34
347.431	21.33
347.643	54.1
347.855	11.09
348.067	-11.43
348.279	41.81
348.491	4.95
348.703	-17.58
348.915	19.29
349.127	-15.53
349.339	19.29
349.551	27.48
349.763	25.43
349.975	4.95
350.187	37.72
350.399	-38.06
350.61	31.57
350.822	0.85
351.034	33.62
351.246	-23.72
351.458	93.01
351.669	-15.53
351.881	-17.58
352.093	-46.25
352.305	25.43
352.517	-21.67
352.728	74.58
352.94	70.48
353.152	31.57
353.363	21.33
353.575	47.96
353.787	54.1
353.999	33.62
354.21	39.76
354.422	78.68
354.633	62.29
354.845	21.33
355.057	117.59
355.268	33.62
355.48	35.67
355.692	33.62
355.903	19.29
356.115	54.1
356.326	39.76
356.538	31.57
356.749	21.33
356.961	-19.63
357.172	-5.29
357.384	37.72
357.595	25.43
357.807	-46.25
358.018	29.52
358.23	-9.39
358.441	56.15
358.653	4.95
358.864	72.53
359.075	58.2
359.287	0.85
359.498	74.58
359.709	-1.19
359.921	29.52
360.132	4.95
360.344	97.11
360.555	23.38
360.766	-33.96
360.977	39.76
361.189	60.24
361.4	23.38
361.611	52.05
361.823	37.72
362.034	25.43
362.245	93.01
362.456	-5.29
362.667	43.86
362.879	41.81
363.09	68.44
363.301	33.62
363.512	70.48
363.723	64.34
363.935	15.19
364.146	95.06
364.357	62.29
364.568	4.95
364.779	0.85
364.99	-3.24
365.201	47.96
365.412	47.96
365.623	-7.34
365.834	47.96
366.045	-25.77
366.256	23.38
366.467	-36.01
366.678	27.48
366.889	54.1
367.1	68.44
367.311	0.85
367.522	58.2
367.733	54.1
367.944	133.97
368.155	58.2
368.366	0.85
368.577	52.05
368.788	50
368.999	58.2
369.209	156.5
369.42	41.81
369.631	138.07
369.842	39.76
370.053	50
370.264	41.81
370.474	148.31
370.685	-33.96
370.896	31.57
371.107	17.24
371.317	54.1
371.528	-15.53
371.739	-38.06
371.95	56.15
372.16	101.2
372.371	9.05
372.582	43.86
372.792	99.16
373.003	56.15
373.214	52.05
373.424	82.77
373.635	-15.53
373.846	23.38
374.056	7
374.267	-17.58
374.477	60.24
374.688	50
374.898	-15.53
375.109	-27.82
375.319	115.54
375.53	27.48
375.74	60.24
375.951	13.14
376.161	56.15
376.372	11.09
376.582	56.15
376.793	62.29
377.003	35.67
377.214	23.38
377.424	105.3
377.635	72.53
377.845	25.43
378.055	-9.39
378.266	-23.72
378.476	19.29
378.686	37.72
378.897	13.14
379.107	17.24
379.317	50
379.528	41.81
379.738	-7.34
379.948	0.85
380.158	60.24
380.369	58.2
380.579	9.05
380.789	13.14
380.999	52.05
381.21	50
381.42	-1.19
381.63	50
381.84	84.82
382.05	15.19
382.261	74.58
382.471	27.48
382.681	35.67
382.891	35.67
383.101	7
383.311	2.9
383.521	90.96
383.731	-5.29
383.941	-1.19
384.151	-17.58
384.361	84.82
384.571	47.96
384.781	31.57
384.991	37.72
385.201	88.92
385.411	41.81
385.621	58.2
385.831	41.81
386.041	35.67
386.251	93.01
386.461	23.38
386.671	13.14
386.881	-23.72
387.091	35.67
387.301	45.91
387.511	-3.24
387.72	-1.19
387.93	31.57
388.14	35.67
388.35	-1.19
388.56	-17.58
388.769	19.29
388.979	-7.34
389.189	-48.3
389.399	45.91
389.609	2.9
389.818	52.05
390.028	19.29
390.238	58.2
390.447	-33.96
390.657	-54.44
390.867	15.19
391.076	29.52
391.286	4.95
391.496	25.43
391.705	47.96
391.915	41.81
392.125	78.68
392.334	25.43
392.544	54.1
392.753	64.34
392.963	-13.48
393.172	-19.63
393.382	86.87
393.591	31.57
393.801	56.15
394.01	25.43
394.22	62.29
394.429	47.96
394.639	107.35
394.848	23.38
395.058	76.63
395.267	45.91
395.477	35.67
395.686	146.26
395.895	29.52
396.105	113.49
396.314	60.24
396.524	43.86
396.733	80.72
396.942	86.87
397.152	70.48
397.361	144.21
397.57	54.1
397.78	82.77
397.989	86.87
398.198	41.81
398.407	76.63
398.617	45.91
398.826	-17.58
399.035	109.4
399.244	78.68
399.453	150.36
399.663	23.38
399.872	80.72
400.081	144.21
400.29	103.25
400.499	58.2
400.708	105.3
400.917	90.96
401.127	174.93
401.336	68.44
401.545	164.69
401.754	179.03
401.963	54.1
402.172	7
402.381	95.06
402.59	82.77
402.799	90.96
403.008	90.96
403.217	76.63
403.426	111.44
403.635	142.16
403.844	88.92
404.053	68.44
404.262	80.72
404.471	123.73
404.68	105.3
404.888	142.16
405.097	76.63
405.306	150.36
405.515	97.11
405.724	140.12
405.933	117.59
406.142	125.78
406.35	117.59
406.559	129.88
406.768	142.16
406.977	172.88
407.185	129.88
407.394	123.73
407.603	142.16
407.812	197.46
408.02	256.85
408.229	203.6
408.438	105.3
408.646	131.92
408.855	158.55
409.064	195.41
409.272	144.21
409.481	187.22
409.69	181.07
409.898	252.75
410.107	312.14
410.315	211.79
410.524	265.04
410.733	248.66
410.941	189.27
411.15	324.43
411.358	265.04
411.567	355.15
411.775	363.34
411.984	367.44
412.192	355.15
412.401	385.87
412.609	357.2
412.818	412.5
413.026	410.45
413.234	320.34
413.443	344.91
413.651	449.36
413.86	506.7
414.068	541.52
414.276	498.51
414.485	471.89
414.693	482.13
414.901	500.56
415.11	547.66
415.318	516.94
415.526	609.1
415.734	648.01
415.943	637.77
416.151	566.09
416.359	619.34
416.567	734.03
416.776	721.74
416.984	705.35
417.192	699.21
417.4	756.55
417.608	795.47
417.817	801.61
418.025	836.42
418.233	951.11
418.441	922.44
418.649	944.97
418.857	1018.69
419.065	985.93
419.273	983.88
419.481	1063.75
419.689	1071.94
419.897	1207.11
420.105	1162.05
420.313	1203.01
420.521	1274.69
420.729	1268.55
420.937	1375.04
421.145	1411.9
421.353	1536.83
421.561	1526.59
421.769	1557.31
421.977	1588.03
422.185	1600.32
422.393	1721.15
422.601	1821.5
422.809	1815.35
423.017	1788.73
423.224	1817.4
423.432	2011.96
423.64	2114.36
423.848	2149.17
424.056	2286.39
424.263	2267.95
424.471	2239.28
424.679	2489.14
424.887	2505.52
425.094	2462.51
425.302	2591.53
425.51	2630.45
425.718	2745.13
425.925	2708.27
426.133	2810.67
426.341	3013.42
426.548	3081
426.756	3130.15
426.964	3048.23
427.171	3308.32
427.379	3443.49
427.586	3549.98
427.794	3636
428.001	3799.84
428.209	3881.75
428.417	3832.6
428.624	4016.92
428.832	4035.35
429.039	4135.7
429.247	4111.13
429.454	4418.32
429.662	4705.04
429.869	4557.58
430.076	4909.83
430.284	4565.78
430.491	4899.59
430.699	5135.11
430.906	5045
431.114	5257.99
431.321	5382.92
431.528	5481.22
431.736	5939.96
431.943	6187.77
432.15	5837.56
432.358	6034.17
432.565	6171.38
432.772	6253.3
432.979	6626.03
433.187	6757.1
433.394	6703.86
433.601	7254.76
433.808	7277.29
434.016	7080.68
434.223	7484.13
434.43	8002.27
434.637	7619.3
434.844	8155.86
435.052	8305.37
435.259	8413.91
435.466	8329.94
435.673	8387.29
435.88	8917.71
436.087	9325.26
436.294	9398.98
436.501	9272.01
436.708	9415.37
436.915	9734.85
437.122	10003.13
437.329	10003.13
437.537	10281.66
437.743	10652.34
437.95	10658.48
438.157	11008.69
438.364	11252.39
438.571	11215.53
438.778	11518.63
438.985	12597.91
439.192	11997.85
439.399	12405.4
439.606	12243.61
439.813	12696.21
440.02	13441.67
440.227	13281.93
440.433	13144.72
440.64	13660.8
440.847	13468.3
441.054	14051.97
441.261	14606.97
441.467	14563.96
441.674	14830.2
441.881	15342.19
442.088	15684.2
442.294	15393.39
442.501	15639.14
442.708	15694.44
442.914	16837.2
443.121	17115.73
443.328	16624.22
443.534	18053.7
443.741	17580.62
443.948	17252.94
444.154	18418.24
444.361	18430.52
444.568	18643.51
444.774	18623.03
444.981	18758.2
445.187	19262
445.394	19976.74
445.6	19827.24
445.807	21641.74
446.013	20785.69
446.22	21344.78
446.426	22004.23
446.633	21797.38
446.839	22829.56
447.046	21897.74
447.252	23087.61
447.459	23161.33
447.665	22882.81
447.871	24179.17
448.078	25178.58
448.284	23794.15
448.491	24601.05
448.697	25453.01
448.903	25803.21
449.11	26143.17
449.316	25680.33
449.522	26038.73
449.728	26835.39
449.935	26657.21
450.141	26870.2
450.347	27812.27
450.553	26675.65
450.76	26917.31
450.966	27842.99
451.172	27419.06
451.378	28156.33
451.584	27537.84
451.791	28043.69
451.997	28391.84
452.203	28455.33
452.409	28787.1
452.615	28731.81
452.821	27414.96
453.027	27044.28
453.233	28805.53
453.44	27414.96
453.646	27562.42
453.852	27916.72
454.058	28207.53
454.264	27484.59
454.47	28197.29
454.676	27396.53
454.882	28127.66
455.088	25921.99
455.294	26350.02
455.5	26618.3
455.705	26872.25
455.911	25752.01
456.117	25149.91
456.323	24867.29
456.529	23650.8
456.735	24850.91
456.941	24013.29
457.147	23712.24
457.352	23103.99
457.558	22696.44
457.764	22448.64
457.97	22307.33
458.176	21862.92
458.381	21740.04
458.587	20906.52
458.793	20881.94
458.999	19917.35
459.204	21021.2
459.41	20455.97
459.616	19081.78
459.821	18975.28
460.027	19300.91
460.233	18688.57
460.438	17674.82
460.644	17953.35
460.85	17152.59
461.055	16644.7
461.261	16927.32
461.466	15792.74
461.672	15264.36
461.878	16339.55
462.083	15174.25
462.289	14834.29
462.494	14684.79
462.7	14086.78
462.905	13746.82
463.111	14154.37
463.316	14367.35
463.522	13914.75
463.727	13691.52
463.932	14033.54
464.138	14019.2
464.343	13757.06
464.549	13744.77
464.754	14031.49
464.959	13810.31
465.165	13836.93
465.37	13200.01
465.575	12683.92
465.781	13179.53
465.986	13435.53
466.191	12917.39
466.397	12749.46
466.602	12149.4
466.807	12522.13
467.012	12468.89
467.218	12403.35
467.423	12335.77
467.628	12221.08
467.833	12901.01
468.038	12536.47
468.244	12090.01
468.449	12470.94
468.654	12147.36
468.859	11973.28
469.064	11991.71
469.269	11651.75
469.474	11385.51
469.679	11758.24
469.885	11403.94
470.09	11561.64
470.295	11489.96
470.5	11297.45
470.705	11305.64
470.91	10975.92
471.115	10996.4
471.32	11049.64
471.525	11129.52
471.73	10795.7
471.935	10883.76
472.139	10449.59
472.344	10666.67
472.549	10363.58
472.754	10527.41
472.959	10279.61
473.164	9818.82
473.369	9839.3
473.574	10042.04
473.778	10074.81
473.983	9865.92
474.188	9917.12
474.393	9673.41
474.598	9435.85
474.802	9251.53
475.007	9394.89
475.212	9374.41
475.417	9011.92
475.621	9005.77
475.826	9104.07
476.031	9005.77
476.235	8651.47
476.44	8815.31
476.645	8749.78
476.849	8772.3
477.054	8563.41
477.259	8549.07
477.463	8479.44
477.668	8159.96
477.872	8303.32
478.077	8178.39
478.282	8059.61
478.486	7881.44
478.691	8088.28
478.895	7903.96
479.1	7801.57
479.304	8014.56
479.509	7791.33
479.713	7809.76
479.918	7682.78
480.122	7340.77
480.326	7762.65
480.531	7703.26
480.735	7451.36
480.94	7430.88
481.144	7699.17
481.348	7336.68
481.553	7404.26
481.757	7199.46
481.961	7377.64
482.166	7443.17
482.37	7414.5
482.574	7113.45
482.778	7305.96
482.983	7414.5
483.187	7371.49
483.391	7342.82
483.595	7125.74
483.8	7314.15
484.004	7213.8
484.208	7250.66
484.412	7174.89
484.616	7351.01
484.821	7453.41
485.025	7250.66
485.229	7459.56
485.433	7295.72
485.637	7353.06
485.841	7080.68
486.045	7310.05
486.249	7248.61
486.453	7318.25
486.657	7312.1
486.861	7285.48
487.065	7084.78
487.269	7248.61
487.473	7207.66
487.677	7381.73
487.881	7414.5
488.085	7299.81
488.289	7463.65
488.493	7260.9
488.697	7330.53
488.901	7230.18
489.105	7293.67
489.309	7357.16
489.512	7355.11
489.716	7336.68
489.92	7291.62
490.124	7430.88
490.328	7422.69
490.531	7500.51
490.735	7359.21
490.939	7420.64
491.143	7332.58
491.346	7414.5
491.55	7881.44
491.754	7674.59
491.958	7656.16
492.161	7477.99
492.365	7625.44
492.569	7785.18
492.772	7701.22
492.976	7721.7
493.18	7834.33
493.383	7828.19
493.587	7957.21
493.79	7983.84
493.994	7967.45
494.197	8211.16
494.401	8280.79
494.605	8162.01
494.808	8131.29
495.012	8235.74
495.215	8327.89
495.419	8295.13
495.622	8252.12
495.825	8284.89
496.029	8649.43
496.232	8579.79
496.436	8665.81
496.639	9026.25
496.843	8987.34
497.046	9075.4
497.249	9278.15
497.453	9130.7
497.656	9317.06
497.859	9081.55
498.063	9294.54
498.266	9601.73
498.469	9571.01
498.673	9646.79
498.876	9743.04
499.079	9982.65
499.282	9919.17
499.485	9976.51
499.689	9906.88
499.892	10252.98
500.095	10400.44
500.298	10805.94
500.501	10498.74
500.705	10705.59
500.908	10984.11
501.111	11053.74
501.314	11362.98
501.517	11117.23
501.72	11203.24
501.923	11317.93
502.126	11707.04
502.329	11956.89
502.532	12034.72
502.735	12030.62
502.938	12245.66
503.141	12284.57
503.344	12515.99
503.547	12747.41
503.75	12989.07
503.953	12927.63
504.156	13353.61
504.359	13396.62
504.562	13494.92
504.765	13644.42
504.968	13644.42
505.17	13902.47
505.373	13877.89
505.576	14230.14
505.779	14449.27
505.982	14396.03
506.185	14883.44
506.387	14619.25
506.59	14867.06
506.793	15172.21
506.996	15276.65
507.198	15884.9
507.401	15878.76
507.604	15491.69
507.807	16099.94
508.009	16372.32
508.212	16327.26
508.415	16771.67
508.617	16923.22
508.82	16933.46
509.022	17037.91
509.225	17400.4
509.428	17560.14
509.63	17736.26
509.833	17795.65
510.035	18068.03
510.238	18326.08
510.44	18324.03
510.643	18481.72
510.845	18842.17
511.048	19044.91
511.25	19161.65
511.453	19241.52
511.655	20285.98
511.858	19626.54
512.06	19868.2
512.262	20357.66
512.465	20507.16
512.667	20814.36
512.87	21150.23
513.072	20984.34
513.274	21297.68
513.477	21801.48
513.679	21832.2
513.881	22135.3
514.084	22272.51
514.286	22577.66
514.488	22835.7
514.69	23593.45
514.893	23618.03
515.095	23607.79
515.297	23912.94
515.499	23957.99
515.701	24529.38
515.904	24549.85
516.106	24668.64
516.308	25057.75
516.51	25182.68
516.712	25289.17
516.914	25645.52
517.116	26001.86
517.318	26163.65
517.52	26261.96
517.722	26667.45
517.925	26962.36
518.127	27359.67
518.329	27287.99
518.531	27466.16
518.733	28209.57
518.935	28127.66
519.136	28588.45
519.338	28416.42
519.54	28965.28
519.742	29110.68
519.944	29053.34
520.146	29763.98
520.348	29890.96
520.55	30128.52
520.752	30503.3
520.954	30865.79
521.155	30761.34
521.357	31183.23
521.559	31418.74
521.761	31990.13
521.963	32045.42
522.164	31828.34
522.366	32117.1
522.568	32639.33
522.77	32651.62
522.971	33116.51
523.173	33014.11
523.375	33296.73
523.576	33507.67
523.778	33700.18
523.98	34077.01
524.181	34402.63
524.383	34484.55
524.584	34732.36
524.786	34462.02
524.988	34728.26
525.189	35225.92
525.391	35860.79
525.592	35529.02
525.794	35576.12
525.995	35959.09
526.197	36051.25
526.398	36165.93
526.6	36626.73
526.801	36276.52
527.003	36641.06
527.204	36829.48
527.406	37052.7
527.607	36874.53
527.808	37484.83
528.01	36897.06
528.211	37245.21
528.412	38027.54
528.614	37902.61
528.815	37841.17
529.016	38322.44
529.218	38050.06
529.419	38238.48
529.62	38287.63
529.822	38177.04
530.023	38279.44
530.224	38656.26
530.425	38261.01
530.626	38261.01
530.828	37867.8
531.029	39020.8
531.23	38869.25
531.431	38357.26
531.632	39391.48
531.833	39047.43
532.035	39151.87
532.236	38969.6
532.437	39475.45
532.638	38695.17
532.839	39307.52
533.04	39457.02
533.241	39274.75
533.442	39813.37
533.643	39561.47
533.844	39545.08
534.045	39532.79
534.246	39354.62
534.447	39416.06
534.648	39502.07
534.849	39444.73
535.05	39024.9
535.251	39827.7
535.451	39532.79
535.652	39909.62
535.853	39823.61
536.054	39854.33
536.255	40014.07
536.456	39313.66
536.657	40524.01
536.857	40036.59
537.058	39663.86
537.259	39995.64
537.46	39883
537.66	39647.48
537.861	39745.78
538.062	39768.31
538.263	40169.71
538.463	39534.84
538.664	39706.87
538.865	39614.71
539.065	40052.98
539.266	39649.53
539.466	40081.65
539.667	39434.49
539.868	39659.77
540.068	39876.85
540.269	39825.65
540.469	39991.54
540.67	39618.81
540.87	39762.17
541.071	39483.64
541.271	39907.57
541.472	40173.81
541.672	39667.96
541.873	39776.5
542.073	39692.54
542.274	40102.13
542.474	39577.85
542.675	39721.21
542.875	40417.52
543.075	39790.84
543.276	39317.76
543.476	40243.44
543.676	39358.72
543.877	40042.74
544.077	40040.69
544.277	39598.33
544.478	39979.25
544.678	39872.76
544.878	39926
545.078	39727.35
545.279	39426.3
545.479	39663.86
545.679	40020.21
545.879	39555.32
546.079	39680.25
546.28	39715.06
546.48	39596.28
546.68	40030.45
546.88	39788.79
547.08	39557.37
547.28	39336.19
547.48	39651.58
547.68	39680.25
547.88	39635.19
548.081	39921.91
548.281	39362.81
548.481	39874.8
548.681	39876.85
548.881	39801.08
549.081	39481.59
549.28	39538.94
549.48	39616.76
549.68	39399.68
549.88	40071.41
550.08	39606.52
550.28	39471.36
550.48	39180.54
550.68	39796.98
550.88	39567.61
551.08	39780.6
551.279	39540.99
551.479	39428.35
551.679	39549.18
551.879	39907.57
552.079	39422.2
552.278	39256.32
552.478	39715.06
552.678	39655.67
552.878	39649.53
553.077	39397.63
553.277	39108.86
553.477	39764.21
553.676	39469.31
553.876	39303.42
554.076	39080.19
554.275	39321.85
554.475	39090.43
554.674	39399.68
554.874	38899.97
555.074	39133.44
555.273	39186.69
555.473	39373.05
555.672	39321.85
555.872	39174.4
556.071	39276.8
556.271	39297.28
556.47	38973.7
556.67	38744.33
556.869	38398.22
557.068	39303.42
557.268	39164.16
557.467	39033.09
557.667	38676.74
557.866	38803.72
558.065	38646.02
558.265	38494.47
558.464	38469.9
558.663	39002.37
558.863	38076.69
559.062	38822.15
559.261	38336.78
559.461	38719.75
559.66	37847.32
559.859	38144.27
560.058	38205.71
560.258	38539.53
560.457	37798.16
560.656	38347.02
560.855	38177.04
561.054	38142.22
561.253	37619.99
561.453	37660.95
561.652	37923.09
561.851	38230.29
562.05	37648.66
562.249	37347.61
562.448	38115.6
562.647	37816.6
562.846	37329.18
563.045	37476.63
563.244	37009.7
563.443	37493.02
563.642	36903.2
563.841	37476.63
564.04	37019.94
564.239	37413.15
564.438	36759.84
564.637	36948.26
564.836	36968.74
565.035	37095.71
565.234	37026.08
565.432	36716.84
565.631	36706.6
565.83	36733.22
566.029	36751.65
566.228	36860.19
566.427	36432.17
566.625	36378.92
566.824	35780.92
567.023	36497.7
567.222	35875.12
567.42	36288.81
567.619	36010.29
567.818	35840.31
568.016	36081.97
568.215	36262.19
568.414	35563.83
568.612	35766.58
568.811	35565.88
569.01	35584.31
569.208	35205.44
569.407	35633.46
569.605	35307.83
569.804	35393.85
570.002	35119.42
570.201	35223.87
570.4	34916.67
570.598	34580.81
570.797	34836.8
570.995	34703.68
571.193	34376.01
571.392	34715.97
571.59	34521.41
571.789	34857.28
571.987	33896.78
572.186	33995.09
572.384	33849.68
572.582	34212.17
572.781	34048.33
572.979	33655.12
573.177	33632.6
573.376	33925.46
573.574	33456.47
573.772	33569.11
573.971	33751.38
574.169	33476.95
574.367	33364.31
574.565	33239.39
574.763	33323.35
574.962	32895.33
575.16	32704.87
575.358	33065.31
575.556	32358.76
575.754	33126.75
575.952	32504.17
576.151	32698.72
576.349	32186.73
576.547	32532.84
576.745	32362.86
576.943	32225.64
577.141	31979.89
577.339	32131.44
577.537	31580.53
577.735	31834.48
577.933	31865.2
578.131	31889.77
578.329	31486.32
578.527	31361.4
578.725	31381.88
578.923	31709.55
579.121	31162.75
579.319	31199.61
579.516	31410.55
579.714	30704
579.912	31058.3
580.11	30970.24
580.308	30769.54
580.506	30744.96
580.704	30574.98
580.901	30560.64
581.099	30572.93
581.297	30136.71
581.495	29925.77
581.692	30232.97
581.89	29786.51
582.088	29950.35
582.285	29843.85
582.483	30288.26
582.681	29821.33
582.878	29403.54
583.076	29290.9
583.274	29696.4
583.471	29350.29
583.669	29438.36
583.866	29256.09
584.064	29262.23
584.262	28959.13
584.459	29108.63
584.657	29028.76
584.854	29477.27
585.052	28809.63
585.249	28965.28
585.447	28768.67
585.644	28551.59
585.841	28457.38
586.039	28467.62
586.236	28125.61
586.434	28006.83
586.631	28062.12
586.828	28410.28
587.026	27965.87
587.223	27967.91
587.42	27906.48
587.618	27734.45
587.815	27472.31
588.012	27572.66
588.21	27335.09
588.407	27574.7
588.604	27183.54
588.801	27048.38
588.999	27156.92
589.196	27187.64
589.393	27335.09
589.59	26892.73
589.787	26800.57
589.984	26485.19
590.182	26630.59
590.379	26528.19
590.576	26276.29
590.773	26595.78
590.97	26079.69
591.167	26466.75
591.364	25825.74
591.561	26450.37
591.758	26296.77
591.955	26294.72
592.152	26180.04
592.349	25823.69
592.546	25586.13
592.743	25663.95
592.94	25293.27
593.137	25821.64
593.334	25872.84
593.531	25377.23
593.727	25493.97
593.924	25600.46
594.121	25123.29
594.318	25051.61
594.515	25137.62
594.712	25008.6
594.908	24803.8
595.105	25049.56
595.302	24836.57
595.499	24857.05
595.696	24717.79
595.892	24635.87
596.089	24594.91
596.286	24758.75
596.482	24189.41
596.679	24539.61
596.876	24363.49
597.072	24601.05
597.269	24173.03
597.466	23874.03
597.662	23806.44
597.859	24072.68
598.055	24189.41
598.252	24052.2
598.448	24113.64
598.645	23636.46
598.841	23566.83
599.038	23497.2
599.234	23376.37
599.431	23521.77
599.627	23480.82
599.824	23517.68
600.02	23169.52
600.217	23380.46
600.413	22858.23
600.609	23065.08
600.806	23009.78
601.002	23087.61
601.198	22809.08
601.395	22706.68
601.591	22493.69
601.787	22354.43
601.984	22374.91
602.18	22555.13
602.376	22524.41
602.572	22247.94
602.769	22157.83
602.965	22473.21
603.161	22379.01
603.357	22127.11
603.553	21762.57
603.75	22061.57
603.946	21826.06
604.142	22010.37
604.338	21645.84
604.534	21770.76
604.73	21660.17
604.926	21635.6
605.122	21680.65
605.318	21266.96
605.514	21273.1
605.71	21043.73
605.906	21056.02
606.102	20892.18
606.298	21164.56
606.494	20904.47
606.69	20953.62
606.886	21051.92
607.082	20716.06
607.278	20789.78
607.474	20406.81
607.67	20621.85
607.866	20339.23
608.062	20804.12
608.257	20230.69
608.453	20290.08
608.649	20343.33
608.845	20070.95
609.041	20212.26
609.236	20281.89
609.432	20077.09
609.628	19804.71
609.824	19726.89
610.019	19823.14
610.215	19606.06
610.411	19798.57
610.606	19730.98
610.802	19819.05
610.998	19448.36
611.193	19604.01
611.389	19667.5
611.584	19337.77
611.78	19237.42
611.976	19216.94
612.171	19405.36
612.367	19135.03
612.562	19112.5
612.758	18889.27
612.953	19143.22
613.149	19493.42
613.344	19016.24
613.539	19264.05
613.735	19026.48
613.93	19014.2
614.126	18840.12
614.321	19106.35
614.517	18883.13
614.712	18698.81
614.907	18526.78
615.103	18676.28
615.298	18610.75
615.493	18825.78
615.688	18201.15
615.884	18758.2
616.079	18463.29
616.274	18455.1
616.47	18242.11
616.665	18338.37
616.86	17924.68
617.055	18358.85
617.25	17977.92
617.445	18293.31
617.641	17721.93
617.836	18127.42
618.031	17703.5
618.226	18201.15
618.421	17760.84
618.616	17953.35
618.811	17519.18
619.006	17850.95
619.201	17472.07
619.396	17590.86
619.591	17179.22
619.786	17267.28
619.981	17085.01
620.176	17433.16
620.371	17044.05
620.566	17111.63
620.761	16775.77
620.956	16966.23
621.151	16861.78
621.346	16702.04
621.541	16331.36
621.735	16462.43
621.93	16484.95
622.125	16394.84
622.32	16243.29
622.515	16339.55
622.709	16110.18
622.904	16054.88
623.099	16001.63
623.294	15985.25
623.488	15700.58
623.683	15755.88
623.878	15422.06
624.072	15612.52
624.267	15487.59
624.462	15493.74
624.656	15225.45
624.851	15213.17
625.046	14871.15
625.24	15200.88
625.435	15018.61
625.629	15030.9
625.824	14613.11
626.018	14705.27
626.213	14633.59
626.407	14719.6
626.602	14248.57
626.796	14434.94
626.991	14385.79
627.185	14185.08
627.38	14209.66
627.574	14111.36
627.768	14068.35
627.963	14146.17
628.157	13810.31
628.352	13843.07
628.546	13558.41
628.74	13777.54
628.935	13695.62
629.129	13492.87
629.323	13247.12
629.517	13400.71
629.712	13302.41
629.906	13273.74
630.1	13052.56
630.294	13159.05
630.489	12901.01
630.683	13101.71
630.877	12980.88
631.071	12673.68
631.265	13107.85
631.459	12651.16
631.653	12946.06
631.848	12550.81
632.042	12434.07
632.236	12485.27
632.43	12262.04
632.624	12485.27
632.818	12311.19
633.012	12200.6
633.206	12044.96
633.4	12044.96
633.594	12128.92
633.788	11965.09
633.982	12055.2
634.176	11778.72
634.369	11846.3
634.563	11930.27
634.757	11760.29
634.951	11666.08
635.145	11647.65
635.339	11467.43
635.533	11498.15
635.726	11356.84
635.92	11319.98
636.114	11405.99
636.308	11266.73
636.501	11346.6
636.695	11150
636.889	11133.61
637.083	10973.87
637.276	11029.17
637.47	11000.49
637.664	10756.79
637.857	10900.14
638.051	10719.92
638.244	10588.85
638.438	10740.4
638.632	10574.52
638.825	10425.01
639.019	10183.35
639.212	10351.29
639.406	10310.33
639.599	10050.24
639.793	10160.83
639.986	10169.02
640.18	10101.44
640.373	10080.96
640.567	9964.22
640.76	10001.08
640.954	9861.82
641.147	9669.31
641.34	9724.61
641.534	9642.69
641.727	9714.37
641.92	9523.91
642.114	9548.48
642.307	9509.57
642.5	9521.86
642.694	9194.19
642.887	9245.38
643.08	9239.24
643.273	9272.01
643.467	9290.44
643.66	9124.55
643.853	9040.59
644.046	8975.05
644.239	8989.39
644.432	8848.08
644.626	8934.09
644.819	8739.54
645.012	8903.37
645.205	8663.76
645.398	8555.22
645.591	8606.42
645.784	8327.89
645.977	8438.48
646.17	8592.08
646.363	8270.55
646.556	8321.75
646.749	8256.22
646.942	8315.61
647.135	8129.24
647.328	8288.98
647.521	8110.81
647.714	7992.03
647.907	8075.99
648.099	8053.47
648.292	7887.58
648.485	7992.03
648.678	7719.65
648.871	7721.7
649.064	7750.37
649.256	7914.2
649.449	7631.58
649.642	7514.85
649.835	7463.65
650.027	7613.15
650.22	7267.05
650.413	7434.98
650.605	7365.35
650.798	7238.37
650.991	7273.19
651.183	7336.68
651.376	7297.77
651.568	7199.46
651.761	7224.04
651.954	7230.18
652.146	6863.6
652.339	6912.75
652.531	6986.47
652.724	6963.95
652.916	6861.55
653.109	6931.18
653.301	6712.05
653.494	6677.23
653.686	6636.27
653.879	6808.3
654.071	6626.03
654.263	6593.26
654.456	6548.21
654.648	6615.79
654.84	6380.28
655.033	6492.91
655.225	6490.87
655.417	6406.9
655.61	6306.55
655.802	6263.54
655.994	6212.34
656.186	6372.08
656.379	6191.86
656.571	6306.55
656.763	6011.64
656.955	6173.43
657.148	6103.8
657.34	5991.16
657.532	6048.51
657.724	5976.83
657.916	5886.72
658.108	5753.6
658.3	5933.82
658.492	5993.21
658.684	5714.69
658.876	5712.64
659.068	5729.02
659.26	5579.52
659.452	5751.55
659.644	5765.89
659.836	5534.46
660.028	5477.12
660.22	5464.83
660.412	5487.36
660.604	5434.11
660.796	5526.27
660.988	5366.53
661.18	5323.52
661.372	5202.69
661.563	5380.87
661.755	5116.68
661.947	5376.77
662.139	5139.21
662.331	5106.44
662.522	5155.59
662.714	4997.9
662.906	4979.47
663.097	5049.1
663.289	5028.62
663.481	4946.7
663.673	4838.16
663.864	4887.31
664.056	4840.2
664.247	4924.17
664.439	4842.25
664.631	4748.04
664.822	4705.04
665.014	4700.94
665.205	4614.93
665.397	4549.39
665.588	4633.36
665.78	4475.67
665.971	4547.34
666.163	4479.76
666.354	4426.51
666.546	4471.57
666.737	4440.85
666.929	4418.32
667.12	4498.19
667.311	4440.85
667.503	4234
667.694	4336.4
667.885	4356.88
668.077	4260.63
668.268	4250.39
668.459	4373.27
668.651	4307.73
668.842	4291.35
669.033	4119.32
669.224	4131.61
669.416	4141.85
669.607	4135.7
669.798	4096.79
669.989	4254.48
670.18	4186.9
670.371	4066.07
670.563	3939.1
670.754	4023.06
670.945	3824.41
671.136	3988.25
671.327	3889.95
671.518	3920.67
671.709	3875.61
671.9	3998.49
672.091	4055.83
672.282	3711.77
672.473	3885.85
672.664	3945.24
672.855	3758.88
673.046	3799.84
673.237	3662.62
673.428	3658.53
673.619	3715.87
673.809	3722.01
674	3699.48
674.191	3726.11
674.382	3646.24
674.573	3642.14
674.764	3506.98
674.954	3527.46
675.145	3617.57
675.336	3570.46
675.527	3517.22
675.717	3623.71
675.908	3504.93
676.099	3402.53
676.289	3466.02
676.48	3500.83
676.671	3408.67
676.861	3498.78
677.052	3316.51
677.243	3334.95
677.433	3257.12
677.624	3308.32
677.814	3347.23
678.005	3349.28
678.195	3330.85
678.386	3261.22
678.576	3365.67
678.767	3283.75
678.957	3226.4
679.148	3384.1
679.338	3253.03
679.529	3128.1
679.719	3293.99
679.909	3220.26
680.1	3148.58
680.29	3113.77
680.481	3150.63
680.671	3138.34
680.861	2992.94
681.052	3222.31
681.242	2933.54
681.432	3220.26
681.622	3052.33
681.813	3111.72
682.003	3136.29
682.193	3138.34
682.383	3046.18
682.573	3156.77
682.764	3021.61
682.954	3029.8
683.144	2900.78
683.334	2939.69
683.524	2941.74
683.714	2980.65
683.904	2908.97
684.094	2923.3
684.284	2970.41
684.474	2751.28
684.664	2808.62
684.854	2880.3
685.044	2921.26
685.234	2847.53
685.424	2808.62
685.614	2888.49
685.804	2808.62
685.994	2919.21
686.184	2827.05
686.374	2763.56
686.564	2683.69
686.753	2749.23
686.943	2818.86
687.133	2677.55
687.323	2642.73
687.513	2669.36
687.702	2718.51
687.892	2806.57
688.082	2593.58
688.272	2726.7
688.461	2777.9
688.651	2781.99
688.841	2628.4
689.03	2704.17
689.22	2542.38
689.41	2730.8
689.599	2712.36
689.789	2698.03
689.979	2741.04
690.168	2618.16
690.358	2628.4
690.547	2689.84
690.737	2661.16
690.926	2714.41
691.116	2634.54
691.305	2669.36
691.495	2663.21
691.684	2595.63
691.874	2657.07
692.063	2581.29
692.252	2589.49
692.442	2597.68
692.631	2618.16
692.82	2644.78
693.01	2540.33
693.199	2638.64
693.388	2523.95
693.578	2439.98
693.767	2585.39
693.956	2560.81
694.146	2472.75
694.335	2591.53
694.524	2509.62
694.713	2587.44
694.902	2589.49
695.092	2573.1
695.281	2530.09
695.47	2636.59
695.659	2448.18
695.848	2634.54
696.037	2591.53
696.226	2583.34
696.415	2571.05
696.604	2591.53
696.793	2609.97
696.982	2632.49
697.171	2628.4
697.36	2513.71
697.549	2652.97
697.738	2587.44
697.927	2587.44
698.116	2505.52
698.305	2667.31
698.494	2530.09
698.683	2485.04
698.872	2585.39
699.061	2622.25
699.25	2532.14
699.438	2519.85
699.627	2538.29
699.816	2437.94
700.005	2491.18
700.193	2437.94
700.382	2513.71
700.571	2489.14
700.76	2515.76
700.948	2427.7
701.137	2556.72
701.326	2507.57
701.514	2474.8
701.703	2382.64
701.892	2349.87
702.08	2415.41
702.269	2450.22
702.457	2497.33
702.646	2482.99
702.834	2423.6
703.023	2306.87
703.212	2390.83
703.4	2474.8
703.589	2429.74
703.777	2487.09
703.965	2378.55
704.154	2349.87
704.342	2464.56
704.531	2390.83
704.719	2413.36
704.907	2296.63
705.096	2429.74
705.284	2331.44
705.472	2294.58
705.661	2407.22
705.849	2306.87
706.037	2364.21
706.226	2276.15
706.414	2384.69
706.602	2259.76
706.79	2337.59
706.979	2290.48
707.167	2272.05
707.355	2229.04
707.543	2202.42
707.731	2270
707.919	2321.2
708.107	2317.11
708.296	2251.57
708.484	2233.14
708.672	2247.48
708.86	2181.94
709.048	2358.07
709.236	2296.63
709.424	2159.41
709.612	2067.25
709.8	2274.1
709.988	2153.27
710.176	2179.89
710.364	2173.75
710.551	2227
710.739	2155.32
710.927	2079.54
711.115	2071.35
711.303	2138.93
711.491	2153.27
711.679	2143.03
711.866	2020.15
712.054	2087.73
712.242	1983.29
712.43	2069.3
712.617	2102.07
712.805	2046.77
712.993	2028.34
713.181	1997.62
713.368	1979.19
713.556	2065.21
713.744	2007.86
713.931	2016.05
714.119	1987.38
714.306	2061.11
714.494	2048.82
714.682	2036.53
714.869	1981.24
715.057	2028.34
715.244	1919.8
715.432	1911.61
715.619	1895.22
715.807	1989.43
715.994	1899.32
716.182	1866.55
716.369	1841.98
716.556	1925.94
716.744	1954.62
716.931	1919.8
717.119	1884.98
717.306	1825.59
717.493	1803.07
717.681	1903.42
717.868	2026.29
718.055	1784.63
718.242	1940.28
718.43	1809.21
718.617	1801.02
718.804	1829.69
718.991	1899.32
719.179	1762.11
719.366	1768.25
719.553	1745.72
719.74	1663.8
719.927	1776.44
720.114	1837.88
720.301	1727.29
720.488	1706.81
720.676	1565.5
720.863	1768.25
721.05	1669.95
721.237	1790.78
721.424	1637.18
721.611	1725.24
721.798	1639.23
721.985	1751.87
722.172	1659.71
722.358	1590.08
722.545	1643.32
722.732	1598.27
722.919	1657.66
723.106	1651.52
723.293	1643.32
723.48	1512.25
723.667	1639.23
723.853	1579.84
724.04	1594.17
724.227	1628.99
724.414	1622.84
724.6	1622.84
724.787	1475.39
724.974	1604.41
725.161	1612.6
725.347	1436.48
725.534	1571.65
725.72	1473.34
725.907	1622.84
726.094	1551.17
726.28	1508.16
726.467	1561.41
726.653	1495.87
726.84	1481.53
727.027	1530.69
727.213	1487.68
727.4	1495.87
727.586	1418.05
727.773	1502.01
727.959	1456.96
728.145	1440.58
728.332	1358.66
728.518	1446.72
728.705	1397.57
728.891	1375.04
729.077	1436.48
729.264	1420.1
729.45	1366.85
729.636	1454.91
729.823	1284.93
730.009	1366.85
730.195	1325.89
730.382	1356.61
730.568	1397.57
730.754	1465.15
730.94	1366.85
731.126	1395.52
731.313	1309.51
731.499	1346.37
731.685	1444.67
731.871	1338.18
732.057	1332.03
732.243	1303.36
732.429	1309.51
732.615	1332.03
732.801	1366.85
732.987	1248.07
733.173	1407.81
733.359	1223.49
733.545	1266.5
733.731	1301.31
733.917	1219.39
734.103	1299.27
734.289	1248.07
734.475	1284.93
734.661	1239.87
734.847	1205.06
735.033	1340.22
735.219	1157.96
735.404	1211.2
735.59	1286.98
735.776	1280.83
735.962	1182.53
736.148	1293.12
736.333	1194.82
736.519	1198.92
736.705	1157.96
736.89	1276.74
737.076	1229.63
737.262	1219.39
737.447	1221.44
737.633	1135.43
737.819	1219.39
738.004	1145.67
738.19	1172.29
738.375	1071.94
738.561	1170.24
738.747	1217.35
738.932	1231.68
739.118	1205.06
739.303	1184.58
739.489	1088.32
739.674	1125.19
739.859	1160
740.045	1092.42
740.23	1080.13
740.416	1080.13
740.601	1080.13
740.786	1026.89
740.972	1088.32
741.157	1110.85
741.342	1055.56
741.528	1139.52
741.713	1022.79
741.898	1057.61
742.084	990.02
742.269	1057.61
742.454	1084.23
742.639	1071.94
742.824	969.54
743.01	1047.37
743.195	1006.41
743.38	1065.8
743.565	1033.03
743.75	990.02
743.935	973.64
744.12	1035.08
744.305	1045.32
744.49	1008.45
744.675	1018.69
744.86	949.06
745.045	1082.18
745.23	947.01
745.415	981.83
745.6	969.54
745.785	990.02
745.97	996.17
746.155	928.58
746.34	877.38
746.525	1002.31
746.71	969.54
746.895	926.54
747.079	942.92
747.264	899.91
747.449	879.43
747.634	899.91
747.819	899.91
748.003	971.59
748.188	842.57
748.373	822.09
748.557	895.82
748.742	871.24
748.927	871.24
749.111	871.24
749.296	869.19
749.481	852.81
749.665	914.25
749.85	861
750.034	842.57
750.219	848.71
750.404	783.18
750.588	797.51
750.773	807.75
750.957	828.23
751.141	883.53
751.326	764.75
751.51	756.55
751.695	762.7
751.879	752.46
752.064	815.94
752.248	813.9
752.432	725.83
752.617	813.9
752.801	791.37
752.985	731.98
753.17	801.61
753.354	707.4
753.538	787.27
753.722	701.26
753.907	621.39
754.091	697.16
754.275	748.36
754.459	705.35
754.643	719.69
754.828	699.21
755.012	709.45
755.196	734.03
755.38	734.03
755.564	658.25
755.748	656.2
755.932	697.16
756.116	615.24
756.3	715.59
756.484	643.92
756.668	652.11
756.852	695.11
757.036	727.88
757.22	596.81
757.404	584.52
757.588	590.67
757.772	680.78
757.956	572.24
758.14	658.25
758.323	600.91
758.507	631.63
758.691	613.2
758.875	621.39
759.059	648.01
759.242	625.48
759.426	576.33
759.61	516.94
759.794	584.52
759.977	629.58
760.161	572.24
760.345	668.49
760.528	564.04
760.712	572.24
760.895	527.18
761.079	543.57
761.263	578.38
761.446	492.37
761.63	502.61
761.813	516.94
761.997	539.47
762.18	588.62
762.364	494.41
762.547	496.46
762.731	594.76
762.914	590.67
763.098	406.35
763.281	549.71
763.464	555.85
763.648	623.44
763.831	529.23
764.015	574.28
764.198	555.85
764.381	467.79
764.564	568.14
764.748	500.56
764.931	504.65
765.114	555.85
765.297	570.19
765.481	508.75
765.664	551.76
765.847	490.32
766.03	484.17
766.213	508.75
766.397	512.85
766.58	457.55
766.763	523.09
766.946	525.13
767.129	543.57
767.312	492.37
767.495	471.89
767.678	482.13
767.861	512.85
768.044	502.61
768.227	490.32
768.41	525.13
768.593	496.46
768.776	381.78
768.959	463.69
769.142	457.55
769.324	539.47
769.507	451.41
769.69	455.5
769.873	428.88
770.056	543.57
770.239	461.65
770.421	490.32
770.604	463.69
770.787	478.03
770.97	441.17
771.152	435.02
771.335	408.4
771.518	508.75
771.7	471.89
771.883	490.32
772.066	428.88
772.248	508.75
772.431	381.78
772.613	478.03
772.796	443.21
772.978	443.21
773.161	453.45
773.343	389.97
773.526	392.02
773.708	441.17
773.891	410.45
774.073	342.86
774.256	435.02
774.438	426.83
774.621	385.87
774.803	377.68
774.985	381.78
775.168	392.02
775.35	402.26
775.532	338.77
775.715	344.91
775.897	486.22
776.079	443.21
776.261	418.64
776.444	398.16
776.626	351.06
776.808	385.87
776.99	375.63
777.173	389.97
777.355	418.64
777.537	385.87
777.719	338.77
777.901	312.14
778.083	426.83
778.265	342.86
778.447	303.95
778.629	344.91
778.811	351.06
778.993	377.68
779.175	342.86
779.357	306
779.539	301.9
779.721	334.67
779.903	381.78
780.085	308.05
780.267	363.34
780.449	256.85
780.631	373.58
780.812	351.06
780.994	392.02
781.176	283.47
781.358	297.81
781.54	314.19
781.721	336.72
781.903	295.76
782.085	328.53
782.267	381.78
782.448	346.96
782.63	295.76
782.812	338.77
782.993	301.9
783.175	332.62
783.357	287.57
783.538	351.06
783.72	312.14
783.901	287.57
784.083	281.43
784.264	320.34
784.446	183.12
784.627	273.23
784.809	281.43
784.99	254.8
785.172	234.32
785.353	283.47
785.535	273.23
785.716	262.99
785.897	297.81
786.079	285.52
786.26	250.71
786.441	211.79
786.623	269.14
786.804	232.27
786.985	306
787.167	248.66
787.348	244.56
787.529	240.47
787.71	195.41
787.891	346.96
788.073	207.7
788.254	322.38
788.435	144.21
788.616	201.55
788.797	260.95
788.978	285.52
789.159	242.51
789.34	213.84
789.522	181.07
789.703	183.12
789.884	275.28
790.065	219.99
790.246	242.51
790.427	189.27
790.607	224.08
790.788	203.6
790.969	90.96
791.15	219.99
791.331	150.36
791.512	248.66
791.693	246.61
791.874	215.89
792.054	224.08
792.235	287.57
792.416	205.65
792.597	254.8
792.778	271.19
792.958	187.22
793.139	195.41
793.32	142.16
793.5	195.41
793.681	240.47
793.862	154.45
794.042	260.95
794.223	131.92
794.404	164.69
794.584	121.68
794.765	154.45
794.945	189.27
795.126	185.17
795.306	232.27
795.487	205.65
795.667	172.88
795.848	125.78
796.028	142.16
796.209	181.07
796.389	131.92
796.57	207.7
796.75	133.97
796.93	168.79
797.111	82.77
797.291	154.45
797.471	179.03
797.652	168.79
797.832	80.72
798.012	232.27
798.192	176.98
798.373	140.12
798.553	127.83
798.733	156.5
798.913	113.49
799.093	201.55
799.274	117.59
799.454	207.7
799.634	90.96
799.814	185.17
799.994	217.94
800.174	86.87
800.354	228.18
800.534	88.92
800.714	172.88
800.894	101.2
801.074	103.25
801.254	117.59
801.434	123.73
801.614	158.55
801.794	160.59
801.974	430.93
802.154	152.4
802.334	146.26
802.514	129.88
802.693	154.45
802.873	50
803.053	146.26
803.233	50
803.413	117.59
803.592	97.11
803.772	76.63
803.952	176.98
804.131	164.69
804.311	72.53
804.491	183.12
804.67	45.91
804.85	144.21
805.03	205.65
805.209	74.58
805.389	138.07
805.568	88.92
805.748	17.24
805.928	113.49
806.107	140.12
806.287	121.68
806.466	99.16
806.646	107.35
806.825	97.11
807.004	129.88
807.184	109.4
807.363	107.35
807.543	99.16
807.722	160.59
807.901	93.01
808.081	90.96
808.26	101.2
808.439	90.96
808.619	50
808.798	9.05
808.977	68.44
809.156	111.44
809.336	93.01
809.515	99.16
809.694	146.26
809.873	103.25
810.052	97.11
810.231	90.96
810.411	88.92
810.59	82.77
810.769	90.96
810.948	82.77
811.127	84.82
811.306	105.3
811.485	68.44
811.664	125.78
811.843	41.81
812.022	97.11
812.201	93.01
812.38	66.39
812.559	156.5
812.737	117.59
812.916	95.06
813.095	50
813.274	138.07
813.453	58.2
813.632	60.24
813.811	97.11
813.989	72.53
814.168	103.25
814.347	72.53
814.526	99.16
814.704	60.24
814.883	197.46
815.062	15.19
815.24	13.14
815.419	-17.58
815.598	74.58
815.776	58.2
815.955	78.68
816.133	99.16
816.312	68.44
816.49	64.34
816.669	88.92
816.847	88.92
817.026	68.44
817.204	50
817.383	50
817.561	35.67
817.74	58.2
817.918	74.58
818.097	88.92
818.275	41.81
818.453	58.2
818.632	103.25
818.81	60.24
818.988	86.87
819.167	68.44
819.345	74.58
819.523	60.24
819.701	54.1
819.879	47.96
820.058	58.2
820.236	82.77
820.414	76.63
820.592	78.68
820.77	13.14
820.948	121.68
821.127	119.64
821.305	37.72
821.483	80.72
821.661	25.43
821.839	150.36
822.017	125.78
822.195	13.14
822.373	127.83
822.551	62.29
822.729	74.58
822.907	62.29
823.085	80.72
823.262	72.53
823.44	62.29
823.618	54.1
823.796	45.91
823.974	123.73
824.152	58.2
824.329	11.09
824.507	60.24
824.685	-25.77
824.863	109.4
825.04	0.85
825.218	43.86
825.396	78.68
825.574	21.33
825.751	60.24
825.929	80.72
826.107	68.44
826.284	37.72
826.462	17.24
826.639	15.19
826.817	41.81
826.994	-5.29
827.172	29.52
827.349	25.43
827.527	138.07
827.704	84.82
827.882	47.96
828.059	97.11
828.237	72.53
828.414	68.44
828.591	-58.54
828.769	60.24
828.946	33.62
829.124	113.49
829.301	7
829.478	99.16
829.655	68.44
829.833	105.3
830.01	-1.19
830.187	45.91
830.364	25.43
830.542	105.3
830.719	17.24
830.896	50
831.073	78.68
831.25	64.34
831.427	66.39
831.604	-5.29
831.782	-52.39
831.959	64.34
832.136	-52.39
832.313	101.2
832.49	39.76
832.667	74.58
832.844	-7.34
833.021	0.85
833.198	58.2
833.374	15.19
833.551	54.1
833.728	52.05
833.905	80.72
834.082	41.81
834.259	52.05
834.436	70.48
834.612	54.1
834.789	33.62
834.966	56.15
835.143	23.38
835.319	-19.63
835.496	31.57
835.673	27.48
835.85	117.59
836.026	23.38
836.203	-38.06
836.38	41.81
836.556	50
836.733	11.09
836.909	121.68
837.086	-25.77
837.262	27.48
837.439	111.44
837.616	31.57
837.792	-3.24
837.968	54.1
838.145	-3.24
838.321	62.29
838.498	64.34
838.674	58.2
838.851	4.95
839.027	64.34
839.203	27.48
839.38	90.96
839.556	-9.39
839.732	95.06
839.909	7
840.085	-3.24
840.261	72.53
840.437	31.57
840.614	41.81
840.79	74.58
840.966	-31.91
841.142	50
841.318	-7.34
841.494	-9.39
841.671	13.14
841.847	15.19
842.023	-1.19
842.199	66.39
842.375	-7.34
842.551	66.39
842.727	47.96
842.903	105.3
843.079	39.76
843.255	21.33
843.431	-46.25
843.607	25.43
843.783	11.09
843.959	9.05
844.134	15.19
844.31	68.44
844.486	19.29
844.662	39.76
844.838	7
845.013	47.96
845.189	60.24
845.365	17.24
845.541	11.09
845.716	66.39
845.892	50
846.068	-50.35
846.244	39.76
846.419	-5.29
846.595	39.76
846.77	-1.19
846.946	27.48
847.122	64.34
847.297	25.43
847.473	43.86
847.648	27.48
847.824	39.76
847.999	-19.63
848.175	58.2
848.35	4.95
848.526	41.81
848.701	64.34
848.876	-13.48
849.052	23.38
849.227	-52.39
849.403	-17.58
849.578	-56.49
849.753	70.48
849.929	62.29
850.104	56.15
850.279	50
850.454	29.52
850.63	0.85
850.805	15.19
850.98	11.09
851.155	50
851.33	41.81
851.505	-36.01
851.681	35.67
851.856	35.67
852.031	82.77
852.206	-5.29
852.381	-42.15
852.556	-1.19
852.731	11.09
852.906	-36.01
853.081	-25.77
853.256	97.11
853.431	-15.53
853.606	-5.29
853.781	-33.96
853.956	58.2
854.131	88.92
854.305	-56.49
854.48	19.29
854.655	33.62
854.83	97.11
855.005	-70.83
855.18	35.67
855.354	-11.43
855.529	39.76
855.704	-42.15
855.879	37.72
856.053	11.09
856.228	45.91
856.403	17.24
856.577	-17.58
856.752	25.43
856.926	37.72
857.101	-1.19
857.276	54.1
857.45	-17.58
857.625	66.39
857.799	-7.34
857.974	-25.77
858.148	15.19
858.323	-1.19
858.497	-13.48
858.672	25.43
858.846	-5.29
859.02	-5.29
859.195	-23.72
859.369	52.05
859.543	52.05
859.718	43.86
859.892	25.43
860.066	66.39
860.241	-29.87
860.415	0.85
860.589	0.85
860.763	-17.58
860.938	-54.44
861.112	17.24
861.286	-1.19
861.46	41.81
861.634	64.34
861.808	17.24
861.982	-19.63
862.157	41.81
862.331	-11.43
862.505	17.24
862.679	-27.82
862.853	39.76
863.027	15.19
863.201	68.44
863.375	-40.11
863.549	31.57
863.722	15.19
863.896	2.9
864.07	9.05
864.244	0.85
864.418	39.76
864.592	-17.58
864.766	86.87
864.939	-36.01
865.113	-27.82
865.287	-1.19
865.461	52.05
865.634	35.67
865.808	4.95
865.982	37.72
866.156	-15.53
866.329	-42.15
866.503	25.43
866.676	35.67
866.85	21.33
867.024	97.11
867.197	50
867.371	-42.15
867.544	-42.15
867.718	-25.77
867.891	37.72
868.065	-31.91
868.238	4.95
868.412	52.05
868.585	43.86
868.759	31.57
868.932	62.29
869.105	82.77
869.279	-23.72
869.452	50
869.625	0.85
869.799	0.85
869.972	15.19
870.145	-23.72
870.319	31.57
870.492	31.57
870.665	107.35
870.838	-42.15
871.011	-17.58
871.185	-17.58
871.358	23.38
871.531	-17.58
871.704	-19.63
871.877	41.81
872.05	-19.63
872.223	39.76
872.396	35.67
872.569	-42.15
872.742	47.96
872.915	37.72
873.088	-21.67
873.261	25.43
873.434	-21.67
873.607	-9.39
873.78	58.2
873.953	-17.58
874.126	39.76
874.299	25.43
874.471	43.86
874.644	47.96
874.817	-9.39
874.99	-33.96
875.163	58.2
875.335	-5.29
875.508	-48.3
875.681	-7.34
875.853	54.1
876.026	56.15
876.199	11.09
876.371	101.2
876.544	45.91
876.717	15.19
876.889	-42.15
877.062	66.39
877.234	-1.19
877.407	131.92
877.579	7
877.752	52.05
877.924	-1.19
878.097	-1.19
878.269	-40.11
878.442	-5.29
878.614	29.52
878.786	23.38
878.959	-3.24
879.131	23.38
879.303	-19.63
879.476	47.96
879.648	25.43
879.82	2.9
879.993	33.62
880.165	19.29
880.337	70.48
880.509	-50.35
880.681	23.38
880.854	21.33
881.026	-13.48
881.198	72.53
881.37	70.48
881.542	47.96
881.714	-9.39
881.886	70.48
882.058	7
882.23	-13.48
882.402	56.15
882.574	41.81
882.746	35.67
882.918	15.19
883.09	7
883.262	9.05
883.434	39.76
883.606	-19.63
883.778	27.48
883.95	33.62
884.122	25.43
884.293	72.53
884.465	39.76
884.637	27.48
884.809	-1.19
884.98	-40.11
885.152	2.9
885.324	-46.25
885.496	50
885.667	-40.11
885.839	35.67
886.011	43.86
886.182	76.63
886.354	23.38
886.525	-31.91
886.697	76.63
886.869	19.29
887.04	-68.78
887.212	-15.53
887.383	-15.53
887.555	41.81
887.726	9.05
887.897	11.09
888.069	39.76
888.24	2.9
888.412	21.33
888.583	11.09
888.754	25.43
888.926	-23.72
889.097	13.14
889.268	-19.63
889.44	-17.58
889.611	-64.68
889.782	-3.24
889.953	-1.19
890.125	27.48
890.296	15.19
890.467	-9.39
890.638	-40.11
890.809	23.38
890.98	-31.91
891.151	-5.29
891.323	-81.07
891.494	-38.06
891.665	86.87
891.836	84.82
892.007	-29.87
892.178	-5.29
892.349	-9.39
892.52	2.9
892.691	-27.82
892.862	33.62
893.032	45.91
893.203	52.05
893.374	11.09
893.545	35.67
893.716	2.9
893.887	23.38
894.057	11.09
894.228	-33.96
894.399	11.09
894.57	11.09
894.74	47.96
894.911	-50.35
895.082	37.72
895.253	-23.72
895.423	-38.06
895.594	-1.19
895.764	33.62
895.935	-17.58
896.106	2.9
896.276	23.38
896.447	25.43
896.617	0.85
896.788	-72.87
896.958	17.24
897.129	-15.53
897.299	-33.96
897.47	-31.91
897.64	-48.3
897.81	82.77
897.981	-46.25
898.151	64.34
898.322	-15.53
898.492	52.05
898.662	-9.39
898.832	11.09
899.003	-46.25
899.173	-25.77
899.343	19.29
899.513	-42.15
