Data from USB4F104151__124__13-57-53-838.txt Node

Date: Thu Mar 13 13:57:53 EDT 2025
User: louis
Spectrometer: USB4F10415
Trigger mode: 4
Integration Time (sec): 1.000000E-2
Scans to average: 1
Electric dark correction enabled: true
Nonlinearity correction enabled: false
Boxcar width: 0
XAxis mode: Wavelengths
Number of Pixels in Spectrum: 3648
>>>>>Begin Spectral Data<<<<<
178.204	-48.3
178.424	-48.3
178.644	-48.3
178.864	-62.63
179.084	-17.58
179.304	25.43
179.524	-50.35
179.744	19.29
179.964	33.62
180.184	37.72
180.404	68.44
180.624	-40.11
180.844	-7.34
181.064	-33.96
181.283	27.48
181.503	-48.3
181.723	-31.91
181.943	-42.15
182.163	33.62
182.383	-66.73
182.602	27.48
182.822	-27.82
183.042	64.34
183.262	-33.96
183.482	0.85
183.701	-44.2
183.921	-29.87
184.141	2.9
184.361	-62.63
184.58	-62.63
184.8	23.38
185.02	-5.29
185.239	7
185.459	-36.01
185.679	37.72
185.898	0.85
186.118	39.76
186.338	-29.87
186.557	0.85
186.777	15.19
186.997	-1.19
187.216	0.85
187.436	80.72
187.655	47.96
187.875	68.44
188.095	50
188.314	-36.01
188.534	2.9
188.753	-9.39
188.973	-21.67
189.192	-33.96
189.412	39.76
189.631	-15.53
189.851	-5.29
190.07	41.81
190.29	52.05
190.509	21.33
190.729	15.19
190.948	21.33
191.168	52.05
191.387	43.86
191.607	-21.67
191.826	-9.39
192.045	52.05
192.265	93.01
192.484	-85.16
192.704	-27.82
192.923	-1.19
193.142	7
193.362	-15.53
193.581	39.76
193.8	17.24
194.02	-46.25
194.239	2.9
194.458	-33.96
194.678	90.96
194.897	47.96
195.116	52.05
195.335	47.96
195.555	45.91
195.774	-17.58
195.993	25.43
196.212	-25.77
196.432	54.1
196.651	35.67
196.87	-36.01
197.089	60.24
197.308	-44.2
197.528	13.14
197.747	17.24
197.966	21.33
198.185	17.24
198.404	47.96
198.623	-52.39
198.842	41.81
199.062	-13.48
199.281	9.05
199.5	15.19
199.719	13.14
199.938	-21.67
200.157	58.2
200.376	-58.54
200.595	19.29
200.814	68.44
201.033	-15.53
201.252	52.05
201.471	-7.34
201.69	-17.58
201.909	31.57
202.128	-36.01
202.347	7
202.566	-54.44
202.785	21.33
203.004	-50.35
203.223	27.48
203.442	39.76
203.661	29.52
203.879	-19.63
204.098	45.91
204.317	97.11
204.536	27.48
204.755	11.09
204.974	58.2
205.193	31.57
205.411	27.48
205.63	23.38
205.849	23.38
206.068	-33.96
206.287	-58.54
206.505	23.38
206.724	0.85
206.943	25.43
207.162	23.38
207.381	21.33
207.599	31.57
207.818	0.85
208.037	35.67
208.255	27.48
208.474	78.68
208.693	-15.53
208.911	25.43
209.13	17.24
209.349	19.29
209.567	43.86
209.786	-15.53
210.005	21.33
210.223	11.09
210.442	47.96
210.661	-5.29
210.879	-1.19
211.098	41.81
211.316	-11.43
211.535	-7.34
211.753	-19.63
211.972	-23.72
212.191	-42.15
212.409	-15.53
212.628	-25.77
212.846	-9.39
213.065	72.53
213.283	39.76
213.502	4.95
213.72	60.24
213.938	25.43
214.157	17.24
214.375	47.96
214.594	2.9
214.812	-11.43
215.031	23.38
215.249	37.72
215.467	19.29
215.686	43.86
215.904	45.91
216.122	-23.72
216.341	74.58
216.559	-23.72
216.778	-1.19
216.996	-9.39
217.214	-7.34
217.432	9.05
217.651	17.24
217.869	-23.72
218.087	19.29
218.306	33.62
218.524	-1.19
218.742	13.14
218.96	-33.96
219.179	-40.11
219.397	35.67
219.615	41.81
219.833	66.39
220.051	31.57
220.27	64.34
220.488	31.57
220.706	-1.19
220.924	-29.87
221.142	74.58
221.36	-81.07
221.578	60.24
221.796	58.2
222.015	31.57
222.233	54.1
222.451	35.67
222.669	-1.19
222.887	52.05
223.105	-9.39
223.323	-23.72
223.541	-50.35
223.759	9.05
223.977	11.09
224.195	17.24
224.413	13.14
224.631	-5.29
224.849	-15.53
225.067	-11.43
225.285	37.72
225.503	39.76
225.721	-9.39
225.939	-15.53
226.157	80.72
226.375	-1.19
226.592	23.38
226.81	27.48
227.028	37.72
227.246	-7.34
227.464	82.77
227.682	-1.19
227.9	39.76
228.117	66.39
228.335	-9.39
228.553	-7.34
228.771	4.95
228.989	56.15
229.206	11.09
229.424	88.92
229.642	-15.53
229.86	4.95
230.077	68.44
230.295	-7.34
230.513	-1.19
230.731	4.95
230.948	-58.54
231.166	21.33
231.384	11.09
231.601	2.9
231.819	15.19
232.037	2.9
232.254	41.81
232.472	-7.34
232.689	-42.15
232.907	31.57
233.125	-21.67
233.342	19.29
233.56	0.85
233.777	35.67
233.995	27.48
234.213	70.48
234.43	29.52
234.648	13.14
234.865	-44.2
235.083	35.67
235.3	31.57
235.518	9.05
235.735	37.72
235.953	64.34
236.17	64.34
236.388	0.85
236.605	35.67
236.822	-3.24
237.04	93.01
237.257	-21.67
237.475	-17.58
237.692	13.14
237.909	50
238.127	60.24
238.344	-15.53
238.562	62.29
238.779	4.95
238.996	31.57
239.214	17.24
239.431	66.39
239.648	-1.19
239.865	11.09
240.083	21.33
240.3	54.1
240.517	56.15
240.735	15.19
240.952	4.95
241.169	56.15
241.386	-1.19
241.603	11.09
241.821	-13.48
242.038	47.96
242.255	88.92
242.472	-9.39
242.689	-9.39
242.907	15.19
243.124	-42.15
243.341	15.19
243.558	-5.29
243.775	80.72
243.992	-33.96
244.209	19.29
244.426	64.34
244.643	35.67
244.86	7
245.078	39.76
245.295	-1.19
245.512	-7.34
245.729	13.14
245.946	19.29
246.163	17.24
246.38	-56.49
246.597	82.77
246.814	50
247.031	41.81
247.248	-27.82
247.464	41.81
247.681	7
247.898	-44.2
248.115	64.34
248.332	15.19
248.549	25.43
248.766	60.24
248.983	80.72
249.2	35.67
249.417	31.57
249.633	50
249.85	7
250.067	-17.58
250.284	64.34
250.501	0.85
250.717	97.11
250.934	35.67
251.151	15.19
251.368	-15.53
251.585	52.05
251.801	64.34
252.018	72.53
252.235	105.3
252.451	64.34
252.668	25.43
252.885	-9.39
253.102	15.19
253.318	19.29
253.535	-29.87
253.752	39.76
253.968	9.05
254.185	19.29
254.401	-29.87
254.618	21.33
254.835	-27.82
255.051	17.24
255.268	41.81
255.484	39.76
255.701	2.9
255.917	29.52
256.134	74.58
256.351	-13.48
256.567	29.52
256.784	-13.48
257	-46.25
257.217	54.1
257.433	47.96
257.65	80.72
257.866	66.39
258.082	105.3
258.299	0.85
258.515	-9.39
258.732	-19.63
258.948	88.92
259.165	-19.63
259.381	39.76
259.597	45.91
259.814	29.52
260.03	33.62
260.246	47.96
260.463	43.86
260.679	78.68
260.895	-27.82
261.112	41.81
261.328	68.44
261.544	23.38
261.761	47.96
261.977	27.48
262.193	78.68
262.409	13.14
262.626	19.29
262.842	78.68
263.058	-11.43
263.274	-1.19
263.49	-25.77
263.707	39.76
263.923	23.38
264.139	-15.53
264.355	54.1
264.571	82.77
264.787	4.95
265.004	41.81
265.22	-25.77
265.436	0.85
265.652	2.9
265.868	-5.29
266.084	-38.06
266.3	13.14
266.516	7
266.732	68.44
266.948	47.96
267.164	-9.39
267.38	54.1
267.596	68.44
267.812	39.76
268.028	39.76
268.244	72.53
268.46	80.72
268.676	13.14
268.892	45.91
269.108	0.85
269.324	37.72
269.54	-42.15
269.756	41.81
269.972	35.67
270.188	11.09
270.403	66.39
270.619	56.15
270.835	29.52
271.051	123.73
271.267	-3.24
271.483	-1.19
271.698	-64.68
271.914	-36.01
272.13	23.38
272.346	80.72
272.562	7
272.777	90.96
272.993	80.72
273.209	4.95
273.425	-83.11
273.64	23.38
273.856	62.29
274.072	29.52
274.287	72.53
274.503	52.05
274.719	2.9
274.934	-40.11
275.15	-5.29
275.366	19.29
275.581	9.05
275.797	17.24
276.012	-3.24
276.228	43.86
276.444	-23.72
276.659	27.48
276.875	-23.72
277.09	13.14
277.306	-42.15
277.521	31.57
277.737	23.38
277.952	25.43
278.168	11.09
278.383	66.39
278.599	2.9
278.814	-17.58
279.03	82.77
279.245	64.34
279.461	15.19
279.676	23.38
279.892	7
280.107	60.24
280.322	-42.15
280.538	0.85
280.753	31.57
280.969	13.14
281.184	54.1
281.399	4.95
281.615	4.95
281.83	-1.19
282.045	7
282.26	0.85
282.476	54.1
282.691	2.9
282.906	64.34
283.122	27.48
283.337	-9.39
283.552	27.48
283.767	115.54
283.983	45.91
284.198	35.67
284.413	43.86
284.628	-25.77
284.843	-11.43
285.058	-7.34
285.274	43.86
285.489	-33.96
285.704	-27.82
285.919	-9.39
286.134	23.38
286.349	52.05
286.564	25.43
286.779	-48.3
286.995	58.2
287.21	-27.82
287.425	47.96
287.64	-13.48
287.855	47.96
288.07	35.67
288.285	41.81
288.5	4.95
288.715	97.11
288.93	95.06
289.145	25.43
289.36	54.1
289.575	15.19
289.79	-25.77
290.004	7
290.219	76.63
290.434	27.48
290.649	-29.87
290.864	-72.87
291.079	66.39
291.294	50
291.509	-23.72
291.724	-81.07
291.938	-36.01
292.153	68.44
292.368	17.24
292.583	58.2
292.798	45.91
293.012	56.15
293.227	41.81
293.442	39.76
293.657	-15.53
293.871	27.48
294.086	-31.91
294.301	47.96
294.516	58.2
294.73	-1.19
294.945	76.63
295.16	60.24
295.374	50
295.589	84.82
295.804	35.67
296.018	64.34
296.233	74.58
296.447	-40.11
296.662	-9.39
296.877	68.44
297.091	29.52
297.306	54.1
297.52	52.05
297.735	-9.39
297.949	33.62
298.164	-9.39
298.378	68.44
298.593	17.24
298.807	-1.19
299.022	56.15
299.236	78.68
299.451	72.53
299.665	-42.15
299.88	33.62
300.094	-66.73
300.309	37.72
300.523	60.24
300.737	15.19
300.952	39.76
301.166	-13.48
301.381	47.96
301.595	64.34
301.809	4.95
302.024	25.43
302.238	33.62
302.452	58.2
302.667	21.33
302.881	29.52
303.095	68.44
303.309	0.85
303.524	-60.59
303.738	-33.96
303.952	-38.06
304.166	82.77
304.381	27.48
304.595	78.68
304.809	-3.24
305.023	29.52
305.237	-13.48
305.452	-5.29
305.666	86.87
305.88	41.81
306.094	52.05
306.308	27.48
306.522	-1.19
306.736	72.53
306.95	29.52
307.164	25.43
307.379	29.52
307.593	4.95
307.807	41.81
308.021	7
308.235	-7.34
308.449	27.48
308.663	23.38
308.877	74.58
309.091	23.38
309.305	23.38
309.519	-1.19
309.733	52.05
309.947	-15.53
310.161	-9.39
310.374	39.76
310.588	27.48
310.802	-23.72
311.016	66.39
311.23	2.9
311.444	35.67
311.658	35.67
311.872	17.24
312.085	35.67
312.299	29.52
312.513	-11.43
312.727	27.48
312.941	-1.19
313.154	-68.78
313.368	-7.34
313.582	-3.24
313.796	-40.11
314.009	-25.77
314.223	15.19
314.437	45.91
314.651	-27.82
314.864	-33.96
315.078	-64.68
315.292	47.96
315.505	13.14
315.719	56.15
315.933	-25.77
316.146	17.24
316.36	7
316.573	64.34
316.787	15.19
317.001	4.95
317.214	-3.24
317.428	17.24
317.641	47.96
317.855	25.43
318.068	31.57
318.282	27.48
318.495	23.38
318.709	86.87
318.922	-23.72
319.136	9.05
319.349	52.05
319.563	97.11
319.776	-23.72
319.99	-27.82
320.203	9.05
320.417	45.91
320.63	-1.19
320.843	74.58
321.057	78.68
321.27	58.2
321.483	52.05
321.697	33.62
321.91	-33.96
322.124	41.81
322.337	-21.67
322.55	9.05
322.763	37.72
322.977	7
323.19	41.81
323.403	25.43
323.617	-60.59
323.83	93.01
324.043	31.57
324.256	84.82
324.469	-29.87
324.683	-3.24
324.896	33.62
325.109	31.57
325.322	-15.53
325.535	31.57
325.748	21.33
325.962	66.39
326.175	-15.53
326.388	31.57
326.601	64.34
326.814	2.9
327.027	-15.53
327.24	41.81
327.453	25.43
327.666	-1.19
327.879	-54.44
328.092	-1.19
328.305	9.05
328.518	15.19
328.731	78.68
328.944	-23.72
329.157	-13.48
329.37	-48.3
329.583	52.05
329.796	47.96
330.009	-5.29
330.222	19.29
330.435	2.9
330.648	23.38
330.861	29.52
331.073	50
331.286	39.76
331.499	39.76
331.712	45.91
331.925	50
332.138	56.15
332.35	0.85
332.563	41.81
332.776	15.19
332.989	-19.63
333.202	41.81
333.414	15.19
333.627	13.14
333.84	52.05
334.053	-1.19
334.265	2.9
334.478	17.24
334.691	31.57
334.903	66.39
335.116	-33.96
335.329	-7.34
335.541	33.62
335.754	29.52
335.966	17.24
336.179	-15.53
336.392	56.15
336.604	-5.29
336.817	39.76
337.029	29.52
337.242	47.96
337.454	-17.58
337.667	31.57
337.88	70.48
338.092	54.1
338.305	35.67
338.517	27.48
338.729	41.81
338.942	19.29
339.154	35.67
339.367	-1.19
339.579	35.67
339.792	52.05
340.004	99.16
340.217	-7.34
340.429	21.33
340.641	-5.29
340.854	21.33
341.066	115.54
341.278	-25.77
341.491	31.57
341.703	-11.43
341.915	-36.01
342.128	13.14
342.34	88.92
342.552	7
342.764	54.1
342.977	66.39
343.189	50
343.401	33.62
343.613	47.96
343.826	17.24
344.038	-11.43
344.25	88.92
344.462	4.95
344.674	33.62
344.886	-103.59
345.099	78.68
345.311	17.24
345.523	60.24
345.735	-19.63
345.947	7
346.159	-11.43
346.371	-1.19
346.583	23.38
346.795	50
347.007	-17.58
347.219	97.11
347.431	35.67
347.643	60.24
347.855	-40.11
348.067	21.33
348.279	45.91
348.491	25.43
348.703	45.91
348.915	82.77
349.127	-38.06
349.339	80.72
349.551	37.72
349.763	35.67
349.975	66.39
350.187	-5.29
350.399	72.53
350.61	41.81
350.822	39.76
351.034	72.53
351.246	9.05
351.458	31.57
351.669	52.05
351.881	-42.15
352.093	35.67
352.305	33.62
352.517	13.14
352.728	60.24
352.94	-21.67
353.152	41.81
353.363	33.62
353.575	-7.34
353.787	0.85
353.999	41.81
354.21	80.72
354.422	-5.29
354.633	97.11
354.845	35.67
355.057	107.35
355.268	-19.63
355.48	0.85
355.692	-1.19
355.903	-15.53
356.115	97.11
356.326	11.09
356.538	45.91
356.749	64.34
356.961	50
357.172	-52.39
357.384	15.19
357.595	58.2
357.807	41.81
358.018	-29.87
358.23	-42.15
358.441	64.34
358.653	39.76
358.864	58.2
359.075	-23.72
359.287	88.92
359.498	21.33
359.709	2.9
359.921	52.05
360.132	4.95
360.344	76.63
360.555	97.11
360.766	39.76
360.977	54.1
361.189	60.24
361.4	2.9
361.611	27.48
361.823	70.48
362.034	80.72
362.245	41.81
362.456	56.15
362.667	58.2
362.879	-29.87
363.09	-7.34
363.301	62.29
363.512	-38.06
363.723	4.95
363.935	7
364.146	27.48
364.357	23.38
364.568	43.86
364.779	-15.53
364.99	47.96
365.201	50
365.412	33.62
365.623	74.58
365.834	21.33
366.045	33.62
366.256	115.54
366.467	-5.29
366.678	127.83
366.889	41.81
367.1	35.67
367.311	15.19
367.522	-23.72
367.733	84.82
367.944	39.76
368.155	70.48
368.366	23.38
368.577	-25.77
368.788	17.24
368.999	68.44
369.209	23.38
369.42	41.81
369.631	50
369.842	84.82
370.053	43.86
370.264	47.96
370.474	9.05
370.685	-17.58
370.896	82.77
371.107	125.78
371.317	88.92
371.528	-38.06
371.739	-3.24
371.95	21.33
372.16	43.86
372.371	88.92
372.582	-9.39
372.792	60.24
373.003	111.44
373.214	2.9
373.424	50
373.635	9.05
373.846	-3.24
374.056	133.97
374.267	33.62
374.477	105.3
374.688	72.53
374.898	-9.39
375.109	103.25
375.319	43.86
375.53	105.3
375.74	68.44
375.951	19.29
376.161	0.85
376.372	25.43
376.582	-13.48
376.793	60.24
377.003	58.2
377.214	33.62
377.424	74.58
377.635	62.29
377.845	21.33
378.055	54.1
378.266	72.53
378.476	7
378.686	31.57
378.897	7
379.107	17.24
379.317	-29.87
379.528	80.72
379.738	23.38
379.948	39.76
380.158	2.9
380.369	54.1
380.579	25.43
380.789	68.44
380.999	-9.39
381.21	84.82
381.42	121.68
381.63	50
381.84	78.68
382.05	37.72
382.261	45.91
382.471	64.34
382.681	-5.29
382.891	93.01
383.101	13.14
383.311	13.14
383.521	27.48
383.731	-17.58
383.941	15.19
384.151	29.52
384.361	47.96
384.571	17.24
384.781	39.76
384.991	2.9
385.201	27.48
385.411	35.67
385.621	66.39
385.831	41.81
386.041	7
386.251	-7.34
386.461	31.57
386.671	-21.67
386.881	90.96
387.091	41.81
387.301	68.44
387.511	37.72
387.72	58.2
387.93	47.96
388.14	15.19
388.35	-17.58
388.56	4.95
388.769	95.06
388.979	60.24
389.189	58.2
389.399	117.59
389.609	-9.39
389.818	29.52
390.028	13.14
390.238	76.63
390.447	50
390.657	-7.34
390.867	4.95
391.076	11.09
391.286	27.48
391.496	74.58
391.705	107.35
391.915	88.92
392.125	15.19
392.334	72.53
392.544	39.76
392.753	113.49
392.963	52.05
393.172	52.05
393.382	93.01
393.591	47.96
393.801	-29.87
394.01	76.63
394.22	43.86
394.429	84.82
394.639	103.25
394.848	101.2
395.058	123.73
395.267	25.43
395.477	105.3
395.686	125.78
395.895	70.48
396.105	52.05
396.314	99.16
396.524	68.44
396.733	88.92
396.942	66.39
397.152	80.72
397.361	107.35
397.57	125.78
397.78	31.57
397.989	39.76
398.198	66.39
398.407	109.4
398.617	60.24
398.826	15.19
399.035	101.2
399.244	17.24
399.453	60.24
399.663	127.83
399.872	60.24
400.081	117.59
400.29	138.07
400.499	15.19
400.708	62.29
400.917	111.44
401.127	97.11
401.336	95.06
401.545	144.21
401.754	105.3
401.963	101.2
402.172	129.88
402.381	84.82
402.59	105.3
402.799	115.54
403.008	127.83
403.217	123.73
403.426	80.72
403.635	150.36
403.844	97.11
404.053	101.2
404.262	103.25
404.471	62.29
404.68	101.2
404.888	131.92
405.097	109.4
405.306	121.68
405.515	146.26
405.724	97.11
405.933	140.12
406.142	166.74
406.35	160.59
406.559	103.25
406.768	133.97
406.977	183.12
407.185	226.13
407.394	179.03
407.603	105.3
407.812	107.35
408.02	142.16
408.229	156.5
408.438	158.55
408.646	142.16
408.855	193.36
409.064	213.84
409.272	195.41
409.481	244.56
409.69	172.88
409.898	230.23
410.107	299.86
410.315	224.08
410.524	240.47
410.733	205.65
410.941	260.95
411.15	301.9
411.358	232.27
411.567	234.32
411.775	267.09
411.984	265.04
412.192	363.34
412.401	338.77
412.609	412.5
412.818	412.5
413.026	344.91
413.234	463.69
413.443	461.65
413.651	437.07
413.86	445.26
414.068	514.89
414.276	447.31
414.485	514.89
414.693	494.41
414.901	549.71
415.11	586.57
415.318	557.9
415.526	586.57
415.734	615.24
415.943	680.78
416.151	662.35
416.359	682.83
416.567	633.68
416.776	662.35
416.984	740.17
417.192	756.55
417.4	789.32
417.608	768.84
417.817	785.23
418.025	832.33
418.233	916.3
418.441	877.38
418.649	867.14
418.857	942.92
419.065	965.45
419.273	996.17
419.481	1127.24
419.689	1147.72
419.897	1131.33
420.105	1178.44
420.313	1176.39
420.521	1239.87
420.729	1137.48
420.937	1297.22
421.145	1346.37
421.353	1489.73
421.561	1459.01
421.769	1526.59
421.977	1626.94
422.185	1612.6
422.393	1588.03
422.601	1749.82
422.809	1835.83
423.017	1764.15
423.224	1915.7
423.432	1915.7
423.64	1932.09
423.848	2145.08
424.056	2196.28
424.263	2274.1
424.471	2241.33
424.679	2274.1
424.887	2372.4
425.094	2491.18
425.302	2472.75
425.51	2616.11
425.718	2564.91
425.925	2745.13
426.133	2810.67
426.341	2741.04
426.548	3113.77
426.756	2972.46
426.964	3048.23
427.171	3232.55
427.379	3463.97
427.586	3449.63
427.794	3590.94
428.001	3681.05
428.209	3787.55
428.417	3805.98
428.624	4014.87
428.832	4053.78
429.039	3879.71
429.247	4090.65
429.454	4416.27
429.662	4717.33
429.869	4434.71
430.076	4664.08
430.284	4561.68
430.491	4682.51
430.699	5045
430.906	5096.2
431.114	5065.48
431.321	5440.26
431.528	5520.13
431.736	5645.06
431.943	5913.34
432.15	5688.06
432.358	5749.5
432.565	6150.9
432.772	6247.16
432.979	6464.24
433.187	6632.18
433.394	6609.65
433.601	7101.16
433.808	7135.98
434.016	6994.67
434.223	7506.66
434.43	7924.44
434.637	7690.98
434.844	8166.1
435.052	8233.69
435.259	8389.33
435.466	8442.58
435.673	8311.51
435.88	8803.02
436.087	9188.04
436.294	9382.6
436.501	9081.55
436.708	9175.75
436.915	9419.46
437.122	9990.84
437.329	9900.73
437.537	10316.47
437.743	10455.73
437.95	10468.02
438.157	10828.46
438.364	11289.26
438.571	11324.07
438.778	11463.33
438.985	12429.98
439.192	11803.3
439.399	11958.94
439.606	11981.47
439.813	12614.29
440.02	13271.69
440.227	13222.54
440.433	12968.59
440.64	13394.57
440.847	13324.94
441.054	13636.23
441.261	14391.93
441.467	14269.05
441.674	14656.12
441.881	15399.53
442.088	15288.94
442.294	15131.25
442.501	15420.01
442.708	15774.31
442.914	16243.29
443.121	16927.32
443.328	16403.04
443.534	17621.58
443.741	17146.45
443.948	17001.04
444.154	18182.72
444.361	17996.35
444.568	18195.01
444.774	18311.74
444.981	18375.23
445.187	19046.96
445.394	19790.38
445.6	19501.61
445.807	21285.39
446.013	20615.71
446.22	20941.33
446.426	21580.3
446.633	21959.17
446.839	22604.28
447.046	21799.43
447.252	22999.54
447.459	22899.19
447.665	22559.23
447.871	23906.79
448.078	24900.06
448.284	23732.72
448.491	24285.67
448.697	25010.65
448.903	25772.49
449.11	25774.54
449.316	25078.23
449.522	25489.87
449.728	26223.05
449.935	26155.46
450.141	26294.72
450.347	27126.2
450.553	26247.62
450.76	26700.22
450.966	27419.06
451.172	27005.37
451.378	27851.18
451.584	27238.84
451.791	28039.59
451.997	27853.23
452.203	28381.6
452.409	28223.91
452.615	28066.22
452.821	27054.52
453.027	26794.43
453.233	28303.78
453.44	27191.73
453.646	27341.24
453.852	27503.03
454.058	28141.99
454.264	27122.1
454.47	27445.68
454.676	27310.52
454.882	27695.53
455.088	25047.51
455.294	25846.22
455.5	26024.39
455.705	26589.63
455.911	25330.13
456.117	24957.4
456.323	24386.02
456.529	23673.32
456.735	24330.72
456.941	23732.72
457.147	23298.55
457.352	22637.05
457.558	22413.82
457.764	22350.34
457.97	22034.95
458.176	21529.1
458.381	21449.23
458.587	20429.34
458.793	20505.12
458.999	19341.87
459.204	20777.5
459.41	20183.59
459.616	18963
459.821	18836.02
460.027	18782.77
460.233	18569.79
460.438	17506.89
460.644	17707.59
460.85	16849.49
461.055	16509.53
461.261	16677.46
461.466	15516.26
461.672	14776.95
461.878	16153.18
462.083	14910.07
462.289	14623.35
462.494	14549.62
462.7	13961.86
462.905	13537.93
463.111	14314.11
463.316	14131.84
463.522	14011.01
463.727	13777.54
463.932	13927.04
464.138	13714.05
464.343	13460.1
464.549	13163.15
464.754	13818.5
464.959	13529.73
465.165	13472.39
465.37	13070.99
465.575	12524.18
465.781	13165.2
465.986	13359.75
466.191	12757.65
466.397	12368.54
466.602	11979.42
466.807	12423.83
467.012	12364.44
467.218	12239.51
467.423	12288.67
467.628	12194.46
467.833	12602.01
468.038	12253.85
468.244	11913.89
468.449	12196.51
468.654	12171.93
468.859	11905.7
469.064	11856.54
469.269	11582.12
469.474	11477.67
469.679	11592.36
469.885	11238.06
470.09	11494.05
470.295	11455.14
470.5	10980.01
470.705	11403.94
470.91	10932.91
471.115	10795.7
471.32	11004.59
471.525	10943.15
471.73	10521.27
471.935	10873.52
472.139	10414.77
472.344	10314.42
472.549	10080.96
472.754	10173.11
472.959	9990.84
473.164	9794.24
473.369	9788.1
473.574	10058.43
473.778	10060.48
473.983	9896.64
474.188	9722.56
474.393	9341.64
474.598	9491.14
474.802	9255.62
475.007	9204.42
475.212	9251.53
475.417	9044.68
475.621	8956.62
475.826	8952.52
476.031	8661.71
476.235	8612.56
476.44	8805.07
476.645	8577.75
476.849	8657.62
477.054	8493.78
477.259	8233.69
477.463	8317.65
477.668	8129.24
477.872	8256.22
478.077	8123.1
478.282	7895.77
478.486	8045.27
478.691	7736.03
478.895	7789.28
479.1	7627.49
479.304	7789.28
479.509	7461.6
479.713	7627.49
479.918	7375.59
480.122	7422.69
480.326	7682.78
480.531	7424.74
480.735	7381.73
480.94	7330.53
481.144	7475.94
481.348	7330.53
481.553	7443.17
481.757	7058.15
481.961	7344.87
482.166	7193.32
482.37	7262.95
482.574	7197.42
482.778	7121.64
482.983	7465.7
483.187	7258.85
483.391	7285.48
483.595	7150.31
483.8	7271.14
484.004	7262.95
484.208	7353.06
484.412	7101.16
484.616	7236.33
484.821	7082.73
485.025	6900.46
485.229	7363.3
485.433	7236.33
485.637	7058.15
485.841	7129.83
486.045	7058.15
486.249	7088.87
486.453	7297.77
486.657	7256.81
486.861	7265
487.065	7000.81
487.269	7238.37
487.473	7221.99
487.677	7291.62
487.881	7277.29
488.085	7117.54
488.289	7412.45
488.493	7240.42
488.697	7277.29
488.901	7162.6
489.105	7117.54
489.309	7178.98
489.512	7334.63
489.716	7154.41
489.92	7267.05
490.124	7418.6
490.328	7555.81
490.531	7252.71
490.735	7443.17
490.939	7375.59
491.143	7346.92
491.346	7553.76
491.55	7348.97
491.754	7299.81
491.958	7551.71
492.161	7494.37
492.365	7414.5
492.569	7668.45
492.772	7482.08
492.976	7631.58
493.18	7733.98
493.383	7971.55
493.587	7703.26
493.79	7797.47
493.994	7865.05
494.197	8092.38
494.401	8078.04
494.605	8245.98
494.808	8164.06
495.012	8331.99
495.215	8188.63
495.419	8372.95
495.622	8420.05
495.825	8268.5
496.029	8368.85
496.232	8551.12
496.436	8522.45
496.639	8858.32
496.843	8751.82
497.046	8823.5
497.249	9059.02
497.453	8913.61
497.656	9159.37
497.859	9116.36
498.063	9194.19
498.266	9552.58
498.469	9515.72
498.673	9435.85
498.876	9790.14
499.079	9779.9
499.282	9560.77
499.485	10220.22
499.689	9892.54
499.892	10312.38
500.095	10195.64
500.298	10664.63
500.501	10304.18
500.705	10500.79
500.908	10846.9
501.111	10879.66
501.314	11051.69
501.517	10994.35
501.72	11369.13
501.923	11246.25
502.126	11756.19
502.329	11651.75
502.532	12100.25
502.735	11948.7
502.938	12085.92
503.141	12376.73
503.344	12296.86
503.547	12458.65
503.75	12829.33
503.953	12731.03
504.156	12941.97
504.359	13070.99
504.562	13161.1
504.765	13499.02
504.968	13607.56
505.17	13501.06
505.373	14064.25
505.576	14051.97
505.779	14301.82
505.982	14408.31
506.185	14539.38
506.387	14768.76
506.59	14846.58
506.793	14897.78
506.996	15176.3
507.198	15540.84
507.401	15315.56
507.604	15520.36
507.807	16276.06
508.009	16112.22
508.212	16292.44
508.415	16362.08
508.617	16530.01
508.82	16884.31
509.022	16896.6
509.225	17207.89
509.428	17367.63
509.63	17269.33
509.833	17658.44
510.035	18008.64
510.238	18102.85
510.44	18123.33
510.643	18553.4
510.845	18565.69
511.048	18825.78
511.25	19122.74
511.453	19112.5
511.655	19855.91
511.858	19323.44
512.06	19647.02
512.262	19890.73
512.465	19993.12
512.667	20556.32
512.87	20757.02
513.072	20689.43
513.274	20947.48
513.477	21535.24
513.679	21559.82
513.881	21961.22
514.084	22206.98
514.286	22239.75
514.488	22217.22
514.69	22954.49
514.893	23054.84
515.095	23179.76
515.297	23372.27
515.499	23650.8
515.701	23955.94
515.904	24367.59
516.106	24261.09
516.308	24474.08
516.51	24721.88
516.712	24906.2
516.914	25336.27
517.116	25754.06
517.318	25819.6
517.52	26276.29
517.722	25917.9
517.925	26356.16
518.127	26913.21
518.329	27009.47
518.531	26937.79
518.733	27371.96
518.935	28156.33
519.136	27992.49
519.338	28484
519.54	28416.42
519.742	28615.07
519.944	28991.9
520.146	29747.6
520.348	29806.99
520.55	29923.72
520.752	29870.48
520.954	30685.57
521.155	30509.44
521.357	30777.73
521.559	30775.68
521.761	31566.2
521.963	31506.8
522.164	31539.57
522.366	31926.64
522.568	32024.94
522.77	32506.21
522.971	32573.8
523.173	32567.65
523.375	33093.98
523.576	33042.78
523.778	33167.71
523.98	33892.69
524.181	33751.38
524.383	33710.42
524.584	34459.98
524.786	34277.71
524.988	34642.24
525.189	35092.8
525.391	34931.01
525.592	35594.55
525.794	35547.45
525.995	35512.63
526.197	35705.14
526.398	35744.05
526.6	36129.07
526.801	35858.74
527.003	36555.05
527.204	35967.28
527.406	36356.39
527.607	36659.49
527.808	36915.49
528.01	36657.45
528.211	36495.66
528.412	37867.8
528.614	37169.44
528.815	37226.78
529.016	37613.85
529.218	37269.79
529.419	37712.15
529.62	37615.9
529.822	37697.81
530.023	38009.11
530.224	37730.58
530.425	38000.91
530.626	37875.99
530.828	37980.43
531.029	38582.54
531.23	38205.71
531.431	38406.41
531.632	38584.58
531.833	38680.84
532.035	38813.96
532.236	38396.17
532.437	38854.92
532.638	38478.09
532.839	38856.96
533.04	38811.91
533.241	38451.47
533.442	39072
533.643	38840.58
533.844	39172.35
534.045	39139.58
534.246	39004.42
534.447	39287.04
534.648	39303.42
534.849	39104.77
535.05	38985.99
535.251	39057.67
535.451	39184.64
535.652	39225.6
535.853	39520.51
536.054	39512.31
536.255	39215.36
536.456	38844.68
536.657	39702.78
536.857	39065.86
537.058	39168.26
537.259	39457.02
537.46	39213.31
537.66	39192.83
537.861	39059.71
538.062	39397.63
538.263	39428.35
538.463	39389.44
538.664	39008.51
538.865	39614.71
539.065	39629.05
539.266	38973.7
539.466	39940.34
539.667	39028.99
539.868	39780.6
540.068	39549.18
540.269	39262.46
540.469	39665.91
540.67	39334.14
540.87	39121.15
541.071	39653.62
541.271	39731.45
541.472	39358.72
541.672	39244.03
541.873	39301.37
542.073	38709.51
542.274	39252.22
542.474	39147.78
542.675	39250.17
542.875	39676.15
543.075	39418.11
543.276	39170.3
543.476	39889.14
543.676	39135.49
543.877	39493.88
544.077	39241.98
544.277	39360.76
544.478	38729.99
544.678	39436.54
544.878	39305.47
545.078	39475.45
545.279	39049.47
545.479	39076.1
545.679	39362.81
545.879	39393.53
546.079	39125.25
546.28	39700.73
546.48	38998.27
546.68	39534.84
546.88	39287.04
547.08	38836.48
547.28	39549.18
547.48	39129.34
547.68	39338.24
547.88	39207.17
548.081	39217.41
548.281	39348.48
548.481	39170.3
548.681	39287.04
548.881	39350.52
549.081	39549.18
549.28	39207.17
549.48	39594.23
549.68	39256.32
549.88	39776.5
550.08	39375.1
550.28	39278.85
550.48	38832.39
550.68	39442.68
550.88	38899.97
551.08	39213.31
551.279	39383.29
551.479	39352.57
551.679	39063.81
551.879	39002.37
552.079	39371
552.278	39244.03
552.478	39094.53
552.678	38945.03
552.878	39256.32
553.077	39145.73
553.277	38899.97
553.477	39526.65
553.676	38883.59
553.876	39354.62
554.076	38996.23
554.275	38912.26
554.475	38768.9
554.674	38789.38
554.874	38789.38
555.074	39192.83
555.273	38854.92
555.473	39280.89
555.672	38676.74
555.872	38525.19
556.071	38670.6
556.271	38938.88
556.47	38525.19
556.67	38539.53
556.869	38418.7
557.068	38672.65
557.268	38265.1
557.467	38191.37
557.667	38297.87
557.866	38445.32
558.065	38172.94
558.265	37832.98
558.464	38113.55
558.663	38261.01
558.863	37763.35
559.062	38410.51
559.261	37701.91
559.461	38566.15
559.66	37646.61
559.859	38131.98
560.058	37671.19
560.258	37806.36
560.457	37464.35
560.656	37792.02
560.855	37722.39
561.054	37847.32
561.253	37409.05
561.453	37364
561.652	37669.14
561.851	37533.98
562.05	37368.09
562.249	37056.8
562.448	37615.9
562.647	37241.12
562.846	37017.89
563.045	36809
563.244	36870.43
563.443	37527.83
563.642	36395.31
563.841	36837.67
564.04	36714.79
564.239	37042.46
564.438	36391.21
564.637	36950.31
564.836	36720.93
565.035	36659.49
565.234	36651.3
565.432	36669.73
565.631	36268.33
565.83	36798.76
566.029	36120.88
566.228	36278.57
566.427	35975.47
566.625	36028.72
566.824	35787.06
567.023	35791.16
567.222	35520.82
567.42	35885.36
567.619	36018.48
567.818	35584.31
568.016	35602.74
568.215	35701.04
568.414	35273.02
568.612	35660.09
568.811	35227.96
569.01	35463.48
569.208	34967.87
569.407	35064.13
569.605	34660.68
569.804	35197.24
570.002	34505.03
570.201	35010.88
570.4	34476.36
570.598	34568.52
570.797	34484.55
570.995	34238.79
571.193	33999.18
571.392	34367.82
571.59	33847.63
571.789	34048.33
571.987	33904.98
572.186	34060.62
572.384	33673.56
572.582	33694.04
572.781	33896.78
572.979	33241.43
573.177	33495.38
573.376	33628.5
573.574	33321.3
573.772	33354.07
573.971	33223
574.169	33022.3
574.367	32698.72
574.565	32876.9
574.763	32584.04
574.962	32559.46
575.16	32354.66
575.358	32854.37
575.556	32045.42
575.754	32434.53
575.952	32053.61
576.151	32301.42
576.349	31803.76
576.547	31979.89
576.745	31988.08
576.943	32000.37
577.141	31910.25
577.339	32117.1
577.537	31613.3
577.735	31416.69
577.933	31623.54
578.131	31183.23
578.329	31283.58
578.527	30974.33
578.725	31162.75
578.923	31091.07
579.121	30833.02
579.319	30792.06
579.516	31185.27
579.714	30390.66
579.912	30382.47
580.11	30531.97
580.308	30773.63
580.506	30378.37
580.704	29782.41
580.901	30159.24
581.099	30531.97
581.297	30022.03
581.495	29706.64
581.692	29942.16
581.89	29401.49
582.088	30243.21
582.285	29831.57
582.483	29780.37
582.681	29671.82
582.878	29518.23
583.076	29223.32
583.274	29424.02
583.471	28926.36
583.669	29360.53
583.866	28887.45
584.064	28977.56
584.262	28635.55
584.459	29176.22
584.657	28580.26
584.854	28987.8
585.052	28402.08
585.249	28619.17
585.447	28535.2
585.644	28219.81
585.841	28049.83
586.039	28383.65
586.236	27806.13
586.434	28027.31
586.631	28074.41
586.828	27666.86
587.026	27922.86
587.223	27550.13
587.42	27406.77
587.618	27398.58
587.815	27417.01
588.012	27392.44
588.21	27187.64
588.407	27554.22
588.604	27001.27
588.801	26927.55
588.999	27312.56
589.196	26644.93
589.393	26780.09
589.59	26558.91
589.787	26536.38
589.984	26786.24
590.182	26319.3
590.379	26913.21
590.576	26175.94
590.773	26194.37
590.97	25956.81
591.167	26180.04
591.364	25901.51
591.561	25835.98
591.758	25786.83
591.955	25770.44
592.152	25647.57
592.349	25643.47
592.546	25948.62
592.743	25725.39
592.94	25166.29
593.137	25434.58
593.334	25491.92
593.531	25151.96
593.727	25332.18
593.924	25172.44
594.121	25020.89
594.318	24963.54
594.515	24832.47
594.712	25057.75
594.908	24642.01
595.105	25121.24
595.302	24469.98
595.499	24566.24
595.696	24265.19
595.892	24406.5
596.089	24328.67
596.286	24265.19
596.482	24029.67
596.679	24142.31
596.876	24230.37
597.072	23941.61
597.269	24138.21
597.466	23400.94
597.662	23593.45
597.859	23822.83
598.055	23818.73
598.252	23593.45
598.448	23321.07
598.645	23466.48
598.841	23331.31
599.038	23343.6
599.234	23368.18
599.431	23284.21
599.627	22870.52
599.824	23077.37
600.02	22974.97
600.217	22888.95
600.413	22974.97
600.609	22923.77
600.806	22647.29
601.002	22505.98
601.198	22370.82
601.395	22417.92
601.591	22444.54
601.787	22452.73
601.984	22194.69
602.18	22268.42
602.376	22092.29
602.572	21854.73
602.769	22057.48
602.965	21723.66
603.161	21912.07
603.357	22053.38
603.553	21383.7
603.75	21709.32
603.946	21570.06
604.142	21688.84
604.338	21250.58
604.534	21299.73
604.73	21080.6
604.926	21428.75
605.122	21197.33
605.318	21189.14
605.514	20869.65
605.71	20734.49
605.906	20652.57
606.102	21019.16
606.298	20802.07
606.494	20589.08
606.69	20625.95
606.886	20740.63
607.082	20494.88
607.278	20529.69
607.474	20171.3
607.67	20173.35
607.866	20040.23
608.062	20224.54
608.257	20177.44
608.453	19997.22
608.649	19989.03
608.845	19868.2
609.041	19784.23
609.236	19929.64
609.432	19704.36
609.628	19743.27
609.824	19403.31
610.019	19583.53
610.215	19759.66
610.411	19585.58
610.606	19446.32
610.802	19655.21
610.998	19173.94
611.193	19581.48
611.389	19268.14
611.584	19407.41
611.78	19221.04
611.976	19311.15
612.171	19280.43
612.367	19249.71
612.562	19221.04
612.758	18803.25
612.953	18741.82
613.149	18790.97
613.344	18602.55
613.539	18993.72
613.735	18686.52
613.93	18768.44
614.126	18713.14
614.321	18727.48
614.517	18561.59
614.712	18272.83
614.907	18383.42
615.103	18598.46
615.298	18381.37
615.493	18659.9
615.688	18192.96
615.884	18565.69
616.079	18152
616.274	18125.38
616.47	18172.48
616.665	17994.31
616.86	17916.48
617.055	17756.74
617.25	17900.1
617.445	18152
617.641	17517.13
617.836	17994.31
618.031	17568.33
618.226	17955.4
618.421	17556.04
618.616	17543.75
618.811	17582.67
619.006	17597
619.201	16955.99
619.396	17263.18
619.591	16808.53
619.786	17220.17
619.981	16783.96
620.176	17211.98
620.371	16904.79
620.566	17054.29
620.761	16704.09
620.956	16753.24
621.151	16489.05
621.346	16652.89
621.541	16196.19
621.735	16515.67
621.93	16108.13
622.125	16054.88
622.32	16044.64
622.515	16101.98
622.709	15819.36
622.904	15762.02
623.099	15633
623.294	15899.23
623.488	15710.82
623.683	15391.34
623.878	15256.17
624.072	15307.37
624.267	15104.62
624.462	15090.29
624.656	15293.04
624.851	15137.39
625.046	15047.28
625.24	15012.46
625.435	14645.88
625.629	14688.89
625.824	14703.22
626.018	14645.88
626.213	14287.48
626.407	14572.15
626.602	14281.34
626.796	14318.2
626.991	14205.56
627.185	14099.07
627.38	14025.34
627.574	14094.97
627.768	13931.14
627.963	13767.3
628.157	13619.85
628.352	13795.97
628.546	13697.67
628.74	13652.61
628.935	13460.1
629.129	13431.43
629.323	13380.23
629.517	13351.56
629.712	13353.61
629.906	13056.65
630.1	13062.8
630.294	13097.61
630.489	12868.24
630.683	12958.35
630.877	12673.68
631.071	12677.78
631.265	12884.62
631.459	12515.99
631.653	12577.43
631.848	12530.33
632.042	12204.7
632.236	12477.08
632.43	12057.25
632.624	12518.04
632.818	12114.59
633.012	12034.72
633.206	12049.05
633.4	11991.71
633.594	11801.25
633.788	11866.78
633.982	11750.05
634.176	11735.71
634.369	11770.53
634.563	11625.12
634.757	11401.9
634.951	11526.82
635.145	11414.18
635.339	11555.49
635.533	11150
635.726	11221.67
635.92	11195.05
636.114	11180.71
636.308	11141.8
636.501	11068.08
636.695	11133.61
636.889	10934.96
637.083	10779.31
637.276	10756.79
637.47	10515.12
637.664	10719.92
637.857	10750.64
638.051	10633.91
638.244	10576.56
638.438	10476.21
638.632	10289.85
638.825	10502.84
639.019	10083
639.212	10179.26
639.406	10205.88
639.599	9974.46
639.793	10144.44
639.986	9941.69
640.18	10080.96
640.373	9841.34
640.567	9863.87
640.76	9755.33
640.954	9675.46
641.147	9779.9
641.34	9573.06
641.534	9700.03
641.727	9618.11
641.92	9700.03
642.114	9392.84
642.307	9597.63
642.5	9452.23
642.694	9255.62
642.887	9255.62
643.08	9296.58
643.273	9220.81
643.467	9087.69
643.66	8991.44
643.853	9081.55
644.046	8717.01
644.239	8829.65
644.432	8835.79
644.626	8606.42
644.819	8674
645.012	8710.86
645.205	8612.56
645.398	8633.04
645.591	8422.1
645.784	8344.28
645.977	8401.62
646.17	8229.59
646.363	8354.52
646.556	8084.19
646.749	8223.45
646.942	8344.28
647.135	7957.21
647.328	7965.4
647.521	8006.36
647.714	7877.34
647.907	8026.84
648.099	7772.89
648.292	7865.05
648.485	7723.74
648.678	7733.98
648.871	7752.42
649.064	7486.18
649.256	7731.94
649.449	7561.95
649.642	7502.56
649.835	7498.47
650.027	7473.89
650.22	7363.3
650.413	7355.11
650.605	7469.8
650.798	7312.1
650.991	7148.26
651.183	7291.62
651.376	7025.39
651.568	7056.11
651.761	7121.64
651.954	6927.08
652.146	6886.12
652.339	7027.43
652.531	6828.78
652.724	6898.41
652.916	6814.45
653.109	6918.89
653.301	6552.31
653.494	6660.85
653.686	6587.12
653.879	6550.26
654.071	6562.55
654.263	6570.74
654.456	6484.72
654.648	6535.92
654.84	6449.91
655.033	6331.12
655.225	6411
655.417	6267.64
655.61	6451.95
655.802	6370.04
655.994	6191.86
656.186	6318.84
656.379	6236.92
656.571	6130.42
656.763	6032.12
656.955	6079.22
657.148	6003.45
657.34	5991.16
657.532	6060.79
657.724	5866.24
657.916	5843.71
658.108	5968.63
658.3	5835.52
658.492	5671.68
658.684	5790.46
658.876	5651.2
659.068	5624.58
659.26	5569.28
659.452	5571.33
659.644	5593.86
659.836	5489.41
660.028	5470.98
660.22	5311.24
660.412	5532.42
660.604	5315.33
660.796	5350.15
660.988	5251.85
661.18	5315.33
661.372	5065.48
661.563	5405.44
661.755	5249.8
661.947	5245.7
662.139	5110.54
662.331	5135.11
662.522	4954.89
662.714	4944.65
662.906	4897.55
663.097	4848.4
663.289	4825.87
663.481	4946.7
663.673	4821.77
663.864	4911.88
664.056	4821.77
664.247	4752.14
664.439	4657.93
664.631	4864.78
664.822	4778.76
665.014	4686.61
665.205	4672.27
665.397	4637.45
665.588	4606.74
665.78	4508.43
665.971	4584.21
666.163	4606.74
666.354	4512.53
666.546	4434.71
666.737	4338.45
666.929	4350.74
667.12	4326.16
667.311	4338.45
667.503	4254.48
667.694	4307.73
667.885	4315.92
668.077	4219.67
668.268	4242.2
668.459	4217.62
668.651	4082.46
668.842	4037.4
669.033	4150.04
669.224	4049.69
669.416	4072.22
669.607	4170.52
669.798	4004.63
669.989	3980.06
670.18	3965.72
670.371	4027.16
670.563	3992.34
670.754	3996.44
670.945	3922.71
671.136	3922.71
671.327	3842.84
671.518	3812.12
671.709	3830.55
671.9	3861.27
672.091	3701.53
672.282	3801.88
672.473	3709.72
672.664	3824.41
672.855	3799.84
673.046	3629.85
673.237	3590.94
673.428	3619.61
673.619	3607.33
673.809	3517.22
674	3592.99
674.191	3689.25
674.382	3568.41
674.573	3541.79
674.764	3572.51
674.954	3517.22
675.145	3488.54
675.336	3447.58
675.527	3455.78
675.717	3509.02
675.908	3547.94
676.099	3523.36
676.289	3521.31
676.48	3449.63
676.671	3388.19
676.861	3349.28
677.052	3369.76
677.243	3238.69
677.433	3388.19
677.624	3343.14
677.814	3207.97
678.005	3250.98
678.195	3259.17
678.386	3267.36
678.576	3255.08
678.767	3220.26
678.957	3212.07
679.148	3246.88
679.338	3203.88
679.529	3130.15
679.719	3187.49
679.909	3222.31
680.1	3185.44
680.29	3150.63
680.481	3162.92
680.671	3103.53
680.861	2902.83
681.052	3056.42
681.242	2974.5
681.432	3087.14
681.622	3101.48
681.813	3052.33
682.003	2992.94
682.193	2992.94
682.383	3083.05
682.573	2923.3
682.764	2845.48
682.954	2898.73
683.144	3005.22
683.334	2997.03
683.524	2923.3
683.714	2874.15
683.904	2849.58
684.094	2933.54
684.284	2853.67
684.474	2892.59
684.664	2878.25
684.854	2892.59
685.044	2935.59
685.234	2769.71
685.424	2724.65
685.614	2974.5
685.804	2825
685.994	2814.76
686.184	2878.25
686.374	2695.98
686.564	2634.54
686.753	2792.23
686.943	2720.56
687.133	2820.91
687.323	2704.17
687.513	2806.57
687.702	2806.57
687.892	2652.97
688.082	2681.64
688.272	2736.94
688.461	2689.84
688.651	2675.5
688.841	2702.12
689.03	2712.36
689.22	2677.55
689.41	2628.4
689.599	2751.28
689.789	2605.87
689.979	2753.32
690.168	2575.15
690.358	2620.21
690.547	2732.84
690.737	2597.68
690.926	2659.12
691.116	2554.67
691.305	2734.89
691.495	2573.1
691.684	2587.44
691.874	2607.92
692.063	2558.77
692.252	2650.92
692.442	2642.73
692.631	2579.25
692.82	2612.01
693.01	2511.66
693.199	2497.33
693.388	2569.01
693.578	2474.8
693.767	2607.92
693.956	2538.29
694.146	2511.66
694.335	2499.38
694.524	2487.09
694.713	2501.42
694.902	2513.71
695.092	2589.49
695.281	2523.95
695.47	2501.42
695.659	2538.29
695.848	2429.74
696.037	2562.86
696.226	2546.48
696.415	2581.29
696.604	2521.9
696.793	2442.03
696.982	2489.14
697.171	2515.76
697.36	2487.09
697.549	2581.29
697.738	2546.48
697.927	2589.49
698.116	2540.33
698.305	2599.73
698.494	2468.66
698.683	2482.99
698.872	2489.14
699.061	2526
699.25	2452.27
699.438	2482.99
699.627	2538.29
699.816	2509.62
700.005	2540.33
700.193	2382.64
700.382	2513.71
700.571	2458.42
700.76	2491.18
700.948	2538.29
701.137	2521.9
701.326	2386.74
701.514	2388.78
701.703	2368.31
701.892	2474.8
702.08	2509.62
702.269	2548.53
702.457	2325.3
702.646	2392.88
702.834	2329.39
703.023	2429.74
703.212	2497.33
703.4	2380.59
703.589	2360.11
703.777	2378.55
703.965	2345.78
704.154	2396.98
704.342	2405.17
704.531	2345.78
704.719	2292.53
704.907	2372.4
705.096	2308.91
705.284	2310.96
705.472	2294.58
705.661	2315.06
705.849	2399.02
706.037	2376.5
706.226	2270
706.414	2255.67
706.602	2270
706.79	2351.92
706.979	2235.19
707.167	2229.04
707.355	2241.33
707.543	2272.05
707.731	2282.29
707.919	2257.71
708.107	2263.86
708.296	2163.51
708.484	2292.53
708.672	2149.17
708.86	2218.8
709.048	2159.41
709.236	2181.94
709.424	2153.27
709.612	2190.13
709.8	2249.52
709.988	2091.83
710.176	2114.36
710.364	2310.96
710.551	2175.8
710.739	2165.56
710.927	2034.49
711.115	2155.32
711.303	2124.6
711.491	2054.97
711.679	2063.16
711.866	2190.13
712.054	2171.7
712.242	2089.78
712.43	2036.53
712.617	2114.36
712.805	2100.02
712.993	1954.62
713.181	1991.48
713.368	1932.09
713.556	1868.6
713.744	1948.47
713.931	1938.23
714.119	1977.14
714.306	1966.9
714.494	2046.77
714.682	1973.05
714.869	2011.96
715.057	1985.34
715.244	1993.53
715.432	1956.66
715.619	2022.2
715.807	1942.33
715.994	1835.83
716.182	1796.92
716.369	1819.45
716.556	1915.7
716.744	1782.59
716.931	1825.59
717.119	1860.41
717.306	1860.41
717.493	1860.41
717.681	1852.22
717.868	1809.21
718.055	1725.24
718.242	1776.44
718.43	1780.54
718.617	1846.07
718.804	1698.62
718.991	1823.55
719.179	1696.57
719.366	1680.19
719.553	1735.48
719.74	1719.1
719.927	1678.14
720.114	1837.88
720.301	1680.19
720.488	1549.12
720.676	1628.99
720.863	1778.49
721.05	1700.67
721.237	1706.81
721.424	1704.76
721.611	1612.6
721.798	1559.36
721.985	1760.06
722.172	1628.99
722.358	1600.32
722.545	1502.01
722.732	1571.65
722.919	1579.84
723.106	1536.83
723.293	1653.56
723.48	1473.34
723.667	1540.93
723.853	1575.74
724.04	1661.76
724.227	1639.23
724.414	1545.02
724.6	1616.7
724.787	1678.14
724.974	1444.67
725.161	1518.4
725.347	1516.35
725.534	1502.01
725.72	1442.62
725.907	1508.16
726.094	1491.77
726.28	1401.66
726.467	1383.23
726.653	1432.38
726.84	1483.58
727.027	1487.68
727.213	1475.39
727.4	1434.43
727.586	1489.73
727.773	1399.62
727.959	1346.37
728.145	1448.77
728.332	1459.01
728.518	1459.01
728.705	1362.75
728.891	1436.48
729.077	1409.86
729.264	1360.7
729.45	1338.18
729.636	1420.1
729.823	1352.51
730.009	1418.05
730.195	1350.46
730.382	1319.75
730.568	1334.08
730.754	1413.95
730.94	1303.36
731.126	1391.42
731.313	1344.32
731.499	1336.13
731.685	1246.02
731.871	1368.9
732.057	1293.12
732.243	1266.5
732.429	1284.93
732.615	1315.65
732.801	1284.93
732.987	1233.73
733.173	1270.59
733.359	1315.65
733.545	1262.4
733.731	1270.59
733.917	1223.49
734.103	1196.87
734.289	1258.31
734.475	1323.84
734.661	1329.99
734.847	1231.68
735.033	1276.74
735.219	1239.87
735.404	1233.73
735.59	1221.44
735.776	1225.54
735.962	1209.15
736.148	1237.83
736.333	1180.48
736.519	1184.58
736.705	1160
736.89	1233.73
737.076	1282.88
737.262	1117
737.447	1190.72
737.633	1082.18
737.819	1139.52
738.004	1151.81
738.19	1168.2
738.375	1227.59
738.561	1123.14
738.747	1106.76
738.932	1117
739.118	1155.91
739.303	1084.23
739.489	1117
739.674	1137.48
739.859	1106.76
740.045	1131.33
740.23	1117
740.416	1051.46
740.601	1033.03
740.786	1037.13
740.972	1100.61
741.157	1000.26
741.342	983.88
741.528	1088.32
741.713	1170.24
741.898	1147.72
742.084	1014.6
742.269	1063.75
742.454	942.92
742.639	1035.08
742.824	1096.52
743.01	1030.98
743.195	1090.37
743.38	953.16
743.565	981.83
743.75	998.21
743.935	987.97
744.12	1026.89
744.305	1000.26
744.49	961.35
744.675	998.21
744.86	985.93
745.045	949.06
745.23	920.39
745.415	940.87
745.6	832.33
745.785	1008.45
745.97	875.34
746.155	910.15
746.34	938.82
746.525	940.87
746.71	830.28
746.895	813.9
747.079	996.17
747.264	969.54
747.449	916.3
747.634	817.99
747.819	904.01
748.003	924.49
748.188	889.67
748.373	887.62
748.557	865.1
748.742	787.27
748.927	803.66
749.111	916.3
749.296	895.82
749.481	727.88
749.665	854.86
749.85	762.7
750.034	869.19
750.219	865.1
750.404	774.99
750.588	734.03
750.773	920.39
750.957	779.08
751.141	777.03
751.326	848.71
751.51	779.08
751.695	791.37
751.879	777.03
752.064	645.96
752.248	803.66
752.432	768.84
752.617	783.18
752.801	707.4
752.985	762.7
753.17	719.69
753.354	650.06
753.538	748.36
753.722	731.98
753.907	701.26
754.091	666.44
754.275	740.17
754.459	650.06
754.643	684.87
754.828	734.03
755.012	691.02
755.196	633.68
755.38	670.54
755.564	600.91
755.748	693.07
755.932	662.35
756.116	691.02
756.3	662.35
756.484	672.59
756.668	658.25
756.852	637.77
757.036	615.24
757.22	645.96
757.404	631.63
757.588	680.78
757.772	600.91
757.956	709.45
758.14	662.35
758.323	484.17
758.507	635.72
758.691	617.29
758.875	594.76
759.059	617.29
759.242	584.52
759.426	555.85
759.61	568.14
759.794	553.8
759.977	662.35
760.161	590.67
760.345	564.04
760.528	621.39
760.712	529.23
760.895	564.04
761.079	592.72
761.263	631.63
761.446	580.43
761.63	631.63
761.813	553.8
761.997	506.7
762.18	525.13
762.364	512.85
762.547	570.19
762.731	623.44
762.914	486.22
763.098	576.33
763.281	527.18
763.464	506.7
763.648	555.85
763.831	492.37
764.015	572.24
764.198	506.7
764.381	504.65
764.564	459.6
764.748	533.33
764.931	514.89
765.114	490.32
765.297	486.22
765.481	445.26
765.664	525.13
765.847	494.41
766.03	598.86
766.213	428.88
766.397	480.08
766.58	525.13
766.763	500.56
766.946	496.46
767.129	514.89
767.312	525.13
767.495	502.61
767.678	549.71
767.861	492.37
768.044	478.03
768.227	586.57
768.41	521.04
768.593	502.61
768.776	377.68
768.959	525.13
769.142	506.7
769.324	430.93
769.507	424.78
769.69	379.73
769.873	439.12
770.056	478.03
770.239	490.32
770.421	404.3
770.604	473.93
770.787	516.94
770.97	475.98
771.152	506.7
771.335	467.79
771.518	435.02
771.7	494.41
771.883	432.97
772.066	480.08
772.248	439.12
772.431	437.07
772.613	373.58
772.796	432.97
772.978	473.93
773.161	453.45
773.343	342.86
773.526	416.59
773.708	377.68
773.891	394.06
774.073	510.8
774.256	359.25
774.438	342.86
774.621	486.22
774.803	381.78
774.985	375.63
775.168	365.39
775.35	320.34
775.532	377.68
775.715	379.73
775.897	465.74
776.079	396.11
776.261	379.73
776.444	328.53
776.626	408.4
776.808	392.02
776.99	349.01
777.173	379.73
777.355	383.82
777.537	385.87
777.719	420.69
777.901	342.86
778.083	441.17
778.265	336.72
778.447	308.05
778.629	336.72
778.811	381.78
778.993	377.68
779.175	301.9
779.357	371.54
779.539	402.26
779.721	336.72
779.903	398.16
780.085	375.63
780.267	338.77
780.449	357.2
780.631	299.86
780.812	314.19
780.994	279.38
781.176	340.82
781.358	314.19
781.54	334.67
781.721	301.9
781.903	308.05
782.085	254.8
782.267	351.06
782.448	217.94
782.63	332.62
782.812	371.54
782.993	295.76
783.175	363.34
783.357	303.95
783.538	320.34
783.72	328.53
783.901	248.66
784.083	254.8
784.264	275.28
784.446	269.14
784.627	260.95
784.809	252.75
784.99	326.48
785.172	199.51
785.353	295.76
785.535	207.7
785.716	162.64
785.897	273.23
786.079	252.75
786.26	238.42
786.441	306
786.623	209.75
786.804	275.28
786.985	187.22
787.167	269.14
787.348	269.14
787.529	226.13
787.71	275.28
787.891	260.95
788.073	197.46
788.254	174.93
788.435	242.51
788.616	250.71
788.797	252.75
788.978	224.08
789.159	252.75
789.34	183.12
789.522	166.74
789.703	185.17
789.884	133.97
790.065	318.29
790.246	244.56
790.427	142.16
790.607	176.98
790.788	205.65
790.969	193.36
791.15	154.45
791.331	172.88
791.512	172.88
791.693	146.26
791.874	260.95
792.054	170.83
792.235	222.03
792.416	193.36
792.597	156.5
792.778	179.03
792.958	146.26
793.139	146.26
793.32	172.88
793.5	146.26
793.681	138.07
793.862	82.77
794.042	199.51
794.223	183.12
794.404	230.23
794.584	181.07
794.765	125.78
794.945	170.83
795.126	162.64
795.306	154.45
795.487	215.89
795.667	166.74
795.848	240.47
796.028	164.69
796.209	207.7
796.389	156.5
796.57	187.22
796.75	72.53
796.93	146.26
797.111	181.07
797.291	217.94
797.471	183.12
797.652	113.49
797.832	136.02
798.012	80.72
798.192	121.68
798.373	207.7
798.553	156.5
798.733	58.2
798.913	136.02
799.093	162.64
799.274	195.41
799.454	152.4
799.634	111.44
799.814	199.51
799.994	88.92
800.174	146.26
800.354	172.88
800.534	97.11
800.714	140.12
800.894	232.27
801.074	181.07
801.254	125.78
801.434	97.11
801.614	140.12
801.794	66.39
801.974	301.9
802.154	95.06
802.334	162.64
802.514	138.07
802.693	107.35
802.873	172.88
803.053	191.31
803.233	138.07
803.413	168.79
803.592	97.11
803.772	113.49
803.952	109.4
804.131	148.31
804.311	197.46
804.491	205.65
804.67	140.12
804.85	80.72
805.03	56.15
805.209	156.5
805.389	84.82
805.568	127.83
805.748	136.02
805.928	101.2
806.107	140.12
806.287	195.41
806.466	88.92
806.646	113.49
806.825	181.07
807.004	93.01
807.184	113.49
807.363	189.27
807.543	105.3
807.722	103.25
807.901	43.86
808.081	105.3
808.26	105.3
808.439	72.53
808.619	136.02
808.798	129.88
808.977	115.54
809.156	84.82
809.336	127.83
809.515	148.31
809.694	56.15
809.873	160.59
810.052	93.01
810.231	127.83
810.411	154.45
810.59	107.35
810.769	105.3
810.948	109.4
811.127	82.77
811.306	140.12
811.485	90.96
811.664	27.48
811.843	58.2
812.022	62.29
812.201	80.72
812.38	133.97
812.559	15.19
812.737	78.68
812.916	117.59
813.095	123.73
813.274	113.49
813.453	95.06
813.632	15.19
813.811	68.44
813.989	80.72
814.168	121.68
814.347	68.44
814.526	84.82
814.704	64.34
814.883	103.25
815.062	95.06
815.24	156.5
815.419	31.57
815.598	121.68
815.776	99.16
815.955	99.16
816.133	84.82
816.312	50
816.49	117.59
816.669	60.24
816.847	37.72
817.026	105.3
817.204	97.11
817.383	86.87
817.561	-19.63
817.74	70.48
817.918	74.58
818.097	9.05
818.275	84.82
818.453	72.53
818.632	-3.24
818.81	115.54
818.988	39.76
819.167	121.68
819.345	105.3
819.523	29.52
819.701	23.38
819.879	60.24
820.058	33.62
820.236	97.11
820.414	45.91
820.592	82.77
820.77	84.82
820.948	27.48
821.127	58.2
821.305	60.24
821.483	35.67
821.661	58.2
821.839	41.81
822.017	72.53
822.195	84.82
822.373	121.68
822.551	54.1
822.729	66.39
822.907	105.3
823.085	113.49
823.262	70.48
823.44	31.57
823.618	50
823.796	70.48
823.974	29.52
824.152	33.62
824.329	68.44
824.507	52.05
824.685	13.14
824.863	45.91
825.04	66.39
825.218	170.83
825.396	74.58
825.574	72.53
825.751	125.78
825.929	72.53
826.107	-3.24
826.284	93.01
826.462	78.68
826.639	41.81
826.817	93.01
826.994	25.43
827.172	9.05
827.349	117.59
827.527	11.09
827.704	56.15
827.882	93.01
828.059	88.92
828.237	93.01
828.414	47.96
828.591	25.43
828.769	15.19
828.946	2.9
829.124	133.97
829.301	9.05
829.478	95.06
829.655	17.24
829.833	-3.24
830.01	84.82
830.187	133.97
830.364	66.39
830.542	84.82
830.719	25.43
830.896	-25.77
831.073	107.35
831.25	70.48
831.427	76.63
831.604	76.63
831.782	56.15
831.959	88.92
832.136	84.82
832.313	15.19
832.49	0.85
832.667	13.14
832.844	45.91
833.021	109.4
833.198	7
833.374	47.96
833.551	-29.87
833.728	47.96
833.905	62.29
834.082	41.81
834.259	-1.19
834.436	39.76
834.612	-40.11
834.789	-3.24
834.966	-15.53
835.143	41.81
835.319	2.9
835.496	58.2
835.673	109.4
835.85	64.34
836.026	-23.72
836.203	7
836.38	-7.34
836.556	39.76
836.733	39.76
836.909	54.1
837.086	19.29
837.262	-17.58
837.439	70.48
837.616	-27.82
837.792	27.48
837.968	-9.39
838.145	-42.15
838.321	56.15
838.498	17.24
838.674	17.24
838.851	72.53
839.027	-9.39
839.203	27.48
839.38	52.05
839.556	105.3
839.732	4.95
839.909	90.96
840.085	64.34
840.261	-56.49
840.437	-62.63
840.614	31.57
840.79	39.76
840.966	-7.34
841.142	74.58
841.318	54.1
841.494	45.91
841.671	37.72
841.847	-62.63
842.023	-1.19
842.199	-1.19
842.375	-1.19
842.551	68.44
842.727	-60.59
842.903	62.29
843.079	33.62
843.255	82.77
843.431	52.05
843.607	7
843.783	-33.96
843.959	93.01
844.134	-13.48
844.31	37.72
844.486	-36.01
844.662	-31.91
844.838	39.76
845.013	0.85
845.189	25.43
845.365	37.72
845.541	-21.67
845.716	11.09
845.892	-5.29
846.068	62.29
846.244	45.91
846.419	66.39
846.595	31.57
846.77	9.05
846.946	45.91
847.122	66.39
847.297	50
847.473	66.39
847.648	2.9
847.824	23.38
847.999	47.96
848.175	23.38
848.35	-11.43
848.526	43.86
848.701	21.33
848.876	23.38
849.052	23.38
849.227	4.95
849.403	109.4
849.578	-11.43
849.753	39.76
849.929	93.01
850.104	31.57
850.279	45.91
850.454	47.96
850.63	39.76
850.805	-85.16
850.98	19.29
851.155	78.68
851.33	11.09
851.505	-46.25
851.681	37.72
851.856	29.52
852.031	33.62
852.206	74.58
852.381	-9.39
852.556	-40.11
852.731	45.91
852.906	29.52
853.081	41.81
853.256	52.05
853.431	-21.67
853.606	13.14
853.781	68.44
853.956	19.29
854.131	35.67
854.305	-23.72
854.48	68.44
854.655	47.96
854.83	23.38
855.005	97.11
855.18	9.05
855.354	-72.87
855.529	2.9
855.704	-1.19
855.879	68.44
856.053	27.48
856.228	35.67
856.403	-1.19
856.577	39.76
856.752	-23.72
856.926	35.67
857.101	-38.06
857.276	15.19
857.45	33.62
857.625	23.38
857.799	58.2
857.974	68.44
858.148	-15.53
858.323	68.44
858.497	4.95
858.672	-27.82
858.846	15.19
859.02	47.96
859.195	-17.58
859.369	-29.87
859.543	33.62
859.718	-5.29
859.892	50
860.066	23.38
860.241	-21.67
860.415	-7.34
860.589	-15.53
860.763	19.29
860.938	15.19
861.112	4.95
861.286	-17.58
861.46	-33.96
861.634	-1.19
861.808	74.58
861.982	-21.67
862.157	-42.15
862.331	74.58
862.505	47.96
862.679	-50.35
862.853	-11.43
863.027	-72.87
863.201	41.81
863.375	-17.58
863.549	15.19
863.722	7
863.896	50
864.07	-79.02
864.244	13.14
864.418	43.86
864.592	47.96
864.766	-31.91
864.939	-25.77
865.113	-5.29
865.287	47.96
865.461	-29.87
865.634	-5.29
865.808	-31.91
865.982	58.2
866.156	-46.25
866.329	15.19
866.503	60.24
866.676	43.86
866.85	4.95
867.024	37.72
867.197	0.85
867.371	-15.53
867.544	43.86
867.718	-64.68
867.891	-5.29
868.065	-27.82
868.238	7
868.412	7
868.585	-3.24
868.759	11.09
868.932	64.34
869.105	78.68
869.279	-44.2
869.452	25.43
869.625	64.34
869.799	62.29
869.972	-23.72
870.145	17.24
870.319	66.39
870.492	-3.24
870.665	47.96
870.838	-27.82
871.011	-1.19
871.185	33.62
871.358	-5.29
871.531	64.34
871.704	-15.53
871.877	4.95
872.05	41.81
872.223	17.24
872.396	-11.43
872.569	-5.29
872.742	41.81
872.915	25.43
873.088	-23.72
873.261	15.19
873.434	23.38
873.607	15.19
873.78	31.57
873.953	74.58
874.126	56.15
874.299	-5.29
874.471	33.62
874.644	13.14
874.817	64.34
874.99	82.77
875.163	-62.63
875.335	39.76
875.508	4.95
875.681	-7.34
875.853	-23.72
876.026	-44.2
876.199	31.57
876.371	-29.87
876.544	-44.2
876.717	23.38
876.889	-17.58
877.062	11.09
877.234	-25.77
877.407	2.9
877.579	37.72
877.752	23.38
877.924	-29.87
878.097	72.53
878.269	-7.34
878.442	-40.11
878.614	52.05
878.786	17.24
878.959	-66.73
879.131	-29.87
879.303	9.05
879.476	-25.77
879.648	0.85
879.82	2.9
879.993	-7.34
880.165	76.63
880.337	2.9
880.509	-68.78
880.681	70.48
880.854	-42.15
881.026	-38.06
881.198	80.72
881.37	-62.63
881.542	37.72
881.714	4.95
881.886	-19.63
882.058	50
882.23	9.05
882.402	-42.15
882.574	37.72
882.746	4.95
882.918	39.76
883.09	-1.19
883.262	-5.29
883.434	-23.72
883.606	-44.2
883.778	2.9
883.95	-50.35
884.122	7
884.293	41.81
884.465	50
884.637	-23.72
884.809	27.48
884.98	31.57
885.152	7
885.324	-21.67
885.496	-19.63
885.667	-31.91
885.839	-56.49
886.011	25.43
886.182	21.33
886.354	13.14
886.525	41.81
886.697	-1.19
886.869	-52.39
887.04	-44.2
887.212	43.86
887.383	15.19
887.555	58.2
887.726	15.19
887.897	29.52
888.069	43.86
888.24	15.19
888.412	-21.67
888.583	37.72
888.754	-13.48
888.926	-5.29
889.097	39.76
889.268	-19.63
889.44	-31.91
889.611	39.76
889.782	21.33
889.953	7
890.125	9.05
890.296	-9.39
890.467	-29.87
890.638	-19.63
890.809	35.67
890.98	80.72
891.151	33.62
891.323	80.72
891.494	70.48
891.665	-29.87
891.836	-87.21
892.007	-111.78
892.178	-1.19
892.349	2.9
892.52	52.05
892.691	-31.91
892.862	15.19
893.032	-54.44
893.203	47.96
893.374	-19.63
893.545	23.38
893.716	-42.15
893.887	35.67
894.057	21.33
894.228	150.36
894.399	17.24
894.57	31.57
894.74	9.05
894.911	58.2
895.082	0.85
895.253	39.76
895.423	23.38
895.594	35.67
895.764	-64.68
895.935	15.19
896.106	19.29
896.276	-11.43
896.447	54.1
896.617	-33.96
896.788	0.85
896.958	25.43
897.129	47.96
897.299	-5.29
897.47	39.76
897.64	-13.48
897.81	11.09
897.981	-7.34
898.151	17.24
898.322	19.29
898.492	-17.58
898.662	31.57
898.832	72.53
899.003	29.52
899.173	31.57
899.343	68.44
899.513	11.09
