Data from USB4F104151__175__13-58-57-271.txt Node

Date: Thu Mar 13 13:58:57 EDT 2025
User: louis
Spectrometer: USB4F10415
Trigger mode: 4
Integration Time (sec): 1.000000E-2
Scans to average: 1
Electric dark correction enabled: true
Nonlinearity correction enabled: false
Boxcar width: 0
XAxis mode: Wavelengths
Number of Pixels in Spectrum: 3648
>>>>>Begin Spectral Data<<<<<
178.204	-17.24
178.424	-17.24
178.644	-17.24
178.864	-90.96
179.084	72.87
179.304	31.91
179.524	13.48
179.744	11.43
179.964	44.2
180.184	-15.19
180.404	3.24
180.624	-0.85
180.844	-13.14
181.064	-21.33
181.283	-4.95
181.503	-68.44
181.723	19.63
181.943	-41.81
182.163	5.29
182.383	52.39
182.602	56.49
182.822	40.11
183.042	-9.05
183.262	-29.52
183.482	11.43
183.701	11.43
183.921	19.63
184.141	-31.57
184.361	-35.67
184.58	81.07
184.8	13.48
185.02	-31.57
185.239	48.3
185.459	23.72
185.679	79.02
185.898	-95.06
186.118	111.78
186.338	54.44
186.557	72.87
186.777	-19.29
186.997	19.63
187.216	3.24
187.436	15.53
187.655	5.29
187.875	115.88
188.095	27.82
188.314	105.64
188.534	105.64
188.753	21.67
188.973	58.54
189.192	44.2
189.412	31.91
189.631	-25.43
189.851	23.72
190.07	38.06
190.29	76.97
190.509	44.2
190.729	38.06
190.948	36.01
191.168	68.78
191.387	44.2
191.607	27.82
191.826	7.34
192.045	46.25
192.265	5.29
192.484	31.91
192.704	-11.09
192.923	5.29
193.142	52.39
193.362	38.06
193.581	79.02
193.8	52.39
194.02	-2.9
194.239	29.87
194.458	64.68
194.678	-4.95
194.897	27.82
195.116	15.53
195.335	23.72
195.555	-11.09
195.774	85.16
195.993	33.96
196.212	54.44
196.432	54.44
196.651	44.2
196.87	3.24
197.089	68.78
197.308	-4.95
197.528	87.21
197.747	-2.9
197.966	68.78
198.185	33.96
198.404	44.2
198.623	-11.09
198.842	25.77
199.062	3.24
199.281	97.45
199.5	-13.14
199.719	85.16
199.938	29.87
200.157	58.54
200.376	1.19
200.595	-21.33
200.814	87.21
201.033	-33.62
201.252	58.54
201.471	9.39
201.69	7.34
201.909	-4.95
202.128	62.63
202.347	27.82
202.566	50.35
202.785	44.2
203.004	11.43
203.223	64.68
203.442	15.53
203.661	-9.05
203.879	19.63
204.098	95.4
204.317	-41.81
204.536	38.06
204.755	40.11
204.974	87.21
205.193	-9.05
205.411	48.3
205.63	54.44
205.849	81.07
206.068	-52.05
206.287	40.11
206.505	58.54
206.724	46.25
206.943	42.15
207.162	56.49
207.381	56.49
207.599	58.54
207.818	29.87
208.037	38.06
208.255	27.82
208.474	33.96
208.693	-19.29
208.911	31.91
209.13	11.43
209.349	72.87
209.567	27.82
209.786	99.5
210.005	31.91
210.223	64.68
210.442	85.16
210.661	-17.24
210.879	23.72
211.098	44.2
211.316	29.87
211.535	-9.05
211.753	31.91
211.972	68.78
212.191	52.39
212.409	36.01
212.628	27.82
212.846	87.21
213.065	-17.24
213.283	-25.43
213.502	44.2
213.72	-7
213.938	83.11
214.157	33.96
214.375	50.35
214.594	-60.24
214.812	44.2
215.031	1.19
215.249	11.43
215.467	3.24
215.686	-25.43
215.904	9.39
216.122	19.63
216.341	54.44
216.559	56.49
216.778	68.78
216.996	60.59
217.214	44.2
217.432	25.77
217.651	5.29
217.869	-45.91
218.087	29.87
218.306	40.11
218.524	9.39
218.742	25.77
218.96	40.11
219.179	76.97
219.397	-21.33
219.615	66.73
219.833	9.39
220.051	52.39
220.27	1.19
220.488	5.29
220.706	50.35
220.924	44.2
221.142	54.44
221.36	40.11
221.578	23.72
221.796	44.2
222.015	64.68
222.233	7.34
222.451	113.83
222.669	58.54
222.887	52.39
223.105	-19.29
223.323	46.25
223.541	-25.43
223.759	-64.34
223.977	-9.05
224.195	23.72
224.413	31.91
224.631	54.44
224.849	15.53
225.067	19.63
225.285	-11.09
225.503	25.77
225.721	-4.95
225.939	38.06
226.157	38.06
226.375	91.31
226.592	62.63
226.81	13.48
227.028	76.97
227.246	11.43
227.464	21.67
227.682	76.97
227.9	54.44
228.117	9.39
228.335	3.24
228.553	62.63
228.771	9.39
228.989	79.02
229.206	103.59
229.424	60.59
229.642	50.35
229.86	27.82
230.077	3.24
230.295	-37.72
230.513	72.87
230.731	38.06
230.948	46.25
231.166	48.3
231.384	19.63
231.601	9.39
231.819	-33.62
232.037	17.58
232.254	23.72
232.472	-52.05
232.689	13.48
232.907	33.96
233.125	27.82
233.342	11.43
233.56	13.48
233.777	15.53
233.995	58.54
234.213	40.11
234.43	-33.62
234.648	-0.85
234.865	62.63
235.083	-2.9
235.3	-15.19
235.518	54.44
235.735	27.82
235.953	17.58
236.17	36.01
236.388	27.82
236.605	-2.9
236.822	36.01
237.04	11.43
237.257	19.63
237.475	-13.14
237.692	70.83
237.909	62.63
238.127	38.06
238.344	9.39
238.562	74.92
238.779	17.58
238.996	58.54
239.214	-4.95
239.431	72.87
239.648	81.07
239.865	119.98
240.083	38.06
240.3	56.49
240.517	-23.38
240.735	85.16
240.952	36.01
241.169	38.06
241.386	40.11
241.603	-7
241.821	-4.95
242.038	38.06
242.255	33.96
242.472	-35.67
242.689	-11.09
242.907	-13.14
243.124	72.87
243.341	27.82
243.558	7.34
243.775	27.82
243.992	44.2
244.209	74.92
244.426	70.83
244.643	36.01
244.86	66.73
245.078	-23.38
245.295	74.92
245.512	60.59
245.729	9.39
245.946	-25.43
246.163	33.96
246.38	54.44
246.597	44.2
246.814	117.93
247.031	44.2
247.248	21.67
247.464	38.06
247.681	60.59
247.898	31.91
248.115	66.73
248.332	68.78
248.549	70.83
248.766	25.77
248.983	68.78
249.2	-29.52
249.417	99.5
249.633	29.87
249.85	50.35
250.067	36.01
250.284	42.15
250.501	72.87
250.717	-13.14
250.934	36.01
251.151	31.91
251.368	25.77
251.585	64.68
251.801	126.12
252.018	7.34
252.235	21.67
252.451	29.87
252.668	-9.05
252.885	66.73
253.102	62.63
253.318	27.82
253.535	40.11
253.752	52.39
253.968	-39.76
254.185	5.29
254.401	54.44
254.618	3.24
254.835	3.24
255.051	109.74
255.268	-31.57
255.484	44.2
255.701	29.87
255.917	21.67
256.134	-11.09
256.351	115.88
256.567	-11.09
256.784	7.34
257	-11.09
257.217	54.44
257.433	23.72
257.65	-4.95
257.866	5.29
258.082	54.44
258.299	5.29
258.515	48.3
258.732	-11.09
258.948	46.25
259.165	23.72
259.381	36.01
259.597	-21.33
259.814	27.82
260.03	-70.48
260.246	109.74
260.463	-54.1
260.679	15.53
260.895	40.11
261.112	56.49
261.328	-45.91
261.544	56.49
261.761	132.26
261.977	136.36
262.193	-21.33
262.409	29.87
262.626	95.4
262.842	-21.33
263.058	85.16
263.274	13.48
263.49	23.72
263.707	79.02
263.923	76.97
264.139	-21.33
264.355	11.43
264.571	136.36
264.787	81.07
265.004	17.58
265.22	-13.14
265.436	-41.81
265.652	-43.86
265.868	95.4
266.084	21.67
266.3	11.43
266.516	-4.95
266.732	29.87
266.948	29.87
267.164	-4.95
267.38	60.59
267.596	44.2
267.812	60.59
268.028	-25.43
268.244	-35.67
268.46	33.96
268.676	-13.14
268.892	42.15
269.108	101.55
269.324	-0.85
269.54	31.91
269.756	44.2
269.972	-17.24
270.188	-4.95
270.403	-7
270.619	72.87
270.835	-45.91
271.051	11.43
271.267	60.59
271.483	19.63
271.698	21.67
271.914	-19.29
272.13	21.67
272.346	76.97
272.562	101.55
272.777	119.98
272.993	-41.81
273.209	3.24
273.425	76.97
273.64	33.96
273.856	74.92
274.072	117.93
274.287	81.07
274.503	103.59
274.719	-7
274.934	62.63
275.15	46.25
275.366	-0.85
275.581	11.43
275.797	33.96
276.012	54.44
276.228	79.02
276.444	15.53
276.659	68.78
276.875	19.63
277.09	-9.05
277.306	-11.09
277.521	17.58
277.737	9.39
277.952	27.82
278.168	19.63
278.383	56.49
278.599	21.67
278.814	105.64
279.03	17.58
279.245	56.49
279.461	36.01
279.676	25.77
279.892	-21.33
280.107	38.06
280.322	17.58
280.538	25.77
280.753	15.53
280.969	85.16
281.184	5.29
281.399	76.97
281.615	74.92
281.83	66.73
282.045	31.91
282.26	50.35
282.476	58.54
282.691	66.73
282.906	-0.85
283.122	40.11
283.337	-15.19
283.552	85.16
283.767	33.96
283.983	29.87
284.198	21.67
284.413	27.82
284.628	95.4
284.843	44.2
285.058	76.97
285.274	1.19
285.489	62.63
285.704	-35.67
285.919	1.19
286.134	38.06
286.349	-11.09
286.564	52.39
286.779	5.29
286.995	44.2
287.21	17.58
287.425	21.67
287.64	-0.85
287.855	19.63
288.07	-33.62
288.285	76.97
288.5	11.43
288.715	62.63
288.93	1.19
289.145	36.01
289.36	101.55
289.575	33.96
289.79	85.16
290.004	64.68
290.219	15.53
290.434	56.49
290.649	19.63
290.864	27.82
291.079	-17.24
291.294	5.29
291.509	33.96
291.724	68.78
291.938	58.54
292.153	-29.52
292.368	52.39
292.583	29.87
292.798	-4.95
293.012	72.87
293.227	50.35
293.442	81.07
293.657	72.87
293.871	83.11
294.086	87.21
294.301	44.2
294.516	-19.29
294.73	79.02
294.945	36.01
295.16	-11.09
295.374	97.45
295.589	70.83
295.804	29.87
296.018	107.69
296.233	-2.9
296.447	58.54
296.662	5.29
296.877	40.11
297.091	29.87
297.306	29.87
297.52	-29.52
297.735	25.77
297.949	-13.14
298.164	50.35
298.378	17.58
298.593	56.49
298.807	85.16
299.022	36.01
299.236	-19.29
299.451	56.49
299.665	31.91
299.88	62.63
300.094	66.73
300.309	76.97
300.523	48.3
300.737	11.43
300.952	19.63
301.166	76.97
301.381	25.77
301.595	68.78
301.809	54.44
302.024	68.78
302.238	-7
302.452	115.88
302.667	46.25
302.881	72.87
303.095	23.72
303.309	85.16
303.524	9.39
303.738	68.78
303.952	-33.62
304.166	-21.33
304.381	5.29
304.595	95.4
304.809	1.19
305.023	54.44
305.237	17.58
305.452	91.31
305.666	48.3
305.88	36.01
306.094	-4.95
306.308	-4.95
306.522	42.15
306.736	23.72
306.95	-21.33
307.164	-21.33
307.379	-0.85
307.593	79.02
307.807	54.44
308.021	87.21
308.235	107.69
308.449	-33.62
308.663	36.01
308.877	23.72
309.091	-88.92
309.305	62.63
309.519	-4.95
309.733	101.55
309.947	50.35
310.161	23.72
310.374	58.54
310.588	42.15
310.802	19.63
311.016	3.24
311.23	44.2
311.444	17.58
311.658	-4.95
311.872	62.63
312.085	19.63
312.299	21.67
312.513	-0.85
312.727	17.58
312.941	19.63
313.154	-25.43
313.368	3.24
313.582	85.16
313.796	31.91
314.009	36.01
314.223	38.06
314.437	27.82
314.651	60.59
314.864	44.2
315.078	-43.86
315.292	87.21
315.505	5.29
315.719	44.2
315.933	15.53
316.146	46.25
316.36	36.01
316.573	66.73
316.787	52.39
317.001	50.35
317.214	64.68
317.428	-31.57
317.641	-54.1
317.855	42.15
318.068	85.16
318.282	64.68
318.495	70.83
318.709	79.02
318.922	54.44
319.136	109.74
319.349	-25.43
319.563	62.63
319.776	-21.33
319.99	40.11
320.203	58.54
320.417	27.82
320.63	31.91
320.843	64.68
321.057	-43.86
321.27	33.96
321.483	-29.52
321.697	60.59
321.91	79.02
322.124	44.2
322.337	-0.85
322.55	93.35
322.763	-7
322.977	95.4
323.19	1.19
323.403	36.01
323.617	68.78
323.83	-39.76
324.043	-7
324.256	-9.05
324.469	40.11
324.683	91.31
324.896	23.72
325.109	21.67
325.322	56.49
325.535	85.16
325.748	-11.09
325.962	46.25
326.175	36.01
326.388	11.43
326.601	-0.85
326.814	60.59
327.027	44.2
327.24	111.78
327.453	56.49
327.666	52.39
327.879	11.43
328.092	-35.67
328.305	11.43
328.518	-2.9
328.731	64.68
328.944	36.01
329.157	40.11
329.37	60.59
329.583	29.87
329.796	95.4
330.009	52.39
330.222	-17.24
330.435	38.06
330.648	-19.29
330.861	111.78
331.073	-45.91
331.286	60.59
331.499	11.43
331.712	11.43
331.925	7.34
332.138	33.96
332.35	19.63
332.563	-25.43
332.776	91.31
332.989	68.78
333.202	76.97
333.414	11.43
333.627	13.48
333.84	50.35
334.053	11.43
334.265	48.3
334.478	-2.9
334.691	36.01
334.903	44.2
335.116	99.5
335.329	11.43
335.541	17.58
335.754	17.58
335.966	85.16
336.179	29.87
336.392	36.01
336.604	62.63
336.817	29.87
337.029	11.43
337.242	9.39
337.454	52.39
337.667	60.59
337.88	64.68
338.092	25.77
338.305	23.72
338.517	42.15
338.729	17.58
338.942	54.44
339.154	5.29
339.367	11.43
339.579	76.97
339.792	19.63
340.004	101.55
340.217	-23.38
340.429	62.63
340.641	-9.05
340.854	79.02
341.066	89.26
341.278	44.2
341.491	56.49
341.703	97.45
341.915	58.54
342.128	3.24
342.34	36.01
342.552	60.59
342.764	3.24
342.977	122.02
343.189	7.34
343.401	52.39
343.613	97.45
343.826	38.06
344.038	-25.43
344.25	5.29
344.462	74.92
344.674	11.43
344.886	74.92
345.099	38.06
345.311	3.24
345.523	95.4
345.735	36.01
345.947	27.82
346.159	23.72
346.371	5.29
346.583	-58.2
346.795	56.49
347.007	1.19
347.219	36.01
347.431	93.35
347.643	42.15
347.855	3.24
348.067	38.06
348.279	-0.85
348.491	62.63
348.703	60.59
348.915	101.55
349.127	58.54
349.339	70.83
349.551	44.2
349.763	111.78
349.975	1.19
350.187	62.63
350.399	9.39
350.61	56.49
350.822	-25.43
351.034	111.78
351.246	23.72
351.458	17.58
351.669	-17.24
351.881	52.39
352.093	66.73
352.305	91.31
352.517	44.2
352.728	66.73
352.94	70.83
353.152	9.39
353.363	50.35
353.575	27.82
353.787	58.54
353.999	162.98
354.21	13.48
354.422	66.73
354.633	29.87
354.845	44.2
355.057	44.2
355.268	93.35
355.48	54.44
355.692	56.49
355.903	-41.81
356.115	46.25
356.326	29.87
356.538	64.68
356.749	70.83
356.961	111.78
357.172	54.44
357.384	74.92
357.595	95.4
357.807	25.77
358.018	103.59
358.23	52.39
358.441	93.35
358.653	33.96
358.864	31.91
359.075	52.39
359.287	79.02
359.498	85.16
359.709	97.45
359.921	46.25
360.132	85.16
360.344	21.67
360.555	17.58
360.766	46.25
360.977	52.39
361.189	23.72
361.4	81.07
361.611	85.16
361.823	19.63
362.034	113.83
362.245	40.11
362.456	87.21
362.667	107.69
362.879	23.72
363.09	60.59
363.301	50.35
363.512	19.63
363.723	76.97
363.935	54.44
364.146	44.2
364.357	50.35
364.568	23.72
364.779	29.87
364.99	97.45
365.201	-23.38
365.412	93.35
365.623	27.82
365.834	38.06
366.045	58.54
366.256	27.82
366.467	81.07
366.678	38.06
366.889	89.26
367.1	-2.9
367.311	17.58
367.522	52.39
367.733	42.15
367.944	21.67
368.155	-11.09
368.366	66.73
368.577	117.93
368.788	50.35
368.999	31.91
369.209	27.82
369.42	29.87
369.631	3.24
369.842	38.06
370.053	9.39
370.264	56.49
370.474	5.29
370.685	-17.24
370.896	83.11
371.107	36.01
371.317	74.92
371.528	70.83
371.739	56.49
371.95	31.91
372.16	-2.9
372.371	21.67
372.582	58.54
372.792	70.83
373.003	44.2
373.214	33.96
373.424	-19.29
373.635	-2.9
373.846	33.96
374.056	58.54
374.267	-0.85
374.477	126.12
374.688	38.06
374.898	7.34
375.109	52.39
375.319	46.25
375.53	91.31
375.74	83.11
375.951	23.72
376.161	148.65
376.372	15.53
376.582	11.43
376.793	23.72
377.003	62.63
377.214	-4.95
377.424	11.43
377.635	62.63
377.845	79.02
378.055	68.78
378.266	54.44
378.476	36.01
378.686	79.02
378.897	58.54
379.107	44.2
379.317	109.74
379.528	5.29
379.738	46.25
379.948	11.43
380.158	60.59
380.369	46.25
380.579	5.29
380.789	64.68
380.999	25.77
381.21	38.06
381.42	19.63
381.63	142.5
381.84	87.21
382.05	21.67
382.261	25.77
382.471	44.2
382.681	128.17
382.891	21.67
383.101	66.73
383.311	46.25
383.521	107.69
383.731	21.67
383.941	58.54
384.151	56.49
384.361	58.54
384.571	58.54
384.781	23.72
384.991	38.06
385.201	109.74
385.411	11.43
385.621	44.2
385.831	-17.24
386.041	25.77
386.251	95.4
386.461	89.26
386.671	15.53
386.881	81.07
387.091	11.43
387.301	33.96
387.511	101.55
387.72	150.7
387.93	56.49
388.14	48.3
388.35	74.92
388.56	29.87
388.769	87.21
388.979	64.68
389.189	23.72
389.399	81.07
389.609	66.73
389.818	46.25
390.028	-7
390.238	91.31
390.447	-9.05
390.657	72.87
390.867	-35.67
391.076	29.87
391.286	101.55
391.496	42.15
391.705	64.68
391.915	23.72
392.125	64.68
392.334	89.26
392.544	38.06
392.753	21.67
392.963	19.63
393.172	60.59
393.382	60.59
393.591	79.02
393.801	48.3
394.01	66.73
394.22	52.39
394.429	89.26
394.639	91.31
394.848	76.97
395.058	-13.14
395.267	48.3
395.477	11.43
395.686	103.59
395.895	91.31
396.105	52.39
396.314	52.39
396.524	68.78
396.733	66.73
396.942	1.19
397.152	101.55
397.361	91.31
397.57	95.4
397.78	85.16
397.989	68.78
398.198	154.79
398.407	64.68
398.617	81.07
398.826	33.96
399.035	52.39
399.244	105.64
399.453	111.78
399.663	46.25
399.872	150.7
400.081	119.98
400.29	72.87
400.499	60.59
400.708	109.74
400.917	89.26
401.127	85.16
401.336	54.44
401.545	105.64
401.754	91.31
401.963	185.51
402.172	126.12
402.381	117.93
402.59	46.25
402.799	134.31
403.008	76.97
403.217	91.31
403.426	72.87
403.635	19.63
403.844	93.35
404.053	109.74
404.262	97.45
404.471	183.46
404.68	130.22
404.888	87.21
405.097	54.44
405.306	150.7
405.515	111.78
405.724	93.35
405.933	52.39
406.142	72.87
406.35	91.31
406.559	140.46
406.768	109.74
406.977	150.7
407.185	54.44
407.394	91.31
407.603	167.08
407.812	117.93
408.02	134.31
408.229	210.09
408.438	95.4
408.646	119.98
408.855	199.85
409.064	142.5
409.272	167.08
409.481	126.12
409.69	74.92
409.898	132.26
410.107	224.42
410.315	187.56
410.524	220.33
410.733	238.76
410.941	203.94
411.15	214.18
411.358	261.29
411.567	259.24
411.775	265.38
411.984	273.57
412.192	255.14
412.401	236.71
412.609	273.57
412.818	351.4
413.026	337.06
413.234	318.63
413.443	306.34
413.651	261.29
413.86	314.53
414.068	394.4
414.276	365.73
414.485	363.69
414.693	449.7
414.901	400.55
415.11	357.54
415.318	421.03
415.526	429.22
415.734	406.69
415.943	453.8
416.151	447.65
416.359	421.03
416.567	406.69
416.776	513.19
416.984	509.09
417.192	609.44
417.4	593.06
417.608	550.05
417.817	574.63
418.025	584.87
418.233	693.41
418.441	556.19
418.649	625.83
418.857	683.17
419.065	701.6
419.273	650.4
419.481	785.57
419.689	797.85
419.897	808.09
420.105	758.94
420.313	840.86
420.521	920.73
420.729	799.9
420.937	875.68
421.145	869.53
421.353	1068.19
421.561	1029.27
421.769	1019.04
421.977	1086.62
422.185	1125.53
422.393	1146.01
422.601	1232.02
422.809	1133.72
423.017	1205.4
423.224	1223.83
423.432	1367.19
423.64	1340.57
423.848	1512.6
424.056	1445.01
424.263	1535.12
424.471	1608.85
424.679	1557.65
424.887	1713.3
425.094	1643.67
425.302	1778.83
425.51	1750.16
425.718	1815.69
425.925	1809.55
426.133	1940.62
426.341	2040.97
426.548	2053.26
426.756	2090.12
426.964	2155.66
427.171	2112.65
427.379	2200.71
427.586	2278.54
427.794	2444.42
428.001	2499.72
428.209	2595.97
428.417	2454.66
428.624	2661.51
428.832	2628.74
429.039	2706.56
429.247	2618.5
429.454	2940.03
429.662	3161.21
429.869	2931.84
430.076	3067
430.284	3157.11
430.491	3126.39
430.699	3333.24
430.906	3290.23
431.114	3478.65
431.321	3521.65
431.528	3509.37
431.736	3927.15
431.943	3968.11
432.15	3941.49
432.358	3886.19
432.565	3949.68
432.772	4062.32
432.979	4412.52
433.187	4377.7
433.394	4451.43
433.601	4721.76
433.808	4748.39
434.016	4650.08
434.223	4961.37
434.43	5223.51
434.637	5127.26
434.844	5430.36
435.052	5534.81
435.259	5471.32
435.466	5592.15
435.673	5456.98
435.88	5893.2
436.087	6134.86
436.294	6136.91
436.501	5897.3
436.708	6050.89
436.915	6278.22
437.122	6724.68
437.329	6448.2
437.537	6593.61
437.743	7052.35
437.95	6788.16
438.157	7144.51
438.364	7466.04
438.571	7306.3
438.778	7560.25
438.985	8238.12
439.192	7767.09
439.399	7998.51
439.606	7844.91
439.813	8379.43
440.02	8844.32
440.227	8426.54
440.433	8551.46
440.64	8928.29
440.847	8743.97
441.054	9014.31
441.261	9415.71
441.467	9509.91
441.674	9690.13
441.881	10075.15
442.088	10019.86
442.294	10040.34
442.501	10081.3
442.708	10308.62
442.914	10857.48
443.121	11258.88
443.328	11039.75
443.534	11805.69
443.741	11361.28
443.948	11146.24
444.154	12248.05
444.361	12067.83
444.568	12088.31
444.774	12168.18
444.981	12223.47
445.187	12532.72
445.394	13153.25
445.6	13011.94
445.807	13988.82
446.013	13626.33
446.22	13970.39
446.426	14316.5
446.633	14416.85
446.839	15010.76
447.046	14396.37
447.252	15010.76
447.459	15166.4
447.665	15014.85
447.871	15731.64
448.078	16296.88
448.284	15563.71
448.491	16030.65
448.697	16950.18
448.903	17032.1
449.11	16987.05
449.316	16489.39
449.522	16901.03
449.728	17638.3
449.935	17435.55
450.141	17662.88
450.347	17879.96
450.553	17390.5
450.76	17771.42
450.966	18164.63
451.172	18138.01
451.378	18592.65
451.584	18054.04
451.791	18602.89
451.997	18533.26
452.203	18783.12
452.409	18723.72
452.615	18488.21
452.821	17886.11
453.027	18113.43
453.233	18803.6
453.44	18230.16
453.646	18312.08
453.852	18062.23
454.058	18480.02
454.264	17816.47
454.47	18369.43
454.676	18109.33
454.882	18359.19
455.088	16880.55
455.294	17241
455.5	17685.4
455.705	17370.02
455.911	16583.6
456.117	16540.59
456.323	16546.73
456.529	15498.17
456.735	16118.71
456.941	15602.62
457.147	15567.81
457.352	15184.83
457.558	14842.82
457.764	14803.91
457.97	14511.05
458.176	14160.85
458.381	14232.53
458.587	13792.22
458.793	13568.99
458.999	13065.19
459.204	14021.59
459.41	13331.42
459.616	12450.8
459.821	12553.2
460.027	12514.28
460.233	12387.31
460.438	11629.56
460.644	11865.08
460.85	11246.59
461.055	10990.59
461.261	10972.16
461.466	10081.3
461.672	9964.56
461.878	10531.85
462.083	10126.35
462.289	9724.95
462.494	9829.4
462.7	9196.57
462.905	8879.14
463.111	9307.16
463.316	9327.64
463.522	9415.71
463.727	9235.49
463.932	9079.84
464.138	9063.46
464.343	9096.22
464.549	8942.63
464.754	9344.03
464.959	9172
465.165	9026.59
465.37	8653.86
465.575	8520.74
465.781	8881.19
465.986	8762.4
466.191	8444.97
466.397	8506.41
466.602	7967.79
466.807	8229.93
467.012	8248.36
467.218	8221.74
467.423	8115.25
467.628	8281.13
467.833	8664.1
468.038	8221.74
468.244	7943.22
468.449	8297.52
468.654	7969.84
468.859	7844.91
469.064	7945.27
469.269	7728.18
469.474	7719.99
469.679	7783.48
469.885	7578.68
470.09	7562.3
470.295	7679.03
470.5	7398.46
470.705	7558.2
470.91	7386.17
471.115	7408.7
471.32	7455.8
471.525	7398.46
471.73	7238.72
471.935	7183.42
472.139	6947.9
472.344	6933.57
472.549	6919.23
472.754	6755.4
472.959	6857.79
473.164	6550.6
473.369	6583.37
473.574	6906.95
473.778	6640.71
473.983	6509.64
474.188	6552.65
474.393	6347.85
474.598	6345.8
474.802	6155.34
475.007	6325.32
475.212	6237.26
475.417	5831.76
475.621	6059.09
475.826	6089.81
476.031	6040.65
476.235	5899.34
476.44	5932.11
476.645	5735.51
476.849	5753.94
477.054	5733.46
477.259	5672.02
477.463	5497.94
477.668	5479.51
477.872	5581.91
478.077	5520.47
478.282	5239.9
478.486	5289.05
478.691	5233.75
478.895	5254.23
479.1	5096.54
479.304	5381.21
479.509	5055.58
479.713	5313.63
479.918	5026.91
480.122	4959.33
480.326	4961.37
480.531	5106.78
480.735	5284.95
480.94	5155.93
481.144	5205.08
481.348	4871.26
481.553	4957.28
481.757	4744.29
481.961	5022.81
482.166	4877.41
482.37	4922.46
482.574	4834.4
482.778	4873.31
482.983	4895.84
483.187	4932.7
483.391	4912.22
483.595	4813.92
483.8	4893.79
484.004	4813.92
484.208	4932.7
484.412	4764.77
484.616	4850.78
484.821	4969.57
485.025	4863.07
485.229	4861.02
485.433	4676.71
485.637	5004.38
485.841	4744.29
486.045	4899.94
486.249	4975.71
486.453	4748.39
486.657	4756.58
486.861	4992.09
487.065	4856.93
487.269	4936.8
487.473	4906.08
487.677	4826.21
487.881	4942.94
488.085	5012.57
488.289	4711.52
488.493	4762.72
488.697	4906.08
488.901	4920.42
489.105	4918.37
489.309	4953.18
489.512	4942.94
489.716	5004.38
489.92	5098.59
490.124	4944.99
490.328	5104.73
490.531	4996.19
490.735	5119.07
490.939	5121.12
491.143	4934.75
491.346	5018.72
491.55	5174.36
491.754	5080.16
491.958	5258.33
492.161	5289.05
492.365	5174.36
492.569	5133.4
492.772	5151.84
492.976	5319.77
493.18	5340.25
493.383	5311.58
493.587	5401.69
493.79	5344.35
493.994	5592.15
494.197	5536.85
494.401	5446.74
494.605	5493.85
494.808	5704.79
495.012	5647.44
495.215	5811.28
495.419	5667.92
495.622	5758.03
495.825	5899.34
496.029	5817.43
496.232	6098
496.436	6061.13
496.639	6126.67
496.843	6065.23
497.046	6298.7
497.249	6212.68
497.453	6247.5
497.656	6413.38
497.859	6343.75
498.063	6503.5
498.266	6544.45
498.469	6618.18
498.673	6706.24
498.876	6808.64
499.079	6741.06
499.282	6763.59
499.485	7138.37
499.689	7031.87
499.892	7109.69
500.095	7130.17
500.298	7420.99
500.501	7257.15
500.705	7541.82
500.908	7812.15
501.111	7726.13
501.314	7900.21
501.517	7896.11
501.72	7984.18
501.923	7982.13
502.126	8193.07
502.329	8346.67
502.532	8573.99
502.735	8428.59
502.938	8588.33
503.141	8760.36
503.344	8803.36
503.547	8815.65
503.75	9069.6
503.953	9212.96
504.156	9208.86
504.359	9427.99
504.562	9366.56
504.765	9626.65
504.968	9788.44
505.17	9798.68
505.373	9792.53
505.576	10284.05
505.779	10077.2
505.982	10363.92
506.185	10464.27
506.387	10576.91
506.59	10744.84
506.793	10959.88
506.996	10963.97
507.198	11230.21
507.401	11084.8
507.604	11320.32
507.807	11764.73
508.009	11656.18
508.212	11824.12
508.415	11949.04
508.617	12076.02
508.82	12237.81
509.022	12319.73
509.225	12491.76
509.428	12805.1
509.63	12882.92
509.833	13159.39
510.035	13265.89
510.238	13292.51
510.44	13474.78
510.643	13618.14
510.845	13611.99
511.048	14169.04
511.25	14117.84
511.453	14115.8
511.655	14959.56
511.858	14648.27
512.06	14928.84
512.262	15229.89
512.465	15221.7
512.667	15285.19
512.87	15485.89
513.072	15391.68
513.274	15987.64
513.477	15879.1
513.679	16147.38
513.881	16546.73
514.084	16765.87
514.286	16896.94
514.488	16952.23
514.69	17456.03
514.893	17337.25
515.095	17613.73
515.297	17796
515.499	18174.87
515.701	18236.31
515.904	18264.98
516.106	18779.02
516.308	18660.24
516.51	19159.94
516.712	19164.04
516.914	19264.39
517.116	19868.54
517.318	19561.34
517.52	20067.19
517.722	19884.92
517.925	20482.93
518.127	20786.03
518.329	20902.76
518.531	21093.22
518.733	21334.89
518.935	21449.57
519.136	21482.34
519.338	21803.87
519.54	22106.97
519.742	22209.37
519.944	22539.09
520.146	23008.08
520.348	23071.56
520.55	22930.25
520.752	23432.01
520.954	23528.26
521.155	23569.22
521.357	23915.33
521.559	24132.41
521.761	24855.34
521.963	24490.8
522.164	24732.47
522.366	24720.18
522.568	25021.23
522.77	25332.52
522.971	25787.17
523.173	25633.57
523.375	25744.16
523.576	25635.62
523.778	25887.52
523.98	26374.94
524.181	26276.63
524.383	26487.57
524.584	27177.74
524.786	26782.48
524.988	26796.82
525.189	27446.02
525.391	27472.65
525.592	27603.72
525.794	27904.77
525.995	27792.13
526.197	27648.77
526.398	27857.67
526.6	28068.61
526.801	28363.51
527.003	28490.49
527.204	28578.55
527.406	28566.26
527.607	28670.71
527.808	29158.13
528.01	28738.29
528.211	28963.57
528.412	29530.86
528.614	29334.25
528.815	29537
529.016	29766.37
529.218	29459.18
529.419	29696.74
529.62	29575.91
529.822	29737.7
530.023	29954.79
530.224	30057.18
530.425	29967.07
530.626	29754.08
530.828	29663.97
531.029	30378.72
531.23	30005.98
531.431	30149.34
531.632	30763.73
531.833	30276.32
532.035	30313.18
532.236	30495.45
532.437	30718.68
532.638	30470.87
532.839	30685.91
533.04	30667.48
533.241	30577.37
533.442	30835.41
533.643	30759.64
533.844	30724.82
534.045	30843.6
534.246	30419.67
534.447	31097.55
534.648	31027.92
534.849	30745.3
535.05	30950.1
535.251	30913.23
535.451	30853.84
535.652	30989.01
535.853	30782.16
536.054	30999.25
536.255	30612.18
536.456	30759.64
536.657	31408.84
536.857	31199.95
537.058	30786.26
537.259	30966.48
537.46	31296.21
537.66	31179.47
537.861	31150.8
538.062	30702.29
538.263	31249.1
538.463	30796.5
538.664	30974.67
538.865	31177.42
539.065	31236.81
539.266	31210.19
539.466	30954.19
539.667	30722.77
539.868	31242.96
540.068	31283.92
540.269	31146.7
540.469	31470.28
540.67	31038.16
540.87	30589.66
541.071	30888.66
541.271	31427.28
541.472	31179.47
541.672	31185.61
541.873	30913.23
542.073	30550.74
542.274	31181.52
542.474	31085.26
542.675	31060.69
542.875	31138.51
543.075	31056.59
543.276	30933.71
543.476	30804.69
543.676	30694.1
543.877	31052.5
544.077	30849.75
544.277	30950.1
544.478	31156.94
544.678	31064.78
544.878	30788.31
545.078	31333.07
545.279	30839.51
545.479	31134.42
545.679	31169.23
545.879	31062.74
546.079	30892.76
546.28	31158.99
546.48	30677.72
546.68	30905.04
546.88	31310.54
547.08	30954.19
547.28	31011.54
547.48	30657.24
547.68	30986.96
547.88	31007.44
548.081	31103.7
548.281	30968.53
548.481	30806.74
548.681	31253.2
548.881	31083.22
549.081	30819.03
549.28	30704.34
549.48	31202
549.68	30864.08
549.88	31150.8
550.08	31083.22
550.28	31036.11
550.48	30784.21
550.68	31130.32
550.88	31429.32
551.08	31156.94
551.279	31003.35
551.479	30892.76
551.679	30909.14
551.879	30870.23
552.079	31029.97
552.278	30792.4
552.478	31206.09
552.678	30900.95
552.878	31038.16
553.077	30880.47
553.277	30507.74
553.477	31419.08
553.676	30636.76
553.876	30651.09
554.076	31085.26
554.275	30573.27
554.475	30253.79
554.674	30917.33
554.874	30702.29
555.074	30696.15
555.273	30661.33
555.473	31095.5
555.672	30741.21
555.872	30323.42
556.071	30454.49
556.271	30458.59
556.47	30427.87
556.67	30268.12
556.869	30153.44
557.068	30257.88
557.268	30380.76
557.467	30458.59
557.667	30497.5
557.866	30366.43
558.065	30261.98
558.265	29997.79
558.464	30010.08
558.663	30401.24
558.863	29801.19
559.062	30341.85
559.261	29438.7
559.461	29997.79
559.66	29741.8
559.859	29770.47
560.058	29756.13
560.258	29922.02
560.457	29297.39
560.656	29870.82
560.855	29668.07
561.054	29905.63
561.253	29590.25
561.453	29573.86
561.652	29678.31
561.851	29727.46
562.05	29782.76
562.249	29047.54
562.448	29952.74
562.647	29270.76
562.846	29457.13
563.045	29356.78
563.244	29006.58
563.443	29410.03
563.642	28713.72
563.841	29035.25
564.04	29043.44
564.239	29172.46
564.438	28998.38
564.637	28996.34
564.836	29143.79
565.035	28918.51
565.234	28840.69
565.432	28994.29
565.631	28740.34
565.83	28889.84
566.029	28740.34
566.228	28414.71
566.427	28642.04
566.625	28875.51
566.824	27849.47
567.023	28582.65
567.222	28068.61
567.42	28470.01
567.619	28080.89
567.818	28013.31
568.016	28013.31
568.215	28072.7
568.414	27884.29
568.612	28044.03
568.811	27953.92
569.01	27796.23
569.208	27628.29
569.407	27874.05
569.605	27460.36
569.804	27953.92
570.002	27214.6
570.201	27347.72
570.4	27198.22
570.598	27306.76
570.797	27349.77
570.995	27212.56
571.193	26751.76
571.392	27314.95
571.59	26884.88
571.789	26807.06
571.987	26848.02
572.186	26891.02
572.384	26680.08
572.582	26909.46
572.781	26839.83
572.979	26245.91
573.177	26688.28
573.376	26491.67
573.574	26045.21
573.772	26522.39
573.971	26014.49
574.169	26030.88
574.367	25871.14
574.565	26120.99
574.763	25817.89
574.962	25699.11
575.16	25664.29
575.358	25639.72
575.556	25619.24
575.754	25649.96
575.952	25140.01
576.151	25615.14
576.349	25043.76
576.547	25107.24
576.745	25221.93
576.943	25150.25
577.141	24908.59
577.339	24986.41
577.537	24804.14
577.735	24720.18
577.933	24736.56
578.131	24945.45
578.329	24415.03
578.527	24548.15
578.725	24470.33
578.923	24539.96
579.121	24429.37
579.319	24220.47
579.516	24343.35
579.714	24288.06
579.912	24451.89
580.11	23708.48
580.308	23890.75
580.506	23804.74
580.704	23493.44
580.901	23853.89
581.099	23919.42
581.297	23722.82
581.495	23290.7
581.692	23350.09
581.89	23292.74
582.088	23536.45
582.285	23053.13
582.483	23497.54
582.681	23165.77
582.878	23092.04
583.076	22676.3
583.274	23358.28
583.471	22776.66
583.669	23028.56
583.866	22453.08
584.064	22582.1
584.262	22520.66
584.459	22647.63
584.657	22377.3
584.854	22915.92
585.052	21965.66
585.249	22094.68
585.447	22254.42
585.644	22139.74
585.841	22080.35
586.039	22016.86
586.236	21818.21
586.434	21914.46
586.631	21560.16
586.828	21926.75
587.026	21599.07
587.223	21588.83
587.42	21523.3
587.618	21449.57
587.815	21009.26
588.012	21269.35
588.21	21437.28
588.407	21154.66
588.604	21324.65
588.801	21117.8
588.999	21738.33
589.196	21283.69
589.393	21050.22
589.59	20833.13
589.787	20841.32
589.984	20749.17
590.182	20859.76
590.379	21162.86
590.576	20577.14
590.773	20652.91
590.97	20796.27
591.167	20544.37
591.364	20026.23
591.561	20335.48
591.758	20050.81
591.955	20061.05
592.152	20351.86
592.349	20005.75
592.546	20061.05
592.743	20059
592.94	19972.99
593.137	19854.2
593.334	19831.68
593.531	19465.09
593.727	19803
593.924	19590.02
594.121	19772.28
594.318	19594.11
594.515	19354.5
594.712	19315.59
594.908	19516.29
595.105	19477.38
595.302	19383.17
595.499	19237.77
595.696	19137.41
595.892	19006.34
596.089	19504
596.286	19213.19
596.482	18693.01
596.679	18910.09
596.876	18940.81
597.072	18768.78
597.269	18768.78
597.466	18606.99
597.662	18566.03
597.859	18910.09
598.055	18672.53
598.252	18666.38
598.448	18424.72
598.645	18318.23
598.841	18283.41
599.038	18217.88
599.234	18162.58
599.431	18078.61
599.627	18033.56
599.824	18215.83
600.02	18025.37
600.217	17867.67
600.413	17857.43
600.609	17828.76
600.806	17656.73
601.002	17806.23
601.198	17611.68
601.395	17238.95
601.591	17587.1
601.787	17261.48
601.984	17339.3
602.18	17585.05
602.376	17525.66
602.572	17267.62
602.769	17335.2
602.965	17034.15
603.161	17241
603.357	16935.85
603.553	17116.07
603.75	17093.54
603.946	16796.59
604.142	16966.57
604.338	16772.01
604.534	16757.67
604.73	16802.73
604.926	16419.76
605.122	16642.99
605.318	16473.01
605.514	16188.34
605.71	16020.41
605.906	16171.96
606.102	16135.09
606.298	16055.22
606.494	16036.79
606.69	16325.55
606.886	16319.41
607.082	15854.52
607.278	16083.89
607.474	15922.1
607.67	15889.34
607.866	15621.05
608.062	15958.97
608.257	15756.22
608.453	15516.61
608.649	15809.47
608.845	15465.41
609.041	15711.16
609.236	15567.81
609.432	15637.44
609.628	15649.72
609.824	15166.4
610.019	15334.34
610.215	15387.58
610.411	15125.44
610.606	15184.83
610.802	15119.3
610.998	15121.35
611.193	15279.04
611.389	14963.65
611.584	14951.37
611.78	14724.04
611.976	14877.64
612.171	14851.02
612.367	14631.88
612.562	14707.66
612.758	14511.05
612.953	14275.54
613.149	14517.2
613.344	14384.08
613.539	14787.53
613.735	14273.49
613.93	14422.99
614.126	14267.34
614.321	14298.06
614.517	14146.51
614.712	14445.52
614.907	14128.08
615.103	14197.71
615.298	14054.36
615.493	14216.15
615.688	13904.85
615.884	14248.91
616.079	13968.34
616.274	13923.29
616.47	13931.48
616.665	13786.07
616.86	13913.05
617.055	13724.63
617.25	13788.12
617.445	13667.29
617.641	13675.48
617.836	13833.18
618.031	13452.25
618.226	13616.09
618.421	13366.24
618.616	13663.19
618.811	13274.08
619.006	13286.37
619.201	13292.51
619.396	13310.94
619.591	13085.67
619.786	13284.32
619.981	13011.94
620.176	13143.01
620.371	12852.2
620.566	12923.88
620.761	12934.12
620.956	12977.12
621.151	12844.01
621.346	12874.73
621.541	12235.76
621.735	12651.5
621.93	12413.93
622.125	12299.25
622.32	12338.16
622.515	12170.22
622.709	11963.38
622.904	12186.61
623.099	12114.93
623.294	12088.31
623.488	11828.21
623.683	11846.65
623.878	11727.86
624.072	11637.75
624.267	11774.97
624.462	11516.92
624.656	11402.24
624.851	11568.12
625.046	11467.77
625.24	11185.15
625.435	11129.86
625.629	11246.59
625.824	10916.87
626.018	11150.34
626.213	10910.72
626.407	10982.4
626.602	10877.96
626.796	10949.64
626.991	11056.13
627.185	10767.37
627.38	10611.72
627.574	10435.6
627.768	10599.43
627.963	10537.99
628.157	10384.4
628.352	10654.73
628.546	10415.12
628.74	10517.51
628.935	10085.39
629.129	10458.12
629.323	10009.62
629.517	9954.32
629.712	10105.87
629.906	10003.47
630.1	9968.66
630.294	9839.64
630.489	9899.03
630.683	9899.03
630.877	9591.83
631.071	9540.63
631.265	9765.91
631.459	9567.26
631.653	9554.97
631.848	9694.23
632.042	9526.3
632.236	9497.63
632.43	9307.16
632.624	9475.1
632.818	9229.34
633.012	9198.62
633.206	9452.57
633.4	9307.16
633.594	8950.82
633.788	8946.72
633.982	9200.67
634.176	9055.26
634.369	8946.72
634.563	8913.95
634.757	8764.45
634.951	8889.38
635.145	8696.87
635.339	8688.68
635.533	8649.77
635.726	8596.52
635.92	8330.28
636.114	8494.12
636.308	8553.51
636.501	8662.05
636.695	8449.07
636.889	8383.53
637.083	8279.08
637.276	8328.24
637.47	8209.45
637.664	8074.29
637.857	8113.2
638.051	8191.02
638.244	8018.99
638.438	8105.01
638.632	7937.07
638.825	7877.68
639.019	7959.6
639.212	7875.63
639.406	7959.6
639.599	7699.51
639.793	7861.3
639.986	7760.95
640.18	7601.21
640.373	7740.47
640.567	7224.38
640.76	7656.5
640.954	7359.55
641.147	7289.92
641.34	7404.6
641.534	7408.7
641.727	7140.41
641.92	7156.8
642.114	7189.56
642.307	7279.68
642.5	7115.84
642.694	7164.99
642.887	6880.32
643.08	7093.31
643.273	6818.88
643.467	6980.67
643.66	6865.99
643.853	6833.22
644.046	6747.2
644.239	6839.36
644.432	6728.77
644.626	6775.88
644.819	6696
645.012	6605.89
645.205	6671.43
645.398	6497.35
645.591	6425.67
645.784	6399.05
645.977	6349.9
646.17	6325.32
646.363	6323.27
646.556	6212.68
646.749	6257.74
646.942	6337.61
647.135	6202.44
647.328	6198.35
647.521	6165.58
647.714	5999.7
647.907	6046.8
648.099	5798.99
648.292	5882.96
648.485	5786.71
648.678	5792.85
648.871	5706.84
649.064	5737.56
649.256	5870.67
649.449	5704.79
649.642	5803.09
649.835	5618.77
650.027	5655.64
650.22	5532.76
650.413	5569.62
650.605	5557.33
650.798	5442.65
650.991	5397.59
651.183	5590.1
651.376	5420.12
651.568	5237.85
651.761	5307.48
651.954	5362.78
652.146	5215.32
652.339	5147.74
652.531	5291.1
652.724	5170.27
652.916	5061.73
653.109	4916.32
653.301	5076.06
653.494	5051.49
653.686	5000.29
653.879	5031.01
654.071	4813.92
654.263	4803.68
654.456	4963.42
654.648	4850.78
654.84	4746.34
655.033	4572.26
655.225	4764.77
655.417	4729.95
655.61	4639.84
655.802	4785.25
655.994	4613.22
656.186	4551.78
656.379	4570.21
656.571	4535.4
656.763	4508.77
656.955	4482.15
657.148	4623.46
657.34	4381.8
657.532	4394.09
657.724	4359.27
657.916	4293.74
658.108	4240.49
658.3	4185.19
658.492	4250.73
658.684	4189.29
658.876	4060.27
659.068	4043.88
659.26	4256.87
659.452	4172.91
659.644	4121.71
659.836	4027.5
660.028	4101.23
660.22	3945.58
660.412	3918.96
660.604	3759.22
660.796	3978.35
660.988	3841.14
661.18	3787.89
661.372	3609.72
661.563	3751.03
661.755	3605.62
661.947	3867.76
662.139	3789.94
662.331	3566.71
662.522	3632.24
662.714	3607.67
662.906	3468.41
663.097	3626.1
663.289	3427.45
663.481	3458.17
663.673	3359.86
663.864	3439.73
664.056	3454.07
664.247	3390.58
664.439	3204.22
664.631	3376.25
664.822	3366.01
665.014	3230.84
665.205	3341.43
665.397	3218.55
665.588	3212.41
665.78	3282.04
665.971	3320.95
666.163	3153.02
666.354	3204.22
666.546	3171.45
666.737	3075.2
666.929	3105.92
667.12	2946.17
667.311	3044.48
667.503	3019.9
667.694	2999.42
667.885	2974.85
668.077	3052.67
668.268	3048.57
668.459	2851.97
668.651	2804.86
668.842	2749.57
669.033	2903.17
669.224	2745.47
669.416	2763.9
669.607	2884.73
669.798	2796.67
669.989	2919.55
670.18	2815.1
670.371	2808.96
670.563	2802.82
670.754	2780.29
670.945	2690.18
671.136	2667.65
671.327	2796.67
671.518	2673.79
671.709	2710.66
671.9	2825.34
672.091	2784.38
672.282	2733.18
672.473	2602.11
672.664	2493.57
672.855	2675.84
673.046	2632.83
673.237	2610.31
673.428	2700.42
673.619	2514.05
673.809	2788.48
674	2659.46
674.191	2507.91
674.382	2503.81
674.573	2485.38
674.764	2559.11
674.954	2526.34
675.145	2399.37
675.336	2491.52
675.527	2514.05
675.717	2423.94
675.908	2415.75
676.099	2487.43
676.289	2411.65
676.48	2458.76
676.671	2493.57
676.861	2460.81
677.052	2460.81
677.243	2346.12
677.433	2409.61
677.624	2442.37
677.814	2321.54
678.005	2428.04
678.195	2329.74
678.386	2296.97
678.576	2352.26
678.767	2299.02
678.957	2225.29
679.148	2296.97
679.338	2356.36
679.529	2331.78
679.719	2292.87
679.909	2354.31
680.1	2262.15
680.29	2206.86
680.481	2182.28
680.671	2356.36
680.861	2206.86
681.052	2399.37
681.242	2276.49
681.432	2299.02
681.622	2120.84
681.813	2200.71
682.003	2208.9
682.193	2198.67
682.383	2235.53
682.573	2268.3
682.764	2286.73
682.954	2186.38
683.144	2217.1
683.334	2083.98
683.524	2219.14
683.714	2129.03
683.904	2182.28
684.094	2204.81
684.284	2192.52
684.474	2143.37
684.664	2192.52
684.854	2088.07
685.044	2098.31
685.234	2194.57
685.424	2206.86
685.614	2100.36
685.804	2159.75
685.994	2020.49
686.184	2116.75
686.374	2126.99
686.564	2118.79
686.753	2180.23
686.943	2096.27
687.133	2010.25
687.323	2016.4
687.513	2122.89
687.702	2086.03
687.892	2067.6
688.082	2055.31
688.272	2178.19
688.461	2081.93
688.651	2069.64
688.841	2026.64
689.03	2059.4
689.22	2075.79
689.41	2069.64
689.599	2208.9
689.789	2079.88
689.979	2061.45
690.168	2165.9
690.358	2069.64
690.547	2090.12
690.737	2157.71
690.926	2157.71
691.116	1897.61
691.305	2010.25
691.495	2069.64
691.684	2161.8
691.874	2102.41
692.063	2096.27
692.252	2096.27
692.442	2249.86
692.631	1975.44
692.82	2143.37
693.01	2110.6
693.199	2083.98
693.388	2002.06
693.578	2073.74
693.767	1969.29
693.956	2004.11
694.146	2059.4
694.335	1946.76
694.524	1979.53
694.713	2047.12
694.902	2184.33
695.092	2055.31
695.281	2147.47
695.47	2040.97
695.659	2012.3
695.848	2069.64
696.037	1991.82
696.226	2122.89
696.415	1989.77
696.604	1932.43
696.793	2071.69
696.982	2094.22
697.171	1985.68
697.36	1868.94
697.549	2108.55
697.738	1965.2
697.927	1989.77
698.116	2083.98
698.305	2098.31
698.494	1985.68
698.683	2067.6
698.872	2182.28
699.061	2120.84
699.25	2055.31
699.438	2104.46
699.627	2059.4
699.816	2118.79
700.005	1928.33
700.193	2104.46
700.382	2004.11
700.571	2034.83
700.76	2006.16
700.948	2071.69
701.137	1981.58
701.326	1975.44
701.514	2040.97
701.703	2028.68
701.892	2008.2
702.08	1965.2
702.269	2043.02
702.457	1946.76
702.646	2051.21
702.834	2028.68
703.023	1950.86
703.212	2006.16
703.4	1938.57
703.589	1918.09
703.777	2010.25
703.965	1952.91
704.154	1997.96
704.342	1989.77
704.531	1924.24
704.719	1891.47
704.907	2036.88
705.096	1897.61
705.284	1862.8
705.472	1922.19
705.661	1741.97
705.849	1895.57
706.037	1959.05
706.226	1840.27
706.414	1821.84
706.602	1864.85
706.79	1756.3
706.979	1850.51
707.167	1938.57
707.355	1827.98
707.543	1848.46
707.731	1795.22
707.919	1789.07
708.107	1817.74
708.296	1756.3
708.484	1744.02
708.672	1731.73
708.86	1764.5
709.048	1768.59
709.236	1817.74
709.424	1741.97
709.612	1756.3
709.8	1709.2
709.988	1864.85
710.176	1811.6
710.364	1735.82
710.551	1705.1
710.739	1811.6
710.927	1709.2
711.115	1731.73
711.303	1694.86
711.491	1733.78
711.679	1571.99
711.866	1670.29
712.054	1610.9
712.242	1586.32
712.43	1606.8
712.617	1696.91
712.805	1629.33
712.993	1584.27
713.181	1658
713.368	1606.8
713.556	1594.51
713.744	1504.4
713.931	1625.23
714.119	1545.36
714.306	1555.6
714.494	1580.18
714.682	1631.38
714.869	1559.7
715.057	1588.37
715.244	1584.27
715.432	1512.6
715.619	1629.33
715.807	1533.08
715.994	1584.27
716.182	1481.88
716.369	1576.08
716.556	1514.64
716.744	1449.11
716.931	1504.4
717.119	1479.83
717.306	1477.78
717.493	1479.83
717.681	1440.92
717.868	1420.44
718.055	1481.88
718.242	1494.16
718.43	1453.2
718.617	1430.68
718.804	1365.14
718.991	1453.2
719.179	1447.06
719.366	1373.33
719.553	1395.86
719.74	1338.52
719.927	1422.48
720.114	1381.53
720.301	1328.28
720.488	1371.29
720.676	1262.74
720.863	1354.9
721.05	1379.48
721.237	1367.19
721.424	1307.8
721.611	1283.22
721.798	1207.45
721.985	1285.27
722.172	1299.61
722.358	1301.65
722.545	1268.89
722.732	1256.6
722.919	1268.89
723.106	1281.18
723.293	1258.65
723.48	1268.89
723.667	1150.11
723.853	1320.09
724.04	1363.09
724.227	1250.46
724.414	1168.54
724.6	1309.85
724.787	1246.36
724.974	1254.55
725.161	1137.82
725.347	1203.35
725.534	1315.99
725.72	1205.4
725.907	1193.11
726.094	1240.22
726.28	1141.91
726.467	1197.21
726.653	1178.78
726.84	1139.87
727.027	1176.73
727.213	1158.3
727.4	1219.74
727.586	1082.52
727.773	1133.72
727.959	1066.14
728.145	1078.43
728.332	1105.05
728.518	1117.34
728.705	1184.92
728.891	1074.33
729.077	1166.49
729.264	1092.76
729.45	1156.25
729.636	1125.53
729.823	1119.39
730.009	992.41
730.195	1041.56
730.382	1086.62
730.568	1051.8
730.754	1055.9
730.94	1080.47
731.126	1023.13
731.313	1064.09
731.499	980.12
731.685	973.98
731.871	1111.19
732.057	1047.71
732.243	1004.7
732.429	1027.23
732.615	1086.62
732.801	1059.99
732.987	1031.32
733.173	1059.99
733.359	1006.75
733.545	1012.89
733.731	1016.99
733.917	1078.43
734.103	1002.65
734.289	955.55
734.475	982.17
734.661	961.69
734.847	973.98
735.033	955.55
735.219	877.73
735.404	898.2
735.59	982.17
735.776	924.83
735.962	1014.94
736.148	879.77
736.333	887.97
736.519	928.92
736.705	935.07
736.89	912.54
737.076	847.01
737.262	812.19
737.447	877.73
737.633	887.97
737.819	867.49
738.004	904.35
738.19	877.73
738.375	859.29
738.561	871.58
738.747	844.96
738.932	930.97
739.118	859.29
739.303	930.97
739.489	914.59
739.674	853.15
739.859	828.57
740.045	892.06
740.23	859.29
740.416	838.81
740.601	853.15
740.786	806.05
740.972	832.67
741.157	881.82
741.342	775.33
741.528	867.49
741.713	834.72
741.898	896.16
742.084	830.62
742.269	791.71
742.454	717.98
742.639	883.87
742.824	847.01
743.01	814.24
743.195	836.77
743.38	689.31
743.565	783.52
743.75	779.42
743.935	715.94
744.12	859.29
744.305	695.46
744.49	664.74
744.675	693.41
744.86	771.23
745.045	664.74
745.23	746.66
745.415	763.04
745.6	730.27
745.785	666.78
745.97	756.9
746.155	730.27
746.34	629.92
746.525	742.56
746.71	720.03
746.895	726.18
747.079	640.16
747.264	724.13
747.449	695.46
747.634	742.56
747.819	677.02
748.003	593.06
748.188	756.9
748.373	652.45
748.557	754.85
748.742	699.55
748.927	674.98
749.111	650.4
749.296	631.97
749.481	644.26
749.665	705.7
749.85	588.96
750.034	666.78
750.219	642.21
750.404	613.54
750.588	636.06
750.773	558.24
750.957	603.3
751.141	652.45
751.326	666.78
751.51	498.85
751.695	613.54
751.879	674.98
752.064	593.06
752.248	539.81
752.432	644.26
752.617	580.77
752.801	658.59
752.985	556.19
753.17	541.86
753.354	611.49
753.538	568.48
753.722	476.32
753.907	539.81
754.091	490.66
754.275	578.72
754.459	545.95
754.643	537.76
754.828	539.81
755.012	480.42
755.196	552.1
755.38	548
755.564	482.47
755.748	451.75
755.932	568.48
756.116	494.76
756.3	521.38
756.484	517.28
756.668	558.24
756.852	482.47
757.036	496.8
757.22	398.5
757.404	472.23
757.588	382.12
757.772	433.32
757.956	425.12
758.14	545.95
758.323	488.61
758.507	402.6
758.691	433.32
758.875	482.47
759.059	500.9
759.242	414.88
759.426	410.79
759.61	423.08
759.794	457.89
759.977	523.43
760.161	461.99
760.345	435.36
760.528	445.6
760.712	447.65
760.895	404.64
761.079	371.88
761.263	476.32
761.446	408.74
761.63	464.04
761.813	371.88
761.997	429.22
762.18	410.79
762.364	486.56
762.547	433.32
762.731	461.99
762.914	416.93
763.098	423.08
763.281	355.49
763.464	406.69
763.648	461.99
763.831	437.41
764.015	433.32
764.198	486.56
764.381	427.17
764.564	441.51
764.748	351.4
764.931	470.18
765.114	396.45
765.297	484.52
765.481	410.79
765.664	478.37
765.847	386.21
766.03	437.41
766.213	453.8
766.397	414.88
766.58	449.7
766.763	380.07
766.946	380.07
767.129	433.32
767.312	322.73
767.495	339.11
767.678	371.88
767.861	382.12
768.044	392.36
768.227	359.59
768.41	392.36
768.593	373.92
768.776	437.41
768.959	347.3
769.142	394.4
769.324	326.82
769.507	363.69
769.69	341.16
769.873	406.69
770.056	382.12
770.239	367.78
770.421	392.36
770.604	339.11
770.787	359.59
770.97	343.21
771.152	298.15
771.335	298.15
771.518	351.4
771.7	418.98
771.883	406.69
772.066	398.5
772.248	314.53
772.431	298.15
772.613	429.22
772.796	363.69
772.978	375.97
773.161	353.45
773.343	375.97
773.526	285.86
773.708	332.97
773.891	269.48
774.073	316.58
774.256	226.47
774.438	371.88
774.621	269.48
774.803	388.26
774.985	236.71
775.168	277.67
775.35	371.88
775.532	339.11
775.715	330.92
775.897	279.72
776.079	296.1
776.261	320.68
776.444	396.45
776.626	363.69
776.808	310.44
776.99	234.66
777.173	271.53
777.355	261.29
777.537	292.01
777.719	261.29
777.901	267.43
778.083	265.38
778.265	294.05
778.447	357.54
778.629	216.23
778.811	269.48
778.993	277.67
779.175	330.92
779.357	246.95
779.539	279.72
779.721	265.38
779.903	298.15
780.085	265.38
780.267	277.67
780.449	257.19
780.631	249
780.812	273.57
780.994	287.91
781.176	191.66
781.358	169.13
781.54	306.34
781.721	267.43
781.903	175.27
782.085	203.94
782.267	255.14
782.448	277.67
782.63	210.09
782.812	300.2
782.993	269.48
783.175	249
783.357	236.71
783.538	224.42
783.72	249
783.901	255.14
784.083	199.85
784.264	183.46
784.446	189.61
784.627	208.04
784.809	230.57
784.99	308.39
785.172	232.62
785.353	242.85
785.535	205.99
785.716	267.43
785.897	201.9
786.079	185.51
786.26	169.13
786.441	212.14
786.623	177.32
786.804	169.13
786.985	292.01
787.167	187.56
787.348	210.09
787.529	171.18
787.71	191.66
787.891	240.81
788.073	181.42
788.254	208.04
788.435	199.85
788.616	162.98
788.797	136.36
788.978	232.62
789.159	179.37
789.34	261.29
789.522	222.38
789.703	236.71
789.884	152.74
790.065	220.33
790.246	122.02
790.427	150.7
790.607	167.08
790.788	150.7
790.969	144.55
791.15	162.98
791.331	95.4
791.512	208.04
791.693	134.31
791.874	136.36
792.054	228.52
792.235	201.9
792.416	177.32
792.597	201.9
792.778	150.7
792.958	117.93
793.139	177.32
793.32	138.41
793.5	128.17
793.681	220.33
793.862	136.36
794.042	169.13
794.223	122.02
794.404	212.14
794.584	156.84
794.765	162.98
794.945	183.46
795.126	201.9
795.306	193.7
795.487	156.84
795.667	142.5
795.848	136.36
796.028	103.59
796.209	134.31
796.389	144.55
796.57	183.46
796.75	189.61
796.93	117.93
797.111	87.21
797.291	208.04
797.471	187.56
797.652	175.27
797.832	136.36
798.012	134.31
798.192	119.98
798.373	74.92
798.553	103.59
798.733	171.18
798.913	115.88
799.093	167.08
799.274	111.78
799.454	103.59
799.634	107.69
799.814	150.7
799.994	46.25
800.174	158.89
800.354	126.12
800.534	68.78
800.714	228.52
800.894	113.83
801.074	113.83
801.254	124.07
801.434	70.83
801.614	126.12
801.794	72.87
801.974	341.16
802.154	93.35
802.334	130.22
802.514	107.69
802.693	138.41
802.873	91.31
803.053	158.89
803.233	81.07
803.413	152.74
803.592	203.94
803.772	109.74
803.952	162.98
804.131	124.07
804.311	132.26
804.491	81.07
804.67	89.26
804.85	111.78
805.03	48.3
805.209	70.83
805.389	101.55
805.568	103.59
805.748	40.11
805.928	119.98
806.107	124.07
806.287	134.31
806.466	136.36
806.646	122.02
806.825	158.89
807.004	72.87
807.184	144.55
807.363	107.69
807.543	124.07
807.722	83.11
807.901	95.4
808.081	162.98
808.26	111.78
808.439	66.73
808.619	140.46
808.798	124.07
808.977	89.26
809.156	146.6
809.336	74.92
809.515	144.55
809.694	91.31
809.873	27.82
810.052	132.26
810.231	79.02
810.411	3.24
810.59	146.6
810.769	72.87
810.948	74.92
811.127	107.69
811.306	113.83
811.485	117.93
811.664	87.21
811.843	93.35
812.022	40.11
812.201	117.93
812.38	105.64
812.559	62.63
812.737	62.63
812.916	70.83
813.095	54.44
813.274	83.11
813.453	89.26
813.632	101.55
813.811	99.5
813.989	103.59
814.168	117.93
814.347	79.02
814.526	173.22
814.704	97.45
814.883	52.39
815.062	134.31
815.24	142.5
815.419	19.63
815.598	144.55
815.776	44.2
815.955	115.88
816.133	23.72
816.312	79.02
816.49	89.26
816.669	3.24
816.847	101.55
817.026	134.31
817.204	134.31
817.383	111.78
817.561	81.07
817.74	72.87
817.918	83.11
818.097	66.73
818.275	27.82
818.453	48.3
818.632	40.11
818.81	105.64
818.988	3.24
819.167	70.83
819.345	48.3
819.523	128.17
819.701	27.82
819.879	74.92
820.058	62.63
820.236	124.07
820.414	44.2
820.592	101.55
820.77	66.73
820.948	99.5
821.127	122.02
821.305	52.39
821.483	95.4
821.661	74.92
821.839	85.16
822.017	101.55
822.195	68.78
822.373	56.49
822.551	89.26
822.729	-2.9
822.907	36.01
823.085	33.96
823.262	40.11
823.44	89.26
823.618	-39.76
823.796	81.07
823.974	9.39
824.152	46.25
824.329	7.34
824.507	109.74
824.685	76.97
824.863	19.63
825.04	27.82
825.218	85.16
825.396	11.43
825.574	91.31
825.751	31.91
825.929	99.5
826.107	23.72
826.284	122.02
826.462	101.55
826.639	72.87
826.817	31.91
826.994	21.67
827.172	66.73
827.349	70.83
827.527	105.64
827.704	42.15
827.882	13.48
828.059	126.12
828.237	-11.09
828.414	27.82
828.591	60.59
828.769	54.44
828.946	148.65
829.124	93.35
829.301	23.72
829.478	62.63
829.655	36.01
829.833	38.06
830.01	72.87
830.187	25.77
830.364	58.54
830.542	-17.24
830.719	31.91
830.896	54.44
831.073	72.87
831.25	87.21
831.427	36.01
831.604	85.16
831.782	31.91
831.959	74.92
832.136	54.44
832.313	111.78
832.49	7.34
832.667	89.26
832.844	44.2
833.021	58.54
833.198	-0.85
833.374	93.35
833.551	44.2
833.728	44.2
833.905	62.63
834.082	23.72
834.259	29.87
834.436	38.06
834.612	3.24
834.789	56.49
834.966	5.29
835.143	64.68
835.319	31.91
835.496	38.06
835.673	46.25
835.85	79.02
836.026	-35.67
836.203	74.92
836.38	36.01
836.556	54.44
836.733	74.92
836.909	148.65
837.086	42.15
837.262	25.77
837.439	40.11
837.616	13.48
837.792	38.06
837.968	44.2
838.145	17.58
838.321	-56.15
838.498	79.02
838.674	126.12
838.851	25.77
839.027	33.96
839.203	62.63
839.38	23.72
839.556	85.16
839.732	68.78
839.909	3.24
840.085	-0.85
840.261	101.55
840.437	54.44
840.614	19.63
840.79	-35.67
840.966	-39.76
841.142	70.83
841.318	17.58
841.494	46.25
841.671	76.97
841.847	-2.9
842.023	-19.29
842.199	62.63
842.375	5.29
842.551	60.59
842.727	42.15
842.903	33.96
843.079	-11.09
843.255	-2.9
843.431	-2.9
843.607	3.24
843.783	1.19
843.959	50.35
844.134	-0.85
844.31	107.69
844.486	-9.05
844.662	40.11
844.838	-2.9
845.013	70.83
845.189	-13.14
845.365	64.68
845.541	76.97
845.716	56.49
845.892	-21.33
846.068	36.01
846.244	15.53
846.419	64.68
846.595	-17.24
846.77	40.11
846.946	17.58
847.122	21.67
847.297	79.02
847.473	17.58
847.648	74.92
847.824	42.15
847.999	-21.33
848.175	38.06
848.35	7.34
848.526	70.83
848.701	111.78
848.876	76.97
849.052	83.11
849.227	-31.57
849.403	124.07
849.578	27.82
849.753	-35.67
849.929	81.07
850.104	40.11
850.279	97.45
850.454	15.53
850.63	23.72
850.805	87.21
850.98	58.54
851.155	48.3
851.33	21.67
851.505	-21.33
851.681	52.39
851.856	-52.05
852.031	36.01
852.206	72.87
852.381	60.59
852.556	15.53
852.731	11.43
852.906	-21.33
853.081	-19.29
853.256	68.78
853.431	33.96
853.606	27.82
853.781	-4.95
853.956	68.78
854.131	60.59
854.305	21.67
854.48	7.34
854.655	46.25
854.83	52.39
855.005	-23.38
855.18	50.35
855.354	-21.33
855.529	91.31
855.704	1.19
855.879	68.78
856.053	-9.05
856.228	36.01
856.403	38.06
856.577	7.34
856.752	17.58
856.926	68.78
857.101	44.2
857.276	56.49
857.45	33.96
857.625	13.48
857.799	52.39
857.974	5.29
858.148	19.63
858.323	79.02
858.497	-21.33
858.672	54.44
858.846	3.24
859.02	58.54
859.195	27.82
859.369	46.25
859.543	46.25
859.718	-0.85
859.892	15.53
860.066	19.63
860.241	36.01
860.415	74.92
860.589	-11.09
860.763	68.78
860.938	21.67
861.112	-41.81
861.286	5.29
861.46	9.39
861.634	66.73
861.808	38.06
861.982	33.96
862.157	33.96
862.331	72.87
862.505	-7
862.679	-4.95
862.853	50.35
863.027	-33.62
863.201	62.63
863.375	25.77
863.549	29.87
863.722	70.83
863.896	52.39
864.07	-9.05
864.244	17.58
864.418	31.91
864.592	3.24
864.766	5.29
864.939	66.73
865.113	-2.9
865.287	87.21
865.461	-2.9
865.634	21.67
865.808	-9.05
865.982	27.82
866.156	68.78
866.329	101.55
866.503	122.02
866.676	50.35
866.85	48.3
867.024	21.67
867.197	48.3
867.371	21.67
867.544	25.77
867.718	-25.43
867.891	1.19
868.065	60.59
868.238	54.44
868.412	62.63
868.585	7.34
868.759	54.44
868.932	-4.95
869.105	-25.43
869.279	54.44
869.452	-17.24
869.625	42.15
869.799	52.39
869.972	-7
870.145	62.63
870.319	62.63
870.492	21.67
870.665	13.48
870.838	13.48
871.011	23.72
871.185	-9.05
871.358	48.3
871.531	-21.33
871.704	-29.52
871.877	5.29
872.05	-29.52
872.223	-56.15
872.396	11.43
872.569	44.2
872.742	38.06
872.915	42.15
873.088	19.63
873.261	54.44
873.434	46.25
873.607	17.58
873.78	11.43
873.953	23.72
874.126	-11.09
874.299	95.4
874.471	-15.19
874.644	11.43
874.817	31.91
874.99	93.35
875.163	58.54
875.335	40.11
875.508	40.11
875.681	15.53
875.853	42.15
876.026	44.2
876.199	-11.09
876.371	70.83
876.544	44.2
876.717	36.01
876.889	38.06
877.062	25.77
877.234	40.11
877.407	21.67
877.579	33.96
877.752	5.29
877.924	76.97
878.097	31.91
878.269	-17.24
878.442	60.59
878.614	50.35
878.786	87.21
878.959	33.96
879.131	-35.67
879.303	11.43
879.476	56.49
879.648	-43.86
879.82	1.19
879.993	7.34
880.165	56.49
880.337	-0.85
880.509	11.43
880.681	-27.48
880.854	1.19
881.026	-21.33
881.198	15.53
881.37	46.25
881.542	13.48
881.714	-19.29
881.886	-29.52
882.058	-35.67
882.23	5.29
882.402	89.26
882.574	-25.43
882.746	-2.9
882.918	1.19
883.09	-29.52
883.262	36.01
883.434	-7
883.606	52.39
883.778	27.82
883.95	13.48
884.122	-31.57
884.293	60.59
884.465	36.01
884.637	31.91
884.809	27.82
884.98	-0.85
885.152	42.15
885.324	42.15
885.496	-17.24
885.667	44.2
885.839	17.58
886.011	29.87
886.182	44.2
886.354	83.11
886.525	-0.85
886.697	38.06
886.869	52.39
887.04	27.82
887.212	31.91
887.383	29.87
887.555	11.43
887.726	33.96
887.897	9.39
888.069	44.2
888.24	3.24
888.412	9.39
888.583	3.24
888.754	27.82
888.926	31.91
889.097	-11.09
889.268	50.35
889.44	7.34
889.611	-95.06
889.782	-17.24
889.953	29.87
890.125	44.2
890.296	27.82
890.467	15.53
890.638	105.64
890.809	13.48
890.98	-21.33
891.151	46.25
891.323	5.29
891.494	60.59
891.665	-25.43
891.836	-50
892.007	40.11
892.178	36.01
892.349	-15.19
892.52	-7
892.691	27.82
892.862	13.48
893.032	25.77
893.203	-37.72
893.374	-29.52
893.545	-9.05
893.716	-21.33
893.887	-9.05
894.057	-23.38
894.228	60.59
894.399	19.63
894.57	81.07
894.74	70.83
894.911	15.53
895.082	54.44
895.253	-2.9
895.423	31.91
895.594	-25.43
895.764	70.83
895.935	-37.72
896.106	25.77
896.276	-33.62
896.447	50.35
896.617	31.91
896.788	-4.95
896.958	-11.09
897.129	42.15
897.299	48.3
897.47	60.59
897.64	62.63
897.81	-4.95
897.981	-21.33
898.151	19.63
898.322	50.35
898.492	3.24
898.662	3.24
898.832	101.55
899.003	38.06
899.173	-4.95
899.343	19.63
899.513	-13.14
