Data from USB4F104151__97__13-54-37-449.txt Node

Date: Thu Mar 13 13:54:37 EDT 2025
User: louis
Spectrometer: USB4F10415
Trigger mode: 4
Integration Time (sec): 1.000000E-2
Scans to average: 1
Electric dark correction enabled: true
Nonlinearity correction enabled: false
Boxcar width: 0
XAxis mode: Wavelengths
Number of Pixels in Spectrum: 3648
>>>>>Begin Spectral Data<<<<<
178.204	-83.11
178.424	-83.11
178.644	-83.11
178.864	-76.97
179.084	-25.77
179.304	13.14
179.524	-9.39
179.744	-19.63
179.964	21.33
180.184	-15.53
180.404	-33.96
180.624	66.39
180.844	-1.19
181.064	-33.96
181.283	-17.58
181.503	84.82
181.723	-54.44
181.943	-38.06
182.163	21.33
182.383	-60.59
182.602	19.29
182.822	39.76
183.042	23.38
183.262	29.52
183.482	-3.24
183.701	23.38
183.921	17.24
184.141	2.9
184.361	37.72
184.58	4.95
184.8	-81.07
185.02	0.85
185.239	15.19
185.459	-11.43
185.679	19.29
185.898	-23.72
186.118	-23.72
186.338	25.43
186.557	37.72
186.777	13.14
186.997	-33.96
187.216	72.53
187.436	15.19
187.655	60.24
187.875	4.95
188.095	37.72
188.314	56.15
188.534	90.96
188.753	13.14
188.973	13.14
189.192	-1.19
189.412	25.43
189.631	13.14
189.851	11.09
190.07	-33.96
190.29	-31.91
190.509	93.01
190.729	-42.15
190.948	64.34
191.168	29.52
191.387	-19.63
191.607	45.91
191.826	35.67
192.045	-38.06
192.265	27.48
192.484	31.57
192.704	19.29
192.923	-56.49
193.142	15.19
193.362	7
193.581	-46.25
193.8	47.96
194.02	72.53
194.239	-38.06
194.458	-3.24
194.678	7
194.897	25.43
195.116	45.91
195.335	9.05
195.555	50
195.774	-9.39
195.993	13.14
196.212	0.85
196.432	13.14
196.651	-23.72
196.87	-9.39
197.089	-1.19
197.308	41.81
197.528	7
197.747	56.15
197.966	4.95
198.185	9.05
198.404	-11.43
198.623	56.15
198.842	-66.73
199.062	13.14
199.281	-23.72
199.5	39.76
199.719	39.76
199.938	72.53
200.157	33.62
200.376	7
200.595	7
200.814	41.81
201.033	-64.68
201.252	17.24
201.471	-36.01
201.69	-31.91
201.909	-3.24
202.128	47.96
202.347	37.72
202.566	25.43
202.785	2.9
203.004	2.9
203.223	31.57
203.442	-13.48
203.661	29.52
203.879	9.05
204.098	13.14
204.317	50
204.536	-9.39
204.755	52.05
204.974	74.58
205.193	17.24
205.411	19.29
205.63	54.1
205.849	-29.87
206.068	50
206.287	11.09
206.505	-3.24
206.724	-11.43
206.943	25.43
207.162	-68.78
207.381	0.85
207.599	74.58
207.818	-25.77
208.037	19.29
208.255	-3.24
208.474	74.58
208.693	11.09
208.911	-33.96
209.13	19.29
209.349	-7.34
209.567	35.67
209.786	23.38
210.005	39.76
210.223	2.9
210.442	-25.77
210.661	29.52
210.879	2.9
211.098	-21.67
211.316	72.53
211.535	50
211.753	-52.39
211.972	-23.72
212.191	-1.19
212.409	-25.77
212.628	21.33
212.846	23.38
213.065	-9.39
213.283	60.24
213.502	7
213.72	-40.11
213.938	-1.19
214.157	50
214.375	13.14
214.594	19.29
214.812	70.48
215.031	-60.59
215.249	-54.44
215.467	72.53
215.686	21.33
215.904	25.43
216.122	50
216.341	11.09
216.559	29.52
216.778	50
216.996	39.76
217.214	64.34
217.432	2.9
217.651	-29.87
217.869	-31.91
218.087	-5.29
218.306	74.58
218.524	17.24
218.742	19.29
218.96	-17.58
219.179	131.92
219.397	-31.91
219.615	17.24
219.833	62.29
220.051	-29.87
220.27	25.43
220.488	39.76
220.706	-25.77
220.924	4.95
221.142	-46.25
221.36	82.77
221.578	47.96
221.796	-31.91
222.015	-11.43
222.233	25.43
222.451	54.1
222.669	23.38
222.887	19.29
223.105	54.1
223.323	2.9
223.541	-1.19
223.759	23.38
223.977	37.72
224.195	60.24
224.413	45.91
224.631	0.85
224.849	45.91
225.067	11.09
225.285	39.76
225.503	119.64
225.721	-52.39
225.939	25.43
226.157	37.72
226.375	27.48
226.592	-40.11
226.81	58.2
227.028	-19.63
227.246	23.38
227.464	-3.24
227.682	7
227.9	50
228.117	-29.87
228.335	31.57
228.553	37.72
228.771	-13.48
228.989	-15.53
229.206	31.57
229.424	9.05
229.642	-9.39
229.86	-29.87
230.077	56.15
230.295	-7.34
230.513	78.68
230.731	52.05
230.948	0.85
231.166	-48.3
231.384	-56.49
231.601	27.48
231.819	11.09
232.037	-15.53
232.254	-44.2
232.472	-15.53
232.689	60.24
232.907	41.81
233.125	-13.48
233.342	27.48
233.56	-48.3
233.777	52.05
233.995	37.72
234.213	45.91
234.43	33.62
234.648	72.53
234.865	-17.58
235.083	-25.77
235.3	2.9
235.518	54.1
235.735	37.72
235.953	76.63
236.17	17.24
236.388	-9.39
236.605	33.62
236.822	0.85
237.04	-15.53
237.257	76.63
237.475	-23.72
237.692	15.19
237.909	52.05
238.127	-38.06
238.344	25.43
238.562	33.62
238.779	-5.29
238.996	29.52
239.214	50
239.431	-25.77
239.648	-15.53
239.865	13.14
240.083	78.68
240.3	60.24
240.517	-1.19
240.735	74.58
240.952	29.52
241.169	70.48
241.386	29.52
241.603	25.43
241.821	-11.43
242.038	76.63
242.255	11.09
242.472	9.05
242.689	47.96
242.907	19.29
243.124	0.85
243.341	2.9
243.558	52.05
243.775	62.29
243.992	-7.34
244.209	39.76
244.426	9.05
244.643	82.77
244.86	64.34
245.078	9.05
245.295	-3.24
245.512	-15.53
245.729	64.34
245.946	56.15
246.163	-3.24
246.38	50
246.597	2.9
246.814	72.53
247.031	27.48
247.248	23.38
247.464	13.14
247.681	11.09
247.898	47.96
248.115	21.33
248.332	31.57
248.549	15.19
248.766	56.15
248.983	33.62
249.2	11.09
249.417	33.62
249.633	23.38
249.85	27.48
250.067	-38.06
250.284	64.34
250.501	29.52
250.717	47.96
250.934	21.33
251.151	17.24
251.368	0.85
251.585	-31.91
251.801	60.24
252.018	19.29
252.235	56.15
252.451	113.49
252.668	2.9
252.885	25.43
253.102	84.82
253.318	9.05
253.535	7
253.752	21.33
253.968	31.57
254.185	58.2
254.401	-5.29
254.618	72.53
254.835	-5.29
255.051	21.33
255.268	29.52
255.484	50
255.701	11.09
255.917	-17.58
256.134	25.43
256.351	-33.96
256.567	35.67
256.784	31.57
257	4.95
257.217	23.38
257.433	95.06
257.65	50
257.866	82.77
258.082	2.9
258.299	39.76
258.515	-9.39
258.732	29.52
258.948	23.38
259.165	-1.19
259.381	23.38
259.597	15.19
259.814	19.29
260.03	-29.87
260.246	0.85
260.463	43.86
260.679	41.81
260.895	-27.82
261.112	47.96
261.328	7
261.544	-3.24
261.761	-40.11
261.977	-3.24
262.193	60.24
262.409	31.57
262.626	-11.43
262.842	0.85
263.058	-27.82
263.274	-29.87
263.49	0.85
263.707	33.62
263.923	-17.58
264.139	-19.63
264.355	60.24
264.571	70.48
264.787	29.52
265.004	33.62
265.22	29.52
265.436	15.19
265.652	76.63
265.868	19.29
266.084	39.76
266.3	-5.29
266.516	-58.54
266.732	58.2
266.948	0.85
267.164	-23.72
267.38	7
267.596	-25.77
267.812	82.77
268.028	9.05
268.244	-36.01
268.46	25.43
268.676	-66.73
268.892	19.29
269.108	47.96
269.324	-27.82
269.54	35.67
269.756	23.38
269.972	-11.43
270.188	2.9
270.403	-7.34
270.619	-5.29
270.835	-95.4
271.051	17.24
271.267	107.35
271.483	72.53
271.698	23.38
271.914	76.63
272.13	-9.39
272.346	54.1
272.562	50
272.777	4.95
272.993	-31.91
273.209	-9.39
273.425	-50.35
273.64	39.76
273.856	60.24
274.072	64.34
274.287	7
274.503	17.24
274.719	37.72
274.934	50
275.15	13.14
275.366	80.72
275.581	0.85
275.797	105.3
276.012	58.2
276.228	-62.63
276.444	13.14
276.659	-7.34
276.875	105.3
277.09	52.05
277.306	-13.48
277.521	62.29
277.737	-40.11
277.952	39.76
278.168	-31.91
278.383	31.57
278.599	13.14
278.814	-7.34
279.03	-15.53
279.245	17.24
279.461	17.24
279.676	31.57
279.892	60.24
280.107	0.85
280.322	-19.63
280.538	45.91
280.753	31.57
280.969	99.16
281.184	-5.29
281.399	-99.5
281.615	17.24
281.83	39.76
282.045	52.05
282.26	33.62
282.476	-25.77
282.691	78.68
282.906	23.38
283.122	-42.15
283.337	-3.24
283.552	33.62
283.767	-25.77
283.983	58.2
284.198	-52.39
284.413	13.14
284.628	-29.87
284.843	-21.67
285.058	68.44
285.274	35.67
285.489	-7.34
285.704	-19.63
285.919	-11.43
286.134	43.86
286.349	41.81
286.564	45.91
286.779	15.19
286.995	62.29
287.21	7
287.425	13.14
287.64	31.57
287.855	86.87
288.07	27.48
288.285	23.38
288.5	-70.83
288.715	15.19
288.93	68.44
289.145	45.91
289.36	-19.63
289.575	-19.63
289.79	17.24
290.004	25.43
290.219	13.14
290.434	72.53
290.649	45.91
290.864	76.63
291.079	-17.58
291.294	101.2
291.509	-17.58
291.724	25.43
291.938	35.67
292.153	76.63
292.368	-76.97
292.583	23.38
292.798	70.48
293.012	31.57
293.227	37.72
293.442	-3.24
293.657	17.24
293.871	-1.19
294.086	47.96
294.301	62.29
294.516	54.1
294.73	29.52
294.945	78.68
295.16	72.53
295.374	0.85
295.589	11.09
295.804	17.24
296.018	-91.31
296.233	82.77
296.447	-44.2
296.662	72.53
296.877	-19.63
297.091	-27.82
297.306	15.19
297.52	-3.24
297.735	21.33
297.949	39.76
298.164	64.34
298.378	68.44
298.593	-7.34
298.807	-33.96
299.022	50
299.236	39.76
299.451	13.14
299.665	37.72
299.88	50
300.094	56.15
300.309	29.52
300.523	45.91
300.737	82.77
300.952	11.09
301.166	35.67
301.381	-7.34
301.595	-85.16
301.809	68.44
302.024	-9.39
302.238	-3.24
302.452	31.57
302.667	-9.39
302.881	97.11
303.095	86.87
303.309	72.53
303.524	-3.24
303.738	56.15
303.952	-3.24
304.166	66.39
304.381	17.24
304.595	11.09
304.809	19.29
305.023	66.39
305.237	41.81
305.452	19.29
305.666	33.62
305.88	41.81
306.094	17.24
306.308	39.76
306.522	47.96
306.736	60.24
306.95	60.24
307.164	-5.29
307.379	-7.34
307.593	-25.77
307.807	0.85
308.021	103.25
308.235	31.57
308.449	35.67
308.663	74.58
308.877	9.05
309.091	88.92
309.305	64.34
309.519	35.67
309.733	105.3
309.947	-62.63
310.161	-38.06
310.374	35.67
310.588	35.67
310.802	25.43
311.016	72.53
311.23	62.29
311.444	13.14
311.658	17.24
311.872	11.09
312.085	9.05
312.299	0.85
312.513	-56.49
312.727	-5.29
312.941	-17.58
313.154	-9.39
313.368	31.57
313.582	80.72
313.796	31.57
314.009	-52.39
314.223	70.48
314.437	17.24
314.651	25.43
314.864	43.86
315.078	15.19
315.292	54.1
315.505	39.76
315.719	54.1
315.933	58.2
316.146	11.09
316.36	7
316.573	-1.19
316.787	27.48
317.001	-19.63
317.214	-11.43
317.428	-1.19
317.641	45.91
317.855	2.9
318.068	45.91
318.282	95.06
318.495	-25.77
318.709	-13.48
318.922	21.33
319.136	47.96
319.349	-3.24
319.563	80.72
319.776	37.72
319.99	11.09
320.203	43.86
320.417	72.53
320.63	17.24
320.843	103.25
321.057	23.38
321.27	-5.29
321.483	-25.77
321.697	95.06
321.91	29.52
322.124	-38.06
322.337	50
322.55	39.76
322.763	-23.72
322.977	-70.83
323.19	-5.29
323.403	35.67
323.617	74.58
323.83	72.53
324.043	60.24
324.256	-11.43
324.469	52.05
324.683	23.38
324.896	47.96
325.109	80.72
325.322	58.2
325.535	52.05
325.748	45.91
325.962	95.06
326.175	43.86
326.388	41.81
326.601	-3.24
326.814	33.62
327.027	2.9
327.24	41.81
327.453	4.95
327.666	17.24
327.879	13.14
328.092	23.38
328.305	47.96
328.518	39.76
328.731	35.67
328.944	56.15
329.157	4.95
329.37	-15.53
329.583	-7.34
329.796	13.14
330.009	52.05
330.222	52.05
330.435	70.48
330.648	99.16
330.861	-60.59
331.073	54.1
331.286	39.76
331.499	13.14
331.712	33.62
331.925	35.67
332.138	99.16
332.35	-13.48
332.563	9.05
332.776	117.59
332.989	35.67
333.202	-15.53
333.414	58.2
333.627	37.72
333.84	50
334.053	93.01
334.265	82.77
334.478	99.16
334.691	58.2
334.903	54.1
335.116	25.43
335.329	72.53
335.541	37.72
335.754	15.19
335.966	-19.63
336.179	47.96
336.392	2.9
336.604	31.57
336.817	25.43
337.029	0.85
337.242	0.85
337.454	9.05
337.667	25.43
337.88	25.43
338.092	29.52
338.305	41.81
338.517	74.58
338.729	52.05
338.942	54.1
339.154	19.29
339.367	31.57
339.579	23.38
339.792	-5.29
340.004	121.68
340.217	27.48
340.429	103.25
340.641	19.29
340.854	66.39
341.066	72.53
341.278	76.63
341.491	64.34
341.703	45.91
341.915	27.48
342.128	-11.43
342.34	-9.39
342.552	-36.01
342.764	80.72
342.977	31.57
343.189	56.15
343.401	78.68
343.613	58.2
343.826	74.58
344.038	50
344.25	21.33
344.462	27.48
344.674	41.81
344.886	86.87
345.099	21.33
345.311	4.95
345.523	56.15
345.735	-5.29
345.947	15.19
346.159	13.14
346.371	31.57
346.583	93.01
346.795	41.81
347.007	76.63
347.219	-7.34
347.431	41.81
347.643	25.43
347.855	103.25
348.067	76.63
348.279	50
348.491	54.1
348.703	52.05
348.915	17.24
349.127	7
349.339	68.44
349.551	39.76
349.763	31.57
349.975	47.96
350.187	50
350.399	21.33
350.61	35.67
350.822	-33.96
351.034	-31.91
351.246	-31.91
351.458	80.72
351.669	23.38
351.881	-25.77
352.093	47.96
352.305	88.92
352.517	27.48
352.728	9.05
352.94	70.48
353.152	17.24
353.363	58.2
353.575	19.29
353.787	39.76
353.999	45.91
354.21	-25.77
354.422	103.25
354.633	29.52
354.845	60.24
355.057	-1.19
355.268	19.29
355.48	39.76
355.692	27.48
355.903	-3.24
356.115	-11.43
356.326	-9.39
356.538	60.24
356.749	23.38
356.961	33.62
357.172	62.29
357.384	47.96
357.595	58.2
357.807	37.72
358.018	2.9
358.23	37.72
358.441	64.34
358.653	45.91
358.864	35.67
359.075	27.48
359.287	-1.19
359.498	111.44
359.709	39.76
359.921	-38.06
360.132	33.62
360.344	15.19
360.555	47.96
360.766	47.96
360.977	47.96
361.189	-15.53
361.4	-62.63
361.611	15.19
361.823	74.58
362.034	101.2
362.245	41.81
362.456	-21.67
362.667	115.54
362.879	-23.72
363.09	29.52
363.301	80.72
363.512	0.85
363.723	56.15
363.935	33.62
364.146	60.24
364.357	-50.35
364.568	60.24
364.779	0.85
364.99	86.87
365.201	23.38
365.412	90.96
365.623	23.38
365.834	15.19
366.045	58.2
366.256	58.2
366.467	-5.29
366.678	90.96
366.889	9.05
367.1	-48.3
367.311	17.24
367.522	-15.53
367.733	41.81
367.944	37.72
368.155	21.33
368.366	27.48
368.577	70.48
368.788	115.54
368.999	41.81
369.209	-1.19
369.42	-3.24
369.631	25.43
369.842	31.57
370.053	-9.39
370.264	95.06
370.474	39.76
370.685	70.48
370.896	29.52
371.107	33.62
371.317	-5.29
371.528	27.48
371.739	23.38
371.95	35.67
372.16	39.76
372.371	72.53
372.582	47.96
372.792	19.29
373.003	-29.87
373.214	27.48
373.424	7
373.635	133.97
373.846	33.62
374.056	4.95
374.267	56.15
374.477	60.24
374.688	68.44
374.898	66.39
375.109	11.09
375.319	-15.53
375.53	97.11
375.74	2.9
375.951	25.43
376.161	60.24
376.372	41.81
376.582	47.96
376.793	58.2
377.003	109.4
377.214	45.91
377.424	9.05
377.635	58.2
377.845	52.05
378.055	54.1
378.266	117.59
378.476	56.15
378.686	56.15
378.897	17.24
379.107	-1.19
379.317	-15.53
379.528	11.09
379.738	23.38
379.948	-9.39
380.158	109.4
380.369	76.63
380.579	54.1
380.789	66.39
380.999	50
381.21	56.15
381.42	19.29
381.63	-1.19
381.84	111.44
382.05	70.48
382.261	47.96
382.471	15.19
382.681	25.43
382.891	52.05
383.101	101.2
383.311	39.76
383.521	56.15
383.731	52.05
383.941	74.58
384.151	39.76
384.361	45.91
384.571	-66.73
384.781	50
384.991	35.67
385.201	119.64
385.411	-7.34
385.621	76.63
385.831	37.72
386.041	23.38
386.251	50
386.461	72.53
386.671	66.39
386.881	-21.67
387.091	54.1
387.301	76.63
387.511	39.76
387.72	76.63
387.93	4.95
388.14	47.96
388.35	52.05
388.56	60.24
388.769	64.34
388.979	41.81
389.189	80.72
389.399	2.9
389.609	72.53
389.818	11.09
390.028	-23.72
390.238	62.29
390.447	64.34
390.657	13.14
390.867	33.62
391.076	47.96
391.286	54.1
391.496	86.87
391.705	33.62
391.915	76.63
392.125	68.44
392.334	47.96
392.544	54.1
392.753	88.92
392.963	-15.53
393.172	39.76
393.382	95.06
393.591	101.2
393.801	-13.48
394.01	17.24
394.22	105.3
394.429	27.48
394.639	54.1
394.848	23.38
395.058	142.16
395.267	11.09
395.477	76.63
395.686	80.72
395.895	15.19
396.105	7
396.314	7
396.524	29.52
396.733	115.54
396.942	54.1
397.152	11.09
397.361	47.96
397.57	62.29
397.78	13.14
397.989	82.77
398.198	113.49
398.407	162.64
398.617	80.72
398.826	27.48
399.035	95.06
399.244	88.92
399.453	90.96
399.663	66.39
399.872	95.06
400.081	11.09
400.29	142.16
400.499	37.72
400.708	70.48
400.917	80.72
401.127	105.3
401.336	64.34
401.545	144.21
401.754	88.92
401.963	45.91
402.172	88.92
402.381	35.67
402.59	58.2
402.799	131.92
403.008	144.21
403.217	152.4
403.426	101.2
403.635	97.11
403.844	84.82
404.053	138.07
404.262	80.72
404.471	144.21
404.68	95.06
404.888	129.88
405.097	125.78
405.306	123.73
405.515	84.82
405.724	185.17
405.933	152.4
406.142	123.73
406.35	207.7
406.559	158.55
406.768	113.49
406.977	197.46
407.185	78.68
407.394	115.54
407.603	189.27
407.812	187.22
408.02	179.03
408.229	203.6
408.438	154.45
408.646	181.07
408.855	222.03
409.064	312.14
409.272	183.12
409.481	275.28
409.69	244.56
409.898	199.51
410.107	236.37
410.315	267.09
410.524	240.47
410.733	273.23
410.941	256.85
411.15	226.13
411.358	262.99
411.567	275.28
411.775	228.18
411.984	336.72
412.192	334.67
412.401	418.64
412.609	338.77
412.818	279.38
413.026	310.1
413.234	303.95
413.443	383.82
413.651	424.78
413.86	351.06
414.068	432.97
414.276	492.37
414.485	418.64
414.693	490.32
414.901	447.31
415.11	428.88
415.318	459.6
415.526	543.57
415.734	572.24
415.943	576.33
416.151	648.01
416.359	633.68
416.567	635.72
416.776	717.64
416.984	627.53
417.192	705.35
417.4	779.08
417.608	762.7
417.817	809.8
418.025	809.8
418.233	873.29
418.441	838.47
418.649	795.47
418.857	914.25
419.065	987.97
419.273	908.1
419.481	1004.36
419.689	1006.41
419.897	1196.87
420.105	1061.7
420.313	1037.13
420.521	1135.43
420.729	1184.58
420.937	1237.83
421.145	1260.35
421.353	1370.94
421.561	1364.8
421.769	1372.99
421.977	1489.73
422.185	1444.67
422.393	1561.41
422.601	1649.47
422.809	1610.56
423.017	1764.15
423.224	1841.98
423.432	1831.74
423.64	1948.47
423.848	2040.63
424.056	1936.18
424.263	2011.96
424.471	2032.44
424.679	2149.17
424.887	2173.75
425.094	2304.82
425.302	2362.16
425.51	2380.59
425.718	2435.89
425.925	2448.18
426.133	2622.25
426.341	2730.8
426.548	2892.59
426.756	2872.11
426.964	2913.06
427.171	3005.22
427.379	3001.13
427.586	3298.08
427.794	3326.75
428.001	3509.02
428.209	3570.46
428.417	3656.48
428.624	3851.03
428.832	3711.77
429.039	3781.4
429.247	3877.66
429.454	4100.89
429.662	4283.16
429.869	4154.13
430.076	4381.46
430.284	4283.16
430.491	4520.72
430.699	4586.26
430.906	4684.56
431.114	4770.57
431.321	4811.53
431.528	5032.71
431.736	5243.65
431.943	5526.27
432.15	5301
432.358	5389.06
432.565	5724.93
432.772	5737.21
432.979	5985.02
433.187	5970.68
433.394	6130.42
433.601	6703.86
433.808	6687.47
434.016	6449.91
434.223	6636.27
434.43	7308.01
434.637	7211.75
434.844	7678.69
435.052	7740.13
435.259	7703.26
435.466	7664.35
435.673	7768.8
435.88	8200.92
436.087	8696.53
436.294	8682.19
436.501	8356.57
436.708	8489.68
436.915	9038.54
437.122	9302.73
437.329	9405.13
437.537	9618.11
437.743	9724.61
437.95	9452.23
438.157	10173.11
438.364	10480.31
438.571	10470.07
438.778	10562.23
438.985	11688.61
439.192	10920.62
439.399	11379.37
439.606	11068.08
439.813	11842.21
440.02	12552.85
440.227	12294.81
440.433	12157.6
440.64	12520.09
440.847	12417.69
441.054	12735.12
441.261	13617.8
441.467	13259.4
441.674	13390.47
441.881	14453.37
442.088	14418.55
442.294	14031.49
442.501	14125.69
442.708	14801.52
442.914	15284.84
443.121	15895.14
443.328	15372.91
443.534	16431.71
443.741	15999.59
443.948	15809.12
444.154	17042
444.361	16872.02
444.568	17068.62
444.774	17185.36
444.981	17291.85
445.187	17812.04
445.394	18518.59
445.6	18311.74
445.807	20165.15
446.013	19100.21
446.22	19542.57
446.426	20400.67
446.633	20529.69
446.839	20974.1
447.046	20290.08
447.252	21424.65
447.459	21631.5
447.665	21449.23
447.871	22323.71
448.078	23075.32
448.284	21905.93
448.491	23009.78
448.697	23628.27
448.903	24080.87
449.11	24193.51
449.316	23482.86
449.522	23974.38
449.728	24537.57
449.935	24783.32
450.141	24830.43
450.347	25749.96
450.553	24556
450.76	25219.54
450.966	25600.46
451.172	25362.9
451.378	26210.76
451.584	25506.26
451.791	26311.11
451.997	26372.55
452.203	26528.19
452.409	26235.33
452.615	26472.9
452.821	25287.12
453.027	25227.73
453.233	26339.78
453.44	25272.79
453.646	25545.17
453.852	25911.75
454.058	26452.42
454.264	24883.67
454.47	25907.66
454.676	25115.09
454.882	26089.93
455.088	23755.24
455.294	24003.05
455.5	24531.42
455.705	24642.01
455.911	24035.81
456.117	23095.8
456.323	22837.75
456.529	21701.13
456.735	22467.07
456.941	21887.5
457.147	21731.85
457.352	21053.97
457.558	20900.37
457.764	20955.67
457.97	20341.28
458.176	20046.37
458.381	20083.23
458.587	19073.59
458.793	18983.48
458.999	18195.01
459.204	19524.14
459.41	18932.28
459.616	17576.52
459.821	17588.81
460.027	17470.03
460.233	16980.56
460.438	16304.73
460.644	16777.81
460.85	15731.3
461.055	15520.36
461.261	15489.64
461.466	14457.46
461.672	14023.3
461.878	14971.5
462.083	13873.79
462.289	13728.39
462.494	13400.71
462.7	12763.79
462.905	12622.48
463.111	13003.41
463.316	13077.13
463.522	12800.66
463.727	12876.43
463.932	12814.99
464.138	12630.68
464.343	12634.77
464.549	12356.25
464.754	12608.15
464.959	12511.89
465.165	12698.26
465.37	12143.26
465.575	11563.68
465.781	12303
465.986	12194.46
466.191	11664.04
466.397	11569.83
466.602	11094.7
466.807	11670.18
467.012	11575.97
467.218	11317.93
467.423	11256.49
467.628	11203.24
467.833	11797.15
468.038	11322.02
468.244	11008.69
468.449	11584.16
468.654	11203.24
468.859	11018.93
469.064	11106.99
469.269	10453.69
469.474	10621.62
469.679	10850.99
469.885	10375.86
470.09	10638
470.295	10820.27
470.5	10437.3
470.705	10439.35
470.91	10252.98
471.115	10029.76
471.32	10042.04
471.525	10042.04
471.73	9960.13
471.935	10015.42
472.139	9556.68
472.344	9540.29
472.549	9425.61
472.754	9388.74
472.959	9198.28
473.164	9224.9
473.369	8927.95
473.574	9128.65
473.778	9259.72
473.983	9036.49
474.188	9046.73
474.393	8440.53
474.598	8608.47
474.802	8563.41
475.007	8585.94
475.212	8415.96
475.417	8200.92
475.621	8356.57
475.826	8280.79
476.031	8295.13
476.235	8112.86
476.44	8137.43
476.645	7936.73
476.849	7903.96
477.054	7879.39
477.259	7762.65
477.463	7760.61
477.668	7693.02
477.872	7684.83
478.077	7551.71
478.282	7295.72
478.486	7348.97
478.691	7258.85
478.895	7140.07
479.1	7273.19
479.304	7109.35
479.509	6918.89
479.713	7152.36
479.918	7006.95
480.122	6814.45
480.326	6863.6
480.531	6955.76
480.735	6933.23
480.94	6855.4
481.144	6988.52
481.348	6658.8
481.553	6787.82
481.757	6650.61
481.961	6755.05
482.166	6871.79
482.37	6605.55
482.574	6578.93
482.778	6527.73
482.983	6843.12
483.187	6611.7
483.391	6677.23
483.595	6714.09
483.8	6578.93
484.004	6773.49
484.208	6869.74
484.412	6570.74
484.616	6697.71
484.821	6583.02
485.025	6542.07
485.229	6681.33
485.433	6513.39
485.637	6691.57
485.841	6511.35
486.045	6511.35
486.249	6603.5
486.453	6611.7
486.657	6638.32
486.861	6847.21
487.065	6666.99
487.269	6626.03
487.473	6540.02
487.677	6642.42
487.881	6681.33
488.085	6492.91
488.289	6666.99
488.493	6732.53
488.697	6658.8
488.901	6726.38
489.105	6710
489.309	6748.91
489.512	6666.99
489.716	6830.83
489.92	6775.53
490.124	6761.2
490.328	6824.69
490.531	6666.99
490.735	6982.38
490.939	6968.04
491.143	6910.7
491.346	6826.73
491.55	6978.28
491.754	6820.59
491.958	7011.05
492.161	6957.8
492.365	7193.32
492.569	7183.08
492.772	7033.58
492.976	7129.83
493.18	7246.57
493.383	7160.55
493.587	7383.78
493.79	7250.66
493.994	7232.23
494.197	7226.09
494.401	7541.47
494.605	7389.92
494.808	7570.15
495.012	7584.48
495.215	7701.22
495.419	7908.06
495.622	7619.3
495.825	7957.21
496.029	7785.18
496.232	8020.7
496.436	8020.7
496.639	8211.16
496.843	8086.23
497.046	8461.01
497.249	8420.05
497.453	8522.45
497.656	8635.09
497.859	8485.59
498.063	8628.95
498.266	8868.56
498.469	8821.45
498.673	8870.61
498.876	9253.58
499.079	9034.44
499.282	9032.4
499.485	9341.64
499.689	9214.66
499.892	9374.41
500.095	9626.31
500.298	9716.42
500.501	9630.4
500.705	9824.96
500.908	9986.75
501.111	10150.59
501.314	10166.97
501.517	10402.49
501.72	10558.13
501.923	10842.8
502.126	10834.61
502.329	10918.57
502.532	11098.8
502.735	10838.7
502.938	11227.82
503.141	11432.61
503.344	11688.61
503.547	11573.92
503.75	11834.02
503.953	11954.85
504.156	12034.72
504.359	12225.18
504.562	12008.09
504.765	12554.9
504.968	12595.86
505.17	12751.51
505.373	12872.34
505.576	13177.48
505.779	13154.96
505.982	13566.6
506.185	13619.85
506.387	13806.21
506.59	13953.66
506.793	14172.8
506.996	14037.63
507.198	14568.06
507.401	14418.55
507.604	14719.6
507.807	15028.85
508.009	15223.41
508.212	15366.76
508.415	15336.04
508.617	15563.37
508.82	15721.06
509.022	15716.97
509.225	16216.67
509.428	16167.52
509.63	16400.99
509.833	16505.43
510.035	16857.68
510.238	16935.51
510.44	17191.5
510.643	17416.78
510.845	17322.57
511.048	17885.76
511.25	17572.43
511.453	18094.66
511.655	18610.75
511.858	18780.73
512.06	18725.43
512.262	18979.38
512.465	18797.11
512.667	19460.65
512.87	19610.15
513.072	19587.63
513.274	19794.47
513.477	20257.31
513.679	20308.51
513.881	20595.23
514.084	20849.18
514.286	20931.09
514.488	21182.99
514.69	21934.6
514.893	21877.26
515.095	22018.57
515.297	22143.49
515.499	22112.77
515.701	22628.86
515.904	22761.98
516.106	23179.76
516.308	23085.56
516.51	23673.32
516.712	23609.84
516.914	23486.96
517.116	24097.25
517.318	24396.26
517.52	24300
517.722	25008.6
517.925	25410
518.127	25457.1
518.329	25860.55
518.531	25483.73
518.733	25878.99
518.935	26460.61
519.136	26286.53
519.338	26831.29
519.54	27144.63
519.742	27208.12
519.944	27302.32
520.146	27781.55
520.348	28172.71
520.55	27941.29
520.752	28400.04
520.954	28789.15
521.155	28645.79
521.357	29292.95
521.559	29217.18
521.761	30052.75
521.963	29804.94
522.164	29962.64
522.366	30099.85
522.568	30648.71
522.77	30456.2
522.971	31302.01
523.173	30910.85
523.375	31555.96
523.576	31515
523.778	31752.56
523.98	32141.67
524.181	32344.42
524.383	32153.96
524.584	32577.89
524.786	32637.28
524.988	32420.2
525.189	32858.46
525.391	33229.15
525.592	33503.57
525.794	33282.39
525.995	33669.46
526.197	33565.01
526.398	33927.5
526.6	33839.44
526.801	34287.95
527.003	34738.5
527.204	34158.92
527.406	34857.28
527.607	34797.89
527.808	34910.53
528.01	34629.96
528.211	34783.55
528.412	35371.32
528.614	35539.26
528.815	35361.08
529.016	35782.96
529.218	35952.94
529.419	35774.77
529.62	35496.25
529.822	35856.69
530.023	35836.21
530.224	35899.7
530.425	36067.63
530.626	35965.23
530.828	35782.96
531.029	36604.2
531.23	36319.53
531.431	36364.59
531.632	36075.82
531.833	36442.41
532.035	36555.05
532.236	36710.69
532.437	36426.03
532.638	36604.2
532.839	36782.37
533.04	37050.66
533.241	36362.54
533.442	37108
533.643	37069.09
533.844	36938.02
534.045	37241.12
534.246	36882.72
534.447	37077.28
534.648	37132.57
534.849	37249.31
535.05	37026.08
535.251	37177.63
535.451	37157.15
535.652	37585.18
535.853	37032.22
536.054	37214.49
536.255	37482.78
536.456	36976.93
536.657	37677.33
536.857	37239.07
537.058	36905.25
537.259	37681.43
537.46	37556.5
537.66	37058.85
537.861	37003.55
538.062	36968.74
538.263	37069.09
538.463	37179.68
538.664	37480.73
538.865	37081.38
539.065	37179.68
539.266	37017.89
539.466	37851.41
539.667	36872.48
539.868	37431.58
540.068	37212.45
540.269	37112.1
540.469	37677.33
540.67	36995.36
540.87	37079.33
541.071	36880.67
541.271	37533.98
541.472	37454.11
541.672	37151.01
541.873	36761.89
542.073	36821.28
542.274	37636.38
542.474	37368.09
542.675	36882.72
542.875	37251.36
543.075	37337.37
543.276	36815.14
543.476	37435.67
543.676	37185.82
543.877	37343.52
544.077	37345.56
544.277	37165.34
544.478	37034.27
544.678	37120.29
544.878	37351.71
545.078	37396.76
545.279	37212.45
545.479	37148.96
545.679	37372.19
545.879	37212.45
546.079	37251.36
546.28	37189.92
546.48	36888.87
546.68	37486.87
546.88	36987.17
547.08	37067.04
547.28	37191.97
547.48	36765.99
547.68	37480.73
547.88	36784.42
548.081	37253.4
548.281	36989.22
548.481	37079.33
548.681	37273.88
548.881	37273.88
549.081	37302.56
549.28	37009.7
549.48	37259.55
549.68	36931.87
549.88	37617.94
550.08	37028.13
550.28	37036.32
550.48	36911.39
550.68	37177.63
550.88	36911.39
551.08	37265.69
551.279	37335.32
551.479	36632.87
551.679	37175.58
551.879	36833.57
552.079	37202.21
552.278	36841.76
552.478	36944.16
552.678	36860.19
552.878	37028.13
553.077	36876.58
553.277	36434.22
553.477	37116.19
553.676	36942.11
553.876	37001.5
554.076	36706.6
554.275	36702.5
554.475	36352.3
554.674	36735.27
554.874	36880.67
555.074	36770.08
555.273	36667.69
555.473	36868.39
555.672	36413.74
555.872	36546.86
556.071	36534.57
556.271	36954.4
556.47	36800.8
556.67	36079.92
556.869	36192.56
557.068	36489.51
557.268	36491.56
557.467	36184.37
557.667	36233.52
557.866	36014.38
558.065	36157.74
558.265	36061.49
558.464	35766.58
558.663	36413.74
558.863	35752.24
559.062	36505.9
559.261	35604.79
559.461	36215.08
559.66	35608.89
559.859	35873.07
560.058	35565.88
560.258	35848.5
560.457	35399.99
560.656	35813.68
560.855	35567.93
561.054	35694.9
561.253	35469.62
561.453	35424.57
561.652	35326.27
561.851	35330.36
562.05	35092.8
562.249	35119.42
562.448	35334.46
562.647	35076.41
562.846	35371.32
563.045	34998.59
563.244	34709.83
563.443	35461.43
563.642	34382.15
563.841	35062.08
564.04	34799.94
564.239	34902.34
564.438	34795.84
564.637	34580.81
564.836	34664.77
565.035	34324.81
565.234	34951.49
565.432	34175.31
565.631	34310.47
565.83	34693.44
566.029	34027.85
566.228	34148.68
566.427	34212.17
566.625	33986.89
566.824	33720.66
567.023	34482.5
567.222	33536.34
567.42	34249.03
567.619	34195.79
567.818	34017.61
568.016	33354.07
568.215	33900.88
568.414	33761.62
568.612	33896.78
568.811	33655.12
569.01	33599.83
569.208	33321.3
569.407	33210.71
569.605	32934.24
569.804	33274.2
570.002	32696.67
570.201	33337.69
570.4	32600.42
570.598	33050.97
570.797	32926.05
570.995	32854.37
571.193	32403.81
571.392	32594.28
571.59	32172.39
571.789	32203.11
571.987	32254.31
572.186	32051.56
572.384	32072.04
572.582	32141.67
572.781	32176.49
572.979	31400.31
573.177	31992.17
573.376	31828.34
573.574	31506.8
573.772	31707.51
573.971	31431.03
574.169	31316.34
574.367	31068.54
574.565	31582.58
574.763	31205.75
574.962	31074.68
575.16	30957.95
575.358	31005.05
575.556	30654.85
575.754	30908.8
575.952	30521.73
576.151	30534.02
576.349	30124.43
576.547	30536.07
576.745	30468.48
576.943	30314.89
577.141	30271.88
577.339	29970.83
577.537	30192.01
577.735	29845.9
577.933	29817.23
578.131	29862.29
578.329	29432.21
578.527	29614.48
578.725	29639.06
578.923	29485.46
579.121	29469.08
579.319	29204.89
579.516	29626.77
579.714	29325.72
579.912	29041.05
580.11	28985.76
580.308	29065.63
580.506	28871.07
580.704	28758.43
580.901	28664.22
581.099	28885.4
581.297	28211.62
581.495	28344.74
581.692	28498.34
581.89	27879.85
582.088	28213.67
582.285	27998.63
582.483	28324.26
582.681	28252.58
582.878	27804.08
583.076	27666.86
583.274	27969.96
583.471	27664.82
583.669	28201.38
583.866	27658.67
584.064	27496.88
584.262	27423.15
584.459	27673.01
584.657	26782.14
584.854	27185.59
585.052	26669.5
585.249	27062.71
585.447	27064.76
585.644	26696.13
585.841	26640.83
586.039	27036.09
586.236	26317.25
586.434	26554.82
586.631	26546.62
586.828	26599.87
587.026	26223.05
587.223	26362.31
587.42	26266.05
587.618	26200.52
587.815	25813.45
588.012	26239.43
588.21	25600.46
588.407	26128.84
588.604	25678.29
588.801	25666
588.999	25356.75
589.196	25385.43
589.393	25618.89
589.59	25483.73
589.787	25428.43
589.984	25194.96
590.182	24943.06
590.379	25121.24
590.576	24920.54
590.773	24879.58
590.97	24846.81
591.167	24961.5
591.364	24768.99
591.561	24599.01
591.758	24476.13
591.955	24625.63
592.152	24672.73
592.349	23966.18
592.546	24515.04
592.743	24592.86
592.94	24216.04
593.137	24474.08
593.334	23964.14
593.531	23976.42
593.727	23695.85
593.924	23732.72
594.121	23609.84
594.318	23691.76
594.515	23464.43
594.712	23611.89
594.908	23550.45
595.105	23437.81
595.302	23525.87
595.499	23468.53
595.696	23132.66
595.892	23140.85
596.089	23169.52
596.286	23079.41
596.482	22952.44
596.679	22864.38
596.876	23280.11
597.072	22899.19
597.269	22520.32
597.466	22241.79
597.662	22368.77
597.859	22612.48
598.055	22585.85
598.252	22346.24
598.448	22501.89
598.645	22245.89
598.841	22172.16
599.038	22045.19
599.234	22172.16
599.431	21723.66
599.627	21903.88
599.824	21674.51
600.02	21668.36
600.217	21799.43
600.413	21649.93
600.609	21563.92
600.806	21525
601.002	21572.11
601.198	21295.63
601.395	21342.74
601.591	21416.46
601.787	21330.45
601.984	21123.6
602.18	21189.14
602.376	21076.5
602.572	20759.06
602.769	20791.83
602.965	20570.65
603.161	20714.01
603.357	20509.21
603.553	20695.58
603.75	20601.37
603.946	20470.3
604.142	20703.77
604.338	19921.45
604.534	20156.96
604.73	20134.43
604.926	19941.93
605.122	19964.45
605.318	19941.93
605.514	19812.9
605.71	19724.84
605.906	19759.66
606.102	19923.49
606.298	19530.28
606.494	19778.09
606.69	19663.4
606.886	19612.2
607.082	19286.58
607.278	19593.77
607.474	19364.4
607.67	19321.39
607.866	18973.24
608.062	19327.53
608.257	19089.97
608.453	19229.23
608.649	19020.34
608.845	18743.86
609.041	19049.01
609.236	18969.14
609.432	18934.32
609.628	18856.5
609.824	18821.69
610.019	18614.84
610.215	18610.75
610.411	18915.89
610.606	18342.46
610.802	18584.12
610.998	18530.87
611.193	18549.31
611.389	18336.32
611.584	18367.04
611.78	18057.79
611.976	18145.86
612.171	18182.72
612.367	17984.07
612.562	18043.46
612.758	17842.76
612.953	17912.39
613.149	17863.24
613.344	17877.57
613.539	18102.85
613.735	17756.74
613.93	17756.74
614.126	17670.73
614.321	17797.7
614.517	17799.75
614.712	17887.81
614.907	17400.4
615.103	17609.29
615.298	17345.1
615.493	17424.97
615.688	17148.5
615.884	17394.25
616.079	17033.81
616.274	17314.38
616.47	16994.9
616.665	17144.4
616.86	17062.48
617.055	17046.1
617.25	17089.1
617.445	17056.34
617.641	16601.69
617.836	16726.61
618.031	16697.94
618.226	16888.4
618.421	16364.12
618.616	16632.41
618.811	16642.65
619.006	16650.84
619.201	16110.18
619.396	16179.81
619.591	16118.37
619.786	16249.44
619.981	16040.54
620.176	16005.73
620.371	15788.64
620.566	16116.32
620.761	15782.5
620.956	15882.85
621.151	15676.01
621.346	15764.07
621.541	15413.87
621.735	15624.81
621.93	15116.91
622.125	15358.57
622.32	15157.87
622.515	15282.8
622.709	15006.32
622.904	15080.05
623.099	14774.9
623.294	14811.76
623.488	14553.72
623.683	14922.35
623.878	14393.98
624.072	14496.38
624.267	14486.14
624.462	14295.68
624.656	14269.05
624.851	14273.15
625.046	14062.21
625.24	14080.64
625.435	13783.68
625.629	14045.82
625.824	13881.99
626.018	13961.86
626.213	13472.39
626.407	13685.38
626.602	13484.68
626.796	13499.02
626.991	13306.51
627.185	13533.83
627.38	13118.09
627.574	13079.18
627.768	12962.45
627.963	13066.89
628.157	12894.86
628.352	13066.89
628.546	12845.71
628.74	12929.68
628.935	12524.18
629.129	12749.46
629.323	12448.41
629.517	12346.01
629.712	12284.57
629.906	12393.11
630.1	12165.79
630.294	12122.78
630.489	11860.64
630.683	12413.59
630.877	11784.87
631.071	11973.28
631.265	12114.59
631.459	11793.06
631.653	11784.87
631.848	11784.87
632.042	11475.62
632.236	11618.98
632.43	11541.16
632.624	11623.08
632.818	11475.62
633.012	11094.7
633.206	11293.35
633.4	11424.42
633.594	11063.98
633.788	11274.92
633.982	11328.17
634.176	11090.6
634.369	11082.41
634.563	11008.69
634.757	10666.67
634.951	10928.81
635.145	10605.24
635.339	10820.27
635.533	10672.82
635.726	10674.87
635.92	10492.6
636.114	10554.04
636.308	10693.3
636.501	10226.36
636.695	10353.34
636.889	10154.68
637.083	10269.37
637.276	10132.15
637.47	10148.54
637.664	9996.99
637.857	10128.06
638.051	9880.25
638.244	9794.24
638.438	9867.97
638.632	9673.41
638.825	9724.61
639.019	9571.01
639.212	9525.96
639.406	9642.69
639.599	9601.73
639.793	9853.63
639.986	9319.11
640.18	9304.78
640.373	9401.03
640.567	9220.81
640.76	9173.71
640.954	9079.5
641.147	9079.5
641.34	8973
641.534	9159.37
641.727	9097.93
641.92	8968.91
642.114	8876.75
642.307	8825.55
642.5	8696.53
642.694	8651.47
642.887	8532.69
643.08	8561.36
643.273	8663.76
643.467	8413.91
643.66	8542.93
643.853	8407.77
644.046	8241.88
644.239	8321.75
644.432	8329.94
644.626	8073.95
644.819	8116.95
645.012	8135.39
645.205	8043.23
645.398	8147.67
645.591	7998.17
645.784	7828.19
645.977	7912.16
646.17	7854.81
646.363	7715.55
646.556	7580.39
646.749	7527.14
646.942	7713.5
647.135	7465.7
647.328	7643.87
647.521	7510.75
647.714	7400.16
647.907	7238.37
648.099	7318.25
648.292	7203.56
648.485	7367.4
648.678	7170.79
648.871	7033.58
649.064	6884.08
649.256	7318.25
649.449	6970.09
649.642	7140.07
649.835	6855.4
650.027	7019.24
650.22	6839.02
650.413	6906.6
650.605	6963.95
650.798	6689.52
650.991	6605.55
651.183	6675.18
651.376	6548.21
651.568	6568.69
651.761	6642.42
651.954	6388.47
652.146	6527.73
652.339	6365.94
652.531	6370.04
652.724	6273.78
652.916	6249.21
653.109	6341.36
653.301	6267.64
653.494	6288.12
653.686	6042.36
653.879	6202.1
654.071	6220.53
654.263	6085.37
654.456	6050.55
654.648	6068.98
654.84	5960.44
655.033	6054.65
655.225	5937.91
655.417	5786.37
655.61	5845.76
655.802	5843.71
655.994	5624.58
656.186	5706.49
656.379	5608.19
656.571	5610.24
656.763	5528.32
656.955	5624.58
657.148	5575.42
657.34	5513.99
657.532	5432.07
657.724	5436.16
657.916	5272.32
658.108	5454.59
658.3	5440.26
658.492	5243.65
658.684	5161.73
658.876	5184.26
659.068	5165.83
659.26	5040.9
659.452	5294.85
659.644	5040.9
659.836	5159.69
660.028	5096.2
660.22	4854.54
660.412	5042.95
660.604	4944.65
660.796	4850.44
660.988	4750.09
661.18	4836.11
661.372	4827.92
661.563	4901.64
661.755	4918.03
661.947	4664.08
662.139	4758.28
662.331	4756.24
662.522	4625.17
662.714	4598.54
662.906	4420.37
663.097	4428.56
663.289	4457.23
663.481	4551.44
663.673	4508.43
663.864	4354.83
664.056	4403.99
664.247	4338.45
664.439	4385.55
664.631	4272.92
664.822	4348.69
665.014	4406.03
665.205	4229.91
665.397	4166.42
665.588	4277.01
665.78	4217.62
665.971	4197.14
666.163	4147.99
666.354	4104.98
666.546	3992.34
666.737	4160.28
666.929	4094.74
667.12	4037.4
667.311	4016.92
667.503	4074.26
667.694	3857.18
667.885	3824.41
668.077	3865.37
668.268	3830.55
668.459	3937.05
668.651	3814.17
668.842	3824.41
669.033	3781.4
669.224	3666.72
669.416	3863.32
669.607	3785.5
669.798	3719.96
669.989	3740.44
670.18	3728.16
670.371	3642.14
670.563	3617.57
670.754	3625.76
670.945	3502.88
671.136	3586.85
671.327	3623.71
671.518	3584.8
671.709	3494.69
671.9	3416.87
672.091	3496.74
672.282	3494.69
672.473	3336.99
672.664	3443.49
672.855	3427.11
673.046	3386.15
673.237	3363.62
673.428	3429.15
673.619	3369.76
673.809	3347.23
674	3275.56
674.191	3382.05
674.382	3248.93
674.573	3291.94
674.764	3320.61
674.954	3300.13
675.145	3230.5
675.336	3308.32
675.527	3330.85
675.717	3191.59
675.908	3222.31
676.099	3214.12
676.289	3152.68
676.48	3072.81
676.671	3105.57
676.861	3212.07
677.052	3144.49
677.243	3119.91
677.433	3031.85
677.624	3060.52
677.814	3158.82
678.005	3046.18
678.195	3048.23
678.386	3007.27
678.576	3113.77
678.767	3058.47
678.957	3078.95
679.148	3017.51
679.338	3062.57
679.529	2843.43
679.719	2913.06
679.909	2935.59
680.1	2777.9
680.29	2874.15
680.481	2843.43
680.671	2933.54
680.861	2902.83
681.052	2845.48
681.242	2941.74
681.432	2943.78
681.622	2911.02
681.813	2935.59
682.003	2833.19
682.193	2775.85
682.383	2888.49
682.573	2865.96
682.764	2833.19
682.954	2829.1
683.144	2937.64
683.334	2765.61
683.524	2814.76
683.714	2792.23
683.904	2820.91
684.094	2777.9
684.284	2779.95
684.474	2777.9
684.664	2792.23
684.854	2722.6
685.044	2655.02
685.234	2700.08
685.424	2648.88
685.614	2698.03
685.804	2581.29
685.994	2777.9
686.184	2732.84
686.374	2669.36
686.564	2640.69
686.753	2616.11
686.943	2642.73
687.133	2587.44
687.323	2579.25
687.513	2618.16
687.702	2612.01
687.892	2536.24
688.082	2648.88
688.272	2581.29
688.461	2587.44
688.651	2626.35
688.841	2583.34
689.03	2601.77
689.22	2462.51
689.41	2562.86
689.599	2607.92
689.789	2587.44
689.979	2616.11
690.168	2585.39
690.358	2421.55
690.547	2550.57
690.737	2485.04
690.926	2607.92
691.116	2515.76
691.305	2605.87
691.495	2487.09
691.684	2587.44
691.874	2493.23
692.063	2480.94
692.252	2532.14
692.442	2556.72
692.631	2470.7
692.82	2587.44
693.01	2448.18
693.199	2345.78
693.388	2425.65
693.578	2495.28
693.767	2470.7
693.956	2403.12
694.146	2452.27
694.335	2390.83
694.524	2427.7
694.713	2491.18
694.902	2462.51
695.092	2325.3
695.281	2536.24
695.47	2532.14
695.659	2485.04
695.848	2485.04
696.037	2417.46
696.226	2489.14
696.415	2442.03
696.604	2521.9
696.793	2476.85
696.982	2294.58
697.171	2523.95
697.36	2407.22
697.549	2460.46
697.738	2356.02
697.927	2392.88
698.116	2442.03
698.305	2413.36
698.494	2480.94
698.683	2474.8
698.872	2417.46
699.061	2458.42
699.25	2378.55
699.438	2464.56
699.627	2466.61
699.816	2442.03
700.005	2456.37
700.193	2325.3
700.382	2501.42
700.571	2353.97
700.76	2376.5
700.948	2439.98
701.137	2323.25
701.326	2310.96
701.514	2349.87
701.703	2364.21
701.892	2368.31
702.08	2399.02
702.269	2409.26
702.457	2296.63
702.646	2310.96
702.834	2317.11
703.023	2243.38
703.212	2343.73
703.4	2286.39
703.589	2396.98
703.777	2290.48
703.965	2296.63
704.154	2274.1
704.342	2235.19
704.531	2237.24
704.719	2237.24
704.907	2349.87
705.096	2327.35
705.284	2161.46
705.472	2222.9
705.661	2149.17
705.849	2290.48
706.037	2167.6
706.226	2237.24
706.414	2132.79
706.602	2179.89
706.79	2190.13
706.979	2085.69
707.167	2229.04
707.355	2134.84
707.543	2171.7
707.731	2114.36
707.919	2057.01
708.107	2116.41
708.296	2126.64
708.484	2120.5
708.672	2157.36
708.86	2081.59
709.048	2085.69
709.236	2075.45
709.424	2138.93
709.612	2036.53
709.8	2079.54
709.988	2083.64
710.176	2018.1
710.364	2126.64
710.551	2085.69
710.739	1891.13
710.927	2024.25
711.115	1991.48
711.303	2003.77
711.491	2036.53
711.679	1938.23
711.866	1895.22
712.054	1962.81
712.242	2079.54
712.43	1938.23
712.617	1848.12
712.805	1921.85
712.993	1962.81
713.181	1915.7
713.368	1942.33
713.556	1817.4
713.744	1946.42
713.931	1954.62
714.119	1854.27
714.306	1882.94
714.494	1921.85
714.682	1923.9
714.869	1901.37
715.057	1901.37
715.244	1747.77
715.432	1792.83
715.619	1778.49
715.807	1813.31
715.994	1786.68
716.182	1790.78
716.369	1784.63
716.556	1811.26
716.744	1827.64
716.931	1866.55
717.119	1698.62
717.306	1692.48
717.493	1862.46
717.681	1792.83
717.868	1686.33
718.055	1686.33
718.242	1753.91
718.43	1682.24
718.617	1723.2
718.804	1762.11
718.991	1700.67
719.179	1661.76
719.366	1600.32
719.553	1616.7
719.74	1622.84
719.927	1682.24
720.114	1573.69
720.301	1667.9
720.488	1641.28
720.676	1678.14
720.863	1604.41
721.05	1592.13
721.237	1643.32
721.424	1674.04
721.611	1577.79
721.798	1635.13
721.985	1600.32
722.172	1579.84
722.358	1491.77
722.545	1516.35
722.732	1506.11
722.919	1635.13
723.106	1530.69
723.293	1463.1
723.48	1497.92
723.667	1485.63
723.853	1463.1
724.04	1522.49
724.227	1475.39
724.414	1502.01
724.6	1370.94
724.787	1499.97
724.974	1581.89
725.161	1364.8
725.347	1518.4
725.534	1438.53
725.72	1454.91
725.907	1409.86
726.094	1467.2
726.28	1588.03
726.467	1416
726.653	1418.05
726.84	1461.06
727.027	1495.87
727.213	1459.01
727.4	1405.76
727.586	1483.58
727.773	1364.8
727.959	1383.23
728.145	1428.29
728.332	1327.94
728.518	1323.84
728.705	1368.9
728.891	1379.14
729.077	1364.8
729.264	1360.7
729.45	1315.65
729.636	1360.7
729.823	1280.83
730.009	1332.03
730.195	1313.6
730.382	1241.92
730.568	1334.08
730.754	1321.79
730.94	1260.35
731.126	1258.31
731.313	1370.94
731.499	1276.74
731.685	1227.59
731.871	1266.5
732.057	1231.68
732.243	1377.09
732.429	1258.31
732.615	1280.83
732.801	1295.17
732.987	1131.33
733.173	1321.79
733.359	1198.92
733.545	1248.07
733.731	1344.32
733.917	1213.25
734.103	1180.48
734.289	1227.59
734.475	1225.54
734.661	1239.87
734.847	1119.04
735.033	1252.16
735.219	1145.67
735.404	1100.61
735.59	1166.15
735.776	1129.28
735.962	1166.15
736.148	1203.01
736.333	1108.8
736.519	1151.81
736.705	1162.05
736.89	1137.48
737.076	1188.68
737.262	1162.05
737.447	1237.83
737.633	1117
737.819	1088.32
738.004	1098.56
738.19	1119.04
738.375	1088.32
738.561	1106.76
738.747	1067.85
738.932	949.06
739.118	1104.71
739.303	1084.23
739.489	975.69
739.674	1100.61
739.859	1006.41
740.045	1057.61
740.23	1010.5
740.416	1047.37
740.601	996.17
740.786	1026.89
740.972	967.49
741.157	1117
741.342	1008.45
741.528	965.45
741.713	983.88
741.898	987.97
742.084	1010.5
742.269	1030.98
742.454	983.88
742.639	957.25
742.824	985.93
743.01	981.83
743.195	1043.27
743.38	985.93
743.565	957.25
743.75	994.12
743.935	912.2
744.12	990.02
744.305	953.16
744.49	969.54
744.675	1006.41
744.86	836.42
745.045	934.73
745.23	881.48
745.415	906.06
745.6	1002.31
745.785	889.67
745.97	920.39
746.155	895.82
746.34	904.01
746.525	873.29
746.71	916.3
746.895	772.94
747.079	828.23
747.264	842.57
747.449	865.1
747.634	871.24
747.819	852.81
748.003	947.01
748.188	787.27
748.373	813.9
748.557	746.31
748.742	783.18
748.927	889.67
749.111	756.55
749.296	754.51
749.481	879.43
749.665	861
749.85	736.07
750.034	785.23
750.219	768.84
750.404	836.42
750.588	688.97
750.773	723.79
750.957	770.89
751.141	781.13
751.326	789.32
751.51	662.35
751.695	668.49
751.879	719.69
752.064	772.94
752.248	703.31
752.432	729.93
752.617	729.93
752.801	793.42
752.985	688.97
753.17	738.12
753.354	781.13
753.538	746.31
753.722	787.27
753.907	791.37
754.091	672.59
754.275	742.22
754.459	662.35
754.643	605
754.828	621.39
755.012	670.54
755.196	662.35
755.38	652.11
755.564	654.16
755.748	549.71
755.932	631.63
756.116	545.61
756.3	693.07
756.484	623.44
756.668	570.19
756.852	602.96
757.036	652.11
757.22	641.87
757.404	684.87
757.588	598.86
757.772	549.71
757.956	660.3
758.14	670.54
758.323	613.2
758.507	600.91
758.691	498.51
758.875	545.61
759.059	631.63
759.242	555.85
759.426	582.48
759.61	510.8
759.794	598.86
759.977	535.37
760.161	588.62
760.345	549.71
760.528	557.9
760.712	498.51
760.895	529.23
761.079	494.41
761.263	531.28
761.446	471.89
761.63	543.57
761.813	543.57
761.997	459.6
762.18	473.93
762.364	555.85
762.547	568.14
762.731	469.84
762.914	502.61
763.098	529.23
763.281	541.52
763.464	426.83
763.648	443.21
763.831	541.52
764.015	568.14
764.198	537.42
764.381	557.9
764.564	492.37
764.748	465.74
764.931	490.32
765.114	533.33
765.297	543.57
765.481	564.04
765.664	478.03
765.847	465.74
766.03	541.52
766.213	502.61
766.397	389.97
766.58	420.69
766.763	469.84
766.946	465.74
767.129	521.04
767.312	408.4
767.495	465.74
767.678	523.09
767.861	498.51
768.044	426.83
768.227	451.41
768.41	484.17
768.593	535.37
768.776	432.97
768.959	463.69
769.142	523.09
769.324	416.59
769.507	463.69
769.69	504.65
769.873	480.08
770.056	543.57
770.239	377.68
770.421	394.06
770.604	420.69
770.787	475.98
770.97	467.79
771.152	381.78
771.335	488.27
771.518	502.61
771.7	453.45
771.883	432.97
772.066	402.26
772.248	510.8
772.431	498.51
772.613	375.63
772.796	398.16
772.978	404.3
773.161	498.51
773.343	400.21
773.526	383.82
773.708	420.69
773.891	377.68
774.073	418.64
774.256	381.78
774.438	336.72
774.621	451.41
774.803	381.78
774.985	424.78
775.168	437.07
775.35	504.65
775.532	451.41
775.715	420.69
775.897	353.1
776.079	349.01
776.261	371.54
776.444	387.92
776.626	367.44
776.808	363.34
776.99	351.06
777.173	406.35
777.355	275.28
777.537	322.38
777.719	365.39
777.901	338.77
778.083	287.57
778.265	342.86
778.447	330.58
778.629	295.76
778.811	316.24
778.993	367.44
779.175	336.72
779.357	312.14
779.539	377.68
779.721	299.86
779.903	324.43
780.085	320.34
780.267	344.91
780.449	392.02
780.631	338.77
780.812	256.85
780.994	392.02
781.176	316.24
781.358	306
781.54	328.53
781.721	363.34
781.903	277.33
782.085	273.23
782.267	291.66
782.448	287.57
782.63	240.47
782.812	318.29
782.993	256.85
783.175	312.14
783.357	293.71
783.538	240.47
783.72	254.8
783.901	219.99
784.083	275.28
784.264	201.55
784.446	281.43
784.627	250.71
784.809	240.47
784.99	248.66
785.172	250.71
785.353	314.19
785.535	353.1
785.716	215.89
785.897	211.79
786.079	281.43
786.26	240.47
786.441	222.03
786.623	254.8
786.804	258.9
786.985	248.66
787.167	230.23
787.348	242.51
787.529	285.52
787.71	252.75
787.891	256.85
788.073	185.17
788.254	187.22
788.435	244.56
788.616	256.85
788.797	299.86
788.978	236.37
789.159	215.89
789.34	211.79
789.522	158.55
789.703	213.84
789.884	191.31
790.065	154.45
790.246	197.46
790.427	209.75
790.607	205.65
790.788	172.88
790.969	215.89
791.15	174.93
791.331	262.99
791.512	164.69
791.693	121.68
791.874	164.69
792.054	187.22
792.235	179.03
792.416	115.54
792.597	168.79
792.778	142.16
792.958	189.27
793.139	244.56
793.32	224.08
793.5	189.27
793.681	232.27
793.862	148.31
794.042	168.79
794.223	193.36
794.404	215.89
794.584	140.12
794.765	164.69
794.945	138.07
795.126	170.83
795.306	211.79
795.487	250.71
795.667	174.93
795.848	203.6
796.028	146.26
796.209	174.93
796.389	158.55
796.57	187.22
796.75	136.02
796.93	117.59
797.111	86.87
797.291	119.64
797.471	172.88
797.652	181.07
797.832	136.02
798.012	162.64
798.192	181.07
798.373	162.64
798.553	156.5
798.733	193.36
798.913	170.83
799.093	138.07
799.274	88.92
799.454	146.26
799.634	129.88
799.814	115.54
799.994	142.16
800.174	66.39
800.354	181.07
800.534	74.58
800.714	90.96
800.894	179.03
801.074	76.63
801.254	72.53
801.434	140.12
801.614	88.92
801.794	101.2
801.974	373.58
802.154	88.92
802.334	127.83
802.514	50
802.693	164.69
802.873	76.63
803.053	209.75
803.233	88.92
803.413	166.74
803.592	86.87
803.772	140.12
803.952	93.01
804.131	119.64
804.311	103.25
804.491	164.69
804.67	66.39
804.85	113.49
805.03	109.4
805.209	152.4
805.389	80.72
805.568	107.35
805.748	127.83
805.928	138.07
806.107	58.2
806.287	152.4
806.466	109.4
806.646	27.48
806.825	127.83
807.004	127.83
807.184	68.44
807.363	131.92
807.543	129.88
807.722	195.41
807.901	109.4
808.081	95.06
808.26	86.87
808.439	84.82
808.619	58.2
808.798	144.21
808.977	60.24
809.156	80.72
809.336	21.33
809.515	90.96
809.694	117.59
809.873	50
810.052	52.05
810.231	142.16
810.411	129.88
810.59	142.16
810.769	82.77
810.948	127.83
811.127	54.1
811.306	117.59
811.485	115.54
811.664	162.64
811.843	62.29
812.022	164.69
812.201	150.36
812.38	76.63
812.559	76.63
812.737	121.68
812.916	29.52
813.095	31.57
813.274	66.39
813.453	60.24
813.632	103.25
813.811	-13.48
813.989	113.49
814.168	58.2
814.347	125.78
814.526	90.96
814.704	103.25
814.883	80.72
815.062	66.39
815.24	152.4
815.419	125.78
815.598	37.72
815.776	41.81
815.955	31.57
816.133	50
816.312	84.82
816.49	152.4
816.669	54.1
816.847	62.29
817.026	97.11
817.204	21.33
817.383	21.33
817.561	15.19
817.74	88.92
817.918	35.67
818.097	84.82
818.275	148.31
818.453	109.4
818.632	131.92
818.81	176.98
818.988	27.48
819.167	84.82
819.345	17.24
819.523	31.57
819.701	37.72
819.879	72.53
820.058	45.91
820.236	78.68
820.414	70.48
820.592	72.53
820.77	74.58
820.948	60.24
821.127	9.05
821.305	115.54
821.483	43.86
821.661	62.29
821.839	45.91
822.017	41.81
822.195	64.34
822.373	47.96
822.551	47.96
822.729	99.16
822.907	41.81
823.085	64.34
823.262	-19.63
823.44	13.14
823.618	74.58
823.796	66.39
823.974	33.62
824.152	25.43
824.329	-5.29
824.507	138.07
824.685	60.24
824.863	164.69
825.04	9.05
825.218	64.34
825.396	45.91
825.574	-27.82
825.751	66.39
825.929	66.39
826.107	-7.34
826.284	117.59
826.462	21.33
826.639	66.39
826.817	-1.19
826.994	80.72
827.172	45.91
827.349	109.4
827.527	25.43
827.704	47.96
827.882	136.02
828.059	80.72
828.237	68.44
828.414	101.2
828.591	70.48
828.769	64.34
828.946	54.1
829.124	21.33
829.301	123.73
829.478	31.57
829.655	27.48
829.833	23.38
830.01	43.86
830.187	60.24
830.364	74.58
830.542	86.87
830.719	35.67
830.896	52.05
831.073	37.72
831.25	-7.34
831.427	70.48
831.604	72.53
831.782	4.95
831.959	37.72
832.136	95.06
832.313	66.39
832.49	60.24
832.667	54.1
832.844	25.43
833.021	29.52
833.198	13.14
833.374	129.88
833.551	23.38
833.728	105.3
833.905	35.67
834.082	62.29
834.259	115.54
834.436	52.05
834.612	-5.29
834.789	56.15
834.966	-1.19
835.143	86.87
835.319	-17.58
835.496	45.91
835.673	93.01
835.85	162.64
836.026	23.38
836.203	15.19
836.38	60.24
836.556	88.92
836.733	-36.01
836.909	29.52
837.086	74.58
837.262	23.38
837.439	9.05
837.616	15.19
837.792	54.1
837.968	0.85
838.145	-36.01
838.321	80.72
838.498	-1.19
838.674	97.11
838.851	90.96
839.027	-93.35
839.203	7
839.38	60.24
839.556	82.77
839.732	23.38
839.909	11.09
840.085	64.34
840.261	25.43
840.437	39.76
840.614	72.53
840.79	7
840.966	45.91
841.142	29.52
841.318	-11.43
841.494	43.86
841.671	-1.19
841.847	99.16
842.023	29.52
842.199	47.96
842.375	35.67
842.551	13.14
842.727	78.68
842.903	90.96
843.079	50
843.255	70.48
843.431	78.68
843.607	56.15
843.783	-13.48
843.959	93.01
844.134	43.86
844.31	2.9
844.486	-7.34
844.662	41.81
844.838	-25.77
845.013	13.14
845.189	54.1
845.365	58.2
845.541	35.67
845.716	-33.96
845.892	-46.25
846.068	50
846.244	-13.48
846.419	50
846.595	23.38
846.77	15.19
846.946	78.68
847.122	-3.24
847.297	-15.53
847.473	-23.72
847.648	4.95
847.824	66.39
847.999	11.09
848.175	41.81
848.35	15.19
848.526	11.09
848.701	29.52
848.876	2.9
849.052	86.87
849.227	62.29
849.403	66.39
849.578	45.91
849.753	-5.29
849.929	68.44
850.104	0.85
850.279	37.72
850.454	129.88
850.63	-17.58
850.805	31.57
850.98	35.67
851.155	2.9
851.33	37.72
851.505	-27.82
851.681	17.24
851.856	-13.48
852.031	86.87
852.206	25.43
852.381	56.15
852.556	39.76
852.731	56.15
852.906	27.48
853.081	52.05
853.256	15.19
853.431	23.38
853.606	-74.92
853.781	78.68
853.956	17.24
854.131	95.06
854.305	-7.34
854.48	13.14
854.655	-9.39
854.83	41.81
855.005	29.52
855.18	-1.19
855.354	-7.34
855.529	23.38
855.704	-9.39
855.879	56.15
856.053	-27.82
856.228	117.59
856.403	-48.3
856.577	-23.72
856.752	11.09
856.926	19.29
857.101	11.09
857.276	23.38
857.45	-1.19
857.625	111.44
857.799	35.67
857.974	-21.67
858.148	17.24
858.323	50
858.497	29.52
858.672	45.91
858.846	-13.48
859.02	95.06
859.195	4.95
859.369	-5.29
859.543	74.58
859.718	-9.39
859.892	39.76
860.066	74.58
860.241	29.52
860.415	31.57
860.589	13.14
860.763	82.77
860.938	0.85
861.112	45.91
861.286	80.72
861.46	56.15
861.634	-36.01
861.808	84.82
861.982	88.92
862.157	-11.43
862.331	52.05
862.505	-27.82
862.679	-3.24
862.853	7
863.027	-25.77
863.201	88.92
863.375	82.77
863.549	-5.29
863.722	31.57
863.896	7
864.07	19.29
864.244	-7.34
864.418	-3.24
864.592	58.2
864.766	64.34
864.939	17.24
865.113	19.29
865.287	-5.29
865.461	-31.91
865.634	-48.3
865.808	41.81
865.982	-33.96
866.156	-3.24
866.329	11.09
866.503	-46.25
866.676	-11.43
866.85	9.05
867.024	35.67
867.197	-54.44
867.371	-3.24
867.544	62.29
867.718	54.1
867.891	17.24
868.065	56.15
868.238	47.96
868.412	-3.24
868.585	37.72
868.759	13.14
868.932	60.24
869.105	15.19
869.279	50
869.452	0.85
869.625	-3.24
869.799	-3.24
869.972	19.29
870.145	9.05
870.319	-46.25
870.492	84.82
870.665	15.19
870.838	-11.43
871.011	-29.87
871.185	11.09
871.358	121.68
871.531	52.05
871.704	-13.48
871.877	25.43
872.05	0.85
872.223	-1.19
872.396	21.33
872.569	-36.01
872.742	-31.91
872.915	33.62
873.088	45.91
873.261	-7.34
873.434	54.1
873.607	78.68
873.78	-72.87
873.953	-29.87
874.126	15.19
874.299	7
874.471	-23.72
874.644	21.33
874.817	7
874.99	29.52
875.163	11.09
875.335	23.38
875.508	-60.59
875.681	4.95
875.853	-44.2
876.026	52.05
876.199	-36.01
876.371	-42.15
876.544	2.9
876.717	15.19
876.889	-48.3
877.062	19.29
877.234	-23.72
877.407	82.77
877.579	0.85
877.752	0.85
877.924	2.9
878.097	72.53
878.269	31.57
878.442	-5.29
878.614	-7.34
878.786	78.68
878.959	-29.87
879.131	4.95
879.303	-3.24
879.476	37.72
879.648	-29.87
879.82	-54.44
879.993	9.05
880.165	-50.35
880.337	39.76
880.509	-3.24
880.681	-15.53
880.854	29.52
881.026	-31.91
881.198	2.9
881.37	-54.44
881.542	45.91
881.714	52.05
881.886	31.57
882.058	-64.68
882.23	11.09
882.402	-38.06
882.574	-21.67
882.746	-33.96
882.918	43.86
883.09	0.85
883.262	33.62
883.434	-5.29
883.606	-62.63
883.778	-19.63
883.95	21.33
884.122	7
884.293	37.72
884.465	-64.68
884.637	-9.39
884.809	9.05
884.98	21.33
885.152	109.4
885.324	-1.19
885.496	50
885.667	19.29
885.839	7
886.011	15.19
886.182	-19.63
886.354	74.58
886.525	-31.91
886.697	-5.29
886.869	43.86
887.04	33.62
887.212	-29.87
887.383	-3.24
887.555	-74.92
887.726	-3.24
887.897	-60.59
888.069	70.48
888.24	15.19
888.412	31.57
888.583	-31.91
888.754	39.76
888.926	13.14
889.097	41.81
889.268	-7.34
889.44	-33.96
889.611	25.43
889.782	-46.25
889.953	0.85
890.125	-23.72
890.296	15.19
890.467	58.2
890.638	-72.87
890.809	37.72
890.98	33.62
891.151	64.34
891.323	41.81
891.494	31.57
891.665	35.67
891.836	35.67
892.007	50
892.178	-9.39
892.349	58.2
892.52	74.58
892.691	-13.48
892.862	17.24
893.032	27.48
893.203	-19.63
893.374	23.38
893.545	84.82
893.716	-9.39
893.887	-25.77
894.057	31.57
894.228	17.24
894.399	-9.39
894.57	-9.39
894.74	-44.2
894.911	11.09
895.082	-29.87
895.253	39.76
895.423	41.81
895.594	19.29
895.764	-40.11
895.935	4.95
896.106	0.85
896.276	19.29
896.447	21.33
896.617	27.48
896.788	-1.19
896.958	33.62
897.129	31.57
897.299	54.1
897.47	7
897.64	47.96
897.81	78.68
897.981	31.57
898.151	-54.44
898.322	-9.39
898.492	-40.11
898.662	33.62
898.832	17.24
899.003	-25.77
899.173	-23.72
899.343	-9.39
899.513	39.76
