Data from USB4F104151__179__13-59-01-351.txt Node

Date: Thu Mar 13 13:59:01 EDT 2025
User: louis
Spectrometer: USB4F10415
Trigger mode: 4
Integration Time (sec): 1.000000E-2
Scans to average: 1
Electric dark correction enabled: true
Nonlinearity correction enabled: false
Boxcar width: 0
XAxis mode: Wavelengths
Number of Pixels in Spectrum: 3648
>>>>>Begin Spectral Data<<<<<
178.204	-8.7
178.424	-8.7
178.644	-8.7
178.864	-90.62
179.084	-51.71
179.304	-20.99
179.524	13.82
179.744	17.92
179.964	9.73
180.184	-8.7
180.404	26.11
180.624	26.11
180.844	1.54
181.064	-20.99
181.283	24.06
181.503	-53.76
181.723	-14.85
181.943	-82.43
182.163	38.4
182.383	-18.94
182.602	1.54
182.822	38.4
183.042	-25.09
183.262	89.6
183.482	52.74
183.701	7.68
183.921	30.21
184.141	1.54
184.361	-8.7
184.58	73.21
184.8	11.78
185.02	-74.24
185.239	26.11
185.459	3.58
185.679	56.83
185.898	50.69
186.118	-27.14
186.338	-10.75
186.557	5.63
186.777	-12.8
186.997	26.11
187.216	48.64
187.436	95.74
187.655	24.06
187.875	-39.42
188.095	-31.23
188.314	38.4
188.534	75.26
188.753	-43.52
188.973	-53.76
189.192	30.21
189.412	22.02
189.631	95.74
189.851	62.98
190.07	46.59
190.29	-12.8
190.509	75.26
190.729	-10.75
190.948	9.73
191.168	103.93
191.387	-0.51
191.607	75.26
191.826	22.02
192.045	-16.9
192.265	60.93
192.484	-8.7
192.704	128.51
192.923	38.4
193.142	103.93
193.362	56.83
193.581	5.63
193.8	22.02
194.02	-2.56
194.239	50.69
194.458	50.69
194.678	30.21
194.897	17.92
195.116	48.64
195.335	54.78
195.555	28.16
195.774	32.26
195.993	32.26
196.212	32.26
196.432	-18.94
196.651	54.78
196.87	-51.71
197.089	-35.33
197.308	13.82
197.528	73.21
197.747	-76.29
197.966	62.98
198.185	122.37
198.404	46.59
198.623	60.93
198.842	60.93
199.062	32.26
199.281	85.5
199.5	15.87
199.719	-33.28
199.938	22.02
200.157	75.26
200.376	-27.14
200.595	30.21
200.814	81.41
201.033	-10.75
201.252	-18.94
201.471	13.82
201.69	-31.23
201.909	46.59
202.128	-51.71
202.347	-33.28
202.566	-35.33
202.785	24.06
203.004	22.02
203.223	95.74
203.442	34.3
203.661	46.59
203.879	-16.9
204.098	32.26
204.317	-8.7
204.536	17.92
204.755	30.21
204.974	17.92
205.193	24.06
205.411	101.89
205.63	-16.9
205.849	40.45
206.068	32.26
206.287	69.12
206.505	26.11
206.724	30.21
206.943	32.26
207.162	15.87
207.381	3.58
207.599	34.3
207.818	34.3
208.037	-10.75
208.255	-35.33
208.474	9.73
208.693	17.92
208.911	87.55
209.13	-64
209.349	71.17
209.567	71.17
209.786	19.97
210.005	56.83
210.223	110.08
210.442	-35.33
210.661	54.78
210.879	42.5
211.098	65.02
211.316	34.3
211.535	91.65
211.753	-16.9
211.972	24.06
212.191	24.06
212.409	-2.56
212.628	17.92
212.846	46.59
213.065	-39.42
213.283	3.58
213.502	-4.61
213.72	5.63
213.938	48.64
214.157	9.73
214.375	87.55
214.594	75.26
214.812	124.41
215.031	38.4
215.249	67.07
215.467	56.83
215.686	15.87
215.904	32.26
216.122	40.45
216.341	58.88
216.559	46.59
216.778	24.06
216.996	120.32
217.214	19.97
217.432	38.4
217.651	44.54
217.869	26.11
218.087	24.06
218.306	30.21
218.524	-45.57
218.742	28.16
218.96	11.78
219.179	9.73
219.397	62.98
219.615	44.54
219.833	-18.94
220.051	28.16
220.27	79.36
220.488	97.79
220.706	36.35
220.924	81.41
221.142	-43.52
221.36	7.68
221.578	-33.28
221.796	48.64
222.015	50.69
222.233	-27.14
222.451	58.88
222.669	1.54
222.887	42.5
223.105	42.5
223.323	46.59
223.541	79.36
223.759	-8.7
223.977	3.58
224.195	48.64
224.413	-14.85
224.631	48.64
224.849	34.3
225.067	-10.75
225.285	40.45
225.503	46.59
225.721	-23.04
225.939	-25.09
226.157	89.6
226.375	73.21
226.592	44.54
226.81	-4.61
227.028	13.82
227.246	56.83
227.464	-66.05
227.682	-2.56
227.9	13.82
228.117	83.45
228.335	50.69
228.553	30.21
228.771	44.54
228.989	13.82
229.206	34.3
229.424	-0.51
229.642	67.07
229.86	13.82
230.077	13.82
230.295	46.59
230.513	91.65
230.731	38.4
230.948	32.26
231.166	-47.62
231.384	26.11
231.601	-0.51
231.819	42.5
232.037	34.3
232.254	-27.14
232.472	3.58
232.689	58.88
232.907	77.31
233.125	13.82
233.342	-33.28
233.56	38.4
233.777	103.93
233.995	-10.75
234.213	1.54
234.43	5.63
234.648	44.54
234.865	32.26
235.083	71.17
235.3	-35.33
235.518	38.4
235.735	-0.51
235.953	-14.85
236.17	54.78
236.388	114.17
236.605	38.4
236.822	3.58
237.04	24.06
237.257	5.63
237.475	-4.61
237.692	28.16
237.909	22.02
238.127	13.82
238.344	87.55
238.562	-4.61
238.779	60.93
238.996	17.92
239.214	32.26
239.431	34.3
239.648	13.82
239.865	85.5
240.083	67.07
240.3	5.63
240.517	26.11
240.735	30.21
240.952	54.78
241.169	62.98
241.386	19.97
241.603	-8.7
241.821	-20.99
242.038	28.16
242.255	36.35
242.472	46.59
242.689	3.58
242.907	13.82
243.124	58.88
243.341	19.97
243.558	-2.56
243.775	-16.9
243.992	34.3
244.209	-0.51
244.426	54.78
244.643	99.84
244.86	75.26
245.078	24.06
245.295	-6.66
245.512	73.21
245.729	40.45
245.946	38.4
246.163	11.78
246.38	69.12
246.597	-6.66
246.814	75.26
247.031	-20.99
247.248	13.82
247.464	13.82
247.681	28.16
247.898	62.98
248.115	17.92
248.332	-2.56
248.549	62.98
248.766	54.78
248.983	79.36
249.2	17.92
249.417	-25.09
249.633	-2.56
249.85	81.41
250.067	1.54
250.284	22.02
250.501	-6.66
250.717	48.64
250.934	1.54
251.151	5.63
251.368	114.17
251.585	50.69
251.801	22.02
252.018	-0.51
252.235	-10.75
252.451	15.87
252.668	30.21
252.885	17.92
253.102	3.58
253.318	-6.66
253.535	32.26
253.752	13.82
253.968	-2.56
254.185	69.12
254.401	-31.23
254.618	32.26
254.835	-29.18
255.051	3.58
255.268	56.83
255.484	-6.66
255.701	28.16
255.917	5.63
256.134	40.45
256.351	40.45
256.567	-2.56
256.784	77.31
257	-10.75
257.217	32.26
257.433	5.63
257.65	87.55
257.866	87.55
258.082	-20.99
258.299	13.82
258.515	40.45
258.732	79.36
258.948	5.63
259.165	56.83
259.381	-25.09
259.597	36.35
259.814	22.02
260.03	71.17
260.246	15.87
260.463	-39.42
260.679	52.74
260.895	-43.52
261.112	58.88
261.328	32.26
261.544	19.97
261.761	75.26
261.977	24.06
262.193	30.21
262.409	36.35
262.626	-23.04
262.842	110.08
263.058	3.58
263.274	3.58
263.49	24.06
263.707	-27.14
263.923	75.26
264.139	79.36
264.355	-6.66
264.571	112.13
264.787	34.3
265.004	-8.7
265.22	99.84
265.436	71.17
265.652	9.73
265.868	65.02
266.084	7.68
266.3	65.02
266.516	7.68
266.732	71.17
266.948	62.98
267.164	58.88
267.38	24.06
267.596	24.06
267.812	58.88
268.028	65.02
268.244	46.59
268.46	44.54
268.676	15.87
268.892	17.92
269.108	-27.14
269.324	40.45
269.54	-8.7
269.756	32.26
269.972	58.88
270.188	38.4
270.403	19.97
270.619	85.5
270.835	40.45
271.051	9.73
271.267	85.5
271.483	26.11
271.698	40.45
271.914	56.83
272.13	40.45
272.346	-16.9
272.562	7.68
272.777	62.98
272.993	-4.61
273.209	87.55
273.425	56.83
273.64	46.59
273.856	77.31
274.072	48.64
274.287	48.64
274.503	-16.9
274.719	46.59
274.934	75.26
275.15	22.02
275.366	15.87
275.581	1.54
275.797	32.26
276.012	65.02
276.228	120.32
276.444	79.36
276.659	87.55
276.875	5.63
277.09	50.69
277.306	50.69
277.521	15.87
277.737	28.16
277.952	108.03
278.168	5.63
278.383	11.78
278.599	38.4
278.814	22.02
279.03	1.54
279.245	91.65
279.461	7.68
279.676	103.93
279.892	5.63
280.107	-2.56
280.322	-16.9
280.538	60.93
280.753	50.69
280.969	-18.94
281.184	3.58
281.399	-12.8
281.615	46.59
281.83	32.26
282.045	-31.23
282.26	60.93
282.476	-18.94
282.691	32.26
282.906	71.17
283.122	71.17
283.337	60.93
283.552	19.97
283.767	36.35
283.983	110.08
284.198	-25.09
284.413	9.73
284.628	24.06
284.843	54.78
285.058	67.07
285.274	15.87
285.489	3.58
285.704	65.02
285.919	13.82
286.134	65.02
286.349	28.16
286.564	34.3
286.779	5.63
286.995	9.73
287.21	-29.18
287.425	40.45
287.64	7.68
287.855	28.16
288.07	22.02
288.285	42.5
288.5	60.93
288.715	-16.9
288.93	46.59
289.145	7.68
289.36	40.45
289.575	38.4
289.79	11.78
290.004	67.07
290.219	75.26
290.434	-8.7
290.649	-12.8
290.864	79.36
291.079	28.16
291.294	95.74
291.509	7.68
291.724	62.98
291.938	15.87
292.153	56.83
292.368	54.78
292.583	83.45
292.798	-31.23
293.012	34.3
293.227	9.73
293.442	75.26
293.657	73.21
293.871	85.5
294.086	13.82
294.301	122.37
294.516	-0.51
294.73	30.21
294.945	-4.61
295.16	17.92
295.374	-8.7
295.589	13.82
295.804	-23.04
296.018	75.26
296.233	5.63
296.447	30.21
296.662	56.83
296.877	7.68
297.091	38.4
297.306	54.78
297.52	13.82
297.735	71.17
297.949	58.88
298.164	-4.61
298.378	36.35
298.593	36.35
298.807	-2.56
299.022	71.17
299.236	38.4
299.451	71.17
299.665	-55.81
299.88	101.89
300.094	11.78
300.309	42.5
300.523	38.4
300.737	52.74
300.952	11.78
301.166	-25.09
301.381	60.93
301.595	52.74
301.809	54.78
302.024	93.69
302.238	46.59
302.452	7.68
302.667	46.59
302.881	15.87
303.095	-10.75
303.309	15.87
303.524	48.64
303.738	22.02
303.952	7.68
304.166	38.4
304.381	-25.09
304.595	95.74
304.809	58.88
305.023	30.21
305.237	81.41
305.452	19.97
305.666	95.74
305.88	105.98
306.094	-29.18
306.308	73.21
306.522	28.16
306.736	38.4
306.95	165.37
307.164	9.73
307.379	32.26
307.593	95.74
307.807	122.37
308.021	56.83
308.235	62.98
308.449	46.59
308.663	19.97
308.877	62.98
309.091	13.82
309.305	56.83
309.519	-25.09
309.733	-10.75
309.947	73.21
310.161	24.06
310.374	28.16
310.588	87.55
310.802	15.87
311.016	26.11
311.23	11.78
311.444	40.45
311.658	1.54
311.872	112.13
312.085	44.54
312.299	56.83
312.513	34.3
312.727	65.02
312.941	44.54
313.154	13.82
313.368	38.4
313.582	24.06
313.796	50.69
314.009	40.45
314.223	40.45
314.437	77.31
314.651	24.06
314.864	26.11
315.078	7.68
315.292	-45.57
315.505	34.3
315.719	7.68
315.933	65.02
316.146	32.26
316.36	-25.09
316.573	-4.61
316.787	19.97
317.001	1.54
317.214	1.54
317.428	52.74
317.641	52.74
317.855	101.89
318.068	22.02
318.282	15.87
318.495	91.65
318.709	30.21
318.922	30.21
319.136	40.45
319.349	24.06
319.563	22.02
319.776	44.54
319.99	56.83
320.203	15.87
320.417	71.17
320.63	46.59
320.843	-51.71
321.057	40.45
321.27	40.45
321.483	-0.51
321.697	116.22
321.91	85.5
322.124	52.74
322.337	46.59
322.55	-53.76
322.763	77.31
322.977	15.87
323.19	91.65
323.403	3.58
323.617	5.63
323.83	17.92
324.043	32.26
324.256	54.78
324.469	71.17
324.683	77.31
324.896	19.97
325.109	26.11
325.322	-10.75
325.535	38.4
325.748	52.74
325.962	65.02
326.175	32.26
326.388	30.21
326.601	9.73
326.814	32.26
327.027	28.16
327.24	-4.61
327.453	62.98
327.666	71.17
327.879	71.17
328.092	15.87
328.305	103.93
328.518	26.11
328.731	11.78
328.944	50.69
329.157	3.58
329.37	-2.56
329.583	28.16
329.796	56.83
330.009	36.35
330.222	118.27
330.435	7.68
330.648	97.79
330.861	87.55
331.073	67.07
331.286	56.83
331.499	67.07
331.712	52.74
331.925	-8.7
332.138	54.78
332.35	-12.8
332.563	67.07
332.776	87.55
332.989	30.21
333.202	56.83
333.414	112.13
333.627	48.64
333.84	46.59
334.053	91.65
334.265	46.59
334.478	-57.86
334.691	65.02
334.903	65.02
335.116	48.64
335.329	44.54
335.541	62.98
335.754	56.83
335.966	24.06
336.179	73.21
336.392	52.74
336.604	40.45
336.817	83.45
337.029	22.02
337.242	-10.75
337.454	42.5
337.667	65.02
337.88	44.54
338.092	77.31
338.305	52.74
338.517	38.4
338.729	81.41
338.942	30.21
339.154	28.16
339.367	48.64
339.579	11.78
339.792	-14.85
340.004	38.4
340.217	7.68
340.429	44.54
340.641	40.45
340.854	15.87
341.066	58.88
341.278	105.98
341.491	71.17
341.703	1.54
341.915	97.79
342.128	5.63
342.34	-14.85
342.552	60.93
342.764	13.82
342.977	81.41
343.189	26.11
343.401	91.65
343.613	9.73
343.826	24.06
344.038	-43.52
344.25	-23.04
344.462	-43.52
344.674	99.84
344.886	5.63
345.099	58.88
345.311	13.82
345.523	13.82
345.735	26.11
345.947	-10.75
346.159	54.78
346.371	34.3
346.583	17.92
346.795	62.98
347.007	26.11
347.219	114.17
347.431	-37.38
347.643	28.16
347.855	-0.51
348.067	52.74
348.279	77.31
348.491	24.06
348.703	-88.57
348.915	34.3
349.127	19.97
349.339	28.16
349.551	24.06
349.763	22.02
349.975	65.02
350.187	95.74
350.399	126.46
350.61	-33.28
350.822	32.26
351.034	36.35
351.246	30.21
351.458	89.6
351.669	52.74
351.881	56.83
352.093	56.83
352.305	65.02
352.517	163.33
352.728	91.65
352.94	44.54
353.152	26.11
353.363	-35.33
353.575	85.5
353.787	87.55
353.999	73.21
354.21	46.59
354.422	110.08
354.633	34.3
354.845	30.21
355.057	7.68
355.268	101.89
355.48	67.07
355.692	101.89
355.903	7.68
356.115	99.84
356.326	46.59
356.538	24.06
356.749	42.5
356.961	77.31
357.172	126.46
357.384	30.21
357.595	-23.04
357.807	38.4
358.018	15.87
358.23	22.02
358.441	-27.14
358.653	56.83
358.864	34.3
359.075	19.97
359.287	46.59
359.498	108.03
359.709	34.3
359.921	40.45
360.132	44.54
360.344	65.02
360.555	69.12
360.766	11.78
360.977	-82.43
361.189	101.89
361.4	99.84
361.611	89.6
361.823	38.4
362.034	69.12
362.245	26.11
362.456	9.73
362.667	73.21
362.879	-47.62
363.09	15.87
363.301	85.5
363.512	81.41
363.723	7.68
363.935	3.58
364.146	95.74
364.357	65.02
364.568	-14.85
364.779	30.21
364.99	26.11
365.201	-0.51
365.412	60.93
365.623	54.78
365.834	65.02
366.045	52.74
366.256	-8.7
366.467	56.83
366.678	81.41
366.889	-55.81
367.1	42.5
367.311	73.21
367.522	103.93
367.733	1.54
367.944	50.69
368.155	54.78
368.366	73.21
368.577	89.6
368.788	42.5
368.999	116.22
369.209	87.55
369.42	114.17
369.631	34.3
369.842	44.54
370.053	9.73
370.264	85.5
370.474	28.16
370.685	58.88
370.896	71.17
371.107	87.55
371.317	38.4
371.528	38.4
371.739	65.02
371.95	73.21
372.16	67.07
372.371	-37.38
372.582	60.93
372.792	81.41
373.003	87.55
373.214	9.73
373.424	32.26
373.635	67.07
373.846	83.45
374.056	73.21
374.267	71.17
374.477	71.17
374.688	87.55
374.898	112.13
375.109	30.21
375.319	40.45
375.53	1.54
375.74	46.59
375.951	48.64
376.161	32.26
376.372	60.93
376.582	89.6
376.793	30.21
377.003	95.74
377.214	46.59
377.424	73.21
377.635	62.98
377.845	7.68
378.055	-6.66
378.266	65.02
378.476	17.92
378.686	13.82
378.897	50.69
379.107	5.63
379.317	62.98
379.528	17.92
379.738	105.98
379.948	95.74
380.158	5.63
380.369	97.79
380.579	-8.7
380.789	105.98
380.999	46.59
381.21	75.26
381.42	30.21
381.63	-4.61
381.84	110.08
382.05	60.93
382.261	30.21
382.471	34.3
382.681	13.82
382.891	28.16
383.101	48.64
383.311	30.21
383.521	54.78
383.731	112.13
383.941	95.74
384.151	58.88
384.361	97.79
384.571	99.84
384.781	-2.56
384.991	75.26
385.201	34.3
385.411	24.06
385.621	-27.14
385.831	97.79
386.041	73.21
386.251	46.59
386.461	46.59
386.671	79.36
386.881	28.16
387.091	65.02
387.301	103.93
387.511	-2.56
387.72	34.3
387.93	50.69
388.14	56.83
388.35	67.07
388.56	124.41
388.769	46.59
388.979	124.41
389.189	105.98
389.399	110.08
389.609	69.12
389.818	22.02
390.028	114.17
390.238	93.69
390.447	103.93
390.657	159.23
390.867	42.5
391.076	30.21
391.286	75.26
391.496	114.17
391.705	46.59
391.915	34.3
392.125	56.83
392.334	44.54
392.544	42.5
392.753	3.58
392.963	60.93
393.172	87.55
393.382	69.12
393.591	89.6
393.801	89.6
394.01	161.28
394.22	15.87
394.429	79.36
394.639	-2.56
394.848	30.21
395.058	103.93
395.267	85.5
395.477	89.6
395.686	99.84
395.895	79.36
396.105	177.66
396.314	71.17
396.524	97.79
396.733	54.78
396.942	99.84
397.152	62.98
397.361	114.17
397.57	155.13
397.78	40.45
397.989	120.32
398.198	46.59
398.407	-14.85
398.617	52.74
398.826	103.93
399.035	103.93
399.244	99.84
399.453	134.65
399.663	114.17
399.872	163.33
400.081	144.89
400.29	67.07
400.499	79.36
400.708	173.57
400.917	165.37
401.127	40.45
401.336	108.03
401.545	183.81
401.754	120.32
401.963	132.61
402.172	114.17
402.381	118.27
402.59	138.75
402.799	91.65
403.008	144.89
403.217	120.32
403.426	54.78
403.635	114.17
403.844	105.98
404.053	163.33
404.262	124.41
404.471	95.74
404.68	95.74
404.888	155.13
405.097	85.5
405.306	169.47
405.515	183.81
405.724	97.79
405.933	144.89
406.142	175.61
406.35	99.84
406.559	198.14
406.768	167.42
406.977	194.05
407.185	171.52
407.394	171.52
407.603	116.22
407.812	226.81
408.02	255.48
408.229	189.95
408.438	235
408.646	194.05
408.855	253.44
409.064	249.34
409.272	243.2
409.481	286.2
409.69	220.67
409.898	267.77
410.107	255.48
410.315	243.2
410.524	284.16
410.733	304.64
410.941	294.4
411.15	398.84
411.358	351.74
411.567	384.51
411.775	327.16
411.984	435.71
412.192	339.45
412.401	409.08
412.609	349.69
412.818	435.71
413.026	439.8
413.234	372.22
413.443	435.71
413.651	472.57
413.86	472.57
414.068	491
414.276	538.1
414.485	505.34
414.693	593.4
414.901	577.02
415.11	570.87
415.318	611.83
415.526	648.69
415.734	640.5
415.943	634.36
416.151	783.86
416.359	695.8
416.567	753.14
416.776	822.77
416.984	900.59
417.192	810.48
417.4	796.15
417.608	935.41
417.817	884.21
418.025	1041.9
418.233	1033.71
418.441	998.9
418.649	1058.29
418.857	1121.77
419.065	1179.12
419.273	1027.57
419.481	1103.34
419.689	1254.89
419.897	1295.85
420.105	1226.22
420.313	1345
420.521	1330.67
420.729	1451.5
420.937	1398.25
421.145	1582.57
421.353	1697.25
421.561	1648.1
421.769	1744.36
421.977	1707.49
422.185	1754.6
422.393	1953.25
422.601	1840.61
422.809	1893.86
423.017	1977.83
423.224	1998.31
423.432	2061.79
423.64	2151.9
423.848	2215.39
424.056	2414.04
424.263	2512.35
424.471	2428.38
424.679	2434.52
424.887	2639.32
425.094	2651.61
425.302	2717.14
425.51	2737.62
425.718	2966.99
425.925	3005.91
426.133	2977.23
426.341	3227.09
426.548	3380.68
426.756	3333.58
426.964	3261.9
427.171	3501.51
427.379	3571.15
427.586	3691.98
427.794	3845.57
428.001	3966.4
428.209	4068.8
428.417	4132.29
428.624	4376
428.832	4359.61
429.039	4359.61
429.247	4363.71
429.454	4824.5
429.662	5119.41
429.869	4718.01
430.076	5143.99
430.284	5010.87
430.491	5066.16
430.699	5629.35
430.906	5756.33
431.114	5496.24
431.321	5830.06
431.528	5981.6
431.736	6438.3
431.943	6530.46
432.15	6360.48
432.358	6415.77
432.565	6806.94
432.772	6722.97
432.979	7189.91
433.187	7230.87
433.394	7185.81
433.601	7789.96
433.808	7806.34
434.016	7687.56
434.223	8136.07
434.43	8476.03
434.637	8390.02
434.844	8799.61
435.052	9018.74
435.259	8912.25
435.466	9166.2
435.673	9045.37
435.88	9563.5
436.087	9901.42
436.294	10052.97
436.501	9663.85
436.708	10089.83
436.915	10335.59
437.122	10835.29
437.329	10857.82
437.537	11074.9
437.743	11310.42
437.95	11287.89
438.157	11941.19
438.364	12133.7
438.571	12053.83
438.778	12385.6
438.985	13442.35
439.192	12717.37
439.399	13360.44
439.606	12836.16
439.813	13671.73
440.02	14613.79
440.227	14368.04
440.433	14019.88
440.64	14605.6
440.847	14492.96
441.054	14935.32
441.261	15852.81
441.467	15777.04
441.674	16098.57
441.881	16432.39
442.088	16631.04
442.294	16299.27
442.501	16608.51
442.708	17083.64
442.914	18009.33
443.121	18543.85
443.328	17984.75
443.534	19358.94
443.741	18971.87
443.948	18617.57
444.154	20098.25
444.361	19438.81
444.568	19821.78
444.774	19985.62
444.981	20235.47
445.187	20905.15
445.394	21531.83
445.6	21300.41
445.807	23413.91
446.013	22449.32
446.22	22793.38
446.426	23534.74
446.633	23966.87
446.839	24704.14
447.046	23557.27
447.252	24786.05
447.459	24927.36
447.665	24896.64
447.871	25949.3
448.078	26940.52
448.284	25781.37
448.491	26659.95
448.697	27569.24
448.903	28075.09
449.11	28337.23
449.316	27808.86
449.522	28464.21
449.728	28685.39
449.935	28873.8
450.141	29117.51
450.347	29731.9
450.553	28640.33
450.76	29035.59
450.966	29887.54
451.172	29375.55
451.378	30469.17
451.584	29776.95
451.791	30575.66
451.997	30344.24
452.203	31145
452.409	30788.65
452.615	30903.34
452.821	29584.44
453.027	29150.28
453.233	30848.04
453.44	29643.84
453.646	29897.78
453.852	30084.15
454.058	30585.9
454.264	29424.7
454.47	30301.23
454.676	29408.32
454.882	30501.93
455.088	27642.97
455.294	28462.16
455.5	28578.89
455.705	28890.18
455.911	27866.2
456.117	27268.19
456.323	26991.72
456.529	25414.78
456.735	26483.82
456.941	25984.12
457.147	25517.18
457.352	24734.85
457.558	24554.63
457.764	24364.17
457.97	24046.74
458.176	23401.63
458.381	23516.31
458.587	22287.53
458.793	22637.73
458.999	21509.3
459.204	22723.75
459.41	21845.17
459.616	20759.75
459.821	20724.93
460.027	20483.27
460.233	20237.52
460.438	19455.19
460.644	19389.66
460.85	18636
461.055	18152.68
461.261	18392.3
461.466	17177.85
461.672	16399.62
461.878	17792.24
462.083	16440.58
462.289	16266.5
462.494	16178.44
462.7	15217.94
462.905	14925.08
463.111	15709.46
463.316	15533.33
463.522	15275.29
463.727	15428.88
463.932	15090.97
464.138	15080.73
464.343	15117.59
464.549	14497.06
464.754	15107.35
464.959	14992.67
465.165	15011.1
465.37	14245.16
465.575	13985.07
465.781	14538.02
465.986	14556.45
466.191	13956.4
466.397	13655.34
466.602	12959.03
466.807	13501.75
467.012	13526.32
467.218	13473.07
467.423	13456.69
467.628	13659.44
467.833	14095.66
468.038	13554.99
468.244	13065.53
468.449	13702.45
468.654	13274.42
468.859	13100.34
469.064	12950.84
469.269	12406.08
469.474	12748.09
469.679	13057.34
469.885	12604.74
470.09	12424.51
470.295	12717.37
470.5	12336.45
470.705	12520.77
470.91	12031.3
471.115	12008.78
471.32	12139.85
471.525	12160.33
471.73	11806.03
471.935	11693.39
472.139	11318.61
472.344	11732.3
472.549	11351.38
472.754	11273.56
472.959	11109.72
473.164	10782.04
473.369	10808.67
473.574	11218.26
473.778	11122.01
473.983	11009.37
474.188	10728.8
474.393	10265.96
474.598	10470.75
474.802	10343.78
475.007	10253.67
475.212	10327.39
475.417	9723.24
475.621	9915.75
475.826	9981.29
476.031	9751.92
476.235	9600.37
476.44	9678.19
476.645	9538.93
476.849	9504.11
477.054	9405.81
477.259	9364.85
477.463	9160.05
477.668	8953.21
477.872	9227.64
478.077	8969.59
478.282	8547.71
478.486	8787.32
478.691	8832.38
478.895	8594.81
479.1	8672.64
479.304	8707.45
479.509	8408.45
479.713	8549.76
479.918	8410.5
480.122	7992.71
480.326	8363.39
480.531	8385.92
480.735	8289.67
480.94	8123.78
481.144	8430.98
481.348	7982.47
481.553	8168.84
481.757	7959.94
481.961	8134.02
482.166	8193.41
482.37	8134.02
482.574	7943.56
482.778	7863.69
482.983	8009.09
483.187	8043.91
483.391	7978.37
483.595	7908.74
483.8	7980.42
484.004	7933.32
484.208	8058.25
484.412	7902.6
484.616	8076.68
484.821	8209.79
485.025	7826.82
485.229	8031.62
485.433	7961.99
485.637	7943.56
485.841	7851.4
486.045	7910.79
486.249	8084.87
486.453	7957.89
486.657	7988.61
486.861	8166.79
487.065	7837.06
487.269	8093.06
487.473	7869.83
487.677	7957.89
487.881	8105.35
488.085	7916.94
488.289	8187.27
488.493	7970.18
488.697	8013.19
488.901	8013.19
489.105	8148.36
489.309	8152.45
489.512	8244.61
489.716	8019.33
489.92	8123.78
490.124	8138.12
490.328	8371.58
490.531	8230.27
490.735	8392.06
490.939	8328.58
491.143	8041.86
491.346	8291.71
491.55	8355.2
491.754	8580.48
491.958	8488.32
492.161	8394.11
492.365	8605.05
492.569	8486.27
492.772	8521.09
492.976	8748.41
493.18	8904.06
493.383	8779.13
493.587	8691.07
493.79	8985.97
493.994	8797.56
494.197	8826.23
494.401	8971.64
494.605	8932.73
494.808	9106.81
495.012	9293.17
495.215	8965.5
495.419	9448.82
495.622	9436.53
495.825	9526.64
496.029	9414
496.232	9657.71
496.436	9676.14
496.639	9803.11
496.843	9985.38
497.046	9962.86
497.249	10181.99
497.453	10163.56
497.656	10450.27
497.859	10603.87
498.063	10597.73
498.266	10734.94
498.469	10556.77
498.673	10847.58
498.876	11072.86
499.079	11050.33
499.282	11160.92
499.485	11275.6
499.689	11308.37
499.892	11547.98
500.095	11441.49
500.298	12033.35
500.501	11992.39
500.705	11898.19
500.908	12483.91
501.111	12408.13
501.314	12633.41
501.517	12639.55
501.72	12694.85
501.923	12744
502.126	13268.28
502.329	13229.37
502.532	13655.34
502.735	13649.2
502.938	13882.67
503.141	13753.65
503.344	14206.25
503.547	14210.34
503.75	14652.7
503.953	14503.2
504.156	14761.25
504.359	14892.32
504.562	14912.8
504.765	15482.13
504.968	15473.94
505.17	15729.94
505.373	15768.85
505.576	16059.66
505.779	16297.22
505.982	16319.75
506.185	16805.12
506.387	17007.87
506.59	17003.77
506.793	17353.98
506.996	17296.63
507.198	17755.38
507.401	18027.76
507.604	18109.68
507.807	18773.22
508.009	18439.4
508.212	18562.28
508.415	19061.98
508.617	19393.75
508.82	19465.43
509.022	19432.66
509.225	19657.94
509.428	19977.42
509.63	20180.17
509.833	20563.14
510.035	20788.42
510.238	20647.11
510.44	21316.79
510.643	21294.27
510.845	21996.72
511.048	21609.65
511.25	22009.01
511.453	22168.75
511.655	23067.81
511.858	22779.04
512.06	22985.89
512.262	23389.34
512.465	23477.4
512.667	24032.4
512.87	23954.58
513.072	24319.12
513.274	24683.66
513.477	24759.43
513.679	25363.58
513.881	25572.47
514.084	25785.46
514.286	25916.53
514.488	26391.66
514.69	26856.55
514.893	27006.05
515.095	26963.04
515.297	27477.08
515.499	27679.83
515.701	28138.58
515.904	28707.91
516.106	28304.46
516.308	28992.58
516.51	29539.39
516.712	29572.16
516.914	29881.4
517.116	30239.79
517.318	30362.67
517.52	30626.86
517.722	31159.33
517.925	31116.33
518.127	31693.85
518.329	31921.18
518.531	31886.36
518.733	32642.06
518.935	32904.2
519.136	32875.53
519.338	33543.17
519.54	33483.78
519.742	33883.13
519.944	34284.53
520.146	34823.15
520.348	34771.95
520.55	34694.13
520.752	35421.16
520.954	35890.14
521.155	35640.29
521.357	36080.6
521.559	36774.86
521.761	37014.48
521.963	37133.26
522.164	37241.8
522.366	37630.91
522.568	37878.72
522.77	38208.44
522.971	39039.92
523.173	38499.25
523.375	39017.39
523.576	38648.75
523.778	38931.37
523.98	39707.55
524.181	39678.88
524.383	40164.25
524.584	40643.48
524.786	40487.83
524.988	40278.94
525.189	40897.42
525.391	40919.95
525.592	41343.88
525.794	41460.62
525.995	41753.47
526.197	41747.33
526.398	41669.51
526.6	42619.77
526.801	42492.79
527.003	42851.19
527.204	42658.68
527.406	43072.37
527.607	43000.69
527.808	43537.26
528.01	43060.08
528.211	43602.79
528.412	44565.34
528.614	43952.99
528.815	43934.56
529.016	44370.78
529.218	44446.55
529.419	44268.38
529.62	44262.24
529.822	44059.49
530.023	44280.67
530.224	44505.94
530.425	44491.61
530.626	44520.28
530.828	44280.67
531.029	45216.59
531.23	44563.29
531.431	44950.35
531.632	45267.79
531.833	45384.52
532.035	44946.26
532.236	45318.99
532.437	45902.66
532.638	45183.82
532.839	45501.26
533.04	45667.14
533.241	45081.42
533.442	46195.52
533.643	45878.08
533.844	46222.14
534.045	45572.94
534.246	44903.25
534.447	45968.19
534.648	45706.05
534.849	45933.38
535.05	45570.89
535.251	46199.62
535.451	46039.87
535.652	46089.02
535.853	45742.92
536.054	46123.84
536.255	46410.56
536.456	45886.28
536.657	46222.14
536.857	45951.81
537.058	46009.15
537.259	45980.48
537.46	46117.7
537.66	46175.04
537.861	46093.12
538.062	45828.93
538.263	46074.69
538.463	46095.17
538.664	45409.1
538.865	46134.08
539.065	46400.32
539.266	45349.71
539.466	46435.13
539.667	45898.56
539.868	46666.55
540.068	46072.64
540.269	46216
540.469	46703.42
540.67	46025.54
540.87	46193.47
541.071	45947.71
541.271	46320.45
541.472	46158.66
541.672	46132.03
541.873	45835.08
542.073	45642.57
542.274	46594.87
542.474	45679.43
542.675	45845.32
542.875	46373.69
543.075	45962.05
543.276	45876.04
543.476	46342.97
543.676	45669.19
543.877	46515
544.077	46201.66
544.277	45591.37
544.478	45925.19
544.678	46199.62
544.878	45927.24
545.078	46504.76
545.279	45871.94
545.479	45865.8
545.679	46056.26
545.879	46134.08
546.079	46068.55
546.28	45972.29
546.48	45648.71
546.68	45699.91
546.88	46052.16
547.08	45634.38
547.28	46093.12
547.48	45822.79
547.68	45892.42
547.88	45724.49
548.081	46326.59
548.281	45822.79
548.481	45769.54
548.681	46158.66
548.881	46089.02
549.081	45620.04
549.28	45460.3
549.48	46193.47
549.68	45730.63
549.88	46744.37
550.08	45820.74
550.28	46072.64
550.48	45783.88
550.68	46123.84
550.88	45622.09
551.08	45865.8
551.279	45753.16
551.479	45683.53
551.679	45747.01
551.879	45329.23
552.079	46504.76
552.278	45906.76
552.478	45722.44
552.678	45787.97
552.878	45863.75
553.077	45742.92
553.277	45527.88
553.477	46244.67
553.676	45325.13
553.876	45413.2
554.076	45493.07
554.275	45060.94
554.475	45026.13
554.674	45286.22
554.874	45656.9
555.074	45093.71
555.273	45482.83
555.473	45701.96
555.672	45151.06
555.872	45140.82
556.071	44958.55
556.271	45347.66
556.47	45146.96
556.67	44630.87
556.869	45286.22
557.068	45382.48
557.268	44823.38
557.467	44913.49
557.667	44446.55
557.866	44958.55
558.065	44872.53
558.265	45013.84
558.464	44542.81
558.663	44735.32
558.863	44438.36
559.062	45067.09
559.261	44088.16
559.461	44884.82
559.66	44325.72
559.859	44368.73
560.058	43993.95
560.258	44221.28
560.457	44039.01
560.656	44299.1
560.855	44049.25
561.054	44190.56
561.253	43770.72
561.453	44252
561.652	43866.98
561.851	44088.16
562.05	43510.63
562.249	43606.89
562.448	44024.67
562.647	43492.2
562.846	43733.86
563.045	43647.85
563.244	43156.33
563.443	43907.94
563.642	43117.42
563.841	43602.79
564.04	42998.64
564.239	43869.03
564.438	42951.54
564.637	43383.66
564.836	42931.06
565.035	42875.76
565.234	43160.43
565.432	42457.98
565.631	42347.39
565.83	43185.01
566.029	42453.88
566.228	42535.8
566.427	42584.95
566.625	42206.08
566.824	41730.95
567.023	42451.83
567.222	41487.24
567.42	42331
567.619	42259.32
567.818	41630.6
568.016	41970.56
568.215	42484.6
568.414	41970.56
568.612	42066.81
568.811	41456.52
569.01	41685.89
569.208	41147.28
569.407	41755.52
569.605	40835.98
569.804	41470.86
570.002	41014.16
570.201	41030.54
570.4	40846.22
570.598	40684.44
570.797	40170.4
570.995	40749.97
571.193	40184.73
571.392	40903.57
571.59	40231.83
571.789	40350.62
571.987	40094.62
572.186	39842.72
572.384	40080.28
572.582	40094.62
572.781	39834.53
572.979	39343.02
573.177	39496.61
573.376	39654.31
573.574	39078.83
573.772	39596.96
573.971	38939.57
574.169	38644.66
574.367	38738.86
574.565	38964.14
574.763	38747.06
574.962	38675.38
575.16	38759.34
575.358	38628.27
575.556	38208.44
575.754	39091.12
575.952	38134.71
576.151	38060.99
576.349	37628.87
576.547	37936.06
576.745	37966.78
576.943	37778.37
577.141	37483.46
577.339	37571.52
577.537	37256.14
577.735	37358.53
577.933	37282.76
578.131	37354.44
578.329	37039.05
578.527	37155.79
578.725	37092.3
578.923	37086.15
579.121	36701.14
579.319	36520.91
579.516	36721.62
579.714	36512.72
579.912	36281.3
580.11	36135.9
580.308	36172.76
580.506	36330.45
580.704	35654.62
580.901	36074.46
581.099	36082.65
581.297	35847.13
581.495	35525.6
581.692	35752.93
581.89	35011.56
582.088	35351.52
582.285	35511.27
582.483	35369.96
582.681	35173.35
582.878	35144.68
583.076	34614.26
583.274	34958.31
583.471	34554.86
583.669	34702.32
583.866	34591.73
584.064	34558.96
584.262	33999.87
584.459	34411.51
584.657	34012.15
584.854	34331.64
585.052	33901.56
585.249	34145.27
585.447	34049.02
585.644	33641.47
585.841	33170.44
586.039	33965.05
586.236	33205.25
586.434	33309.7
586.631	33041.42
586.828	33342.47
587.026	33164.29
587.223	33039.37
587.42	32992.26
587.618	32697.36
587.815	32363.54
588.012	32285.72
588.21	32758.8
588.407	32601.1
588.604	32463.89
588.801	32046.1
588.999	31808.54
589.196	32166.93
589.393	31970.33
589.59	32089.11
589.787	31906.84
589.984	31454.24
590.182	31228.96
590.379	31427.62
590.576	31581.21
590.773	31388.71
590.97	31405.09
591.167	31429.66
591.364	30559.28
591.561	31282.21
591.758	30727.21
591.955	31030.31
592.152	31095.85
592.349	30360.62
592.546	30964.78
592.743	30377.01
592.94	30170.16
593.137	30596.14
593.334	30284.85
593.531	30075.96
593.727	30219.31
593.924	30319.67
594.121	29838.39
594.318	29981.75
594.515	29660.22
594.712	29744.19
594.908	29463.61
595.105	29391.94
595.302	29795.39
595.499	29576.25
595.696	29307.97
595.892	28922.95
596.089	29428.8
596.286	29277.25
596.482	29101.12
596.679	28759.11
596.876	29013.06
597.072	28693.58
597.269	28879.94
597.466	28419.15
597.662	28384.33
597.859	28613.71
598.055	28261.46
598.252	28339.28
598.448	28034.13
598.645	28081.24
598.841	27935.83
599.038	28224.59
599.234	28005.46
599.431	27624.54
599.627	27771.99
599.824	27874.39
600.02	27274.34
600.217	27417.69
600.413	27454.56
600.609	27235.42
600.806	27100.26
601.002	27198.56
601.198	26911.85
601.395	26895.46
601.591	27036.77
601.787	26676.33
601.984	26915.94
602.18	27278.43
602.376	26582.12
602.572	26461.29
602.769	26410.09
602.965	26178.67
603.161	26385.52
603.357	26299.5
603.553	25932.92
603.75	25891.96
603.946	25777.27
604.142	25777.27
604.338	25693.3
604.534	25685.11
604.73	25517.18
604.926	25697.4
605.122	25402.49
605.318	25461.88
605.514	25257.09
605.71	25007.23
605.906	25080.96
606.102	24953.99
606.298	24730.76
606.494	24861.83
606.69	24880.26
606.886	24704.14
607.082	24634.5
607.278	24638.6
607.474	24149.14
607.67	24571.02
607.866	23946.39
608.062	24646.79
608.257	24147.09
608.453	23983.25
608.649	24007.83
608.845	24220.81
609.041	23887
609.236	23919.76
609.432	23553.18
609.628	23846.04
609.824	23700.63
610.019	23512.22
610.215	23514.27
610.411	23499.93
610.606	23307.42
610.802	23229.6
610.998	23266.46
611.193	23305.37
611.389	23327.9
611.584	23194.78
611.78	22826.15
611.976	22906.02
612.171	22660.26
612.367	22979.75
612.562	22508.71
612.758	22455.47
612.953	22332.59
613.149	22705.32
613.344	22359.21
613.539	22584.49
613.735	22320.3
613.93	22123.69
614.126	22119.6
614.321	22457.51
614.517	22297.77
614.712	22344.88
614.907	22060.21
615.103	22213.81
615.298	21994.67
615.493	21970.1
615.688	21585.08
615.884	22099.12
616.079	21683.38
616.274	21585.08
616.47	21355.71
616.665	21454.01
616.86	21462.2
617.055	21710
617.25	21343.42
617.445	21865.65
617.641	20913.34
617.836	21411
618.031	21157.05
618.226	21241.02
618.421	20712.64
618.616	20995.26
618.811	20620.49
619.006	20894.91
619.201	20448.46
619.396	20640.97
619.591	20331.72
619.786	20552.9
619.981	20174.03
620.176	20131.02
620.371	19961.04
620.566	20384.97
620.761	20090.06
620.956	20104.4
621.151	19449.05
621.346	19993.81
621.541	19653.84
621.735	19481.81
621.93	19176.67
622.125	19490.01
622.32	19057.89
622.515	18898.14
622.709	18918.62
622.904	18910.43
623.099	18978.01
623.294	18930.91
623.488	18453.73
623.683	18701.54
623.878	18099.44
624.072	18509.03
624.267	18275.56
624.462	17988.85
624.656	17884.4
624.851	18017.52
625.046	17927.41
625.24	17636.59
625.435	17855.73
625.629	17511.67
625.824	17499.38
626.018	17161.47
626.213	17161.47
626.407	17202.43
626.602	17073.4
626.796	17077.5
626.991	16872.7
627.185	16606.47
627.38	16905.47
627.574	16385.29
627.768	16772.35
627.963	16405.77
628.157	16530.69
628.352	16454.92
628.546	16018.7
628.74	16295.18
628.935	15969.55
629.129	16102.67
629.323	15897.87
629.517	15684.88
629.712	15670.54
629.906	15731.98
630.1	15435.03
630.294	15490.32
630.489	15531.28
630.683	15500.56
630.877	15172.89
631.071	15213.85
631.265	15047.96
631.459	14783.77
631.653	14806.3
631.848	15002.91
632.042	14568.74
632.236	14906.65
632.43	14562.59
632.624	14720.29
632.818	14488.87
633.012	14292.26
633.206	14368.04
633.4	14396.71
633.594	14417.19
633.788	14079.27
633.982	14359.84
634.176	13987.11
634.369	14097.7
634.563	13929.77
634.757	13884.72
634.951	13884.72
635.145	13784.37
635.339	13729.07
635.533	13364.53
635.726	13907.24
635.92	13149.5
636.114	13282.61
636.308	13210.93
636.501	13219.13
636.695	13202.74
636.889	13100.34
637.083	12911.93
637.276	12916.03
637.47	13047.1
637.664	12868.92
637.857	12961.08
638.051	12811.58
638.244	12762.43
638.438	12531.01
638.632	12381.51
638.825	12543.3
639.019	12395.84
639.212	12277.06
639.406	12371.27
639.599	12006.73
639.793	12121.42
639.986	11961.67
640.18	11947.34
640.373	11875.66
640.567	11832.65
640.76	11906.38
640.954	11748.68
641.147	11519.31
641.34	11310.42
641.534	11515.22
641.727	11486.54
641.92	11386.19
642.114	11357.52
642.307	11142.49
642.5	11081.05
642.694	11087.19
642.887	11189.59
643.08	11183.45
643.273	10896.73
643.467	10964.31
643.66	10794.33
643.853	10777.95
644.046	10593.63
644.239	10614.11
644.432	10489.18
644.626	10466.66
644.819	10493.28
645.012	10323.3
645.205	10444.13
645.398	10378.59
645.591	10319.2
645.784	10159.46
645.977	10012.01
646.17	9960.81
646.363	9854.31
646.556	9956.71
646.749	9837.93
646.942	9772.39
647.135	9923.94
647.328	9672.04
647.521	9667.95
647.714	9569.65
647.907	9608.56
648.099	9424.24
648.292	9332.08
648.485	9471.34
648.678	9332.08
648.871	9266.55
649.064	9301.36
649.256	9069.94
649.449	9203.06
649.642	9280.88
649.835	9051.51
650.027	9024.89
650.22	8742.27
650.413	8846.71
650.605	8588.67
650.798	8760.7
650.991	8631.68
651.183	8795.51
651.376	8611.2
651.568	8521.09
651.761	8443.26
651.954	8426.88
652.146	8445.31
652.339	8322.43
652.531	8260.99
652.724	8054.15
652.916	8164.74
653.109	8148.36
653.301	8078.72
653.494	8209.79
653.686	8105.35
653.879	7929.22
654.071	7906.7
654.263	7787.91
654.456	7896.46
654.648	7812.49
654.84	7609.74
655.033	7570.83
655.225	7669.13
655.417	7392.66
655.61	7435.66
655.802	7503.25
655.994	7368.08
656.186	7452.05
656.379	7185.81
656.571	7394.7
656.763	7046.55
656.955	6907.29
657.148	7099.8
657.34	7001.49
657.532	7099.8
657.724	7046.55
657.916	6940.05
658.108	6950.29
658.3	6823.32
658.492	6688.15
658.684	6636.95
658.876	6643.1
659.068	6704.54
659.26	6651.29
659.452	6796.7
659.644	6559.13
659.836	6366.62
660.028	6452.64
660.22	6438.3
660.412	6479.26
660.604	6444.45
660.796	6247.84
660.988	6172.07
661.18	6223.27
661.372	5899.69
661.563	6253.98
661.755	6010.28
661.947	5985.7
662.139	5840.29
662.331	5887.4
662.522	5944.74
662.714	6024.61
662.906	5897.64
663.097	5737.9
663.289	5725.61
663.481	5914.02
663.673	5801.38
663.864	5565.87
664.056	5471.66
664.247	5717.42
664.439	5465.52
664.631	5453.23
664.822	5414.32
665.014	5612.97
665.205	5240.24
665.397	5342.64
665.588	5182.9
665.78	5381.55
665.971	5375.41
666.163	5408.17
666.354	5201.33
666.546	5264.82
666.737	4898.23
666.929	5318.06
667.12	5275.06
667.311	5199.28
667.503	4887.99
667.694	5084.59
667.885	4976.05
668.077	4976.05
668.268	4924.85
668.459	4918.71
668.651	4883.89
668.842	4939.19
669.033	4904.37
669.224	4824.5
669.416	4681.14
669.607	4693.43
669.798	4574.65
669.989	4756.92
670.18	4738.49
670.371	4580.79
670.563	4664.76
670.754	4609.47
670.945	4617.66
671.136	4638.14
671.327	4609.47
671.518	4474.3
671.709	4431.29
671.9	4478.4
672.091	4513.21
672.282	4447.68
672.473	4449.72
672.664	4363.71
672.855	4355.52
673.046	4433.34
673.237	4361.66
673.428	4296.13
673.619	4306.37
673.809	4214.21
674	4218.3
674.191	4183.49
674.382	4201.92
674.573	4064.71
674.764	4240.83
674.954	4101.57
675.145	4115.91
675.336	4177.34
675.527	4146.62
675.717	4251.07
675.908	4038.08
676.099	4091.33
676.289	3966.4
676.48	4115.91
676.671	4005.31
676.861	3915.2
677.052	3947.97
677.243	3884.48
677.433	4003.27
677.624	3943.88
677.814	3925.44
678.005	3853.77
678.195	3937.73
678.386	3872.2
678.576	3993.03
678.767	3816.9
678.957	3829.19
679.148	3894.72
679.338	3706.31
679.529	3716.55
679.719	3732.94
679.909	3591.63
680.1	3696.07
680.29	3716.55
680.481	3868.1
680.671	3689.93
680.861	3777.99
681.052	3698.12
681.242	3571.15
681.432	3679.69
681.622	3476.94
681.813	3636.68
682.003	3589.58
682.193	3476.94
682.383	3634.63
682.573	3669.45
682.764	3435.98
682.954	3685.83
683.144	3448.27
683.334	3622.34
683.524	3440.08
683.714	3526.09
683.904	3415.5
684.094	3542.47
684.284	3485.13
684.474	3481.03
684.664	3552.71
684.854	3409.36
685.044	3376.59
685.234	3423.69
685.424	3433.93
685.614	3446.22
685.804	3306.96
685.994	3417.55
686.184	3438.03
686.374	3452.36
686.564	3345.87
686.753	3360.2
686.943	3327.44
687.133	3327.44
687.323	3421.64
687.513	3364.3
687.702	3417.55
687.892	3292.62
688.082	3270.09
688.272	3294.67
688.461	3309.01
688.651	3366.35
688.841	3300.81
689.03	3339.73
689.22	3397.07
689.41	3218.89
689.599	3255.76
689.789	3184.08
689.979	3130.83
690.168	3315.15
690.358	3251.66
690.547	3288.53
690.737	3192.27
690.926	3251.66
691.116	3163.6
691.305	3245.52
691.495	3222.99
691.684	3218.89
691.874	3200.46
692.063	3177.94
692.252	3165.65
692.442	3321.29
692.631	3038.67
692.82	3257.81
693.01	3132.88
693.199	3206.61
693.388	3061.2
693.578	3190.22
693.767	3053.01
693.956	3077.59
694.146	3145.17
694.335	3126.74
694.524	3061.2
694.713	3149.26
694.902	3075.54
695.092	3059.15
695.281	3102.16
695.47	3091.92
695.659	3145.17
695.848	3040.72
696.037	3147.22
696.226	3057.11
696.415	3128.78
696.604	3155.41
696.793	3175.89
696.982	3188.18
697.171	3028.43
697.36	3130.83
697.549	3112.4
697.738	3182.03
697.927	3061.2
698.116	3130.83
698.305	3206.61
698.494	3194.32
698.683	2975.19
698.872	3036.63
699.061	3050.96
699.25	3016.15
699.438	3149.26
699.627	2930.13
699.816	3096.02
700.005	2989.52
700.193	2975.19
700.382	3018.19
700.571	2911.7
700.76	3001.81
700.948	3069.39
701.137	2893.27
701.326	2891.22
701.514	2880.98
701.703	3046.87
701.892	2797.01
702.08	2923.99
702.269	3071.44
702.457	2876.88
702.646	2926.04
702.834	2807.25
703.023	2899.41
703.212	2901.46
703.4	2885.08
703.589	2909.65
703.777	2893.27
703.965	2799.06
704.154	2799.06
704.342	2840.02
704.531	2770.39
704.719	2835.92
704.907	2749.91
705.096	2809.3
705.284	2846.16
705.472	2772.44
705.661	2739.67
705.849	2743.77
706.037	2774.49
706.226	2725.33
706.414	2688.47
706.602	2778.58
706.79	2745.81
706.979	2713.05
707.167	2751.96
707.355	2653.66
707.543	2635.22
707.731	2616.79
707.919	2764.25
708.107	2565.59
708.296	2588.12
708.484	2571.74
708.672	2596.31
708.86	2518.49
709.048	2557.4
709.236	2670.04
709.424	2514.39
709.612	2528.73
709.8	2530.78
709.988	2543.07
710.176	2555.35
710.364	2590.17
710.551	2436.57
710.739	2401.76
710.927	2457.05
711.115	2506.2
711.303	2514.39
711.491	2395.61
711.679	2434.52
711.866	2379.23
712.054	2438.62
712.242	2354.65
712.43	2371.04
712.617	2356.7
712.805	2489.82
712.993	2346.46
713.181	2375.13
713.368	2330.08
713.556	2342.36
713.744	2338.27
713.931	2332.12
714.119	2307.55
714.306	2254.3
714.494	2270.69
714.682	2356.7
714.869	2223.58
715.057	2291.17
715.244	2321.88
715.432	2244.06
715.619	2254.3
715.807	2239.97
715.994	2102.75
716.182	2180.57
716.369	2213.34
716.556	2188.77
716.744	2145.76
716.931	2123.23
717.119	2110.94
717.306	2074.08
717.493	2151.9
717.681	2149.86
717.868	2151.9
718.055	2102.75
718.242	2127.33
718.43	2106.85
718.617	1990.11
718.804	2104.8
718.991	2088.42
719.179	2045.41
719.366	2012.64
719.553	2037.22
719.74	1836.52
719.927	2049.5
720.114	1975.78
720.301	2129.38
720.488	1963.49
720.676	1889.76
720.863	1961.44
721.05	1902.05
721.237	1908.19
721.424	1879.52
721.611	1957.35
721.798	1881.57
721.985	1881.57
722.172	1816.04
722.358	1865.19
722.545	1889.76
722.732	1842.66
722.919	1908.19
723.106	1945.06
723.293	1738.21
723.48	1789.41
723.667	1750.5
723.853	1773.03
724.04	1885.67
724.227	1791.46
724.414	1820.13
724.6	1768.93
724.787	1703.4
724.974	1807.84
725.161	1662.44
725.347	1752.55
725.534	1770.98
725.72	1711.59
725.907	1738.21
726.094	1738.21
726.28	1656.29
726.467	1629.67
726.653	1664.49
726.84	1637.86
727.027	1621.48
727.213	1611.24
727.4	1693.16
727.586	1637.86
727.773	1580.52
727.959	1533.42
728.145	1633.77
728.332	1701.35
728.518	1609.19
728.705	1646.05
728.891	1525.22
729.077	1549.8
729.264	1607.14
729.45	1537.51
729.636	1512.94
729.823	1502.7
730.009	1533.42
730.195	1582.57
730.382	1521.13
730.568	1420.78
730.754	1566.18
730.94	1510.89
731.126	1588.71
731.313	1463.79
731.499	1549.8
731.685	1572.33
731.871	1560.04
732.057	1596.9
732.243	1517.03
732.429	1527.27
732.615	1480.17
732.801	1463.79
732.987	1476.07
733.173	1506.79
733.359	1471.98
733.545	1490.41
733.731	1410.54
733.917	1392.11
734.103	1367.53
734.289	1338.86
734.475	1367.53
734.661	1408.49
734.847	1398.25
735.033	1504.75
735.219	1428.97
735.404	1304.04
735.59	1414.63
735.776	1314.28
735.962	1324.52
736.148	1369.58
736.333	1314.28
736.519	1347.05
736.705	1336.81
736.89	1252.84
737.076	1246.7
737.262	1283.56
737.447	1244.65
737.633	1291.76
737.819	1263.08
738.004	1328.62
738.19	1175.02
738.375	1244.65
738.561	1269.23
738.747	1252.84
738.932	1304.04
739.118	1291.76
739.303	1287.66
739.489	1334.76
739.674	1226.22
739.859	1207.79
740.045	1191.41
740.23	1215.98
740.416	1166.83
740.601	1242.61
740.786	1144.3
740.972	1252.84
741.157	1146.35
741.342	1107.44
741.528	1162.73
741.713	1105.39
741.898	1207.79
742.084	1129.97
742.269	1162.73
742.454	1113.58
742.639	1199.6
742.824	1193.45
743.01	1097.2
743.195	1103.34
743.38	1179.12
743.565	1150.45
743.75	1089.01
743.935	1037.81
744.12	1136.11
744.305	1023.47
744.49	1074.67
744.675	1084.91
744.86	931.31
745.045	1105.39
745.23	1007.09
745.415	1050.1
745.6	1164.78
745.785	1103.34
745.97	966.13
746.155	1027.57
746.34	1031.66
746.525	968.18
746.71	980.47
746.895	1093.1
747.079	996.85
747.264	968.18
747.449	953.84
747.634	976.37
747.819	1005.04
748.003	959.99
748.188	867.83
748.373	949.75
748.557	1058.29
748.742	939.51
748.927	865.78
749.111	976.37
749.296	925.17
749.481	923.12
749.665	916.98
749.85	861.68
750.034	898.55
750.219	939.51
750.404	876.02
750.588	873.97
750.773	878.07
750.957	833.01
751.141	898.55
751.326	724.47
751.51	871.92
751.695	843.25
751.879	757.24
752.064	802.29
752.248	876.02
752.432	808.44
752.617	800.24
752.801	869.87
752.985	775.67
753.17	810.48
753.354	757.24
753.538	785.91
753.722	820.72
753.907	830.96
754.091	749.04
754.275	775.67
754.459	777.72
754.643	658.93
754.828	669.17
755.012	761.33
755.196	693.75
755.38	728.56
755.564	667.13
755.748	652.79
755.932	726.52
756.116	736.76
756.3	708.09
756.484	810.48
756.668	749.04
756.852	720.37
757.036	728.56
757.22	781.81
757.404	695.8
757.588	734.71
757.772	671.22
757.956	695.8
758.14	677.37
758.323	652.79
758.507	665.08
758.691	658.93
758.875	687.61
759.059	681.46
759.242	572.92
759.426	630.26
759.61	648.69
759.794	624.12
759.977	626.17
760.161	693.75
760.345	558.58
760.528	658.93
760.712	599.54
760.895	646.65
761.079	556.54
761.263	550.39
761.446	538.1
761.63	665.08
761.813	511.48
761.997	611.83
762.18	675.32
762.364	632.31
762.547	550.39
762.731	546.3
762.914	556.54
763.098	566.78
763.281	595.45
763.464	599.54
763.648	558.58
763.831	634.36
764.015	601.59
764.198	615.93
764.381	611.83
764.564	591.35
764.748	570.87
764.931	556.54
765.114	566.78
765.297	593.4
765.481	542.2
765.664	577.02
765.847	521.72
766.03	593.4
766.213	527.86
766.397	521.72
766.58	472.57
766.763	562.68
766.946	517.62
767.129	581.11
767.312	499.19
767.495	536.06
767.678	454.14
767.861	491
768.044	607.73
768.227	548.34
768.41	523.77
768.593	404.99
768.776	482.81
768.959	509.43
769.142	425.47
769.324	484.86
769.507	495.1
769.69	488.95
769.873	509.43
770.056	566.78
770.239	466.42
770.421	562.68
770.604	505.34
770.787	454.14
770.97	462.33
771.152	570.87
771.335	505.34
771.518	419.32
771.7	511.48
771.883	447.99
772.066	447.99
772.248	468.47
772.431	456.19
772.613	570.87
772.796	433.66
772.978	474.62
773.161	488.95
773.343	509.43
773.526	482.81
773.708	493.05
773.891	404.99
774.073	437.75
774.256	439.8
774.438	542.2
774.621	409.08
774.803	482.81
774.985	407.03
775.168	390.65
775.35	376.31
775.532	407.03
775.715	400.89
775.897	435.71
776.079	513.53
776.261	380.41
776.444	452.09
776.626	361.98
776.808	402.94
776.99	392.7
777.173	476.66
777.355	413.18
777.537	427.51
777.719	341.5
777.901	308.73
778.083	419.32
778.265	417.27
778.447	421.37
778.629	400.89
778.811	329.21
778.993	398.84
779.175	357.88
779.357	474.62
779.539	417.27
779.721	368.12
779.903	388.6
780.085	292.35
780.267	325.12
780.449	394.75
780.631	392.7
780.812	380.41
780.994	343.55
781.176	312.83
781.358	357.88
781.54	368.12
781.721	345.59
781.903	372.22
782.085	318.97
782.267	337.4
782.448	327.16
782.63	345.59
782.812	359.93
782.993	343.55
783.175	374.27
783.357	290.3
783.538	271.87
783.72	321.02
783.901	347.64
784.083	294.4
784.264	339.45
784.446	321.02
784.627	310.78
784.809	304.64
784.99	261.63
785.172	347.64
785.353	224.76
785.535	228.86
785.716	247.29
785.897	232.96
786.079	251.39
786.26	294.4
786.441	327.16
786.623	325.12
786.804	351.74
786.985	286.2
787.167	271.87
787.348	177.66
787.529	235
787.71	198.14
787.891	282.11
788.073	257.53
788.254	235
788.435	269.82
788.616	247.29
788.797	255.48
788.978	278.01
789.159	245.24
789.34	241.15
789.522	251.39
789.703	210.43
789.884	273.92
790.065	280.06
790.246	218.62
790.427	245.24
790.607	273.92
790.788	298.49
790.969	210.43
791.15	245.24
791.331	230.91
791.512	251.39
791.693	243.2
791.874	245.24
792.054	206.33
792.235	245.24
792.416	171.52
792.597	235
792.778	183.81
792.958	202.24
793.139	257.53
793.32	314.88
793.5	243.2
793.681	243.2
793.862	202.24
794.042	148.99
794.223	202.24
794.404	253.44
794.584	185.85
794.765	212.48
794.945	177.66
795.126	228.86
795.306	187.9
795.487	169.47
795.667	151.04
795.848	189.95
796.028	251.39
796.209	159.23
796.389	175.61
796.57	171.52
796.75	142.85
796.93	226.81
797.111	241.15
797.291	183.81
797.471	138.75
797.652	202.24
797.832	122.37
798.012	185.85
798.192	173.57
798.373	73.21
798.553	243.2
798.733	216.57
798.913	206.33
799.093	99.84
799.274	122.37
799.454	202.24
799.634	173.57
799.814	198.14
799.994	155.13
800.174	148.99
800.354	198.14
800.534	148.99
800.714	140.8
800.894	128.51
801.074	155.13
801.254	167.42
801.434	101.89
801.614	167.42
801.794	198.14
801.974	378.36
802.154	151.04
802.334	185.85
802.514	81.41
802.693	105.98
802.873	222.72
803.053	103.93
803.233	148.99
803.413	116.22
803.592	157.18
803.772	99.84
803.952	179.71
804.131	110.08
804.311	148.99
804.491	136.7
804.67	159.23
804.85	169.47
805.03	181.76
805.209	136.7
805.389	146.94
805.568	202.24
805.748	85.5
805.928	103.93
806.107	144.89
806.287	128.51
806.466	159.23
806.646	144.89
806.825	67.07
807.004	144.89
807.184	155.13
807.363	159.23
807.543	114.17
807.722	105.98
807.901	130.56
808.081	171.52
808.26	36.35
808.439	103.93
808.619	105.98
808.798	173.57
808.977	128.51
809.156	134.65
809.336	155.13
809.515	71.17
809.694	69.12
809.873	105.98
810.052	105.98
810.231	87.55
810.411	144.89
810.59	114.17
810.769	161.28
810.948	87.55
811.127	116.22
811.306	165.37
811.485	122.37
811.664	52.74
811.843	114.17
812.022	91.65
812.201	118.27
812.38	185.85
812.559	79.36
812.737	144.89
812.916	136.7
813.095	77.31
813.274	75.26
813.453	89.6
813.632	77.31
813.811	103.93
813.989	73.21
814.168	151.04
814.347	99.84
814.526	110.08
814.704	118.27
814.883	120.32
815.062	81.41
815.24	138.75
815.419	79.36
815.598	169.47
815.776	122.37
815.955	99.84
816.133	99.84
816.312	56.83
816.49	67.07
816.669	73.21
816.847	138.75
817.026	85.5
817.204	60.93
817.383	136.7
817.561	36.35
817.74	161.28
817.918	15.87
818.097	105.98
818.275	56.83
818.453	87.55
818.632	89.6
818.81	163.33
818.988	99.84
819.167	97.79
819.345	81.41
819.523	103.93
819.701	71.17
819.879	128.51
820.058	24.06
820.236	148.99
820.414	58.88
820.592	91.65
820.77	32.26
820.948	101.89
821.127	60.93
821.305	32.26
821.483	79.36
821.661	65.02
821.839	116.22
822.017	89.6
822.195	105.98
822.373	93.69
822.551	99.84
822.729	95.74
822.907	42.5
823.085	81.41
823.262	122.37
823.44	103.93
823.618	79.36
823.796	71.17
823.974	75.26
824.152	58.88
824.329	91.65
824.507	85.5
824.685	24.06
824.863	60.93
825.04	52.74
825.218	79.36
825.396	38.4
825.574	56.83
825.751	54.78
825.929	83.45
826.107	60.93
826.284	132.61
826.462	60.93
826.639	83.45
826.817	56.83
826.994	130.56
827.172	32.26
827.349	62.98
827.527	22.02
827.704	91.65
827.882	112.13
828.059	87.55
828.237	-64
828.414	50.69
828.591	71.17
828.769	81.41
828.946	-29.18
829.124	85.5
829.301	91.65
829.478	62.98
829.655	26.11
829.833	52.74
830.01	42.5
830.187	65.02
830.364	-16.9
830.542	103.93
830.719	122.37
830.896	-0.51
831.073	36.35
831.25	46.59
831.427	40.45
831.604	52.74
831.782	118.27
831.959	101.89
832.136	75.26
832.313	67.07
832.49	91.65
832.667	-12.8
832.844	114.17
833.021	71.17
833.198	34.3
833.374	103.93
833.551	69.12
833.728	97.79
833.905	50.69
834.082	73.21
834.259	30.21
834.436	81.41
834.612	40.45
834.789	54.78
834.966	48.64
835.143	73.21
835.319	44.54
835.496	62.98
835.673	-33.28
835.85	-2.56
836.026	60.93
836.203	62.98
836.38	71.17
836.556	-8.7
836.733	71.17
836.909	112.13
837.086	-8.7
837.262	19.97
837.439	71.17
837.616	46.59
837.792	48.64
837.968	24.06
838.145	99.84
838.321	56.83
838.498	42.5
838.674	79.36
838.851	-2.56
839.027	56.83
839.203	38.4
839.38	44.54
839.556	38.4
839.732	40.45
839.909	58.88
840.085	67.07
840.261	17.92
840.437	22.02
840.614	48.64
840.79	42.5
840.966	-35.33
841.142	19.97
841.318	40.45
841.494	48.64
841.671	26.11
841.847	-27.14
842.023	50.69
842.199	50.69
842.375	32.26
842.551	28.16
842.727	-0.51
842.903	40.45
843.079	-43.52
843.255	99.84
843.431	42.5
843.607	58.88
843.783	24.06
843.959	46.59
844.134	67.07
844.31	67.07
844.486	54.78
844.662	24.06
844.838	26.11
845.013	38.4
845.189	22.02
845.365	26.11
845.541	87.55
845.716	28.16
845.892	114.17
846.068	40.45
846.244	91.65
846.419	36.35
846.595	-10.75
846.77	52.74
846.946	-47.62
847.122	46.59
847.297	19.97
847.473	75.26
847.648	26.11
847.824	9.73
847.999	9.73
848.175	-64
848.35	81.41
848.526	38.4
848.701	22.02
848.876	50.69
849.052	161.28
849.227	60.93
849.403	-53.76
849.578	-8.7
849.753	62.98
849.929	110.08
850.104	22.02
850.279	79.36
850.454	126.46
850.63	99.84
850.805	30.21
850.98	40.45
851.155	40.45
851.33	71.17
851.505	46.59
851.681	50.69
851.856	42.5
852.031	50.69
852.206	73.21
852.381	122.37
852.556	-2.56
852.731	26.11
852.906	85.5
853.081	3.58
853.256	32.26
853.431	67.07
853.606	15.87
853.781	26.11
853.956	-51.71
854.131	26.11
854.305	-8.7
854.48	11.78
854.655	42.5
854.83	44.54
855.005	13.82
855.18	34.3
855.354	-0.51
855.529	19.97
855.704	-10.75
855.879	56.83
856.053	36.35
856.228	24.06
856.403	26.11
856.577	-6.66
856.752	19.97
856.926	42.5
857.101	110.08
857.276	-0.51
857.45	26.11
857.625	7.68
857.799	48.64
857.974	-16.9
858.148	62.98
858.323	24.06
858.497	69.12
858.672	48.64
858.846	38.4
859.02	108.03
859.195	-27.14
859.369	22.02
859.543	75.26
859.718	34.3
859.892	-51.71
860.066	22.02
860.241	77.31
860.415	-27.14
860.589	-16.9
860.763	58.88
860.938	-27.14
861.112	38.4
861.286	67.07
861.46	30.21
861.634	54.78
861.808	17.92
861.982	22.02
862.157	-2.56
862.331	-18.94
862.505	38.4
862.679	-14.85
862.853	15.87
863.027	-18.94
863.201	46.59
863.375	-18.94
863.549	1.54
863.722	42.5
863.896	-10.75
864.07	32.26
864.244	-10.75
864.418	-16.9
864.592	7.68
864.766	40.45
864.939	79.36
865.113	99.84
865.287	52.74
865.461	17.92
865.634	95.74
865.808	19.97
865.982	67.07
866.156	30.21
866.329	3.58
866.503	-2.56
866.676	58.88
866.85	62.98
867.024	40.45
867.197	-10.75
867.371	108.03
867.544	54.78
867.718	42.5
867.891	-2.56
868.065	65.02
868.238	24.06
868.412	69.12
868.585	24.06
868.759	19.97
868.932	17.92
869.105	56.83
869.279	24.06
869.452	-35.33
869.625	-8.7
869.799	-0.51
869.972	22.02
870.145	13.82
870.319	17.92
870.492	56.83
870.665	73.21
870.838	1.54
871.011	-74.24
871.185	9.73
871.358	-27.14
871.531	58.88
871.704	62.98
871.877	30.21
872.05	73.21
872.223	3.58
872.396	-8.7
872.569	-23.04
872.742	65.02
872.915	103.93
873.088	-20.99
873.261	-6.66
873.434	93.69
873.607	54.78
873.78	15.87
873.953	34.3
874.126	3.58
874.299	-0.51
874.471	3.58
874.644	-16.9
874.817	38.4
874.99	30.21
875.163	-6.66
875.335	89.6
875.508	-10.75
875.681	60.93
875.853	44.54
876.026	7.68
876.199	36.35
876.371	11.78
876.544	22.02
876.717	62.98
876.889	19.97
877.062	40.45
877.234	40.45
877.407	101.89
877.579	-59.9
877.752	73.21
877.924	-16.9
878.097	-0.51
878.269	44.54
878.442	28.16
878.614	3.58
878.786	11.78
878.959	73.21
879.131	17.92
879.303	7.68
879.476	65.02
879.648	32.26
879.82	69.12
879.993	58.88
880.165	19.97
880.337	28.16
880.509	79.36
880.681	-61.95
880.854	36.35
881.026	71.17
881.198	-12.8
881.37	-10.75
881.542	36.35
881.714	5.63
881.886	-8.7
882.058	11.78
882.23	36.35
882.402	-18.94
882.574	67.07
882.746	26.11
882.918	95.74
883.09	52.74
883.262	50.69
883.434	-0.51
883.606	46.59
883.778	-31.23
883.95	13.82
884.122	95.74
884.293	15.87
884.465	85.5
884.637	13.82
884.809	75.26
884.98	-8.7
885.152	46.59
885.324	28.16
885.496	-45.57
885.667	11.78
885.839	62.98
886.011	62.98
886.182	40.45
886.354	-27.14
886.525	-20.99
886.697	44.54
886.869	-27.14
887.04	13.82
887.212	52.74
887.383	19.97
887.555	32.26
887.726	-18.94
887.897	-41.47
888.069	-27.14
888.24	19.97
888.412	40.45
888.583	-2.56
888.754	34.3
888.926	-14.85
889.097	-51.71
889.268	-2.56
889.44	79.36
889.611	-14.85
889.782	42.5
889.953	38.4
890.125	62.98
890.296	-53.76
890.467	48.64
890.638	-25.09
890.809	40.45
890.98	-12.8
891.151	30.21
891.323	-4.61
891.494	15.87
891.665	-33.28
891.836	40.45
892.007	91.65
892.178	22.02
892.349	48.64
892.52	30.21
892.691	-2.56
892.862	22.02
893.032	-2.56
893.203	52.74
893.374	38.4
893.545	44.54
893.716	30.21
893.887	-51.71
894.057	56.83
894.228	-57.86
894.399	24.06
894.57	13.82
894.74	5.63
894.911	40.45
895.082	-96.77
895.253	3.58
895.423	32.26
895.594	26.11
895.764	9.73
895.935	28.16
896.106	46.59
896.276	5.63
896.447	19.97
896.617	17.92
896.788	-51.71
896.958	30.21
897.129	22.02
897.299	-35.33
897.47	-10.75
897.64	101.89
897.81	-35.33
897.981	26.11
898.151	36.35
898.322	15.87
898.492	54.78
898.662	11.78
898.832	30.21
899.003	19.97
899.173	34.3
899.343	1.54
899.513	24.06
