Data from USB4F104151__192__13-59-25-588.txt Node

Date: Thu Mar 13 13:59:25 EDT 2025
User: louis
Spectrometer: USB4F10415
Trigger mode: 4
Integration Time (sec): 1.000000E-2
Scans to average: 1
Electric dark correction enabled: true
Nonlinearity correction enabled: false
Boxcar width: 0
XAxis mode: Wavelengths
Number of Pixels in Spectrum: 3648
>>>>>Begin Spectral Data<<<<<
178.204	-69.97
178.424	-69.97
178.644	-69.97
178.864	-69.97
179.084	-14.68
179.304	20.14
179.524	-6.49
179.744	-20.82
179.964	-14.68
180.184	52.91
180.404	-16.73
180.624	-33.11
180.844	-0.34
181.064	36.52
181.283	9.9
181.503	-24.92
181.723	-2.39
181.943	-6.49
182.163	32.43
182.383	61.1
182.602	30.38
182.822	50.86
183.042	28.33
183.262	42.67
183.482	7.85
183.701	-2.39
183.921	63.15
184.141	-12.63
184.361	-37.2
184.58	52.91
184.8	26.28
185.02	-4.44
185.239	38.57
185.459	57
185.679	63.15
185.898	-41.3
186.118	42.67
186.338	28.33
186.557	36.52
186.777	20.14
186.997	46.76
187.216	13.99
187.436	110.25
187.655	48.81
187.875	44.71
188.095	-14.68
188.314	44.71
188.534	22.19
188.753	20.14
188.973	-8.53
189.192	20.14
189.412	67.24
189.631	52.91
189.851	57
190.07	-22.87
190.29	-10.58
190.509	3.75
190.729	20.14
190.948	13.99
191.168	192.17
191.387	87.72
191.607	-63.83
191.826	20.14
192.045	13.99
192.265	-31.06
192.484	46.76
192.704	28.33
192.923	-22.87
193.142	122.54
193.362	-0.34
193.581	63.15
193.8	100.01
194.02	13.99
194.239	-31.06
194.458	-90.45
194.678	13.99
194.897	57
195.116	28.33
195.335	-6.49
195.555	3.75
195.774	52.91
195.993	20.14
196.212	28.33
196.432	38.57
196.651	28.33
196.87	-35.16
197.089	-10.58
197.308	-4.44
197.528	16.04
197.747	-0.34
197.966	26.28
198.185	32.43
198.404	20.14
198.623	67.24
198.842	46.76
199.062	1.71
199.281	67.24
199.5	28.33
199.719	71.34
199.938	44.71
200.157	-14.68
200.376	91.82
200.595	32.43
200.814	38.57
201.033	-18.77
201.252	9.9
201.471	18.09
201.69	-4.44
201.909	106.15
202.128	28.33
202.347	16.04
202.566	24.23
202.785	-45.4
203.004	7.85
203.223	-22.87
203.442	73.39
203.661	11.95
203.879	1.71
204.098	61.1
204.317	85.67
204.536	36.52
204.755	32.43
204.974	42.67
205.193	3.75
205.411	63.15
205.63	20.14
205.849	36.52
206.068	3.75
206.287	65.19
206.505	9.9
206.724	59.05
206.943	44.71
207.162	-10.58
207.381	52.91
207.599	102.06
207.818	44.71
208.037	44.71
208.255	32.43
208.474	34.47
208.693	85.67
208.911	11.95
209.13	18.09
209.349	28.33
209.567	-16.73
209.786	42.67
210.005	11.95
210.223	108.2
210.442	18.09
210.661	81.58
210.879	-14.68
211.098	30.38
211.316	13.99
211.535	18.09
211.753	-24.92
211.972	-18.77
212.191	-88.4
212.409	93.87
212.628	13.99
212.846	-6.49
213.065	75.43
213.283	34.47
213.502	9.9
213.72	-45.4
213.938	81.58
214.157	3.75
214.375	69.29
214.594	-10.58
214.812	-8.53
215.031	-12.63
215.249	20.14
215.467	-61.78
215.686	-37.2
215.904	26.28
216.122	79.53
216.341	42.67
216.559	85.67
216.778	48.81
216.996	59.05
217.214	81.58
217.432	46.76
217.651	1.71
217.869	9.9
218.087	16.04
218.306	-20.82
218.524	-20.82
218.742	44.71
218.96	50.86
219.179	77.48
219.397	16.04
219.615	63.15
219.833	52.91
220.051	48.81
220.27	67.24
220.488	-37.2
220.706	46.76
220.924	9.9
221.142	-14.68
221.36	46.76
221.578	30.38
221.796	30.38
222.015	-18.77
222.233	-33.11
222.451	73.39
222.669	-10.58
222.887	11.95
223.105	48.81
223.323	-10.58
223.541	63.15
223.759	-4.44
223.977	-26.96
224.195	-2.39
224.413	5.8
224.631	48.81
224.849	42.67
225.067	48.81
225.285	38.57
225.503	-41.3
225.721	13.99
225.939	38.57
226.157	34.47
226.375	97.96
226.592	26.28
226.81	20.14
227.028	48.81
227.246	42.67
227.464	26.28
227.682	-6.49
227.9	65.19
228.117	102.06
228.335	34.47
228.553	85.67
228.771	108.2
228.989	-2.39
229.206	87.72
229.424	11.95
229.642	38.57
229.86	3.75
230.077	48.81
230.295	-33.11
230.513	89.77
230.731	67.24
230.948	20.14
231.166	22.19
231.384	30.38
231.601	-14.68
231.819	22.19
232.037	-22.87
232.254	61.1
232.472	77.48
232.689	1.71
232.907	9.9
233.125	-6.49
233.342	26.28
233.56	100.01
233.777	48.81
233.995	18.09
234.213	40.62
234.43	65.19
234.648	24.23
234.865	3.75
235.083	34.47
235.3	32.43
235.518	71.34
235.735	61.1
235.953	100.01
236.17	38.57
236.388	-84.31
236.605	106.15
236.822	36.52
237.04	-47.44
237.257	16.04
237.475	75.43
237.692	91.82
237.909	-2.39
238.127	5.8
238.344	1.71
238.562	42.67
238.779	-14.68
238.996	-43.35
239.214	40.62
239.431	106.15
239.648	75.43
239.865	91.82
240.083	63.15
240.3	69.29
240.517	-12.63
240.735	48.81
240.952	13.99
241.169	100.01
241.386	42.67
241.603	20.14
241.821	75.43
242.038	-6.49
242.255	-14.68
242.472	11.95
242.689	20.14
242.907	71.34
243.124	46.76
243.341	63.15
243.558	48.81
243.775	3.75
243.992	3.75
244.209	46.76
244.426	22.19
244.643	50.86
244.86	-4.44
245.078	73.39
245.295	30.38
245.512	24.23
245.729	18.09
245.946	71.34
246.163	104.11
246.38	61.1
246.597	65.19
246.814	28.33
247.031	13.99
247.248	38.57
247.464	-12.63
247.681	-6.49
247.898	93.87
248.115	34.47
248.332	-47.44
248.549	93.87
248.766	11.95
248.983	128.68
249.2	110.25
249.417	5.8
249.633	20.14
249.85	34.47
250.067	-63.83
250.284	42.67
250.501	-10.58
250.717	30.38
250.934	13.99
251.151	20.14
251.368	-0.34
251.585	36.52
251.801	54.95
252.018	13.99
252.235	20.14
252.451	59.05
252.668	-18.77
252.885	26.28
253.102	13.99
253.318	26.28
253.535	106.15
253.752	36.52
253.968	40.62
254.185	18.09
254.401	7.85
254.618	93.87
254.835	79.53
255.051	28.33
255.268	61.1
255.484	20.14
255.701	65.19
255.917	67.24
256.134	95.91
256.351	42.67
256.567	20.14
256.784	-18.77
257	16.04
257.217	116.39
257.433	91.82
257.65	11.95
257.866	102.06
258.082	50.86
258.299	83.63
258.515	85.67
258.732	13.99
258.948	-22.87
259.165	63.15
259.381	5.8
259.597	-2.39
259.814	-45.4
260.03	-39.25
260.246	1.71
260.463	67.24
260.679	18.09
260.895	54.95
261.112	24.23
261.328	5.8
261.544	87.72
261.761	81.58
261.977	50.86
262.193	50.86
262.409	11.95
262.626	20.14
262.842	-10.58
263.058	65.19
263.274	-43.35
263.49	-6.49
263.707	116.39
263.923	71.34
264.139	3.75
264.355	-2.39
264.571	42.67
264.787	85.67
265.004	36.52
265.22	40.62
265.436	18.09
265.652	-0.34
265.868	-18.77
266.084	93.87
266.3	42.67
266.516	75.43
266.732	48.81
266.948	79.53
267.164	9.9
267.38	38.57
267.596	91.82
267.812	40.62
268.028	75.43
268.244	89.77
268.46	52.91
268.676	-78.16
268.892	52.91
269.108	16.04
269.324	11.95
269.54	3.75
269.756	28.33
269.972	44.71
270.188	38.57
270.403	9.9
270.619	36.52
270.835	67.24
271.051	48.81
271.267	50.86
271.483	69.29
271.698	77.48
271.914	30.38
272.13	34.47
272.346	-22.87
272.562	40.62
272.777	89.77
272.993	42.67
273.209	83.63
273.425	81.58
273.64	3.75
273.856	71.34
274.072	-2.39
274.287	-39.25
274.503	83.63
274.719	50.86
274.934	71.34
275.15	87.72
275.366	79.53
275.581	5.8
275.797	97.96
276.012	7.85
276.228	65.19
276.444	3.75
276.659	20.14
276.875	-6.49
277.09	34.47
277.306	67.24
277.521	11.95
277.737	-14.68
277.952	50.86
278.168	36.52
278.383	-24.92
278.599	44.71
278.814	65.19
279.03	59.05
279.245	9.9
279.461	57
279.676	57
279.892	36.52
280.107	100.01
280.322	63.15
280.538	3.75
280.753	36.52
280.969	106.15
281.184	1.71
281.399	57
281.615	-35.16
281.83	20.14
282.045	44.71
282.26	3.75
282.476	5.8
282.691	30.38
282.906	-10.58
283.122	-0.34
283.337	42.67
283.552	5.8
283.767	20.14
283.983	93.87
284.198	-39.25
284.413	38.57
284.628	1.71
284.843	77.48
285.058	100.01
285.274	32.43
285.489	108.2
285.704	100.01
285.919	-0.34
286.134	63.15
286.349	-6.49
286.564	75.43
286.779	81.58
286.995	38.57
287.21	32.43
287.425	42.67
287.64	104.11
287.855	120.49
288.07	44.71
288.285	-0.34
288.5	48.81
288.715	22.19
288.93	20.14
289.145	71.34
289.36	11.95
289.575	67.24
289.79	79.53
290.004	-14.68
290.219	16.04
290.434	16.04
290.649	112.3
290.864	91.82
291.079	46.76
291.294	42.67
291.509	44.71
291.724	97.96
291.938	3.75
292.153	-24.92
292.368	87.72
292.583	34.47
292.798	36.52
293.012	65.19
293.227	38.57
293.442	26.28
293.657	93.87
293.871	30.38
294.086	81.58
294.301	85.67
294.516	63.15
294.73	57
294.945	38.57
295.16	57
295.374	9.9
295.589	34.47
295.804	-0.34
296.018	65.19
296.233	26.28
296.447	38.57
296.662	85.67
296.877	83.63
297.091	40.62
297.306	50.86
297.52	50.86
297.735	52.91
297.949	116.39
298.164	83.63
298.378	9.9
298.593	50.86
298.807	59.05
299.022	73.39
299.236	32.43
299.451	38.57
299.665	97.96
299.88	9.9
300.094	38.57
300.309	3.75
300.523	11.95
300.737	57
300.952	54.95
301.166	73.39
301.381	24.23
301.595	126.63
301.809	36.52
302.024	1.71
302.238	73.39
302.452	20.14
302.667	44.71
302.881	1.71
303.095	36.52
303.309	11.95
303.524	69.29
303.738	63.15
303.952	22.19
304.166	36.52
304.381	50.86
304.595	34.47
304.809	11.95
305.023	59.05
305.237	34.47
305.452	69.29
305.666	124.58
305.88	38.57
306.094	-14.68
306.308	11.95
306.522	36.52
306.736	61.1
306.95	57
307.164	22.19
307.379	22.19
307.593	44.71
307.807	36.52
308.021	110.25
308.235	79.53
308.449	71.34
308.663	48.81
308.877	9.9
309.091	28.33
309.305	20.14
309.519	46.76
309.733	69.29
309.947	-8.53
310.161	108.2
310.374	-12.63
310.588	134.82
310.802	81.58
311.016	11.95
311.23	50.86
311.444	13.99
311.658	69.29
311.872	83.63
312.085	67.24
312.299	75.43
312.513	36.52
312.727	124.58
312.941	52.91
313.154	13.99
313.368	44.71
313.582	112.3
313.796	13.99
314.009	73.39
314.223	28.33
314.437	3.75
314.651	-6.49
314.864	40.62
315.078	46.76
315.292	69.29
315.505	-4.44
315.719	-31.06
315.933	30.38
316.146	38.57
316.36	42.67
316.573	48.81
316.787	-20.82
317.001	34.47
317.214	52.91
317.428	100.01
317.641	36.52
317.855	108.2
318.068	71.34
318.282	118.44
318.495	75.43
318.709	22.19
318.922	26.28
319.136	52.91
319.349	11.95
319.563	24.23
319.776	-2.39
319.99	61.1
320.203	9.9
320.417	11.95
320.63	-8.53
320.843	85.67
321.057	102.06
321.27	77.48
321.483	32.43
321.697	9.9
321.91	85.67
322.124	100.01
322.337	38.57
322.55	50.86
322.763	54.95
322.977	-2.39
323.19	18.09
323.403	95.91
323.617	36.52
323.83	-6.49
324.043	18.09
324.256	91.82
324.469	-76.12
324.683	30.38
324.896	42.67
325.109	73.39
325.322	-10.58
325.535	5.8
325.748	48.81
325.962	36.52
326.175	18.09
326.388	89.77
326.601	42.67
326.814	50.86
327.027	30.38
327.24	100.01
327.453	20.14
327.666	61.1
327.879	95.91
328.092	95.91
328.305	59.05
328.518	-4.44
328.731	-8.53
328.944	67.24
329.157	75.43
329.37	69.29
329.583	104.11
329.796	13.99
330.009	-35.16
330.222	52.91
330.435	30.38
330.648	81.58
330.861	50.86
331.073	106.15
331.286	91.82
331.499	52.91
331.712	26.28
331.925	77.48
332.138	50.86
332.35	85.67
332.563	63.15
332.776	-18.77
332.989	167.59
333.202	81.58
333.414	63.15
333.627	1.71
333.84	44.71
334.053	36.52
334.265	9.9
334.478	42.67
334.691	69.29
334.903	108.2
335.116	40.62
335.329	40.62
335.541	77.48
335.754	-22.87
335.966	79.53
336.179	89.77
336.392	69.29
336.604	83.63
336.817	20.14
337.029	-59.73
337.242	100.01
337.454	-2.39
337.667	22.19
337.88	116.39
338.092	30.38
338.305	100.01
338.517	67.24
338.729	108.2
338.942	44.71
339.154	42.67
339.367	38.57
339.579	54.95
339.792	26.28
340.004	89.77
340.217	-22.87
340.429	-37.2
340.641	36.52
340.854	50.86
341.066	52.91
341.278	100.01
341.491	42.67
341.703	124.58
341.915	65.19
342.128	81.58
342.34	59.05
342.552	67.24
342.764	63.15
342.977	32.43
343.189	93.87
343.401	18.09
343.613	-22.87
343.826	65.19
344.038	13.99
344.25	30.38
344.462	26.28
344.674	134.82
344.886	59.05
345.099	44.71
345.311	40.62
345.523	81.58
345.735	-24.92
345.947	59.05
346.159	61.1
346.371	69.29
346.583	63.15
346.795	69.29
347.007	18.09
347.219	42.67
347.431	54.95
347.643	-6.49
347.855	52.91
348.067	28.33
348.279	9.9
348.491	18.09
348.703	28.33
348.915	124.58
349.127	89.77
349.339	30.38
349.551	22.19
349.763	9.9
349.975	34.47
350.187	130.73
350.399	63.15
350.61	61.1
350.822	50.86
351.034	61.1
351.246	57
351.458	85.67
351.669	93.87
351.881	48.81
352.093	124.58
352.305	-12.63
352.517	34.47
352.728	79.53
352.94	116.39
353.152	110.25
353.363	24.23
353.575	69.29
353.787	102.06
353.999	95.91
354.21	71.34
354.422	24.23
354.633	28.33
354.845	73.39
355.057	34.47
355.268	48.81
355.48	3.75
355.692	24.23
355.903	26.28
356.115	-12.63
356.326	91.82
356.538	120.49
356.749	46.76
356.961	59.05
357.172	79.53
357.384	18.09
357.595	83.63
357.807	-16.73
358.018	67.24
358.23	46.76
358.441	81.58
358.653	38.57
358.864	83.63
359.075	57
359.287	73.39
359.498	9.9
359.709	57
359.921	77.48
360.132	36.52
360.344	69.29
360.555	-12.63
360.766	5.8
360.977	28.33
361.189	67.24
361.4	61.1
361.611	75.43
361.823	52.91
362.034	63.15
362.245	3.75
362.456	67.24
362.667	65.19
362.879	100.01
363.09	52.91
363.301	61.1
363.512	54.95
363.723	18.09
363.935	3.75
364.146	126.63
364.357	50.86
364.568	110.25
364.779	20.14
364.99	106.15
365.201	83.63
365.412	-24.92
365.623	61.1
365.834	167.59
366.045	83.63
366.256	52.91
366.467	50.86
366.678	63.15
366.889	75.43
367.1	77.48
367.311	50.86
367.522	85.67
367.733	100.01
367.944	108.2
368.155	89.77
368.366	75.43
368.577	40.62
368.788	91.82
368.999	-10.58
369.209	44.71
369.42	114.34
369.631	75.43
369.842	50.86
370.053	102.06
370.264	30.38
370.474	79.53
370.685	57
370.896	-22.87
371.107	30.38
371.317	71.34
371.528	36.52
371.739	28.33
371.95	79.53
372.16	48.81
372.371	50.86
372.582	75.43
372.792	110.25
373.003	50.86
373.214	20.14
373.424	65.19
373.635	9.9
373.846	30.38
374.056	93.87
374.267	91.82
374.477	61.1
374.688	126.63
374.898	38.57
375.109	159.4
375.319	134.82
375.53	61.1
375.74	93.87
375.951	44.71
376.161	54.95
376.372	85.67
376.582	57
376.793	110.25
377.003	95.91
377.214	-2.39
377.424	-2.39
377.635	87.72
377.845	120.49
378.055	102.06
378.266	77.48
378.476	100.01
378.686	108.2
378.897	116.39
379.107	140.97
379.317	157.35
379.528	69.29
379.738	59.05
379.948	71.34
380.158	42.67
380.369	106.15
380.579	44.71
380.789	20.14
380.999	75.43
381.21	59.05
381.42	87.72
381.63	46.76
381.84	63.15
382.05	116.39
382.261	30.38
382.471	95.91
382.681	163.5
382.891	106.15
383.101	102.06
383.311	34.47
383.521	69.29
383.731	63.15
383.941	143.02
384.151	89.77
384.361	38.57
384.571	108.2
384.781	93.87
384.991	140.97
385.201	67.24
385.411	95.91
385.621	140.97
385.831	13.99
386.041	110.25
386.251	102.06
386.461	110.25
386.671	69.29
386.881	75.43
387.091	118.44
387.301	46.76
387.511	59.05
387.72	26.28
387.93	106.15
388.14	85.67
388.35	20.14
388.56	36.52
388.769	79.53
388.979	57
389.189	52.91
389.399	79.53
389.609	69.29
389.818	149.16
390.028	106.15
390.238	81.58
390.447	91.82
390.657	83.63
390.867	34.47
391.076	34.47
391.286	81.58
391.496	50.86
391.705	130.73
391.915	112.3
392.125	104.11
392.334	52.91
392.544	42.67
392.753	83.63
392.963	102.06
393.172	57
393.382	65.19
393.591	24.23
393.801	118.44
394.01	126.63
394.22	48.81
394.429	20.14
394.639	42.67
394.848	140.97
395.058	116.39
395.267	106.15
395.477	61.1
395.686	124.58
395.895	206.5
396.105	106.15
396.314	93.87
396.524	136.87
396.733	126.63
396.942	175.78
397.152	95.91
397.361	116.39
397.57	63.15
397.78	93.87
397.989	63.15
398.198	190.12
398.407	102.06
398.617	126.63
398.826	81.58
399.035	147.11
399.244	161.45
399.453	161.45
399.663	106.15
399.872	104.11
400.081	108.2
400.29	140.97
400.499	102.06
400.708	128.68
400.917	151.21
401.127	140.97
401.336	97.96
401.545	159.4
401.754	188.07
401.963	218.79
402.172	183.98
402.381	71.34
402.59	44.71
402.799	44.71
403.008	116.39
403.217	188.07
403.426	124.58
403.635	126.63
403.844	161.45
404.053	102.06
404.262	140.97
404.471	161.45
404.68	145.06
404.888	179.88
405.097	124.58
405.306	153.26
405.515	132.78
405.724	196.26
405.933	198.31
406.142	190.12
406.35	216.74
406.559	220.84
406.768	159.4
406.977	247.46
407.185	249.51
407.394	181.93
407.603	163.5
407.812	220.84
408.02	200.36
408.229	304.81
408.438	247.46
408.646	292.52
408.855	315.05
409.064	308.9
409.272	259.75
409.481	390.82
409.69	278.18
409.898	347.81
410.107	394.92
410.315	376.48
410.524	405.16
410.733	347.81
410.941	396.96
411.15	429.73
411.358	423.59
411.567	452.26
411.775	384.68
411.984	476.84
412.192	472.74
412.401	456.36
412.609	517.79
412.818	513.7
413.026	468.64
413.234	589.47
413.443	540.32
413.651	642.72
413.86	568.99
414.068	622.24
414.276	614.05
414.485	655.01
414.693	644.77
414.901	738.98
415.11	784.03
415.318	806.56
415.526	800.41
415.734	816.8
415.943	921.24
416.151	820.89
416.359	882.33
416.567	951.96
416.776	992.92
416.984	978.59
417.192	982.68
417.4	970.4
417.608	1033.88
417.817	1015.45
418.025	1246.87
418.233	1207.96
418.441	1207.96
418.649	1246.87
418.857	1281.69
419.065	1349.27
419.273	1341.08
419.481	1371.8
419.689	1488.53
419.897	1623.7
420.105	1513.11
420.313	1656.47
420.521	1642.13
420.729	1691.28
420.937	1715.86
421.145	1754.77
421.353	1887.89
421.561	1900.17
421.769	1945.23
421.977	2102.92
422.185	2025.1
422.393	2299.53
422.601	2365.06
422.809	2358.92
423.017	2311.82
423.224	2549.38
423.432	2518.66
423.64	2573.96
423.848	2760.32
424.056	2741.89
424.263	3016.32
424.471	2885.25
424.679	3040.89
424.887	3143.29
425.094	3122.81
425.302	3317.37
425.51	3401.33
425.718	3509.88
425.925	3509.88
426.133	3745.39
426.341	3827.31
426.548	4044.4
426.756	4103.79
426.964	4083.31
427.171	4378.22
427.379	4453.99
427.586	4378.22
427.794	4646.5
428.001	4660.84
428.209	5015.13
428.417	5156.44
428.624	5332.57
428.832	5412.44
429.039	5228.12
429.247	5326.43
429.454	5893.71
429.662	6245.96
429.869	5936.72
430.076	6196.81
430.284	5940.82
430.491	6321.74
430.699	6694.47
430.906	6530.63
431.114	6764.1
431.321	6837.83
431.528	7079.49
431.736	7601.72
431.943	7812.66
432.15	7716.4
432.358	7654.97
432.565	8185.39
432.772	8304.17
432.979	8472.11
433.187	8594.98
433.394	8850.98
433.601	9295.39
433.808	9281.05
434.016	9258.53
434.223	9661.98
434.43	10216.97
434.637	10085.9
434.844	10819.08
435.052	10864.13
435.259	10931.72
435.466	10997.25
435.673	10745.35
435.88	11537.91
436.087	12242.42
436.294	12125.68
436.501	11849.21
436.708	12092.91
436.915	12600.81
437.122	13125.09
437.329	13123.04
437.537	13524.44
437.743	13925.85
437.95	13315.55
438.157	14198.23
438.364	14759.37
438.571	14966.21
438.778	14646.73
438.985	16020.92
439.192	15533.5
439.399	15883.7
439.606	15689.15
439.813	16510.38
440.02	17542.56
440.227	17368.48
440.433	17182.12
440.64	17618.33
440.847	17360.29
441.054	18021.78
441.261	18961.8
441.467	18906.51
441.674	19133.83
441.881	20139.38
442.088	20153.72
442.294	19684.73
442.501	20178.29
442.708	20671.86
442.914	21665.12
443.121	22340.95
443.328	21550.43
443.534	23383.37
443.741	22861.13
443.948	21984.6
444.154	23981.37
444.361	23614.79
444.568	24022.33
444.774	23907.65
444.981	24423.73
445.187	24874.29
445.394	26066.2
445.6	25728.29
445.807	28257.53
446.013	27061.52
446.22	27499.78
446.426	28531.96
446.633	28794.1
446.839	29574.38
447.046	28529.91
447.252	30321.88
447.459	30229.73
447.665	29928.67
447.871	31190.22
448.078	32801.97
448.284	31016.15
448.491	32017.6
448.697	33096.88
448.903	33576.11
449.11	33875.11
449.316	33354.93
449.522	33950.88
449.728	34575.52
449.935	34862.23
450.141	35107.99
450.347	35638.41
450.553	34581.66
450.76	35075.22
450.966	36420.73
451.172	35761.29
451.378	36785.27
451.584	35697.8
451.791	37069.94
451.997	36451.45
452.203	37297.27
452.409	37524.59
452.615	37125.24
452.821	35644.55
453.027	35226.77
453.233	37160.05
453.44	35755.15
453.646	36109.44
453.852	36320.38
454.058	36605.05
454.264	35652.75
454.47	36324.48
454.676	35589.26
454.882	37065.85
455.088	33725.61
455.294	33944.74
455.5	34301.09
455.705	35024.02
455.911	33514.67
456.117	32779.45
456.323	32433.34
456.529	31210.7
456.735	32246.97
456.941	31200.46
457.147	30610.65
457.352	29818.08
457.558	29689.06
457.764	29789.41
457.97	28992.75
458.176	28478.71
458.381	28644.6
458.587	27028.75
458.793	27032.85
458.999	25386.28
459.204	27747.59
459.41	26776.85
459.616	25001.26
459.821	25247.02
460.027	24743.22
460.233	24513.84
460.438	23661.89
460.644	23485.76
460.85	22642
461.055	22025.56
461.261	21894.49
461.466	20569.46
461.672	19850.62
461.878	21206.38
462.083	19914.11
462.289	19778.94
462.494	19572.1
462.7	18529.68
462.905	18204.05
463.111	18668.94
463.316	18838.92
463.522	18519.44
463.727	18255.25
463.932	18232.72
464.138	18564.5
464.343	18275.73
464.549	17622.43
464.754	18228.63
464.959	18181.53
465.165	17724.83
465.37	17511.84
465.575	16627.12
465.781	17763.74
465.986	17485.22
466.191	16922.02
466.397	16530.86
466.602	15828.41
466.807	16205.24
467.012	16549.29
467.218	16336.31
467.423	16192.95
467.628	16401.84
467.833	16981.42
468.038	16246.19
468.244	15902.14
468.449	16577.97
468.654	15861.18
468.859	15898.04
469.064	15596.99
469.269	15168.96
469.474	15384
469.679	15599.04
469.885	14816.71
470.09	15187.39
470.295	15158.72
470.5	15033.8
470.705	15076.8
470.91	14560.72
471.115	14421.45
471.32	14902.73
471.525	14648.78
471.73	14233.04
471.935	14185.94
472.139	13850.07
472.344	14034.39
472.549	13807.06
472.754	13491.68
472.959	13489.63
473.164	12881.38
473.369	13026.79
473.574	13420
473.778	12969.44
473.983	13077.99
474.188	12875.24
474.393	12486.12
474.598	12486.12
474.802	12398.06
475.007	12527.08
475.212	12488.17
475.417	11820.53
475.621	11791.86
475.826	11736.57
476.031	11740.66
476.235	11537.91
476.44	11824.63
476.645	11314.69
476.849	11601.4
477.054	11515.39
477.259	11165.18
477.463	11120.13
477.668	10724.87
477.872	11113.99
478.077	10915.33
478.282	10601.99
478.486	10350.09
478.691	10399.24
478.895	10331.66
479.1	10298.89
479.304	10446.35
479.509	10044.95
479.713	10085.9
479.918	10065.43
480.122	9786.9
480.326	10020.37
480.531	10036.75
480.735	9870.87
480.94	9874.96
481.144	10022.42
481.348	9610.78
481.553	9704.98
481.757	9479.71
481.961	9899.54
482.166	9965.07
482.37	9698.84
482.574	9561.62
482.778	9561.62
482.983	9725.46
483.187	9520.67
483.391	9668.12
483.595	9522.71
483.8	9381.4
484.004	9598.49
484.208	9528.86
484.412	9436.7
484.616	9614.87
484.821	9500.19
485.025	9408.03
485.229	9733.65
485.433	9553.43
485.637	9737.75
485.841	9473.56
486.045	9618.97
486.249	9580.06
486.453	9573.91
486.657	9510.43
486.861	9618.97
487.065	9506.33
487.269	9672.22
487.473	9649.69
487.677	9836.05
487.881	9539.1
488.085	9405.98
488.289	9602.58
488.493	9805.33
488.697	9594.39
488.901	9725.46
489.105	9741.85
489.309	9838.1
489.512	9610.78
489.716	9764.37
489.92	9582.1
490.124	9582.1
490.328	9938.45
490.531	9823.76
490.735	9680.41
490.939	9881.11
491.143	9969.17
491.346	9731.61
491.55	10366.48
491.754	10190.35
491.958	10202.64
492.161	9995.79
492.365	10309.13
492.569	10313.23
492.772	10135.06
492.976	10354.19
493.18	10464.78
493.383	10511.88
493.587	10690.06
493.79	10380.81
493.994	10546.7
494.197	10806.79
494.401	10782.21
494.605	10821.13
494.808	10962.44
495.012	10954.24
495.215	11087.36
495.419	11214.34
495.622	11023.87
495.825	11378.17
496.029	11265.53
496.232	11472.38
496.436	11433.47
496.639	11802.1
496.843	11732.47
497.046	12078.58
497.249	12254.7
497.453	12445.16
497.656	12641.77
497.859	12475.88
498.063	12641.77
498.266	13000.16
498.469	12797.42
498.673	13004.26
498.876	13299.17
499.079	13336.03
499.282	13467.1
499.485	13673.95
499.689	13323.74
499.892	13999.57
500.095	13946.33
500.298	14405.07
500.501	14448.08
500.705	14667.21
500.908	14829
501.111	14968.26
501.314	15168.96
501.517	15162.82
501.72	15531.45
501.923	15343.04
502.126	15883.7
502.329	16195
502.532	16113.08
502.735	16446.9
502.938	16694.7
503.141	16803.24
503.344	16960.94
503.547	17020.33
503.75	17436.06
503.953	17608.09
504.156	17970.58
504.359	18062.74
504.562	17986.97
504.765	18359.7
504.968	18773.39
505.17	18722.19
505.373	18961.8
505.576	19410.31
505.779	19574.14
505.982	19783.04
506.185	20237.69
506.387	20166.01
506.59	20624.75
506.793	21085.54
506.996	20923.76
507.198	21771.61
507.401	21491.04
507.604	21851.49
507.807	22332.76
508.009	22406.48
508.212	22365.53
508.415	22922.57
508.617	23350.6
508.82	23453
509.022	23213.38
509.225	23924.03
509.428	24403.25
509.63	24382.77
509.833	24735.03
510.035	25175.34
510.238	25034.03
510.44	25558.31
510.643	25943.33
510.845	26418.46
511.048	26225.95
511.25	26418.46
511.453	26586.39
511.655	27819.27
511.858	27526.41
512.06	27940.1
512.262	28030.21
512.465	28269.82
512.667	28943.6
512.87	29383.91
513.072	29359.34
513.274	29902.05
513.477	30227.68
513.679	30665.94
513.881	30909.65
514.084	31515.85
514.286	31147.22
514.488	31950.02
514.69	32701.62
514.893	32625.85
515.095	32801.97
515.297	33418.41
515.499	33596.59
515.701	33909.93
515.904	34493.6
516.106	34772.12
516.308	34866.33
516.51	35601.55
516.712	35486.86
516.914	35828.87
517.116	36191.36
517.318	36584.57
517.52	37069.94
517.722	37004.41
517.925	37874.79
518.127	38110.31
518.329	38741.08
518.531	38577.25
518.733	39502.93
518.935	39717.96
519.136	39634
519.338	40465.47
519.54	40420.42
519.742	41264.18
519.944	40993.85
520.146	41784.37
520.348	42124.33
520.55	42392.61
520.752	42624.03
520.954	43365.4
521.155	42880.03
521.357	43774.99
521.559	43875.34
521.761	44848.13
521.963	44776.45
522.164	45235.19
522.366	45138.94
522.568	45712.37
522.77	46138.35
522.971	46564.32
523.173	46357.48
523.375	46937.05
523.576	46904.29
523.778	47438.81
523.98	47893.46
524.181	47967.18
524.383	48016.33
524.584	48552.9
524.786	48880.58
524.988	48587.72
525.189	49062.85
525.391	49386.43
525.592	49613.75
525.794	49796.02
525.995	49623.99
526.197	50111.41
526.398	50432.94
526.6	50701.22
526.801	51045.28
527.003	50918.31
527.204	51196.83
527.406	51760.02
527.607	51653.53
527.808	52198.29
528.01	51381.15
528.211	51835.8
528.412	53420.92
528.614	52454.28
528.815	52736.9
529.016	53343.1
529.218	52812.68
529.419	52945.79
529.62	53021.57
529.822	53064.58
530.023	53556.09
530.224	53277.57
530.425	53390.2
530.626	53230.46
530.828	53007.23
531.029	54133.62
531.23	53650.3
531.431	53678.97
531.632	53468.03
531.833	53769.08
532.035	54203.25
532.236	54098.8
532.437	54580.07
532.638	54018.93
532.839	54893.41
533.04	54518.63
533.241	54004.59
533.442	54641.51
533.643	54854.5
533.844	54356.85
534.045	54874.98
534.246	54205.3
534.447	54600.55
534.648	54549.35
534.849	54668.14
535.05	54123.38
535.251	54725.48
535.451	54614.89
535.652	54850.41
535.853	54829.93
536.054	54809.45
536.255	55147.36
536.456	54467.44
536.657	55286.62
536.857	54711.14
537.058	55026.53
537.259	54764.39
537.46	54881.13
537.66	54412.14
537.861	54983.52
538.062	54735.72
538.263	55458.65
538.463	54932.32
538.664	54707.05
538.865	54739.82
539.065	55284.58
539.266	54666.09
539.466	55581.53
539.667	54668.14
539.868	55219.04
540.068	55034.72
540.269	55145.31
540.469	55169.89
540.67	54444.91
540.87	54915.94
541.071	54913.89
541.271	55120.74
541.472	54582.12
541.672	54459.24
541.873	54418.28
542.073	54655.85
542.274	55526.24
542.474	54917.99
542.675	54670.18
542.875	55087.97
543.075	54444.91
543.276	54256.49
543.476	54936.42
543.676	54479.72
543.877	54995.81
544.077	54575.98
544.277	55057.25
544.478	54670.18
544.678	54813.54
544.878	54913.89
545.078	54745.96
545.279	54379.37
545.479	54477.68
545.679	54641.51
545.879	55036.77
546.079	54961
546.28	55055.2
546.48	54543.21
546.68	55114.59
546.88	54795.11
547.08	54604.65
547.28	54442.86
547.48	54272.88
547.68	54391.66
547.88	54385.52
548.081	54940.52
548.281	54979.43
548.481	54477.68
548.681	55014.24
548.881	54698.86
549.081	54494.06
549.28	54256.49
549.48	54997.86
549.68	54440.81
549.88	55055.2
550.08	54518.63
550.28	54936.42
550.48	54498.16
550.68	54745.96
550.88	54041.46
551.08	54596.46
551.279	54737.77
551.479	54705
551.679	54350.7
551.879	54440.81
552.079	54944.61
552.278	54106.99
552.478	54309.74
552.678	54412.14
552.878	54516.59
553.077	54123.38
553.277	53605.24
553.477	54862.69
553.676	54469.48
553.876	54545.26
554.076	53937.01
554.275	53764.98
554.475	53476.22
554.674	54141.81
554.874	54016.88
555.074	53906.29
555.273	53977.97
555.473	53982.07
555.672	53605.24
555.872	54195.06
556.071	53947.25
556.271	54172.53
556.47	53603.19
556.67	53179.26
556.869	53658.49
557.068	53812.09
557.268	53416.83
557.467	53445.5
557.667	53316.48
557.866	53687.16
558.065	53248.89
558.265	52859.78
558.464	52822.92
558.663	53980.02
558.863	52730.76
559.062	53611.38
559.261	52626.31
559.461	53138.3
559.66	52267.92
559.859	52761.48
560.058	52683.65
560.258	52511.63
560.457	52487.05
560.656	53080.96
560.855	52616.07
561.054	52614.02
561.253	52089.74
561.453	52523.91
561.652	53048.19
561.851	52298.64
562.05	52052.88
562.249	51950.48
562.448	52519.82
562.647	52142.99
562.846	52231.05
563.045	52218.77
563.244	51526.55
563.443	52276.11
563.642	51260.32
563.841	51897.23
564.04	51567.51
564.239	52018.06
564.438	51458.97
564.637	51631
564.836	51790.74
565.035	51000.22
565.234	51608.47
565.432	51217.31
565.631	51184.54
565.83	50832.29
566.029	51123.1
566.228	51014.56
566.427	50846.63
566.625	50514.86
566.824	50396.07
567.023	51153.82
567.222	50353.07
567.42	51155.87
567.619	50629.54
567.818	50129.84
568.016	50193.32
568.215	50609.06
568.414	50424.75
568.612	50680.74
568.811	49728.44
569.01	50271.15
569.208	49140.67
569.407	49871.79
569.605	49441.72
569.804	49791.92
570.002	49398.71
570.201	49808.31
570.4	48688.07
570.598	48896.96
570.797	48509.89
570.995	48804.8
571.193	48393.16
571.392	48417.74
571.59	48503.75
571.789	48303.05
571.987	48317.39
572.186	48305.1
572.384	47731.67
572.582	48116.68
572.781	48438.22
572.979	47383.51
573.177	47672.28
573.376	47567.83
573.574	47125.47
573.772	47719.38
573.971	47344.6
574.169	47234.01
574.367	46511.08
574.565	46916.57
574.763	46689.25
574.962	46750.69
575.16	46050.28
575.358	46535.65
575.556	45683.7
575.754	46820.32
575.952	46046.19
576.151	45933.55
576.349	45712.37
576.547	45751.28
576.745	46029.8
576.943	45779.95
577.141	45534.2
577.339	45483
577.537	45192.19
577.735	45564.92
577.933	44833.79
578.131	44958.72
578.329	45102.07
578.527	44485.64
578.725	44692.48
578.923	44725.25
579.121	44135.43
579.319	44026.89
579.516	44620.8
579.714	43971.6
579.912	44104.71
580.11	43678.74
580.308	44080.14
580.506	43516.95
580.704	43154.46
580.901	43490.32
581.099	43441.17
581.297	42957.85
581.495	43308.05
581.692	43191.32
581.89	42404.9
582.088	43293.72
582.285	42640.42
582.483	42773.53
582.681	42359.84
582.878	42259.49
583.076	41991.21
583.274	42402.85
583.471	41991.21
583.669	41927.72
583.866	41554.99
584.064	41563.18
584.262	41362.48
584.459	41595.95
584.657	40989.75
584.854	41724.97
585.052	40887.35
585.249	41137.21
585.447	40639.55
585.644	40621.12
585.841	40590.4
586.039	41194.55
586.236	40055.88
586.434	40084.55
586.631	40240.2
586.828	40119.37
587.026	40262.72
587.223	40035.4
587.42	40029.26
587.618	39838.79
587.815	39447.63
588.012	39066.71
588.21	39273.56
588.407	39908.43
588.604	39101.53
588.801	39097.43
588.999	39097.43
589.196	38691.93
589.393	39007.32
589.59	38782.04
589.787	38620.25
589.984	38390.88
590.182	38108.26
590.379	38630.49
590.576	38046.82
590.773	38431.84
590.97	37940.33
591.167	38030.44
591.364	37713
591.561	37741.67
591.758	37373.04
591.955	37454.96
592.152	37475.44
592.349	37043.32
592.546	37581.93
592.743	37393.52
592.94	36617.34
593.137	37305.46
593.334	37071.99
593.531	36197.51
593.727	36603
593.924	36785.27
594.121	35978.37
594.318	36451.45
594.515	36291.71
594.712	36265.09
594.908	35845.26
595.105	36136.07
595.302	35421.33
595.499	35642.51
595.696	35736.71
595.892	35112.08
596.089	36050.05
596.286	35450
596.482	35105.94
596.679	35261.58
596.876	35409.04
597.072	34720.92
597.269	34837.66
597.466	34421.92
597.662	34864.28
597.859	34477.21
598.055	34567.32
598.252	34364.57
598.448	34102.43
598.645	34294.94
598.841	34114.72
599.038	33924.26
599.234	34213.02
599.431	33549.48
599.627	33617.07
599.824	33713.32
600.02	33438.89
600.217	33604.78
600.413	33309.87
600.609	33125.55
600.806	32853.17
601.002	33539.24
601.198	32894.13
601.395	33010.87
601.591	32586.94
601.787	32998.58
601.984	32109.76
602.18	32697.53
602.376	32171.2
602.572	32216.26
602.769	32083.14
602.965	31804.61
603.161	32040.13
603.357	31763.65
603.553	31368.4
603.75	31327.44
603.946	31364.3
604.142	31665.35
604.338	31171.79
604.534	31290.57
604.73	30854.36
604.926	30692.57
605.122	30946.51
605.318	30930.13
605.514	30461.15
605.71	30407.9
605.906	30573.78
606.102	30485.72
606.298	30178.53
606.494	30440.67
606.69	30264.54
606.886	30010.59
607.082	29598.95
607.278	29916.39
607.474	29367.53
607.67	29871.33
607.866	29496.55
608.062	29648.1
608.257	29369.58
608.453	29666.53
608.649	29369.58
608.845	28962.03
609.041	29181.17
609.236	29258.99
609.432	28910.83
609.628	28835.06
609.824	29113.58
610.019	28464.38
610.215	28476.66
610.411	28763.38
610.606	28423.42
610.802	28712.18
610.998	28218.62
611.193	28349.69
611.389	28171.52
611.584	27868.42
611.78	27743.49
611.976	27757.83
612.171	27714.82
612.367	27864.32
612.562	27487.5
612.758	27370.76
612.953	27288.84
613.149	27583.75
613.344	26963.22
613.539	27782.4
613.735	27313.42
613.93	27100.43
614.126	27014.41
614.321	27217.16
614.517	26897.68
614.712	26920.21
614.907	26785.04
615.103	26998.03
615.298	26858.77
615.493	27149.58
615.688	26158.36
615.884	26619.16
616.079	26058.01
616.274	26336.54
616.47	26225.95
616.665	26189.08
616.86	26006.81
617.055	25957.66
617.25	25943.33
617.445	26195.23
617.641	25398.57
617.836	25711.91
618.031	25552.16
618.226	25916.7
618.421	25191.72
618.616	25818.4
618.811	25011.5
619.006	25242.92
619.201	24714.55
619.396	25210.15
619.591	24737.07
619.786	25023.79
619.981	24614.2
620.176	24638.77
620.371	24407.35
620.566	24472.89
620.761	24108.35
620.956	24241.46
621.151	24102.2
621.346	23979.32
621.541	23717.18
621.735	23668.03
621.93	23479.62
622.125	23440.71
622.32	23350.6
622.515	22975.82
622.709	23188.81
622.904	22977.87
623.099	22941
623.294	22496.6
623.488	22461.78
623.683	22586.71
623.878	22175.06
624.072	22377.81
624.267	21976.41
624.462	22103.39
624.656	21869.92
624.851	22158.68
625.046	21609.82
625.24	21513.57
625.435	21384.55
625.629	21198.18
625.824	21079.4
626.018	21359.97
626.213	20710.77
626.407	20895.08
626.602	20909.42
626.796	20704.62
626.991	20405.62
627.185	20495.73
627.38	20180.34
627.574	20311.41
627.768	20086.14
627.963	19852.67
628.157	19912.06
628.352	20280.69
628.546	19600.77
628.74	19768.7
628.935	19320.2
629.129	19430.79
629.323	19056.01
629.517	19426.69
629.712	19010.95
629.906	18828.68
630.1	18593.17
630.294	18769.29
630.489	18787.72
630.683	18724.24
630.877	18398.61
631.071	18173.33
631.265	18697.61
631.459	18281.88
631.653	18187.67
631.848	17958.3
632.042	17827.23
632.236	17849.75
632.43	17876.38
632.624	17927.58
632.818	17743.26
633.012	17380.77
633.206	17135.01
633.4	17274.28
633.594	17055.14
633.788	17266.08
633.982	17239.46
634.176	17188.26
634.369	17055.14
634.563	16813.48
634.757	16770.47
634.951	16704.94
635.145	16674.22
635.339	16672.17
635.533	16240.05
635.726	16391.6
635.92	16215.48
636.114	16303.54
636.308	16147.89
636.501	16008.63
636.695	16106.93
636.889	15805.88
637.083	15967.67
637.276	15644.09
637.47	15658.43
637.664	15586.75
637.857	15637.95
638.051	15384
638.244	15377.86
638.438	15295.94
638.632	15064.52
638.825	15019.46
639.019	14853.58
639.212	14837.19
639.406	14890.44
639.599	14890.44
639.793	14818.76
639.986	14525.9
640.18	14511.57
640.373	14757.32
640.567	14349.78
640.76	14427.6
640.954	14456.27
641.147	14230.99
641.34	14112.21
641.534	14044.63
641.727	13946.33
641.92	13661.66
642.114	13796.82
642.307	13907.41
642.5	13766.1
642.694	13340.13
642.887	13385.18
643.08	13313.5
643.273	13344.22
643.467	13336.03
643.66	13102.56
643.853	13399.52
644.046	12905.96
644.239	13149.67
644.432	12948.97
644.626	12776.94
644.819	12768.74
645.012	12695.02
645.205	12869.09
645.398	12791.27
645.591	12457.45
645.784	12334.57
645.977	12226.03
646.17	12328.43
646.363	11957.75
646.556	12195.31
646.749	12115.44
646.942	11935.22
647.135	11914.74
647.328	11861.49
647.521	11841.01
647.714	11693.56
647.907	11523.58
648.099	11611.64
648.292	11404.8
648.485	11306.49
648.678	11318.78
648.871	11345.41
649.064	11322.88
649.256	11228.67
649.449	11232.77
649.642	11046.4
649.835	10903.04
650.027	10776.07
650.22	10794.5
650.413	10573.32
650.605	10708.49
650.798	10567.18
650.991	10620.42
651.183	10626.57
651.376	10241.55
651.568	10372.62
651.761	10227.21
651.954	10169.87
652.146	10137.1
652.339	10067.47
652.531	9948.69
652.724	9934.36
652.916	9858.58
653.109	9831.96
653.301	9909.78
653.494	9930.26
653.686	9664.02
653.879	9604.63
654.071	9549.34
654.263	9463.32
654.456	9618.97
654.648	9459.23
654.84	9092.64
655.033	9473.56
655.225	9240.09
655.417	9186.85
655.61	8877.6
655.802	8967.71
655.994	8898.08
656.186	8971.81
656.379	8783.4
656.571	8871.46
656.763	8635.94
656.955	8668.71
657.148	8496.68
657.34	8683.05
657.532	8291.88
657.724	8330.8
657.916	8369.71
658.108	8252.97
658.3	8277.55
658.492	8080.94
658.684	8128.05
658.876	7921.2
659.068	8050.22
659.26	7855.67
659.452	7941.68
659.644	7841.33
659.836	7755.32
660.028	7693.88
660.22	7554.62
660.412	7628.34
660.604	7575.1
660.796	7525.94
660.988	7415.35
661.18	7370.3
661.372	7398.97
661.563	7245.37
661.755	7335.48
661.947	7161.41
662.139	7077.44
662.331	7054.91
662.522	6925.89
662.714	7130.69
662.906	6927.94
663.097	6864.45
663.289	6712.9
663.481	6641.22
663.673	6762.05
663.864	6747.72
664.056	6633.03
664.247	6565.45
664.439	6475.34
664.631	6487.62
664.822	6577.73
665.014	6356.55
665.205	6370.89
665.397	6309.45
665.588	6254.16
665.78	6223.44
665.971	6200.91
666.163	6448.71
666.354	6114.89
666.546	6055.5
666.737	6043.21
666.929	5795.41
667.12	5881.42
667.311	5989.97
667.503	5809.75
667.694	5787.22
667.885	5793.36
668.077	5860.95
668.268	5731.92
668.459	5805.65
668.651	5650
668.842	5701.2
669.033	5680.72
669.224	5531.22
669.416	5572.18
669.607	5451.35
669.798	5400.15
669.989	5385.82
670.18	5535.32
670.371	5402.2
670.563	5250.65
670.754	5383.77
670.945	5328.47
671.136	5326.43
671.327	5162.59
671.518	5201.5
671.709	5148.25
671.9	5146.2
672.091	5203.55
672.282	5129.82
672.473	5117.53
672.664	5121.63
672.855	5095
673.046	5033.57
673.237	4961.89
673.428	5084.77
673.619	4851.3
673.809	5017.18
674	4877.92
674.191	4834.91
674.382	4914.78
674.573	4845.15
674.764	4746.85
674.954	4800.1
675.145	4738.66
675.336	4712.03
675.527	4826.72
675.717	4673.12
675.908	4709.99
676.099	4789.86
676.289	4744.8
676.48	4601.44
676.671	4638.31
676.861	4583.01
677.052	4478.57
677.243	4519.53
677.433	4476.52
677.624	4439.65
677.814	4456.04
678.005	4492.9
678.195	4558.44
678.386	4472.42
678.576	4529.77
678.767	4449.89
678.957	4400.74
679.148	4230.76
679.338	4474.47
679.529	4347.5
679.719	4310.63
679.909	4339.3
680.1	4249.19
680.29	4372.07
680.481	4433.51
680.671	4279.91
680.861	4187.75
681.052	4249.19
681.242	4247.15
681.432	4173.42
681.622	4152.94
681.813	4163.18
682.003	4128.36
682.193	4290.15
682.383	4208.23
682.573	4253.29
682.764	4097.64
682.954	4163.18
683.144	4075.12
683.334	4050.54
683.524	4148.84
683.714	4017.77
683.904	3999.34
684.094	4091.5
684.284	4013.68
684.474	4079.21
684.664	4116.08
684.854	4034.16
685.044	4062.83
685.234	3985.01
685.424	3858.03
685.614	3905.14
685.804	3892.85
685.994	3944.05
686.184	4044.4
686.374	4030.06
686.564	3950.19
686.753	3987.05
686.943	3810.93
687.133	3866.22
687.323	3860.08
687.513	3853.94
687.702	3964.53
687.892	3696.24
688.082	3786.35
688.272	3866.22
688.461	3753.59
688.651	3927.66
688.841	3884.66
689.03	3892.85
689.22	3769.97
689.41	3864.18
689.599	3755.63
689.789	3855.98
689.979	3737.2
690.168	3833.46
690.358	3815.02
690.547	3704.43
690.737	3790.45
690.926	3657.33
691.116	3886.7
691.305	3819.12
691.495	3700.34
691.684	3714.67
691.874	3843.7
692.063	3833.46
692.252	3688.05
692.442	3767.92
692.631	3714.67
692.82	3714.67
693.01	3784.3
693.199	3729.01
693.388	3694.19
693.578	3741.3
693.767	3808.88
693.956	3739.25
694.146	3739.25
694.335	3513.97
694.524	3683.95
694.713	3827.31
694.902	3626.61
695.092	3702.39
695.281	3620.47
695.47	3726.96
695.659	3741.3
695.848	3587.7
696.037	3655.28
696.226	3542.64
696.415	3700.34
696.604	3634.8
696.793	3661.43
696.982	3765.87
697.171	3657.33
697.36	3561.08
697.549	3681.91
697.738	3655.28
697.927	3614.32
698.116	3663.47
698.305	3509.88
698.494	3618.42
698.683	3626.61
698.872	3489.4
699.061	3585.65
699.25	3622.52
699.438	3556.98
699.627	3470.97
699.816	3462.77
700.005	3446.39
700.193	3389.05
700.382	3491.45
700.571	3464.82
700.76	3501.69
700.948	3444.34
701.137	3425.91
701.326	3440.25
701.514	3411.57
701.703	3505.78
701.892	3464.82
702.08	3567.22
702.269	3270.26
702.457	3466.87
702.646	3454.58
702.834	3423.86
703.023	3356.28
703.212	3409.53
703.4	3272.31
703.589	3354.23
703.777	3387
703.965	3231.35
704.154	3354.23
704.342	3362.42
704.531	3290.74
704.719	3294.84
704.907	3323.51
705.096	3272.31
705.284	3104.38
705.472	3149.43
705.661	3178.11
705.849	3198.59
706.037	3145.34
706.226	3169.91
706.414	3131
706.602	3088
706.79	3155.58
706.979	3149.43
707.167	3120.76
707.355	3112.57
707.543	3053.18
707.731	3098.24
707.919	2954.88
708.107	2989.69
708.296	2971.26
708.484	3012.22
708.672	2985.6
708.86	2999.93
709.048	2942.59
709.236	2868.86
709.424	2858.62
709.612	2901.63
709.8	2965.12
709.988	2909.82
710.176	2950.78
710.364	2895.49
710.551	2969.21
710.739	2768.51
710.927	2961.02
711.115	2915.97
711.303	2698.88
711.491	2700.93
711.679	2780.8
711.866	2770.56
712.054	2725.51
712.242	2680.45
712.43	2649.73
712.617	2739.84
712.805	2678.4
712.993	2674.31
713.181	2582.15
713.368	2563.72
713.556	2729.6
713.744	2606.72
713.931	2598.53
714.119	2502.28
714.306	2623.11
714.494	2639.49
714.682	2619.01
714.869	2645.63
715.057	2639.49
715.244	2594.44
715.432	2420.36
715.619	2541.19
715.807	2485.89
715.994	2406.02
716.182	2459.27
716.369	2424.45
716.556	2469.51
716.744	2373.25
716.931	2385.54
717.119	2379.4
717.306	2406.02
717.493	2442.89
717.681	2385.54
717.868	2332.3
718.055	2375.3
718.242	2328.2
718.43	2291.34
718.617	2330.25
718.804	2395.78
718.991	2330.25
719.179	2270.86
719.366	2246.28
719.553	2328.2
719.74	2236.04
719.927	2125.45
720.114	2201.23
720.301	2215.56
720.488	2205.32
720.676	2164.36
720.863	2031.24
721.05	2139.79
721.237	2121.35
721.424	2100.87
721.611	2221.7
721.798	2201.23
721.985	2035.34
722.172	2000.52
722.358	1978
722.545	1975.95
722.732	2014.86
722.919	2174.6
723.106	2025.1
723.293	2094.73
723.48	2068.11
723.667	1959.56
723.853	1906.32
724.04	2041.48
724.227	1930.89
724.414	2041.48
724.6	1896.08
724.787	1990.28
724.974	1875.6
725.161	1846.93
725.347	1799.82
725.534	1902.22
725.72	1949.32
725.907	1828.49
726.094	1920.65
726.28	1875.6
726.467	1842.83
726.653	1724.05
726.84	1883.79
727.027	1863.31
727.213	1805.97
727.4	1812.11
727.586	1844.88
727.773	1787.54
727.959	1787.54
728.145	1765.01
728.332	1740.43
728.518	1736.34
728.705	1789.58
728.891	1705.62
729.077	1736.34
729.264	1740.43
729.45	1681.04
729.636	1670.8
729.823	1640.08
730.009	1771.15
730.195	1664.66
730.382	1699.47
730.568	1646.23
730.754	1668.75
730.94	1611.41
731.126	1738.38
731.313	1627.79
731.499	1611.41
731.685	1570.45
731.871	1529.49
732.057	1658.51
732.243	1599.12
732.429	1568.4
732.615	1590.93
732.801	1580.69
732.987	1558.16
733.173	1570.45
733.359	1574.55
733.545	1564.31
733.731	1566.35
733.917	1623.7
734.103	1543.83
734.289	1525.4
734.475	1363.61
734.661	1441.43
734.847	1494.68
735.033	1525.4
735.219	1482.39
735.404	1443.48
735.59	1517.2
735.776	1468.05
735.962	1494.68
736.148	1402.52
736.333	1443.48
736.519	1433.24
736.705	1449.62
736.89	1390.23
737.076	1416.85
737.262	1373.85
737.447	1394.33
737.633	1410.71
737.819	1394.33
738.004	1379.99
738.19	1402.52
738.375	1312.41
738.561	1339.03
738.747	1240.73
738.932	1279.64
739.118	1406.61
739.303	1330.84
739.489	1355.41
739.674	1320.6
739.859	1400.47
740.045	1250.97
740.23	1289.88
740.416	1296.02
740.601	1394.33
740.786	1296.02
740.972	1207.96
741.157	1220.25
741.342	1322.65
741.528	1275.54
741.713	1271.45
741.898	1289.88
742.084	1275.54
742.269	1169.05
742.454	1285.78
742.639	1265.3
742.824	1242.78
743.01	1156.76
743.195	1130.14
743.38	1148.57
743.565	1148.57
743.75	1164.95
743.935	1207.96
744.12	1191.58
744.305	1169.05
744.49	1138.33
744.675	1175.19
744.86	1140.38
745.045	1085.08
745.23	1074.84
745.415	1091.23
745.6	1126.04
745.785	1111.71
745.97	1087.13
746.155	1091.23
746.34	1107.61
746.525	1060.51
746.71	1111.71
746.895	1070.75
747.079	1136.28
747.264	1035.93
747.449	1060.51
747.634	1009.31
747.819	1058.46
748.003	956.06
748.188	997.02
748.373	1091.23
748.557	968.35
748.742	960.16
748.927	964.25
749.111	964.25
749.296	1062.55
749.481	1017.5
749.665	1003.16
749.85	972.44
750.034	951.96
750.219	884.38
750.404	927.39
750.588	941.72
750.773	853.66
750.957	931.48
751.141	876.19
751.326	790.17
751.51	859.81
751.695	976.54
751.879	937.63
752.064	927.39
752.248	796.32
752.432	880.29
752.617	812.7
752.801	882.33
752.985	853.66
753.17	861.85
753.354	784.03
753.538	824.99
753.722	804.51
753.907	743.07
754.091	886.43
754.275	831.13
754.459	751.26
754.643	792.22
754.828	775.84
755.012	749.22
755.196	843.42
755.38	749.22
755.564	804.51
755.748	771.74
755.932	810.65
756.116	806.56
756.3	745.12
756.484	689.82
756.668	708.26
756.852	722.59
757.036	814.75
757.22	683.68
757.404	818.85
757.588	724.64
757.772	747.17
757.956	683.68
758.14	726.69
758.323	730.78
758.507	679.58
758.691	730.78
758.875	640.67
759.059	685.73
759.242	749.22
759.426	675.49
759.61	677.54
759.794	689.82
759.977	571.04
760.161	667.3
760.345	587.43
760.528	642.72
760.712	603.81
760.895	605.86
761.079	673.44
761.263	632.48
761.446	601.76
761.63	638.62
761.813	698.02
761.997	693.92
762.18	622.24
762.364	665.25
762.547	593.57
762.731	571.04
762.914	591.52
763.098	593.57
763.281	579.23
763.464	675.49
763.648	562.85
763.831	626.34
764.015	554.66
764.198	661.15
764.381	528.03
764.564	554.66
764.748	542.37
764.931	575.14
765.114	581.28
765.297	618.15
765.481	571.04
765.664	591.52
765.847	530.08
766.03	554.66
766.213	562.85
766.397	607.91
766.58	648.86
766.763	521.89
766.946	523.94
767.129	556.71
767.312	607.91
767.495	581.28
767.678	622.24
767.861	517.79
768.044	542.37
768.227	636.58
768.41	564.9
768.593	540.32
768.776	521.89
768.959	515.75
769.142	550.56
769.324	519.84
769.507	495.27
769.69	556.71
769.873	530.08
770.056	478.88
770.239	618.15
770.421	612
770.604	542.37
770.787	597.67
770.97	509.6
771.152	513.7
771.335	454.31
771.518	407.2
771.7	554.66
771.883	489.12
772.066	542.37
772.248	505.51
772.431	487.08
772.613	542.37
772.796	528.03
772.978	550.56
773.161	390.82
773.343	444.07
773.526	507.55
773.708	427.68
773.891	525.99
774.073	442.02
774.256	489.12
774.438	513.7
774.621	560.8
774.803	444.07
774.985	474.79
775.168	487.08
775.35	495.27
775.532	476.84
775.715	433.83
775.897	507.55
776.079	482.98
776.261	413.35
776.444	478.88
776.626	487.08
776.808	456.36
776.99	360.1
777.173	466.6
777.355	439.97
777.537	415.4
777.719	421.54
777.901	417.44
778.083	460.45
778.265	394.92
778.447	503.46
778.629	468.64
778.811	419.49
778.993	472.74
779.175	464.55
779.357	407.2
779.539	399.01
779.721	485.03
779.903	341.67
780.085	382.63
780.267	380.58
780.449	378.53
780.631	401.06
780.812	370.34
780.994	462.5
781.176	401.06
781.358	478.88
781.54	288.42
781.721	364.2
781.903	323.24
782.085	378.53
782.267	384.68
782.448	358.05
782.63	390.82
782.812	380.58
782.993	380.58
783.175	282.28
783.357	360.1
783.538	411.3
783.72	345.77
783.901	356.01
784.083	349.86
784.264	282.28
784.446	331.43
784.627	331.43
784.809	372.39
784.99	353.96
785.172	237.22
785.353	241.32
785.535	364.2
785.716	280.23
785.897	253.61
786.079	343.72
786.26	286.37
786.441	353.96
786.623	296.61
786.804	308.9
786.985	276.13
787.167	296.61
787.348	253.61
787.529	261.8
787.71	233.13
787.891	349.86
788.073	327.33
788.254	239.27
788.435	341.67
788.616	341.67
788.797	222.89
788.978	362.15
789.159	253.61
789.34	255.65
789.522	257.7
789.703	253.61
789.884	216.74
790.065	292.52
790.246	243.37
790.427	269.99
790.607	290.47
790.788	282.28
790.969	214.7
791.15	171.69
791.331	229.03
791.512	247.46
791.693	186.02
791.874	229.03
792.054	251.56
792.235	239.27
792.416	261.8
792.597	231.08
792.778	253.61
792.958	159.4
793.139	239.27
793.32	288.42
793.5	194.22
793.681	272.04
793.862	298.66
794.042	224.94
794.223	208.55
794.404	214.7
794.584	181.93
794.765	286.37
794.945	210.6
795.126	175.78
795.306	247.46
795.487	323.24
795.667	198.31
795.848	188.07
796.028	298.66
796.209	192.17
796.389	181.93
796.57	198.31
796.75	216.74
796.93	265.89
797.111	206.5
797.291	190.12
797.471	235.18
797.652	128.68
797.832	192.17
798.012	235.18
798.192	169.64
798.373	122.54
798.553	91.82
798.733	204.46
798.913	173.74
799.093	216.74
799.274	188.07
799.454	212.65
799.634	155.3
799.814	177.83
799.994	208.55
800.174	169.64
800.354	190.12
800.534	183.98
800.714	145.06
800.894	239.27
801.074	151.21
801.254	134.82
801.434	124.58
801.614	159.4
801.794	171.69
801.974	425.64
802.154	95.91
802.334	147.11
802.514	126.63
802.693	159.4
802.873	120.49
803.053	155.3
803.233	163.5
803.413	79.53
803.592	165.54
803.772	269.99
803.952	151.21
804.131	136.87
804.311	171.69
804.491	145.06
804.67	126.63
804.85	132.78
805.03	163.5
805.209	140.97
805.389	136.87
805.568	165.54
805.748	97.96
805.928	134.82
806.107	198.31
806.287	130.73
806.466	130.73
806.646	210.6
806.825	140.97
807.004	155.3
807.184	50.86
807.363	161.45
807.543	161.45
807.722	183.98
807.901	91.82
808.081	124.58
808.26	63.15
808.439	104.11
808.619	155.3
808.798	169.64
808.977	71.34
809.156	151.21
809.336	118.44
809.515	104.11
809.694	104.11
809.873	108.2
810.052	108.2
810.231	143.02
810.411	83.63
810.59	116.39
810.769	183.98
810.948	93.87
811.127	36.52
811.306	171.69
811.485	42.67
811.664	194.22
811.843	67.24
812.022	147.11
812.201	138.92
812.38	89.77
812.559	85.67
812.737	124.58
812.916	95.91
813.095	159.4
813.274	122.54
813.453	140.97
813.632	120.49
813.811	134.82
813.989	132.78
814.168	138.92
814.347	124.58
814.526	104.11
814.704	5.8
814.883	136.87
815.062	192.17
815.24	171.69
815.419	57
815.598	91.82
815.776	91.82
815.955	138.92
816.133	59.05
816.312	118.44
816.49	69.29
816.669	73.39
816.847	67.24
817.026	85.67
817.204	132.78
817.383	192.17
817.561	36.52
817.74	110.25
817.918	112.3
818.097	134.82
818.275	149.16
818.453	102.06
818.632	124.58
818.81	165.54
818.988	112.3
819.167	36.52
819.345	132.78
819.523	85.67
819.701	87.72
819.879	122.54
820.058	34.47
820.236	77.48
820.414	114.34
820.592	161.45
820.77	52.91
820.948	106.15
821.127	52.91
821.305	93.87
821.483	46.76
821.661	140.97
821.839	85.67
822.017	118.44
822.195	11.95
822.373	106.15
822.551	52.91
822.729	140.97
822.907	91.82
823.085	87.72
823.262	79.53
823.44	32.43
823.618	61.1
823.796	48.81
823.974	-20.82
824.152	42.67
824.329	52.91
824.507	48.81
824.685	134.82
824.863	38.57
825.04	28.33
825.218	75.43
825.396	116.39
825.574	42.67
825.751	93.87
825.929	22.19
826.107	13.99
826.284	104.11
826.462	85.67
826.639	57
826.817	69.29
826.994	128.68
827.172	32.43
827.349	108.2
827.527	50.86
827.704	61.1
827.882	102.06
828.059	44.71
828.237	5.8
828.414	118.44
828.591	100.01
828.769	140.97
828.946	48.81
829.124	100.01
829.301	67.24
829.478	50.86
829.655	24.23
829.833	79.53
830.01	-24.92
830.187	9.9
830.364	122.54
830.542	83.63
830.719	30.38
830.896	108.2
831.073	132.78
831.25	100.01
831.427	57
831.604	83.63
831.782	108.2
831.959	34.47
832.136	24.23
832.313	28.33
832.49	85.67
832.667	87.72
832.844	-12.63
833.021	-6.49
833.198	34.47
833.374	75.43
833.551	59.05
833.728	93.87
833.905	71.34
834.082	77.48
834.259	77.48
834.436	91.82
834.612	73.39
834.789	91.82
834.966	71.34
835.143	-10.58
835.319	50.86
835.496	38.57
835.673	149.16
835.85	75.43
836.026	83.63
836.203	140.97
836.38	83.63
836.556	67.24
836.733	57
836.909	22.19
837.086	93.87
837.262	-14.68
837.439	34.47
837.616	-0.34
837.792	13.99
837.968	57
838.145	44.71
838.321	30.38
838.498	38.57
838.674	-2.39
838.851	75.43
839.027	52.91
839.203	-14.68
839.38	38.57
839.556	13.99
839.732	71.34
839.909	112.3
840.085	46.76
840.261	79.53
840.437	28.33
840.614	104.11
840.79	108.2
840.966	28.33
841.142	67.24
841.318	108.2
841.494	110.25
841.671	61.1
841.847	46.76
842.023	28.33
842.199	57
842.375	18.09
842.551	57
842.727	20.14
842.903	65.19
843.079	7.85
843.255	9.9
843.431	3.75
843.607	63.15
843.783	61.1
843.959	79.53
844.134	65.19
844.31	44.71
844.486	50.86
844.662	-4.44
844.838	28.33
845.013	24.23
845.189	77.48
845.365	91.82
845.541	32.43
845.716	67.24
845.892	-12.63
846.068	-20.82
846.244	85.67
846.419	44.71
846.595	-14.68
846.77	59.05
846.946	71.34
847.122	40.62
847.297	-2.39
847.473	65.19
847.648	100.01
847.824	9.9
847.999	34.47
848.175	65.19
848.35	18.09
848.526	13.99
848.701	52.91
848.876	91.82
849.052	30.38
849.227	9.9
849.403	-18.77
849.578	-43.35
849.753	26.28
849.929	40.62
850.104	7.85
850.279	28.33
850.454	40.62
850.63	26.28
850.805	9.9
850.98	52.91
851.155	77.48
851.33	77.48
851.505	18.09
851.681	-31.06
851.856	28.33
852.031	91.82
852.206	50.86
852.381	-0.34
852.556	-2.39
852.731	-55.64
852.906	100.01
853.081	52.91
853.256	28.33
853.431	52.91
853.606	22.19
853.781	3.75
853.956	5.8
854.131	38.57
854.305	3.75
854.48	34.47
854.655	50.86
854.83	104.11
855.005	22.19
855.18	-4.44
855.354	30.38
855.529	30.38
855.704	40.62
855.879	1.71
856.053	44.71
856.228	46.76
856.403	75.43
856.577	128.68
856.752	20.14
856.926	-12.63
857.101	9.9
857.276	18.09
857.45	89.77
857.625	34.47
857.799	36.52
857.974	30.38
858.148	-18.77
858.323	67.24
858.497	-22.87
858.672	124.58
858.846	-6.49
859.02	34.47
859.195	-18.77
859.369	34.47
859.543	11.95
859.718	38.57
859.892	1.71
860.066	52.91
860.241	30.38
860.415	67.24
860.589	59.05
860.763	26.28
860.938	-0.34
861.112	65.19
861.286	34.47
861.46	57
861.634	61.1
861.808	100.01
861.982	28.33
862.157	-31.06
862.331	79.53
862.505	-39.25
862.679	36.52
862.853	-22.87
863.027	67.24
863.201	-51.54
863.375	59.05
863.549	104.11
863.722	42.67
863.896	-41.3
864.07	18.09
864.244	112.3
864.418	83.63
864.592	61.1
864.766	57
864.939	42.67
865.113	-10.58
865.287	54.95
865.461	-26.96
865.634	-14.68
865.808	67.24
865.982	87.72
866.156	69.29
866.329	7.85
866.503	-0.34
866.676	77.48
866.85	5.8
867.024	22.19
867.197	95.91
867.371	52.91
867.544	110.25
867.718	24.23
867.891	52.91
868.065	11.95
868.238	-35.16
868.412	61.1
868.585	24.23
868.759	34.47
868.932	-20.82
869.105	-6.49
869.279	50.86
869.452	13.99
869.625	24.23
869.799	44.71
869.972	34.47
870.145	38.57
870.319	3.75
870.492	34.47
870.665	24.23
870.838	22.19
871.011	-4.44
871.185	-6.49
871.358	-6.49
871.531	57
871.704	73.39
871.877	-6.49
872.05	-41.3
872.223	-12.63
872.396	59.05
872.569	22.19
872.742	-31.06
872.915	91.82
873.088	79.53
873.261	20.14
873.434	1.71
873.607	-57.68
873.78	83.63
873.953	-29.01
874.126	52.91
874.299	54.95
874.471	-51.54
874.644	34.47
874.817	16.04
874.99	20.14
875.163	3.75
875.335	42.67
875.508	26.28
875.681	77.48
875.853	-33.11
876.026	26.28
876.199	34.47
876.371	48.81
876.544	7.85
876.717	42.67
876.889	67.24
877.062	18.09
877.234	1.71
877.407	61.1
877.579	42.67
877.752	-2.39
877.924	-0.34
878.097	42.67
878.269	63.15
878.442	46.76
878.614	1.71
878.786	38.57
878.959	85.67
879.131	44.71
879.303	63.15
879.476	18.09
879.648	28.33
879.82	-53.59
879.993	46.76
880.165	-26.96
880.337	93.87
880.509	20.14
880.681	32.43
880.854	-18.77
881.026	61.1
881.198	36.52
881.37	77.48
881.542	9.9
881.714	-10.58
881.886	18.09
882.058	30.38
882.23	9.9
882.402	13.99
882.574	46.76
882.746	46.76
882.918	57
883.09	40.62
883.262	44.71
883.434	-102.74
883.606	1.71
883.778	5.8
883.95	26.28
884.122	16.04
884.293	40.62
884.465	26.28
884.637	-29.01
884.809	-33.11
884.98	61.1
885.152	3.75
885.324	42.67
885.496	13.99
885.667	-35.16
885.839	75.43
886.011	46.76
886.182	13.99
886.354	63.15
886.525	-6.49
886.697	61.1
886.869	52.91
887.04	42.67
887.212	26.28
887.383	30.38
887.555	61.1
887.726	-12.63
887.897	16.04
888.069	-29.01
888.24	46.76
888.412	-12.63
888.583	22.19
888.754	100.01
888.926	-8.53
889.097	69.29
889.268	-31.06
889.44	-51.54
889.611	7.85
889.782	9.9
889.953	32.43
890.125	-12.63
890.296	-12.63
890.467	85.67
890.638	-26.96
890.809	-18.77
890.98	20.14
891.151	89.77
891.323	-8.53
891.494	48.81
891.665	48.81
891.836	5.8
892.007	44.71
892.178	-45.4
892.349	16.04
892.52	42.67
892.691	-4.44
892.862	9.9
893.032	63.15
893.203	79.53
893.374	-24.92
893.545	9.9
893.716	54.95
893.887	30.38
894.057	-47.44
894.228	40.62
894.399	9.9
894.57	-39.25
894.74	11.95
894.911	52.91
895.082	5.8
895.253	-0.34
895.423	-10.58
895.594	63.15
895.764	18.09
895.935	95.91
896.106	75.43
896.276	-63.83
896.447	42.67
896.617	63.15
896.788	-31.06
896.958	-10.58
897.129	7.85
897.299	-31.06
897.47	42.67
897.64	71.34
897.81	54.95
897.981	13.99
898.151	30.38
898.322	-10.58
898.492	34.47
898.662	89.77
898.832	28.33
899.003	42.67
899.173	-26.96
899.343	34.47
899.513	67.24
