Data from USB4F104151__72__13-54-05-953.txt Node

Date: Thu Mar 13 13:54:05 EDT 2025
User: louis
Spectrometer: USB4F10415
Trigger mode: 4
Integration Time (sec): 1.000000E-2
Scans to average: 1
Electric dark correction enabled: true
Nonlinearity correction enabled: false
Boxcar width: 0
XAxis mode: Wavelengths
Number of Pixels in Spectrum: 3648
>>>>>Begin Spectral Data<<<<<
178.204	-59.22
178.424	-59.22
178.644	-59.22
178.864	-89.94
179.084	-46.93
179.304	63.66
179.524	-3.93
179.744	-10.07
179.964	-28.5
180.184	80.04
180.404	-1.88
180.624	-1.88
180.844	-32.6
181.064	0.17
181.283	-63.32
181.503	30.89
181.723	-32.6
181.943	-1.88
182.163	32.94
182.383	51.37
182.602	-12.12
182.822	28.84
183.042	8.36
183.262	-30.55
183.482	16.55
183.701	55.47
183.921	-40.79
184.141	53.42
184.361	16.55
184.58	14.51
184.8	-22.36
185.02	24.75
185.239	20.65
185.459	59.56
185.679	-20.31
185.898	14.51
186.118	4.27
186.338	-32.6
186.557	10.41
186.777	-34.64
186.997	-38.74
187.216	41.13
187.436	26.79
187.655	61.61
187.875	30.89
188.095	-48.98
188.314	53.42
188.534	32.94
188.753	22.7
188.973	65.71
189.192	43.18
189.412	-22.36
189.631	-8.02
189.851	28.84
190.07	30.89
190.29	43.18
190.509	18.6
190.729	16.55
190.948	-20.31
191.168	43.18
191.387	84.14
191.607	59.56
191.826	24.75
192.045	-24.4
192.265	41.13
192.484	10.41
192.704	39.08
192.923	26.79
193.142	37.03
193.362	32.94
193.581	-10.07
193.8	8.36
194.02	65.71
194.239	6.31
194.458	90.28
194.678	28.84
194.897	10.41
195.116	10.41
195.335	-44.88
195.555	-59.22
195.774	6.31
195.993	-24.4
196.212	53.42
196.432	4.27
196.651	6.31
196.87	18.6
197.089	28.84
197.308	2.22
197.528	22.7
197.747	45.23
197.966	57.51
198.185	63.66
198.404	6.31
198.623	-10.07
198.842	-8.02
199.062	69.8
199.281	49.32
199.5	32.94
199.719	0.17
199.938	4.27
200.157	65.71
200.376	6.31
200.595	71.85
200.814	16.55
201.033	53.42
201.252	39.08
201.471	37.03
201.69	-5.97
201.909	67.75
202.128	28.84
202.347	90.28
202.566	53.42
202.785	71.85
203.004	-10.07
203.223	57.51
203.442	-3.93
203.661	-46.93
203.879	39.08
204.098	-20.31
204.317	8.36
204.536	22.7
204.755	100.52
204.974	-67.41
205.193	12.46
205.411	-42.84
205.63	-5.97
205.849	47.27
206.068	18.6
206.287	55.47
206.505	63.66
206.724	-8.02
206.943	49.32
207.162	-3.93
207.381	-42.84
207.599	43.18
207.818	55.47
208.037	53.42
208.255	2.22
208.474	51.37
208.693	4.27
208.911	12.46
209.13	14.51
209.349	39.08
209.567	47.27
209.786	-26.45
210.005	-51.03
210.223	24.75
210.442	-5.97
210.661	73.9
210.879	4.27
211.098	37.03
211.316	16.55
211.535	41.13
211.753	14.51
211.972	22.7
212.191	45.23
212.409	57.51
212.628	-12.12
212.846	69.8
213.065	-28.5
213.283	53.42
213.502	-34.64
213.72	84.14
213.938	39.08
214.157	28.84
214.375	28.84
214.594	18.6
214.812	77.99
215.031	-26.45
215.249	-5.97
215.467	-8.02
215.686	-51.03
215.904	16.55
216.122	47.27
216.341	0.17
216.559	-5.97
216.778	6.31
216.996	0.17
217.214	20.65
217.432	10.41
217.651	34.99
217.869	4.27
218.087	51.37
218.306	-12.12
218.524	16.55
218.742	75.95
218.96	-5.97
219.179	59.56
219.397	10.41
219.615	2.22
219.833	71.85
220.051	20.65
220.27	92.33
220.488	16.55
220.706	16.55
220.924	-16.21
221.142	32.94
221.36	37.03
221.578	-46.93
221.796	-22.36
222.015	-8.02
222.233	49.32
222.451	102.57
222.669	18.6
222.887	16.55
223.105	-48.98
223.323	2.22
223.541	57.51
223.759	34.99
223.977	26.79
224.195	24.75
224.413	73.9
224.631	67.75
224.849	65.71
225.067	12.46
225.285	12.46
225.503	32.94
225.721	57.51
225.939	8.36
226.157	0.17
226.375	55.47
226.592	28.84
226.81	45.23
227.028	8.36
227.246	67.75
227.464	16.55
227.682	-32.6
227.9	24.75
228.117	14.51
228.335	-46.93
228.553	-42.84
228.771	59.56
228.989	45.23
229.206	43.18
229.424	-28.5
229.642	0.17
229.86	-12.12
230.077	22.7
230.295	65.71
230.513	4.27
230.731	98.47
230.948	53.42
231.166	-59.22
231.384	26.79
231.601	2.22
231.819	18.6
232.037	-44.88
232.254	39.08
232.472	73.9
232.689	4.27
232.907	-24.4
233.125	24.75
233.342	-51.03
233.56	49.32
233.777	37.03
233.995	32.94
234.213	32.94
234.43	39.08
234.648	-20.31
234.865	53.42
235.083	45.23
235.3	24.75
235.518	-14.17
235.735	24.75
235.953	53.42
236.17	-61.27
236.388	39.08
236.605	16.55
236.822	0.17
237.04	96.43
237.257	37.03
237.475	24.75
237.692	71.85
237.909	41.13
238.127	55.47
238.344	43.18
238.562	22.7
238.779	39.08
238.996	20.65
239.214	26.79
239.431	24.75
239.648	6.31
239.865	2.22
240.083	-32.6
240.3	41.13
240.517	-8.02
240.735	30.89
240.952	12.46
241.169	12.46
241.386	98.47
241.603	82.09
241.821	112.81
242.038	57.51
242.255	75.95
242.472	22.7
242.689	55.47
242.907	90.28
243.124	59.56
243.341	26.79
243.558	84.14
243.775	32.94
243.992	-10.07
244.209	-32.6
244.426	67.75
244.643	49.32
244.86	-5.97
245.078	6.31
245.295	24.75
245.512	10.41
245.729	-22.36
245.946	-32.6
246.163	71.85
246.38	2.22
246.597	26.79
246.814	-32.6
247.031	4.27
247.248	6.31
247.464	-28.5
247.681	-3.93
247.898	10.41
248.115	-26.45
248.332	4.27
248.549	-1.88
248.766	2.22
248.983	10.41
249.2	32.94
249.417	14.51
249.633	-22.36
249.85	-18.26
250.067	-59.22
250.284	34.99
250.501	-10.07
250.717	-65.36
250.934	-53.08
251.151	45.23
251.368	39.08
251.585	34.99
251.801	73.9
252.018	8.36
252.235	14.51
252.451	57.51
252.668	-16.21
252.885	80.04
253.102	16.55
253.318	28.84
253.535	-38.74
253.752	14.51
253.968	-16.21
254.185	10.41
254.401	22.7
254.618	8.36
254.835	-26.45
255.051	55.47
255.268	10.41
255.484	57.51
255.701	34.99
255.917	4.27
256.134	39.08
256.351	6.31
256.567	-44.88
256.784	-28.5
257	28.84
257.217	14.51
257.433	-38.74
257.65	-24.4
257.866	-12.12
258.082	43.18
258.299	18.6
258.515	49.32
258.732	49.32
258.948	45.23
259.165	-40.79
259.381	-40.79
259.597	59.56
259.814	39.08
260.03	20.65
260.246	43.18
260.463	53.42
260.679	-18.26
260.895	18.6
261.112	71.85
261.328	10.41
261.544	0.17
261.761	37.03
261.977	71.85
262.193	32.94
262.409	24.75
262.626	26.79
262.842	63.66
263.058	22.7
263.274	12.46
263.49	32.94
263.707	2.22
263.923	41.13
264.139	55.47
264.355	4.27
264.571	104.62
264.787	24.75
265.004	-5.97
265.22	14.51
265.436	8.36
265.652	8.36
265.868	77.99
266.084	-36.69
266.3	49.32
266.516	-16.21
266.732	0.17
266.948	-20.31
267.164	-5.97
267.38	4.27
267.596	80.04
267.812	32.94
268.028	34.99
268.244	24.75
268.46	18.6
268.676	0.17
268.892	16.55
269.108	-5.97
269.324	8.36
269.54	22.7
269.756	37.03
269.972	37.03
270.188	69.8
270.403	67.75
270.619	-3.93
270.835	34.99
271.051	84.14
271.267	6.31
271.483	-38.74
271.698	96.43
271.914	84.14
272.13	12.46
272.346	-20.31
272.562	80.04
272.777	2.22
272.993	73.9
273.209	20.65
273.425	10.41
273.64	45.23
273.856	30.89
274.072	49.32
274.287	41.13
274.503	22.7
274.719	112.81
274.934	-34.64
275.15	-1.88
275.366	20.65
275.581	10.41
275.797	0.17
276.012	-8.02
276.228	92.33
276.444	-3.93
276.659	-18.26
276.875	-100.18
277.09	18.6
277.306	-14.17
277.521	57.51
277.737	-40.79
277.952	24.75
278.168	-12.12
278.383	90.28
278.599	20.65
278.814	67.75
279.03	-18.26
279.245	59.56
279.461	12.46
279.676	26.79
279.892	2.22
280.107	34.99
280.322	-1.88
280.538	45.23
280.753	-3.93
280.969	65.71
281.184	10.41
281.399	8.36
281.615	63.66
281.83	20.65
282.045	51.37
282.26	30.89
282.476	4.27
282.691	18.6
282.906	10.41
283.122	-1.88
283.337	28.84
283.552	-26.45
283.767	34.99
283.983	-32.6
284.198	61.61
284.413	12.46
284.628	30.89
284.843	53.42
285.058	73.9
285.274	18.6
285.489	-14.17
285.704	10.41
285.919	49.32
286.134	61.61
286.349	-79.7
286.564	34.99
286.779	18.6
286.995	47.27
287.21	-1.88
287.425	-40.79
287.64	-69.46
287.855	26.79
288.07	-5.97
288.285	39.08
288.5	96.43
288.715	96.43
288.93	-16.21
289.145	12.46
289.36	2.22
289.575	47.27
289.79	-1.88
290.004	4.27
290.219	-24.4
290.434	45.23
290.649	20.65
290.864	45.23
291.079	-55.12
291.294	-8.02
291.509	-24.4
291.724	-20.31
291.938	30.89
292.153	-42.84
292.368	69.8
292.583	-40.79
292.798	-42.84
293.012	34.99
293.227	4.27
293.442	28.84
293.657	6.31
293.871	-3.93
294.086	32.94
294.301	67.75
294.516	22.7
294.73	75.95
294.945	-20.31
295.16	12.46
295.374	34.99
295.589	104.62
295.804	-24.4
296.018	10.41
296.233	80.04
296.447	6.31
296.662	43.18
296.877	43.18
297.091	14.51
297.306	-1.88
297.52	73.9
297.735	49.32
297.949	24.75
298.164	49.32
298.378	10.41
298.593	71.85
298.807	-26.45
299.022	32.94
299.236	28.84
299.451	20.65
299.665	84.14
299.88	4.27
300.094	69.8
300.309	4.27
300.523	-30.55
300.737	47.27
300.952	82.09
301.166	-18.26
301.381	57.51
301.595	-34.64
301.809	-10.07
302.024	0.17
302.238	37.03
302.452	39.08
302.667	43.18
302.881	-16.21
303.095	32.94
303.309	75.95
303.524	92.33
303.738	51.37
303.952	2.22
304.166	-18.26
304.381	-18.26
304.595	106.67
304.809	-28.5
305.023	-8.02
305.237	-16.21
305.452	-16.21
305.666	26.79
305.88	43.18
306.094	37.03
306.308	6.31
306.522	84.14
306.736	55.47
306.95	96.43
307.164	-22.36
307.379	53.42
307.593	63.66
307.807	-16.21
308.021	49.32
308.235	2.22
308.449	-5.97
308.663	26.79
308.877	65.71
309.091	37.03
309.305	26.79
309.519	30.89
309.733	55.47
309.947	-63.32
310.161	20.65
310.374	10.41
310.588	55.47
310.802	49.32
311.016	49.32
311.23	82.09
311.444	45.23
311.658	28.84
311.872	84.14
312.085	-24.4
312.299	22.7
312.513	-3.93
312.727	-1.88
312.941	8.36
313.154	12.46
313.368	45.23
313.582	28.84
313.796	41.13
314.009	65.71
314.223	82.09
314.437	39.08
314.651	12.46
314.864	61.61
315.078	-20.31
315.292	63.66
315.505	-10.07
315.719	30.89
315.933	61.61
316.146	-22.36
316.36	-3.93
316.573	-12.12
316.787	45.23
317.001	88.23
317.214	16.55
317.428	30.89
317.641	-30.55
317.855	22.7
318.068	-57.17
318.282	55.47
318.495	41.13
318.709	65.71
318.922	39.08
319.136	-18.26
319.349	-24.4
319.563	10.41
319.776	45.23
319.99	49.32
320.203	59.56
320.417	53.42
320.63	86.19
320.843	28.84
321.057	57.51
321.27	28.84
321.483	45.23
321.697	80.04
321.91	-34.64
322.124	-18.26
322.337	-1.88
322.55	47.27
322.763	26.79
322.977	-18.26
323.19	26.79
323.403	-3.93
323.617	49.32
323.83	-30.55
324.043	61.61
324.256	86.19
324.469	-46.93
324.683	61.61
324.896	14.51
325.109	-16.21
325.322	-36.69
325.535	24.75
325.748	-18.26
325.962	86.19
326.175	28.84
326.388	4.27
326.601	61.61
326.814	61.61
327.027	-14.17
327.24	2.22
327.453	39.08
327.666	24.75
327.879	57.51
328.092	8.36
328.305	4.27
328.518	41.13
328.731	-46.93
328.944	98.47
329.157	-5.97
329.37	63.66
329.583	61.61
329.796	47.27
330.009	-38.74
330.222	102.57
330.435	-12.12
330.648	10.41
330.861	-36.69
331.073	2.22
331.286	6.31
331.499	88.23
331.712	63.66
331.925	30.89
332.138	0.17
332.35	55.47
332.563	-40.79
332.776	-30.55
332.989	-24.4
333.202	28.84
333.414	49.32
333.627	47.27
333.84	12.46
334.053	32.94
334.265	71.85
334.478	41.13
334.691	12.46
334.903	84.14
335.116	10.41
335.329	22.7
335.541	28.84
335.754	24.75
335.966	4.27
336.179	49.32
336.392	51.37
336.604	73.9
336.817	32.94
337.029	49.32
337.242	34.99
337.454	37.03
337.667	-24.4
337.88	73.9
338.092	71.85
338.305	34.99
338.517	6.31
338.729	49.32
338.942	8.36
339.154	16.55
339.367	20.65
339.579	12.46
339.792	34.99
340.004	41.13
340.217	110.76
340.429	24.75
340.641	24.75
340.854	14.51
341.066	-42.84
341.278	82.09
341.491	24.75
341.703	8.36
341.915	6.31
342.128	28.84
342.34	34.99
342.552	-12.12
342.764	80.04
342.977	-14.17
343.189	49.32
343.401	8.36
343.613	32.94
343.826	67.75
344.038	6.31
344.25	12.46
344.462	55.47
344.674	26.79
344.886	24.75
345.099	59.56
345.311	61.61
345.523	-12.12
345.735	61.61
345.947	43.18
346.159	59.56
346.371	71.85
346.583	114.86
346.795	49.32
347.007	49.32
347.219	53.42
347.431	16.55
347.643	30.89
347.855	45.23
348.067	82.09
348.279	37.03
348.491	71.85
348.703	61.61
348.915	22.7
349.127	71.85
349.339	90.28
349.551	-5.97
349.763	59.56
349.975	24.75
350.187	18.6
350.399	84.14
350.61	2.22
350.822	-3.93
351.034	71.85
351.246	-34.64
351.458	2.22
351.669	16.55
351.881	49.32
352.093	80.04
352.305	73.9
352.517	53.42
352.728	16.55
352.94	28.84
353.152	24.75
353.363	8.36
353.575	-12.12
353.787	49.32
353.999	47.27
354.21	32.94
354.422	63.66
354.633	-18.26
354.845	28.84
355.057	32.94
355.268	104.62
355.48	-26.45
355.692	8.36
355.903	77.99
356.115	49.32
356.326	-16.21
356.538	-12.12
356.749	61.61
356.961	14.51
357.172	51.37
357.384	30.89
357.595	43.18
357.807	-12.12
358.018	2.22
358.23	61.61
358.441	18.6
358.653	65.71
358.864	-55.12
359.075	-59.22
359.287	12.46
359.498	18.6
359.709	143.53
359.921	20.65
360.132	32.94
360.344	77.99
360.555	28.84
360.766	86.19
360.977	59.56
361.189	-12.12
361.4	-69.46
361.611	65.71
361.823	18.6
362.034	30.89
362.245	-3.93
362.456	26.79
362.667	12.46
362.879	71.85
363.09	67.75
363.301	90.28
363.512	51.37
363.723	71.85
363.935	94.38
364.146	65.71
364.357	-18.26
364.568	24.75
364.779	-10.07
364.99	102.57
365.201	-20.31
365.412	-36.69
365.623	10.41
365.834	69.8
366.045	47.27
366.256	106.67
366.467	32.94
366.678	39.08
366.889	2.22
367.1	69.8
367.311	12.46
367.522	71.85
367.733	26.79
367.944	26.79
368.155	24.75
368.366	88.23
368.577	34.99
368.788	30.89
368.999	-5.97
369.209	88.23
369.42	30.89
369.631	69.8
369.842	-12.12
370.053	28.84
370.264	30.89
370.474	22.7
370.685	57.51
370.896	26.79
371.107	12.46
371.317	80.04
371.528	-42.84
371.739	94.38
371.95	10.41
372.16	4.27
372.371	-40.79
372.582	47.27
372.792	39.08
373.003	6.31
373.214	-51.03
373.424	73.9
373.635	63.66
373.846	37.03
374.056	-12.12
374.267	-42.84
374.477	28.84
374.688	96.43
374.898	28.84
375.109	-44.88
375.319	2.22
375.53	98.47
375.74	67.75
375.951	30.89
376.161	-26.45
376.372	26.79
376.582	20.65
376.793	14.51
377.003	24.75
377.214	65.71
377.424	6.31
377.635	63.66
377.845	57.51
378.055	75.95
378.266	51.37
378.476	82.09
378.686	96.43
378.897	67.75
379.107	14.51
379.317	114.86
379.528	26.79
379.738	61.61
379.948	-36.69
380.158	125.1
380.369	-71.51
380.579	39.08
380.789	-12.12
380.999	80.04
381.21	90.28
381.42	-20.31
381.63	22.7
381.84	-24.4
382.05	4.27
382.261	94.38
382.471	8.36
382.681	20.65
382.891	10.41
383.101	18.6
383.311	-3.93
383.521	24.75
383.731	16.55
383.941	65.71
384.151	12.46
384.361	82.09
384.571	41.13
384.781	-40.79
384.991	22.7
385.201	39.08
385.411	-10.07
385.621	30.89
385.831	-20.31
386.041	10.41
386.251	14.51
386.461	32.94
386.671	49.32
386.881	34.99
387.091	-18.26
387.301	16.55
387.511	10.41
387.72	30.89
387.93	16.55
388.14	92.33
388.35	86.19
388.56	88.23
388.769	24.75
388.979	118.95
389.189	43.18
389.399	55.47
389.609	24.75
389.818	47.27
390.028	-34.64
390.238	80.04
390.447	77.99
390.657	63.66
390.867	45.23
391.076	47.27
391.286	-20.31
391.496	61.61
391.705	67.75
391.915	65.71
392.125	80.04
392.334	55.47
392.544	22.7
392.753	20.65
392.963	-3.93
393.172	41.13
393.382	14.51
393.591	86.19
393.801	-1.88
394.01	102.57
394.22	57.51
394.429	24.75
394.639	43.18
394.848	80.04
395.058	-48.98
395.267	47.27
395.477	34.99
395.686	80.04
395.895	28.84
396.105	133.29
396.314	0.17
396.524	84.14
396.733	2.22
396.942	49.32
397.152	47.27
397.361	82.09
397.57	80.04
397.78	14.51
397.989	77.99
398.198	39.08
398.407	-26.45
398.617	61.61
398.826	82.09
399.035	67.75
399.244	94.38
399.453	90.28
399.663	71.85
399.872	71.85
400.081	45.23
400.29	82.09
400.499	51.37
400.708	77.99
400.917	96.43
401.127	65.71
401.336	77.99
401.545	88.23
401.754	67.75
401.963	106.67
402.172	61.61
402.381	63.66
402.59	24.75
402.799	121
403.008	53.42
403.217	71.85
403.426	65.71
403.635	94.38
403.844	61.61
404.053	63.66
404.262	164.01
404.471	106.67
404.68	20.65
404.888	73.9
405.097	75.95
405.306	96.43
405.515	77.99
405.724	106.67
405.933	55.47
406.142	82.09
406.35	151.72
406.559	143.53
406.768	90.28
406.977	192.68
407.185	108.71
407.394	96.43
407.603	116.9
407.812	178.34
408.02	110.76
408.229	147.62
408.438	139.43
408.646	164.01
408.855	118.95
409.064	153.77
409.272	143.53
409.481	159.91
409.69	127.14
409.898	190.63
410.107	164.01
410.315	207.02
410.524	209.06
410.733	227.5
410.941	219.3
411.15	245.93
411.358	211.11
411.567	227.5
411.775	198.82
411.984	313.51
412.192	243.88
412.401	235.69
412.609	280.74
412.818	348.33
413.026	237.74
413.234	346.28
413.443	282.79
413.651	260.26
413.86	254.12
414.068	370.85
414.276	403.62
414.485	450.72
414.693	370.85
414.901	420
415.11	362.66
415.318	460.96
415.526	424.1
415.734	448.68
415.943	522.4
416.151	551.07
416.359	506.02
416.567	514.21
416.776	489.64
416.984	571.55
417.192	632.99
417.4	585.89
417.608	585.89
417.817	684.19
418.025	702.62
418.233	714.91
418.441	696.48
418.649	745.63
418.857	716.96
419.065	858.27
419.273	776.35
419.481	784.54
419.689	897.18
419.897	950.43
420.105	833.69
420.313	927.9
420.521	1003.68
420.729	1161.37
420.937	1063.07
421.145	1091.74
421.353	1136.79
421.561	1114.27
421.769	1210.52
421.977	1263.77
422.185	1245.34
422.393	1202.33
422.601	1364.12
422.809	1349.78
423.017	1470.61
423.224	1503.38
423.432	1480.85
423.64	1472.66
423.848	1652.88
424.056	1616.02
424.263	1712.27
424.471	1779.86
424.679	1755.28
424.887	1824.91
425.094	1970.32
425.302	2019.47
425.51	1902.73
425.718	2115.72
425.925	2173.07
426.133	2128.01
426.341	2300.04
426.548	2447.49
426.756	2424.97
426.964	2545.8
427.171	2545.8
427.379	2646.15
427.586	2523.27
427.794	2736.26
428.001	3047.55
428.209	3039.36
428.417	2979.97
428.624	3145.85
428.832	3268.73
429.039	3168.38
429.247	3129.47
429.454	3381.37
429.662	3657.84
429.869	3387.51
430.076	3745.91
430.284	3553.4
430.491	3766.39
430.699	3993.71
430.906	3909.74
431.114	3958.89
431.321	4237.42
431.528	4229.23
431.736	4550.76
431.943	4755.55
432.15	4454.5
432.358	4669.54
432.565	4769.89
432.772	4749.41
432.979	4999.26
433.187	5128.28
433.394	5095.52
433.601	5611.61
433.808	5513.3
434.016	5503.06
434.223	5869.65
434.43	6115.41
434.637	6060.11
434.844	6320.2
435.052	6481.99
435.259	6445.13
435.466	6449.22
435.673	6578.25
435.88	6864.96
436.087	7145.53
436.294	7272.51
436.501	7233.6
436.708	7192.64
436.915	7411.77
437.122	7901.23
437.329	7712.82
437.537	8032.3
437.743	8065.07
437.95	8171.57
438.157	8529.96
438.364	8804.39
438.571	8902.69
438.778	9054.24
438.985	9586.71
439.192	9383.96
439.399	9435.16
439.606	9437.21
439.813	9852.95
440.02	10405.9
440.227	10137.62
440.433	10149.9
440.64	10670.09
440.847	10588.17
441.054	10717.19
441.261	11192.32
441.467	11438.08
441.674	11462.65
441.881	11888.63
442.088	11898.87
442.294	11675.64
442.501	12138.48
442.708	12322.8
442.914	12744.68
443.121	13430.75
443.328	12845.03
443.534	13809.62
443.741	13397.98
443.948	13400.03
444.154	14194.64
444.361	14338
444.568	14280.66
444.774	14368.72
444.981	14464.97
445.187	15052.74
445.394	15513.53
445.6	15411.14
445.807	16971.69
446.013	15880.12
446.22	16535.47
446.426	16912.3
446.633	17317.79
446.839	17702.81
447.046	17090.47
447.252	18034.58
447.459	18030.49
447.665	18022.3
447.871	18567.06
448.078	19517.31
448.284	18679.69
448.491	19046.28
448.697	19695.49
448.903	19955.58
449.11	20107.13
449.316	19943.29
449.522	20137.85
449.728	20883.31
449.935	20746.09
450.141	20942.7
450.347	21282.66
450.553	20627.31
450.76	21120.87
450.966	21489.51
451.172	21135.21
451.378	21925.72
451.584	21520.23
451.791	22005.59
451.997	21886.81
452.203	21948.25
452.409	22218.58
452.615	21981.02
452.821	21225.32
453.027	21106.54
453.233	22194.01
453.44	21217.13
453.646	21602.15
453.852	21466.98
454.058	21964.64
454.264	21407.59
454.47	21688.16
454.676	21161.83
454.882	21653.34
455.088	19849.08
455.294	20035.45
455.5	20279.16
455.705	20731.76
455.911	19773.31
456.117	19445.63
456.323	19085.19
456.529	18147.22
456.735	18722.7
456.941	18519.95
457.147	17842.07
457.352	17395.62
457.558	17373.09
457.764	17205.16
457.97	17035.17
458.176	16613.29
458.381	16824.23
458.587	15912.89
458.793	15939.51
458.999	15054.79
459.204	16105.4
459.41	15732.67
459.616	14516.17
459.821	14720.97
460.027	14264.27
460.233	14325.71
460.438	13420.51
460.644	13750.23
460.85	13000.68
461.055	12982.24
461.261	12898.28
461.466	12031.99
461.672	11464.7
461.878	12429.29
462.083	11593.72
462.289	11290.62
462.494	11194.37
462.7	10797.06
462.905	10457.1
463.111	10866.69
463.316	10950.66
463.522	10577.93
463.727	10700.81
463.932	10475.53
464.138	10268.69
464.343	10545.16
464.549	10012.69
464.754	10547.21
464.959	10692.62
465.165	10455.05
465.37	10000.4
465.575	9725.97
465.781	10102.8
465.986	10262.54
466.191	9760.79
466.397	9762.84
466.602	9273.37
466.807	9500.7
467.012	9451.55
467.218	9383.96
467.423	9635.86
467.628	9412.64
467.833	9738.26
468.038	9457.69
468.244	9267.23
468.449	9570.33
468.654	9175.07
468.859	9211.93
469.064	9115.68
469.269	8869.92
469.474	8955.94
469.679	9003.04
469.885	8745
470.09	8953.89
470.295	8712.23
470.5	8603.69
470.705	8683.56
470.91	8413.23
471.115	8552.49
471.32	8548.39
471.525	8482.86
471.73	8280.11
471.935	8280.11
472.139	7796.79
472.344	8087.6
472.549	7995.44
472.754	7823.41
472.959	7837.75
473.164	7635
473.369	7381.05
473.574	7737.4
473.778	7688.25
473.983	7487.54
474.188	7413.82
474.393	7278.65
474.598	7227.45
474.802	7041.09
475.007	7108.67
475.212	7057.47
475.417	7010.37
475.621	6893.63
475.826	6848.58
476.031	6803.52
476.235	6672.45
476.44	6717.51
476.645	6557.77
476.849	6697.03
477.054	6574.15
477.259	6500.42
477.463	6363.21
477.668	6250.57
477.872	6226
478.077	6129.74
478.282	6060.11
478.486	6101.07
478.691	5920.85
478.895	5853.27
479.1	6043.73
479.304	6068.3
479.509	5695.57
479.713	5855.31
479.918	5611.61
480.122	5726.29
480.326	5795.92
480.531	5808.21
480.735	5625.94
480.94	5509.21
481.144	5849.17
481.348	5660.76
481.553	5685.33
481.757	5623.89
481.961	5654.61
482.166	5822.55
482.37	5564.5
482.574	5683.28
482.778	5529.69
482.983	5709.91
483.187	5488.73
483.391	5562.45
483.595	5484.63
483.8	5488.73
484.004	5523.54
484.208	5607.51
484.412	5503.06
484.616	5410.9
484.821	5654.61
485.025	5548.12
485.229	5648.47
485.433	5576.79
485.637	5634.13
485.841	5642.32
486.045	5544.02
486.249	5478.49
486.453	5509.21
486.657	5630.04
486.861	5675.09
487.065	5472.34
487.269	5515.35
487.473	5474.39
487.677	5736.53
487.881	5548.12
488.085	5580.89
488.289	5496.92
488.493	5709.91
488.697	5617.75
488.901	5644.37
489.105	5525.59
489.309	5736.53
489.512	5644.37
489.716	5505.11
489.92	5601.37
490.124	5490.77
490.328	5765.2
490.531	5468.25
490.735	5722.2
490.939	5609.56
491.143	5714
491.346	5611.61
491.55	5945.42
491.754	5695.57
491.958	5920.85
492.161	5791.83
492.365	6082.64
492.569	5896.27
492.772	5906.51
492.976	5949.52
493.18	5802.07
493.383	5996.62
493.587	6010.96
493.79	6213.71
493.994	6090.83
494.197	6078.54
494.401	6322.25
494.605	6162.51
494.808	6438.98
495.012	6379.59
495.215	6379.59
495.419	6318.15
495.622	6471.75
495.825	6486.09
496.029	6467.66
496.232	6580.29
496.436	6617.16
496.639	6719.56
496.843	6787.14
497.046	6955.07
497.249	7022.66
497.453	6899.78
497.656	6948.93
497.859	7012.42
498.063	7225.4
498.266	7284.8
498.469	7495.74
498.673	7487.54
498.876	7344.19
499.079	7594.04
499.282	7727.16
499.485	7737.4
499.689	7850.03
499.892	8054.83
500.095	7876.66
500.298	8200.24
500.501	8106.03
500.705	8310.83
500.908	8560.68
501.111	8454.19
501.314	8357.93
501.517	8507.43
501.72	8945.7
501.923	8806.44
502.126	9089.06
502.329	9148.45
502.532	9295.9
502.735	9336.86
502.938	9461.79
503.141	9531.42
503.344	9607.19
503.547	9687.06
503.75	9953.3
503.953	10022.93
504.156	10133.52
504.359	10174.48
504.562	10213.39
504.765	10508.3
504.968	10389.52
505.17	10854.41
505.373	10721.29
505.576	10983.43
505.779	11114.5
505.982	11378.69
506.185	11147.26
506.387	11593.72
506.59	11587.58
506.793	11802.61
506.996	11837.43
507.198	12220.4
507.401	12173.3
507.604	12337.13
507.807	12632.04
508.009	12763.11
508.212	12709.86
508.415	13041.64
508.617	13213.67
508.82	13101.03
509.022	12918.76
509.225	13766.62
509.428	13598.68
509.63	14100.44
509.833	13711.32
510.035	14067.67
510.238	14297.04
510.44	14538.7
510.643	14671.82
510.845	14829.51
511.048	14800.84
511.25	15321.02
511.453	15069.12
511.655	15613.88
511.858	15542.21
512.06	15720.38
512.262	16082.87
512.465	15916.98
512.667	16086.97
512.87	16363.44
513.072	16457.65
513.274	16717.74
513.477	17184.68
513.679	17336.23
513.881	17276.84
514.084	17627.04
514.286	17809.31
514.488	17805.21
514.69	18360.21
514.893	18485.14
515.095	18210.71
515.297	18923.4
515.499	18644.88
515.701	19175.3
515.904	19441.54
516.106	19720.06
516.308	19947.39
516.51	20037.5
516.712	20135.8
516.914	20457.33
517.116	20690.8
517.318	20881.26
517.52	21016.43
517.722	21278.57
517.925	21186.41
518.127	21720.93
518.329	21892.96
518.531	21819.23
518.733	22361.94
518.935	22595.41
519.136	22394.71
519.338	23002.96
519.54	22902.61
519.742	23293.77
519.944	23539.52
520.146	24035.13
520.348	23899.97
520.55	24336.18
520.752	24137.53
520.954	24954.67
521.155	24882.99
521.357	24991.53
521.559	25337.64
521.761	25763.62
521.963	25786.15
522.164	26122.01
522.366	25700.13
522.568	26380.06
522.77	26601.24
522.971	26820.37
523.173	26666.77
523.375	27172.62
523.576	27076.37
523.778	26879.76
523.98	27744
524.181	27404.04
524.383	27973.38
524.584	28018.43
524.786	28233.47
524.988	28059.39
525.189	28507.9
525.391	28626.68
525.592	29026.03
525.794	28854
525.995	29118.19
526.197	29300.46
526.398	29634.28
526.6	29247.21
526.801	29689.57
527.003	29933.28
527.204	29918.95
527.406	30127.84
527.607	30342.88
527.808	30437.08
528.01	30082.78
528.211	30371.55
528.412	30838.48
528.614	30705.37
528.815	30707.41
529.016	30877.4
529.218	30725.85
529.419	30805.72
529.62	30947.03
529.822	30955.22
530.023	31033.04
530.224	31692.49
530.425	31227.6
530.626	31096.53
530.828	31151.82
531.029	31733.45
531.23	31403.72
531.431	31590.09
531.632	31747.78
531.833	31911.62
532.035	31880.9
532.236	31973.06
532.437	32104.13
532.638	32091.84
532.839	31819.46
533.04	31993.54
533.241	31796.93
533.442	32462.52
533.643	32284.35
533.844	32030.4
534.045	32618.17
534.246	31979.2
534.447	32558.78
534.648	32200.38
534.849	32151.23
535.05	31958.72
535.251	32421.56
535.451	32288.45
535.652	32759.48
535.853	32564.92
536.054	32216.77
536.255	32685.75
536.456	32153.28
536.657	32605.88
536.857	32427.71
537.058	32106.18
537.259	32990.9
537.46	32454.33
537.66	32509.63
537.861	32558.78
538.062	32306.88
538.263	32433.85
538.463	32544.44
538.664	32429.76
538.865	32294.59
539.065	32646.84
539.266	32224.96
539.466	32685.75
539.667	32184
539.868	32845.49
540.068	32571.07
540.269	32564.92
540.469	32825.01
540.67	32499.39
540.87	32648.89
541.071	32261.82
541.271	32575.16
541.472	32648.89
541.672	32327.36
541.873	32446.14
542.073	32020.16
542.274	32888.5
542.474	32372.41
542.675	32177.86
542.875	32872.12
543.075	32204.48
543.276	32184
543.476	32431.8
543.676	32315.07
543.877	32681.66
544.077	32282.3
544.277	32122.56
544.478	32399.04
544.678	32704.18
544.878	32370.36
545.078	32396.99
545.279	32200.38
545.479	32036.55
545.679	32618.17
545.879	32255.68
546.079	32392.89
546.28	32188.1
546.48	32181.95
546.68	32454.33
546.88	32491.19
547.08	32237.25
547.28	32614.07
547.48	32208.58
547.68	32544.44
547.88	31911.62
548.081	32640.7
548.281	32552.63
548.481	32114.37
548.681	32450.24
548.881	32360.12
549.081	32536.25
549.28	32372.41
549.48	32456.38
549.68	32296.64
549.88	32851.64
550.08	32179.9
550.28	32446.14
550.48	32208.58
550.68	32261.82
550.88	32181.95
551.08	32331.45
551.279	32452.28
551.479	32085.7
551.679	32429.76
551.879	32270.01
552.079	32591.55
552.278	31878.85
552.478	32106.18
552.678	32396.99
552.878	32304.83
553.077	32059.07
553.277	31737.54
553.477	32405.18
553.676	32257.73
553.876	32300.73
554.076	31962.82
554.275	32155.33
554.475	31604.42
554.674	31934.15
554.874	32147.14
555.074	31882.95
555.273	31983.3
555.473	31917.76
555.672	31997.63
555.872	31774.41
556.071	32095.94
556.271	32143.04
556.47	31649.48
556.67	31272.65
556.869	31545.03
557.068	31508.17
557.268	31088.34
557.467	31524.55
557.667	31512.27
557.866	31454.92
558.065	31442.63
558.265	30936.79
558.464	31276.75
558.663	31684.3
558.863	31055.57
559.062	31413.96
559.261	31336.14
559.461	31717.06
559.66	30963.41
559.859	30858.96
560.058	30670.55
560.258	31131.34
560.457	30455.51
560.656	31178.45
560.855	30887.64
561.054	30684.89
561.253	30551.77
561.453	30664.41
561.652	30953.17
561.851	30795.48
562.05	30615.26
562.249	30525.14
562.448	30803.67
562.647	30301.92
562.846	30369.5
563.045	30133.98
563.244	30039.78
563.443	30478.04
563.642	30039.78
563.841	30023.39
564.04	30142.17
564.239	30432.99
564.438	29906.66
564.637	30185.18
564.836	29912.8
565.035	29611.75
565.234	29798.12
565.432	29595.37
565.631	29507.3
565.83	29853.41
566.029	28978.93
566.228	29443.82
566.427	29488.87
566.625	29658.85
566.824	29019.89
567.023	29431.53
567.222	28974.83
567.42	29284.08
567.619	29005.55
567.818	28802.8
568.016	28745.46
568.215	28604.15
568.414	28854
568.612	29089.52
568.811	28587.77
569.01	28577.53
569.208	28167.93
569.407	28751.6
569.605	28051.2
569.804	28438.26
570.002	28317.43
570.201	28151.55
570.4	28333.82
570.598	27731.72
570.797	27909.89
570.995	27508.49
571.193	27520.77
571.392	27889.41
571.59	27303.69
571.789	27338.51
571.987	27309.83
572.186	27352.84
572.384	27412.23
572.582	27248.39
572.781	27107.09
572.979	26908.43
573.177	26722.07
573.376	26973.97
573.574	26533.65
573.772	26851.09
573.971	26603.28
574.169	26615.57
574.367	26253.08
574.565	26586.9
574.763	26681.11
574.962	26306.33
575.16	26201.88
575.358	26052.38
575.556	25644.84
575.754	26390.3
575.952	25909.02
576.151	26111.77
576.349	25655.08
576.547	25444.13
576.745	25906.98
576.943	25716.51
577.141	25329.45
577.339	25577.25
577.537	25468.71
577.735	25241.39
577.933	25003.82
578.131	24919.85
578.329	24586.04
578.527	24981.29
578.725	25106.22
578.923	24981.29
579.121	24600.37
579.319	24381.24
579.516	24868.66
579.714	24559.41
579.912	24043.32
580.11	24244.02
580.308	24385.33
580.506	24049.47
580.704	23748.42
580.901	24229.69
581.099	24241.98
581.297	24141.63
581.495	23820.1
581.692	23895.87
581.89	23766.85
582.088	23723.84
582.285	23459.65
582.483	23629.63
582.681	23205.7
582.878	23492.42
583.076	23193.42
583.274	23304.01
583.471	23193.42
583.669	22992.72
583.866	22972.24
584.064	23291.72
584.262	22540.11
584.459	23191.37
584.657	22730.58
584.854	22955.85
585.052	22431.57
585.249	22611.79
585.447	22517.59
585.644	22325.08
585.841	22591.31
586.039	22404.95
586.236	22134.62
586.434	22038.36
586.631	22095.71
586.828	21710.69
587.026	22019.93
587.223	21778.27
587.42	21755.74
587.618	21692.26
587.815	21493.6
588.012	21819.23
588.21	21651.3
588.407	21501.79
588.604	21145.45
588.801	21043.05
588.999	21409.64
589.196	21172.07
589.393	21237.61
589.59	21090.15
589.787	21116.78
589.984	20911.98
590.182	20959.08
590.379	20993.9
590.576	20739.95
590.773	21094.25
590.97	21008.23
591.167	20723.57
591.364	20502.39
591.561	20504.43
591.758	20561.78
591.955	20352.88
592.152	20432.75
592.349	20100.98
592.546	20346.74
592.743	20252.53
592.94	20029.31
593.137	20045.69
593.334	20213.62
593.531	19857.28
593.727	19861.37
593.924	19849.08
594.121	19621.76
594.318	19654.53
594.515	19455.87
594.712	19836.8
594.908	19433.35
595.105	19584.9
595.302	19244.93
595.499	19459.97
595.696	19533.7
595.892	19337.09
596.089	19218.31
596.286	19244.93
596.482	19206.02
596.679	18849.68
596.876	19101.58
597.072	18714.51
597.269	18870.15
597.466	18571.15
597.662	18691.98
597.859	18616.21
598.055	18804.62
598.252	18352.02
598.448	18612.11
598.645	18524.05
598.841	18120.6
599.038	18495.38
599.234	18358.16
599.431	18171.8
599.627	18087.83
599.824	18257.81
600.02	17831.83
600.217	18239.38
600.413	17772.44
600.609	17702.81
600.806	17756.06
601.002	17782.68
601.198	17584.03
601.395	17770.4
601.591	17426.34
601.787	17584.03
601.984	17448.86
602.18	17518.5
602.376	17405.86
602.572	17414.05
602.769	17379.23
602.965	17061.8
603.161	17334.18
603.357	16789.42
603.553	17002.41
603.75	17022.89
603.946	17012.65
604.142	16830.38
604.338	16758.7
604.534	16869.29
604.73	16670.64
604.926	16854.95
605.122	16529.33
605.318	16404.4
605.514	16410.54
605.71	16275.38
605.906	16566.19
606.102	16433.07
606.298	16211.89
606.494	16381.87
606.69	16451.5
606.886	16383.92
607.082	16105.4
607.278	16086.97
607.474	15744.95
607.67	16119.73
607.866	15693.76
608.062	16072.63
608.257	15818.68
608.453	15951.8
608.649	15970.23
608.845	15611.84
609.041	15611.84
609.236	15574.97
609.432	15529.92
609.628	15757.24
609.824	15632.32
610.019	15333.31
610.215	15400.9
610.411	15278.02
610.606	15009.73
610.802	15275.97
610.998	15435.71
611.193	15411.14
611.389	15069.12
611.584	15042.5
611.78	14942.15
611.976	15108.04
612.171	15001.54
612.367	14905.29
612.562	14802.89
612.758	14745.55
612.953	14829.51
613.149	14751.69
613.344	14684.11
613.539	14966.73
613.735	14739.4
613.93	14958.53
614.126	14751.69
614.321	14528.46
614.517	14469.07
614.712	14530.51
614.907	14364.62
615.103	14473.17
615.298	14518.22
615.493	14434.25
615.688	14192.59
615.884	14567.37
616.079	14174.16
616.274	14186.45
616.47	14120.92
616.665	14163.92
616.86	13977.56
617.055	14215.12
617.25	13944.79
617.445	14204.88
617.641	13729.75
617.836	14137.3
618.031	13596.64
618.226	13842.39
618.421	13570.01
618.616	13719.51
618.811	13676.51
619.006	13727.71
619.201	13393.89
619.396	13686.75
619.591	13160.42
619.786	13676.51
619.981	13260.77
620.176	13422.56
620.371	13271.01
620.566	13068.26
620.761	13146.08
620.956	13172.71
621.151	12945.38
621.346	13008.87
621.541	12716.01
621.735	12918.76
621.93	12662.76
622.125	12709.86
622.32	12523.5
622.515	12472.3
622.709	12285.94
622.904	12500.97
623.099	12242.93
623.294	12371.95
623.488	12255.22
623.683	12208.11
623.878	12099.57
624.072	12095.47
624.267	12017.65
624.462	11919.35
624.656	11804.66
624.851	11956.21
625.046	11583.48
625.24	11671.54
625.435	11661.3
625.629	11155.46
625.824	11399.16
626.018	11495.42
626.213	11286.53
626.407	11200.51
626.602	11175.94
626.796	11073.54
626.991	11096.07
627.185	10889.22
627.38	10899.46
627.574	10827.78
627.768	10727.43
627.963	10919.94
628.157	10502.15
628.352	10481.67
628.546	10573.83
628.74	10594.31
628.935	10520.59
629.129	10381.32
629.323	10301.45
629.517	10541.07
629.712	10295.31
629.906	10070.03
630.1	10018.83
630.294	10125.33
630.489	9803.8
630.683	9904.15
630.877	9902.1
631.071	9719.83
631.265	9957.39
631.459	9701.4
631.653	9832.47
631.848	9674.78
632.042	9623.58
632.236	9752.6
632.43	9486.36
632.624	9654.3
632.818	9506.84
633.012	9185.31
633.206	9336.86
633.4	9240.61
633.594	9205.79
633.788	9330.72
633.982	9238.56
634.176	9304.09
634.369	8904.74
634.563	8935.46
634.757	8935.46
634.951	8931.36
635.145	8898.59
635.339	8630.31
635.533	8697.89
635.726	8710.18
635.92	8738.85
636.114	8587.3
636.308	8441.9
636.501	8745
636.695	8615.98
636.889	8513.58
637.083	8398.89
637.276	8214.57
637.47	8288.3
637.664	8161.33
637.857	8282.16
638.051	8417.32
638.244	8228.91
638.438	8159.28
638.632	7899.19
638.825	8079.41
639.019	7942.19
639.212	7970.87
639.406	7807.03
639.599	7729.2
639.793	7850.03
639.986	7573.56
640.18	7755.83
640.373	7600.18
640.567	7626.81
640.76	7362.62
640.954	7544.89
641.147	7495.74
641.34	7471.16
641.534	7452.73
641.727	7329.85
641.92	7213.12
642.114	7174.21
642.307	7313.47
642.5	7237.69
642.694	7012.42
642.887	7159.87
643.08	7073.85
643.273	7016.51
643.467	7147.58
643.66	6910.02
643.853	6815.81
644.046	6910.02
644.239	6740.04
644.432	6713.41
644.626	6694.98
644.819	6821.95
645.012	6701.12
645.205	6490.18
645.398	6690.88
645.591	6547.53
645.784	6606.92
645.977	6408.26
646.17	6332.49
646.363	6297.67
646.556	6264.91
646.749	6350.92
646.942	6350.92
647.135	6150.22
647.328	6193.23
647.521	6113.36
647.714	6099.02
647.907	6029.39
648.099	6084.69
648.292	5871.7
648.485	5904.46
648.678	6006.86
648.871	5961.81
649.064	5892.18
649.256	5871.7
649.449	5795.92
649.642	5742.68
649.835	5765.2
650.027	5587.03
650.22	5605.46
650.413	5636.18
650.605	5773.39
650.798	5591.13
650.991	5537.88
651.183	5412.95
651.376	5412.95
651.568	5480.54
651.761	5419.1
651.954	5371.99
652.146	5300.31
652.339	5283.93
652.531	5232.73
652.724	5212.25
652.916	5187.68
653.109	5437.53
653.301	5142.62
653.494	5099.61
653.686	5009.5
653.879	5095.52
654.071	5038.17
654.263	5083.23
654.456	5152.86
654.648	4790.37
654.84	4771.94
655.033	4935.78
655.225	4935.78
655.417	4747.36
655.61	4827.23
655.802	4669.54
655.994	4708.45
656.186	4810.85
656.379	4784.23
656.571	4737.12
656.763	4638.82
656.955	4726.88
657.148	4685.92
657.34	4612.2
657.532	4448.36
657.724	4436.07
657.916	4429.93
658.108	4356.2
658.3	4442.21
658.492	4276.33
658.684	4335.72
658.876	4311.14
659.068	4413.54
659.26	4298.86
659.452	4210.79
659.644	4249.71
659.836	4157.55
660.028	4298.86
660.22	4106.35
660.412	4085.87
660.604	4229.23
660.796	4227.18
660.988	4059.24
661.18	3956.85
661.372	3987.57
661.563	3962.99
661.755	3915.89
661.947	3887.22
662.139	3895.41
662.331	4001.9
662.522	3788.91
662.714	3831.92
662.906	3821.68
663.097	3829.87
663.289	3913.84
663.481	3864.69
663.673	3694.71
663.864	3573.88
664.056	3702.9
664.247	3590.26
664.439	3623.03
664.631	3610.74
664.822	3528.82
665.014	3629.17
665.205	3618.93
665.397	3498.1
665.588	3565.68
665.78	3569.78
665.971	3657.84
666.163	3383.42
666.354	3446.9
666.546	3358.84
666.737	3457.14
666.929	3399.8
667.12	3616.88
667.311	3281.02
667.503	3358.84
667.694	3283.06
667.885	3328.12
668.077	3364.98
668.268	3242.11
668.459	3192.95
668.651	3262.58
668.842	3246.2
669.033	3102.84
669.224	3272.82
669.416	3272.82
669.607	3225.72
669.798	3201.15
669.989	3250.3
670.18	3108.99
670.371	3184.76
670.563	3086.46
670.754	3168.38
670.945	3106.94
671.136	3025.02
671.327	3053.69
671.518	3029.12
671.709	3055.74
671.9	3039.36
672.091	3057.79
672.282	2844.8
672.473	2955.39
672.664	2973.82
672.855	3053.69
673.046	2912.38
673.237	3002.49
673.428	2844.8
673.619	2986.11
673.809	2943.1
674	2896
674.191	2871.42
674.382	2914.43
674.573	2986.11
674.764	2818.18
674.954	2797.7
675.145	2740.35
675.336	2754.69
675.527	2822.27
675.717	2824.32
675.908	2795.65
676.099	2814.08
676.289	2748.54
676.48	2855.04
676.671	2848.9
676.861	2744.45
677.052	2875.52
677.243	2728.07
677.433	2678.91
677.624	2801.79
677.814	2709.63
678.005	2654.34
678.195	2652.29
678.386	2738.3
678.576	2693.25
678.767	2818.18
678.957	2676.87
679.148	2621.57
679.338	2717.83
679.529	2633.86
679.719	2621.57
679.909	2674.82
680.1	2574.47
680.29	2676.87
680.481	2666.63
680.671	2818.18
680.861	2658.43
681.052	2754.69
681.242	2599.04
681.432	2605.19
681.622	2531.46
681.813	2642.05
682.003	2668.67
682.193	2560.13
682.383	2603.14
682.573	2416.77
682.764	2582.66
682.954	2680.96
683.144	2570.37
683.334	2478.21
683.524	2572.42
683.714	2508.93
683.904	2523.27
684.094	2521.22
684.284	2519.17
684.474	2656.39
684.664	2496.64
684.854	2519.17
685.044	2433.16
685.234	2566.28
685.424	2455.69
685.614	2386.05
685.804	2400.39
685.994	2513.03
686.184	2533.51
686.374	2347.14
686.564	2494.6
686.753	2427.01
686.943	2418.82
687.133	2381.96
687.323	2338.95
687.513	2465.93
687.702	2431.11
687.892	2404.49
688.082	2361.48
688.272	2324.62
688.461	2408.58
688.651	2465.93
688.841	2365.57
689.03	2388.1
689.22	2476.16
689.41	2277.51
689.599	2359.43
689.789	2312.33
689.979	2334.86
690.168	2367.62
690.358	2367.62
690.547	2259.08
690.737	2410.63
690.926	2367.62
691.116	2390.15
691.305	2351.24
691.495	2398.34
691.684	2304.14
691.874	2297.99
692.063	2236.55
692.252	2338.95
692.442	2343.05
692.631	2289.8
692.82	2259.08
693.01	2226.31
693.199	2369.67
693.388	2234.5
693.578	2293.9
693.767	2224.26
693.956	2336.9
694.146	2295.94
694.335	2232.46
694.524	2293.9
694.713	2388.1
694.902	2283.66
695.092	2418.82
695.281	2283.66
695.47	2416.77
695.659	2236.55
695.848	2371.72
696.037	2267.27
696.226	2318.47
696.415	2244.74
696.604	2302.09
696.793	2277.51
696.982	2359.43
697.171	2306.18
697.36	2377.86
697.549	2236.55
697.738	2246.79
697.927	2343.05
698.116	2250.89
698.305	2242.7
698.494	2259.08
698.683	2250.89
698.872	2226.31
699.061	2308.23
699.25	2222.22
699.438	2259.08
699.627	2279.56
699.816	2267.27
700.005	2277.51
700.193	2244.74
700.382	2269.32
700.571	2228.36
700.76	2289.8
700.948	2138.25
701.137	2199.69
701.326	2300.04
701.514	2316.42
701.703	2211.98
701.892	2185.35
702.08	2326.66
702.269	2199.69
702.457	2312.33
702.646	2302.09
702.834	2230.41
703.023	2183.31
703.212	2295.94
703.4	2218.12
703.589	2130.06
703.777	2109.58
703.965	2263.18
704.154	2232.46
704.342	2187.4
704.531	2173.07
704.719	2211.98
704.907	2310.28
705.096	2257.03
705.284	2216.07
705.472	2128.01
705.661	2166.92
705.849	2142.35
706.037	2193.55
706.226	2203.79
706.414	2162.83
706.602	2177.16
706.79	2168.97
706.979	2068.62
707.167	2134.15
707.355	2113.67
707.543	2074.76
707.731	2146.44
707.919	2142.35
708.107	2138.25
708.296	1949.84
708.484	2060.43
708.672	1996.94
708.86	2117.77
709.048	2042
709.236	2109.58
709.424	2044.04
709.612	2054.28
709.8	1972.36
709.988	1976.46
710.176	2046.09
710.364	2089.1
710.551	1986.7
710.739	1955.98
710.927	1972.36
711.115	2095.24
711.303	1978.51
711.491	1972.36
711.679	1968.27
711.866	2019.47
712.054	1931.41
712.242	1976.46
712.43	1945.74
712.617	1972.36
712.805	1902.73
712.993	1824.91
713.181	1929.36
713.368	1970.32
713.556	1865.87
713.744	1929.36
713.931	1960.08
714.119	1867.92
714.306	1929.36
714.494	1859.73
714.682	1935.5
714.869	1835.15
715.057	1855.63
715.244	1808.53
715.432	1857.68
715.619	1943.69
715.807	1775.76
715.994	1902.73
716.182	1843.34
716.369	1812.62
716.556	1798.29
716.744	1839.25
716.931	1835.15
717.119	1841.29
717.306	1841.29
717.493	1796.24
717.681	1773.71
717.868	1826.96
718.055	1732.75
718.242	1833.1
718.43	1742.99
718.617	1788.05
718.804	1738.9
718.991	1742.99
719.179	1773.71
719.366	1687.7
719.553	1677.46
719.74	1716.37
719.927	1761.42
720.114	1745.04
720.301	1638.55
720.488	1722.51
720.676	1679.51
720.863	1728.66
721.05	1722.51
721.237	1542.29
721.424	1689.74
721.611	1544.34
721.798	1671.31
721.985	1659.03
722.172	1626.26
722.358	1513.62
722.545	1568.91
722.732	1556.63
722.919	1599.63
723.106	1573.01
723.293	1570.96
723.48	1573.01
723.667	1585.3
723.853	1671.31
724.04	1523.86
724.227	1642.64
724.414	1603.73
724.6	1515.67
724.787	1499.28
724.974	1515.67
725.161	1521.81
725.347	1542.29
725.534	1654.93
725.72	1511.57
725.907	1525.91
726.094	1480.85
726.28	1534.1
726.467	1446.04
726.653	1534.1
726.84	1511.57
727.027	1501.33
727.213	1515.67
727.4	1403.03
727.586	1388.69
727.773	1446.04
727.959	1507.48
728.145	1411.22
728.332	1396.89
728.518	1464.47
728.705	1433.75
728.891	1446.04
729.077	1470.61
729.264	1349.78
729.45	1345.69
729.636	1509.52
729.823	1403.03
730.009	1458.32
730.195	1317.01
730.382	1398.93
730.568	1441.94
730.754	1515.67
730.94	1448.08
731.126	1317.01
731.313	1437.84
731.499	1421.46
731.685	1331.35
731.871	1439.89
732.057	1419.41
732.243	1296.53
732.429	1415.32
732.615	1382.55
732.801	1276.06
732.987	1403.03
733.173	1394.84
733.359	1458.32
733.545	1319.06
733.731	1298.58
733.917	1413.27
734.103	1333.4
734.289	1396.89
734.475	1333.4
734.661	1433.75
734.847	1331.35
735.033	1282.2
735.219	1282.2
735.404	1312.92
735.59	1331.35
735.776	1341.59
735.962	1329.3
736.148	1298.58
736.333	1308.82
736.519	1276.06
736.705	1247.38
736.89	1218.71
737.076	1259.67
737.262	1239.19
737.447	1255.58
737.633	1292.44
737.819	1292.44
738.004	1167.51
738.19	1228.95
738.375	1294.49
738.561	1294.49
738.747	1228.95
738.932	1185.94
739.118	1218.71
739.303	1196.18
739.489	1106.07
739.674	1218.71
739.859	1138.84
740.045	1239.19
740.23	1196.18
740.416	1104.03
740.601	1253.53
740.786	1183.9
740.972	1138.84
741.157	1218.71
741.342	1235.1
741.528	1167.51
741.713	1165.46
741.898	1171.61
742.084	1175.7
742.269	1104.03
742.454	1237.14
742.639	1196.18
742.824	1163.42
743.01	1147.03
743.195	1134.75
743.38	1085.59
743.565	1130.65
743.75	1061.02
743.935	1093.79
744.12	1142.94
744.305	1089.69
744.49	1042.59
744.675	991.39
744.86	1063.07
745.045	1097.88
745.23	1124.51
745.415	1149.08
745.6	981.15
745.785	1075.35
745.97	1104.03
746.155	1018.01
746.34	1028.25
746.525	1073.31
746.71	1124.51
746.895	1018.01
747.079	1050.78
747.264	970.91
747.449	968.86
747.634	950.43
747.819	985.24
748.003	1001.63
748.188	1007.77
748.373	975
748.557	1071.26
748.742	917.66
748.927	966.81
749.111	960.67
749.296	919.71
749.481	921.76
749.665	899.23
749.85	876.7
750.034	850.08
750.219	880.8
750.404	860.32
750.588	911.52
750.773	954.52
750.957	878.75
751.141	784.54
751.326	929.95
751.51	776.35
751.695	841.89
751.879	784.54
752.064	891.04
752.248	800.93
752.432	872.61
752.617	837.79
752.801	864.41
752.985	901.28
753.17	794.78
753.354	848.03
753.538	809.12
753.722	757.92
753.907	802.97
754.091	696.48
754.275	862.37
754.459	782.49
754.643	759.97
754.828	811.17
755.012	682.14
755.196	817.31
755.38	737.44
755.564	788.64
755.748	680.1
755.932	702.62
756.116	721.06
756.3	747.68
756.484	766.11
756.668	671.9
756.852	682.14
757.036	747.68
757.22	733.34
757.404	616.61
757.588	751.78
757.772	669.86
757.956	694.43
758.14	676
758.323	708.77
758.507	680.1
758.691	643.23
758.875	710.82
759.059	688.29
759.242	663.71
759.426	673.95
759.61	649.38
759.794	716.96
759.977	657.57
760.161	710.82
760.345	626.85
760.528	610.47
760.712	698.53
760.895	628.9
761.079	673.95
761.263	678.05
761.446	549.03
761.63	647.33
761.813	676
761.997	610.47
762.18	589.99
762.364	669.86
762.547	624.8
762.731	506.02
762.914	596.13
763.098	618.66
763.281	503.97
763.464	616.61
763.648	557.22
763.831	551.07
764.015	540.83
764.198	618.66
764.381	512.16
764.564	460.96
764.748	530.59
764.931	657.57
765.114	479.4
765.297	546.98
765.481	565.41
765.664	598.18
765.847	497.83
766.03	551.07
766.213	549.03
766.397	522.4
766.58	491.68
766.763	565.41
766.946	559.27
767.129	581.79
767.312	536.74
767.495	575.65
767.678	553.12
767.861	514.21
768.044	542.88
768.227	546.98
768.41	526.5
768.593	577.7
768.776	606.37
768.959	526.5
769.142	495.78
769.324	555.17
769.507	460.96
769.69	491.68
769.873	530.59
770.056	524.45
770.239	471.2
770.421	571.55
770.604	536.74
770.787	503.97
770.97	487.59
771.152	485.54
771.335	497.83
771.518	424.1
771.7	557.22
771.883	495.78
772.066	549.03
772.248	481.44
772.431	493.73
772.613	499.88
772.796	516.26
772.978	497.83
773.161	446.63
773.343	444.58
773.526	450.72
773.708	399.52
773.891	452.77
774.073	411.81
774.256	395.43
774.438	415.91
774.621	481.44
774.803	454.82
774.985	405.67
775.168	446.63
775.35	450.72
775.532	383.14
775.715	358.57
775.897	491.68
776.079	444.58
776.261	475.3
776.444	385.19
776.626	385.19
776.808	434.34
776.99	430.24
777.173	350.37
777.355	358.57
777.537	387.24
777.719	286.89
777.901	350.37
778.083	387.24
778.265	383.14
778.447	317.61
778.629	377
778.811	426.15
778.993	393.38
779.175	399.52
779.357	364.71
779.539	307.37
779.721	325.8
779.903	387.24
780.085	315.56
780.267	325.8
780.449	344.23
780.631	426.15
780.812	313.51
780.994	340.13
781.176	372.9
781.358	233.64
781.54	311.46
781.721	313.51
781.903	344.23
782.085	274.6
782.267	288.93
782.448	362.66
782.63	293.03
782.812	381.09
782.993	327.85
783.175	295.08
783.357	307.37
783.538	272.55
783.72	305.32
783.901	252.07
784.083	329.89
784.264	233.64
784.446	274.6
784.627	227.5
784.809	241.83
784.99	243.88
785.172	282.79
785.353	225.45
785.535	333.99
785.716	303.27
785.897	227.5
786.079	297.13
786.26	319.65
786.441	282.79
786.623	262.31
786.804	198.82
786.985	266.41
787.167	276.65
787.348	258.21
787.529	270.5
787.71	276.65
787.891	266.41
788.073	213.16
788.254	258.21
788.435	256.17
788.616	213.16
788.797	204.97
788.978	196.78
789.159	161.96
789.34	293.03
789.522	229.54
789.703	170.15
789.884	202.92
790.065	215.21
790.246	229.54
790.427	166.06
790.607	213.16
790.788	198.82
790.969	209.06
791.15	221.35
791.331	155.82
791.512	180.39
791.693	225.45
791.874	223.4
792.054	225.45
792.235	164.01
792.416	178.34
792.597	247.97
792.778	215.21
792.958	247.97
793.139	188.58
793.32	297.13
793.5	225.45
793.681	145.58
793.862	196.78
794.042	202.92
794.223	252.07
794.404	153.77
794.584	237.74
794.765	98.47
794.945	204.97
795.126	180.39
795.306	221.35
795.487	227.5
795.667	188.58
795.848	202.92
796.028	141.48
796.209	209.06
796.389	135.34
796.57	155.82
796.75	143.53
796.93	125.1
797.111	143.53
797.291	247.97
797.471	200.87
797.652	172.2
797.832	151.72
798.012	219.3
798.192	77.99
798.373	161.96
798.553	135.34
798.733	86.19
798.913	141.48
799.093	131.24
799.274	188.58
799.454	161.96
799.634	172.2
799.814	170.15
799.994	108.71
800.174	164.01
800.354	172.2
800.534	98.47
800.714	121
800.894	151.72
801.074	137.38
801.254	135.34
801.434	149.67
801.614	174.25
801.794	86.19
801.974	307.37
802.154	75.95
802.334	192.68
802.514	121
802.693	147.62
802.873	94.38
803.053	192.68
803.233	147.62
803.413	180.39
803.592	88.23
803.772	129.19
803.952	135.34
804.131	86.19
804.311	108.71
804.491	137.38
804.67	204.97
804.85	100.52
805.03	164.01
805.209	127.14
805.389	123.05
805.568	80.04
805.748	114.86
805.928	127.14
806.107	102.57
806.287	149.67
806.466	0.17
806.646	94.38
806.825	116.9
807.004	164.01
807.184	155.82
807.363	141.48
807.543	204.97
807.722	108.71
807.901	151.72
808.081	147.62
808.26	98.47
808.439	55.47
808.619	110.76
808.798	180.39
808.977	102.57
809.156	80.04
809.336	100.52
809.515	196.78
809.694	96.43
809.873	147.62
810.052	143.53
810.231	164.01
810.411	39.08
810.59	133.29
810.769	110.76
810.948	96.43
811.127	53.42
811.306	157.86
811.485	59.56
811.664	104.62
811.843	88.23
812.022	114.86
812.201	112.81
812.38	80.04
812.559	121
812.737	84.14
812.916	37.03
813.095	57.51
813.274	112.81
813.453	80.04
813.632	30.89
813.811	123.05
813.989	92.33
814.168	59.56
814.347	104.62
814.526	121
814.704	121
814.883	108.71
815.062	102.57
815.24	49.32
815.419	37.03
815.598	73.9
815.776	63.66
815.955	145.58
816.133	112.81
816.312	47.27
816.49	116.9
816.669	104.62
816.847	114.86
817.026	104.62
817.204	125.1
817.383	80.04
817.561	59.56
817.74	86.19
817.918	88.23
818.097	-1.88
818.275	90.28
818.453	63.66
818.632	106.67
818.81	69.8
818.988	12.46
819.167	125.1
819.345	77.99
819.523	98.47
819.701	104.62
819.879	102.57
820.058	57.51
820.236	92.33
820.414	65.71
820.592	61.61
820.77	110.76
820.948	141.48
821.127	100.52
821.305	90.28
821.483	71.85
821.661	98.47
821.839	80.04
822.017	22.7
822.195	26.79
822.373	116.9
822.551	86.19
822.729	92.33
822.907	12.46
823.085	88.23
823.262	63.66
823.44	112.81
823.618	61.61
823.796	32.94
823.974	106.67
824.152	30.89
824.329	-10.07
824.507	77.99
824.685	106.67
824.863	92.33
825.04	51.37
825.218	133.29
825.396	69.8
825.574	86.19
825.751	80.04
825.929	80.04
826.107	20.65
826.284	77.99
826.462	92.33
826.639	53.42
826.817	86.19
826.994	108.71
827.172	61.61
827.349	112.81
827.527	59.56
827.704	18.6
827.882	112.81
828.059	112.81
828.237	65.71
828.414	26.79
828.591	-3.93
828.769	121
828.946	26.79
829.124	49.32
829.301	67.75
829.478	59.56
829.655	94.38
829.833	37.03
830.01	86.19
830.187	55.47
830.364	73.9
830.542	75.95
830.719	80.04
830.896	147.62
831.073	-30.55
831.25	108.71
831.427	43.18
831.604	47.27
831.782	71.85
831.959	92.33
832.136	82.09
832.313	45.23
832.49	41.13
832.667	57.51
832.844	71.85
833.021	63.66
833.198	94.38
833.374	71.85
833.551	-5.97
833.728	-20.31
833.905	0.17
834.082	34.99
834.259	10.41
834.436	65.71
834.612	123.05
834.789	61.61
834.966	39.08
835.143	90.28
835.319	10.41
835.496	30.89
835.673	18.6
835.85	41.13
836.026	39.08
836.203	43.18
836.38	71.85
836.556	24.75
836.733	16.55
836.909	6.31
837.086	28.84
837.262	39.08
837.439	57.51
837.616	10.41
837.792	41.13
837.968	6.31
838.145	63.66
838.321	94.38
838.498	28.84
838.674	118.95
838.851	-20.31
839.027	53.42
839.203	47.27
839.38	94.38
839.556	-12.12
839.732	39.08
839.909	77.99
840.085	49.32
840.261	-1.88
840.437	55.47
840.614	37.03
840.79	22.7
840.966	80.04
841.142	-20.31
841.318	20.65
841.494	61.61
841.671	57.51
841.847	18.6
842.023	45.23
842.199	-24.4
842.375	45.23
842.551	114.86
842.727	47.27
842.903	104.62
843.079	30.89
843.255	84.14
843.431	30.89
843.607	84.14
843.783	20.65
843.959	114.86
844.134	24.75
844.31	8.36
844.486	-5.97
844.662	26.79
844.838	116.9
845.013	80.04
845.189	-28.5
845.365	82.09
845.541	61.61
845.716	59.56
845.892	73.9
846.068	67.75
846.244	10.41
846.419	43.18
846.595	73.9
846.77	41.13
846.946	90.28
847.122	41.13
847.297	0.17
847.473	16.55
847.648	16.55
847.824	61.61
847.999	-51.03
848.175	2.22
848.35	73.9
848.526	28.84
848.701	12.46
848.876	-12.12
849.052	-30.55
849.227	-5.97
849.403	22.7
849.578	-104.28
849.753	-87.89
849.929	98.47
850.104	-8.02
850.279	61.61
850.454	67.75
850.63	26.79
850.805	-3.93
850.98	41.13
851.155	71.85
851.33	12.46
851.505	-24.4
851.681	8.36
851.856	37.03
852.031	94.38
852.206	30.89
852.381	6.31
852.556	37.03
852.731	59.56
852.906	55.47
853.081	94.38
853.256	67.75
853.431	55.47
853.606	22.7
853.781	73.9
853.956	4.27
854.131	28.84
854.305	10.41
854.48	-5.97
854.655	26.79
854.83	57.51
855.005	-22.36
855.18	-46.93
855.354	51.37
855.529	73.9
855.704	-34.64
855.879	12.46
856.053	-14.17
856.228	63.66
856.403	43.18
856.577	37.03
856.752	-3.93
856.926	92.33
857.101	-12.12
857.276	-36.69
857.45	32.94
857.625	51.37
857.799	-20.31
857.974	28.84
858.148	-57.17
858.323	59.56
858.497	55.47
858.672	-3.93
858.846	53.42
859.02	-14.17
859.195	8.36
859.369	-10.07
859.543	-57.17
859.718	-10.07
859.892	47.27
860.066	49.32
860.241	53.42
860.415	71.85
860.589	26.79
860.763	57.51
860.938	4.27
861.112	32.94
861.286	77.99
861.46	-8.02
861.634	10.41
861.808	22.7
861.982	34.99
862.157	10.41
862.331	-26.45
862.505	24.75
862.679	-5.97
862.853	10.41
863.027	-30.55
863.201	26.79
863.375	-5.97
863.549	-12.12
863.722	49.32
863.896	-8.02
864.07	10.41
864.244	12.46
864.418	59.56
864.592	63.66
864.766	-36.69
864.939	-28.5
865.113	41.13
865.287	53.42
865.461	26.79
865.634	4.27
865.808	-42.84
865.982	-28.5
866.156	26.79
866.329	-81.75
866.503	65.71
866.676	69.8
866.85	30.89
867.024	-16.21
867.197	-28.5
867.371	34.99
867.544	18.6
867.718	-36.69
867.891	-46.93
868.065	57.51
868.238	22.7
868.412	-1.88
868.585	-14.17
868.759	-42.84
868.932	47.27
869.105	-14.17
869.279	-1.88
869.452	8.36
869.625	24.75
869.799	65.71
869.972	-14.17
870.145	28.84
870.319	-16.21
870.492	14.51
870.665	-32.6
870.838	-30.55
871.011	-22.36
871.185	-30.55
871.358	26.79
871.531	-36.69
871.704	12.46
871.877	10.41
872.05	-30.55
872.223	26.79
872.396	16.55
872.569	39.08
872.742	-59.22
872.915	14.51
873.088	-5.97
873.261	41.13
873.434	-28.5
873.607	41.13
873.78	-38.74
873.953	18.6
874.126	-1.88
874.299	22.7
874.471	65.71
874.644	-1.88
874.817	30.89
874.99	86.19
875.163	4.27
875.335	86.19
875.508	-44.88
875.681	8.36
875.853	51.37
876.026	-3.93
876.199	6.31
876.371	47.27
876.544	-51.03
876.717	47.27
876.889	32.94
877.062	0.17
877.234	-16.21
877.407	32.94
877.579	4.27
877.752	10.41
877.924	18.6
878.097	90.28
878.269	-5.97
878.442	-32.6
878.614	61.61
878.786	41.13
878.959	71.85
879.131	43.18
879.303	-8.02
879.476	22.7
879.648	61.61
879.82	-30.55
879.993	-18.26
880.165	-34.64
880.337	-30.55
880.509	12.46
880.681	-40.79
880.854	-3.93
881.026	4.27
881.198	22.7
881.37	39.08
881.542	20.65
881.714	12.46
881.886	34.99
882.058	41.13
882.23	-10.07
882.402	16.55
882.574	16.55
882.746	-34.64
882.918	24.75
883.09	6.31
883.262	16.55
883.434	-83.8
883.606	-1.88
883.778	-51.03
883.95	37.03
884.122	53.42
884.293	43.18
884.465	61.61
884.637	80.04
884.809	2.22
884.98	71.85
885.152	80.04
885.324	34.99
885.496	4.27
885.667	-18.26
885.839	-34.64
886.011	18.6
886.182	45.23
886.354	-20.31
886.525	86.19
886.697	47.27
886.869	12.46
887.04	20.65
887.212	-16.21
887.383	8.36
887.555	43.18
887.726	37.03
887.897	14.51
888.069	16.55
888.24	-22.36
888.412	22.7
888.583	-16.21
888.754	39.08
888.926	-16.21
889.097	10.41
889.268	-79.7
889.44	96.43
889.611	-83.8
889.782	18.6
889.953	47.27
890.125	2.22
890.296	16.55
890.467	-42.84
890.638	-20.31
890.809	0.17
890.98	16.55
891.151	80.04
891.323	-1.88
891.494	22.7
891.665	28.84
891.836	22.7
892.007	0.17
892.178	-32.6
892.349	-32.6
892.52	86.19
892.691	47.27
892.862	-30.55
893.032	-55.12
893.203	10.41
893.374	-22.36
893.545	-38.74
893.716	41.13
893.887	-48.98
894.057	-28.5
894.228	0.17
894.399	37.03
894.57	6.31
894.74	-46.93
894.911	2.22
895.082	39.08
895.253	82.09
895.423	2.22
895.594	24.75
895.764	53.42
895.935	-42.84
896.106	-26.45
896.276	-20.31
896.447	-51.03
896.617	75.95
896.788	10.41
896.958	16.55
897.129	8.36
897.299	2.22
897.47	69.8
897.64	37.03
897.81	4.27
897.981	-3.93
898.151	-36.69
898.322	16.55
898.492	82.09
898.662	-48.98
898.832	37.03
899.003	-18.26
899.173	10.41
899.343	34.99
899.513	0.17
