Data from USB4F104151__186__13-59-10-430.txt Node

Date: Thu Mar 13 13:59:10 EDT 2025
User: louis
Spectrometer: USB4F10415
Trigger mode: 4
Integration Time (sec): 1.000000E-2
Scans to average: 1
Electric dark correction enabled: true
Nonlinearity correction enabled: false
Boxcar width: 0
XAxis mode: Wavelengths
Number of Pixels in Spectrum: 3648
>>>>>Begin Spectral Data<<<<<
178.204	-108.37
178.424	-108.37
178.644	-108.37
178.864	-51.03
179.084	-53.08
179.304	-24.4
179.524	-3.93
179.744	-22.36
179.964	39.08
180.184	20.65
180.404	-48.98
180.624	-5.97
180.844	-20.31
181.064	-20.31
181.283	12.46
181.503	18.6
181.723	55.47
181.943	-53.08
182.163	-20.31
182.383	77.99
182.602	14.51
182.822	-28.5
183.042	-28.5
183.262	59.56
183.482	37.03
183.701	-44.88
183.921	18.6
184.141	45.23
184.361	-48.98
184.58	-30.55
184.8	-8.02
185.02	-12.12
185.239	-57.17
185.459	-3.93
185.679	28.84
185.898	-61.27
186.118	12.46
186.338	-67.41
186.557	59.56
186.777	-75.6
186.997	45.23
187.216	61.61
187.436	-38.74
187.655	-28.5
187.875	-28.5
188.095	-34.64
188.314	39.08
188.534	34.99
188.753	-5.97
188.973	6.31
189.192	30.89
189.412	-12.12
189.631	26.79
189.851	-30.55
190.07	-20.31
190.29	-10.07
190.509	8.36
190.729	-40.79
190.948	22.7
191.168	-12.12
191.387	12.46
191.607	22.7
191.826	57.51
192.045	26.79
192.265	12.46
192.484	0.17
192.704	26.79
192.923	6.31
193.142	102.57
193.362	-38.74
193.581	77.99
193.8	24.75
194.02	4.27
194.239	-3.93
194.458	-14.17
194.678	-91.99
194.897	41.13
195.116	14.51
195.335	-3.93
195.555	-12.12
195.774	-38.74
195.993	51.37
196.212	0.17
196.432	-40.79
196.651	41.13
196.87	55.47
197.089	63.66
197.308	20.65
197.528	39.08
197.747	-42.84
197.966	-28.5
198.185	22.7
198.404	12.46
198.623	-89.94
198.842	-20.31
199.062	-20.31
199.281	53.42
199.5	6.31
199.719	-44.88
199.938	37.03
200.157	-53.08
200.376	34.99
200.595	-16.21
200.814	39.08
201.033	-26.45
201.252	-20.31
201.471	-5.97
201.69	-77.65
201.909	39.08
202.128	24.75
202.347	59.56
202.566	24.75
202.785	-69.46
203.004	-8.02
203.223	86.19
203.442	37.03
203.661	20.65
203.879	-5.97
204.098	24.75
204.317	-8.02
204.536	14.51
204.755	18.6
204.974	12.46
205.193	-61.27
205.411	28.84
205.63	-24.4
205.849	45.23
206.068	-1.88
206.287	-3.93
206.505	75.95
206.724	-12.12
206.943	-10.07
207.162	51.37
207.381	22.7
207.599	100.52
207.818	59.56
208.037	65.71
208.255	14.51
208.474	-16.21
208.693	30.89
208.911	100.52
209.13	41.13
209.349	24.75
209.567	-65.36
209.786	-22.36
210.005	-14.17
210.223	-69.46
210.442	-26.45
210.661	0.17
210.879	-51.03
211.098	2.22
211.316	43.18
211.535	-12.12
211.753	-12.12
211.972	16.55
212.191	2.22
212.409	-1.88
212.628	-48.98
212.846	22.7
213.065	51.37
213.283	-32.6
213.502	-36.69
213.72	18.6
213.938	-20.31
214.157	24.75
214.375	30.89
214.594	30.89
214.812	14.51
215.031	53.42
215.249	8.36
215.467	30.89
215.686	6.31
215.904	18.6
216.122	-30.55
216.341	-18.26
216.559	39.08
216.778	22.7
216.996	51.37
217.214	61.61
217.432	-16.21
217.651	0.17
217.869	-38.74
218.087	55.47
218.306	28.84
218.524	55.47
218.742	-8.02
218.96	45.23
219.179	4.27
219.397	6.31
219.615	47.27
219.833	77.99
220.051	-26.45
220.27	-16.21
220.488	-12.12
220.706	131.24
220.924	-22.36
221.142	92.33
221.36	10.41
221.578	84.14
221.796	-18.26
222.015	-81.75
222.233	69.8
222.451	61.61
222.669	-1.88
222.887	-73.56
223.105	-16.21
223.323	10.41
223.541	16.55
223.759	41.13
223.977	-5.97
224.195	51.37
224.413	-28.5
224.631	14.51
224.849	55.47
225.067	-14.17
225.285	-10.07
225.503	-42.84
225.721	45.23
225.939	16.55
226.157	92.33
226.375	-14.17
226.592	-10.07
226.81	-14.17
227.028	32.94
227.246	98.47
227.464	88.23
227.682	-22.36
227.9	4.27
228.117	8.36
228.335	63.66
228.553	2.22
228.771	47.27
228.989	4.27
229.206	-24.4
229.424	59.56
229.642	-16.21
229.86	53.42
230.077	39.08
230.295	37.03
230.513	41.13
230.731	-44.88
230.948	49.32
231.166	59.56
231.384	-46.93
231.601	-18.26
231.819	-20.31
232.037	86.19
232.254	18.6
232.472	6.31
232.689	-32.6
232.907	-30.55
233.125	-26.45
233.342	-18.26
233.56	-12.12
233.777	22.7
233.995	-32.6
234.213	-10.07
234.43	6.31
234.648	12.46
234.865	-34.64
235.083	-28.5
235.3	-16.21
235.518	12.46
235.735	10.41
235.953	28.84
236.17	-20.31
236.388	-28.5
236.605	-3.93
236.822	-16.21
237.04	4.27
237.257	12.46
237.475	24.75
237.692	-20.31
237.909	22.7
238.127	-8.02
238.344	69.8
238.562	37.03
238.779	-32.6
238.996	94.38
239.214	63.66
239.431	2.22
239.648	-73.56
239.865	14.51
240.083	51.37
240.3	55.47
240.517	20.65
240.735	0.17
240.952	4.27
241.169	45.23
241.386	51.37
241.603	37.03
241.821	24.75
242.038	-1.88
242.255	59.56
242.472	34.99
242.689	55.47
242.907	12.46
243.124	8.36
243.341	-26.45
243.558	-38.74
243.775	-14.17
243.992	-67.41
244.209	37.03
244.426	-34.64
244.643	-12.12
244.86	20.65
245.078	-30.55
245.295	-26.45
245.512	20.65
245.729	-55.12
245.946	22.7
246.163	12.46
246.38	-71.51
246.597	16.55
246.814	-24.4
247.031	32.94
247.248	110.76
247.464	37.03
247.681	-36.69
247.898	30.89
248.115	32.94
248.332	-38.74
248.549	-5.97
248.766	53.42
248.983	10.41
249.2	2.22
249.417	69.8
249.633	-14.17
249.85	-55.12
250.067	24.75
250.284	-16.21
250.501	-69.46
250.717	32.94
250.934	55.47
251.151	67.75
251.368	-48.98
251.585	61.61
251.801	10.41
252.018	8.36
252.235	16.55
252.451	-59.22
252.668	-20.31
252.885	53.42
253.102	45.23
253.318	32.94
253.535	0.17
253.752	-69.46
253.968	-10.07
254.185	98.47
254.401	12.46
254.618	2.22
254.835	-3.93
255.051	28.84
255.268	39.08
255.484	67.75
255.701	-12.12
255.917	65.71
256.134	-12.12
256.351	-5.97
256.567	41.13
256.784	14.51
257	77.99
257.217	102.57
257.433	20.65
257.65	0.17
257.866	24.75
258.082	47.27
258.299	12.46
258.515	-12.12
258.732	47.27
258.948	77.99
259.165	14.51
259.381	-32.6
259.597	-26.45
259.814	39.08
260.03	8.36
260.246	-18.26
260.463	41.13
260.679	102.57
260.895	6.31
261.112	24.75
261.328	-26.45
261.544	6.31
261.761	18.6
261.977	32.94
262.193	2.22
262.409	30.89
262.626	-32.6
262.842	-89.94
263.058	65.71
263.274	80.04
263.49	55.47
263.707	20.65
263.923	37.03
264.139	-12.12
264.355	-77.65
264.571	71.85
264.787	-20.31
265.004	49.32
265.22	-8.02
265.436	-42.84
265.652	8.36
265.868	65.71
266.084	30.89
266.3	57.51
266.516	-14.17
266.732	-14.17
266.948	61.61
267.164	-44.88
267.38	37.03
267.596	12.46
267.812	73.9
268.028	-18.26
268.244	20.65
268.46	-36.69
268.676	26.79
268.892	45.23
269.108	-46.93
269.324	12.46
269.54	6.31
269.756	61.61
269.972	10.41
270.188	-18.26
270.403	-28.5
270.619	-42.84
270.835	24.75
271.051	-57.17
271.267	-63.32
271.483	2.22
271.698	-20.31
271.914	6.31
272.13	-20.31
272.346	-26.45
272.562	22.7
272.777	-8.02
272.993	6.31
273.209	24.75
273.425	45.23
273.64	14.51
273.856	32.94
274.072	-34.64
274.287	55.47
274.503	-10.07
274.719	12.46
274.934	57.51
275.15	-34.64
275.366	30.89
275.581	-28.5
275.797	-8.02
276.012	-40.79
276.228	32.94
276.444	-73.56
276.659	-34.64
276.875	-46.93
277.09	4.27
277.306	-14.17
277.521	-16.21
277.737	49.32
277.952	-16.21
278.168	4.27
278.383	26.79
278.599	16.55
278.814	39.08
279.03	45.23
279.245	20.65
279.461	28.84
279.676	32.94
279.892	2.22
280.107	65.71
280.322	77.99
280.538	47.27
280.753	-51.03
280.969	-1.88
281.184	69.8
281.399	-65.36
281.615	6.31
281.83	41.13
282.045	-5.97
282.26	-10.07
282.476	24.75
282.691	63.66
282.906	-12.12
283.122	30.89
283.337	-46.93
283.552	-42.84
283.767	12.46
283.983	4.27
284.198	14.51
284.413	-48.98
284.628	0.17
284.843	57.51
285.058	-36.69
285.274	20.65
285.489	12.46
285.704	100.52
285.919	-3.93
286.134	2.22
286.349	12.46
286.564	-26.45
286.779	69.8
286.995	-26.45
287.21	-28.5
287.425	4.27
287.64	-36.69
287.855	22.7
288.07	2.22
288.285	45.23
288.5	59.56
288.715	28.84
288.93	-12.12
289.145	22.7
289.36	10.41
289.575	-26.45
289.79	24.75
290.004	-38.74
290.219	71.85
290.434	28.84
290.649	-32.6
290.864	86.19
291.079	30.89
291.294	63.66
291.509	47.27
291.724	4.27
291.938	4.27
292.153	10.41
292.368	12.46
292.583	30.89
292.798	16.55
293.012	-12.12
293.227	37.03
293.442	22.7
293.657	37.03
293.871	80.04
294.086	10.41
294.301	61.61
294.516	-14.17
294.73	-16.21
294.945	-53.08
295.16	16.55
295.374	39.08
295.589	82.09
295.804	-32.6
296.018	32.94
296.233	26.79
296.447	34.99
296.662	12.46
296.877	-10.07
297.091	71.85
297.306	16.55
297.52	14.51
297.735	-12.12
297.949	18.6
298.164	0.17
298.378	-55.12
298.593	28.84
298.807	20.65
299.022	102.57
299.236	4.27
299.451	4.27
299.665	-48.98
299.88	77.99
300.094	90.28
300.309	6.31
300.523	49.32
300.737	-20.31
300.952	10.41
301.166	90.28
301.381	-1.88
301.595	-1.88
301.809	26.79
302.024	-40.79
302.238	-12.12
302.452	71.85
302.667	-42.84
302.881	63.66
303.095	34.99
303.309	34.99
303.524	55.47
303.738	-12.12
303.952	-24.4
304.166	84.14
304.381	10.41
304.595	10.41
304.809	18.6
305.023	14.51
305.237	34.99
305.452	22.7
305.666	-34.64
305.88	59.56
306.094	39.08
306.308	22.7
306.522	14.51
306.736	32.94
306.95	-26.45
307.164	20.65
307.379	80.04
307.593	16.55
307.807	-40.79
308.021	55.47
308.235	26.79
308.449	57.51
308.663	-38.74
308.877	30.89
309.091	2.22
309.305	-48.98
309.519	26.79
309.733	59.56
309.947	30.89
310.161	55.47
310.374	69.8
310.588	0.17
310.802	82.09
311.016	45.23
311.23	-32.6
311.444	4.27
311.658	-16.21
311.872	-32.6
312.085	53.42
312.299	63.66
312.513	75.95
312.727	12.46
312.941	18.6
313.154	45.23
313.368	69.8
313.582	-53.08
313.796	-87.89
314.009	28.84
314.223	26.79
314.437	67.75
314.651	55.47
314.864	-34.64
315.078	4.27
315.292	-12.12
315.505	24.75
315.719	-16.21
315.933	69.8
316.146	-3.93
316.36	75.95
316.573	16.55
316.787	-12.12
317.001	14.51
317.214	-42.84
317.428	4.27
317.641	-32.6
317.855	20.65
318.068	-3.93
318.282	10.41
318.495	-12.12
318.709	69.8
318.922	20.65
319.136	80.04
319.349	-10.07
319.563	-61.27
319.776	80.04
319.99	20.65
320.203	4.27
320.417	-22.36
320.63	28.84
320.843	16.55
321.057	12.46
321.27	28.84
321.483	37.03
321.697	34.99
321.91	-10.07
322.124	-8.02
322.337	-44.88
322.55	2.22
322.763	69.8
322.977	69.8
323.19	55.47
323.403	20.65
323.617	-1.88
323.83	57.51
324.043	-26.45
324.256	-26.45
324.469	-69.46
324.683	67.75
324.896	65.71
325.109	20.65
325.322	-79.7
325.535	82.09
325.748	-8.02
325.962	28.84
326.175	-5.97
326.388	34.99
326.601	102.57
326.814	10.41
327.027	12.46
327.24	30.89
327.453	8.36
327.666	16.55
327.879	20.65
328.092	0.17
328.305	16.55
328.518	49.32
328.731	63.66
328.944	30.89
329.157	22.7
329.37	57.51
329.583	8.36
329.796	30.89
330.009	24.75
330.222	-3.93
330.435	63.66
330.648	53.42
330.861	43.18
331.073	86.19
331.286	-36.69
331.499	49.32
331.712	-12.12
331.925	22.7
332.138	-26.45
332.35	18.6
332.563	-12.12
332.776	6.31
332.989	14.51
333.202	84.14
333.414	-57.17
333.627	65.71
333.84	-16.21
334.053	28.84
334.265	-67.41
334.478	53.42
334.691	20.65
334.903	0.17
335.116	-44.88
335.329	28.84
335.541	4.27
335.754	63.66
335.966	8.36
336.179	0.17
336.392	96.43
336.604	-26.45
336.817	0.17
337.029	6.31
337.242	-16.21
337.454	8.36
337.667	4.27
337.88	100.52
338.092	14.51
338.305	39.08
338.517	53.42
338.729	55.47
338.942	8.36
339.154	-18.26
339.367	84.14
339.579	-24.4
339.792	-20.31
340.004	69.8
340.217	47.27
340.429	-3.93
340.641	-10.07
340.854	-8.02
341.066	-24.4
341.278	67.75
341.491	59.56
341.703	63.66
341.915	26.79
342.128	12.46
342.34	18.6
342.552	73.9
342.764	-30.55
342.977	20.65
343.189	-36.69
343.401	-26.45
343.613	12.46
343.826	-65.36
344.038	20.65
344.25	61.61
344.462	61.61
344.674	-55.12
344.886	73.9
345.099	49.32
345.311	-1.88
345.523	86.19
345.735	26.79
345.947	-14.17
346.159	12.46
346.371	47.27
346.583	59.56
346.795	112.81
347.007	39.08
347.219	14.51
347.431	-18.26
347.643	4.27
347.855	49.32
348.067	77.99
348.279	2.22
348.491	24.75
348.703	59.56
348.915	2.22
349.127	61.61
349.339	30.89
349.551	-36.69
349.763	73.9
349.975	6.31
350.187	2.22
350.399	43.18
350.61	30.89
350.822	6.31
351.034	-18.26
351.246	6.31
351.458	39.08
351.669	16.55
351.881	45.23
352.093	8.36
352.305	94.38
352.517	30.89
352.728	61.61
352.94	-26.45
353.152	-8.02
353.363	18.6
353.575	39.08
353.787	63.66
353.999	22.7
354.21	90.28
354.422	61.61
354.633	16.55
354.845	22.7
355.057	41.13
355.268	-3.93
355.48	-34.64
355.692	-22.36
355.903	59.56
356.115	75.95
356.326	0.17
356.538	55.47
356.749	28.84
356.961	-1.88
357.172	6.31
357.384	22.7
357.595	30.89
357.807	-53.08
358.018	4.27
358.23	-5.97
358.441	47.27
358.653	41.13
358.864	-5.97
359.075	49.32
359.287	6.31
359.498	63.66
359.709	-16.21
359.921	4.27
360.132	12.46
360.344	4.27
360.555	20.65
360.766	61.61
360.977	12.46
361.189	55.47
361.4	8.36
361.611	47.27
361.823	12.46
362.034	37.03
362.245	28.84
362.456	71.85
362.667	12.46
362.879	39.08
363.09	-3.93
363.301	49.32
363.512	59.56
363.723	45.23
363.935	53.42
364.146	-24.4
364.357	-24.4
364.568	10.41
364.779	88.23
364.99	8.36
365.201	69.8
365.412	39.08
365.623	24.75
365.834	-81.75
366.045	61.61
366.256	14.51
366.467	22.7
366.678	30.89
366.889	-40.79
367.1	71.85
367.311	94.38
367.522	0.17
367.733	22.7
367.944	22.7
368.155	12.46
368.366	0.17
368.577	88.23
368.788	-3.93
368.999	-20.31
369.209	98.47
369.42	4.27
369.631	133.29
369.842	34.99
370.053	24.75
370.264	123.05
370.474	-18.26
370.685	86.19
370.896	86.19
371.107	37.03
371.317	127.14
371.528	51.37
371.739	63.66
371.95	28.84
372.16	34.99
372.371	57.51
372.582	-30.55
372.792	20.65
373.003	-8.02
373.214	32.94
373.424	-51.03
373.635	41.13
373.846	14.51
374.056	20.65
374.267	92.33
374.477	49.32
374.688	14.51
374.898	-16.21
375.109	0.17
375.319	102.57
375.53	-5.97
375.74	49.32
375.951	28.84
376.161	37.03
376.372	30.89
376.582	49.32
376.793	-69.46
377.003	45.23
377.214	22.7
377.424	6.31
377.635	26.79
377.845	0.17
378.055	47.27
378.266	30.89
378.476	63.66
378.686	53.42
378.897	14.51
379.107	6.31
379.317	24.75
379.528	24.75
379.738	16.55
379.948	16.55
380.158	12.46
380.369	51.37
380.579	6.31
380.789	-48.98
380.999	88.23
381.21	80.04
381.42	77.99
381.63	55.47
381.84	80.04
382.05	49.32
382.261	77.99
382.471	-40.79
382.681	45.23
382.891	39.08
383.101	55.47
383.311	34.99
383.521	63.66
383.731	39.08
383.941	-3.93
384.151	16.55
384.361	73.9
384.571	6.31
384.781	80.04
384.991	75.95
385.201	51.37
385.411	98.47
385.621	71.85
385.831	57.51
386.041	61.61
386.251	47.27
386.461	69.8
386.671	6.31
386.881	20.65
387.091	-14.17
387.301	32.94
387.511	49.32
387.72	47.27
387.93	24.75
388.14	12.46
388.35	34.99
388.56	88.23
388.769	-20.31
388.979	90.28
389.189	-3.93
389.399	77.99
389.609	63.66
389.818	-3.93
390.028	-18.26
390.238	37.03
390.447	61.61
390.657	67.75
390.867	-8.02
391.076	39.08
391.286	24.75
391.496	14.51
391.705	16.55
391.915	55.47
392.125	18.6
392.334	16.55
392.544	75.95
392.753	45.23
392.963	28.84
393.172	41.13
393.382	-12.12
393.591	90.28
393.801	86.19
394.01	65.71
394.22	43.18
394.429	53.42
394.639	-14.17
394.848	86.19
395.058	30.89
395.267	4.27
395.477	98.47
395.686	123.05
395.895	14.51
396.105	77.99
396.314	24.75
396.524	47.27
396.733	30.89
396.942	82.09
397.152	6.31
397.361	55.47
397.57	69.8
397.78	37.03
397.989	100.52
398.198	20.65
398.407	22.7
398.617	55.47
398.826	77.99
399.035	69.8
399.244	94.38
399.453	73.9
399.663	96.43
399.872	22.7
400.081	10.41
400.29	45.23
400.499	98.47
400.708	16.55
400.917	104.62
401.127	18.6
401.336	20.65
401.545	88.23
401.754	51.37
401.963	67.75
402.172	59.56
402.381	39.08
402.59	55.47
402.799	63.66
403.008	75.95
403.217	147.62
403.426	90.28
403.635	94.38
403.844	45.23
404.053	45.23
404.262	67.75
404.471	65.71
404.68	135.34
404.888	53.42
405.097	73.9
405.306	129.19
405.515	41.13
405.724	55.47
405.933	77.99
406.142	90.28
406.35	131.24
406.559	96.43
406.768	147.62
406.977	80.04
407.185	129.19
407.394	102.57
407.603	94.38
407.812	174.25
408.02	176.3
408.229	159.91
408.438	166.06
408.646	114.86
408.855	151.72
409.064	168.1
409.272	184.49
409.481	168.1
409.69	166.06
409.898	174.25
410.107	149.67
410.315	184.49
410.524	127.14
410.733	209.06
410.941	198.82
411.15	180.39
411.358	235.69
411.567	219.3
411.775	254.12
411.984	258.21
412.192	266.41
412.401	260.26
412.609	274.6
412.818	282.79
413.026	358.57
413.234	282.79
413.443	338.09
413.651	286.89
413.86	340.13
414.068	352.42
414.276	393.38
414.485	344.23
414.693	290.98
414.901	448.68
415.11	372.9
415.318	393.38
415.526	469.16
415.734	407.72
415.943	499.88
416.151	475.3
416.359	508.07
416.567	518.31
416.776	516.26
416.984	569.51
417.192	536.74
417.4	532.64
417.608	602.27
417.817	665.76
418.025	610.47
418.233	667.81
418.441	632.99
418.649	776.35
418.857	721.06
419.065	735.39
419.273	696.48
419.481	813.21
419.689	811.17
419.897	917.66
420.105	880.8
420.313	880.8
420.521	985.24
420.729	927.9
420.937	950.43
421.145	1101.98
421.353	1044.63
421.561	1177.75
421.769	1134.75
421.977	1216.66
422.185	1228.95
422.393	1335.45
422.601	1380.5
422.809	1282.2
423.017	1298.58
423.224	1446.04
423.432	1413.27
423.64	1372.31
423.848	1677.46
424.056	1601.68
424.263	1609.87
424.471	1687.7
424.679	1650.83
424.887	1861.77
425.094	1849.49
425.302	1816.72
425.51	1927.31
425.718	1945.74
425.925	1953.93
426.133	2027.66
426.341	2232.46
426.548	2369.67
426.756	2273.42
426.964	2254.98
427.171	2515.08
427.379	2578.56
427.586	2560.13
427.794	2580.61
428.001	2709.63
428.209	2973.82
428.417	2701.44
428.624	3014.78
428.832	2928.77
429.039	2867.33
429.247	3059.84
429.454	3178.62
429.662	3481.72
429.869	3309.69
430.076	3526.77
430.284	3483.77
430.491	3606.64
430.699	3659.89
430.906	3754.1
431.114	3760.24
431.321	3954.8
431.528	4071.53
431.736	4327.53
431.943	4356.2
432.15	4356.2
432.358	4427.88
432.565	4745.31
432.772	4485.22
432.979	4808.8
433.187	4921.44
433.394	4943.97
433.601	5177.44
433.808	5476.44
434.016	5208.16
434.223	5464.15
434.43	5742.68
434.637	5824.59
434.844	6088.78
435.052	6180.94
435.259	6035.53
435.466	6150.22
435.673	6166.6
435.88	6402.12
436.087	6791.24
436.294	6871.11
436.501	6572.1
436.708	6785.09
436.915	7018.56
437.122	7342.14
437.329	7237.69
437.537	7551.03
437.743	7727.16
437.95	7608.37
438.157	7917.62
438.364	8419.37
438.571	8386.6
438.778	8312.88
438.985	9027.62
439.192	8669.22
439.399	8900.64
439.606	8976.42
439.813	9396.25
440.02	9717.78
440.227	9721.88
440.433	9639.96
440.64	10082.32
440.847	9799.7
441.054	10082.32
441.261	10625.03
441.467	10770.44
441.674	10721.29
441.881	11177.98
442.088	11216.9
442.294	11268.09
442.501	11476.99
442.708	11499.52
442.914	12195.82
443.121	12736.49
443.328	12165.11
443.534	13328.35
443.741	12795.88
443.948	12754.92
444.154	13608.92
444.361	13381.6
444.568	13471.71
444.774	13699.03
444.981	13783
445.187	14346.19
445.394	14776.27
445.6	14528.46
445.807	15976.37
446.013	15265.73
446.22	15620.03
446.426	16089.01
446.633	16187.32
446.839	16955.3
447.046	16048.05
447.252	16924.58
447.459	17143.72
447.665	17002.41
447.871	17584.03
448.078	18544.53
448.284	17551.26
448.491	17856.41
448.697	18970.51
448.903	19191.69
449.11	19093.38
449.316	18794.38
449.522	19441.54
449.728	19728.25
449.935	19904.38
450.141	19767.17
450.347	20537.2
450.553	19582.85
450.76	19982.2
450.966	20664.18
451.172	20365.17
451.378	21073.77
451.584	20397.94
451.791	21032.81
451.997	20959.08
452.203	21135.21
452.409	21100.39
452.615	21466.98
452.821	20649.84
453.027	20074.36
453.233	21217.13
453.44	20125.56
453.646	20594.54
453.852	20604.78
454.058	21034.86
454.264	20750.19
454.47	20926.32
454.676	20219.77
454.882	20961.13
455.088	19128.2
455.294	19365.76
455.5	19765.12
455.705	20055.93
455.911	19355.52
456.117	18960.27
456.323	18435.99
456.529	17598.37
456.735	18489.23
456.941	18010.01
457.147	17768.35
457.352	17219.49
457.558	16789.42
457.764	16955.3
457.97	16773.03
458.176	16347.06
458.381	16232.37
458.587	15779.77
458.793	15474.62
458.999	14946.25
459.204	15691.71
459.41	15085.51
459.616	14391.25
459.821	14098.39
460.027	14286.8
460.233	13809.62
460.438	13350.88
460.644	13606.88
460.85	12812.26
461.055	12685.29
461.261	12619.75
461.466	11665.4
461.672	11458.56
461.878	12251.12
462.083	11472.89
462.289	11188.22
462.494	11128.83
462.7	10692.62
462.905	10268.69
463.111	10622.98
463.316	10770.44
463.522	10410
463.727	10432.52
463.932	10512.39
464.138	10328.08
464.343	10549.26
464.549	10080.27
464.754	10377.23
464.959	10315.79
465.165	10258.45
465.37	9877.52
465.575	9500.7
465.781	9922.58
465.986	9916.44
466.191	9381.92
466.397	9388.06
466.602	8914.98
466.807	9310.24
467.012	9304.09
467.218	9306.14
467.423	9078.82
467.628	9287.71
467.833	9578.52
468.038	9330.72
468.244	9058.34
468.449	9336.86
468.654	9189.41
468.859	9091.1
469.064	8978.47
469.269	8626.22
469.474	8736.81
469.679	8738.85
469.885	8607.78
470.09	8771.62
470.295	8755.24
470.5	8480.81
470.705	8384.55
470.91	8509.48
471.115	8298.54
471.32	8386.6
471.525	8319.02
471.73	8198.19
471.935	8050.74
472.139	7847.99
472.344	8015.92
472.549	7757.88
472.754	7936.05
472.959	7395.39
473.164	7499.83
473.369	7309.37
473.574	7520.31
473.778	7600.18
473.983	7555.13
474.188	7276.6
474.393	7055.42
474.598	7082.05
474.802	7075.9
475.007	7053.38
475.212	7125.05
475.417	6752.32
475.621	6768.71
475.826	6901.83
476.031	6563.91
476.235	6639.69
476.44	6355.02
476.645	6471.75
476.849	6715.46
477.054	6330.44
477.259	6215.76
477.463	6230.09
477.668	6119.5
477.872	6240.33
478.077	6207.56
478.282	6066.25
478.486	5935.18
478.691	6019.15
478.895	5949.52
479.1	5816.4
479.304	5900.37
479.509	5740.63
479.713	5996.62
479.918	5828.69
480.122	5683.28
480.326	5853.27
480.531	5687.38
480.735	5705.81
480.94	5468.25
481.144	5638.23
481.348	5453.91
481.553	5654.61
481.757	5472.34
481.961	5550.17
482.166	5677.14
482.37	5529.69
482.574	5374.04
482.778	5519.45
482.983	5415
483.187	5470.3
483.391	5537.88
483.595	5361.75
483.8	5494.87
484.004	5396.57
484.208	5380.18
484.412	5400.66
484.616	5562.45
484.821	5511.25
485.025	5388.38
485.229	5320.79
485.433	5427.29
485.637	5496.92
485.841	5568.6
486.045	5503.06
486.249	5390.42
486.453	5378.14
486.657	5574.74
486.861	5623.89
487.065	5380.18
487.269	5537.88
487.473	5359.7
487.677	5556.31
487.881	5488.73
488.085	5484.63
488.289	5537.88
488.493	5517.4
488.697	5421.14
488.901	5525.59
489.105	5574.74
489.309	5443.67
489.512	5554.26
489.716	5591.13
489.92	5582.93
490.124	5374.04
490.328	5615.7
490.531	5535.83
490.735	5740.63
490.939	5642.32
491.143	5673.04
491.346	5494.87
491.55	5759.06
491.754	5994.58
491.958	5881.94
492.161	5793.87
492.365	5865.55
492.569	5685.33
492.772	5754.96
492.976	5707.86
493.18	5867.6
493.383	5998.67
493.587	6025.29
493.79	6023.25
493.994	5795.92
494.197	5916.75
494.401	6383.69
494.605	6158.41
494.808	6035.53
495.012	6207.56
495.215	6326.35
495.419	6328.39
495.622	6318.15
495.825	6531.14
496.029	6545.48
496.232	6735.94
496.436	6828.1
496.639	6813.76
496.843	6715.46
497.046	6948.93
497.249	6817.86
497.453	6998.08
497.656	7143.49
497.859	7061.57
498.063	7196.73
498.266	7372.86
498.469	7422.01
498.673	7415.87
498.876	7538.74
499.079	7708.73
499.282	7678.01
499.485	7983.15
499.689	7911.47
499.892	8022.06
500.095	8093.74
500.298	8302.64
500.501	8427.56
500.705	8435.75
500.908	8620.07
501.111	8726.57
501.314	8790.05
501.517	8794.15
501.72	8869.92
501.923	9003.04
502.126	9261.09
502.329	9472.03
502.532	9469.98
502.735	9637.91
502.938	9713.69
503.141	9725.97
503.344	10002.45
503.547	9785.37
503.75	10047.51
503.953	10293.26
504.156	10420.24
504.359	10612.74
504.562	10727.43
504.765	11153.41
504.968	11210.75
505.17	11106.31
505.373	11311.1
505.576	11460.6
505.779	11706.36
505.982	11784.18
506.185	11966.45
506.387	12081.14
506.59	12156.91
506.793	12212.21
506.996	12509.16
507.198	12709.86
507.401	12838.89
507.604	13066.21
507.807	13516.76
508.009	13357.02
508.212	13723.61
508.415	13754.33
508.617	13848.54
508.82	13944.79
509.022	14190.55
509.225	14421.97
509.428	14483.41
509.63	14874.57
509.833	14747.59
510.035	15153.09
510.238	15331.26
510.44	15404.99
510.643	15792.06
510.845	15726.52
511.048	15773.63
511.25	16168.88
511.453	16060.34
511.655	16967.59
511.858	16725.93
512.06	17029.03
512.262	17455.01
512.465	17293.22
512.667	17633.18
512.87	17870.75
513.072	18079.64
513.274	18597.77
513.477	18460.56
513.679	18952.07
513.881	19251.08
514.084	19048.33
514.286	19060.62
514.488	19523.46
514.69	20184.95
514.893	20193.14
515.095	20537.2
515.297	20625.26
515.499	20926.32
515.701	21200.74
515.904	21213.03
516.106	21725.02
516.308	21690.21
516.51	22044.51
516.712	22368.09
516.914	22513.49
517.116	22839.12
517.318	23015.24
517.52	23476.04
517.722	23244.62
517.925	23842.62
518.127	24153.91
518.329	24614.71
518.531	24391.48
518.733	24823.6
518.935	25038.64
519.136	25196.33
519.338	25614.12
519.54	25632.55
519.742	25995.04
519.944	26236.7
520.146	26621.72
520.348	26898.19
520.55	26730.26
520.752	26990.35
520.954	27594.5
521.155	27463.43
521.357	28040.96
521.559	28362.49
521.761	29083.37
521.963	28880.63
522.164	28722.93
522.366	29322.99
522.568	29202.16
522.77	29624.04
522.971	30396.12
523.173	30183.13
523.375	30435.03
523.576	30416.6
523.778	30904.02
523.98	31028.95
524.181	31170.26
524.383	31389.39
524.584	31725.25
524.786	31702.73
524.988	31659.72
525.189	32016.07
525.391	32360.12
525.592	32530.11
525.794	32378.56
525.995	32974.52
526.197	32970.42
526.398	32986.8
526.6	33312.43
526.801	33332.91
527.003	33349.29
527.204	33668.78
527.406	33865.38
527.607	34008.74
527.808	34426.53
528.01	33701.54
528.211	34061.99
528.412	34836.12
528.614	34754.2
528.815	34639.51
529.016	35176.08
529.218	34807.45
529.419	35047.06
529.62	35374.73
529.822	35057.3
530.023	35169.94
530.224	35397.26
530.425	35356.3
530.626	35407.5
530.828	35106.45
531.029	35890.82
531.23	35380.88
531.431	35589.77
531.632	35823.24
531.833	35950.21
532.035	36025.99
532.236	36013.7
532.437	36122.24
532.638	36146.82
532.839	36069
533.04	36570.75
533.241	35784.33
533.442	36331.14
533.643	36275.84
533.844	36370.05
534.045	36124.29
534.246	35868.3
534.447	36466.3
534.648	36093.57
534.849	36628.09
535.05	36294.27
535.251	36386.43
535.451	36658.81
535.652	36572.8
535.853	36335.23
536.054	36777.59
536.255	36699.77
536.456	36421.25
536.657	37152.37
536.857	36621.95
537.058	36630.14
537.259	36828.79
537.46	36707.96
537.66	36695.67
537.861	36826.74
538.062	36525.69
538.263	36814.46
538.463	36742.78
538.664	36388.48
538.865	36787.83
539.065	37289.59
539.266	36630.14
539.466	36724.35
539.667	36570.75
539.868	36523.65
540.068	36740.73
540.269	36468.35
540.469	36925.05
540.67	36480.64
540.87	36757.11
541.071	36347.52
541.271	36933.24
541.472	36638.33
541.672	36380.29
541.873	36607.61
542.073	36378.24
542.274	37148.28
542.474	36234.88
542.675	36396.67
542.875	36861.56
543.075	37103.22
543.276	36437.63
543.476	36859.51
543.676	35991.17
543.877	36980.34
544.077	37070.45
544.277	36126.34
544.478	36384.38
544.678	36497.02
544.878	36808.31
545.078	36470.4
545.279	36859.51
545.479	36425.34
545.679	36667
545.879	36738.68
546.079	36947.57
546.28	36466.3
546.48	36007.56
546.68	36839.03
546.88	36724.35
547.08	36884.09
547.28	36982.39
547.48	36357.76
547.68	36548.22
547.88	36404.86
548.081	36851.32
548.281	36421.25
548.481	36492.93
548.681	36912.76
548.881	36781.69
549.081	36112
549.28	36411.01
549.48	36916.86
549.68	36486.78
549.88	36830.84
550.08	36015.75
550.28	36978.29
550.48	36585.08
550.68	36904.57
550.88	36564.6
551.08	36609.66
551.279	36800.12
551.479	36411.01
551.679	36347.52
551.879	36245.12
552.079	36800.12
552.278	36302.46
552.478	36470.4
552.678	36130.44
552.878	36683.39
553.077	36458.11
553.277	36468.35
553.477	36753.02
553.676	36304.51
553.876	36322.94
554.076	36243.07
554.275	36120.2
554.475	35645.07
554.674	36781.69
554.874	36310.66
555.074	36048.52
555.273	35937.93
555.473	36370.05
555.672	35747.47
555.872	36032.13
556.071	35909.25
556.271	35993.22
556.47	35821.19
556.67	35438.22
556.869	35700.36
557.068	35866.25
557.268	35618.44
557.467	35655.31
557.667	35849.86
557.866	35751.56
558.065	35706.51
558.265	35358.35
558.464	35368.59
558.663	35344.02
558.863	35442.32
559.062	36093.57
559.261	35114.64
559.461	35102.36
559.66	34881.17
559.859	35208.85
560.058	34868.89
560.258	34780.82
560.457	34983.57
560.656	35387.02
560.855	34991.76
561.054	34750.1
561.253	34504.35
561.453	34780.82
561.652	34746.01
561.851	34827.93
562.05	34719.38
562.249	34485.92
562.448	34662.04
562.647	34748.06
562.846	34827.93
563.045	34862.74
563.244	34066.08
563.443	34838.17
563.642	34242.21
563.841	34332.32
564.04	34205.34
564.239	34385.57
564.438	33627.82
564.637	34188.96
564.836	34154.15
565.035	33922.73
565.234	33902.25
565.432	33894.05
565.631	33924.77
565.83	33853.09
566.029	33896.1
566.228	33615.53
566.427	33314.48
566.625	33588.91
566.824	32980.66
567.023	33304.24
567.222	32630.46
567.42	33351.34
567.619	33287.85
567.818	33429.16
568.016	33009.33
568.215	33142.45
568.414	32958.13
568.612	32992.95
568.811	32487.1
569.01	33173.17
569.208	32249.53
569.407	32804.53
569.605	32059.07
569.804	32497.34
570.002	32018.11
570.201	32429.76
570.4	32267.97
570.598	31856.32
570.797	32155.33
570.995	31831.75
571.193	31577.8
571.392	32188.1
571.59	31629
571.789	31626.95
571.987	31551.18
572.186	31336.14
572.384	31260.37
572.582	31190.73
572.781	31403.72
572.979	30846.68
573.177	31311.56
573.376	31164.11
573.574	30891.73
573.772	30770.9
573.971	30596.82
574.169	30957.27
574.367	30412.51
574.565	30211.81
574.763	30408.41
574.962	30183.13
575.16	30111.46
575.358	30346.97
575.556	29802.21
575.754	30146.27
575.952	29296.36
576.151	29875.94
576.349	29515.5
576.547	29628.13
576.745	29638.37
576.943	29820.64
577.141	29380.33
577.339	29554.41
577.537	29185.77
577.735	29177.58
577.933	28751.6
578.131	28956.4
578.329	28780.28
578.527	28335.87
578.725	28647.16
578.923	28665.59
579.121	28821.23
579.319	28233.47
579.516	28671.73
579.714	28356.35
579.912	28073.73
580.11	28215.04
580.308	28090.11
580.506	28028.67
580.704	27733.76
580.901	27701
581.099	27803.39
581.297	27496.2
581.495	27551.49
581.692	27610.89
581.89	27440.9
582.088	27404.04
582.285	27303.69
582.483	27172.62
582.681	27340.55
582.878	27227.92
583.076	26781.46
583.274	27123.47
583.471	26652.44
583.669	26797.84
583.866	26701.59
584.064	26406.68
584.262	26660.63
584.459	26552.09
584.657	26070.81
584.854	26660.63
585.052	25786.15
585.249	26230.55
585.447	26246.94
585.644	25704.23
585.841	25558.82
586.039	26060.57
586.236	25476.9
586.434	25558.82
586.631	25597.73
586.828	25741.09
587.026	25653.03
587.223	25296.68
587.42	25325.35
587.618	25343.78
587.815	24835.89
588.012	24819.5
588.21	24850.22
588.407	25192.23
588.604	24983.34
588.801	24618.8
588.999	25009.97
589.196	24555.32
589.393	24856.37
589.59	24495.92
589.787	24309.56
589.984	24485.69
590.182	23693.12
590.379	24448.82
590.576	23977.79
590.773	24192.83
590.97	23695.17
591.167	24039.23
591.364	23684.93
591.561	23789.38
591.758	23502.66
591.955	23828.29
592.152	23498.56
592.349	23537.48
592.546	23838.53
592.743	23275.34
592.94	23164.75
593.137	23285.58
593.334	22994.76
593.531	22771.54
593.727	23066.44
593.924	22951.76
594.121	22761.3
594.318	23215.94
594.515	22550.35
594.712	22648.66
594.908	22628.18
595.105	22828.88
595.302	22423.38
595.499	22761.3
595.696	22454.1
595.892	22216.54
596.089	22159.19
596.286	22298.45
596.482	22116.19
596.679	22294.36
596.876	22327.13
597.072	21659.49
597.269	21708.64
597.466	21741.41
597.662	21641.06
597.859	21770.08
598.055	21800.8
598.252	21774.17
598.448	21362.53
598.645	21426.02
598.841	21122.92
599.038	21342.05
599.234	21460.84
599.431	21260.13
599.627	20973.42
599.824	21057.39
600.02	20840.3
600.217	20852.59
600.413	20680.56
600.609	20918.12
600.806	20561.78
601.002	20885.36
601.198	20531.06
601.395	20643.7
601.591	20369.27
601.787	20393.84
601.984	20414.32
602.18	20375.41
602.376	20070.26
602.572	19961.72
602.769	20246.39
602.965	19988.35
603.161	19963.77
603.357	20000.63
603.553	19627.9
603.75	19826.56
603.946	19707.77
604.142	19404.67
604.338	19484.55
604.534	19634.05
604.73	19541.89
604.926	19484.55
605.122	19462.02
605.318	19320.71
605.514	19163.01
605.71	18884.49
605.906	18790.28
606.102	18896.78
606.298	18745.23
606.494	18653.07
606.69	18571.15
606.886	18732.94
607.082	18300.82
607.278	18734.99
607.474	18360.21
607.67	18374.55
607.866	18225.04
608.062	18519.95
608.257	18175.89
608.453	18241.43
608.649	17928.09
608.845	17835.93
609.041	18087.83
609.236	18186.13
609.432	18063.26
609.628	17983.38
609.824	17754.01
610.019	17743.77
610.215	17512.35
610.411	17747.87
610.606	17743.77
610.802	17383.33
610.998	17653.66
611.193	17602.46
611.389	17377.19
611.584	17215.4
611.78	17209.25
611.976	17387.43
612.171	17143.72
612.367	16934.82
612.562	17020.84
612.758	16601.01
612.953	16766.89
613.149	17113
613.344	16660.4
613.539	16969.64
613.735	16625.58
613.93	16551.85
614.126	16480.18
614.321	17137.57
614.517	16299.95
614.712	16338.87
614.907	16388.02
615.103	16398.26
615.298	16338.87
615.493	16125.88
615.688	16273.33
615.884	16121.78
616.079	16093.11
616.274	16199.6
616.47	16175.03
616.665	16089.01
616.86	15632.32
617.055	15839.16
617.25	15894.46
617.445	16052.15
617.641	15337.41
617.836	15556.54
618.031	15376.32
618.226	15517.63
618.421	15701.95
618.616	15499.2
618.811	15259.59
619.006	15421.38
619.201	15022.02
619.396	15228.87
619.591	14833.61
619.786	14897.1
619.981	14927.81
620.176	14974.92
620.371	14737.35
620.566	14718.92
620.761	14579.66
620.956	14768.07
621.151	14344.14
621.346	14616.52
621.541	14211.03
621.735	14413.77
621.93	14327.76
622.125	14274.51
622.32	13928.41
622.515	14331.86
622.709	14032.85
622.904	13856.73
623.099	13887.45
623.294	13938.65
623.488	13627.35
623.683	13701.08
623.878	13453.28
624.072	13344.74
624.267	13195.23
624.462	13266.91
624.656	13008.87
624.851	13031.4
625.046	13328.35
625.24	12802.02
625.435	13004.77
625.629	12898.28
625.824	12701.67
626.018	12539.88
626.213	12629.99
626.407	12691.43
626.602	12244.98
626.796	12570.6
626.991	12535.79
627.185	12484.59
627.38	12273.65
627.574	12216.3
627.768	12091.38
627.963	11886.58
628.157	11884.53
628.352	12079.09
628.546	11816.95
628.74	11833.33
628.935	11751.42
629.129	11769.85
629.323	11587.58
629.517	11517.95
629.712	11423.74
629.906	11431.93
630.1	11268.09
630.294	11583.48
630.489	11139.07
630.683	11313.15
630.877	11046.91
631.071	10940.42
631.265	11094.02
631.459	11034.63
631.653	11024.39
631.848	10833.93
632.042	10969.09
632.236	10731.53
632.43	10745.86
632.624	10721.29
632.818	10811.4
633.012	10420.24
633.206	10354.7
633.4	10475.53
633.594	10311.69
633.788	10303.5
633.982	10354.7
634.176	10410
634.369	10270.73
634.563	10201.1
634.757	10121.23
634.951	10166.29
635.145	10104.85
635.339	9934.87
635.533	9781.27
635.726	9773.08
635.92	9691.16
636.114	9723.93
636.308	9588.76
636.501	9545.75
636.695	9482.27
636.889	9515.03
637.083	9433.11
637.276	9482.27
637.47	9379.87
637.664	9304.09
637.857	9408.54
638.051	9373.72
638.244	9082.91
638.438	9113.63
638.632	8990.75
638.825	9068.58
639.019	8902.69
639.212	8794.15
639.406	8863.78
639.599	8914.98
639.793	8869.92
639.986	8738.85
640.18	8853.54
640.373	8667.17
640.567	8495.15
640.76	8583.21
640.954	8599.59
641.147	8294.44
641.34	8499.24
641.534	8308.78
641.727	8179.76
641.92	8122.41
642.114	8294.44
642.307	8134.7
642.5	8183.85
642.694	8040.5
642.887	8087.6
643.08	8319.02
643.273	8024.11
643.467	8030.26
643.66	7788.6
643.853	7911.47
644.046	7725.11
644.239	7686.2
644.432	7688.25
644.626	7606.33
644.819	7567.42
645.012	7614.52
645.205	7663.67
645.398	7630.9
645.591	7315.52
645.784	7413.82
645.977	7303.23
646.17	7333.95
646.363	7131.2
646.556	7100.48
646.749	7301.18
646.942	7002.18
647.135	6979.65
647.328	7131.2
647.521	6940.74
647.714	6932.54
647.907	6815.81
648.099	6856.77
648.292	6719.56
648.485	6727.75
648.678	6459.46
648.871	6510.66
649.064	6697.03
649.256	6582.34
649.449	6461.51
649.642	6551.62
649.835	6377.55
650.027	6471.75
650.22	6301.77
650.413	6170.7
650.605	6146.12
650.798	6312.01
650.991	6230.09
651.183	6152.27
651.376	6000.72
651.568	6205.52
651.761	6019.15
651.954	5894.22
652.146	5881.94
652.339	5914.7
652.531	5820.5
652.724	5830.74
652.916	5789.78
653.109	5703.76
653.301	5623.89
653.494	5724.24
653.686	5525.59
653.879	5697.62
654.071	5582.93
654.263	5494.87
654.456	5556.31
654.648	5406.81
654.84	5312.6
655.033	5185.63
655.225	5253.21
655.417	5214.3
655.61	5034.08
655.802	5208.16
655.994	5116
656.186	5167.2
656.379	5120.09
656.571	5179.48
656.763	4978.78
656.955	4882.53
657.148	4827.23
657.34	4931.68
657.532	4812.9
657.724	4896.86
657.916	4825.19
658.108	4708.45
658.3	4763.75
658.492	4708.45
658.684	4673.64
658.876	4460.65
659.068	4722.79
659.26	4640.87
659.452	4497.51
659.644	4526.18
659.836	4395.11
660.028	4446.31
660.22	4247.66
660.412	4411.5
660.604	4311.14
660.796	4196.46
660.988	4372.58
661.18	4180.07
661.372	4044.91
661.563	4229.23
661.755	4026.48
661.947	3975.28
662.139	4102.25
662.331	3999.85
662.522	3934.32
662.714	3887.22
662.906	3885.17
663.097	3838.06
663.289	3807.34
663.481	3809.39
663.673	3981.42
663.864	3643.51
664.056	3616.88
664.247	3532.92
664.439	3668.08
664.631	3602.55
664.822	3604.6
665.014	3598.45
665.205	3496.05
665.397	3541.11
665.588	3485.81
665.78	3420.28
665.971	3440.76
666.163	3428.47
666.354	3432.57
666.546	3330.17
666.737	3364.98
666.929	3416.18
667.12	3414.13
667.311	3354.74
667.503	3209.34
667.694	3289.21
667.885	3248.25
668.077	3184.76
668.268	3231.87
668.459	3145.85
668.651	3135.61
668.842	3192.95
669.033	3151.99
669.224	3006.59
669.416	3000.44
669.607	2988.16
669.798	2984.06
669.989	3082.36
670.18	3041.4
670.371	3029.12
670.563	3031.16
670.754	2928.77
670.945	2879.61
671.136	2943.1
671.327	3047.55
671.518	3002.49
671.709	2881.66
671.9	2996.35
672.091	2855.04
672.282	2803.84
672.473	2785.41
672.664	2867.33
672.855	2760.83
673.046	2771.07
673.237	2869.37
673.428	2732.16
673.619	2781.31
673.809	2652.29
674	2756.74
674.191	2775.17
674.382	2758.78
674.573	2758.78
674.764	2660.48
674.954	2664.58
675.145	2678.91
675.336	2676.87
675.527	2654.34
675.717	2695.3
675.908	2721.92
676.099	2547.84
676.289	2662.53
676.48	2576.52
676.671	2597
676.861	2707.59
677.052	2513.03
677.243	2527.36
677.433	2535.56
677.624	2601.09
677.814	2463.88
678.005	2496.64
678.195	2560.13
678.386	2623.62
678.576	2381.96
678.767	2547.84
678.957	2420.87
679.148	2496.64
679.338	2527.36
679.529	2504.84
679.719	2572.42
679.909	2408.58
680.1	2496.64
680.29	2476.16
680.481	2453.64
680.671	2453.64
680.861	2392.2
681.052	2465.93
681.242	2318.47
681.432	2486.4
681.622	2502.79
681.813	2482.31
682.003	2349.19
682.193	2416.77
682.383	2396.29
682.573	2455.69
682.764	2371.72
682.954	2408.58
683.144	2431.11
683.334	2476.16
683.524	2414.73
683.714	2328.71
683.904	2341
684.094	2445.45
684.284	2445.45
684.474	2320.52
684.664	2334.86
684.854	2361.48
685.044	2410.63
685.234	2349.19
685.424	2390.15
685.614	2304.14
685.804	2447.49
685.994	2361.48
686.184	2363.53
686.374	2424.97
686.564	2322.57
686.753	2392.2
686.943	2267.27
687.133	2297.99
687.323	2359.43
687.513	2345.09
687.702	2369.67
687.892	2381.96
688.082	2445.45
688.272	2422.92
688.461	2386.05
688.651	2404.49
688.841	2275.46
689.03	2384.01
689.22	2439.3
689.41	2312.33
689.599	2320.52
689.789	2277.51
689.979	2207.88
690.168	2381.96
690.358	2365.57
690.547	2459.78
690.737	2265.22
690.926	2361.48
691.116	2431.11
691.305	2375.81
691.495	2457.73
691.684	2369.67
691.874	2472.07
692.063	2388.1
692.252	2373.77
692.442	2326.66
692.631	2345.09
692.82	2338.95
693.01	2328.71
693.199	2404.49
693.388	2336.9
693.578	2427.01
693.767	2355.33
693.956	2326.66
694.146	2324.62
694.335	2259.08
694.524	2314.38
694.713	2422.92
694.902	2406.53
695.092	2437.25
695.281	2250.89
695.47	2330.76
695.659	2451.59
695.848	2343.05
696.037	2398.34
696.226	2336.9
696.415	2273.42
696.604	2384.01
696.793	2398.34
696.982	2373.77
697.171	2359.43
697.36	2377.86
697.549	2259.08
697.738	2291.85
697.927	2195.59
698.116	2326.66
698.305	2302.09
698.494	2463.88
698.683	2379.91
698.872	2291.85
699.061	2394.25
699.25	2367.62
699.438	2336.9
699.627	2359.43
699.816	2365.57
700.005	2336.9
700.193	2259.08
700.382	2410.63
700.571	2359.43
700.76	2267.27
700.948	2361.48
701.137	2230.41
701.326	2228.36
701.514	2267.27
701.703	2297.99
701.892	2295.94
702.08	2228.36
702.269	2297.99
702.457	2191.5
702.646	2226.31
702.834	2224.26
703.023	2216.07
703.212	2216.07
703.4	2304.14
703.589	2244.74
703.777	2308.23
703.965	2205.83
704.154	2248.84
704.342	2111.63
704.531	2228.36
704.719	2115.72
704.907	2277.51
705.096	2195.59
705.284	2216.07
705.472	2250.89
705.661	2089.1
705.849	2144.39
706.037	2109.58
706.226	2070.67
706.414	2130.06
706.602	2191.5
706.79	2230.41
706.979	2029.71
707.167	2025.61
707.355	2068.62
707.543	2087.05
707.731	2029.71
707.919	2117.77
708.107	2099.34
708.296	2066.57
708.484	2156.68
708.672	2050.19
708.86	1964.17
709.048	2042
709.236	1998.99
709.424	1912.97
709.612	2060.43
709.8	1958.03
709.988	2082.95
710.176	1949.84
710.364	1884.3
710.551	1919.12
710.739	1884.3
710.927	1949.84
711.115	1826.96
711.303	1921.17
711.491	1923.21
711.679	1904.78
711.866	1892.49
712.054	1853.58
712.242	1872.01
712.43	1949.84
712.617	1783.95
712.805	1771.66
712.993	1851.53
713.181	1781.9
713.368	1796.24
713.556	1849.49
713.744	1804.43
713.931	1806.48
714.119	1769.62
714.306	1749.14
714.494	1812.62
714.682	1728.66
714.869	1691.79
715.057	1771.66
715.244	1718.42
715.432	1749.14
715.619	1796.24
715.807	1632.4
715.994	1671.31
716.182	1767.57
716.369	1736.85
716.556	1745.04
716.744	1702.03
716.931	1673.36
717.119	1732.75
717.306	1620.11
717.493	1605.78
717.681	1644.69
717.868	1665.17
718.055	1652.88
718.242	1570.96
718.43	1570.96
718.617	1536.15
718.804	1642.64
718.991	1626.26
719.179	1661.07
719.366	1603.73
719.553	1624.21
719.74	1542.29
719.927	1532.05
720.114	1468.56
720.301	1454.23
720.488	1497.24
720.676	1468.56
720.863	1544.34
721.05	1546.39
721.237	1454.23
721.424	1472.66
721.611	1536.15
721.798	1427.6
721.985	1415.32
722.172	1368.21
722.358	1464.47
722.545	1413.27
722.732	1462.42
722.919	1400.98
723.106	1409.17
723.293	1441.94
723.48	1407.13
723.667	1357.97
723.853	1392.79
724.04	1421.46
724.227	1355.93
724.414	1339.54
724.6	1351.83
724.787	1314.97
724.974	1376.41
725.161	1351.83
725.347	1368.21
725.534	1374.36
725.72	1323.16
725.907	1325.21
726.094	1345.69
726.28	1265.82
726.467	1224.86
726.653	1304.73
726.84	1347.73
727.027	1233.05
727.213	1290.39
727.4	1276.06
727.586	1378.45
727.773	1251.48
727.959	1276.06
728.145	1300.63
728.332	1245.34
728.518	1233.05
728.705	1192.09
728.891	1155.23
729.077	1179.8
729.264	1255.58
729.45	1222.81
729.636	1237.14
729.823	1208.47
730.009	1220.76
730.195	1251.48
730.382	1169.56
730.568	1206.42
730.754	1083.55
730.94	1308.82
731.126	1173.66
731.313	1136.79
731.499	1081.5
731.685	1093.79
731.871	1155.23
732.057	1052.83
732.243	1183.9
732.429	1118.36
732.615	1118.36
732.801	1155.23
732.987	1114.27
733.173	1108.12
733.359	1026.2
733.545	1061.02
733.731	1036.44
733.917	1157.27
734.103	1097.88
734.289	1028.25
734.475	1081.5
734.661	1067.16
734.847	1142.94
735.033	1034.39
735.219	1001.63
735.404	956.57
735.59	1142.94
735.776	1079.45
735.962	1032.35
736.148	1038.49
736.333	962.72
736.519	1083.55
736.705	1101.98
736.89	1005.72
737.076	929.95
737.262	999.58
737.447	962.72
737.633	979.1
737.819	979.1
738.004	993.44
738.19	950.43
738.375	960.67
738.561	995.48
738.747	850.08
738.932	942.24
739.118	979.1
739.303	927.9
739.489	1001.63
739.674	997.53
739.859	880.8
740.045	991.39
740.23	905.37
740.416	907.42
740.601	964.76
740.786	817.31
740.972	983.2
741.157	852.13
741.342	962.72
741.528	870.56
741.713	886.94
741.898	952.48
742.084	882.85
742.269	936.09
742.454	878.75
742.639	850.08
742.824	864.41
743.01	895.13
743.195	882.85
743.38	784.54
743.565	905.37
743.75	874.65
743.935	839.84
744.12	809.12
744.305	837.79
744.49	802.97
744.675	798.88
744.86	780.45
745.045	843.93
745.23	774.3
745.415	835.74
745.6	788.64
745.785	815.26
745.97	708.77
746.155	784.54
746.34	815.26
746.525	813.21
746.71	706.72
746.895	753.82
747.079	780.45
747.264	659.62
747.449	807.07
747.634	751.78
747.819	657.57
748.003	768.16
748.188	757.92
748.373	667.81
748.557	770.21
748.742	764.06
748.927	788.64
749.111	626.85
749.296	694.43
749.481	682.14
749.665	673.95
749.85	669.86
750.034	735.39
750.219	712.86
750.404	626.85
750.588	612.51
750.773	667.81
750.957	759.97
751.141	708.77
751.326	661.66
751.51	678.05
751.695	690.34
751.879	721.06
752.064	573.6
752.248	655.52
752.432	651.42
752.617	610.47
752.801	651.42
752.985	606.37
753.17	553.12
753.354	587.94
753.538	620.71
753.722	637.09
753.907	571.55
754.091	612.51
754.275	688.29
754.459	522.4
754.643	514.21
754.828	608.42
755.012	581.79
755.196	536.74
755.38	557.22
755.564	514.21
755.748	598.18
755.932	526.5
756.116	536.74
756.3	577.7
756.484	557.22
756.668	467.11
756.852	563.36
757.036	524.45
757.22	497.83
757.404	514.21
757.588	483.49
757.772	567.46
757.956	553.12
758.14	530.59
758.323	514.21
758.507	555.17
758.691	598.18
758.875	395.43
759.059	520.35
759.242	524.45
759.426	565.41
759.61	417.96
759.794	512.16
759.977	409.76
760.161	551.07
760.345	524.45
760.528	514.21
760.712	485.54
760.895	506.02
761.079	393.38
761.263	454.82
761.446	514.21
761.63	463.01
761.813	465.06
761.997	483.49
762.18	434.34
762.364	501.92
762.547	428.2
762.731	456.87
762.914	391.33
763.098	385.19
763.281	448.68
763.464	409.76
763.648	487.59
763.831	393.38
764.015	477.35
764.198	432.29
764.381	395.43
764.564	417.96
764.748	415.91
764.931	399.52
765.114	325.8
765.297	471.2
765.481	475.3
765.664	514.21
765.847	374.95
766.03	333.99
766.213	348.33
766.397	391.33
766.58	460.96
766.763	336.04
766.946	377
767.129	381.09
767.312	381.09
767.495	379.04
767.678	379.04
767.861	307.37
768.044	379.04
768.227	446.63
768.41	288.93
768.593	368.81
768.776	381.09
768.959	401.57
769.142	434.34
769.324	352.42
769.507	407.72
769.69	471.2
769.873	438.44
770.056	350.37
770.239	377
770.421	311.46
770.604	426.15
770.787	422.05
770.97	313.51
771.152	333.99
771.335	362.66
771.518	370.85
771.7	360.61
771.883	383.14
772.066	362.66
772.248	374.95
772.431	364.71
772.613	286.89
772.796	282.79
772.978	393.38
773.161	372.9
773.343	432.29
773.526	368.81
773.708	301.22
773.891	377
774.073	319.65
774.256	348.33
774.438	313.51
774.621	290.98
774.803	356.52
774.985	305.32
775.168	286.89
775.35	389.28
775.532	342.18
775.715	323.75
775.897	393.38
776.079	260.26
776.261	311.46
776.444	286.89
776.626	290.98
776.808	299.17
776.99	252.07
777.173	391.33
777.355	209.06
777.537	268.45
777.719	307.37
777.901	278.69
778.083	280.74
778.265	237.74
778.447	282.79
778.629	329.89
778.811	196.78
778.993	325.8
779.175	344.23
779.357	323.75
779.539	225.45
779.721	276.65
779.903	342.18
780.085	338.09
780.267	284.84
780.449	278.69
780.631	229.54
780.812	239.78
780.994	213.16
781.176	223.4
781.358	311.46
781.54	225.45
781.721	252.07
781.903	282.79
782.085	239.78
782.267	241.83
782.448	252.07
782.63	166.06
782.812	254.12
782.993	258.21
783.175	299.17
783.357	233.64
783.538	276.65
783.72	213.16
783.901	250.02
784.083	196.78
784.264	168.1
784.446	266.41
784.627	153.77
784.809	217.26
784.99	196.78
785.172	254.12
785.353	233.64
785.535	243.88
785.716	174.25
785.897	231.59
786.079	219.3
786.26	217.26
786.441	231.59
786.623	231.59
786.804	213.16
786.985	186.54
787.167	170.15
787.348	174.25
787.529	213.16
787.71	153.77
787.891	241.83
788.073	139.43
788.254	204.97
788.435	207.02
788.616	186.54
788.797	151.72
788.978	194.73
789.159	178.34
789.34	186.54
789.522	202.92
789.703	80.04
789.884	186.54
790.065	153.77
790.246	164.01
790.427	184.49
790.607	164.01
790.788	225.45
790.969	129.19
791.15	127.14
791.331	149.67
791.512	110.76
791.693	63.66
791.874	213.16
792.054	151.72
792.235	180.39
792.416	63.66
792.597	190.63
792.778	209.06
792.958	92.33
793.139	129.19
793.32	125.1
793.5	84.14
793.681	127.14
793.862	106.67
794.042	258.21
794.223	110.76
794.404	145.58
794.584	43.18
794.765	47.27
794.945	94.38
795.126	166.06
795.306	145.58
795.487	110.76
795.667	61.61
795.848	94.38
796.028	151.72
796.209	143.53
796.389	151.72
796.57	209.06
796.75	47.27
796.93	96.43
797.111	123.05
797.291	151.72
797.471	41.13
797.652	92.33
797.832	104.62
798.012	118.95
798.192	168.1
798.373	106.67
798.553	137.38
798.733	131.24
798.913	98.47
799.093	45.23
799.274	84.14
799.454	155.82
799.634	71.85
799.814	145.58
799.994	55.47
800.174	86.19
800.354	65.71
800.534	28.84
800.714	137.38
800.894	137.38
801.074	65.71
801.254	127.14
801.434	55.47
801.614	102.57
801.794	102.57
801.974	356.52
802.154	100.52
802.334	121
802.514	135.34
802.693	84.14
802.873	55.47
803.053	170.15
803.233	155.82
803.413	145.58
803.592	88.23
803.772	37.03
803.952	77.99
804.131	102.57
804.311	131.24
804.491	82.09
804.67	121
804.85	77.99
805.03	102.57
805.209	88.23
805.389	61.61
805.568	65.71
805.748	34.99
805.928	92.33
806.107	-10.07
806.287	22.7
806.466	86.19
806.646	121
806.825	59.56
807.004	80.04
807.184	137.38
807.363	10.41
807.543	80.04
807.722	10.41
807.901	20.65
808.081	118.95
808.26	18.6
808.439	14.51
808.619	28.84
808.798	57.51
808.977	55.47
809.156	37.03
809.336	34.99
809.515	73.9
809.694	84.14
809.873	30.89
810.052	102.57
810.231	24.75
810.411	102.57
810.59	102.57
810.769	28.84
810.948	80.04
811.127	12.46
811.306	45.23
811.485	82.09
811.664	106.67
811.843	69.8
812.022	75.95
812.201	57.51
812.38	-32.6
812.559	77.99
812.737	129.19
812.916	14.51
813.095	80.04
813.274	37.03
813.453	110.76
813.632	6.31
813.811	39.08
813.989	41.13
814.168	94.38
814.347	57.51
814.526	59.56
814.704	73.9
814.883	102.57
815.062	90.28
815.24	67.75
815.419	41.13
815.598	94.38
815.776	30.89
815.955	94.38
816.133	12.46
816.312	88.23
816.49	129.19
816.669	-8.02
816.847	37.03
817.026	106.67
817.204	22.7
817.383	4.27
817.561	22.7
817.74	80.04
817.918	43.18
818.097	65.71
818.275	32.94
818.453	73.9
818.632	28.84
818.81	32.94
818.988	41.13
819.167	37.03
819.345	61.61
819.523	67.75
819.701	100.52
819.879	65.71
820.058	96.43
820.236	69.8
820.414	88.23
820.592	102.57
820.77	96.43
820.948	104.62
821.127	65.71
821.305	82.09
821.483	94.38
821.661	18.6
821.839	30.89
822.017	104.62
822.195	73.9
822.373	71.85
822.551	118.95
822.729	32.94
822.907	61.61
823.085	63.66
823.262	43.18
823.44	106.67
823.618	28.84
823.796	69.8
823.974	82.09
824.152	20.65
824.329	-36.69
824.507	30.89
824.685	47.27
824.863	-14.17
825.04	49.32
825.218	90.28
825.396	41.13
825.574	26.79
825.751	71.85
825.929	28.84
826.107	69.8
826.284	32.94
826.462	39.08
826.639	82.09
826.817	41.13
826.994	53.42
827.172	86.19
827.349	-3.93
827.527	-5.97
827.704	47.27
827.882	45.23
828.059	63.66
828.237	32.94
828.414	55.47
828.591	-18.26
828.769	45.23
828.946	59.56
829.124	57.51
829.301	57.51
829.478	20.65
829.655	26.79
829.833	43.18
830.01	-44.88
830.187	18.6
830.364	47.27
830.542	-46.93
830.719	43.18
830.896	39.08
831.073	-10.07
831.25	69.8
831.427	12.46
831.604	49.32
831.782	61.61
831.959	14.51
832.136	53.42
832.313	-10.07
832.49	-44.88
832.667	73.9
832.844	45.23
833.021	53.42
833.198	26.79
833.374	49.32
833.551	22.7
833.728	4.27
833.905	57.51
834.082	80.04
834.259	-12.12
834.436	34.99
834.612	-28.5
834.789	20.65
834.966	-5.97
835.143	51.37
835.319	28.84
835.496	-69.46
835.673	20.65
835.85	-3.93
836.026	94.38
836.203	12.46
836.38	10.41
836.556	30.89
836.733	-32.6
836.909	45.23
837.086	53.42
837.262	61.61
837.439	55.47
837.616	43.18
837.792	8.36
837.968	106.67
838.145	-40.79
838.321	69.8
838.498	-38.74
838.674	-22.36
838.851	-20.31
839.027	16.55
839.203	-28.5
839.38	14.51
839.556	-12.12
839.732	77.99
839.909	55.47
840.085	-20.31
840.261	4.27
840.437	53.42
840.614	6.31
840.79	-14.17
840.966	-1.88
841.142	77.99
841.318	41.13
841.494	41.13
841.671	43.18
841.847	20.65
842.023	-40.79
842.199	53.42
842.375	12.46
842.551	57.51
842.727	34.99
842.903	20.65
843.079	4.27
843.255	-26.45
843.431	24.75
843.607	80.04
843.783	39.08
843.959	57.51
844.134	-14.17
844.31	22.7
844.486	20.65
844.662	16.55
844.838	26.79
845.013	37.03
845.189	94.38
845.365	-12.12
845.541	-30.55
845.716	12.46
845.892	12.46
846.068	-48.98
846.244	-65.36
846.419	43.18
846.595	-32.6
846.77	2.22
846.946	34.99
847.122	24.75
847.297	28.84
847.473	8.36
847.648	-14.17
847.824	73.9
847.999	20.65
848.175	-3.93
848.35	10.41
848.526	59.56
848.701	20.65
848.876	14.51
849.052	86.19
849.227	-14.17
849.403	73.9
849.578	-59.22
849.753	14.51
849.929	-28.5
850.104	-61.27
850.279	116.9
850.454	18.6
850.63	28.84
850.805	0.17
850.98	-28.5
851.155	-16.21
851.33	43.18
851.505	-20.31
851.681	30.89
851.856	16.55
852.031	67.75
852.206	26.79
852.381	28.84
852.556	28.84
852.731	12.46
852.906	26.79
853.081	-67.41
853.256	14.51
853.431	18.6
853.606	67.75
853.781	-20.31
853.956	-16.21
854.131	32.94
854.305	10.41
854.48	-10.07
854.655	12.46
854.83	-12.12
855.005	22.7
855.18	-22.36
855.354	-24.4
855.529	41.13
855.704	67.75
855.879	88.23
856.053	-44.88
856.228	-3.93
856.403	-30.55
856.577	20.65
856.752	-26.45
856.926	20.65
857.101	6.31
857.276	20.65
857.45	8.36
857.625	47.27
857.799	-16.21
857.974	-16.21
858.148	6.31
858.323	20.65
858.497	-14.17
858.672	18.6
858.846	-40.79
859.02	10.41
859.195	-14.17
859.369	49.32
859.543	16.55
859.718	94.38
859.892	-1.88
860.066	55.47
860.241	30.89
860.415	2.22
860.589	-59.22
860.763	24.75
860.938	-65.36
861.112	-44.88
861.286	45.23
861.46	8.36
861.634	-1.88
861.808	-12.12
861.982	37.03
862.157	-79.7
862.331	30.89
862.505	55.47
862.679	2.22
862.853	18.6
863.027	37.03
863.201	-32.6
863.375	-22.36
863.549	28.84
863.722	41.13
863.896	-16.21
864.07	8.36
864.244	20.65
864.418	-10.07
864.592	-5.97
864.766	-42.84
864.939	-24.4
865.113	-16.21
865.287	55.47
865.461	-14.17
865.634	-3.93
865.808	30.89
865.982	18.6
866.156	16.55
866.329	-10.07
866.503	24.75
866.676	45.23
866.85	20.65
867.024	12.46
867.197	45.23
867.371	-18.26
867.544	14.51
867.718	30.89
867.891	34.99
868.065	4.27
868.238	12.46
868.412	-12.12
868.585	16.55
868.759	45.23
868.932	-1.88
869.105	-30.55
869.279	2.22
869.452	6.31
869.625	-67.41
869.799	-1.88
869.972	20.65
870.145	65.71
870.319	16.55
870.492	110.76
870.665	18.6
870.838	53.42
871.011	-12.12
871.185	30.89
871.358	-63.32
871.531	86.19
871.704	-3.93
871.877	63.66
872.05	-42.84
872.223	0.17
872.396	47.27
872.569	20.65
872.742	-1.88
872.915	20.65
873.088	-3.93
873.261	90.28
873.434	94.38
873.607	-10.07
873.78	28.84
873.953	-46.93
874.126	57.51
874.299	45.23
874.471	-18.26
874.644	0.17
874.817	10.41
874.99	4.27
875.163	28.84
875.335	-38.74
875.508	14.51
875.681	-3.93
875.853	-34.64
876.026	28.84
876.199	-10.07
876.371	-59.22
876.544	28.84
876.717	6.31
876.889	-24.4
877.062	-10.07
877.234	-1.88
877.407	-28.5
877.579	30.89
877.752	90.28
877.924	4.27
878.097	47.27
878.269	-20.31
878.442	18.6
878.614	-8.02
878.786	57.51
878.959	6.31
879.131	-32.6
879.303	4.27
879.476	4.27
879.648	43.18
879.82	51.37
879.993	-26.45
880.165	53.42
880.337	-71.51
880.509	10.41
880.681	-65.36
880.854	-18.26
881.026	37.03
881.198	73.9
881.37	-5.97
881.542	30.89
881.714	-59.22
881.886	2.22
882.058	22.7
882.23	12.46
882.402	-34.64
882.574	-30.55
882.746	-40.79
882.918	-8.02
883.09	14.51
883.262	-5.97
883.434	-30.55
883.606	22.7
883.778	-79.7
883.95	-59.22
884.122	6.31
884.293	32.94
884.465	6.31
884.637	82.09
884.809	-36.69
884.98	-40.79
885.152	-14.17
885.324	-30.55
885.496	-10.07
885.667	-38.74
885.839	-46.93
886.011	51.37
886.182	-42.84
886.354	-32.6
886.525	-1.88
886.697	-28.5
886.869	-1.88
887.04	32.94
887.212	18.6
887.383	32.94
887.555	53.42
887.726	-3.93
887.897	2.22
888.069	-18.26
888.24	-16.21
888.412	22.7
888.583	-18.26
888.754	51.37
888.926	-10.07
889.097	-28.5
889.268	14.51
889.44	-26.45
889.611	-83.8
889.782	-77.65
889.953	32.94
890.125	0.17
890.296	-40.79
890.467	-14.17
890.638	-24.4
890.809	49.32
890.98	-77.65
891.151	41.13
891.323	-14.17
891.494	-32.6
891.665	-22.36
891.836	-16.21
892.007	14.51
892.178	12.46
892.349	16.55
892.52	-85.84
892.691	-46.93
892.862	0.17
893.032	4.27
893.203	-10.07
893.374	20.65
893.545	-102.23
893.716	30.89
893.887	-28.5
894.057	37.03
894.228	2.22
894.399	6.31
894.57	8.36
894.74	-71.51
894.911	0.17
895.082	-16.21
895.253	28.84
895.423	-24.4
895.594	28.84
895.764	49.32
895.935	-3.93
896.106	-89.94
896.276	53.42
896.447	12.46
896.617	-14.17
896.788	37.03
896.958	-34.64
897.129	-63.32
897.299	-3.93
897.47	-34.64
897.64	24.75
897.81	65.71
897.981	10.41
898.151	-34.64
898.322	-5.97
898.492	-38.74
898.662	-12.12
898.832	-65.36
899.003	4.27
899.173	10.41
899.343	45.23
899.513	-61.27
