Data from USB4F104151__99__13-54-38-489.txt Node

Date: Thu Mar 13 13:54:38 EDT 2025
User: louis
Spectrometer: USB4F10415
Trigger mode: 4
Integration Time (sec): 1.000000E-2
Scans to average: 1
Electric dark correction enabled: true
Nonlinearity correction enabled: false
Boxcar width: 0
XAxis mode: Wavelengths
Number of Pixels in Spectrum: 3648
>>>>>Begin Spectral Data<<<<<
178.204	-13.48
178.424	-13.48
178.644	-13.48
178.864	-64.68
179.084	-1.19
179.304	62.29
179.524	-15.53
179.744	15.19
179.964	-21.67
180.184	-9.39
180.404	-5.29
180.624	-21.67
180.844	-44.2
181.064	39.76
181.283	9.05
181.503	-3.24
181.723	-5.29
181.943	-95.4
182.163	17.24
182.383	64.34
182.602	68.44
182.822	58.2
183.042	50
183.262	15.19
183.482	7
183.701	-13.48
183.921	31.57
184.141	19.29
184.361	76.63
184.58	21.33
184.8	-38.06
185.02	50
185.239	39.76
185.459	-9.39
185.679	82.77
185.898	-21.67
186.118	66.39
186.338	0.85
186.557	27.48
186.777	-5.29
186.997	35.67
187.216	60.24
187.436	-23.72
187.655	60.24
187.875	35.67
188.095	31.57
188.314	47.96
188.534	56.15
188.753	25.43
188.973	9.05
189.192	23.38
189.412	64.34
189.631	62.29
189.851	56.15
190.07	93.01
190.29	23.38
190.509	15.19
190.729	9.05
190.948	-9.39
191.168	56.15
191.387	-25.77
191.607	-9.39
191.826	11.09
192.045	-40.11
192.265	-19.63
192.484	-36.01
192.704	0.85
192.923	25.43
193.142	45.91
193.362	52.05
193.581	-7.34
193.8	-9.39
194.02	41.81
194.239	72.53
194.458	74.58
194.678	47.96
194.897	23.38
195.116	50
195.335	19.29
195.555	35.67
195.774	15.19
195.993	19.29
196.212	-13.48
196.432	-19.63
196.651	43.86
196.87	11.09
197.089	111.44
197.308	70.48
197.528	15.19
197.747	2.9
197.966	-81.07
198.185	47.96
198.404	7
198.623	17.24
198.842	-11.43
199.062	80.72
199.281	21.33
199.5	72.53
199.719	13.14
199.938	68.44
200.157	29.52
200.376	-38.06
200.595	-38.06
200.814	-42.15
201.033	58.2
201.252	78.68
201.471	-9.39
201.69	-66.73
201.909	-25.77
202.128	2.9
202.347	-3.24
202.566	17.24
202.785	-11.43
203.004	9.05
203.223	11.09
203.442	15.19
203.661	-42.15
203.879	88.92
204.098	52.05
204.317	74.58
204.536	31.57
204.755	56.15
204.974	-42.15
205.193	-5.29
205.411	41.81
205.63	68.44
205.849	70.48
206.068	-23.72
206.287	23.38
206.505	27.48
206.724	39.76
206.943	17.24
207.162	86.87
207.381	29.52
207.599	31.57
207.818	31.57
208.037	47.96
208.255	58.2
208.474	21.33
208.693	70.48
208.911	54.1
209.13	33.62
209.349	31.57
209.567	15.19
209.786	33.62
210.005	7
210.223	13.14
210.442	-33.96
210.661	99.16
210.879	21.33
211.098	-33.96
211.316	62.29
211.535	23.38
211.753	123.73
211.972	99.16
212.191	72.53
212.409	-42.15
212.628	21.33
212.846	70.48
213.065	109.4
213.283	-21.67
213.502	13.14
213.72	-13.48
213.938	88.92
214.157	41.81
214.375	27.48
214.594	35.67
214.812	15.19
215.031	62.29
215.249	80.72
215.467	-31.91
215.686	64.34
215.904	-72.87
216.122	-31.91
216.341	70.48
216.559	-29.87
216.778	62.29
216.996	-1.19
217.214	47.96
217.432	13.14
217.651	19.29
217.869	13.14
218.087	39.76
218.306	41.81
218.524	-7.34
218.742	37.72
218.96	25.43
219.179	60.24
219.397	9.05
219.615	29.52
219.833	15.19
220.051	52.05
220.27	-1.19
220.488	-36.01
220.706	60.24
220.924	21.33
221.142	58.2
221.36	43.86
221.578	64.34
221.796	41.81
222.015	60.24
222.233	15.19
222.451	50
222.669	-40.11
222.887	56.15
223.105	-25.77
223.323	15.19
223.541	70.48
223.759	23.38
223.977	58.2
224.195	50
224.413	0.85
224.631	45.91
224.849	-5.29
225.067	97.11
225.285	29.52
225.503	84.82
225.721	50
225.939	27.48
226.157	-7.34
226.375	86.87
226.592	13.14
226.81	0.85
227.028	21.33
227.246	84.82
227.464	4.95
227.682	15.19
227.9	11.09
228.117	25.43
228.335	47.96
228.553	23.38
228.771	-11.43
228.989	60.24
229.206	90.96
229.424	11.09
229.642	-19.63
229.86	13.14
230.077	-9.39
230.295	43.86
230.513	-5.29
230.731	-15.53
230.948	39.76
231.166	62.29
231.384	101.2
231.601	60.24
231.819	35.67
232.037	60.24
232.254	9.05
232.472	-52.39
232.689	17.24
232.907	60.24
233.125	-50.35
233.342	50
233.56	-64.68
233.777	50
233.995	-3.24
234.213	-13.48
234.43	-1.19
234.648	-3.24
234.865	39.76
235.083	97.11
235.3	-11.43
235.518	7
235.735	37.72
235.953	56.15
236.17	-27.82
236.388	113.49
236.605	64.34
236.822	74.58
237.04	37.72
237.257	11.09
237.475	7
237.692	41.81
237.909	0.85
238.127	-25.77
238.344	76.63
238.562	-31.91
238.779	-21.67
238.996	0.85
239.214	27.48
239.431	31.57
239.648	84.82
239.865	70.48
240.083	33.62
240.3	-46.25
240.517	35.67
240.735	54.1
240.952	54.1
241.169	58.2
241.386	13.14
241.603	45.91
241.821	35.67
242.038	31.57
242.255	35.67
242.472	45.91
242.689	45.91
242.907	88.92
243.124	144.21
243.341	37.72
243.558	-7.34
243.775	68.44
243.992	-1.19
244.209	-1.19
244.426	50
244.643	7
244.86	-7.34
245.078	0.85
245.295	-3.24
245.512	2.9
245.729	-21.67
245.946	4.95
246.163	11.09
246.38	0.85
246.597	25.43
246.814	7
247.031	-15.53
247.248	72.53
247.464	29.52
247.681	-19.63
247.898	82.77
248.115	64.34
248.332	-40.11
248.549	62.29
248.766	111.44
248.983	146.26
249.2	15.19
249.417	17.24
249.633	41.81
249.85	74.58
250.067	17.24
250.284	-1.19
250.501	25.43
250.717	0.85
250.934	62.29
251.151	111.44
251.368	31.57
251.585	11.09
251.801	29.52
252.018	-13.48
252.235	76.63
252.451	-31.91
252.668	-7.34
252.885	68.44
253.102	60.24
253.318	9.05
253.535	-19.63
253.752	4.95
253.968	9.05
254.185	37.72
254.401	58.2
254.618	-13.48
254.835	35.67
255.051	-42.15
255.268	68.44
255.484	66.39
255.701	41.81
255.917	41.81
256.134	115.54
256.351	64.34
256.567	-23.72
256.784	31.57
257	27.48
257.217	41.81
257.433	21.33
257.65	25.43
257.866	0.85
258.082	-15.53
258.299	-21.67
258.515	4.95
258.732	2.9
258.948	-50.35
259.165	21.33
259.381	29.52
259.597	43.86
259.814	9.05
260.03	62.29
260.246	70.48
260.463	2.9
260.679	25.43
260.895	39.76
261.112	72.53
261.328	-7.34
261.544	19.29
261.761	-5.29
261.977	7
262.193	39.76
262.409	62.29
262.626	-33.96
262.842	11.09
263.058	4.95
263.274	-9.39
263.49	-64.68
263.707	43.86
263.923	68.44
264.139	78.68
264.355	78.68
264.571	13.14
264.787	43.86
265.004	62.29
265.22	66.39
265.436	-33.96
265.652	15.19
265.868	82.77
266.084	50
266.3	88.92
266.516	-7.34
266.732	7
266.948	68.44
267.164	64.34
267.38	-21.67
267.596	7
267.812	-7.34
268.028	-7.34
268.244	-54.44
268.46	-50.35
268.676	21.33
268.892	-1.19
269.108	-40.11
269.324	23.38
269.54	-21.67
269.756	-5.29
269.972	50
270.188	-79.02
270.403	9.05
270.619	37.72
270.835	88.92
271.051	-17.58
271.267	-31.91
271.483	17.24
271.698	2.9
271.914	37.72
272.13	-54.44
272.346	60.24
272.562	21.33
272.777	43.86
272.993	39.76
273.209	78.68
273.425	33.62
273.64	72.53
273.856	25.43
274.072	-1.19
274.287	37.72
274.503	64.34
274.719	19.29
274.934	-27.82
275.15	-23.72
275.366	84.82
275.581	64.34
275.797	64.34
276.012	60.24
276.228	45.91
276.444	52.05
276.659	60.24
276.875	-9.39
277.09	15.19
277.306	-17.58
277.521	80.72
277.737	33.62
277.952	-17.58
278.168	7
278.383	119.64
278.599	86.87
278.814	72.53
279.03	11.09
279.245	45.91
279.461	52.05
279.676	27.48
279.892	72.53
280.107	39.76
280.322	35.67
280.538	31.57
280.753	13.14
280.969	25.43
281.184	13.14
281.399	60.24
281.615	-38.06
281.83	4.95
282.045	86.87
282.26	56.15
282.476	76.63
282.691	43.86
282.906	70.48
283.122	9.05
283.337	37.72
283.552	105.3
283.767	45.91
283.983	31.57
284.198	47.96
284.413	25.43
284.628	58.2
284.843	21.33
285.058	2.9
285.274	74.58
285.489	31.57
285.704	56.15
285.919	23.38
286.134	25.43
286.349	56.15
286.564	15.19
286.779	66.39
286.995	115.54
287.21	13.14
287.425	50
287.64	39.76
287.855	25.43
288.07	17.24
288.285	-7.34
288.5	90.96
288.715	17.24
288.93	86.87
289.145	7
289.36	70.48
289.575	25.43
289.79	101.2
290.004	58.2
290.219	11.09
290.434	72.53
290.649	45.91
290.864	66.39
291.079	21.33
291.294	-11.43
291.509	2.9
291.724	7
291.938	56.15
292.153	47.96
292.368	54.1
292.583	58.2
292.798	82.77
293.012	58.2
293.227	50
293.442	-13.48
293.657	-17.58
293.871	52.05
294.086	-9.39
294.301	19.29
294.516	33.62
294.73	17.24
294.945	9.05
295.16	56.15
295.374	88.92
295.589	68.44
295.804	68.44
296.018	-46.25
296.233	45.91
296.447	60.24
296.662	-7.34
296.877	103.25
297.091	99.16
297.306	19.29
297.52	4.95
297.735	31.57
297.949	33.62
298.164	127.83
298.378	62.29
298.593	27.48
298.807	56.15
299.022	62.29
299.236	19.29
299.451	72.53
299.665	70.48
299.88	47.96
300.094	72.53
300.309	31.57
300.523	13.14
300.737	56.15
300.952	-87.21
301.166	35.67
301.381	107.35
301.595	45.91
301.809	21.33
302.024	101.2
302.238	0.85
302.452	58.2
302.667	47.96
302.881	-25.77
303.095	29.52
303.309	29.52
303.524	7
303.738	72.53
303.952	47.96
304.166	95.06
304.381	-52.39
304.595	93.01
304.809	56.15
305.023	64.34
305.237	25.43
305.452	25.43
305.666	35.67
305.88	19.29
306.094	35.67
306.308	64.34
306.522	45.91
306.736	66.39
306.95	82.77
307.164	43.86
307.379	0.85
307.593	76.63
307.807	-1.19
308.021	23.38
308.235	84.82
308.449	33.62
308.663	2.9
308.877	86.87
309.091	54.1
309.305	39.76
309.519	-9.39
309.733	50
309.947	37.72
310.161	-9.39
310.374	0.85
310.588	103.25
310.802	86.87
311.016	84.82
311.23	21.33
311.444	29.52
311.658	-19.63
311.872	82.77
312.085	11.09
312.299	19.29
312.513	60.24
312.727	13.14
312.941	70.48
313.154	17.24
313.368	74.58
313.582	58.2
313.796	62.29
314.009	15.19
314.223	45.91
314.437	-7.34
314.651	9.05
314.864	19.29
315.078	19.29
315.292	74.58
315.505	56.15
315.719	72.53
315.933	50
316.146	68.44
316.36	52.05
316.573	54.1
316.787	68.44
317.001	95.06
317.214	-19.63
317.428	54.1
317.641	45.91
317.855	39.76
318.068	41.81
318.282	25.43
318.495	84.82
318.709	-9.39
318.922	0.85
319.136	37.72
319.349	0.85
319.563	29.52
319.776	47.96
319.99	50
320.203	33.62
320.417	19.29
320.63	29.52
320.843	13.14
321.057	54.1
321.27	93.01
321.483	27.48
321.697	70.48
321.91	25.43
322.124	47.96
322.337	-5.29
322.55	-15.53
322.763	41.81
322.977	82.77
323.19	39.76
323.403	35.67
323.617	-23.72
323.83	0.85
324.043	-13.48
324.256	4.95
324.469	19.29
324.683	31.57
324.896	31.57
325.109	58.2
325.322	23.38
325.535	56.15
325.748	41.81
325.962	117.59
326.175	-19.63
326.388	64.34
326.601	76.63
326.814	9.05
327.027	113.49
327.24	41.81
327.453	-11.43
327.666	43.86
327.879	17.24
328.092	90.96
328.305	31.57
328.518	33.62
328.731	70.48
328.944	-29.87
329.157	90.96
329.37	-15.53
329.583	80.72
329.796	4.95
330.009	4.95
330.222	58.2
330.435	80.72
330.648	58.2
330.861	13.14
331.073	29.52
331.286	86.87
331.499	101.2
331.712	25.43
331.925	37.72
332.138	111.44
332.35	-38.06
332.563	-19.63
332.776	31.57
332.989	27.48
333.202	23.38
333.414	9.05
333.627	25.43
333.84	76.63
334.053	50
334.265	17.24
334.478	11.09
334.691	15.19
334.903	97.11
335.116	33.62
335.329	47.96
335.541	82.77
335.754	50
335.966	82.77
336.179	47.96
336.392	-13.48
336.604	72.53
336.817	80.72
337.029	-38.06
337.242	17.24
337.454	29.52
337.667	105.3
337.88	27.48
338.092	-23.72
338.305	80.72
338.517	13.14
338.729	23.38
338.942	4.95
339.154	72.53
339.367	-17.58
339.579	86.87
339.792	21.33
340.004	15.19
340.217	109.4
340.429	56.15
340.641	35.67
340.854	-40.11
341.066	-31.91
341.278	11.09
341.491	33.62
341.703	99.16
341.915	45.91
342.128	82.77
342.34	17.24
342.552	76.63
342.764	-5.29
342.977	7
343.189	21.33
343.401	62.29
343.613	-119.98
343.826	70.48
344.038	54.1
344.25	88.92
344.462	-21.67
344.674	37.72
344.886	35.67
345.099	23.38
345.311	50
345.523	31.57
345.735	-7.34
345.947	35.67
346.159	93.01
346.371	84.82
346.583	101.2
346.795	13.14
347.007	-1.19
347.219	88.92
347.431	33.62
347.643	37.72
347.855	56.15
348.067	84.82
348.279	29.52
348.491	58.2
348.703	64.34
348.915	25.43
349.127	82.77
349.339	-13.48
349.551	68.44
349.763	21.33
349.975	-33.96
350.187	58.2
350.399	13.14
350.61	58.2
350.822	39.76
351.034	58.2
351.246	47.96
351.458	117.59
351.669	-3.24
351.881	29.52
352.093	58.2
352.305	117.59
352.517	82.77
352.728	82.77
352.94	78.68
353.152	125.78
353.363	19.29
353.575	74.58
353.787	45.91
353.999	138.07
354.21	76.63
354.422	45.91
354.633	29.52
354.845	-19.63
355.057	68.44
355.268	47.96
355.48	15.19
355.692	35.67
355.903	27.48
356.115	21.33
356.326	21.33
356.538	56.15
356.749	74.58
356.961	45.91
357.172	23.38
357.384	19.29
357.595	82.77
357.807	62.29
358.018	74.58
358.23	11.09
358.441	99.16
358.653	35.67
358.864	17.24
359.075	123.73
359.287	70.48
359.498	99.16
359.709	97.11
359.921	39.76
360.132	2.9
360.344	54.1
360.555	33.62
360.766	129.88
360.977	15.19
361.189	35.67
361.4	50
361.611	62.29
361.823	50
362.034	37.72
362.245	37.72
362.456	-1.19
362.667	105.3
362.879	39.76
363.09	84.82
363.301	-9.39
363.512	23.38
363.723	47.96
363.935	54.1
364.146	-5.29
364.357	74.58
364.568	7
364.779	78.68
364.99	37.72
365.201	9.05
365.412	58.2
365.623	35.67
365.834	-11.43
366.045	19.29
366.256	64.34
366.467	62.29
366.678	97.11
366.889	29.52
367.1	80.72
367.311	80.72
367.522	33.62
367.733	-17.58
367.944	115.54
368.155	95.06
368.366	60.24
368.577	76.63
368.788	97.11
368.999	29.52
369.209	-5.29
369.42	56.15
369.631	52.05
369.842	45.91
370.053	-5.29
370.264	50
370.474	107.35
370.685	-17.58
370.896	84.82
371.107	54.1
371.317	-13.48
371.528	68.44
371.739	52.05
371.95	66.39
372.16	39.76
372.371	-33.96
372.582	43.86
372.792	-42.15
373.003	52.05
373.214	0.85
373.424	58.2
373.635	45.91
373.846	-11.43
374.056	60.24
374.267	31.57
374.477	33.62
374.688	78.68
374.898	54.1
375.109	35.67
375.319	11.09
375.53	35.67
375.74	37.72
375.951	62.29
376.161	56.15
376.372	80.72
376.582	66.39
376.793	-33.96
377.003	52.05
377.214	74.58
377.424	45.91
377.635	72.53
377.845	82.77
378.055	68.44
378.266	68.44
378.476	-13.48
378.686	86.87
378.897	74.58
379.107	109.4
379.317	101.2
379.528	45.91
379.738	-33.96
379.948	54.1
380.158	21.33
380.369	66.39
380.579	-7.34
380.789	43.86
380.999	62.29
381.21	93.01
381.42	93.01
381.63	19.29
381.84	33.62
382.05	43.86
382.261	90.96
382.471	62.29
382.681	72.53
382.891	37.72
383.101	27.48
383.311	78.68
383.521	33.62
383.731	21.33
383.941	129.88
384.151	121.68
384.361	86.87
384.571	7
384.781	58.2
384.991	35.67
385.201	99.16
385.411	60.24
385.621	-33.96
385.831	70.48
386.041	103.25
386.251	15.19
386.461	76.63
386.671	133.97
386.881	39.76
387.091	29.52
387.301	113.49
387.511	15.19
387.72	103.25
387.93	82.77
388.14	54.1
388.35	-42.15
388.56	93.01
388.769	70.48
388.979	78.68
389.189	45.91
389.399	70.48
389.609	88.92
389.818	21.33
390.028	78.68
390.238	93.01
390.447	82.77
390.657	78.68
390.867	62.29
391.076	25.43
391.286	82.77
391.496	84.82
391.705	50
391.915	131.92
392.125	21.33
392.334	47.96
392.544	99.16
392.753	60.24
392.963	66.39
393.172	97.11
393.382	115.54
393.591	146.26
393.801	25.43
394.01	97.11
394.22	78.68
394.429	50
394.639	50
394.848	39.76
395.058	21.33
395.267	0.85
395.477	41.81
395.686	39.76
395.895	56.15
396.105	60.24
396.314	80.72
396.524	125.78
396.733	78.68
396.942	78.68
397.152	80.72
397.361	107.35
397.57	76.63
397.78	19.29
397.989	97.11
398.198	74.58
398.407	64.34
398.617	27.48
398.826	84.82
399.035	62.29
399.244	125.78
399.453	158.55
399.663	43.86
399.872	45.91
400.081	62.29
400.29	58.2
400.499	41.81
400.708	64.34
400.917	4.95
401.127	31.57
401.336	93.01
401.545	43.86
401.754	121.68
401.963	158.55
402.172	144.21
402.381	121.68
402.59	70.48
402.799	215.89
403.008	107.35
403.217	136.02
403.426	238.42
403.635	119.64
403.844	56.15
404.053	197.46
404.262	35.67
404.471	109.4
404.68	60.24
404.888	125.78
405.097	45.91
405.306	195.41
405.515	133.97
405.724	93.01
405.933	95.06
406.142	150.36
406.35	80.72
406.559	117.59
406.768	144.21
406.977	133.97
407.185	144.21
407.394	60.24
407.603	136.02
407.812	148.31
408.02	119.64
408.229	213.84
408.438	232.27
408.646	166.74
408.855	205.65
409.064	252.75
409.272	201.55
409.481	234.32
409.69	316.24
409.898	191.31
410.107	146.26
410.315	260.95
410.524	308.05
410.733	262.99
410.941	205.65
411.15	314.19
411.358	258.9
411.567	295.76
411.775	303.95
411.984	320.34
412.192	318.29
412.401	396.11
412.609	389.97
412.818	312.14
413.026	301.9
413.234	416.59
413.443	465.74
413.651	424.78
413.86	394.06
414.068	453.45
414.276	512.85
414.485	426.83
414.693	414.54
414.901	506.7
415.11	564.04
415.318	566.09
415.526	455.5
415.734	584.52
415.943	576.33
416.151	465.74
416.359	635.72
416.567	680.78
416.776	670.54
416.984	613.2
417.192	682.83
417.4	619.34
417.608	717.64
417.817	711.5
418.025	725.83
418.233	842.57
418.441	807.75
418.649	910.15
418.857	912.2
419.065	977.73
419.273	875.34
419.481	1082.18
419.689	1098.56
419.897	1059.65
420.105	1014.6
420.313	1065.8
420.521	1106.76
420.729	1106.76
420.937	1235.78
421.145	1340.22
421.353	1370.94
421.561	1383.23
421.769	1358.66
421.977	1467.2
422.185	1440.58
422.393	1667.9
422.601	1715
422.809	1735.48
423.017	1633.08
423.224	1780.54
423.432	1835.83
423.64	1866.55
423.848	1985.34
424.056	1962.81
424.263	2122.55
424.471	1973.05
424.679	2153.27
424.887	2134.84
425.094	2206.52
425.302	2388.78
425.51	2372.4
425.718	2407.22
425.925	2558.77
426.133	2534.19
426.341	2616.11
426.548	2837.29
426.756	2818.86
426.964	2855.72
427.171	2931.5
427.379	3009.32
427.586	3226.4
427.794	3300.13
428.001	3394.34
428.209	3595.04
428.417	3556.13
428.624	3701.53
428.832	3771.16
429.039	3779.36
429.247	3560.22
429.454	4104.98
429.662	4424.47
429.869	4088.6
430.076	4553.49
430.284	4315.92
430.491	4350.74
430.699	4719.37
430.906	4733.71
431.114	4889.35
431.321	5081.86
431.528	5096.2
431.736	5243.65
431.943	5610.24
432.15	5468.93
432.358	5507.84
432.565	5647.1
432.772	5784.32
432.979	6095.61
433.187	6077.18
433.394	6050.55
433.601	6525.68
433.808	6685.42
434.016	6568.69
434.223	6789.87
434.43	7187.18
434.637	7080.68
434.844	7576.29
435.052	7674.59
435.259	7543.52
435.466	7600.87
435.673	7639.78
435.88	8141.53
436.087	8639.19
436.294	8616.66
436.501	8403.67
436.708	8510.16
436.915	8757.97
437.122	9224.9
437.329	9355.97
437.537	9749.18
437.743	9673.41
437.95	9509.57
438.157	10252.98
438.364	10293.94
438.571	10558.13
438.778	10508.98
438.985	11475.62
439.192	10904.24
439.399	11100.84
439.606	10932.91
439.813	11731.62
440.02	12290.71
440.227	12214.94
440.433	12051.1
440.64	12614.29
440.847	12380.82
441.054	12614.29
441.261	13595.27
441.467	13351.56
441.674	13769.35
441.881	14162.56
442.088	14262.91
442.294	14084.73
442.501	14537.34
442.708	14871.15
442.914	15213.17
443.121	15630.95
443.328	15268.46
443.534	16470.62
443.741	15864.42
443.948	15960.67
444.154	17089.1
444.361	16755.29
444.568	17171.02
444.774	16812.63
444.981	17095.25
445.187	17822.28
445.394	18303.55
445.6	18205.25
445.807	19995.17
446.013	19030.58
446.22	19630.63
446.426	20240.93
446.633	20437.53
446.839	20750.87
447.046	20253.22
447.252	21176.85
447.459	21275.15
447.665	21281.3
447.871	22327.81
448.078	23132.66
448.284	22092.29
448.491	22616.57
448.697	23333.36
448.903	23953.9
449.11	23874.03
449.316	23677.42
449.522	23935.46
449.728	24414.69
449.935	24695.26
450.141	24760.8
450.347	25119.19
450.553	24584.67
450.76	24642.01
450.966	25395.67
451.172	25223.64
451.378	25620.94
451.584	25313.75
451.791	25881.03
451.997	25960.91
452.203	26364.36
452.409	26356.16
452.615	25878.99
452.821	24887.77
453.027	24834.52
453.233	26083.78
453.44	25184.73
453.646	25573.84
453.852	25459.15
454.058	26030.54
454.264	25133.53
454.47	25692.62
454.676	24965.59
454.882	25897.42
455.088	23947.75
455.294	23919.08
455.5	24201.7
455.705	24609.25
455.911	23771.63
456.117	23337.46
456.323	22888.95
456.529	21512.72
456.735	22630.91
456.941	22155.78
457.147	21643.79
457.352	20746.78
457.558	20955.67
457.764	20873.75
457.97	20357.66
458.176	19884.58
458.381	19886.63
458.587	19079.73
458.793	18932.28
458.999	18055.75
459.204	19206.7
459.41	18881.08
459.616	17754.69
459.821	17416.78
460.027	17324.62
460.233	16935.51
460.438	16235.1
460.644	16423.51
460.85	15628.9
461.055	15608.42
461.261	15436.39
461.466	14369.4
461.672	13910.66
461.878	14756.47
462.083	13929.09
462.289	13646.47
462.494	13460.1
462.7	13120.14
462.905	12544.66
463.111	13085.33
463.316	12987.02
463.522	12755.6
463.727	12753.55
463.932	12774.03
464.138	12718.74
464.343	12479.13
464.549	12264.09
464.754	12675.73
464.959	12647.06
465.165	12417.69
465.37	12026.53
465.575	11659.94
465.781	12284.57
465.986	12016.29
466.191	11932.32
466.397	11604.64
466.602	11043.5
466.807	11315.88
467.012	11471.53
467.218	11528.87
467.423	10928.81
467.628	11344.55
467.833	11616.93
468.038	11307.69
468.244	11000.49
468.449	11463.33
468.654	11164.33
468.859	11094.7
469.064	10957.49
469.269	10486.45
469.474	10457.78
469.679	10846.9
469.885	10533.56
470.09	10398.39
470.295	10529.46
470.5	10109.63
470.705	10234.55
470.91	10009.28
471.115	10015.42
471.32	9988.8
471.525	10083
471.73	9831.1
471.935	9831.1
472.139	9452.23
472.344	9552.58
472.549	9468.61
472.754	9312.97
472.959	9298.63
473.164	8960.72
473.369	8829.65
473.574	9306.82
473.778	9149.13
473.983	9052.88
474.188	9181.9
474.393	8497.88
474.598	8733.39
474.802	8530.64
475.007	8526.55
475.212	8614.61
475.417	8288.98
475.621	8145.63
475.826	8340.18
476.031	8202.97
476.235	7971.55
476.44	8166.1
476.645	7963.36
476.849	7815.9
477.054	7893.72
477.259	7776.99
477.463	7717.6
477.668	7445.22
477.872	7566.05
478.077	7404.26
478.282	7357.16
478.486	7441.12
478.691	7150.31
478.895	7297.77
479.1	7183.08
479.304	7142.12
479.509	6894.32
479.713	7035.63
479.918	6779.63
480.122	6945.52
480.326	6972.14
480.531	6888.17
480.735	7064.3
480.94	6769.39
481.144	6836.97
481.348	6605.55
481.553	6716.14
481.757	6550.26
481.961	6738.67
482.166	6675.18
482.37	6763.25
482.574	6490.87
482.778	6560.5
482.983	6656.75
483.187	6626.03
483.391	6716.14
483.595	6607.6
483.8	6798.06
484.004	6710
484.208	6613.74
484.412	6763.25
484.616	6517.49
484.821	6572.79
485.025	6558.45
485.229	6603.5
485.433	6597.36
485.637	6675.18
485.841	6675.18
486.045	6603.5
486.249	6505.2
486.453	6503.15
486.657	6652.66
486.861	6742.77
487.065	6501.11
487.269	6595.31
487.473	6454
487.677	6773.49
487.881	6839.02
488.085	6656.75
488.289	6689.52
488.493	6570.74
488.697	6759.15
488.901	6609.65
489.105	6787.82
489.309	6746.86
489.512	6800.11
489.716	6615.79
489.92	6701.81
490.124	6779.63
490.328	6771.44
490.531	6726.38
490.735	6720.24
490.939	6941.42
491.143	6748.91
491.346	6728.43
491.55	7004.91
491.754	6906.6
491.958	6902.51
492.161	6976.23
492.365	7138.02
492.569	7035.63
492.772	6873.84
492.976	7164.65
493.18	7234.28
493.383	7113.45
493.587	7391.97
493.79	7340.77
493.994	7291.62
494.197	7271.14
494.401	7453.41
494.605	7377.64
494.808	7451.36
495.012	7582.43
495.215	7621.35
495.419	7789.28
495.622	7654.11
495.825	7650.02
496.029	7750.37
496.232	7918.3
496.436	7928.54
496.639	8114.91
496.843	8020.7
497.046	8256.22
497.249	8248.02
497.453	8262.36
497.656	8569.55
497.859	8557.27
498.063	8440.53
498.266	8850.13
498.469	8764.11
498.673	8827.6
498.876	8944.33
499.079	9177.8
499.282	9009.87
499.485	9392.84
499.689	9343.69
499.892	9603.78
500.095	9654.98
500.298	9657.03
500.501	9847.49
500.705	10068.67
500.908	10295.99
501.111	10209.98
501.314	10228.41
501.517	10408.63
501.72	10687.15
501.923	10549.94
502.126	10803.89
502.329	11088.56
502.532	11012.78
502.735	11063.98
502.938	11166.38
503.141	11442.85
503.344	11485.86
503.547	11313.83
503.75	11872.93
503.953	11948.7
504.156	11920.03
504.359	12341.91
504.562	12378.78
504.765	12720.79
504.968	12657.3
505.17	12743.31
505.373	12974.74
505.576	13116.05
505.779	13255.31
505.982	13286.03
506.185	13625.99
506.387	13437.58
506.59	13886.08
506.793	14228.09
506.996	14156.41
507.198	14531.19
507.401	14310.01
507.604	14488.18
507.807	14856.82
508.009	14926.45
508.212	15125.1
508.415	15442.54
508.617	15587.94
508.82	15608.42
509.022	15649.38
509.225	16130.66
509.428	16288.35
509.63	16093.79
509.833	16503.39
510.035	16859.73
510.238	16538.2
510.44	17211.98
510.643	17384.01
510.845	17482.31
511.048	17578.57
511.25	17826.37
511.453	17777.22
511.655	18457.15
511.858	18473.53
512.06	18805.3
512.262	18852.41
512.465	18872.89
512.667	19020.34
512.87	19171.89
513.072	19565.1
513.274	19907.11
513.477	20273.7
513.679	20400.67
513.881	20675.1
514.084	20736.54
514.286	20933.14
514.488	21010.96
514.69	21666.31
514.893	21469.71
515.095	21678.6
515.297	22131.2
515.499	22114.82
515.701	22493.69
515.904	22827.51
516.106	22966.77
516.308	23218.68
516.51	23570.93
516.712	23730.67
516.914	23953.9
517.116	23785.96
517.318	24091.11
517.52	24541.66
517.722	24465.89
517.925	24949.21
518.127	25352.66
518.329	25694.67
518.531	25305.56
518.733	26104.26
518.935	26108.36
519.136	26276.29
519.338	26864.06
519.54	27150.78
519.742	27048.38
519.944	27079.1
520.146	27873.71
520.348	27695.53
520.55	27984.3
520.752	28152.23
520.954	28608.93
521.155	28619.17
521.357	29125.02
521.559	29223.32
521.761	29497.75
521.963	29657.49
522.164	29460.88
522.366	30196.1
522.568	30161.29
522.77	30589.31
522.971	31017.34
523.173	30953.85
523.375	31312.25
523.576	31388.02
523.778	31068.54
523.98	31754.61
524.181	31906.16
524.383	32395.62
524.584	32309.61
524.786	32196.97
524.988	32508.26
525.189	32682.34
525.391	32917.86
525.592	33501.53
525.794	33268.06
525.995	33331.54
526.197	33546.58
526.398	33442.14
526.6	34105.68
526.801	34015.57
527.003	34560.33
527.204	34287.95
527.406	34605.38
527.607	34552.13
527.808	35021.12
528.01	34222.41
528.211	34853.19
528.412	35213.63
528.614	35168.57
528.815	35307.83
529.016	35649.85
529.218	35436.86
529.419	35615.03
529.62	35782.96
529.822	35750.2
530.023	35670.33
530.224	35860.79
530.425	35717.43
530.626	35713.33
530.828	35649.85
531.029	36305.2
531.23	35825.97
531.431	36108.59
531.632	36501.8
531.833	36493.61
532.035	36442.41
532.236	36276.52
532.437	36399.4
532.638	36264.24
532.839	36487.46
533.04	36401.45
533.241	36231.47
533.442	36852
533.643	36763.94
533.844	36616.49
534.045	36659.49
534.246	36643.11
534.447	36952.35
534.648	36749.6
534.849	36784.42
535.05	36657.45
535.251	37214.49
535.451	36829.48
535.652	37237.02
535.853	36911.39
536.054	37118.24
536.255	37374.24
536.456	36423.98
536.657	37540.12
536.857	37265.69
537.058	36542.76
537.259	37323.04
537.46	36886.82
537.66	36944.16
537.861	37114.14
538.062	37343.52
538.263	37138.72
538.463	36929.83
538.664	37167.39
538.865	37245.21
539.065	37173.53
539.266	37136.67
539.466	37615.9
539.667	36372.78
539.868	37667.09
540.068	37353.76
540.269	36770.08
540.469	37280.03
540.67	36976.93
540.87	37280.03
541.071	37374.24
541.271	37341.47
541.472	36954.4
541.672	36614.44
541.873	37204.25
542.073	36313.39
542.274	37675.29
542.474	37144.86
542.675	36706.6
542.875	37208.35
543.075	37069.09
543.276	36614.44
543.476	37488.92
543.676	36596.01
543.877	37259.55
544.077	37224.73
544.277	36587.82
544.478	36854.05
544.678	37284.12
544.878	37277.98
545.078	36919.59
545.279	36821.28
545.479	36753.7
545.679	37087.52
545.879	37153.05
546.079	36720.93
546.28	36518.18
546.48	36901.15
546.68	37134.62
546.88	37232.93
547.08	37320.99
547.28	36944.16
547.48	36649.25
547.68	37384.47
547.88	37091.62
548.081	37044.51
548.281	37179.68
548.481	36917.54
548.681	37017.89
548.881	36841.76
549.081	36874.53
549.28	36694.31
549.48	37200.16
549.68	36929.83
549.88	37380.38
550.08	36882.72
550.28	36935.97
550.48	37097.76
550.68	37079.33
550.88	37099.81
551.08	36843.81
551.279	37083.42
551.479	36626.73
551.679	36794.66
551.879	36747.56
552.079	36872.48
552.278	36634.92
552.478	37050.66
552.678	36983.07
552.878	37044.51
553.077	36985.12
553.277	36557.1
553.477	37099.81
553.676	36942.11
553.876	36770.08
554.076	36725.03
554.275	36587.82
554.475	36170.03
554.674	36686.12
554.874	36780.32
555.074	36559.14
555.273	36673.83
555.473	36849.96
555.672	36516.14
555.872	36389.16
556.071	36860.19
556.271	36843.81
556.47	36466.98
556.67	36270.38
556.869	36198.7
557.068	36798.76
557.268	35854.64
557.467	36210.99
557.667	36000.05
557.866	36067.63
558.065	36372.78
558.265	35623.22
558.464	35711.28
558.663	36055.34
558.863	35582.26
559.062	35942.7
559.261	35455.29
559.461	36067.63
559.66	35318.07
559.859	35809.59
560.058	35768.63
560.258	35453.24
560.457	35326.27
560.656	35481.91
560.855	35285.31
561.054	35596.6
561.253	35146.05
561.453	35201.34
561.652	35252.54
561.851	35545.4
562.05	35100.99
562.249	35301.69
562.448	35193.15
562.647	34847.04
562.846	34672.96
563.045	35096.89
563.244	34654.53
563.443	35041.6
563.642	34593.09
563.841	34609.48
564.04	34836.8
564.239	34971.97
564.438	34488.65
564.637	34572.61
564.836	34863.43
565.035	34652.48
565.234	34525.51
565.432	34472.26
565.631	33937.74
565.83	34324.81
566.029	34013.52
566.228	34240.84
566.427	33970.51
566.625	33657.17
566.824	33476.95
567.023	34099.53
567.222	33513.81
567.42	33831.25
567.619	33587.54
567.818	33620.31
568.016	33667.41
568.215	33642.84
568.414	33446.23
568.612	33612.12
568.811	33210.71
569.01	32960.86
569.208	32971.1
569.407	33296.73
569.605	32794.98
569.804	33296.73
570.002	32811.36
570.201	33235.29
570.4	32481.64
570.598	32842.08
570.797	32340.33
570.995	32608.61
571.193	32100.72
571.392	32751.97
571.59	32078.19
571.789	32223.59
571.987	32088.43
572.186	32375.14
572.384	31504.76
572.582	32026.99
572.781	31943.02
572.979	31730.03
573.177	31500.66
573.376	31545.72
573.574	31349.11
573.772	31873.39
573.971	31377.78
574.169	31191.42
574.367	31025.53
574.565	30998.91
574.763	30816.64
574.962	31113.59
575.16	30665.09
575.358	30794.11
575.556	30587.27
575.754	30654.85
575.952	30083.47
576.151	30658.95
576.349	30396.81
576.547	30110.09
576.745	30515.59
576.943	30325.13
577.141	29983.12
577.339	30036.36
577.537	29850
577.735	29942.16
577.933	29456.79
578.131	29823.37
578.329	29456.79
578.527	29557.14
578.725	29133.21
578.923	29512.08
579.121	29522.32
579.319	29219.22
579.516	29319.57
579.714	28772.77
579.912	28963.23
580.11	28821.92
580.308	28950.94
580.506	28629.41
580.704	28606.88
580.901	28676.51
581.099	28676.51
581.297	28199.34
581.495	28316.07
581.692	28576.16
581.89	28195.24
582.088	28080.55
582.285	27908.52
582.483	28168.62
582.681	27929
582.878	27836.84
583.076	27681.2
583.274	27892.14
583.471	27107.77
583.669	27324.85
583.866	27310.52
584.064	27654.58
584.262	27324.85
584.459	27310.52
584.657	27437.49
584.854	27244.98
585.052	26597.82
585.249	26814.91
585.447	26925.5
585.644	26309.06
585.841	26968.51
586.039	26913.21
586.236	26163.65
586.434	26366.4
586.631	26378.69
586.828	26292.68
587.026	26298.82
587.223	26153.41
587.42	25747.92
587.618	26022.34
587.815	25973.19
588.012	25842.12
588.21	25668.05
588.407	26051.02
588.604	25633.23
588.801	25266.64
588.999	25600.46
589.196	25385.43
589.393	25407.95
589.59	25045.46
589.787	25022.94
589.984	25262.55
590.182	24689.12
590.379	24945.11
590.576	24826.33
590.773	24830.43
590.97	24580.57
591.167	25125.33
591.364	24527.33
591.561	24732.12
591.758	24414.69
591.955	24660.45
592.152	24396.26
592.349	24230.37
592.546	24111.59
592.743	24326.63
592.94	23804.39
593.137	23853.55
593.334	24142.31
593.531	23734.76
593.727	23704.04
593.924	23753.19
594.121	23566.83
594.318	24005.1
594.515	23286.26
594.712	23482.86
594.908	23560.69
595.105	23196.15
595.302	23611.89
595.499	23116.28
595.696	23112.18
595.892	22921.72
596.089	23245.3
596.286	22958.58
596.482	22743.55
596.679	22907.38
596.876	23077.37
597.072	22397.44
597.269	22780.41
597.466	22393.34
597.662	22481.41
597.859	22716.92
598.055	22428.16
598.252	22270.47
598.448	22352.38
598.645	22223.36
598.841	21950.98
599.038	22180.35
599.234	21932.55
599.431	21887.5
599.627	21727.75
599.824	21901.83
600.02	21594.64
600.217	21455.37
600.413	21568.01
600.609	21432.85
600.806	21428.75
601.002	21608.97
601.198	21604.88
601.395	21256.72
601.591	20918.81
601.787	20863.51
601.984	20910.61
602.18	21266.96
602.376	20951.57
602.572	20519.45
602.769	20865.56
602.965	20689.43
603.161	20591.13
603.357	20537.88
603.553	20568.6
603.75	20378.14
603.946	20189.73
604.142	20496.92
604.338	20214.3
604.534	20032.04
604.73	20048.42
604.926	19798.57
605.122	20087.33
605.318	19989.03
605.514	19763.75
605.71	19663.4
605.906	19540.52
606.102	19874.34
606.298	19358.25
606.494	19565.1
606.69	19427.88
606.886	19335.73
607.082	19315.25
607.278	19409.45
607.474	19114.55
607.67	19354.16
607.866	19137.07
608.062	19259.95
608.257	18889.27
608.453	19227.18
608.649	19079.73
608.845	18963
609.041	18885.17
609.236	18907.7
609.432	18805.3
609.628	18573.88
609.824	18784.82
610.019	18336.32
610.215	18623.03
610.411	18528.83
610.606	18367.04
610.802	18309.69
610.998	18270.78
611.193	18326.08
611.389	18166.34
611.584	18219.58
611.78	18201.15
611.976	17910.34
612.171	18211.39
612.367	18137.66
612.562	17654.34
612.758	17662.54
612.953	17750.6
613.149	17891.91
613.344	17857.09
613.539	17795.65
613.735	17615.43
613.93	17539.66
614.126	17650.25
614.321	17740.36
614.517	17513.03
614.712	17410.64
614.907	17214.03
615.103	17461.83
615.298	17250.89
615.493	17519.18
615.688	16900.69
615.884	17588.81
616.079	17054.29
616.274	17203.79
616.47	16890.45
616.665	16943.7
616.86	16908.88
617.055	16849.49
617.25	16869.97
617.445	16765.53
617.641	16468.57
617.836	16974.42
618.031	16632.41
618.226	16695.89
618.421	16527.96
618.616	16704.09
618.811	16425.56
619.006	16472.67
619.201	16204.38
619.396	16061.02
619.591	16128.61
619.786	15975.01
619.981	16044.64
620.176	15819.36
620.371	15585.9
620.566	15692.39
620.761	15811.17
620.956	15635.05
621.151	15323.76
621.346	15657.57
621.541	15381.1
621.735	15110.77
621.93	15350.38
622.125	15362.67
622.32	15049.33
622.515	15297.13
622.709	15098.48
622.904	14779
623.099	14883.44
623.294	14785.14
623.488	14631.54
623.683	14807.67
623.878	14422.65
624.072	14416.51
624.267	14418.55
624.462	14373.5
624.656	14338.68
624.851	14445.18
625.046	14070.4
625.24	13867.65
625.435	14008.96
625.629	13873.79
625.824	13830.79
626.018	13822.59
626.213	13238.92
626.407	13644.42
626.602	13539.97
626.796	13355.66
626.991	13331.08
627.185	13163.15
627.38	13292.17
627.574	13099.66
627.768	12810.9
627.963	12952.21
628.157	12839.57
628.352	12851.86
628.546	12585.62
628.74	12593.81
628.935	12597.91
629.129	12630.68
629.323	12534.42
629.517	12436.12
629.712	12647.06
629.906	12317.34
630.1	12165.79
630.294	12399.26
630.489	12196.51
630.683	12137.12
630.877	11895.46
631.071	12104.35
631.265	12030.62
631.459	11772.58
631.653	11547.3
631.848	11713.19
632.042	11598.5
632.236	11553.45
632.43	11535.01
632.624	11463.33
632.818	11242.15
633.012	11219.63
633.206	11274.92
633.4	10963.63
633.594	11129.52
633.788	10861.23
633.982	11133.61
634.176	11057.84
634.369	10891.95
634.563	10863.28
634.757	10699.44
634.951	10832.56
635.145	10726.07
635.339	10828.46
635.533	10525.36
635.726	10664.63
635.92	10529.46
636.114	10500.79
636.308	10373.82
636.501	10492.6
636.695	10140.35
636.889	10152.63
637.083	10013.37
637.276	10136.25
637.47	9837.25
637.664	10009.28
637.857	9837.25
638.051	9894.59
638.244	9951.93
638.438	9759.42
638.632	10029.76
638.825	9804.48
639.019	9597.63
639.212	9736.9
639.406	9525.96
639.599	9628.35
639.793	9564.87
639.986	9196.23
640.18	9439.94
640.373	9247.43
640.567	9093.83
640.76	9214.66
640.954	9124.55
641.147	9028.3
641.34	9136.84
641.534	8960.72
641.727	8893.13
641.92	8829.65
642.114	8813.26
642.307	8876.75
642.5	8727.25
642.694	8708.82
642.887	8651.47
643.08	8708.82
643.273	8442.58
643.467	8352.47
643.66	8420.05
643.853	8506.07
644.046	8362.71
644.239	8278.74
644.432	8145.63
644.626	8315.61
644.819	8045.27
645.012	8250.07
645.205	7934.68
645.398	7908.06
645.591	8049.37
645.784	7727.84
645.977	7820
646.17	7723.74
646.363	7635.68
646.556	7631.58
646.749	7510.75
646.942	7701.22
647.135	7598.82
647.328	7506.66
647.521	7361.25
647.714	7357.16
647.907	7596.77
648.099	7185.13
648.292	7289.57
648.485	7269.09
648.678	7146.22
648.871	7084.78
649.064	7031.53
649.256	7103.21
649.449	7078.63
649.642	6912.75
649.835	6980.33
650.027	6775.53
650.22	6927.08
650.413	6785.77
650.605	6685.42
650.798	6720.24
650.991	6611.7
651.183	6597.36
651.376	6685.42
651.568	6601.46
651.761	6621.94
651.954	6433.52
652.146	6337.27
652.339	6425.33
652.531	6320.88
652.724	6359.8
652.916	6140.66
653.109	6275.83
653.301	6195.96
653.494	6339.32
653.686	6028.03
653.879	6216.44
654.071	6056.7
654.263	6058.74
654.456	6107.9
654.648	6193.91
654.84	5878.52
655.033	5978.87
655.225	5911.29
655.417	5880.57
655.61	5763.84
655.802	5765.89
655.994	5620.48
656.186	5808.89
656.379	5561.09
656.571	5661.44
656.763	5649.15
656.955	5679.87
657.148	5661.44
657.34	5714.69
657.532	5493.51
657.724	5522.18
657.916	5339.91
658.108	5417.73
658.3	5374.72
658.492	5319.43
658.684	5327.62
658.876	5325.57
659.068	5253.89
659.26	5116.68
659.452	5282.56
659.644	5057.29
659.836	4987.66
660.028	5014.28
660.22	5063.43
660.412	4877.07
660.604	4889.35
660.796	4965.13
660.988	4813.58
661.18	4795.15
661.372	4786.96
661.563	5012.23
661.755	4616.97
661.947	4690.7
662.139	4752.14
662.331	4629.26
662.522	4604.69
662.714	4541.2
662.906	4436.75
663.097	4541.2
663.289	4391.7
663.481	4496.14
663.673	4346.64
663.864	4377.36
664.056	4324.12
664.247	4307.73
664.439	4193.05
664.631	4367.12
664.822	4309.78
665.014	4252.44
665.205	4283.16
665.397	4156.18
665.588	4168.47
665.78	4111.13
665.971	4053.78
666.163	4033.3
666.354	4027.16
666.546	3959.58
666.737	4041.5
666.929	4129.56
667.12	3914.52
667.311	4078.36
667.503	3867.42
667.694	3887.9
667.885	3861.27
668.077	3910.43
668.268	3767.07
668.459	3902.23
668.651	3660.57
668.842	3783.45
669.033	3857.18
669.224	3726.11
669.416	3762.97
669.607	3681.05
669.798	3660.57
669.989	3711.77
670.18	3674.91
670.371	3773.21
670.563	3636
670.754	3603.23
670.945	3423.01
671.136	3554.08
671.327	3615.52
671.518	3517.22
671.709	3576.61
671.9	3529.5
672.091	3480.35
672.282	3459.87
672.473	3590.94
672.664	3582.75
672.855	3429.15
673.046	3361.57
673.237	3488.54
673.428	3461.92
673.619	3308.32
673.809	3394.34
674	3345.19
674.191	3324.71
674.382	3279.65
674.573	3494.69
674.764	3230.5
674.954	3302.18
675.145	3308.32
675.336	3037.99
675.527	3232.55
675.717	3269.41
675.908	3173.16
676.099	3164.97
676.289	3261.22
676.48	3220.26
676.671	3177.25
676.861	3091.24
677.052	3099.43
677.243	3060.52
677.433	3128.1
677.624	3101.48
677.814	3035.94
678.005	3021.61
678.195	3138.34
678.386	3074.85
678.576	3111.72
678.767	3035.94
678.957	2962.22
679.148	3173.16
679.338	3023.66
679.529	3025.7
679.719	2888.49
679.909	2997.03
680.1	2951.98
680.29	2900.78
680.481	2917.16
680.671	2941.74
680.861	3023.66
681.052	3007.27
681.242	2937.64
681.432	2831.15
681.622	2853.67
681.813	2755.37
682.003	2921.26
682.193	2833.19
682.383	2806.57
682.573	2812.71
682.764	2818.86
682.954	2812.71
683.144	2847.53
683.334	2695.98
683.524	2822.95
683.714	2882.35
683.904	2775.85
684.094	2777.9
684.284	2745.13
684.474	2816.81
684.664	2724.65
684.854	2671.4
685.044	2777.9
685.234	2661.16
685.424	2738.99
685.614	2806.57
685.804	2716.46
685.994	2771.76
686.184	2681.64
686.374	2712.36
686.564	2738.99
686.753	2710.32
686.943	2620.21
687.133	2700.08
687.323	2714.41
687.513	2657.07
687.702	2644.78
687.892	2698.03
688.082	2591.53
688.272	2622.25
688.461	2622.25
688.651	2673.45
688.841	2560.81
689.03	2579.25
689.22	2657.07
689.41	2747.18
689.599	2581.29
689.789	2575.15
689.979	2650.92
690.168	2626.35
690.358	2585.39
690.547	2648.88
690.737	2595.63
690.926	2573.1
691.116	2517.81
691.305	2521.9
691.495	2482.99
691.684	2523.95
691.874	2573.1
692.063	2755.37
692.252	2511.66
692.442	2583.34
692.631	2562.86
692.82	2530.09
693.01	2505.52
693.199	2532.14
693.388	2468.66
693.578	2491.18
693.767	2612.01
693.956	2499.38
694.146	2521.9
694.335	2442.03
694.524	2485.04
694.713	2485.04
694.902	2485.04
695.092	2411.31
695.281	2466.61
695.47	2513.71
695.659	2460.46
695.848	2388.78
696.037	2360.11
696.226	2487.09
696.415	2378.55
696.604	2497.33
696.793	2464.56
696.982	2415.41
697.171	2429.74
697.36	2446.13
697.549	2472.75
697.738	2458.42
697.927	2421.55
698.116	2464.56
698.305	2511.66
698.494	2491.18
698.683	2386.74
698.872	2466.61
699.061	2507.57
699.25	2298.67
699.438	2409.26
699.627	2501.42
699.816	2448.18
700.005	2386.74
700.193	2448.18
700.382	2409.26
700.571	2442.03
700.76	2396.98
700.948	2376.5
701.137	2421.55
701.326	2476.85
701.514	2407.22
701.703	2401.07
701.892	2374.45
702.08	2384.69
702.269	2331.44
702.457	2329.39
702.646	2353.97
702.834	2282.29
703.023	2308.91
703.212	2448.18
703.4	2298.67
703.589	2376.5
703.777	2267.95
703.965	2362.16
704.154	2313.01
704.342	2280.24
704.531	2243.38
704.719	2382.64
704.907	2171.7
705.096	2306.87
705.284	2263.86
705.472	2171.7
705.661	2124.6
705.849	2167.6
706.037	2335.54
706.226	2216.76
706.414	2296.63
706.602	2278.19
706.79	2095.93
706.979	2198.32
707.167	2220.85
707.355	2089.78
707.543	2143.03
707.731	2257.71
707.919	2077.49
708.107	2163.51
708.296	2196.28
708.484	2048.82
708.672	2104.12
708.86	2065.21
709.048	2157.36
709.236	2114.36
709.424	2116.41
709.612	2091.83
709.8	1985.34
709.988	2065.21
710.176	2057.01
710.364	2020.15
710.551	2138.93
710.739	2163.51
710.927	2054.97
711.115	2120.5
711.303	2124.6
711.491	1979.19
711.679	2034.49
711.866	2048.82
712.054	2007.86
712.242	1993.53
712.43	2042.68
712.617	1968.95
712.805	2003.77
712.993	1938.23
713.181	2030.39
713.368	1868.6
713.556	1915.7
713.744	1946.42
713.931	1995.57
714.119	1913.66
714.306	1985.34
714.494	1897.27
714.682	1860.41
714.869	1850.17
715.057	1975.1
715.244	1927.99
715.432	1962.81
715.619	1805.11
715.807	1850.17
715.994	1897.27
716.182	1743.67
716.369	1930.04
716.556	1852.22
716.744	1833.79
716.931	1706.81
717.119	1850.17
717.306	1897.27
717.493	1790.78
717.681	1760.06
717.868	1805.11
718.055	1672
718.242	1690.43
718.43	1749.82
718.617	1698.62
718.804	1715
718.991	1667.9
719.179	1792.83
719.366	1559.36
719.553	1696.57
719.74	1698.62
719.927	1637.18
720.114	1676.09
720.301	1672
720.488	1608.51
720.676	1651.52
720.863	1721.15
721.05	1588.03
721.237	1678.14
721.424	1653.56
721.611	1645.37
721.798	1536.83
721.985	1549.12
722.172	1635.13
722.358	1579.84
722.545	1579.84
722.732	1536.83
722.919	1432.38
723.106	1661.76
723.293	1557.31
723.48	1483.58
723.667	1528.64
723.853	1442.62
724.04	1534.78
724.227	1518.4
724.414	1432.38
724.6	1542.97
724.787	1545.02
724.974	1467.2
725.161	1534.78
725.347	1520.45
725.534	1555.26
725.72	1395.52
725.907	1418.05
726.094	1409.86
726.28	1393.47
726.467	1469.25
726.653	1416
726.84	1442.62
727.027	1493.82
727.213	1395.52
727.4	1405.76
727.586	1336.13
727.773	1395.52
727.959	1397.57
728.145	1422.14
728.332	1463.1
728.518	1307.46
728.705	1491.77
728.891	1332.03
729.077	1372.99
729.264	1250.11
729.45	1336.13
729.636	1444.67
729.823	1403.71
730.009	1266.5
730.195	1295.17
730.382	1360.7
730.568	1438.53
730.754	1280.83
730.94	1264.45
731.126	1350.46
731.313	1276.74
731.499	1393.47
731.685	1289.03
731.871	1385.28
732.057	1260.35
732.243	1256.26
732.429	1358.66
732.615	1284.93
732.801	1160
732.987	1262.4
733.173	1250.11
733.359	1213.25
733.545	1301.31
733.731	1231.68
733.917	1327.94
734.103	1192.77
734.289	1241.92
734.475	1233.73
734.661	1250.11
734.847	1184.58
735.033	1270.59
735.219	1121.09
735.404	1278.79
735.59	1143.62
735.776	1139.52
735.962	1243.97
736.148	1264.45
736.333	1258.31
736.519	1153.86
736.705	1084.23
736.89	1153.86
737.076	1276.74
737.262	1196.87
737.447	1145.67
737.633	1139.52
737.819	1211.2
738.004	1008.45
738.19	1168.2
738.375	1082.18
738.561	1141.57
738.747	1082.18
738.932	1043.27
739.118	1106.76
739.303	1096.52
739.489	1096.52
739.674	1053.51
739.859	1030.98
740.045	1065.8
740.23	1092.42
740.416	1073.99
740.601	1067.85
740.786	1043.27
740.972	1100.61
741.157	1073.99
741.342	1016.65
741.528	1002.31
741.713	1004.36
741.898	901.96
742.084	1016.65
742.269	971.59
742.454	1084.23
742.639	1076.04
742.824	1143.62
743.01	1018.69
743.195	1026.89
743.38	951.11
743.565	1043.27
743.75	996.17
743.935	1106.76
744.12	1035.08
744.305	1010.5
744.49	973.64
744.675	977.73
744.86	887.62
745.045	994.12
745.23	928.58
745.415	996.17
745.6	895.82
745.785	932.68
745.97	963.4
746.155	928.58
746.34	889.67
746.525	897.86
746.71	949.06
746.895	973.64
747.079	951.11
747.264	807.75
747.449	875.34
747.634	842.57
747.819	861
748.003	908.1
748.188	834.38
748.373	940.87
748.557	777.03
748.742	836.42
748.927	817.99
749.111	856.9
749.296	779.08
749.481	924.49
749.665	779.08
749.85	867.14
750.034	813.9
750.219	795.47
750.404	826.18
750.588	758.6
750.773	801.61
750.957	777.03
751.141	807.75
751.326	779.08
751.51	717.64
751.695	785.23
751.879	785.23
752.064	791.37
752.248	742.22
752.432	738.12
752.617	764.75
752.801	672.59
752.985	791.37
753.17	746.31
753.354	758.6
753.538	719.69
753.722	772.94
753.907	695.11
754.091	662.35
754.275	701.26
754.459	627.53
754.643	590.67
754.828	727.88
755.012	740.17
755.196	629.58
755.38	682.83
755.564	684.87
755.748	664.4
755.932	605
756.116	664.4
756.3	588.62
756.484	623.44
756.668	695.11
756.852	627.53
757.036	611.15
757.22	607.05
757.404	594.76
757.588	629.58
757.772	564.04
757.956	619.34
758.14	656.2
758.323	574.28
758.507	633.68
758.691	607.05
758.875	623.44
759.059	613.2
759.242	531.28
759.426	553.8
759.61	582.48
759.794	586.57
759.977	500.56
760.161	641.87
760.345	594.76
760.528	543.57
760.712	629.58
760.895	617.29
761.079	537.42
761.263	568.14
761.446	547.66
761.63	574.28
761.813	605
761.997	555.85
762.18	498.51
762.364	557.9
762.547	525.13
762.731	424.78
762.914	547.66
763.098	502.61
763.281	463.69
763.464	543.57
763.648	580.43
763.831	482.13
764.015	535.37
764.198	545.61
764.381	525.13
764.564	518.99
764.748	484.17
764.931	590.67
765.114	572.24
765.297	482.13
765.481	508.75
765.664	510.8
765.847	422.73
766.03	541.52
766.213	559.95
766.397	527.18
766.58	523.09
766.763	537.42
766.946	480.08
767.129	527.18
767.312	508.75
767.495	521.04
767.678	453.45
767.861	486.22
768.044	576.33
768.227	514.89
768.41	449.36
768.593	461.65
768.776	463.69
768.959	410.45
769.142	490.32
769.324	498.51
769.507	547.66
769.69	510.8
769.873	469.84
770.056	471.89
770.239	484.17
770.421	502.61
770.604	449.36
770.787	486.22
770.97	471.89
771.152	480.08
771.335	459.6
771.518	385.87
771.7	414.54
771.883	467.79
772.066	353.1
772.248	441.17
772.431	441.17
772.613	439.12
772.796	355.15
772.978	445.26
773.161	430.93
773.343	441.17
773.526	351.06
773.708	385.87
773.891	451.41
774.073	469.84
774.256	461.65
774.438	469.84
774.621	422.73
774.803	369.49
774.985	455.5
775.168	459.6
775.35	451.41
775.532	396.11
775.715	342.86
775.897	400.21
776.079	445.26
776.261	398.16
776.444	338.77
776.626	369.49
776.808	420.69
776.99	404.3
777.173	416.59
777.355	303.95
777.537	379.73
777.719	420.69
777.901	361.3
778.083	281.43
778.265	330.58
778.447	351.06
778.629	353.1
778.811	363.34
778.993	328.53
779.175	310.1
779.357	285.52
779.539	334.67
779.721	328.53
779.903	314.19
780.085	332.62
780.267	365.39
780.449	312.14
780.631	338.77
780.812	412.5
780.994	328.53
781.176	306
781.358	236.37
781.54	281.43
781.721	285.52
781.903	262.99
782.085	324.43
782.267	297.81
782.448	344.91
782.63	295.76
782.812	312.14
782.993	435.02
783.175	283.47
783.357	293.71
783.538	295.76
783.72	330.58
783.901	213.84
784.083	316.24
784.264	318.29
784.446	236.37
784.627	265.04
784.809	279.38
784.99	340.82
785.172	275.28
785.353	252.75
785.535	248.66
785.716	289.62
785.897	289.62
786.079	322.38
786.26	262.99
786.441	326.48
786.623	125.78
786.804	211.79
786.985	224.08
787.167	183.12
787.348	326.48
787.529	222.03
787.71	293.71
787.891	230.23
788.073	226.13
788.254	205.65
788.435	187.22
788.616	189.27
788.797	217.94
788.978	195.41
789.159	209.75
789.34	164.69
789.522	271.19
789.703	219.99
789.884	197.46
790.065	189.27
790.246	254.8
790.427	207.7
790.607	273.23
790.788	181.07
790.969	193.36
791.15	217.94
791.331	172.88
791.512	156.5
791.693	119.64
791.874	219.99
792.054	158.55
792.235	232.27
792.416	170.83
792.597	179.03
792.778	228.18
792.958	211.79
793.139	269.14
793.32	226.13
793.5	172.88
793.681	152.4
793.862	213.84
794.042	150.36
794.223	154.45
794.404	230.23
794.584	172.88
794.765	107.35
794.945	246.61
795.126	222.03
795.306	213.84
795.487	215.89
795.667	187.22
795.848	148.31
796.028	260.95
796.209	185.17
796.389	154.45
796.57	187.22
796.75	131.92
796.93	185.17
797.111	166.74
797.291	154.45
797.471	197.46
797.652	148.31
797.832	185.17
798.012	189.27
798.192	115.54
798.373	146.26
798.553	156.5
798.733	115.54
798.913	156.5
799.093	158.55
799.274	170.83
799.454	80.72
799.634	111.44
799.814	158.55
799.994	131.92
800.174	168.79
800.354	158.55
800.534	172.88
800.714	183.12
800.894	86.87
801.074	152.4
801.254	140.12
801.434	179.03
801.614	101.2
801.794	129.88
801.974	461.65
802.154	70.48
802.334	148.31
802.514	123.73
802.693	119.64
802.873	148.31
803.053	113.49
803.233	144.21
803.413	164.69
803.592	103.25
803.772	99.16
803.952	129.88
804.131	86.87
804.311	181.07
804.491	84.82
804.67	158.55
804.85	150.36
805.03	82.77
805.209	168.79
805.389	127.83
805.568	164.69
805.748	93.01
805.928	115.54
806.107	80.72
806.287	115.54
806.466	97.11
806.646	129.88
806.825	129.88
807.004	60.24
807.184	170.83
807.363	109.4
807.543	31.57
807.722	115.54
807.901	90.96
808.081	150.36
808.26	39.76
808.439	115.54
808.619	127.83
808.798	113.49
808.977	80.72
809.156	156.5
809.336	138.07
809.515	117.59
809.694	62.29
809.873	82.77
810.052	54.1
810.231	170.83
810.411	125.78
810.59	138.07
810.769	99.16
810.948	127.83
811.127	105.3
811.306	105.3
811.485	74.58
811.664	133.97
811.843	90.96
812.022	154.45
812.201	95.06
812.38	148.31
812.559	105.3
812.737	138.07
812.916	82.77
813.095	129.88
813.274	88.92
813.453	54.1
813.632	105.3
813.811	138.07
813.989	64.34
814.168	99.16
814.347	80.72
814.526	82.77
814.704	60.24
814.883	64.34
815.062	78.68
815.24	174.93
815.419	99.16
815.598	95.06
815.776	66.39
815.955	99.16
816.133	64.34
816.312	103.25
816.49	19.29
816.669	84.82
816.847	142.16
817.026	35.67
817.204	68.44
817.383	25.43
817.561	0.85
817.74	70.48
817.918	109.4
818.097	78.68
818.275	86.87
818.453	56.15
818.632	76.63
818.81	160.59
818.988	50
819.167	95.06
819.345	54.1
819.523	111.44
819.701	74.58
819.879	39.76
820.058	66.39
820.236	105.3
820.414	107.35
820.592	-29.87
820.77	45.91
820.948	50
821.127	121.68
821.305	129.88
821.483	80.72
821.661	140.12
821.839	99.16
822.017	72.53
822.195	70.48
822.373	101.2
822.551	50
822.729	111.44
822.907	19.29
823.085	45.91
823.262	64.34
823.44	19.29
823.618	70.48
823.796	111.44
823.974	64.34
824.152	72.53
824.329	76.63
824.507	41.81
824.685	154.45
824.863	74.58
825.04	54.1
825.218	66.39
825.396	50
825.574	111.44
825.751	31.57
825.929	129.88
826.107	76.63
826.284	35.67
826.462	76.63
826.639	88.92
826.817	86.87
826.994	88.92
827.172	29.52
827.349	152.4
827.527	95.06
827.704	60.24
827.882	84.82
828.059	27.48
828.237	-42.15
828.414	11.09
828.591	88.92
828.769	72.53
828.946	39.76
829.124	113.49
829.301	183.12
829.478	97.11
829.655	127.83
829.833	90.96
830.01	-11.43
830.187	-1.19
830.364	82.77
830.542	86.87
830.719	86.87
830.896	35.67
831.073	29.52
831.25	88.92
831.427	31.57
831.604	117.59
831.782	11.09
831.959	99.16
832.136	90.96
832.313	15.19
832.49	0.85
832.667	31.57
832.844	93.01
833.021	41.81
833.198	111.44
833.374	66.39
833.551	95.06
833.728	0.85
833.905	90.96
834.082	56.15
834.259	105.3
834.436	56.15
834.612	113.49
834.789	17.24
834.966	39.76
835.143	131.92
835.319	9.05
835.496	97.11
835.673	56.15
835.85	41.81
836.026	54.1
836.203	72.53
836.38	41.81
836.556	41.81
836.733	11.09
836.909	56.15
837.086	33.62
837.262	95.06
837.439	66.39
837.616	64.34
837.792	60.24
837.968	45.91
838.145	43.86
838.321	50
838.498	127.83
838.674	7
838.851	27.48
839.027	-7.34
839.203	74.58
839.38	35.67
839.556	43.86
839.732	66.39
839.909	41.81
840.085	121.68
840.261	52.05
840.437	107.35
840.614	50
840.79	70.48
840.966	146.26
841.142	64.34
841.318	47.96
841.494	35.67
841.671	76.63
841.847	15.19
842.023	62.29
842.199	11.09
842.375	76.63
842.551	54.1
842.727	-5.29
842.903	27.48
843.079	25.43
843.255	19.29
843.431	56.15
843.607	103.25
843.783	31.57
843.959	99.16
844.134	68.44
844.31	76.63
844.486	-15.53
844.662	43.86
844.838	-5.29
845.013	76.63
845.189	50
845.365	45.91
845.541	80.72
845.716	29.52
845.892	-23.72
846.068	37.72
846.244	43.86
846.419	25.43
846.595	76.63
846.77	68.44
846.946	-23.72
847.122	-1.19
847.297	25.43
847.473	31.57
847.648	74.58
847.824	0.85
847.999	-31.91
848.175	-31.91
848.35	7
848.526	66.39
848.701	47.96
848.876	41.81
849.052	-19.63
849.227	23.38
849.403	62.29
849.578	21.33
849.753	47.96
849.929	113.49
850.104	-17.58
850.279	23.38
850.454	33.62
850.63	68.44
850.805	9.05
850.98	68.44
851.155	35.67
851.33	158.55
851.505	56.15
851.681	97.11
851.856	9.05
852.031	43.86
852.206	76.63
852.381	19.29
852.556	21.33
852.731	54.1
852.906	15.19
853.081	-3.24
853.256	4.95
853.431	19.29
853.606	25.43
853.781	29.52
853.956	-7.34
854.131	-3.24
854.305	0.85
854.48	25.43
854.655	35.67
854.83	33.62
855.005	43.86
855.18	-21.67
855.354	39.76
855.529	31.57
855.704	-13.48
855.879	80.72
856.053	0.85
856.228	56.15
856.403	-7.34
856.577	50
856.752	-17.58
856.926	66.39
857.101	29.52
857.276	37.72
857.45	-1.19
857.625	50
857.799	58.2
857.974	45.91
858.148	72.53
858.323	17.24
858.497	0.85
858.672	-17.58
858.846	-5.29
859.02	39.76
859.195	-11.43
859.369	23.38
859.543	-3.24
859.718	-19.63
859.892	9.05
860.066	-36.01
860.241	52.05
860.415	-1.19
860.589	4.95
860.763	33.62
860.938	-11.43
861.112	70.48
861.286	31.57
861.46	103.25
861.634	-17.58
861.808	-25.77
861.982	-33.96
862.157	11.09
862.331	76.63
862.505	58.2
862.679	-60.59
862.853	45.91
863.027	68.44
863.201	29.52
863.375	-60.59
863.549	113.49
863.722	50
863.896	33.62
864.07	17.24
864.244	-13.48
864.418	105.3
864.592	68.44
864.766	7
864.939	-31.91
865.113	60.24
865.287	60.24
865.461	-5.29
865.634	58.2
865.808	-21.67
865.982	21.33
866.156	0.85
866.329	-33.96
866.503	74.58
866.676	76.63
866.85	66.39
867.024	15.19
867.197	56.15
867.371	84.82
867.544	-7.34
867.718	-42.15
867.891	17.24
868.065	33.62
868.238	-21.67
868.412	86.87
868.585	68.44
868.759	21.33
868.932	-11.43
869.105	-31.91
869.279	-9.39
869.452	-21.67
869.625	-25.77
869.799	19.29
869.972	0.85
870.145	-5.29
870.319	27.48
870.492	60.24
870.665	-40.11
870.838	47.96
871.011	2.9
871.185	23.38
871.358	0.85
871.531	2.9
871.704	21.33
871.877	-13.48
872.05	0.85
872.223	15.19
872.396	-9.39
872.569	15.19
872.742	17.24
872.915	27.48
873.088	7
873.261	74.58
873.434	88.92
873.607	21.33
873.78	29.52
873.953	9.05
874.126	25.43
874.299	31.57
874.471	54.1
874.644	21.33
874.817	50
874.99	50
875.163	29.52
875.335	23.38
875.508	37.72
875.681	29.52
875.853	-7.34
876.026	50
876.199	-56.49
876.371	15.19
876.544	23.38
876.717	52.05
876.889	7
877.062	-1.19
877.234	4.95
877.407	47.96
877.579	41.81
877.752	39.76
877.924	70.48
878.097	50
878.269	80.72
878.442	72.53
878.614	2.9
878.786	-23.72
878.959	29.52
879.131	43.86
879.303	11.09
879.476	31.57
879.648	11.09
879.82	0.85
879.993	0.85
880.165	72.53
880.337	47.96
880.509	70.48
880.681	21.33
880.854	52.05
881.026	4.95
881.198	-38.06
881.37	41.81
881.542	45.91
881.714	-46.25
881.886	21.33
882.058	50
882.23	60.24
882.402	-42.15
882.574	-27.82
882.746	29.52
882.918	21.33
883.09	43.86
883.262	11.09
883.434	68.44
883.606	7
883.778	-9.39
883.95	64.34
884.122	35.67
884.293	9.05
884.465	-23.72
884.637	35.67
884.809	0.85
884.98	-42.15
885.152	35.67
885.324	15.19
885.496	-36.01
885.667	33.62
885.839	45.91
886.011	41.81
886.182	-15.53
886.354	35.67
886.525	45.91
886.697	74.58
886.869	64.34
887.04	-17.58
887.212	76.63
887.383	2.9
887.555	-17.58
887.726	-40.11
887.897	-15.53
888.069	-9.39
888.24	-13.48
888.412	76.63
888.583	-7.34
888.754	45.91
888.926	47.96
889.097	17.24
889.268	86.87
889.44	0.85
889.611	17.24
889.782	17.24
889.953	11.09
890.125	88.92
890.296	-13.48
890.467	56.15
890.638	70.48
890.809	19.29
890.98	-33.96
891.151	-36.01
891.323	90.96
891.494	-21.67
891.665	7
891.836	47.96
892.007	21.33
892.178	-1.19
892.349	-5.29
892.52	60.24
892.691	47.96
892.862	-15.53
893.032	25.43
893.203	56.15
893.374	7
893.545	19.29
893.716	80.72
893.887	35.67
894.057	0.85
894.228	54.1
894.399	-25.77
894.57	21.33
894.74	-17.58
894.911	86.87
895.082	99.16
895.253	117.59
895.423	23.38
895.594	33.62
895.764	68.44
895.935	-17.58
896.106	84.82
896.276	0.85
896.447	-19.63
896.617	13.14
896.788	21.33
896.958	-25.77
897.129	-7.34
897.299	15.19
897.47	60.24
897.64	-33.96
897.81	-13.48
897.981	-40.11
898.151	74.58
898.322	-25.77
898.492	21.33
898.662	-21.67
898.832	-13.48
899.003	70.48
899.173	7
899.343	66.39
899.513	19.29
