Data from USB4F104151__170__13-58-52-651.txt Node

Date: Thu Mar 13 13:58:52 EDT 2025
User: louis
Spectrometer: USB4F10415
Trigger mode: 4
Integration Time (sec): 1.000000E-2
Scans to average: 1
Electric dark correction enabled: true
Nonlinearity correction enabled: false
Boxcar width: 0
XAxis mode: Wavelengths
Number of Pixels in Spectrum: 3648
>>>>>Begin Spectral Data<<<<<
178.204	-30.21
178.424	-30.21
178.644	-30.21
178.864	-112.13
179.084	-22.02
179.304	4.61
179.524	39.42
179.744	-22.02
179.964	2.56
180.184	12.8
180.404	-40.45
180.624	-9.73
180.844	-13.82
181.064	-34.3
181.283	33.28
181.503	6.66
181.723	20.99
181.943	-58.88
182.163	-11.78
182.383	55.81
182.602	2.56
182.822	2.56
183.042	82.43
183.262	88.57
183.482	-26.11
183.701	16.9
183.921	16.9
184.141	23.04
184.361	-13.82
184.58	-22.02
184.8	2.56
185.02	-1.54
185.239	4.61
185.459	35.33
185.679	-9.73
185.898	31.23
186.118	45.57
186.338	61.95
186.557	51.71
186.777	37.38
186.997	-19.97
187.216	-30.21
187.436	0.51
187.655	23.04
187.875	8.7
188.095	-46.59
188.314	6.66
188.534	-11.78
188.753	-5.63
188.973	41.47
189.192	-1.54
189.412	47.62
189.631	25.09
189.851	14.85
190.07	-13.82
190.29	10.75
190.509	-5.63
190.729	12.8
190.948	23.04
191.168	64
191.387	47.62
191.607	14.85
191.826	-30.21
192.045	16.9
192.265	-11.78
192.484	18.94
192.704	27.14
192.923	-85.5
193.142	23.04
193.362	-58.88
193.581	70.14
193.8	29.18
194.02	47.62
194.239	61.95
194.458	-26.11
194.678	-60.93
194.897	55.81
195.116	14.85
195.335	-19.97
195.555	-3.58
195.774	-17.92
195.993	-34.3
196.212	2.56
196.432	2.56
196.651	88.57
196.87	4.61
197.089	6.66
197.308	10.75
197.528	-9.73
197.747	37.38
197.966	-3.58
198.185	49.66
198.404	8.7
198.623	-1.54
198.842	4.61
199.062	-60.93
199.281	51.71
199.5	-36.35
199.719	2.56
199.938	127.49
200.157	49.66
200.376	23.04
200.595	10.75
200.814	6.66
201.033	90.62
201.252	23.04
201.471	-7.68
201.69	-38.4
201.909	39.42
202.128	2.56
202.347	51.71
202.566	31.23
202.785	-1.54
203.004	-15.87
203.223	-5.63
203.442	-9.73
203.661	10.75
203.879	39.42
204.098	111.1
204.317	-11.78
204.536	37.38
204.755	47.62
204.974	29.18
205.193	31.23
205.411	18.94
205.63	20.99
205.849	-30.21
206.068	10.75
206.287	6.66
206.505	-28.16
206.724	18.94
206.943	64
207.162	35.33
207.381	2.56
207.599	-24.06
207.818	-60.93
208.037	-15.87
208.255	6.66
208.474	68.09
208.693	57.86
208.911	18.94
209.13	2.56
209.349	-19.97
209.567	-19.97
209.786	20.99
210.005	10.75
210.223	51.71
210.442	23.04
210.661	6.66
210.879	-67.07
211.098	10.75
211.316	20.99
211.535	-19.97
211.753	53.76
211.972	27.14
212.191	12.8
212.409	45.57
212.628	6.66
212.846	-36.35
213.065	6.66
213.283	37.38
213.502	35.33
213.72	78.33
213.938	-34.3
214.157	-32.26
214.375	39.42
214.594	-3.58
214.812	-13.82
215.031	39.42
215.249	2.56
215.467	14.85
215.686	-22.02
215.904	-17.92
216.122	12.8
216.341	-30.21
216.559	27.14
216.778	37.38
216.996	-7.68
217.214	-17.92
217.432	-22.02
217.651	-3.58
217.869	39.42
218.087	94.72
218.306	68.09
218.524	23.04
218.742	-67.07
218.96	4.61
219.179	-13.82
219.397	-11.78
219.615	23.04
219.833	10.75
220.051	-77.31
220.27	-30.21
220.488	-3.58
220.706	45.57
220.924	-38.4
221.142	-1.54
221.36	10.75
221.578	2.56
221.796	68.09
222.015	18.94
222.233	-15.87
222.451	57.86
222.669	-56.83
222.887	72.19
223.105	0.51
223.323	-26.11
223.541	37.38
223.759	61.95
223.977	8.7
224.195	61.95
224.413	-71.17
224.631	-11.78
224.849	-22.02
225.067	41.47
225.285	-30.21
225.503	-13.82
225.721	37.38
225.939	33.28
226.157	20.99
226.375	37.38
226.592	25.09
226.81	64
227.028	-19.97
227.246	70.14
227.464	4.61
227.682	39.42
227.9	-36.35
228.117	-46.59
228.335	47.62
228.553	59.9
228.771	8.7
228.989	35.33
229.206	20.99
229.424	6.66
229.642	100.86
229.86	-58.88
230.077	35.33
230.295	-26.11
230.513	-17.92
230.731	64
230.948	-26.11
231.166	35.33
231.384	29.18
231.601	-22.02
231.819	12.8
232.037	23.04
232.254	23.04
232.472	16.9
232.689	0.51
232.907	0.51
233.125	-5.63
233.342	74.24
233.56	12.8
233.777	0.51
233.995	35.33
234.213	64
234.43	49.66
234.648	51.71
234.865	-13.82
235.083	2.56
235.3	-56.83
235.518	-1.54
235.735	76.29
235.953	-22.02
236.17	-67.07
236.388	76.29
236.605	16.9
236.822	-13.82
237.04	10.75
237.257	43.52
237.475	49.66
237.692	-11.78
237.909	23.04
238.127	43.52
238.344	-17.92
238.562	8.7
238.779	18.94
238.996	80.38
239.214	-50.69
239.431	12.8
239.648	12.8
239.865	47.62
240.083	-22.02
240.3	45.57
240.517	37.38
240.735	-19.97
240.952	-24.06
241.169	29.18
241.386	-36.35
241.603	29.18
241.821	-60.93
242.038	109.05
242.255	10.75
242.472	51.71
242.689	-28.16
242.907	66.05
243.124	41.47
243.341	47.62
243.558	-62.98
243.775	16.9
243.992	8.7
244.209	29.18
244.426	-11.78
244.643	2.56
244.86	10.75
245.078	37.38
245.295	25.09
245.512	23.04
245.729	55.81
245.946	18.94
246.163	51.71
246.38	-42.5
246.597	12.8
246.814	29.18
247.031	-62.98
247.248	59.9
247.464	0.51
247.681	35.33
247.898	25.09
248.115	29.18
248.332	-19.97
248.549	-40.45
248.766	53.76
248.983	45.57
249.2	29.18
249.417	-62.98
249.633	2.56
249.85	35.33
250.067	-26.11
250.284	43.52
250.501	41.47
250.717	86.53
250.934	39.42
251.151	55.81
251.368	25.09
251.585	-50.69
251.801	-30.21
252.018	-5.63
252.235	10.75
252.451	43.52
252.668	-19.97
252.885	25.09
253.102	16.9
253.318	6.66
253.535	-36.35
253.752	45.57
253.968	84.48
254.185	-46.59
254.401	18.94
254.618	39.42
254.835	-5.63
255.051	12.8
255.268	6.66
255.484	10.75
255.701	-5.63
255.917	27.14
256.134	-5.63
256.351	49.66
256.567	-44.54
256.784	66.05
257	74.24
257.217	33.28
257.433	-9.73
257.65	-5.63
257.866	-13.82
258.082	49.66
258.299	-17.92
258.515	6.66
258.732	-60.93
258.948	29.18
259.165	53.76
259.381	-1.54
259.597	12.8
259.814	-22.02
260.03	-9.73
260.246	12.8
260.463	33.28
260.679	43.52
260.895	2.56
261.112	37.38
261.328	-48.64
261.544	53.76
261.761	59.9
261.977	-13.82
262.193	29.18
262.409	10.75
262.626	64
262.842	10.75
263.058	-7.68
263.274	35.33
263.49	8.7
263.707	53.76
263.923	92.67
264.139	68.09
264.355	-36.35
264.571	41.47
264.787	-42.5
265.004	76.29
265.22	10.75
265.436	-50.69
265.652	51.71
265.868	41.47
266.084	-32.26
266.3	23.04
266.516	-5.63
266.732	4.61
266.948	61.95
267.164	70.14
267.38	-7.68
267.596	45.57
267.812	-3.58
268.028	-11.78
268.244	39.42
268.46	-42.5
268.676	6.66
268.892	4.61
269.108	-32.26
269.324	8.7
269.54	31.23
269.756	35.33
269.972	-13.82
270.188	35.33
270.403	20.99
270.619	-11.78
270.835	14.85
271.051	-44.54
271.267	-77.31
271.483	47.62
271.698	64
271.914	92.67
272.13	-91.65
272.346	76.29
272.562	6.66
272.777	18.94
272.993	39.42
273.209	-19.97
273.425	-9.73
273.64	39.42
273.856	-44.54
274.072	6.66
274.287	6.66
274.503	27.14
274.719	18.94
274.934	6.66
275.15	-19.97
275.366	35.33
275.581	-24.06
275.797	49.66
276.012	-17.92
276.228	-19.97
276.444	37.38
276.659	37.38
276.875	16.9
277.09	39.42
277.306	-40.45
277.521	39.42
277.737	-22.02
277.952	45.57
278.168	-1.54
278.383	-15.87
278.599	25.09
278.814	-28.16
279.03	98.81
279.245	102.91
279.461	92.67
279.676	76.29
279.892	33.28
280.107	37.38
280.322	-22.02
280.538	41.47
280.753	-9.73
280.969	-15.87
281.184	-17.92
281.399	37.38
281.615	-22.02
281.83	-3.58
282.045	47.62
282.26	-42.5
282.476	78.33
282.691	20.99
282.906	45.57
283.122	39.42
283.337	64
283.552	-9.73
283.767	-38.4
283.983	47.62
284.198	-3.58
284.413	10.75
284.628	51.71
284.843	35.33
285.058	25.09
285.274	35.33
285.489	-54.78
285.704	45.57
285.919	94.72
286.134	55.81
286.349	14.85
286.564	72.19
286.779	45.57
286.995	18.94
287.21	-32.26
287.425	86.53
287.64	29.18
287.855	12.8
288.07	10.75
288.285	6.66
288.5	27.14
288.715	59.9
288.93	-30.21
289.145	8.7
289.36	-17.92
289.575	68.09
289.79	27.14
290.004	18.94
290.219	-19.97
290.434	-5.63
290.649	41.47
290.864	-36.35
291.079	-26.11
291.294	-26.11
291.509	-50.69
291.724	-9.73
291.938	18.94
292.153	53.76
292.368	0.51
292.583	-38.4
292.798	-11.78
293.012	39.42
293.227	27.14
293.442	41.47
293.657	35.33
293.871	8.7
294.086	-3.58
294.301	45.57
294.516	35.33
294.73	53.76
294.945	37.38
295.16	-22.02
295.374	31.23
295.589	20.99
295.804	59.9
296.018	113.15
296.233	35.33
296.447	35.33
296.662	-48.64
296.877	-15.87
297.091	23.04
297.306	8.7
297.52	92.67
297.735	51.71
297.949	47.62
298.164	76.29
298.378	-3.58
298.593	27.14
298.807	27.14
299.022	29.18
299.236	37.38
299.451	-15.87
299.665	53.76
299.88	2.56
300.094	72.19
300.309	29.18
300.523	-65.02
300.737	27.14
300.952	6.66
301.166	-26.11
301.381	29.18
301.595	-1.54
301.809	-3.58
302.024	70.14
302.238	10.75
302.452	23.04
302.667	-9.73
302.881	68.09
303.095	43.52
303.309	23.04
303.524	-62.98
303.738	25.09
303.952	-44.54
304.166	10.75
304.381	43.52
304.595	61.95
304.809	-13.82
305.023	51.71
305.237	2.56
305.452	-9.73
305.666	51.71
305.88	61.95
306.094	-34.3
306.308	-28.16
306.522	-1.54
306.736	-28.16
306.95	-1.54
307.164	41.47
307.379	-3.58
307.593	-5.63
307.807	49.66
308.021	43.52
308.235	90.62
308.449	-11.78
308.663	35.33
308.877	80.38
309.091	-30.21
309.305	-69.12
309.519	29.18
309.733	37.38
309.947	35.33
310.161	6.66
310.374	-7.68
310.588	51.71
310.802	66.05
311.016	18.94
311.23	14.85
311.444	-5.63
311.658	109.05
311.872	16.9
312.085	-32.26
312.299	23.04
312.513	92.67
312.727	12.8
312.941	29.18
313.154	35.33
313.368	59.9
313.582	70.14
313.796	-24.06
314.009	37.38
314.223	-13.82
314.437	47.62
314.651	10.75
314.864	-42.5
315.078	-11.78
315.292	86.53
315.505	8.7
315.719	0.51
315.933	49.66
316.146	39.42
316.36	20.99
316.573	12.8
316.787	-1.54
317.001	27.14
317.214	18.94
317.428	2.56
317.641	-3.58
317.855	-36.35
318.068	-30.21
318.282	68.09
318.495	31.23
318.709	-19.97
318.922	18.94
319.136	18.94
319.349	12.8
319.563	-54.78
319.776	-1.54
319.99	-11.78
320.203	119.29
320.417	0.51
320.63	-13.82
320.843	61.95
321.057	100.86
321.27	92.67
321.483	90.62
321.697	123.39
321.91	23.04
322.124	-13.82
322.337	-13.82
322.55	-13.82
322.763	-3.58
322.977	76.29
323.19	-26.11
323.403	-19.97
323.617	23.04
323.83	43.52
324.043	4.61
324.256	-52.74
324.469	-5.63
324.683	-22.02
324.896	-11.78
325.109	6.66
325.322	-22.02
325.535	0.51
325.748	72.19
325.962	-30.21
326.175	18.94
326.388	27.14
326.601	20.99
326.814	4.61
327.027	94.72
327.24	39.42
327.453	2.56
327.666	-36.35
327.879	27.14
328.092	43.52
328.305	76.29
328.518	6.66
328.731	43.52
328.944	35.33
329.157	-32.26
329.37	6.66
329.583	-19.97
329.796	61.95
330.009	45.57
330.222	-75.26
330.435	12.8
330.648	29.18
330.861	-5.63
331.073	-9.73
331.286	2.56
331.499	-13.82
331.712	-9.73
331.925	2.56
332.138	70.14
332.35	45.57
332.563	72.19
332.776	-7.68
332.989	29.18
333.202	-13.82
333.414	18.94
333.627	-1.54
333.84	64
334.053	82.43
334.265	31.23
334.478	27.14
334.691	-56.83
334.903	-44.54
335.116	2.56
335.329	41.47
335.541	-60.93
335.754	18.94
335.966	27.14
336.179	10.75
336.392	-11.78
336.604	68.09
336.817	18.94
337.029	57.86
337.242	-5.63
337.454	-7.68
337.667	12.8
337.88	-24.06
338.092	16.9
338.305	23.04
338.517	6.66
338.729	35.33
338.942	-36.35
339.154	-3.58
339.367	12.8
339.579	47.62
339.792	-28.16
340.004	51.71
340.217	72.19
340.429	84.48
340.641	-42.5
340.854	98.81
341.066	41.47
341.278	-5.63
341.491	-24.06
341.703	35.33
341.915	49.66
342.128	2.56
342.34	16.9
342.552	23.04
342.764	-7.68
342.977	45.57
343.189	-5.63
343.401	2.56
343.613	10.75
343.826	53.76
344.038	45.57
344.25	94.72
344.462	14.85
344.674	12.8
344.886	-32.26
345.099	-1.54
345.311	-13.82
345.523	84.48
345.735	-50.69
345.947	47.62
346.159	16.9
346.371	94.72
346.583	-46.59
346.795	14.85
347.007	59.9
347.219	49.66
347.431	14.85
347.643	-15.87
347.855	8.7
348.067	43.52
348.279	35.33
348.491	66.05
348.703	25.09
348.915	-32.26
349.127	45.57
349.339	39.42
349.551	10.75
349.763	12.8
349.975	23.04
350.187	51.71
350.399	35.33
350.61	43.52
350.822	-13.82
351.034	14.85
351.246	4.61
351.458	59.9
351.669	31.23
351.881	0.51
352.093	4.61
352.305	18.94
352.517	61.95
352.728	-13.82
352.94	-46.59
353.152	8.7
353.363	76.29
353.575	84.48
353.787	20.99
353.999	-17.92
354.21	84.48
354.422	23.04
354.633	-30.21
354.845	20.99
355.057	-1.54
355.268	25.09
355.48	47.62
355.692	27.14
355.903	-5.63
356.115	84.48
356.326	-13.82
356.538	31.23
356.749	43.52
356.961	-9.73
357.172	2.56
357.384	49.66
357.595	51.71
357.807	23.04
358.018	10.75
358.23	55.81
358.441	90.62
358.653	20.99
358.864	64
359.075	-11.78
359.287	-40.45
359.498	82.43
359.709	8.7
359.921	-5.63
360.132	-1.54
360.344	-9.73
360.555	-38.4
360.766	0.51
360.977	29.18
361.189	29.18
361.4	64
361.611	104.96
361.823	90.62
362.034	43.52
362.245	18.94
362.456	-9.73
362.667	37.38
362.879	31.23
363.09	-7.68
363.301	37.38
363.512	121.34
363.723	-26.11
363.935	-17.92
364.146	84.48
364.357	70.14
364.568	64
364.779	-50.69
364.99	37.38
365.201	25.09
365.412	53.76
365.623	8.7
365.834	25.09
366.045	92.67
366.256	12.8
366.467	51.71
366.678	27.14
366.889	51.71
367.1	4.61
367.311	23.04
367.522	102.91
367.733	-46.59
367.944	-11.78
368.155	4.61
368.366	61.95
368.577	70.14
368.788	88.57
368.999	-40.45
369.209	47.62
369.42	8.7
369.631	127.49
369.842	-7.68
370.053	-1.54
370.264	-40.45
370.474	-44.54
370.685	74.24
370.896	68.09
371.107	2.56
371.317	53.76
371.528	35.33
371.739	35.33
371.95	84.48
372.16	61.95
372.371	33.28
372.582	-1.54
372.792	-40.45
373.003	49.66
373.214	72.19
373.424	-40.45
373.635	39.42
373.846	51.71
374.056	18.94
374.267	41.47
374.477	66.05
374.688	57.86
374.898	-15.87
375.109	12.8
375.319	-17.92
375.53	64
375.74	12.8
375.951	10.75
376.161	-26.11
376.372	29.18
376.582	94.72
376.793	43.52
377.003	-36.35
377.214	29.18
377.424	-19.97
377.635	-40.45
377.845	-7.68
378.055	72.19
378.266	18.94
378.476	86.53
378.686	55.81
378.897	29.18
379.107	16.9
379.317	47.62
379.528	92.67
379.738	-11.78
379.948	25.09
380.158	31.23
380.369	-24.06
380.579	72.19
380.789	39.42
380.999	6.66
381.21	41.47
381.42	51.71
381.63	66.05
381.84	23.04
382.05	61.95
382.261	72.19
382.471	43.52
382.681	-28.16
382.891	117.25
383.101	72.19
383.311	25.09
383.521	-32.26
383.731	123.39
383.941	10.75
384.151	12.8
384.361	59.9
384.571	-54.78
384.781	37.38
384.991	31.23
385.201	41.47
385.411	37.38
385.621	111.1
385.831	72.19
386.041	6.66
386.251	-3.58
386.461	43.52
386.671	23.04
386.881	64
387.091	20.99
387.301	55.81
387.511	2.56
387.72	25.09
387.93	31.23
388.14	35.33
388.35	74.24
388.56	84.48
388.769	12.8
388.979	14.85
389.189	29.18
389.399	33.28
389.609	0.51
389.818	16.9
390.028	31.23
390.238	113.15
390.447	43.52
390.657	45.57
390.867	27.14
391.076	76.29
391.286	-9.73
391.496	25.09
391.705	117.25
391.915	27.14
392.125	27.14
392.334	86.53
392.544	66.05
392.753	55.81
392.963	-19.97
393.172	70.14
393.382	53.76
393.591	98.81
393.801	-17.92
394.01	176.64
394.22	0.51
394.429	25.09
394.639	37.38
394.848	111.1
395.058	70.14
395.267	51.71
395.477	2.56
395.686	98.81
395.895	18.94
396.105	84.48
396.314	35.33
396.524	74.24
396.733	-65.02
396.942	39.42
397.152	61.95
397.361	68.09
397.57	158.21
397.78	43.52
397.989	43.52
398.198	72.19
398.407	57.86
398.617	51.71
398.826	76.29
399.035	92.67
399.244	59.9
399.453	104.96
399.663	51.71
399.872	39.42
400.081	59.9
400.29	133.63
400.499	102.91
400.708	57.86
400.917	55.81
401.127	27.14
401.336	10.75
401.545	88.57
401.754	20.99
401.963	72.19
402.172	59.9
402.381	115.2
402.59	61.95
402.799	16.9
403.008	14.85
403.217	64
403.426	72.19
403.635	80.38
403.844	96.77
404.053	139.77
404.262	-5.63
404.471	74.24
404.68	39.42
404.888	115.2
405.097	49.66
405.306	86.53
405.515	145.92
405.724	84.48
405.933	139.77
406.142	121.34
406.35	211.45
406.559	172.54
406.768	37.38
406.977	96.77
407.185	129.53
407.394	139.77
407.603	74.24
407.812	82.43
408.02	174.59
408.229	162.3
408.438	139.77
408.646	154.11
408.855	197.12
409.064	170.49
409.272	150.01
409.481	125.44
409.69	145.92
409.898	270.84
410.107	262.65
410.315	244.22
410.524	141.82
410.733	190.97
410.941	229.88
411.15	225.79
411.358	233.98
411.567	201.21
411.775	176.64
411.984	215.55
412.192	297.47
412.401	313.85
412.609	285.18
412.818	309.76
413.026	356.86
413.234	287.23
413.443	360.95
413.651	299.52
413.86	297.47
414.068	383.48
414.276	430.59
414.485	336.38
414.693	455.16
414.901	403.96
415.11	438.78
415.318	412.15
415.526	453.11
415.734	498.17
415.943	465.4
416.151	522.74
416.359	557.56
416.567	543.22
416.776	496.12
416.984	565.75
417.192	594.42
417.4	567.8
417.608	553.46
417.817	662.01
418.025	649.72
418.233	686.58
418.441	731.64
418.649	731.64
418.857	778.74
419.065	768.5
419.273	762.36
419.481	838.13
419.689	852.47
419.897	899.57
420.105	885.23
420.313	971.25
420.521	1053.17
420.729	1012.21
420.937	1016.3
421.145	1044.98
421.353	1141.23
421.561	1174
421.769	1198.57
421.977	1237.49
422.185	1239.53
422.393	1354.22
422.601	1341.93
422.809	1454.57
423.017	1374.7
423.224	1427.95
423.432	1534.44
423.64	1528.3
423.848	1636.84
424.056	1683.94
424.263	1710.57
424.471	1706.47
424.679	1669.61
424.887	1815.01
425.094	1874.4
425.302	1837.54
425.51	1978.85
425.718	1987.04
425.925	2099.68
426.133	2144.74
426.341	2249.18
426.548	2370.01
426.756	2437.59
426.964	2345.44
427.171	2552.28
427.379	2533.85
427.586	2544.09
427.794	2634.2
428.001	3021.27
428.209	2992.59
428.417	2927.06
428.624	3148.24
428.832	3152.34
429.039	3197.39
429.247	3092.94
429.454	3330.51
429.662	3693
429.869	3385.8
430.076	3666.38
430.284	3559.88
430.491	3893.7
430.699	3914.18
430.906	3955.14
431.114	3932.61
431.321	4057.54
431.528	4221.38
431.736	4393.4
431.943	4567.48
432.15	4512.19
432.358	4395.45
432.565	4723.13
432.772	4901.3
432.979	5190.06
433.187	5360.05
433.394	5116.34
433.601	5398.96
433.808	5556.65
434.016	5374.38
434.223	5790.12
434.43	6046.12
434.637	5857.7
434.844	6298.02
435.052	6529.44
435.259	6328.74
435.466	6398.37
435.673	6373.79
435.88	6877.59
436.087	7121.3
436.294	7109.01
436.501	6947.22
436.708	7166.35
436.915	7397.78
437.122	7555.47
437.329	7768.46
437.537	7965.06
437.743	8046.98
437.95	7930.25
438.157	8452.48
438.364	8688
438.571	8673.66
438.778	8661.37
438.985	9509.23
439.192	9165.17
439.399	9351.54
439.606	9249.14
439.813	9861.48
440.02	10193.25
440.227	10152.29
440.433	9961.83
440.64	10254.69
440.847	10082.66
441.054	10545.5
441.261	11145.56
441.467	11327.83
441.674	11207
441.881	11815.24
442.088	11739.47
442.294	11753.8
442.501	11972.94
442.708	12087.62
442.914	12640.58
443.121	12933.43
443.328	12761.41
443.534	13625.65
443.741	13435.19
443.948	13070.65
444.154	14000.43
444.361	14117.16
444.568	14180.65
444.774	13895.98
444.981	14297.38
445.187	14817.57
445.394	15210.78
445.6	15165.72
445.807	16496.9
446.013	15685.9
446.22	16191.75
446.426	16931.07
446.633	16707.84
446.839	17371.38
447.046	16701.7
447.252	17676.53
447.459	18043.12
447.665	17549.56
447.871	18286.82
448.078	19267.8
448.284	18186.47
448.491	18845.92
448.697	19648.72
448.903	19837.14
449.11	20140.24
449.316	19835.09
449.522	20148.43
449.728	20623.56
449.935	20605.13
450.141	20699.33
450.347	21102.78
450.553	20279.5
450.76	20713.67
450.966	21313.72
451.172	21033.15
451.378	21573.81
451.584	21262.52
451.791	21745.84
451.997	21711.03
452.203	21903.54
452.409	22173.87
452.615	21846.19
452.821	20836.55
453.027	20793.54
453.233	22114.48
453.44	21110.97
453.646	21366.97
453.852	21233.85
454.058	21563.57
454.264	20830.4
454.47	21770.42
454.676	21012.67
454.882	21856.43
455.088	19843.28
455.294	20310.22
455.5	20396.23
455.705	20555.97
455.911	19726.55
456.117	19292.38
456.323	19122.4
456.529	18252.01
456.735	18792.67
456.941	18469.09
457.147	17899.76
457.352	17551.6
457.558	17318.14
457.764	17467.64
457.97	16939.26
458.176	17006.84
458.381	16804.1
458.587	15870.22
458.793	15825.17
458.999	14915.87
459.204	16144.65
459.41	15601.94
459.616	14758.17
459.821	14668.06
460.027	14600.48
460.233	14336.29
460.438	13535.54
460.644	13830.44
460.85	13048.12
461.055	12998.97
461.261	12996.92
461.466	12130.63
461.672	11686.22
461.878	12546.37
462.083	11665.74
462.289	11647.31
462.494	11426.13
462.7	10805.6
462.905	10426.72
463.111	11151.7
463.316	10979.67
463.522	10801.5
463.727	10787.16
463.932	10668.38
464.138	10424.67
464.343	10516.83
464.549	10264.93
464.754	10871.13
464.959	10479.97
465.165	10541.41
465.37	10293.6
465.575	9816.43
465.781	10396
465.986	10213.73
466.191	9720.17
466.397	9611.63
466.602	9326.96
466.807	9777.51
467.012	9881.96
467.218	9720.17
467.423	9406.83
467.628	9552.24
467.833	10000.74
468.038	9560.43
468.244	9331.06
468.449	9671.02
468.654	9455.98
468.859	9226.61
469.064	9220.47
469.269	9083.25
469.474	9116.02
469.679	9193.84
469.885	8802.68
470.09	8857.98
470.295	8941.94
470.5	8804.73
470.705	8845.69
470.91	8792.44
471.115	8460.67
471.32	8581.5
471.525	8542.59
471.73	8409.47
471.935	8399.23
472.139	8227.2
472.344	8233.35
472.549	8087.94
472.754	7934.34
472.959	8026.5
473.164	7741.83
473.369	7631.24
473.574	7745.93
473.778	7719.31
473.983	7676.3
474.188	7649.68
474.393	7309.71
474.598	7586.19
474.802	7309.71
475.007	7297.42
475.212	7434.64
475.417	7002.52
475.621	7014.8
475.826	7139.73
476.031	6881.69
476.235	6715.8
476.44	6902.17
476.645	6769.05
476.849	6535.58
477.054	6635.93
477.259	6662.55
477.463	6576.54
477.668	6386.08
477.872	6420.89
478.077	6484.38
478.282	6408.61
478.486	6293.92
478.691	6212
478.895	6152.61
479.1	5986.72
479.304	6148.51
479.509	5933.48
479.713	6035.88
479.918	6085.03
480.122	6023.59
480.326	5925.29
480.531	5956.01
480.735	5958.05
480.94	5841.32
481.144	6033.83
481.348	5542.32
481.553	5712.3
481.757	5769.64
481.961	5743.02
482.166	5685.67
482.37	5722.54
482.574	5673.39
482.778	5646.76
482.983	5722.54
483.187	5771.69
483.391	5730.73
483.595	5763.5
483.8	5679.53
484.004	5689.77
484.208	5919.14
484.412	5640.62
484.616	5691.82
484.821	5675.43
485.025	5597.61
485.229	5648.81
485.433	5597.61
485.637	5718.44
485.841	5730.73
486.045	5650.86
486.249	5573.03
486.453	5552.56
486.657	5626.28
486.861	5687.72
487.065	5556.65
487.269	5808.55
487.473	5687.72
487.677	5687.72
487.881	5689.77
488.085	5634.47
488.289	5841.32
488.493	5693.87
488.697	5839.27
488.901	5675.43
489.105	5628.33
489.309	5489.07
489.512	5874.09
489.716	5798.31
489.92	5945.77
490.124	5888.42
490.328	5882.28
490.531	5736.87
490.735	5904.81
490.939	5863.85
491.143	5865.89
491.346	5968.29
491.55	5990.82
491.754	6107.55
491.958	6062.5
492.161	6003.11
492.365	6187.43
492.569	6230.43
492.772	6150.56
492.976	6138.27
493.18	6310.3
493.383	6257.06
493.587	6265.25
493.79	6377.89
493.994	6298.02
494.197	6363.55
494.401	6416.8
494.605	6377.89
494.808	6801.82
495.012	6560.16
495.215	6678.94
495.419	6904.21
495.622	6697.37
495.825	6891.93
496.029	6736.28
496.232	6867.35
496.436	7061.91
496.639	7207.31
496.843	7262.61
497.046	7207.31
497.249	7543.18
497.453	7465.36
497.656	7500.17
497.859	7516.56
498.063	7422.35
498.266	7819.66
498.469	7672.2
498.673	7707.02
498.876	8104.32
499.079	8149.38
499.282	8106.37
499.485	8391.04
499.689	8235.39
499.892	8456.57
500.095	8333.7
500.298	8591.74
500.501	8608.12
500.705	8786.3
500.908	9097.59
501.111	9023.86
501.314	9169.27
501.517	9234.8
501.72	9386.35
501.923	9331.06
502.126	9570.67
502.329	9664.88
502.532	9953.64
502.735	9711.98
502.938	10123.62
503.141	10174.82
503.344	10287.46
503.547	10348.9
503.75	10783.07
503.953	10883.42
504.156	10678.62
504.359	10948.95
504.562	10955.1
504.765	11311.44
504.968	11405.65
505.17	11737.42
505.373	11663.69
505.576	11925.83
505.779	11901.26
505.982	12194.12
506.185	12339.52
506.387	12431.68
506.59	12392.77
506.793	12859.71
506.996	12962.11
507.198	13080.89
507.401	12972.35
507.604	13427
507.807	13656.37
508.009	13883.69
508.212	13719.85
508.415	14268.71
508.617	14143.78
508.82	14219.56
509.022	14397.73
509.225	14668.06
509.428	14897.44
509.63	15071.51
509.833	15206.68
510.035	15481.11
510.238	15411.48
510.44	15950.09
510.643	16027.92
510.845	15911.18
511.048	16247.05
511.25	16679.17
511.453	16595.2
511.655	17336.57
511.858	17033.47
512.06	17508.6
512.262	17594.61
512.465	17537.27
512.667	17932.53
512.87	18209
513.072	18184.43
513.274	18708.71
513.477	18927.84
513.679	19232.99
513.881	19214.55
514.084	19443.93
514.286	19673.3
514.488	19974.35
514.69	20383.94
514.893	20523.21
515.095	20621.51
515.297	20742.34
515.499	21123.26
515.701	21278.91
515.904	21827.76
516.106	21563.57
516.308	22372.52
516.51	22190.25
516.712	22347.95
516.914	22587.56
517.116	23023.78
517.318	22956.19
517.52	23640.22
517.722	23482.52
517.925	23912.6
518.127	24047.76
518.329	24377.48
518.531	23951.51
518.733	24883.33
518.935	25178.24
519.136	25118.85
519.338	25593.98
519.54	25702.52
519.742	26099.83
519.944	26294.38
520.146	26814.57
520.348	26777.7
520.55	26884.2
520.752	27138.15
520.954	27861.08
521.155	27349.09
521.357	27717.72
521.559	28340.3
521.761	28364.88
521.963	28731.47
522.164	29263.94
522.366	29292.61
522.568	29567.04
522.77	29452.35
522.971	29921.34
523.173	30089.27
523.375	30253.11
523.576	30449.71
523.778	30664.75
523.98	31244.32
524.181	31051.81
524.383	31154.21
524.584	31572
524.786	31490.08
524.988	31397.92
525.189	32159.77
525.391	32335.89
525.592	32348.18
525.794	32389.14
525.995	32536.59
526.197	32749.58
526.398	32606.22
526.6	33148.93
526.801	33095.69
527.003	33486.85
527.204	33456.13
527.406	33527.81
527.607	34039.8
527.808	34007.03
528.01	33417.22
528.211	33808.38
528.412	34441.2
528.614	34189.3
528.815	34555.89
529.016	34547.7
529.218	34615.28
529.419	35000.3
529.62	34588.66
529.822	34736.11
530.023	35024.87
530.224	35049.45
530.425	34807.79
530.626	35002.35
530.828	34746.35
531.029	35743.71
531.23	35280.87
531.431	35198.95
531.632	35219.43
531.833	35760.09
532.035	35547.11
532.236	35493.86
532.437	36222.94
532.638	35719.13
532.839	35942.36
533.04	35819.49
533.241	35403.75
533.442	36290.52
533.643	35864.54
533.844	36145.11
534.045	36114.39
534.246	35780.57
534.447	36011.99
534.648	36128.73
534.849	35932.12
535.05	35882.97
535.251	35878.88
535.451	35905.5
535.652	36550.61
535.853	36251.61
536.054	36267.99
536.255	36077.53
536.456	35981.27
536.657	36917.2
536.857	36329.43
537.058	35956.7
537.259	36532.18
537.46	36016.09
537.66	36157.4
537.861	36358.1
538.062	36202.46
538.263	36462.55
538.463	36239.32
538.664	36431.83
538.865	36192.22
539.065	36450.26
539.266	36155.35
539.466	36425.68
539.667	36190.17
539.868	36591.57
540.068	36141.02
540.269	36073.43
540.469	36267.99
540.67	36444.12
540.87	36284.37
541.071	36052.95
541.271	36235.22
541.472	36341.72
541.672	36276.18
541.873	36124.63
542.073	36050.91
542.274	36579.28
542.474	35981.27
542.675	36036.57
542.875	36399.06
543.075	36323.29
543.276	35942.36
543.476	36538.32
543.676	36112.34
543.877	36288.47
544.077	36382.68
544.277	36087.77
544.478	36526.03
544.678	36579.28
544.878	36165.59
545.078	36229.08
545.279	35936.22
545.479	36122.58
545.679	36366.29
545.879	36241.37
546.079	36106.2
546.28	36161.5
546.48	35940.32
546.68	35829.73
546.88	36519.89
547.08	36483.03
547.28	36028.38
547.48	36290.52
547.68	36067.29
547.88	35889.12
548.081	36397.01
548.281	36419.54
548.481	36079.58
548.681	36554.71
548.881	36095.96
549.081	36196.31
549.28	36276.18
549.48	36526.03
549.68	36259.8
549.88	36354.01
550.08	36073.43
550.28	36542.42
550.48	36245.46
550.68	35981.27
550.88	36014.04
551.08	36059.1
551.279	36227.03
551.479	35977.18
551.679	36149.21
551.879	35780.57
552.079	36179.93
552.278	35842.01
552.478	35782.62
552.678	36284.37
552.878	35997.66
553.077	35882.97
553.277	35534.82
553.477	36134.87
553.676	35778.53
553.876	35925.98
554.076	35794.91
554.275	35973.08
554.475	35524.58
554.674	36173.78
554.874	35756
555.074	35880.92
555.273	36130.78
555.473	35772.38
555.672	35430.37
555.872	35698.66
556.071	35776.48
556.271	35930.08
556.47	35592.16
556.67	35059.69
556.869	35534.82
557.068	35788.77
557.268	35104.74
557.467	35368.93
557.667	35354.6
557.866	35717.09
558.065	35325.92
558.265	35313.64
558.464	35194.85
558.663	35403.75
558.863	34932.71
559.062	35577.83
559.261	34541.55
559.461	35018.73
559.66	34639.86
559.859	35233.77
560.058	34553.84
560.258	34891.76
560.457	34334.71
560.656	34551.79
560.855	34760.69
561.054	34609.14
561.253	34426.87
561.453	34541.55
561.652	34525.17
561.851	34344.95
562.05	34400.24
562.249	34066.42
562.448	34676.72
562.647	34232.31
562.846	34072.57
563.045	34449.39
563.244	34174.97
563.443	34428.91
563.642	34113.53
563.841	33869.82
564.04	33744.89
564.239	34476.02
564.438	33656.83
564.637	33699.84
564.836	34043.9
565.035	33603.58
565.234	33742.85
565.432	33556.48
565.631	33449.99
565.83	33671.17
566.029	33599.49
566.228	33427.46
566.427	33146.89
566.625	33187.85
566.824	32845.83
567.023	33275.91
567.222	32688.14
567.42	33275.91
567.619	32935.95
567.818	32981
568.016	32641.04
568.215	32835.59
568.414	32571.41
568.612	32962.57
568.811	32632.85
569.01	32407.57
569.208	32204.82
569.407	32630.8
569.605	32083.99
569.804	32149.53
570.002	32110.61
570.201	31979.54
570.4	32065.56
570.598	31770.65
570.797	31490.08
570.995	31946.78
571.193	31498.27
571.392	31997.98
571.59	31393.82
571.789	31389.73
571.987	31377.44
572.186	31309.86
572.384	31225.89
572.582	31103.01
572.781	30871.59
572.979	30597.17
573.177	30648.36
573.376	30795.82
573.574	30502.96
573.772	30679.08
573.971	30625.84
574.169	30212.15
574.367	30220.34
574.565	30627.88
574.763	29943.86
574.962	29810.75
575.16	29827.13
575.358	30208.05
575.556	29481.02
575.754	30226.48
575.952	29470.78
576.151	29855.8
576.349	29517.89
576.547	29382.72
576.745	29233.22
576.943	29448.25
577.141	29341.76
577.339	29552.7
577.537	28895.3
577.735	28850.25
577.933	28864.58
578.131	28840.01
578.329	28485.71
578.527	28424.27
578.725	28696.65
578.923	28489.81
579.121	28584.01
579.319	28409.93
579.516	28399.69
579.714	28235.86
579.912	27803.74
580.11	28074.07
580.308	27990.1
580.506	27969.62
580.704	27574.36
580.901	27643.99
581.099	27828.31
581.297	27703.39
581.495	27453.53
581.692	27437.15
581.89	27005.03
582.088	27623.51
582.285	27132
582.483	27099.23
582.681	27035.75
582.878	26937.44
583.076	26589.29
583.274	26738.79
583.471	26521.71
583.669	26800.23
583.866	26370.16
584.064	26785.9
584.262	26271.86
584.459	26640.49
584.657	26189.94
584.854	26382.45
585.052	25852.02
585.249	25649.27
585.447	26232.94
585.644	25659.51
585.841	25839.73
586.039	26024.05
586.236	25553.02
586.434	25399.42
586.631	25229.44
586.828	25473.15
587.026	25372.8
587.223	25174.14
587.42	25421.95
587.618	25055.36
587.815	25159.81
588.012	24836.23
588.21	24696.97
588.407	25301.12
588.604	24756.36
588.801	24653.96
588.999	24903.81
589.196	24711.3
589.393	24440.97
589.59	24217.74
589.787	24465.55
589.984	24223.89
590.182	24096.91
590.379	24287.37
590.576	23924.88
590.773	23984.27
590.97	23871.64
591.167	23926.93
591.364	23093.41
591.561	23799.96
591.758	23353.5
591.955	23390.36
592.152	23742.61
592.349	23410.84
592.546	23373.98
592.743	23705.75
592.94	23122.08
593.137	23285.92
593.334	23781.53
593.531	23169.18
593.727	23132.32
593.924	23259.29
594.121	22675.62
594.318	23034.02
594.515	22673.57
594.712	22808.74
594.908	22583.46
595.105	22732.97
595.302	22343.85
595.499	22388.91
595.696	22247.6
595.892	22290.6
596.089	22343.85
596.286	21997.74
596.482	21969.07
596.679	22069.42
596.876	22075.57
597.072	22073.52
597.269	22024.37
597.466	21534.9
597.662	21774.52
597.859	21590.2
598.055	21582.01
598.252	21459.13
598.448	21577.91
598.645	21360.83
598.841	21465.27
599.038	21285.05
599.234	21336.25
599.431	20859.07
599.627	21104.83
599.824	21100.73
600.02	20764.87
600.217	21088.45
600.413	20824.26
600.609	20580.55
600.806	20916.42
601.002	20750.53
601.198	20836.55
601.395	20390.09
601.591	20758.72
601.787	20539.59
601.984	20351.18
602.18	20560.07
602.376	20256.97
602.572	20267.21
602.769	20218.06
602.965	19914.96
603.161	19904.72
603.357	19949.78
603.553	19742.93
603.75	20029.65
603.946	19618
604.142	19732.69
604.338	19693.78
604.534	19677.4
604.73	19095.77
604.926	19247.32
605.122	19353.82
605.318	19376.34
605.514	19071.2
605.71	18917.6
605.906	18893.02
606.102	18954.46
606.298	18854.11
606.494	18823.39
606.69	18931.94
606.886	18706.66
607.082	18598.12
607.278	18800.87
607.474	18239.72
607.67	18632.93
607.866	17918.19
608.062	18653.41
608.257	18528.49
608.453	18200.81
608.649	18378.98
608.845	18153.71
609.041	18049.26
609.236	18082.03
609.432	17801.46
609.628	17858.8
609.824	17807.6
610.019	17711.35
610.215	17611
610.411	17803.5
610.606	17363.19
610.802	17744.11
610.998	17795.31
611.193	17504.5
611.389	17172.73
611.584	17387.77
611.78	17150.2
611.976	17256.7
612.171	17225.98
612.367	17414.39
612.562	17047.8
612.758	16943.36
612.953	16941.31
613.149	17035.52
613.344	16640.26
613.539	17279.22
613.735	16701.7
613.93	16761.09
614.126	16584.96
614.321	16998.65
614.517	16732.42
614.712	16752.9
614.907	16601.35
615.103	16677.12
615.298	16511.24
615.493	16664.83
615.688	16056.59
615.884	16509.19
616.079	16197.9
616.274	16406.79
616.47	16210.18
616.665	16060.68
616.86	16077.07
617.055	15909.13
617.25	15986.96
617.445	15937.8
617.641	15905.04
617.836	15937.8
618.031	15814.93
618.226	15741.2
618.421	15837.45
618.616	15806.73
618.811	15683.86
619.006	15675.66
619.201	15403.28
619.396	15337.75
619.591	15159.58
619.786	15173.91
619.981	15012.12
620.176	15214.87
620.371	14756.13
620.566	14960.92
620.761	14891.29
620.956	15081.75
621.151	14534.95
621.346	14879
621.541	14590.24
621.735	14623.01
621.93	14657.82
622.125	14272.81
622.32	14311.72
622.515	14240.04
622.709	14143.78
622.904	14160.17
623.099	14063.91
623.294	13992.23
623.488	13928.75
623.683	13949.23
623.878	13789.49
624.072	13812.01
624.267	13685.04
624.462	13578.54
624.656	13281.59
624.851	13445.43
625.046	13281.59
625.24	13195.57
625.435	13246.77
625.629	13125.94
625.824	12804.41
626.018	12652.86
626.213	12620.1
626.407	12878.14
626.602	12671.29
626.796	12585.28
626.991	12577.09
627.185	12665.15
627.38	12331.33
627.574	12362.05
627.768	12407.11
627.963	12323.14
628.157	11964.75
628.352	11934.03
628.546	11970.89
628.74	12015.94
628.935	11909.45
629.129	11796.81
629.323	11723.09
629.517	11678.03
629.712	11725.13
629.906	11663.69
630.1	11342.16
630.294	11628.88
630.489	11518.29
630.683	11553.1
630.877	11254.1
631.071	11323.73
631.265	11147.61
631.459	11204.95
631.653	11254.1
631.848	11082.07
632.042	10920.28
632.236	11178.33
632.43	10797.4
632.624	11110.74
632.818	10803.55
633.012	10811.74
633.206	10684.76
633.4	10707.29
633.594	10457.44
633.788	10549.6
633.982	10176.87
634.176	10522.98
634.369	10228.07
634.563	10381.67
634.757	10314.08
634.951	10441.06
635.145	10342.75
635.339	10131.81
635.533	9953.64
635.726	10223.97
635.92	9740.65
636.114	9843.05
636.308	9740.65
636.501	9918.82
636.695	9746.8
636.889	9711.98
637.083	9728.36
637.276	9652.59
637.47	9468.27
637.664	9625.97
637.857	9552.24
638.051	9398.64
638.244	9249.14
638.438	9099.64
638.632	9275.76
638.825	9109.88
639.019	9195.89
639.212	8970.62
639.406	9070.97
639.599	9036.15
639.793	9054.58
639.986	8860.02
640.18	8851.83
640.373	8823.16
640.567	8728.95
640.76	8817.02
640.954	8802.68
641.147	8597.88
641.34	8429.95
641.534	8556.93
641.727	8593.79
641.92	8438.14
642.114	8380.8
642.307	8524.16
642.5	8401.28
642.694	8163.72
642.887	8210.82
643.08	8157.57
643.273	8014.21
643.467	8302.98
643.66	8051.08
643.853	7967.11
644.046	7645.58
644.239	7772.55
644.432	7739.79
644.626	7850.38
644.819	7661.96
645.012	7844.23
645.205	7655.82
645.398	7580.04
645.591	7399.82
645.784	7532.94
645.977	7498.13
646.17	7391.63
646.363	7287.18
646.556	7328.14
646.749	7369.1
646.942	7233.94
647.135	7287.18
647.328	7127.44
647.521	7203.22
647.714	7086.48
647.907	6840.73
648.099	7076.24
648.292	6949.27
648.485	6887.83
648.678	6914.45
648.871	6863.26
649.064	6775.19
649.256	6707.61
649.449	6572.44
649.642	6570.4
649.835	6556.06
650.027	6367.65
650.22	6410.65
650.413	6504.86
650.605	6461.85
650.798	6265.25
650.991	6373.79
651.183	6263.2
651.376	6246.82
651.568	6166.95
651.761	6205.86
651.954	6187.43
652.146	6089.12
652.339	6060.45
652.531	6080.93
652.724	5999.01
652.916	5798.31
653.109	5847.46
653.301	6054.31
653.494	5921.19
653.686	5673.39
653.879	5796.26
654.071	5706.15
654.263	5722.54
654.456	5609.9
654.648	5589.42
654.84	5613.99
655.033	5380.53
655.225	5405.1
655.417	5495.21
655.61	5407.15
655.802	5427.63
655.994	5245.36
656.186	5378.48
656.379	5224.88
656.571	5190.06
656.763	5212.59
656.955	5124.53
657.148	5167.54
657.34	5099.95
657.532	4997.56
657.724	4966.84
657.916	4923.83
658.108	4846.01
658.3	5003.7
658.492	4860.34
658.684	4825.53
658.876	4839.86
659.068	4729.27
659.26	4633.02
659.452	4567.48
659.644	4786.61
659.836	4622.78
660.028	4622.78
660.22	4532.67
660.412	4723.13
660.604	4377.02
660.796	4399.55
660.988	4460.99
661.18	4368.83
661.372	4460.99
661.563	4317.63
661.755	4374.97
661.947	4303.29
662.139	4295.1
662.331	4202.94
662.522	4186.56
662.714	4268.48
662.906	4188.61
663.097	4047.3
663.289	3951.04
663.481	3908.04
663.673	4092.35
663.864	3889.6
664.056	3887.56
664.247	3905.99
664.439	3934.66
664.631	3869.12
664.822	3844.55
665.014	3848.65
665.205	3762.63
665.397	3785.16
665.588	3709.38
665.78	3568.07
665.971	3813.83
666.163	3719.62
666.354	3633.61
666.546	3627.46
666.737	3664.33
666.929	3635.66
667.12	3588.55
667.311	3561.93
667.503	3658.18
667.694	3480.01
667.885	3463.63
668.077	3486.15
668.268	3434.96
668.459	3426.76
668.651	3445.2
668.842	3451.34
669.033	3494.35
669.224	3391.95
669.416	3377.61
669.607	3334.61
669.798	3273.17
669.989	3248.59
670.18	3264.97
670.371	3221.97
670.563	3277.26
670.754	3240.4
670.945	3164.62
671.136	3346.89
671.327	3240.4
671.518	3117.52
671.709	3125.71
671.9	3191.25
672.091	3285.45
672.282	3168.72
672.473	3101.14
672.664	3178.96
672.855	3191.25
673.046	3041.75
673.237	3043.79
673.428	3144.14
673.619	3025.36
673.809	3004.88
674	2984.4
674.191	2890.2
674.382	3025.36
674.573	2922.96
674.764	3004.88
674.954	3006.93
675.145	2882
675.336	2955.73
675.527	2714.07
675.717	2890.2
675.908	2839
676.099	2783.7
676.289	2798.04
676.48	2714.07
676.671	2839
676.861	2746.84
677.052	2841.04
677.243	2849.24
677.433	2720.21
677.624	2777.56
677.814	2759.13
678.005	2593.24
678.195	2728.41
678.386	2720.21
678.576	2820.56
678.767	2632.15
678.957	2632.15
679.148	2759.13
679.338	2675.16
679.529	2595.29
679.719	2587.1
679.909	2671.06
680.1	2763.22
680.29	2730.45
680.481	2675.16
680.671	2587.1
680.861	2642.39
681.052	2636.25
681.242	2613.72
681.432	2658.78
681.622	2542.04
681.813	2607.58
682.003	2632.15
682.193	2445.79
682.383	2433.5
682.573	2632.15
682.764	2591.19
682.954	2511.32
683.144	2517.47
683.334	2605.53
683.524	2574.81
683.714	2640.34
683.904	2599.38
684.094	2462.17
684.284	2453.98
684.474	2609.62
684.664	2533.85
684.854	2589.14
685.044	2447.83
685.234	2513.37
685.424	2550.23
685.614	2544.09
685.804	2535.9
685.994	2415.07
686.184	2470.36
686.374	2382.3
686.564	2451.93
686.753	2513.37
686.943	2453.98
687.133	2441.69
687.323	2476.51
687.513	2525.66
687.702	2361.82
687.892	2503.13
688.082	2437.59
688.272	2537.95
688.461	2460.12
688.651	2406.88
688.841	2525.66
689.03	2370.01
689.22	2402.78
689.41	2496.99
689.599	2410.97
689.789	2550.23
689.979	2415.07
690.168	2464.22
690.358	2437.59
690.547	2482.65
690.737	2537.95
690.926	2484.7
691.116	2427.35
691.305	2435.55
691.495	2306.52
691.684	2392.54
691.874	2304.48
692.063	2484.7
692.252	2365.92
692.442	2511.32
692.631	2417.12
692.82	2386.4
693.01	2449.88
693.199	2462.17
693.388	2376.16
693.578	2447.83
693.767	2300.38
693.956	2388.44
694.146	2492.89
694.335	2396.64
694.524	2351.58
694.713	2531.8
694.902	2392.54
695.092	2443.74
695.281	2378.2
695.47	2453.98
695.659	2394.59
695.848	2476.51
696.037	2490.84
696.226	2517.47
696.415	2451.93
696.604	2427.35
696.793	2482.65
696.982	2425.31
697.171	2437.59
697.36	2398.68
697.549	2353.63
697.738	2320.86
697.927	2365.92
698.116	2429.4
698.305	2410.97
698.494	2296.28
698.683	2445.79
698.872	2591.19
699.061	2425.31
699.25	2372.06
699.438	2214.37
699.627	2370.01
699.816	2361.82
700.005	2329.05
700.193	2296.28
700.382	2324.96
700.571	2376.16
700.76	2353.63
700.948	2329.05
701.137	2331.1
701.326	2255.33
701.514	2308.57
701.703	2193.89
701.892	2310.62
702.08	2320.86
702.269	2306.52
702.457	2345.44
702.646	2417.12
702.834	2245.09
703.023	2277.85
703.212	2284
703.4	2286.05
703.589	2218.46
703.777	2134.5
703.965	2220.51
704.154	2257.37
704.342	2273.76
704.531	2245.09
704.719	2093.54
704.907	2089.44
705.096	2202.08
705.284	2167.26
705.472	2140.64
705.661	2165.21
705.849	2238.94
706.037	2120.16
706.226	2169.31
706.414	2173.41
706.602	2126.3
706.79	2169.31
706.979	2126.3
707.167	2159.07
707.355	2214.37
707.543	2093.54
707.731	2218.46
707.919	2173.41
708.107	2058.72
708.296	2081.25
708.484	2085.34
708.672	2085.34
708.86	2095.58
709.048	1993.19
709.236	1997.28
709.424	2120.16
709.612	2058.72
709.8	2181.6
709.988	2124.26
710.176	1972.71
710.364	2015.71
710.551	1886.69
710.739	2062.82
710.927	1896.93
711.115	1991.14
711.303	2066.91
711.491	1989.09
711.679	1962.47
711.866	1821.16
712.054	1913.31
712.242	1962.47
712.43	1860.07
712.617	1896.93
712.805	1843.68
712.993	1946.08
713.181	1825.25
713.368	1984.99
713.556	1966.56
713.744	1790.44
713.931	1819.11
714.119	1741.29
714.306	1907.17
714.494	1808.87
714.682	1845.73
714.869	1817.06
715.057	1821.16
715.244	1772
715.432	1769.96
715.619	1698.28
715.807	1657.32
715.994	1796.58
716.182	1835.49
716.369	1692.13
716.556	1700.33
716.744	1724.9
716.931	1751.53
717.119	1831.4
717.306	1704.42
717.493	1724.9
717.681	1638.89
717.868	1716.71
718.055	1618.41
718.242	1636.84
718.43	1649.13
718.617	1624.55
718.804	1593.83
718.991	1645.03
719.179	1700.33
719.366	1642.98
719.553	1587.69
719.74	1614.31
719.927	1597.93
720.114	1477.1
720.301	1575.4
720.488	1495.53
720.676	1491.43
720.863	1454.57
721.05	1475.05
721.237	1538.54
721.424	1470.95
721.611	1407.47
721.798	1446.38
721.985	1470.95
722.172	1448.43
722.358	1540.58
722.545	1516.01
722.732	1452.52
722.919	1436.14
723.106	1438.19
723.293	1401.32
723.48	1438.19
723.667	1374.7
723.853	1386.99
724.04	1479.15
724.227	1370.6
724.414	1276.4
724.6	1452.52
724.787	1378.79
724.974	1358.32
725.161	1382.89
725.347	1389.03
725.534	1343.98
725.72	1315.31
725.907	1423.85
726.094	1384.94
726.28	1329.64
726.467	1358.32
726.653	1382.89
726.84	1339.88
727.027	1360.36
727.213	1317.36
727.4	1303.02
727.586	1260.01
727.773	1331.69
727.959	1346.03
728.145	1229.29
728.332	1307.12
728.518	1278.44
728.705	1288.68
728.891	1276.4
729.077	1311.21
729.264	1229.29
729.45	1165.81
729.636	1307.12
729.823	1229.29
730.009	1159.66
730.195	1274.35
730.382	1174
730.568	1249.77
730.754	1174
730.94	1239.53
731.126	1268.2
731.313	1221.1
731.499	1223.15
731.685	1124.85
731.871	1081.84
732.057	1143.28
732.243	1090.03
732.429	1124.85
732.615	1159.66
732.801	1210.86
732.987	1081.84
733.173	1096.18
733.359	1116.65
733.545	1171.95
733.731	1055.22
733.917	1106.42
734.103	1079.79
734.289	1214.96
734.475	1110.51
734.661	1135.09
734.847	1133.04
735.033	1137.13
735.219	1092.08
735.404	1112.56
735.59	1116.65
735.776	1116.65
735.962	1075.7
736.148	1071.6
736.333	1036.78
736.519	1001.97
736.705	1032.69
736.89	1085.94
737.076	1018.35
737.262	1020.4
737.447	1104.37
737.633	1061.36
737.819	1053.17
738.004	977.39
738.19	1030.64
738.375	1032.69
738.561	1065.46
738.747	950.77
738.932	1012.21
739.118	1104.37
739.303	1006.06
739.489	971.25
739.674	918
739.859	938.48
740.045	1010.16
740.23	993.78
740.416	969.2
740.601	1010.16
740.786	920.05
740.972	936.43
741.157	905.71
741.342	872.95
741.528	952.82
741.713	936.43
741.898	979.44
742.084	989.68
742.269	942.58
742.454	956.91
742.639	870.9
742.824	922.1
743.01	891.38
743.195	864.75
743.38	956.91
743.565	768.5
743.75	809.46
743.935	897.52
744.12	831.99
744.305	874.99
744.49	881.14
744.675	741.88
744.86	858.61
745.045	928.24
745.23	827.89
745.415	756.21
745.6	831.99
745.785	864.75
745.97	770.55
746.155	831.99
746.34	817.65
746.525	817.65
746.71	809.46
746.895	715.25
747.079	756.21
747.264	825.84
747.449	838.13
747.634	831.99
747.819	764.4
748.003	805.36
748.188	815.6
748.373	670.2
748.557	719.35
748.742	766.45
748.927	668.15
749.111	766.45
749.296	780.79
749.481	805.36
749.665	666.1
749.85	657.91
750.034	690.68
750.219	707.06
750.404	666.1
750.588	702.97
750.773	668.15
750.957	729.59
751.141	666.1
751.326	684.53
751.51	717.3
751.695	655.86
751.879	672.25
752.064	676.34
752.248	629.24
752.432	690.68
752.617	657.91
752.801	639.48
752.985	602.61
753.17	592.37
753.354	684.53
753.538	643.57
753.722	616.95
753.907	641.53
754.091	573.94
754.275	596.47
754.459	616.95
754.643	567.8
754.828	578.04
755.012	590.33
755.196	526.84
755.38	631.29
755.564	516.6
755.748	535.03
755.932	535.03
756.116	557.56
756.3	631.29
756.484	492.02
756.668	541.18
756.852	569.85
757.036	498.17
757.22	619
757.404	518.65
757.588	631.29
757.772	545.27
757.956	559.61
758.14	582.14
758.323	545.27
758.507	537.08
758.691	461.3
758.875	530.94
759.059	528.89
759.242	545.27
759.426	498.17
759.61	489.98
759.794	485.88
759.977	500.22
760.161	492.02
760.345	426.49
760.528	463.35
760.712	453.11
760.895	479.74
761.079	461.3
761.263	496.12
761.446	432.63
761.63	420.35
761.813	530.94
761.997	383.48
762.18	412.15
762.364	426.49
762.547	469.5
762.731	449.02
762.914	508.41
763.098	387.58
763.281	446.97
763.464	516.6
763.648	424.44
763.831	438.78
764.015	420.35
764.198	446.97
764.381	463.35
764.564	502.26
764.748	412.15
764.931	479.74
765.114	467.45
765.297	518.65
765.481	428.54
765.664	438.78
765.847	465.4
766.03	465.4
766.213	408.06
766.397	444.92
766.58	428.54
766.763	457.21
766.946	453.11
767.129	397.82
767.312	373.24
767.495	395.77
767.678	367.1
767.861	449.02
768.044	369.15
768.227	414.2
768.41	336.38
768.593	477.69
768.776	442.87
768.959	428.54
769.142	377.34
769.324	375.29
769.507	350.71
769.69	449.02
769.873	356.86
770.056	446.97
770.239	375.29
770.421	426.49
770.604	338.43
770.787	424.44
770.97	492.02
771.152	420.35
771.335	379.39
771.518	379.39
771.7	412.15
771.883	334.33
772.066	377.34
772.248	383.48
772.431	303.61
772.613	301.56
772.796	393.72
772.978	391.67
773.161	426.49
773.343	381.43
773.526	385.53
773.708	344.57
773.891	266.75
774.073	383.48
774.256	311.8
774.438	406.01
774.621	299.52
774.803	381.43
774.985	354.81
775.168	365.05
775.35	385.53
775.532	371.19
775.715	272.89
775.897	399.87
776.079	371.19
776.261	309.76
776.444	344.57
776.626	360.95
776.808	238.08
776.99	350.71
777.173	342.52
777.355	272.89
777.537	272.89
777.719	385.53
777.901	252.41
778.083	291.32
778.265	248.32
778.447	285.18
778.629	334.33
778.811	401.91
778.993	276.99
779.175	299.52
779.357	360.95
779.539	324.09
779.721	274.94
779.903	287.23
780.085	305.66
780.267	322.04
780.449	293.37
780.631	264.7
780.812	322.04
780.994	264.7
781.176	285.18
781.358	260.6
781.54	252.41
781.721	297.47
781.903	342.52
782.085	313.85
782.267	281.08
782.448	289.28
782.63	250.36
782.812	227.84
782.993	293.37
783.175	264.7
783.357	176.64
783.538	305.66
783.72	268.8
783.901	240.12
784.083	188.93
784.264	274.94
784.446	223.74
784.627	352.76
784.809	264.7
784.99	250.36
785.172	262.65
785.353	166.4
785.535	264.7
785.716	266.75
785.897	188.93
786.079	213.5
786.26	197.12
786.441	182.78
786.623	287.23
786.804	219.64
786.985	215.55
787.167	256.51
787.348	115.2
787.529	176.64
787.71	295.42
787.891	207.36
788.073	139.77
788.254	186.88
788.435	174.59
788.616	129.53
788.797	182.78
788.978	240.12
789.159	168.45
789.34	199.16
789.522	166.4
789.703	162.3
789.884	182.78
790.065	160.25
790.246	43.52
790.427	199.16
790.607	213.5
790.788	166.4
790.969	209.4
791.15	184.83
791.331	168.45
791.512	190.97
791.693	139.77
791.874	217.6
792.054	233.98
792.235	219.64
792.416	164.35
792.597	123.39
792.778	139.77
792.958	168.45
793.139	117.25
793.32	182.78
793.5	209.4
793.681	193.02
793.862	111.1
794.042	174.59
794.223	182.78
794.404	201.21
794.584	209.4
794.765	102.91
794.945	150.01
795.126	199.16
795.306	166.4
795.487	143.87
795.667	121.34
795.848	127.49
796.028	113.15
796.209	156.16
796.389	188.93
796.57	172.54
796.75	145.92
796.93	98.81
797.111	190.97
797.291	59.9
797.471	98.81
797.652	117.25
797.832	150.01
798.012	137.73
798.192	137.73
798.373	158.21
798.553	125.44
798.733	109.05
798.913	190.97
799.093	139.77
799.274	158.21
799.454	102.91
799.634	92.67
799.814	135.68
799.994	94.72
800.174	76.29
800.354	109.05
800.534	68.09
800.714	113.15
800.894	113.15
801.074	129.53
801.254	129.53
801.434	8.7
801.614	68.09
801.794	84.48
801.974	365.05
802.154	84.48
802.334	174.59
802.514	61.95
802.693	104.96
802.873	117.25
803.053	168.45
803.233	170.49
803.413	133.63
803.592	86.53
803.772	55.81
803.952	66.05
804.131	141.82
804.311	123.39
804.491	162.3
804.67	117.25
804.85	20.99
805.03	94.72
805.209	82.43
805.389	104.96
805.568	55.81
805.748	64
805.928	229.88
806.107	49.66
806.287	80.38
806.466	121.34
806.646	117.25
806.825	27.14
807.004	70.14
807.184	70.14
807.363	31.23
807.543	86.53
807.722	45.57
807.901	121.34
808.081	160.25
808.26	51.71
808.439	147.97
808.619	90.62
808.798	94.72
808.977	125.44
809.156	86.53
809.336	57.86
809.515	68.09
809.694	133.63
809.873	96.77
810.052	84.48
810.231	78.33
810.411	82.43
810.59	102.91
810.769	78.33
810.948	14.85
811.127	72.19
811.306	68.09
811.485	41.47
811.664	76.29
811.843	119.29
812.022	92.67
812.201	72.19
812.38	10.75
812.559	59.9
812.737	86.53
812.916	90.62
813.095	117.25
813.274	78.33
813.453	61.95
813.632	121.34
813.811	80.38
813.989	84.48
814.168	59.9
814.347	70.14
814.526	37.38
814.704	-1.54
814.883	94.72
815.062	84.48
815.24	49.66
815.419	131.58
815.598	66.05
815.776	102.91
815.955	70.14
816.133	35.33
816.312	84.48
816.49	72.19
816.669	-11.78
816.847	107.01
817.026	45.57
817.204	64
817.383	66.05
817.561	53.76
817.74	90.62
817.918	41.47
818.097	6.66
818.275	84.48
818.453	64
818.632	102.91
818.81	43.52
818.988	16.9
819.167	8.7
819.345	68.09
819.523	104.96
819.701	33.28
819.879	107.01
820.058	109.05
820.236	64
820.414	76.29
820.592	84.48
820.77	8.7
820.948	76.29
821.127	55.81
821.305	23.04
821.483	74.24
821.661	12.8
821.839	53.76
822.017	59.9
822.195	27.14
822.373	84.48
822.551	76.29
822.729	31.23
822.907	70.14
823.085	76.29
823.262	86.53
823.44	68.09
823.618	51.71
823.796	61.95
823.974	-46.59
824.152	31.23
824.329	8.7
824.507	53.76
824.685	68.09
824.863	57.86
825.04	18.94
825.218	41.47
825.396	-3.58
825.574	-15.87
825.751	25.09
825.929	109.05
826.107	39.42
826.284	-13.82
826.462	27.14
826.639	59.9
826.817	10.75
826.994	-1.54
827.172	64
827.349	68.09
827.527	16.9
827.704	51.71
827.882	-34.3
828.059	-1.54
828.237	27.14
828.414	27.14
828.591	39.42
828.769	72.19
828.946	57.86
829.124	102.91
829.301	86.53
829.478	49.66
829.655	-3.58
829.833	76.29
830.01	20.99
830.187	29.18
830.364	23.04
830.542	29.18
830.719	98.81
830.896	70.14
831.073	23.04
831.25	129.53
831.427	0.51
831.604	92.67
831.782	6.66
831.959	92.67
832.136	27.14
832.313	59.9
832.49	6.66
832.667	20.99
832.844	66.05
833.021	37.38
833.198	-5.63
833.374	27.14
833.551	25.09
833.728	-17.92
833.905	0.51
834.082	2.56
834.259	-75.26
834.436	20.99
834.612	16.9
834.789	78.33
834.966	-9.73
835.143	57.86
835.319	68.09
835.496	82.43
835.673	31.23
835.85	51.71
836.026	39.42
836.203	39.42
836.38	31.23
836.556	94.72
836.733	35.33
836.909	4.61
837.086	-9.73
837.262	61.95
837.439	27.14
837.616	4.61
837.792	12.8
837.968	12.8
838.145	150.01
838.321	10.75
838.498	41.47
838.674	12.8
838.851	-32.26
839.027	39.42
839.203	43.52
839.38	51.71
839.556	-1.54
839.732	29.18
839.909	-13.82
840.085	55.81
840.261	4.61
840.437	43.52
840.614	-15.87
840.79	35.33
840.966	20.99
841.142	-5.63
841.318	-62.98
841.494	66.05
841.671	68.09
841.847	4.61
842.023	86.53
842.199	-3.58
842.375	61.95
842.551	49.66
842.727	8.7
842.903	78.33
843.079	18.94
843.255	25.09
843.431	64
843.607	31.23
843.783	-5.63
843.959	80.38
844.134	43.52
844.31	98.81
844.486	6.66
844.662	-13.82
844.838	10.75
845.013	31.23
845.189	94.72
845.365	33.28
845.541	-5.63
845.716	43.52
845.892	-17.92
846.068	43.52
846.244	-40.45
846.419	-5.63
846.595	66.05
846.77	-42.5
846.946	45.57
847.122	45.57
847.297	37.38
847.473	-42.5
847.648	6.66
847.824	-48.64
847.999	-26.11
848.175	23.04
848.35	12.8
848.526	-34.3
848.701	47.62
848.876	35.33
849.052	10.75
849.227	-44.54
849.403	29.18
849.578	-79.36
849.753	-19.97
849.929	68.09
850.104	74.24
850.279	29.18
850.454	72.19
850.63	47.62
850.805	6.66
850.98	23.04
851.155	6.66
851.33	23.04
851.505	-71.17
851.681	72.19
851.856	35.33
852.031	66.05
852.206	2.56
852.381	35.33
852.556	4.61
852.731	31.23
852.906	20.99
853.081	80.38
853.256	-38.4
853.431	-46.59
853.606	66.05
853.781	6.66
853.956	29.18
854.131	-13.82
854.305	37.38
854.48	104.96
854.655	-28.16
854.83	55.81
855.005	49.66
855.18	-1.54
855.354	-46.59
855.529	53.76
855.704	-19.97
855.879	37.38
856.053	-19.97
856.228	37.38
856.403	51.71
856.577	-77.31
856.752	-30.21
856.926	-13.82
857.101	49.66
857.276	20.99
857.45	-38.4
857.625	29.18
857.799	18.94
857.974	86.53
858.148	10.75
858.323	18.94
858.497	-5.63
858.672	-13.82
858.846	-50.69
859.02	-13.82
859.195	-30.21
859.369	-24.06
859.543	20.99
859.718	-44.54
859.892	76.29
860.066	-22.02
860.241	-40.45
860.415	12.8
860.589	-28.16
860.763	14.85
860.938	-69.12
861.112	25.09
861.286	-38.4
861.46	39.42
861.634	61.95
861.808	-3.58
861.982	27.14
862.157	-48.64
862.331	-3.58
862.505	14.85
862.679	4.61
862.853	-28.16
863.027	57.86
863.201	39.42
863.375	-11.78
863.549	-30.21
863.722	8.7
863.896	41.47
864.07	2.56
864.244	35.33
864.418	41.47
864.592	0.51
864.766	-38.4
864.939	51.71
865.113	-40.45
865.287	16.9
865.461	-50.69
865.634	-9.73
865.808	-7.68
865.982	53.76
866.156	-62.98
866.329	-17.92
866.503	72.19
866.676	61.95
866.85	57.86
867.024	14.85
867.197	16.9
867.371	-36.35
867.544	61.95
867.718	-19.97
867.891	4.61
868.065	2.56
868.238	57.86
868.412	4.61
868.585	98.81
868.759	-9.73
868.932	-30.21
869.105	45.57
869.279	-11.78
869.452	35.33
869.625	10.75
869.799	-9.73
869.972	-30.21
870.145	-26.11
870.319	8.7
870.492	51.71
870.665	-36.35
870.838	-54.78
871.011	18.94
871.185	-22.02
871.358	-36.35
871.531	-1.54
871.704	-69.12
871.877	-5.63
872.05	8.7
872.223	-3.58
872.396	61.95
872.569	4.61
872.742	-30.21
872.915	-9.73
873.088	-13.82
873.261	61.95
873.434	-15.87
873.607	47.62
873.78	-9.73
873.953	2.56
874.126	47.62
874.299	70.14
874.471	-19.97
874.644	-5.63
874.817	39.42
874.99	41.47
875.163	59.9
875.335	74.24
875.508	-24.06
875.681	39.42
875.853	-3.58
876.026	-36.35
876.199	14.85
876.371	-1.54
876.544	35.33
876.717	41.47
876.889	-48.64
877.062	6.66
877.234	10.75
877.407	-19.97
877.579	80.38
877.752	-1.54
877.924	16.9
878.097	29.18
878.269	-22.02
878.442	2.56
878.614	4.61
878.786	33.28
878.959	-17.92
879.131	29.18
879.303	-1.54
879.476	-34.3
879.648	14.85
879.82	-9.73
879.993	-38.4
880.165	-7.68
880.337	-101.89
880.509	37.38
880.681	-38.4
880.854	-11.78
881.026	-9.73
881.198	-19.97
881.37	-30.21
881.542	64
881.714	10.75
881.886	-22.02
882.058	-3.58
882.23	-13.82
882.402	-28.16
882.574	96.77
882.746	37.38
882.918	-85.5
883.09	-65.02
883.262	16.9
883.434	-1.54
883.606	-19.97
883.778	-22.02
883.95	27.14
884.122	-40.45
884.293	18.94
884.465	33.28
884.637	47.62
884.809	25.09
884.98	0.51
885.152	8.7
885.324	-13.82
885.496	-38.4
885.667	-77.31
885.839	27.14
886.011	27.14
886.182	6.66
886.354	-1.54
886.525	27.14
886.697	41.47
886.869	-40.45
887.04	2.56
887.212	6.66
887.383	18.94
887.555	51.71
887.726	-28.16
887.897	2.56
888.069	8.7
888.24	-62.98
888.412	-34.3
888.583	43.52
888.754	76.29
888.926	0.51
889.097	-30.21
889.268	-65.02
889.44	-5.63
889.611	39.42
889.782	43.52
889.953	-77.31
890.125	18.94
890.296	-32.26
890.467	-15.87
890.638	-1.54
890.809	64
890.98	20.99
891.151	-34.3
891.323	-79.36
891.494	-9.73
891.665	27.14
891.836	-46.59
892.007	-17.92
892.178	-28.16
892.349	94.72
892.52	-89.6
892.691	12.8
892.862	45.57
893.032	-52.74
893.203	2.56
893.374	16.9
893.545	12.8
893.716	47.62
893.887	78.33
894.057	-56.83
894.228	-69.12
894.399	-32.26
894.57	6.66
894.74	-60.93
894.911	121.34
895.082	-11.78
895.253	20.99
895.423	31.23
895.594	33.28
895.764	16.9
895.935	86.53
896.106	43.52
896.276	55.81
896.447	-7.68
896.617	43.52
896.788	-22.02
896.958	-93.69
897.129	-3.58
897.299	14.85
897.47	-19.97
897.64	18.94
897.81	16.9
897.981	2.56
898.151	39.42
898.322	-67.07
898.492	10.75
898.662	-46.59
898.832	47.62
899.003	4.61
899.173	-50.69
899.343	-1.54
899.513	2.56
