Data from USB4F104151__146__13-58-22-355.txt Node

Date: Thu Mar 13 13:58:22 EDT 2025
User: louis
Spectrometer: USB4F10415
Trigger mode: 4
Integration Time (sec): 1.000000E-2
Scans to average: 1
Electric dark correction enabled: true
Nonlinearity correction enabled: false
Boxcar width: 0
XAxis mode: Wavelengths
Number of Pixels in Spectrum: 3648
>>>>>Begin Spectral Data<<<<<
178.204	33.62
178.424	33.62
178.644	33.62
178.864	-54.44
179.084	-48.3
179.304	-23.72
179.524	11.09
179.744	-15.53
179.964	-5.29
180.184	-62.63
180.404	31.57
180.624	-31.91
180.844	-15.53
181.064	21.33
181.283	78.68
181.503	-13.48
181.723	25.43
181.943	-31.91
182.163	0.85
182.383	-25.77
182.602	72.53
182.822	29.52
183.042	7
183.262	-11.43
183.482	17.24
183.701	17.24
183.921	60.24
184.141	27.48
184.361	-56.49
184.58	50
184.8	13.14
185.02	21.33
185.239	103.25
185.459	-33.96
185.679	-23.72
185.898	17.24
186.118	27.48
186.338	11.09
186.557	-11.43
186.777	-7.34
186.997	-36.01
187.216	-17.58
187.436	68.44
187.655	76.63
187.875	2.9
188.095	21.33
188.314	39.76
188.534	-9.39
188.753	9.05
188.973	17.24
189.192	13.14
189.412	-64.68
189.631	4.95
189.851	11.09
190.07	27.48
190.29	-7.34
190.509	68.44
190.729	-25.77
190.948	52.05
191.168	33.62
191.387	21.33
191.607	-23.72
191.826	33.62
192.045	31.57
192.265	37.72
192.484	-9.39
192.704	9.05
192.923	37.72
193.142	31.57
193.362	93.01
193.581	60.24
193.8	41.81
194.02	54.1
194.239	23.38
194.458	-7.34
194.678	54.1
194.897	11.09
195.116	47.96
195.335	-23.72
195.555	-19.63
195.774	74.58
195.993	64.34
196.212	25.43
196.432	7
196.651	-3.24
196.87	-44.2
197.089	64.34
197.308	-5.29
197.528	11.09
197.747	23.38
197.966	29.52
198.185	15.19
198.404	25.43
198.623	-3.24
198.842	31.57
199.062	39.76
199.281	70.48
199.5	33.62
199.719	0.85
199.938	70.48
200.157	56.15
200.376	31.57
200.595	58.2
200.814	70.48
201.033	-58.54
201.252	-56.49
201.471	33.62
201.69	93.01
201.909	-64.68
202.128	72.53
202.347	31.57
202.566	84.82
202.785	-36.01
203.004	-15.53
203.223	115.54
203.442	58.2
203.661	-11.43
203.879	-13.48
204.098	60.24
204.317	-5.29
204.536	74.58
204.755	39.76
204.974	-31.91
205.193	47.96
205.411	58.2
205.63	29.52
205.849	2.9
206.068	43.86
206.287	25.43
206.505	78.68
206.724	-1.19
206.943	45.91
207.162	54.1
207.381	-46.25
207.599	35.67
207.818	-42.15
208.037	45.91
208.255	103.25
208.474	80.72
208.693	-5.29
208.911	76.63
209.13	64.34
209.349	13.14
209.567	-15.53
209.786	29.52
210.005	-31.91
210.223	31.57
210.442	-21.67
210.661	72.53
210.879	17.24
211.098	82.77
211.316	25.43
211.535	2.9
211.753	66.39
211.972	99.16
212.191	7
212.409	37.72
212.628	9.05
212.846	84.82
213.065	-25.77
213.283	37.72
213.502	-38.06
213.72	60.24
213.938	25.43
214.157	25.43
214.375	43.86
214.594	-5.29
214.812	88.92
215.031	2.9
215.249	-5.29
215.467	19.29
215.686	4.95
215.904	4.95
216.122	43.86
216.341	33.62
216.559	0.85
216.778	99.16
216.996	43.86
217.214	58.2
217.432	-48.3
217.651	-7.34
217.869	0.85
218.087	50
218.306	37.72
218.524	-5.29
218.742	-58.54
218.96	25.43
219.179	93.01
219.397	-44.2
219.615	43.86
219.833	-13.48
220.051	17.24
220.27	84.82
220.488	88.92
220.706	56.15
220.924	-7.34
221.142	0.85
221.36	52.05
221.578	41.81
221.796	-13.48
222.015	31.57
222.233	-7.34
222.451	-9.39
222.669	25.43
222.887	60.24
223.105	25.43
223.323	23.38
223.541	35.67
223.759	60.24
223.977	27.48
224.195	70.48
224.413	33.62
224.631	113.49
224.849	2.9
225.067	47.96
225.285	-23.72
225.503	-29.87
225.721	9.05
225.939	-21.67
226.157	43.86
226.375	33.62
226.592	-36.01
226.81	17.24
227.028	52.05
227.246	41.81
227.464	56.15
227.682	76.63
227.9	-54.44
228.117	45.91
228.335	60.24
228.553	-21.67
228.771	25.43
228.989	37.72
229.206	95.06
229.424	39.76
229.642	-42.15
229.86	-1.19
230.077	47.96
230.295	80.72
230.513	29.52
230.731	33.62
230.948	60.24
231.166	58.2
231.384	70.48
231.601	52.05
231.819	7
232.037	43.86
232.254	23.38
232.472	-21.67
232.689	-19.63
232.907	41.81
233.125	39.76
233.342	0.85
233.56	29.52
233.777	17.24
233.995	39.76
234.213	41.81
234.43	17.24
234.648	23.38
234.865	54.1
235.083	74.58
235.3	17.24
235.518	60.24
235.735	17.24
235.953	66.39
236.17	-3.24
236.388	2.9
236.605	0.85
236.822	23.38
237.04	39.76
237.257	4.95
237.475	-15.53
237.692	9.05
237.909	23.38
238.127	27.48
238.344	50
238.562	50
238.779	4.95
238.996	29.52
239.214	-11.43
239.431	9.05
239.648	-13.48
239.865	9.05
240.083	15.19
240.3	21.33
240.517	35.67
240.735	-1.19
240.952	17.24
241.169	-23.72
241.386	7
241.603	35.67
241.821	-40.11
242.038	43.86
242.255	-33.96
242.472	31.57
242.689	-23.72
242.907	62.29
243.124	4.95
243.341	-46.25
243.558	-36.01
243.775	7
243.992	-15.53
244.209	23.38
244.426	31.57
244.643	33.62
244.86	62.29
245.078	37.72
245.295	17.24
245.512	47.96
245.729	-23.72
245.946	27.48
246.163	0.85
246.38	35.67
246.597	-3.24
246.814	11.09
247.031	17.24
247.248	17.24
247.464	58.2
247.681	64.34
247.898	50
248.115	-19.63
248.332	35.67
248.549	-5.29
248.766	-23.72
248.983	4.95
249.2	15.19
249.417	25.43
249.633	41.81
249.85	31.57
250.067	2.9
250.284	37.72
250.501	-19.63
250.717	62.29
250.934	29.52
251.151	19.29
251.368	-38.06
251.585	23.38
251.801	25.43
252.018	23.38
252.235	60.24
252.451	29.52
252.668	-11.43
252.885	27.48
253.102	-7.34
253.318	19.29
253.535	68.44
253.752	111.44
253.968	13.14
254.185	-3.24
254.401	-50.35
254.618	-27.82
254.835	60.24
255.051	-29.87
255.268	11.09
255.484	56.15
255.701	70.48
255.917	97.11
256.134	64.34
256.351	64.34
256.567	-11.43
256.784	-13.48
257	-11.43
257.217	-44.2
257.433	17.24
257.65	39.76
257.866	-29.87
258.082	70.48
258.299	-27.82
258.515	31.57
258.732	-5.29
258.948	50
259.165	-48.3
259.381	17.24
259.597	-15.53
259.814	-23.72
260.03	21.33
260.246	-46.25
260.463	70.48
260.679	-36.01
260.895	25.43
261.112	29.52
261.328	-31.91
261.544	7
261.761	-7.34
261.977	47.96
262.193	52.05
262.409	-19.63
262.626	101.2
262.842	45.91
263.058	62.29
263.274	17.24
263.49	-25.77
263.707	13.14
263.923	-52.39
264.139	9.05
264.355	25.43
264.571	60.24
264.787	37.72
265.004	-15.53
265.22	33.62
265.436	15.19
265.652	70.48
265.868	84.82
266.084	43.86
266.3	31.57
266.516	-1.19
266.732	41.81
266.948	43.86
267.164	68.44
267.38	39.76
267.596	-15.53
267.812	21.33
268.028	70.48
268.244	2.9
268.46	-15.53
268.676	-48.3
268.892	93.01
269.108	37.72
269.324	17.24
269.54	2.9
269.756	84.82
269.972	37.72
270.188	43.86
270.403	-11.43
270.619	52.05
270.835	54.1
271.051	62.29
271.267	21.33
271.483	-62.63
271.698	23.38
271.914	-19.63
272.13	25.43
272.346	-3.24
272.562	4.95
272.777	74.58
272.993	29.52
273.209	0.85
273.425	15.19
273.64	-54.44
273.856	31.57
274.072	66.39
274.287	-40.11
274.503	-58.54
274.719	60.24
274.934	50
275.15	4.95
275.366	27.48
275.581	7
275.797	-7.34
276.012	-13.48
276.228	37.72
276.444	33.62
276.659	58.2
276.875	39.76
277.09	103.25
277.306	52.05
277.521	93.01
277.737	-5.29
277.952	35.67
278.168	27.48
278.383	82.77
278.599	-27.82
278.814	25.43
279.03	11.09
279.245	-3.24
279.461	0.85
279.676	17.24
279.892	-7.34
280.107	27.48
280.322	56.15
280.538	29.52
280.753	64.34
280.969	33.62
281.184	-17.58
281.399	66.39
281.615	-33.96
281.83	111.44
282.045	19.29
282.26	66.39
282.476	31.57
282.691	82.77
282.906	17.24
283.122	21.33
283.337	4.95
283.552	50
283.767	-52.39
283.983	50
284.198	47.96
284.413	27.48
284.628	7
284.843	-9.39
285.058	33.62
285.274	-25.77
285.489	37.72
285.704	19.29
285.919	0.85
286.134	-29.87
286.349	29.52
286.564	43.86
286.779	-13.48
286.995	15.19
287.21	45.91
287.425	70.48
287.64	41.81
287.855	50
288.07	21.33
288.285	-21.67
288.5	76.63
288.715	13.14
288.93	41.81
289.145	19.29
289.36	25.43
289.575	68.44
289.79	-27.82
290.004	43.86
290.219	66.39
290.434	17.24
290.649	4.95
290.864	23.38
291.079	25.43
291.294	35.67
291.509	29.52
291.724	15.19
291.938	-13.48
292.153	52.05
292.368	-54.44
292.583	-23.72
292.798	-29.87
293.012	47.96
293.227	-23.72
293.442	0.85
293.657	0.85
293.871	17.24
294.086	37.72
294.301	31.57
294.516	11.09
294.73	41.81
294.945	31.57
295.16	70.48
295.374	78.68
295.589	80.72
295.804	27.48
296.018	-9.39
296.233	41.81
296.447	-52.39
296.662	43.86
296.877	78.68
297.091	-31.91
297.306	66.39
297.52	21.33
297.735	25.43
297.949	-21.67
298.164	58.2
298.378	99.16
298.593	-13.48
298.807	-48.3
299.022	41.81
299.236	0.85
299.451	-9.39
299.665	54.1
299.88	86.87
300.094	13.14
300.309	103.25
300.523	-40.11
300.737	-48.3
300.952	58.2
301.166	60.24
301.381	19.29
301.595	68.44
301.809	37.72
302.024	15.19
302.238	-50.35
302.452	33.62
302.667	2.9
302.881	74.58
303.095	31.57
303.309	70.48
303.524	-5.29
303.738	19.29
303.952	50
304.166	33.62
304.381	7
304.595	99.16
304.809	-40.11
305.023	43.86
305.237	78.68
305.452	50
305.666	37.72
305.88	0.85
306.094	66.39
306.308	52.05
306.522	-5.29
306.736	76.63
306.95	41.81
307.164	58.2
307.379	84.82
307.593	50
307.807	-33.96
308.021	97.11
308.235	86.87
308.449	13.14
308.663	-19.63
308.877	43.86
309.091	11.09
309.305	76.63
309.519	-64.68
309.733	19.29
309.947	-7.34
310.161	9.05
310.374	-29.87
310.588	52.05
310.802	60.24
311.016	78.68
311.23	0.85
311.444	19.29
311.658	62.29
311.872	23.38
312.085	7
312.299	60.24
312.513	35.67
312.727	13.14
312.941	113.49
313.154	82.77
313.368	70.48
313.582	86.87
313.796	25.43
314.009	-9.39
314.223	56.15
314.437	50
314.651	-9.39
314.864	37.72
315.078	43.86
315.292	29.52
315.505	27.48
315.719	76.63
315.933	60.24
316.146	11.09
316.36	60.24
316.573	90.96
316.787	58.2
317.001	129.88
317.214	-42.15
317.428	-40.11
317.641	45.91
317.855	60.24
318.068	72.53
318.282	70.48
318.495	21.33
318.709	78.68
318.922	47.96
319.136	27.48
319.349	-38.06
319.563	64.34
319.776	-1.19
319.99	7
320.203	0.85
320.417	17.24
320.63	82.77
320.843	52.05
321.057	23.38
321.27	17.24
321.483	-46.25
321.697	43.86
321.91	62.29
322.124	9.05
322.337	-19.63
322.55	50
322.763	47.96
322.977	25.43
323.19	4.95
323.403	2.9
323.617	4.95
323.83	50
324.043	27.48
324.256	70.48
324.469	82.77
324.683	0.85
324.896	93.01
325.109	15.19
325.322	66.39
325.535	33.62
325.748	56.15
325.962	17.24
326.175	45.91
326.388	37.72
326.601	17.24
326.814	39.76
327.027	60.24
327.24	17.24
327.453	-9.39
327.666	52.05
327.879	45.91
328.092	-42.15
328.305	41.81
328.518	-7.34
328.731	35.67
328.944	25.43
329.157	19.29
329.37	19.29
329.583	93.01
329.796	58.2
330.009	-44.2
330.222	43.86
330.435	47.96
330.648	-3.24
330.861	33.62
331.073	-17.58
331.286	111.44
331.499	54.1
331.712	11.09
331.925	82.77
332.138	-9.39
332.35	103.25
332.563	60.24
332.776	47.96
332.989	33.62
333.202	9.05
333.414	41.81
333.627	58.2
333.84	0.85
334.053	88.92
334.265	23.38
334.478	4.95
334.691	68.44
334.903	90.96
335.116	37.72
335.329	35.67
335.541	45.91
335.754	84.82
335.966	-23.72
336.179	74.58
336.392	50
336.604	-42.15
336.817	21.33
337.029	64.34
337.242	41.81
337.454	9.05
337.667	9.05
337.88	11.09
338.092	-42.15
338.305	-27.82
338.517	35.67
338.729	64.34
338.942	88.92
339.154	33.62
339.367	62.29
339.579	113.49
339.792	-87.21
340.004	113.49
340.217	-7.34
340.429	68.44
340.641	15.19
340.854	86.87
341.066	62.29
341.278	93.01
341.491	88.92
341.703	31.57
341.915	-19.63
342.128	45.91
342.34	-15.53
342.552	-3.24
342.764	7
342.977	43.86
343.189	58.2
343.401	90.96
343.613	60.24
343.826	64.34
344.038	47.96
344.25	60.24
344.462	25.43
344.674	76.63
344.886	70.48
345.099	35.67
345.311	-25.77
345.523	25.43
345.735	9.05
345.947	21.33
346.159	25.43
346.371	9.05
346.583	19.29
346.795	62.29
347.007	80.72
347.219	11.09
347.431	29.52
347.643	23.38
347.855	70.48
348.067	43.86
348.279	41.81
348.491	27.48
348.703	-19.63
348.915	84.82
349.127	41.81
349.339	13.14
349.551	86.87
349.763	86.87
349.975	-19.63
350.187	-25.77
350.399	17.24
350.61	21.33
350.822	17.24
351.034	13.14
351.246	88.92
351.458	41.81
351.669	15.19
351.881	78.68
352.093	76.63
352.305	19.29
352.517	99.16
352.728	70.48
352.94	-5.29
353.152	90.96
353.363	33.62
353.575	41.81
353.787	11.09
353.999	64.34
354.21	74.58
354.422	15.19
354.633	39.76
354.845	-23.72
355.057	33.62
355.268	45.91
355.48	-1.19
355.692	21.33
355.903	97.11
356.115	25.43
356.326	-1.19
356.538	-15.53
356.749	43.86
356.961	62.29
357.172	41.81
357.384	-11.43
357.595	9.05
357.807	27.48
358.018	47.96
358.23	37.72
358.441	11.09
358.653	7
358.864	-36.01
359.075	45.91
359.287	-1.19
359.498	25.43
359.709	17.24
359.921	43.86
360.132	23.38
360.344	50
360.555	52.05
360.766	47.96
360.977	-5.29
361.189	33.62
361.4	52.05
361.611	78.68
361.823	60.24
362.034	52.05
362.245	84.82
362.456	4.95
362.667	43.86
362.879	25.43
363.09	-21.67
363.301	164.69
363.512	70.48
363.723	31.57
363.935	-17.58
364.146	86.87
364.357	-29.87
364.568	37.72
364.779	31.57
364.99	82.77
365.201	58.2
365.412	50
365.623	9.05
365.834	37.72
366.045	35.67
366.256	-11.43
366.467	9.05
366.678	58.2
366.889	43.86
367.1	-23.72
367.311	-7.34
367.522	41.81
367.733	21.33
367.944	11.09
368.155	-3.24
368.366	-7.34
368.577	31.57
368.788	37.72
368.999	35.67
369.209	60.24
369.42	60.24
369.631	95.06
369.842	9.05
370.053	-7.34
370.264	11.09
370.474	0.85
370.685	15.19
370.896	70.48
371.107	54.1
371.317	82.77
371.528	0.85
371.739	142.16
371.95	33.62
372.16	101.2
372.371	4.95
372.582	74.58
372.792	62.29
373.003	25.43
373.214	-19.63
373.424	17.24
373.635	39.76
373.846	31.57
374.056	21.33
374.267	54.1
374.477	25.43
374.688	41.81
374.898	-5.29
375.109	15.19
375.319	95.06
375.53	41.81
375.74	15.19
375.951	76.63
376.161	41.81
376.372	15.19
376.582	35.67
376.793	119.64
377.003	21.33
377.214	-15.53
377.424	84.82
377.635	64.34
377.845	37.72
378.055	25.43
378.266	-23.72
378.476	41.81
378.686	52.05
378.897	33.62
379.107	-40.11
379.317	45.91
379.528	15.19
379.738	41.81
379.948	-23.72
380.158	74.58
380.369	31.57
380.579	45.91
380.789	133.97
380.999	17.24
381.21	50
381.42	62.29
381.63	0.85
381.84	62.29
382.05	-11.43
382.261	27.48
382.471	50
382.681	-13.48
382.891	54.1
383.101	13.14
383.311	-21.67
383.521	-29.87
383.731	4.95
383.941	27.48
384.151	0.85
384.361	74.58
384.571	41.81
384.781	62.29
384.991	66.39
385.201	117.59
385.411	99.16
385.621	-17.58
385.831	90.96
386.041	17.24
386.251	80.72
386.461	50
386.671	60.24
386.881	66.39
387.091	0.85
387.301	35.67
387.511	43.86
387.72	39.76
387.93	80.72
388.14	23.38
388.35	7
388.56	41.81
388.769	19.29
388.979	95.06
389.189	70.48
389.399	95.06
389.609	54.1
389.818	41.81
390.028	74.58
390.238	62.29
390.447	45.91
390.657	74.58
390.867	-7.34
391.076	-38.06
391.286	113.49
391.496	33.62
391.705	115.54
391.915	15.19
392.125	82.77
392.334	127.83
392.544	7
392.753	17.24
392.963	93.01
393.172	68.44
393.382	74.58
393.591	35.67
393.801	52.05
394.01	88.92
394.22	50
394.429	23.38
394.639	47.96
394.848	123.73
395.058	72.53
395.267	21.33
395.477	82.77
395.686	82.77
395.895	70.48
396.105	19.29
396.314	99.16
396.524	78.68
396.733	84.82
396.942	74.58
397.152	35.67
397.361	-9.39
397.57	86.87
397.78	146.26
397.989	72.53
398.198	82.77
398.407	93.01
398.617	101.2
398.826	23.38
399.035	56.15
399.244	23.38
399.453	68.44
399.663	99.16
399.872	127.83
400.081	50
400.29	154.45
400.499	76.63
400.708	60.24
400.917	33.62
401.127	25.43
401.336	138.07
401.545	170.83
401.754	62.29
401.963	129.88
402.172	138.07
402.381	50
402.59	72.53
402.799	97.11
403.008	70.48
403.217	39.76
403.426	64.34
403.635	27.48
403.844	129.88
404.053	101.2
404.262	99.16
404.471	90.96
404.68	90.96
404.888	62.29
405.097	125.78
405.306	127.83
405.515	189.27
405.724	101.2
405.933	166.74
406.142	181.07
406.35	187.22
406.559	80.72
406.768	156.5
406.977	99.16
407.185	144.21
407.394	148.31
407.603	181.07
407.812	181.07
408.02	201.55
408.229	78.68
408.438	174.93
408.646	111.44
408.855	170.83
409.064	148.31
409.272	213.84
409.481	154.45
409.69	181.07
409.898	240.47
410.107	170.83
410.315	226.13
410.524	291.66
410.733	140.12
410.941	179.03
411.15	213.84
411.358	297.81
411.567	344.91
411.775	291.66
411.984	310.1
412.192	262.99
412.401	353.1
412.609	262.99
412.818	346.96
413.026	365.39
413.234	355.15
413.443	344.91
413.651	402.26
413.86	422.73
414.068	340.82
414.276	385.87
414.485	389.97
414.693	443.21
414.901	443.21
415.11	426.83
415.318	510.8
415.526	545.61
415.734	508.75
415.943	625.48
416.151	562
416.359	600.91
416.567	686.92
416.776	617.29
416.984	713.55
417.192	658.25
417.4	723.79
417.608	711.5
417.817	713.55
418.025	854.86
418.233	770.89
418.441	762.7
418.649	729.93
418.857	858.95
419.065	932.68
419.273	910.15
419.481	977.73
419.689	965.45
419.897	1067.85
420.105	1078.08
420.313	1090.37
420.521	1022.79
420.729	1123.14
420.937	1190.72
421.145	1209.15
421.353	1313.6
421.561	1436.48
421.769	1387.33
421.977	1403.71
422.185	1379.14
422.393	1530.69
422.601	1524.54
422.809	1594.17
423.017	1682.24
423.224	1600.32
423.432	1633.08
423.64	1712.96
423.848	1919.8
424.056	1772.35
424.263	1899.32
424.471	2032.44
424.679	2081.59
424.887	2100.02
425.094	2200.37
425.302	2239.28
425.51	2313.01
425.718	2319.15
425.925	2417.46
426.133	2583.34
426.341	2706.22
426.548	2779.95
426.756	2681.64
426.964	2777.9
427.171	2851.63
427.379	2921.26
427.586	3126.05
427.794	3140.39
428.001	3113.77
428.209	3371.81
428.417	3324.71
428.624	3549.98
428.832	3457.82
429.039	3539.74
429.247	3670.81
429.454	3820.32
429.662	4256.53
429.869	3896.09
430.076	4180.76
430.284	4088.6
430.491	4201.24
430.699	4508.43
430.906	4444.95
431.114	4467.47
431.321	4696.85
431.528	4629.26
431.736	5204.74
431.943	5094.15
432.15	5131.02
432.358	5247.75
432.565	5485.31
432.772	5452.55
432.979	5651.2
433.187	5761.79
433.394	5786.37
433.601	6062.84
433.808	6451.95
434.016	6202.1
434.223	6464.24
434.43	6849.26
434.637	6777.58
434.844	7049.96
435.052	7189.22
435.259	7185.13
435.466	7502.56
435.673	7471.84
435.88	7652.06
436.087	8098.52
436.294	8055.51
436.501	7979.74
436.708	8229.59
436.915	8450.77
437.122	8592.08
437.329	8809.17
437.537	9003.72
437.743	9210.57
437.95	9038.54
438.157	9585.35
438.364	9880.25
438.571	9659.07
438.778	10078.91
438.985	10744.5
439.192	10414.77
439.399	10779.31
439.606	10355.38
439.813	11215.53
440.02	11741.86
440.227	11625.12
440.433	11711.14
440.64	12075.68
440.847	11694.75
441.054	12028.57
441.261	12946.06
441.467	12901.01
441.674	13040.27
441.881	13460.1
442.088	13310.6
442.294	13357.71
442.501	13628.04
442.708	13732.48
442.914	14604.92
443.121	15094.38
443.328	14613.11
443.534	15577.7
443.741	15268.46
443.948	15100.53
444.154	16108.13
444.361	15954.53
444.568	16167.52
444.774	16196.19
444.981	16319.07
445.187	16493.15
445.394	17523.27
445.6	17295.95
445.807	18942.52
446.013	18172.48
446.22	18348.61
446.426	19030.58
446.633	19223.09
446.839	20109.86
447.046	19022.39
447.252	20128.29
447.459	19952.16
447.665	19874.34
447.871	20744.73
448.078	21864.97
448.284	20982.29
448.491	21117.46
448.697	22249.99
448.903	22319.62
449.11	22528.51
449.316	22313.47
449.522	22657.53
449.728	23054.84
449.935	23241.2
450.141	23427.57
450.347	24066.53
450.553	22987.25
450.76	23206.39
450.966	24011.24
451.172	23859.69
451.378	24371.68
451.584	23953.9
451.791	24525.28
451.997	24510.94
452.203	24674.78
452.409	24846.81
452.615	24541.66
452.821	23579.12
453.027	23380.46
453.233	24869.34
453.44	23611.89
453.646	23818.73
453.852	23962.09
454.058	24574.43
454.264	23439.86
454.47	24170.98
454.676	23536.11
454.882	24510.94
455.088	22362.62
455.294	22651.39
455.5	22733.31
455.705	22913.53
455.911	21854.73
456.117	21768.71
456.323	21527.05
456.529	20073
456.735	21041.68
456.941	20568.6
457.147	20191.78
457.352	19329.58
457.558	19452.46
457.764	19399.21
457.97	19106.35
458.176	18649.66
458.381	18573.88
458.587	17717.83
458.793	17752.65
458.999	16767.57
459.204	18063.94
459.41	17330.76
459.616	16491.1
459.821	16159.33
460.027	16259.68
460.233	16128.61
460.438	15078
460.644	15241.84
460.85	14529.14
461.055	14365.31
461.261	14551.67
461.466	13511.3
461.672	13013.65
461.878	13785.73
462.083	12968.59
462.289	12702.36
462.494	12534.42
462.7	11887.26
462.905	11467.43
463.111	12198.56
463.316	12096.16
463.522	11905.7
463.727	11960.99
463.932	11772.58
464.138	11911.84
464.343	11819.68
464.549	11557.54
464.754	11862.69
464.959	12051.1
465.165	11913.89
465.37	11250.35
465.575	10965.68
465.781	11514.53
465.986	11610.79
466.191	11236.01
466.397	10846.9
466.602	10328.76
466.807	10746.55
467.012	10767.03
467.218	10785.46
467.423	10676.91
467.628	10580.66
467.833	11051.69
468.038	10480.31
468.244	10388.15
468.449	10828.46
468.654	10232.51
468.859	10468.02
469.064	10068.67
469.269	10021.56
469.474	10115.77
469.679	10070.72
469.885	9870.01
470.09	9962.17
470.295	9956.03
470.5	9585.35
470.705	9790.14
470.91	9521.86
471.115	9368.26
471.32	9714.37
471.525	9509.57
471.73	9204.42
471.935	9145.03
472.139	8954.57
472.344	9140.94
472.549	8907.47
472.754	9054.92
472.959	8862.41
473.164	8456.92
473.369	8501.97
473.574	8538.84
473.778	8813.26
473.983	8446.68
474.188	8614.61
474.393	8217.3
474.598	8399.57
474.802	8157.91
475.007	8133.34
475.212	8157.91
475.417	7703.26
475.621	7713.5
475.826	7695.07
476.031	7684.83
476.235	7580.39
476.44	7717.6
476.645	7248.61
476.849	7590.63
477.054	7328.49
477.259	7090.92
477.463	7258.85
477.668	6892.27
477.872	7242.47
478.077	6990.57
478.282	7072.49
478.486	6845.16
478.691	6773.49
478.895	6765.29
479.1	6851.31
479.304	6724.33
479.509	6570.74
479.713	6859.5
479.918	6515.44
480.122	6370.04
480.326	6511.35
480.531	6607.6
480.735	6537.97
480.94	6331.12
481.144	6634.22
481.348	6380.28
481.553	6372.08
481.757	6224.63
481.961	6511.35
482.166	6728.43
482.37	6619.89
482.574	6226.68
482.778	6236.92
482.983	6324.98
483.187	6331.12
483.391	6337.27
483.595	6320.88
483.8	6277.88
484.004	6187.77
484.208	6347.51
484.412	6243.06
484.616	6413.04
484.821	6300.41
485.025	6236.92
485.229	6372.08
485.433	6185.72
485.637	6224.63
485.841	6345.46
486.045	6128.38
486.249	6300.41
486.453	6165.24
486.657	6361.84
486.861	6408.95
487.065	6206.2
487.269	6374.13
487.473	6320.88
487.677	6265.59
487.881	6314.74
488.085	6341.36
488.289	6367.99
488.493	6306.55
488.697	6404.85
488.901	6337.27
489.105	6269.69
489.309	6351.6
489.512	6220.53
489.716	6382.32
489.92	6443.76
490.124	6290.17
490.328	6343.41
490.531	6494.96
490.735	6376.18
490.939	6574.83
491.143	6345.46
491.346	6521.59
491.55	6611.7
491.754	6669.04
491.958	6710
492.161	6806.25
492.365	6705.9
492.569	6611.7
492.772	6464.24
492.976	6574.83
493.18	6830.83
493.383	6671.09
493.587	6945.52
493.79	7015.15
493.994	6888.17
494.197	7064.3
494.401	7160.55
494.605	7129.83
494.808	7250.66
495.012	7160.55
495.215	7324.39
495.419	7252.71
495.622	7328.49
495.825	7400.16
496.029	7367.4
496.232	7557.86
496.436	7512.8
496.639	7760.61
496.843	7682.78
497.046	7946.97
497.249	7957.21
497.453	8018.65
497.656	7979.74
497.859	8086.23
498.063	8166.1
498.266	8323.8
498.469	8327.89
498.673	8305.37
498.876	8643.28
499.079	8706.77
499.282	8518.36
499.485	8942.28
499.689	8913.61
499.892	8917.71
500.095	9073.35
500.298	9343.69
500.501	9329.35
500.705	9349.83
500.908	9683.65
501.111	9704.13
501.314	9568.96
501.517	9941.69
501.72	9931.45
501.923	9677.51
502.126	10255.03
502.329	10371.77
502.532	10146.49
502.735	10457.78
502.938	10699.44
503.141	10642.1
503.344	10963.63
503.547	10883.76
503.75	11094.7
503.953	11186.86
504.156	11512.49
504.359	11362.98
504.562	11444.9
504.765	11698.85
504.968	11993.76
505.17	12190.36
505.373	12167.84
505.576	12214.94
505.779	12311.19
505.982	12389.02
506.185	12759.7
506.387	12657.3
506.59	12628.63
506.793	13095.57
506.996	13042.32
507.198	13646.47
507.401	13517.45
507.604	13671.04
507.807	13795.97
508.009	14039.68
508.212	14135.93
508.415	14377.59
508.617	14498.42
508.82	14596.73
509.022	14523
509.225	14838.39
509.428	15385.19
509.63	14989.94
509.833	15299.18
510.035	15510.12
510.238	15665.77
510.44	15608.42
510.643	16200.29
510.845	16122.46
511.048	16081.5
511.25	16452.19
511.453	16894.55
511.655	17130.06
511.858	17035.86
512.06	16988.75
512.262	17414.73
512.465	17367.63
512.667	17896
512.87	18184.77
513.072	17947.2
513.274	18522.68
513.477	18502.2
513.679	18653.75
513.881	19065.39
514.084	18958.9
514.286	18993.72
514.488	19229.23
514.69	19853.86
514.893	19900.97
515.095	20048.42
515.297	20214.3
515.499	20294.18
515.701	20771.35
515.904	20695.58
516.106	21223.95
516.308	21158.42
516.51	21484.05
516.712	21727.75
516.914	21819.91
517.116	22309.38
517.318	22202.88
517.52	22467.07
517.722	22385.15
517.925	22790.65
518.127	23273.97
518.329	23243.25
518.531	23489.01
518.733	23777.77
518.935	24001
519.136	23847.4
519.338	24562.14
519.54	24388.07
519.742	24531.42
519.944	24820.19
520.146	25536.98
520.348	25223.64
520.55	25410
520.752	25612.75
520.954	26053.06
521.155	25846.22
521.357	26620.35
521.559	26851.77
521.761	27013.56
521.963	26919.35
522.164	26986.94
522.366	27388.34
522.568	27541.94
522.77	27576.75
522.971	28160.42
523.173	27982.25
523.375	28430.76
523.576	28141.99
523.778	28225.96
523.98	28696.99
524.181	28821.92
524.383	29002.14
524.584	29305.24
524.786	29149.59
524.988	29143.45
525.189	29471.12
525.391	30011.79
525.592	30060.94
525.794	29850
525.995	30210.44
526.197	30271.88
526.398	30497.16
526.6	30757.25
526.801	30753.15
527.003	30757.25
527.204	30966.14
527.406	30859.65
527.607	30865.79
527.808	31263.1
528.01	30708.1
528.211	31785.33
528.412	31916.4
528.614	31504.76
528.815	31848.82
529.016	32031.08
529.218	31938.93
529.419	31758.7
529.62	31943.02
529.822	31834.48
530.023	31961.45
530.224	31938.93
530.425	32305.51
530.626	31949.17
530.828	32131.44
531.029	32751.97
531.23	32156.01
531.431	32465.25
531.632	32387.43
531.833	32428.39
532.035	32289.13
532.236	32598.37
532.437	32792.93
532.638	32545.12
532.839	32686.43
533.04	32837.98
533.241	32553.32
533.442	32745.83
533.643	32649.57
533.844	32692.58
534.045	32930.14
534.246	32504.17
534.447	33243.48
534.648	32764.26
534.849	33147.23
535.05	32817.5
535.251	32792.93
535.451	32948.57
535.652	33075.55
535.853	33053.02
536.054	33302.87
536.255	33014.11
536.456	32678.24
536.657	33620.31
536.857	33296.73
537.058	32846.18
537.259	33323.35
537.46	33134.94
537.66	32928.09
537.861	33098.08
538.062	33347.93
538.263	33513.81
538.463	33282.39
538.664	33030.49
538.865	33261.91
539.065	33558.87
539.266	32969.05
539.466	33368.41
539.667	32868.7
539.868	33378.65
540.068	33272.15
540.269	32711.01
540.469	33618.26
540.67	33349.98
540.87	33292.63
541.071	33245.53
541.271	33202.52
541.472	33433.94
541.672	33042.78
541.873	33001.82
542.073	32866.66
542.274	33595.73
542.474	33202.52
542.675	32958.81
542.875	33550.68
543.075	33065.31
543.276	32788.83
543.476	33450.33
543.676	33149.28
543.877	33446.23
544.077	32874.85
544.277	33010.01
544.478	32985.44
544.678	33466.71
544.878	33061.21
545.078	33309.02
545.279	33227.1
545.479	33044.83
545.679	33153.37
545.879	33370.46
546.079	33341.78
546.28	33003.87
546.48	33309.02
546.68	33233.24
546.88	33259.87
547.08	33048.93
547.28	33104.22
547.48	32792.93
547.68	33198.43
547.88	32915.81
548.081	33022.3
548.281	32854.37
548.481	32997.73
548.681	33544.53
548.881	33030.49
549.081	33028.45
549.28	33216.86
549.48	33261.91
549.68	33106.27
549.88	33071.45
550.08	33040.73
550.28	33296.73
550.48	32985.44
550.68	33364.31
550.88	33167.71
551.08	32911.71
551.279	33218.91
551.479	32858.46
551.679	32696.67
551.879	32754.02
552.079	33304.92
552.278	33155.42
552.478	33034.59
552.678	33018.21
552.878	33298.78
553.077	32686.43
553.277	32614.76
553.477	33141.08
553.676	33001.82
553.876	32708.96
554.076	32694.63
554.275	32850.27
554.475	32575.84
554.674	32696.67
554.874	32596.32
555.074	32612.71
555.273	32770.4
555.473	32868.7
555.672	32465.25
555.872	32622.95
556.071	32665.95
556.271	32719.2
556.47	32317.8
556.67	32135.53
556.869	32360.81
557.068	32653.67
557.268	32467.3
557.467	32188.78
557.667	32434.53
557.866	32698.72
558.065	32502.12
558.265	32096.62
558.464	31883.63
558.663	32469.35
558.863	31975.79
559.062	32405.86
559.261	31852.91
559.461	32520.55
559.66	32051.56
559.859	31859.06
560.058	31615.35
560.258	31897.97
560.457	31844.72
560.656	32041.32
560.855	31646.07
561.054	31594.87
561.253	31678.83
561.453	31732.08
561.652	31830.38
561.851	31859.06
562.05	31240.57
562.249	31259
562.448	31512.95
562.647	31322.49
562.846	31142.27
563.045	31408.5
563.244	30898.56
563.443	31476.09
563.642	30626.18
563.841	31263.1
564.04	31353.21
564.239	31572.34
564.438	30740.86
564.637	31203.71
564.836	31127.93
565.035	30540.16
565.234	30415.24
565.432	30820.74
565.631	30562.69
565.83	30972.28
566.029	30728.58
566.228	30388.61
566.427	30273.93
566.625	30138.76
566.824	29938.06
567.023	30568.83
567.222	30212.49
567.42	30536.07
567.619	30071.18
567.818	30169.48
568.016	30022.03
568.215	30122.38
568.414	29751.7
568.612	30273.93
568.811	30026.12
569.01	29858.19
569.208	29397.4
569.407	29510.04
569.605	29204.89
569.804	30069.13
570.002	29397.4
570.201	29983.12
570.4	29168.02
570.598	29245.85
570.797	29133.21
570.995	29290.9
571.193	29045.15
571.392	29020.57
571.59	28690.85
571.789	28844.45
571.987	28783.01
572.186	28780.96
572.384	28529.06
572.582	28830.11
572.781	28477.86
572.979	27910.57
573.177	28553.63
573.376	28758.43
573.574	28426.66
573.772	28359.08
573.971	27994.54
574.169	27996.59
574.367	27877.8
574.565	28152.23
574.763	27554.22
574.962	27349.43
575.16	27388.34
575.358	27818.41
575.556	27269.56
575.754	27482.55
575.952	26945.98
576.151	27531.7
576.349	27005.37
576.547	27085.24
576.745	27394.48
576.943	27040.18
577.141	26827.2
577.339	27273.65
577.537	26800.57
577.735	26606.02
577.933	26722.75
578.131	26829.24
578.329	26692.03
578.527	26180.04
578.725	26622.4
578.923	26538.43
579.121	26157.51
579.319	26237.38
579.516	25905.61
579.714	26051.02
579.912	25760.2
580.11	25885.13
580.308	25921.99
580.506	25926.09
580.704	25528.78
580.901	25459.15
581.099	25762.25
581.297	25688.53
581.495	25465.3
581.692	25301.46
581.89	25160.15
582.088	25618.89
582.285	25074.13
582.483	25377.23
582.681	25278.93
582.878	25242.07
583.076	24664.54
583.274	25340.37
583.471	24758.75
583.669	24887.77
583.866	24373.73
584.064	25002.46
584.262	24445.41
584.459	24619.49
584.657	24144.36
584.854	24379.87
585.052	24044.01
585.249	24590.81
585.447	24375.78
585.644	23964.14
585.841	23874.03
586.039	24422.88
586.236	24021.48
586.434	23380.46
586.631	23568.88
586.828	23480.82
587.026	23783.91
587.223	23609.84
587.42	23280.11
587.618	23679.47
587.815	23390.7
588.012	23265.78
588.21	23257.59
588.407	23378.42
588.604	22835.7
588.801	22915.58
588.999	22985.21
589.196	22913.53
589.393	23167.48
589.59	22618.62
589.787	22823.42
589.984	22686.2
590.182	22374.91
590.379	22704.63
590.576	22440.45
590.773	22196.74
590.97	22276.61
591.167	22141.44
591.364	22102.53
591.561	22323.71
591.758	22082.05
591.955	21975.56
592.152	22106.63
592.349	21697.03
592.546	22194.69
592.743	21756.43
592.94	21647.88
593.137	21809.67
593.334	21731.85
593.531	21393.93
593.727	21654.03
593.924	21613.07
594.121	21238.29
594.318	21557.77
594.515	21064.21
594.712	21412.37
594.908	21139.99
595.105	21367.31
595.302	20877.85
595.499	21215.76
595.696	20906.52
595.892	20697.63
596.089	21096.98
596.286	21002.77
596.482	21051.92
596.679	20699.67
596.876	20824.6
597.072	20564.51
597.269	20773.4
597.466	20302.37
597.662	20265.5
597.859	20312.61
598.055	20566.56
598.252	20159.01
598.448	20220.45
598.645	20185.63
598.841	19984.93
599.038	20101.67
599.234	19968.55
599.431	19653.16
599.627	19913.25
599.824	19827.24
600.02	19601.96
600.217	19657.26
600.413	19614.25
600.609	19587.63
600.806	19421.74
601.002	19208.75
601.198	19526.19
601.395	19401.26
601.591	19343.92
601.787	19001.91
601.984	18938.42
602.18	19343.92
602.376	19186.22
602.572	18930.23
602.769	18825.78
602.965	18715.19
603.161	18827.83
603.357	18692.66
603.553	18424.38
603.75	18563.64
603.946	18620.99
604.142	18819.64
604.338	18147.9
604.534	18735.67
604.73	18072.13
604.926	18373.18
605.122	18336.32
605.318	18055.75
605.514	17861.19
605.71	17961.54
605.906	17746.5
606.102	17830.47
606.298	18115.14
606.494	17592.9
606.69	17918.53
606.886	17840.71
607.082	17543.75
607.278	17508.94
607.474	17570.38
607.67	17553.99
607.866	17218.13
608.062	17785.41
608.257	17402.44
608.453	17465.93
608.649	17300.05
608.845	17048.15
609.041	17203.79
609.236	17019.47
609.432	17097.3
609.628	17187.41
609.824	16994.9
610.019	16935.51
610.215	16910.93
610.411	16878.16
610.606	16630.36
610.802	16855.64
610.998	16753.24
611.193	16818.77
611.389	16642.65
611.584	16620.12
611.78	16505.43
611.976	16357.98
612.171	16460.38
612.367	16792.15
612.562	16429.66
612.758	16110.18
612.953	16183.9
613.149	16597.59
613.344	16155.23
613.539	16376.41
613.735	16255.58
613.93	16378.46
614.126	16220.77
614.321	16400.99
614.517	16030.3
614.712	16196.19
614.907	15950.43
615.103	15991.39
615.298	15805.03
615.493	16020.06
615.688	15731.3
615.884	16190.05
616.079	15667.81
616.274	15899.23
616.47	15811.17
616.665	15661.67
616.86	15508.07
617.055	15606.38
617.25	15520.36
617.445	15553.13
617.641	15254.12
617.836	15432.3
618.031	15196.78
618.226	15430.25
618.421	15092.34
618.616	15510.12
618.811	15004.27
619.006	15370.86
619.201	14963.31
619.396	15067.76
619.591	14807.67
619.786	14955.12
619.981	14701.17
620.176	14981.74
620.371	14688.89
620.566	14606.97
620.761	14740.08
620.956	14621.3
621.151	14371.45
621.346	14226.04
621.541	14099.07
621.735	14191.23
621.93	14015.1
622.125	14086.78
622.32	14189.18
622.515	13947.52
622.709	13910.66
622.904	13728.39
623.099	13752.96
623.294	13902.47
623.488	13582.98
623.683	13826.69
623.878	13286.03
624.072	13388.43
624.267	13548.17
624.462	13232.78
624.656	13099.66
624.851	13259.4
625.046	13279.88
625.24	12948.11
625.435	12577.43
625.629	12804.75
625.824	12864.15
626.018	12534.42
626.213	12395.16
626.407	12702.36
626.602	12274.33
626.796	12665.49
626.991	12743.31
627.185	12499.61
627.38	12227.23
627.574	12331.67
627.768	12063.39
627.963	11891.36
628.157	11866.78
628.352	11985.57
628.546	11795.11
628.74	12081.82
628.935	11786.91
629.129	11633.32
629.323	11274.92
629.517	11666.08
629.712	11471.53
629.906	11465.38
630.1	11338.41
630.294	11502.25
630.489	11176.62
630.683	11319.98
630.877	10902.19
631.071	11156.14
631.265	11051.69
631.459	10977.97
631.653	10748.59
631.848	10830.51
632.042	10728.11
632.236	10756.79
632.43	10889.9
632.624	10744.5
632.818	10670.77
633.012	10447.54
633.206	10468.02
633.4	10504.89
633.594	10265.27
633.788	10295.99
633.982	10422.97
634.176	10418.87
634.369	10298.04
634.563	10046.14
634.757	10134.2
634.951	10089.15
635.145	10054.33
635.339	10144.44
635.533	9921.21
635.726	9644.74
635.92	9732.8
636.114	9759.42
636.308	9654.98
636.501	9667.27
636.695	9720.51
636.889	9644.74
637.083	9450.18
637.276	9411.27
637.47	9380.55
637.664	9407.17
637.857	9360.07
638.051	9278.15
638.244	8848.08
638.438	9065.16
638.632	9126.6
638.825	8882.89
639.019	9030.35
639.212	8721.1
639.406	8975.05
639.599	8956.62
639.793	9022.16
639.986	8506.07
640.18	8964.81
640.373	8731.34
640.567	8555.22
640.76	8577.75
640.954	8426.2
641.147	8565.46
641.34	8506.07
641.534	8520.4
641.727	8358.61
641.92	8241.88
642.114	8317.65
642.307	8309.46
642.5	8184.54
642.694	8016.6
642.887	8178.39
643.08	8080.09
643.273	7973.6
643.467	7928.54
643.66	8004.32
643.853	8000.22
644.046	7744.22
644.239	7838.43
644.432	7754.46
644.626	7709.41
644.819	7570.15
645.012	7676.64
645.205	7516.9
645.398	7549.67
645.591	7488.23
645.784	7537.38
645.977	7369.44
646.17	7250.66
646.363	7375.59
646.556	7160.55
646.749	7142.12
646.942	7207.66
647.135	6968.04
647.328	7146.22
647.521	6879.98
647.714	7000.81
647.907	6972.14
648.099	7060.2
648.292	6750.96
648.485	6873.84
648.678	6865.64
648.871	6648.56
649.064	6712.05
649.256	6710
649.449	6693.62
649.642	6570.74
649.835	6689.52
650.027	6501.11
650.22	6636.27
650.413	6435.57
650.605	6392.56
650.798	6509.3
650.991	6296.31
651.183	6408.95
651.376	6329.08
651.568	6318.84
651.761	6251.25
651.954	6064.89
652.146	6081.27
652.339	6089.46
652.531	6122.23
652.724	6173.43
652.916	5962.49
653.109	5989.11
653.301	5880.57
653.494	5968.63
653.686	5901.05
653.879	5911.29
654.071	5835.52
654.263	5585.66
654.456	5778.17
654.648	5735.17
654.84	5561.09
655.033	5743.36
655.225	5636.86
655.417	5649.15
655.61	5645.06
655.802	5632.77
655.994	5524.23
656.186	5458.69
656.379	5311.24
656.571	5505.79
656.763	5335.81
656.955	5321.48
657.148	5341.96
657.34	5303.04
657.532	5114.63
657.724	5249.8
657.916	5395.2
658.108	5319.43
658.3	5212.93
658.492	5217.03
658.684	5022.47
658.876	5018.38
659.068	4952.84
659.26	4950.79
659.452	5036.81
659.644	4819.72
659.836	4856.59
660.028	4877.07
660.22	4715.28
660.412	4838.16
660.604	4729.61
660.796	4836.11
660.988	4659.98
661.18	4752.14
661.372	4621.07
661.563	4700.94
661.755	4571.92
661.947	4662.03
662.139	4619.02
662.331	4551.44
662.522	4494.1
662.714	4598.54
662.906	4473.62
663.097	4508.43
663.289	4436.75
663.481	4426.51
663.673	4379.41
663.864	4264.72
664.056	4363.03
664.247	4360.98
664.439	4238.1
664.631	4289.3
664.822	4104.98
665.014	4330.26
665.205	4166.42
665.397	4086.55
665.588	4203.29
665.78	4074.26
665.971	4150.04
666.163	4064.02
666.354	4076.31
666.546	4082.46
666.737	3980.06
666.929	3812.12
667.12	3926.81
667.311	3883.8
667.503	3879.71
667.694	3883.8
667.885	3869.47
668.077	3990.3
668.268	3801.88
668.459	3785.5
668.651	3738.4
668.842	3797.79
669.033	3713.82
669.224	3740.44
669.416	3773.21
669.607	3691.29
669.798	3685.15
669.989	3748.64
670.18	3617.57
670.371	3535.65
670.563	3805.98
670.754	3662.62
670.945	3511.07
671.136	3609.37
671.327	3404.58
671.518	3388.19
671.709	3406.63
671.9	3386.15
672.091	3441.44
672.282	3392.29
672.473	3484.45
672.664	3334.95
672.855	3443.49
673.046	3279.65
673.237	3429.15
673.428	3427.11
673.619	3281.7
673.809	3318.56
674	3212.07
674.191	3353.38
674.382	3328.8
674.573	3265.32
674.764	3367.71
674.954	3126.05
675.145	3138.34
675.336	3171.11
675.527	3246.88
675.717	3173.16
675.908	3130.15
676.099	3148.58
676.289	3167.01
676.48	3193.64
676.671	3152.68
676.861	3138.34
677.052	3093.29
677.243	3007.27
677.433	2984.74
677.624	3048.23
677.814	3085.09
678.005	3056.42
678.195	2939.69
678.386	2902.83
678.576	2911.02
678.767	2863.91
678.957	3140.39
679.148	2925.35
679.338	3048.23
679.529	2792.23
679.719	2923.3
679.909	2941.74
680.1	2927.4
680.29	2859.82
680.481	2884.39
680.671	2925.35
680.861	2810.67
681.052	2945.83
681.242	2870.06
681.432	2833.19
681.622	2888.49
681.813	2786.09
682.003	2753.32
682.193	2835.24
682.383	2757.42
682.573	2921.26
682.764	2730.8
682.954	2786.09
683.144	2677.55
683.334	2663.21
683.524	2675.5
683.714	2679.6
683.904	2693.93
684.094	2730.8
684.284	2650.92
684.474	2673.45
684.664	2704.17
684.854	2640.69
685.044	2581.29
685.234	2593.58
685.424	2663.21
685.614	2626.35
685.804	2663.21
685.994	2640.69
686.184	2589.49
686.374	2581.29
686.564	2499.38
686.753	2788.14
686.943	2554.67
687.133	2626.35
687.323	2548.53
687.513	2493.23
687.702	2468.66
687.892	2480.94
688.082	2442.03
688.272	2536.24
688.461	2521.9
688.651	2446.13
688.841	2368.31
689.03	2526
689.22	2566.96
689.41	2425.65
689.599	2476.85
689.789	2427.7
689.979	2472.75
690.168	2460.46
690.358	2319.15
690.547	2513.71
690.737	2390.83
690.926	2376.5
691.116	2216.76
691.305	2423.6
691.495	2358.07
691.684	2321.2
691.874	2399.02
692.063	2360.11
692.252	2374.45
692.442	2368.31
692.631	2329.39
692.82	2302.77
693.01	2302.77
693.199	2265.91
693.388	2317.11
693.578	2245.43
693.767	2249.52
693.956	2296.63
694.146	2331.44
694.335	2249.52
694.524	2300.72
694.713	2212.66
694.902	2212.66
695.092	2323.25
695.281	2325.3
695.47	2143.03
695.659	2222.9
695.848	2331.44
696.037	2272.05
696.226	2474.8
696.415	2378.55
696.604	2247.48
696.793	2298.67
696.982	2274.1
697.171	2257.71
697.36	2358.07
697.549	2208.56
697.738	2286.39
697.927	2237.24
698.116	2222.9
698.305	2233.14
698.494	2192.18
698.683	2231.09
698.872	2374.45
699.061	2196.28
699.25	2188.08
699.438	2173.75
699.627	2118.45
699.816	2206.52
700.005	2155.32
700.193	2253.62
700.382	2214.71
700.571	2200.37
700.76	2192.18
700.948	2233.14
701.137	2200.37
701.326	2286.39
701.514	1989.43
701.703	2104.12
701.892	2161.46
702.08	2163.51
702.269	2198.32
702.457	2157.36
702.646	2198.32
702.834	2175.8
703.023	2095.93
703.212	2032.44
703.4	2081.59
703.589	2104.12
703.777	2147.12
703.965	2042.68
704.154	1975.1
704.342	2022.2
704.531	1946.42
704.719	2044.73
704.907	2040.63
705.096	2083.64
705.284	2116.41
705.472	2007.86
705.661	2018.1
705.849	1973.05
706.037	1979.19
706.226	2048.82
706.414	1979.19
706.602	2007.86
706.79	1952.57
706.979	1905.46
707.167	2061.11
707.355	1919.8
707.543	1884.98
707.731	1985.34
707.919	1854.27
708.107	1993.53
708.296	1936.18
708.484	2030.39
708.672	1923.9
708.86	1946.42
709.048	1880.89
709.236	1846.07
709.424	1803.07
709.612	1913.66
709.8	1815.35
709.988	1864.5
710.176	1876.79
710.364	1835.83
710.551	1778.49
710.739	1854.27
710.927	1893.18
711.115	1790.78
711.303	1866.55
711.491	1862.46
711.679	1755.96
711.866	1850.17
712.054	1823.55
712.242	1715
712.43	1811.26
712.617	1768.25
712.805	1772.35
712.993	1764.15
713.181	1792.83
713.368	1657.66
713.556	1680.19
713.744	1712.96
713.931	1829.69
714.119	1721.15
714.306	1710.91
714.494	1678.14
714.682	1665.85
714.869	1739.58
715.057	1751.87
715.244	1663.8
715.432	1680.19
715.619	1655.61
715.807	1690.43
715.994	1639.23
716.182	1680.19
716.369	1682.24
716.556	1616.7
716.744	1696.57
716.931	1620.8
717.119	1651.52
717.306	1727.29
717.493	1712.96
717.681	1628.99
717.868	1524.54
718.055	1655.61
718.242	1618.75
718.43	1569.6
718.617	1618.75
718.804	1514.3
718.991	1553.21
719.179	1622.84
719.366	1456.96
719.553	1553.21
719.74	1493.82
719.927	1504.06
720.114	1477.44
720.301	1555.26
720.488	1555.26
720.676	1438.53
720.863	1385.28
721.05	1557.31
721.237	1428.29
721.424	1493.82
721.611	1362.75
721.798	1428.29
721.985	1393.47
722.172	1387.33
722.358	1467.2
722.545	1426.24
722.732	1418.05
722.919	1413.95
723.106	1418.05
723.293	1424.19
723.48	1434.43
723.667	1436.48
723.853	1383.23
724.04	1454.91
724.227	1418.05
724.414	1352.51
724.6	1387.33
724.787	1325.89
724.974	1225.54
725.161	1332.03
725.347	1289.03
725.534	1379.14
725.72	1284.93
725.907	1334.08
726.094	1317.7
726.28	1297.22
726.467	1387.33
726.653	1268.55
726.84	1295.17
727.027	1260.35
727.213	1305.41
727.4	1327.94
727.586	1274.69
727.773	1200.96
727.959	1221.44
728.145	1213.25
728.332	1270.59
728.518	1246.02
728.705	1270.59
728.891	1297.22
729.077	1274.69
729.264	1264.45
729.45	1340.22
729.636	1327.94
729.823	1258.31
730.009	1174.34
730.195	1149.76
730.382	1168.2
730.568	1229.63
730.754	1196.87
730.94	1155.91
731.126	1123.14
731.313	1221.44
731.499	1141.57
731.685	1264.45
731.871	1184.58
732.057	1239.87
732.243	1270.59
732.429	1176.39
732.615	1065.8
732.801	1149.76
732.987	1123.14
733.173	1108.8
733.359	1149.76
733.545	1196.87
733.731	1096.52
733.917	1090.37
734.103	1192.77
734.289	1160
734.475	1157.96
734.661	1219.39
734.847	1076.04
735.033	1073.99
735.219	1121.09
735.404	1106.76
735.59	1047.37
735.776	1133.38
735.962	1123.14
736.148	1133.38
736.333	992.07
736.519	963.4
736.705	1008.45
736.89	1084.23
737.076	1057.61
737.262	985.93
737.447	1035.08
737.633	971.59
737.819	1055.56
738.004	1067.85
738.19	951.11
738.375	1073.99
738.561	994.12
738.747	1037.13
738.932	936.78
739.118	1002.31
739.303	1020.74
739.489	1098.56
739.674	955.21
739.859	1067.85
740.045	992.07
740.23	1051.46
740.416	940.87
740.601	994.12
740.786	963.4
740.972	944.97
741.157	916.3
741.342	992.07
741.528	934.73
741.713	899.91
741.898	912.2
742.084	885.58
742.269	959.3
742.454	932.68
742.639	879.43
742.824	1016.65
743.01	899.91
743.195	885.58
743.38	865.1
743.565	846.66
743.75	985.93
743.935	975.69
744.12	887.62
744.305	875.34
744.49	875.34
744.675	854.86
744.86	842.57
745.045	967.49
745.23	883.53
745.415	850.76
745.6	889.67
745.785	840.52
745.97	901.96
746.155	787.27
746.34	809.8
746.525	885.58
746.71	840.52
746.895	795.47
747.079	738.12
747.264	785.23
747.449	820.04
747.634	865.1
747.819	774.99
748.003	750.41
748.188	738.12
748.373	727.88
748.557	744.27
748.742	770.89
748.927	699.21
749.111	715.59
749.296	750.41
749.481	781.13
749.665	742.22
749.85	705.35
750.034	760.65
750.219	729.93
750.404	760.65
750.588	797.51
750.773	670.54
750.957	688.97
751.141	658.25
751.326	715.59
751.51	715.59
751.695	701.26
751.879	631.63
752.064	668.49
752.248	688.97
752.432	643.92
752.617	645.96
752.801	641.87
752.985	607.05
753.17	750.41
753.354	652.11
753.538	645.96
753.722	611.15
753.907	658.25
754.091	619.34
754.275	625.48
754.459	631.63
754.643	623.44
754.828	615.24
755.012	516.94
755.196	584.52
755.38	590.67
755.564	570.19
755.748	611.15
755.932	619.34
756.116	633.68
756.3	523.09
756.484	502.61
756.668	607.05
756.852	568.14
757.036	631.63
757.22	619.34
757.404	574.28
757.588	594.76
757.772	584.52
757.956	533.33
758.14	502.61
758.323	572.24
758.507	521.04
758.691	525.13
758.875	502.61
759.059	566.09
759.242	504.65
759.426	557.9
759.61	518.99
759.794	553.8
759.977	500.56
760.161	615.24
760.345	568.14
760.528	514.89
760.712	551.76
760.895	549.71
761.079	492.37
761.263	541.52
761.446	496.46
761.63	439.12
761.813	467.79
761.997	492.37
762.18	430.93
762.364	516.94
762.547	463.69
762.731	492.37
762.914	508.75
763.098	453.45
763.281	430.93
763.464	502.61
763.648	482.13
763.831	445.26
764.015	402.26
764.198	465.74
764.381	471.89
764.564	480.08
764.748	422.73
764.931	496.46
765.114	484.17
765.297	437.07
765.481	420.69
765.664	449.36
765.847	375.63
766.03	439.12
766.213	475.98
766.397	535.37
766.58	357.2
766.763	451.41
766.946	369.49
767.129	420.69
767.312	369.49
767.495	414.54
767.678	496.46
767.861	478.03
768.044	387.92
768.227	404.3
768.41	480.08
768.593	410.45
768.776	428.88
768.959	475.98
769.142	435.02
769.324	428.88
769.507	494.41
769.69	535.37
769.873	387.92
770.056	480.08
770.239	394.06
770.421	422.73
770.604	418.64
770.787	371.54
770.97	381.78
771.152	394.06
771.335	420.69
771.518	385.87
771.7	398.16
771.883	414.54
772.066	410.45
772.248	332.62
772.431	422.73
772.613	471.89
772.796	381.78
772.978	418.64
773.161	459.6
773.343	432.97
773.526	387.92
773.708	365.39
773.891	375.63
774.073	422.73
774.256	430.93
774.438	416.59
774.621	428.88
774.803	377.68
774.985	363.34
775.168	359.25
775.35	396.11
775.532	389.97
775.715	328.53
775.897	314.19
776.079	367.44
776.261	312.14
776.444	373.58
776.626	320.34
776.808	351.06
776.99	310.1
777.173	318.29
777.355	377.68
777.537	283.47
777.719	355.15
777.901	334.67
778.083	219.99
778.265	252.75
778.447	371.54
778.629	367.44
778.811	406.35
778.993	340.82
779.175	373.58
779.357	326.48
779.539	258.9
779.721	308.05
779.903	301.9
780.085	369.49
780.267	297.81
780.449	260.95
780.631	320.34
780.812	332.62
780.994	357.2
781.176	172.88
781.358	265.04
781.54	312.14
781.721	328.53
781.903	289.62
782.085	273.23
782.267	246.61
782.448	279.38
782.63	387.92
782.812	197.46
782.993	246.61
783.175	240.47
783.357	246.61
783.538	246.61
783.72	248.66
783.901	281.43
784.083	267.09
784.264	273.23
784.446	217.94
784.627	271.19
784.809	209.75
784.99	181.07
785.172	287.57
785.353	281.43
785.535	238.42
785.716	250.71
785.897	254.8
786.079	244.56
786.26	217.94
786.441	232.27
786.623	183.12
786.804	265.04
786.985	258.9
787.167	222.03
787.348	258.9
787.529	283.47
787.71	222.03
787.891	193.36
788.073	283.47
788.254	228.18
788.435	234.32
788.616	269.14
788.797	183.12
788.978	183.12
789.159	123.73
789.34	314.19
789.522	181.07
789.703	197.46
789.884	183.12
790.065	252.75
790.246	256.85
790.427	197.46
790.607	168.79
790.788	222.03
790.969	185.17
791.15	232.27
791.331	174.93
791.512	164.69
791.693	138.07
791.874	230.23
792.054	207.7
792.235	232.27
792.416	138.07
792.597	80.72
792.778	246.61
792.958	213.84
793.139	129.88
793.32	195.41
793.5	117.59
793.681	127.83
793.862	207.7
794.042	187.22
794.223	121.68
794.404	162.64
794.584	193.36
794.765	168.79
794.945	123.73
795.126	172.88
795.306	121.68
795.487	189.27
795.667	170.83
795.848	199.51
796.028	191.31
796.209	191.31
796.389	156.5
796.57	133.97
796.75	142.16
796.93	113.49
797.111	144.21
797.291	119.64
797.471	148.31
797.652	131.92
797.832	138.07
798.012	150.36
798.192	187.22
798.373	129.88
798.553	115.54
798.733	156.5
798.913	176.98
799.093	78.68
799.274	140.12
799.454	142.16
799.634	107.35
799.814	144.21
799.994	205.65
800.174	185.17
800.354	74.58
800.534	111.44
800.714	60.24
800.894	121.68
801.074	66.39
801.254	103.25
801.434	56.15
801.614	166.74
801.794	119.64
801.974	338.77
802.154	93.01
802.334	125.78
802.514	101.2
802.693	58.2
802.873	99.16
803.053	131.92
803.233	142.16
803.413	93.01
803.592	84.82
803.772	140.12
803.952	82.77
804.131	107.35
804.311	125.78
804.491	109.4
804.67	121.68
804.85	88.92
805.03	84.82
805.209	70.48
805.389	68.44
805.568	119.64
805.748	70.48
805.928	125.78
806.107	150.36
806.287	140.12
806.466	109.4
806.646	93.01
806.825	125.78
807.004	50
807.184	78.68
807.363	47.96
807.543	95.06
807.722	95.06
807.901	121.68
808.081	66.39
808.26	62.29
808.439	131.92
808.619	72.53
808.798	43.86
808.977	82.77
809.156	97.11
809.336	103.25
809.515	84.82
809.694	121.68
809.873	107.35
810.052	84.82
810.231	181.07
810.411	129.88
810.59	142.16
810.769	33.62
810.948	185.17
811.127	111.44
811.306	78.68
811.485	52.05
811.664	54.1
811.843	50
812.022	86.87
812.201	125.78
812.38	99.16
812.559	58.2
812.737	62.29
812.916	74.58
813.095	0.85
813.274	50
813.453	86.87
813.632	183.12
813.811	129.88
813.989	78.68
814.168	150.36
814.347	-23.72
814.526	123.73
814.704	68.44
814.883	88.92
815.062	76.63
815.24	62.29
815.419	74.58
815.598	131.92
815.776	52.05
815.955	58.2
816.133	80.72
816.312	109.4
816.49	62.29
816.669	90.96
816.847	68.44
817.026	76.63
817.204	74.58
817.383	111.44
817.561	35.67
817.74	107.35
817.918	72.53
818.097	66.39
818.275	111.44
818.453	129.88
818.632	82.77
818.81	86.87
818.988	52.05
819.167	76.63
819.345	82.77
819.523	115.54
819.701	62.29
819.879	97.11
820.058	66.39
820.236	29.52
820.414	74.58
820.592	50
820.77	93.01
820.948	90.96
821.127	45.91
821.305	86.87
821.483	66.39
821.661	119.64
821.839	4.95
822.017	50
822.195	80.72
822.373	25.43
822.551	129.88
822.729	68.44
822.907	-9.39
823.085	52.05
823.262	50
823.44	2.9
823.618	21.33
823.796	47.96
823.974	17.24
824.152	107.35
824.329	52.05
824.507	-7.34
824.685	27.48
824.863	86.87
825.04	52.05
825.218	29.52
825.396	17.24
825.574	52.05
825.751	101.2
825.929	35.67
826.107	-5.29
826.284	127.83
826.462	62.29
826.639	47.96
826.817	56.15
826.994	121.68
827.172	103.25
827.349	41.81
827.527	60.24
827.704	27.48
827.882	82.77
828.059	41.81
828.237	15.19
828.414	27.48
828.591	-5.29
828.769	103.25
828.946	15.19
829.124	25.43
829.301	27.48
829.478	9.05
829.655	78.68
829.833	66.39
830.01	-23.72
830.187	76.63
830.364	29.52
830.542	27.48
830.719	70.48
830.896	68.44
831.073	15.19
831.25	64.34
831.427	-23.72
831.604	-27.82
831.782	27.48
831.959	-19.63
832.136	31.57
832.313	107.35
832.49	52.05
832.667	47.96
832.844	58.2
833.021	4.95
833.198	62.29
833.374	-23.72
833.551	50
833.728	-9.39
833.905	31.57
834.082	43.86
834.259	15.19
834.436	2.9
834.612	-21.67
834.789	66.39
834.966	-31.91
835.143	-31.91
835.319	52.05
835.496	84.82
835.673	80.72
835.85	-17.58
836.026	13.14
836.203	33.62
836.38	54.1
836.556	7
836.733	93.01
836.909	56.15
837.086	70.48
837.262	78.68
837.439	0.85
837.616	25.43
837.792	41.81
837.968	58.2
838.145	27.48
838.321	-17.58
838.498	21.33
838.674	47.96
838.851	54.1
839.027	50
839.203	43.86
839.38	31.57
839.556	-68.78
839.732	35.67
839.909	0.85
840.085	62.29
840.261	107.35
840.437	7
840.614	70.48
840.79	23.38
840.966	97.11
841.142	35.67
841.318	9.05
841.494	84.82
841.671	111.44
841.847	111.44
842.023	56.15
842.199	35.67
842.375	9.05
842.551	15.19
842.727	74.58
842.903	25.43
843.079	-25.77
843.255	72.53
843.431	35.67
843.607	52.05
843.783	84.82
843.959	17.24
844.134	56.15
844.31	62.29
844.486	25.43
844.662	-3.24
844.838	45.91
845.013	13.14
845.189	27.48
845.365	64.34
845.541	19.29
845.716	-60.59
845.892	66.39
846.068	58.2
846.244	4.95
846.419	-25.77
846.595	62.29
846.77	-9.39
846.946	0.85
847.122	15.19
847.297	47.96
847.473	103.25
847.648	-23.72
847.824	31.57
847.999	2.9
848.175	17.24
848.35	43.86
848.526	35.67
848.701	21.33
848.876	29.52
849.052	47.96
849.227	15.19
849.403	23.38
849.578	54.1
849.753	39.76
849.929	19.29
850.104	41.81
850.279	54.1
850.454	70.48
850.63	52.05
850.805	68.44
850.98	54.1
851.155	93.01
851.33	66.39
851.505	37.72
851.681	117.59
851.856	2.9
852.031	-33.96
852.206	-33.96
852.381	9.05
852.556	95.06
852.731	113.49
852.906	-64.68
853.081	45.91
853.256	2.9
853.431	90.96
853.606	56.15
853.781	15.19
853.956	21.33
854.131	33.62
854.305	-44.2
854.48	43.86
854.655	60.24
854.83	17.24
855.005	-38.06
855.18	-52.39
855.354	29.52
855.529	70.48
855.704	-83.11
855.879	-3.24
856.053	17.24
856.228	72.53
856.403	-54.44
856.577	82.77
856.752	9.05
856.926	56.15
857.101	17.24
857.276	62.29
857.45	58.2
857.625	-42.15
857.799	52.05
857.974	58.2
858.148	-11.43
858.323	11.09
858.497	-13.48
858.672	17.24
858.846	52.05
859.02	103.25
859.195	21.33
859.369	43.86
859.543	54.1
859.718	-40.11
859.892	37.72
860.066	52.05
860.241	11.09
860.415	50
860.589	17.24
860.763	17.24
860.938	37.72
861.112	-7.34
861.286	-17.58
861.46	2.9
861.634	-1.19
861.808	-5.29
861.982	-36.01
862.157	105.3
862.331	-7.34
862.505	25.43
862.679	76.63
862.853	19.29
863.027	43.86
863.201	-25.77
863.375	54.1
863.549	-9.39
863.722	-31.91
863.896	13.14
864.07	39.76
864.244	37.72
864.418	58.2
864.592	-7.34
864.766	-5.29
864.939	29.52
865.113	45.91
865.287	-15.53
865.461	31.57
865.634	80.72
865.808	-31.91
865.982	33.62
866.156	80.72
866.329	27.48
866.503	41.81
866.676	7
866.85	2.9
867.024	29.52
867.197	107.35
867.371	-58.54
867.544	9.05
867.718	50
867.891	7
868.065	-46.25
868.238	-23.72
868.412	31.57
868.585	-38.06
868.759	-1.19
868.932	25.43
869.105	74.58
869.279	88.92
869.452	-15.53
869.625	-13.48
869.799	31.57
869.972	7
870.145	60.24
870.319	7
870.492	41.81
870.665	54.1
870.838	-1.19
871.011	45.91
871.185	-21.67
871.358	-44.2
871.531	-29.87
871.704	-7.34
871.877	76.63
872.05	15.19
872.223	-42.15
872.396	39.76
872.569	62.29
872.742	-38.06
872.915	52.05
873.088	-66.73
873.261	-7.34
873.434	27.48
873.607	23.38
873.78	4.95
873.953	17.24
874.126	4.95
874.299	54.1
874.471	11.09
874.644	-29.87
874.817	-3.24
874.99	41.81
875.163	35.67
875.335	56.15
875.508	29.52
875.681	-21.67
875.853	-25.77
876.026	33.62
876.199	-21.67
876.371	-3.24
876.544	-15.53
876.717	52.05
876.889	43.86
877.062	41.81
877.234	-48.3
877.407	43.86
877.579	97.11
877.752	-3.24
877.924	4.95
878.097	25.43
878.269	78.68
878.442	64.34
878.614	41.81
878.786	62.29
878.959	21.33
879.131	33.62
879.303	-42.15
879.476	78.68
879.648	37.72
879.82	-1.19
879.993	-5.29
880.165	0.85
880.337	-3.24
880.509	29.52
880.681	-15.53
880.854	-21.67
881.026	74.58
881.198	-33.96
881.37	-25.77
881.542	74.58
881.714	-21.67
881.886	60.24
882.058	11.09
882.23	47.96
882.402	-42.15
882.574	-5.29
882.746	9.05
882.918	133.97
883.09	-17.58
883.262	-11.43
883.434	33.62
883.606	-17.58
883.778	13.14
883.95	39.76
884.122	15.19
884.293	-21.67
884.465	-31.91
884.637	23.38
884.809	-1.19
884.98	11.09
885.152	-36.01
885.324	101.2
885.496	27.48
885.667	-25.77
885.839	45.91
886.011	2.9
886.182	-13.48
886.354	27.48
886.525	37.72
886.697	-5.29
886.869	0.85
887.04	17.24
887.212	27.48
887.383	13.14
887.555	17.24
887.726	97.11
887.897	-19.63
888.069	41.81
888.24	-7.34
888.412	45.91
888.583	-7.34
888.754	-3.24
888.926	-60.59
889.097	15.19
889.268	-19.63
889.44	-13.48
889.611	-60.59
889.782	-38.06
889.953	60.24
890.125	9.05
890.296	-13.48
890.467	29.52
890.638	-11.43
890.809	37.72
890.98	-1.19
891.151	31.57
891.323	70.48
891.494	-23.72
891.665	-9.39
891.836	-27.82
892.007	9.05
892.178	72.53
892.349	-38.06
892.52	33.62
892.691	0.85
892.862	25.43
893.032	13.14
893.203	45.91
893.374	-40.11
893.545	50
893.716	21.33
893.887	-29.87
894.057	50
894.228	-58.54
894.399	-1.19
894.57	2.9
894.74	-15.53
894.911	-19.63
895.082	-58.54
895.253	-19.63
895.423	35.67
895.594	7
895.764	45.91
895.935	41.81
896.106	74.58
896.276	45.91
896.447	19.29
896.617	52.05
896.788	-31.91
896.958	-70.83
897.129	41.81
897.299	21.33
897.47	-13.48
897.64	-7.34
897.81	7
897.981	86.87
898.151	-23.72
898.322	43.86
898.492	33.62
898.662	9.05
898.832	-27.82
899.003	-3.24
899.173	2.9
899.343	29.52
899.513	37.72
