Data from USB4F104151__105__13-54-45-288.txt Node

Date: Thu Mar 13 13:54:45 EDT 2025
User: louis
Spectrometer: USB4F10415
Trigger mode: 4
Integration Time (sec): 1.000000E-2
Scans to average: 1
Electric dark correction enabled: true
Nonlinearity correction enabled: false
Boxcar width: 0
XAxis mode: Wavelengths
Number of Pixels in Spectrum: 3648
>>>>>Begin Spectral Data<<<<<
178.204	-31.74
178.424	-31.74
178.644	-31.74
178.864	-89.09
179.084	23.55
179.304	-46.08
179.524	-1.02
179.744	-5.12
179.964	23.55
180.184	-19.46
180.404	35.84
180.624	-17.41
180.844	23.55
181.064	-15.36
181.283	5.12
181.503	-70.65
181.723	87.04
181.943	-9.22
182.163	-46.08
182.383	11.26
182.602	-9.22
182.822	56.32
183.042	-23.55
183.262	33.79
183.482	64.51
183.701	-66.56
183.921	-11.26
184.141	-52.22
184.361	74.75
184.58	-68.61
184.8	-58.37
185.02	19.46
185.239	119.81
185.459	-11.26
185.679	31.74
185.898	-35.84
186.118	19.46
186.338	-80.89
186.557	11.26
186.777	-60.42
186.997	41.98
187.216	7.17
187.436	-80.89
187.655	-5.12
187.875	-68.61
188.095	62.46
188.314	17.41
188.534	31.74
188.753	31.74
188.973	-7.17
189.192	19.46
189.412	52.22
189.631	-54.27
189.851	-37.89
190.07	5.12
190.29	-19.46
190.509	31.74
190.729	35.84
190.948	11.26
191.168	68.61
191.387	21.5
191.607	-39.94
191.826	13.31
192.045	23.55
192.265	15.36
192.484	23.55
192.704	87.04
192.923	-41.98
193.142	46.08
193.362	31.74
193.581	31.74
193.8	-31.74
194.02	78.85
194.239	72.7
194.458	7.17
194.678	-21.5
194.897	21.5
195.116	11.26
195.335	-44.03
195.555	25.6
195.774	35.84
195.993	64.51
196.212	-15.36
196.432	-52.22
196.651	60.42
196.87	39.94
197.089	-13.31
197.308	23.55
197.528	13.31
197.747	-13.31
197.966	-3.07
198.185	-27.65
198.404	15.36
198.623	25.6
198.842	-7.17
199.062	50.18
199.281	56.32
199.5	-25.6
199.719	1.02
199.938	-33.79
200.157	-5.12
200.376	19.46
200.595	1.02
200.814	-5.12
201.033	44.03
201.252	-29.7
201.471	13.31
201.69	-21.5
201.909	1.02
202.128	70.65
202.347	15.36
202.566	33.79
202.785	-9.22
203.004	-5.12
203.223	44.03
203.442	3.07
203.661	-19.46
203.879	5.12
204.098	7.17
204.317	-17.41
204.536	-9.22
204.755	-50.18
204.974	17.41
205.193	35.84
205.411	33.79
205.63	33.79
205.849	80.89
206.068	52.22
206.287	-9.22
206.505	39.94
206.724	39.94
206.943	1.02
207.162	56.32
207.381	-1.02
207.599	-15.36
207.818	41.98
208.037	9.22
208.255	19.46
208.474	35.84
208.693	17.41
208.911	-7.17
209.13	-31.74
209.349	44.03
209.567	23.55
209.786	-19.46
210.005	3.07
210.223	-11.26
210.442	3.07
210.661	70.65
210.879	-33.79
211.098	91.13
211.316	11.26
211.535	-44.03
211.753	-9.22
211.972	-9.22
212.191	56.32
212.409	54.27
212.628	-48.13
212.846	50.18
213.065	-27.65
213.283	105.47
213.502	-37.89
213.72	3.07
213.938	-21.5
214.157	1.02
214.375	74.75
214.594	-13.31
214.812	54.27
215.031	3.07
215.249	58.37
215.467	74.75
215.686	46.08
215.904	25.6
216.122	-3.07
216.341	31.74
216.559	-19.46
216.778	-25.6
216.996	-25.6
217.214	-27.65
217.432	-33.79
217.651	11.26
217.869	3.07
218.087	46.08
218.306	5.12
218.524	-7.17
218.742	31.74
218.96	44.03
219.179	44.03
219.397	11.26
219.615	121.85
219.833	68.61
220.051	17.41
220.27	-1.02
220.488	44.03
220.706	-1.02
220.924	84.99
221.142	41.98
221.36	39.94
221.578	54.27
221.796	-37.89
222.015	-31.74
222.233	1.02
222.451	13.31
222.669	-17.41
222.887	76.8
223.105	15.36
223.323	17.41
223.541	-5.12
223.759	1.02
223.977	-62.46
224.195	-35.84
224.413	-39.94
224.631	-33.79
224.849	-35.84
225.067	17.41
225.285	-13.31
225.503	41.98
225.721	37.89
225.939	-11.26
226.157	29.7
226.375	37.89
226.592	21.5
226.81	91.13
227.028	60.42
227.246	87.04
227.464	17.41
227.682	76.8
227.9	21.5
228.117	11.26
228.335	72.7
228.553	1.02
228.771	3.07
228.989	29.7
229.206	29.7
229.424	-19.46
229.642	5.12
229.86	21.5
230.077	-1.02
230.295	3.07
230.513	17.41
230.731	-1.02
230.948	-25.6
231.166	25.6
231.384	-3.07
231.601	41.98
231.819	66.56
232.037	5.12
232.254	5.12
232.472	29.7
232.689	-37.89
232.907	1.02
233.125	68.61
233.342	64.51
233.56	-11.26
233.777	27.65
233.995	-11.26
234.213	-39.94
234.43	31.74
234.648	39.94
234.865	-13.31
235.083	50.18
235.3	39.94
235.518	13.31
235.735	44.03
235.953	60.42
236.17	29.7
236.388	-13.31
236.605	23.55
236.822	48.13
237.04	5.12
237.257	33.79
237.475	19.46
237.692	-39.94
237.909	31.74
238.127	31.74
238.344	58.37
238.562	-27.65
238.779	7.17
238.996	46.08
239.214	17.41
239.431	29.7
239.648	-9.22
239.865	25.6
240.083	37.89
240.3	-11.26
240.517	1.02
240.735	-25.6
240.952	66.56
241.169	54.27
241.386	-9.22
241.603	-11.26
241.821	-9.22
242.038	58.37
242.255	37.89
242.472	44.03
242.689	-44.03
242.907	39.94
243.124	-17.41
243.341	64.51
243.558	1.02
243.775	52.22
243.992	19.46
244.209	91.13
244.426	-19.46
244.643	35.84
244.86	74.75
245.078	41.98
245.295	-37.89
245.512	1.02
245.729	23.55
245.946	62.46
246.163	-9.22
246.38	-11.26
246.597	46.08
246.814	-15.36
247.031	64.51
247.248	-95.23
247.464	37.89
247.681	11.26
247.898	25.6
248.115	11.26
248.332	19.46
248.549	-11.26
248.766	13.31
248.983	3.07
249.2	-7.17
249.417	-13.31
249.633	39.94
249.85	11.26
250.067	29.7
250.284	15.36
250.501	-19.46
250.717	93.18
250.934	-21.5
251.151	3.07
251.368	33.79
251.585	54.27
251.801	-37.89
252.018	5.12
252.235	27.65
252.451	80.89
252.668	78.85
252.885	-29.7
253.102	-1.02
253.318	27.65
253.535	-1.02
253.752	11.26
253.968	35.84
254.185	-21.5
254.401	-21.5
254.618	35.84
254.835	11.26
255.051	29.7
255.268	52.22
255.484	11.26
255.701	-3.07
255.917	15.36
256.134	-1.02
256.351	17.41
256.567	-13.31
256.784	60.42
257	3.07
257.217	-37.89
257.433	27.65
257.65	-1.02
257.866	48.13
258.082	-17.41
258.299	-19.46
258.515	17.41
258.732	66.56
258.948	72.7
259.165	37.89
259.381	87.04
259.597	13.31
259.814	-41.98
260.03	66.56
260.246	29.7
260.463	15.36
260.679	1.02
260.895	-46.08
261.112	54.27
261.328	-15.36
261.544	9.22
261.761	7.17
261.977	41.98
262.193	-23.55
262.409	44.03
262.626	52.22
262.842	109.57
263.058	58.37
263.274	105.47
263.49	-27.65
263.707	29.7
263.923	-60.42
264.139	44.03
264.355	-64.51
264.571	19.46
264.787	-19.46
265.004	23.55
265.22	17.41
265.436	-11.26
265.652	-11.26
265.868	17.41
266.084	48.13
266.3	70.65
266.516	58.37
266.732	-15.36
266.948	25.6
267.164	54.27
267.38	11.26
267.596	17.41
267.812	35.84
268.028	76.8
268.244	-13.31
268.46	50.18
268.676	-11.26
268.892	35.84
269.108	-39.94
269.324	11.26
269.54	-33.79
269.756	76.8
269.972	-39.94
270.188	-46.08
270.403	-5.12
270.619	11.26
270.835	89.09
271.051	15.36
271.267	35.84
271.483	89.09
271.698	48.13
271.914	-13.31
272.13	-11.26
272.346	97.28
272.562	41.98
272.777	48.13
272.993	41.98
273.209	1.02
273.425	15.36
273.64	-5.12
273.856	68.61
274.072	-41.98
274.287	15.36
274.503	7.17
274.719	-1.02
274.934	99.33
275.15	-19.46
275.366	-19.46
275.581	48.13
275.797	23.55
276.012	31.74
276.228	97.28
276.444	13.31
276.659	52.22
276.875	33.79
277.09	-41.98
277.306	41.98
277.521	25.6
277.737	23.55
277.952	31.74
278.168	-5.12
278.383	33.79
278.599	29.7
278.814	-25.6
279.03	-15.36
279.245	56.32
279.461	60.42
279.676	-19.46
279.892	-17.41
280.107	-17.41
280.322	-17.41
280.538	64.51
280.753	-3.07
280.969	27.65
281.184	15.36
281.399	80.89
281.615	-13.31
281.83	68.61
282.045	1.02
282.26	78.85
282.476	-27.65
282.691	5.12
282.906	5.12
283.122	48.13
283.337	-29.7
283.552	23.55
283.767	52.22
283.983	41.98
284.198	11.26
284.413	3.07
284.628	23.55
284.843	44.03
285.058	56.32
285.274	72.7
285.489	56.32
285.704	1.02
285.919	-11.26
286.134	25.6
286.349	13.31
286.564	-13.31
286.779	39.94
286.995	-1.02
287.21	9.22
287.425	9.22
287.64	-7.17
287.855	-17.41
288.07	-48.13
288.285	35.84
288.5	15.36
288.715	-1.02
288.93	48.13
289.145	105.47
289.36	48.13
289.575	33.79
289.79	80.89
290.004	29.7
290.219	1.02
290.434	54.27
290.649	23.55
290.864	5.12
291.079	37.89
291.294	37.89
291.509	44.03
291.724	44.03
291.938	-21.5
292.153	-17.41
292.368	-3.07
292.583	-15.36
292.798	-41.98
293.012	-7.17
293.227	5.12
293.442	46.08
293.657	39.94
293.871	60.42
294.086	56.32
294.301	39.94
294.516	31.74
294.73	-21.5
294.945	11.26
295.16	-52.22
295.374	66.56
295.589	19.46
295.804	-11.26
296.018	58.37
296.233	29.7
296.447	76.8
296.662	13.31
296.877	41.98
297.091	52.22
297.306	25.6
297.52	3.07
297.735	74.75
297.949	37.89
298.164	27.65
298.378	-19.46
298.593	15.36
298.807	7.17
299.022	-13.31
299.236	41.98
299.451	13.31
299.665	52.22
299.88	46.08
300.094	39.94
300.309	39.94
300.523	21.5
300.737	-64.51
300.952	-41.98
301.166	56.32
301.381	-13.31
301.595	33.79
301.809	11.26
302.024	-50.18
302.238	-31.74
302.452	17.41
302.667	-9.22
302.881	58.37
303.095	7.17
303.309	52.22
303.524	52.22
303.738	3.07
303.952	13.31
304.166	-48.13
304.381	21.5
304.595	9.22
304.809	21.5
305.023	33.79
305.237	39.94
305.452	113.66
305.666	21.5
305.88	52.22
306.094	107.52
306.308	66.56
306.522	21.5
306.736	27.65
306.95	29.7
307.164	37.89
307.379	9.22
307.593	15.36
307.807	-50.18
308.021	5.12
308.235	70.65
308.449	68.61
308.663	-48.13
308.877	78.85
309.091	-9.22
309.305	99.33
309.519	52.22
309.733	54.27
309.947	-3.07
310.161	44.03
310.374	-21.5
310.588	84.99
310.802	-15.36
311.016	52.22
311.23	35.84
311.444	46.08
311.658	31.74
311.872	39.94
312.085	70.65
312.299	31.74
312.513	1.02
312.727	56.32
312.941	46.08
313.154	21.5
313.368	64.51
313.582	84.99
313.796	80.89
314.009	64.51
314.223	35.84
314.437	29.7
314.651	25.6
314.864	-1.02
315.078	70.65
315.292	74.75
315.505	27.65
315.719	78.85
315.933	17.41
316.146	52.22
316.36	1.02
316.573	39.94
316.787	-39.94
317.001	-39.94
317.214	-19.46
317.428	17.41
317.641	-17.41
317.855	50.18
318.068	68.61
318.282	54.27
318.495	39.94
318.709	62.46
318.922	35.84
319.136	27.65
319.349	29.7
319.563	82.94
319.776	37.89
319.99	46.08
320.203	3.07
320.417	39.94
320.63	15.36
320.843	-44.03
321.057	9.22
321.27	54.27
321.483	19.46
321.697	3.07
321.91	35.84
322.124	50.18
322.337	-9.22
322.55	41.98
322.763	-23.55
322.977	37.89
323.19	82.94
323.403	-17.41
323.617	39.94
323.83	41.98
324.043	68.61
324.256	52.22
324.469	25.6
324.683	25.6
324.896	35.84
325.109	17.41
325.322	17.41
325.535	64.51
325.748	66.56
325.962	31.74
326.175	-46.08
326.388	50.18
326.601	21.5
326.814	11.26
327.027	78.85
327.24	39.94
327.453	-23.55
327.666	-5.12
327.879	44.03
328.092	72.7
328.305	-5.12
328.518	64.51
328.731	-19.46
328.944	54.27
329.157	11.26
329.37	23.55
329.583	35.84
329.796	-1.02
330.009	13.31
330.222	-29.7
330.435	46.08
330.648	-23.55
330.861	25.6
331.073	27.65
331.286	74.75
331.499	48.13
331.712	48.13
331.925	1.02
332.138	121.85
332.35	101.37
332.563	25.6
332.776	93.18
332.989	1.02
333.202	11.26
333.414	56.32
333.627	-76.8
333.84	23.55
334.053	-13.31
334.265	93.18
334.478	31.74
334.691	60.42
334.903	37.89
335.116	13.31
335.329	3.07
335.541	13.31
335.754	48.13
335.966	7.17
336.179	-21.5
336.392	80.89
336.604	11.26
336.817	41.98
337.029	15.36
337.242	29.7
337.454	-29.7
337.667	46.08
337.88	89.09
338.092	70.65
338.305	3.07
338.517	29.7
338.729	76.8
338.942	11.26
339.154	52.22
339.367	37.89
339.579	72.7
339.792	66.56
340.004	17.41
340.217	27.65
340.429	-13.31
340.641	-15.36
340.854	19.46
341.066	21.5
341.278	37.89
341.491	66.56
341.703	60.42
341.915	41.98
342.128	33.79
342.34	56.32
342.552	91.13
342.764	23.55
342.977	5.12
343.189	15.36
343.401	33.79
343.613	70.65
343.826	33.79
344.038	1.02
344.25	7.17
344.462	1.02
344.674	-13.31
344.886	48.13
345.099	48.13
345.311	-33.79
345.523	17.41
345.735	58.37
345.947	27.65
346.159	33.79
346.371	-17.41
346.583	-9.22
346.795	31.74
347.007	76.8
347.219	5.12
347.431	-17.41
347.643	35.84
347.855	27.65
348.067	37.89
348.279	72.7
348.491	105.47
348.703	3.07
348.915	72.7
349.127	11.26
349.339	-15.36
349.551	29.7
349.763	44.03
349.975	-9.22
350.187	5.12
350.399	27.65
350.61	58.37
350.822	50.18
351.034	-5.12
351.246	56.32
351.458	7.17
351.669	-17.41
351.881	7.17
352.093	-48.13
352.305	119.81
352.517	7.17
352.728	33.79
352.94	21.5
353.152	76.8
353.363	70.65
353.575	-64.51
353.787	89.09
353.999	-35.84
354.21	48.13
354.422	35.84
354.633	7.17
354.845	-9.22
355.057	150.53
355.268	35.84
355.48	39.94
355.692	17.41
355.903	-72.7
356.115	70.65
356.326	25.6
356.538	15.36
356.749	-1.02
356.961	62.46
357.172	-48.13
357.384	50.18
357.595	48.13
357.807	72.7
358.018	-1.02
358.23	78.85
358.441	64.51
358.653	-7.17
358.864	31.74
359.075	-29.7
359.287	84.99
359.498	56.32
359.709	23.55
359.921	46.08
360.132	23.55
360.344	60.42
360.555	9.22
360.766	144.38
360.977	21.5
361.189	70.65
361.4	27.65
361.611	31.74
361.823	-13.31
362.034	-19.46
362.245	44.03
362.456	68.61
362.667	15.36
362.879	107.52
363.09	54.27
363.301	41.98
363.512	-41.98
363.723	111.61
363.935	72.7
364.146	41.98
364.357	35.84
364.568	23.55
364.779	119.81
364.99	87.04
365.201	7.17
365.412	3.07
365.623	-17.41
365.834	68.61
366.045	54.27
366.256	50.18
366.467	60.42
366.678	-39.94
366.889	39.94
367.1	13.31
367.311	-5.12
367.522	-23.55
367.733	17.41
367.944	62.46
368.155	-7.17
368.366	109.57
368.577	25.6
368.788	-13.31
368.999	41.98
369.209	-27.65
369.42	56.32
369.631	101.37
369.842	1.02
370.053	-13.31
370.264	50.18
370.474	44.03
370.685	44.03
370.896	46.08
371.107	64.51
371.317	-7.17
371.528	46.08
371.739	70.65
371.95	78.85
372.16	-5.12
372.371	111.61
372.582	125.95
372.792	50.18
373.003	-19.46
373.214	66.56
373.424	37.89
373.635	35.84
373.846	78.85
374.056	-7.17
374.267	29.7
374.477	7.17
374.688	115.71
374.898	84.99
375.109	54.27
375.319	19.46
375.53	60.42
375.74	9.22
375.951	13.31
376.161	46.08
376.372	82.94
376.582	17.41
376.793	-33.79
377.003	9.22
377.214	-1.02
377.424	-17.41
377.635	29.7
377.845	33.79
378.055	97.28
378.266	25.6
378.476	39.94
378.686	54.27
378.897	35.84
379.107	29.7
379.317	66.56
379.528	27.65
379.738	103.42
379.948	29.7
380.158	39.94
380.369	-7.17
380.579	5.12
380.789	89.09
380.999	101.37
381.21	109.57
381.42	25.6
381.63	125.95
381.84	82.94
382.05	-1.02
382.261	29.7
382.471	17.41
382.681	48.13
382.891	19.46
383.101	31.74
383.311	78.85
383.521	31.74
383.731	19.46
383.941	89.09
384.151	-31.74
384.361	29.7
384.571	74.75
384.781	68.61
384.991	50.18
385.201	72.7
385.411	60.42
385.621	23.55
385.831	48.13
386.041	89.09
386.251	64.51
386.461	3.07
386.671	21.5
386.881	15.36
387.091	50.18
387.301	74.75
387.511	-1.02
387.72	37.89
387.93	44.03
388.14	19.46
388.35	-72.7
388.56	136.19
388.769	54.27
388.979	37.89
389.189	-7.17
389.399	48.13
389.609	39.94
389.818	23.55
390.028	56.32
390.238	140.29
390.447	-19.46
390.657	25.6
390.867	1.02
391.076	70.65
391.286	-23.55
391.496	-13.31
391.705	-27.65
391.915	60.42
392.125	-27.65
392.334	-21.5
392.544	21.5
392.753	33.79
392.963	17.41
393.172	44.03
393.382	64.51
393.591	72.7
393.801	64.51
394.01	74.75
394.22	-41.98
394.429	35.84
394.639	44.03
394.848	21.5
395.058	48.13
395.267	68.61
395.477	91.13
395.686	54.27
395.895	52.22
396.105	101.37
396.314	-33.79
396.524	72.7
396.733	87.04
396.942	99.33
397.152	101.37
397.361	80.89
397.57	11.26
397.78	1.02
397.989	39.94
398.198	58.37
398.407	-7.17
398.617	35.84
398.826	41.98
399.035	60.42
399.244	78.85
399.453	115.71
399.663	74.75
399.872	35.84
400.081	-1.02
400.29	91.13
400.499	19.46
400.708	62.46
400.917	91.13
401.127	103.42
401.336	29.7
401.545	87.04
401.754	27.65
401.963	70.65
402.172	80.89
402.381	95.23
402.59	48.13
402.799	-3.07
403.008	101.37
403.217	31.74
403.426	74.75
403.635	17.41
403.844	33.79
404.053	103.42
404.262	128
404.471	64.51
404.68	146.43
404.888	44.03
405.097	82.94
405.306	115.71
405.515	140.29
405.724	101.37
405.933	58.37
406.142	119.81
406.35	60.42
406.559	130.05
406.768	119.81
406.977	128
407.185	187.39
407.394	181.25
407.603	74.75
407.812	111.61
408.02	123.9
408.229	164.86
408.438	89.09
408.646	168.96
408.855	142.33
409.064	216.06
409.272	175.1
409.481	152.57
409.69	240.64
409.898	162.81
410.107	168.96
410.315	160.77
410.524	216.06
410.733	244.73
410.941	183.29
411.15	214.01
411.358	246.78
411.567	271.36
411.775	209.92
411.984	211.96
412.192	232.44
412.401	306.17
412.609	252.92
412.818	351.23
413.026	357.37
413.234	330.75
413.443	267.26
413.651	375.8
413.86	308.22
414.068	453.63
414.276	367.61
414.485	392.19
414.693	461.82
414.901	537.59
415.11	431.1
415.318	349.18
415.526	472.06
415.734	439.29
415.943	496.63
416.151	513.02
416.359	480.25
416.567	607.22
416.776	529.4
416.984	566.26
417.192	541.69
417.4	666.61
417.608	633.85
417.817	572.41
418.025	668.66
418.233	734.2
418.441	719.86
418.649	773.11
418.857	814.07
419.065	771.06
419.273	867.31
419.481	877.55
419.689	842.74
419.897	951.28
420.105	984.05
420.313	928.75
420.521	959.47
420.729	1039.34
420.937	1070.06
421.145	992.24
421.353	1070.06
421.561	1135.6
421.769	1053.68
421.977	1276.91
422.185	1289.2
422.393	1307.63
422.601	1407.98
422.809	1487.85
423.017	1364.97
423.224	1502.19
423.432	1481.71
423.64	1545.19
423.848	1747.94
424.056	1653.73
424.263	1772.52
424.471	1754.09
424.679	1862.63
424.887	1971.17
425.094	1932.26
425.302	2063.33
425.51	2063.33
425.718	2100.19
425.925	2098.14
426.133	2094.05
426.341	2323.42
426.548	2540.51
426.756	2421.72
426.964	2460.63
427.171	2573.27
427.379	2647
427.586	2704.34
427.794	2712.53
428.001	2798.55
428.209	3019.73
428.417	2950.1
428.624	3290.06
428.832	3202
429.039	3132.37
429.247	3193.81
429.454	3453.9
429.662	3769.29
429.869	3353.55
430.076	3763.14
430.284	3693.51
430.491	3783.62
430.699	3996.61
430.906	3843.01
431.114	3824.58
431.321	4182.98
431.528	4182.98
431.736	4559.8
431.943	4854.71
432.15	4645.82
432.358	4664.25
432.565	4916.15
432.772	4819.89
432.979	5069.75
433.187	5295.02
433.394	5340.08
433.601	5491.63
433.808	5487.53
434.016	5528.49
434.223	5860.26
434.43	6198.18
434.637	5845.93
434.844	6329.25
435.052	6634.39
435.259	6521.76
435.466	6423.45
435.673	6552.48
435.88	6921.11
436.087	7203.73
436.294	7338.9
436.501	7111.57
436.708	7265.17
436.915	7410.57
437.122	7590.8
437.329	7762.83
437.537	7971.72
437.743	8211.33
437.95	8221.57
438.157	8672.12
438.364	8721.27
438.571	8846.2
438.778	8838.01
438.985	9751.4
439.192	9147.25
439.399	9515.89
439.606	9407.34
439.813	9855.85
440.02	10474.34
440.227	10373.99
440.433	10177.38
440.64	10496.86
440.847	10380.13
441.054	10955.61
441.261	11467.6
441.467	11264.85
441.674	11459.41
441.881	12010.31
442.088	11854.67
442.294	11658.06
442.501	12151.62
442.708	12319.56
442.914	12909.37
443.121	13439.79
443.328	13009.72
443.534	13927.21
443.741	13417.27
443.948	13361.97
444.154	14416.68
444.361	14175.02
444.568	14414.63
444.774	14480.16
444.981	14613.28
445.187	14861.09
445.394	15899.41
445.6	15455
445.807	16782.08
446.013	16018.19
446.22	16288.52
446.426	17173.24
446.633	17289.98
446.839	17490.68
447.046	17097.47
447.252	17844.98
447.459	18193.13
447.665	18043.63
447.871	18805.47
448.078	19249.88
448.284	18553.57
448.491	18838.24
448.697	19987.15
448.903	20409.03
449.11	20382.41
449.316	19847.89
449.522	20239.05
449.728	20859.59
449.935	21084.86
450.141	20765.38
450.347	21590.71
450.553	20667.08
450.76	20873.92
450.966	21697.2
451.172	21519.03
451.378	22088.37
451.584	21502.65
451.791	22280.88
451.997	22147.76
452.203	22391.47
452.409	22207.15
452.615	22209.2
452.821	21414.59
453.027	21048
453.233	22149.81
453.44	21035.71
453.646	21586.61
453.852	21664.44
454.058	21902
454.264	21228.22
454.47	21504.7
454.676	21291.71
454.882	21777.08
455.088	19968.72
455.294	20347.59
455.5	20830.91
455.705	20769.48
455.911	20146.89
456.117	19618.52
456.323	19296.99
456.529	18279.15
456.735	19045.09
456.941	18627.3
457.147	18240.23
457.352	17668.85
457.558	17388.28
457.764	17736.43
457.97	17212.15
458.176	16771.84
458.381	16757.5
458.587	15971.08
458.793	16022.28
458.999	15074.07
459.204	16409.35
459.41	15799.05
459.616	14752.54
459.821	14893.85
460.027	14793.5
460.233	14324.52
460.438	13835.05
460.644	13902.64
460.85	13140.79
461.055	13280.05
461.261	13077.3
461.466	12313.41
461.672	11791.18
461.878	12479.3
462.083	11725.65
462.289	11543.38
462.494	11549.52
462.7	10896.22
462.905	10695.52
463.111	10908.51
463.316	11197.27
463.522	10664.8
463.727	10769.24
463.932	10855.26
464.138	10683.23
464.343	10730.33
464.549	10333.03
464.754	10650.46
464.959	10509.15
465.165	10580.83
465.37	10181.48
465.575	9845.61
465.781	10373.99
465.986	10300.26
466.191	9919.34
466.397	9689.96
466.602	9562.99
466.807	9669.48
467.012	9546.61
467.218	9522.03
467.423	9524.08
467.628	9741.16
467.833	9837.42
468.038	9472.88
468.244	9306.99
468.449	9530.22
468.654	9356.15
468.859	9300.85
469.064	9075.57
469.269	8979.32
469.474	9042.81
469.679	8930.17
469.885	8870.78
470.09	8754.04
470.295	9022.33
470.5	8823.67
470.705	8670.08
470.91	8332.16
471.115	8514.43
471.32	8694.65
471.525	8522.62
471.73	8139.65
471.935	8518.53
472.139	8178.56
472.344	8168.32
472.549	8129.41
472.754	8137.6
472.959	7752.59
473.164	7611.28
473.369	7459.73
473.574	7822.22
473.778	7875.46
473.983	7660.43
474.188	7756.68
474.393	7244.69
474.598	7492.49
474.802	7324.56
475.007	7146.39
475.212	7160.72
475.417	7048.08
475.621	7191.44
475.826	7101.33
476.031	6718.36
476.235	6615.96
476.44	6851.48
476.645	6683.55
476.849	6775.7
477.054	6587.29
477.259	6538.14
477.463	6546.33
477.668	6362.01
477.872	6435.74
478.077	6398.88
478.282	6175.65
478.486	6179.75
478.691	6083.49
478.895	6232.99
479.1	6110.11
479.304	6183.84
479.509	5966.76
479.713	5995.43
479.918	5909.41
480.122	5870.5
480.326	5893.03
480.531	5966.76
480.735	5749.67
480.94	5852.07
481.144	5995.43
481.348	5602.22
481.553	5587.88
481.757	5589.93
481.961	5622.7
482.166	5858.21
482.37	5790.63
482.574	5622.7
482.778	5565.36
482.983	5663.66
483.187	5589.93
483.391	5682.09
483.595	5637.03
483.8	5626.79
484.004	5725.1
484.208	5577.64
484.412	5655.47
484.616	5583.79
484.821	5522.35
485.025	5684.14
485.229	5686.19
485.433	5383.09
485.637	5628.84
485.841	5608.36
486.045	5561.26
486.249	5653.42
486.453	5692.33
486.657	5553.07
486.861	5561.26
487.065	5606.31
487.269	5538.73
487.473	5458.86
487.677	5438.38
487.881	5723.05
488.085	5587.88
488.289	5737.38
488.493	5546.92
488.697	5628.84
488.901	5585.83
489.105	5657.51
489.309	5755.82
489.512	5639.08
489.716	5659.56
489.92	5532.59
490.124	5598.12
490.328	5764.01
490.531	5659.56
490.735	5903.27
490.939	5815.21
491.143	5747.62
491.346	5790.63
491.55	5800.87
491.754	5841.83
491.958	5997.48
492.161	5817.26
492.365	6103.97
492.569	5981.09
492.772	5790.63
492.976	5991.33
493.18	6073.25
493.383	6112.16
493.587	6185.89
493.79	6247.33
493.994	6171.55
494.197	6402.97
494.401	6243.23
494.605	6247.33
494.808	6478.75
495.012	6542.24
495.215	6445.98
495.419	6716.31
495.622	6441.89
495.825	6673.31
496.029	6695.83
496.232	6794.14
496.436	6718.36
496.639	6853.53
496.843	6880.15
497.046	7089.04
497.249	7189.39
497.453	7199.63
497.656	7205.78
497.859	7390.1
498.063	7367.57
498.266	7465.87
498.469	7590.8
498.673	7642
498.876	7869.32
499.079	7730.06
499.282	7621.52
499.485	8137.6
499.689	7867.27
499.892	8119.17
500.095	8139.65
500.298	8340.35
500.501	8485.76
500.705	8471.42
500.908	8551.29
501.111	8772.47
501.314	8952.7
501.517	8860.54
501.72	9096.05
501.923	9007.99
502.126	9288.56
502.329	9212.79
502.532	9565.04
502.735	9347.95
502.938	9780.07
503.141	9861.99
503.344	9845.61
503.547	9974.63
503.75	10208.1
503.953	10257.25
504.156	10478.43
504.359	10373.99
504.562	10507.1
504.765	10761.05
504.968	11002.71
505.17	10969.94
505.373	11144.02
505.576	11148.12
505.779	11645.77
505.982	11512.66
506.185	11610.96
506.387	12049.22
506.59	11873.1
506.793	12415.81
506.996	12204.87
507.198	12624.7
507.401	12522.3
507.604	12761.92
507.807	13136.7
508.009	13263.67
508.212	13151.03
508.415	13626.16
508.617	13579.06
508.82	13814.57
509.022	13646.64
509.225	14293.8
509.428	14134.06
509.63	14347.05
509.833	14555.94
510.035	14928.67
510.238	14666.53
510.44	14889.76
510.643	15336.21
510.845	15258.39
511.048	15389.46
511.25	15643.41
511.453	15733.52
511.655	16478.98
511.858	16417.54
512.06	16306.95
512.262	16472.84
512.465	16683.78
512.667	17099.52
512.87	17255.16
513.072	17304.31
513.274	17738.48
513.477	17937.13
513.679	18150.12
513.881	18180.84
514.084	18447.08
514.286	18545.38
514.488	18565.86
514.69	19352.28
514.893	19258.07
515.095	19569.37
515.297	19684.05
515.499	19704.53
515.701	20081.36
515.904	20075.21
516.106	20280.01
516.308	20609.73
516.51	21152.45
516.712	20802.24
516.914	21283.52
517.116	21576.37
517.318	21932.72
517.52	21961.39
517.722	21949.11
517.925	22536.87
518.127	22942.37
518.329	23005.86
518.531	23112.35
518.733	23378.59
518.935	23505.56
519.136	23802.52
519.338	24212.11
519.54	24433.29
519.742	24423.05
519.944	24474.25
520.146	25326.21
520.348	25320.06
520.55	25356.93
520.752	25809.53
520.954	26288.75
521.155	25852.53
521.357	26378.86
521.559	26694.25
521.761	26919.53
521.963	26878.57
522.164	27302.5
522.366	27658.84
522.568	27740.76
522.77	28154.45
522.971	28068.44
523.173	28146.26
523.375	28490.32
523.576	28521.04
523.778	28932.68
523.98	29008.45
524.181	29366.85
524.383	29270.59
524.584	29717.05
524.786	29463.1
524.988	29805.11
525.189	30159.41
525.391	30437.94
525.592	30855.72
525.794	30528.05
525.995	30794.28
526.197	31091.24
526.398	31205.92
526.6	31562.27
526.801	31781.4
527.003	31472.16
527.204	32076.31
527.406	31883.8
527.607	32176.66
527.808	32455.18
528.01	31668.76
528.211	32000.54
528.412	32993.8
528.614	32502.29
528.815	32508.43
529.016	33151.49
529.218	32834.06
529.419	32664.08
529.62	33307.14
529.822	33053.19
530.023	32993.8
530.224	33110.53
530.425	33399.3
530.626	33067.53
530.828	33198.6
531.029	33827.32
531.23	33272.32
531.431	33577.47
531.632	34019.83
531.833	33751.55
532.035	33387.01
532.236	33839.61
532.437	33954.3
532.638	34003.45
532.839	33702.4
533.04	34132.47
533.241	33778.17
533.442	34619.89
533.643	34085.37
533.844	34193.91
534.045	34359.8
534.246	33731.07
534.447	34410.99
534.648	33942.01
534.849	34226.68
535.05	34460.15
535.251	34165.24
535.451	34318.84
535.652	34574.83
535.853	34349.56
536.054	34640.37
536.255	34646.51
536.456	34126.33
536.657	34697.71
536.857	34347.51
537.058	34572.78
537.259	34429.43
537.46	34947.56
537.66	34427.38
537.861	34515.44
538.062	34394.61
538.263	34507.25
538.463	34359.8
538.664	34601.46
538.865	34468.34
539.065	35021.29
539.266	34095.61
539.466	35097.06
539.667	34122.23
539.868	34787.82
540.068	34597.36
540.269	34824.68
540.469	34953.71
540.67	34640.37
540.87	34671.09
541.071	34552.3
541.271	35023.34
541.472	34701.81
541.672	34662.9
541.873	34593.26
542.073	34284.02
542.274	34783.73
542.474	34673.13
542.675	34324.98
542.875	34779.63
543.075	34673.13
543.276	34482.67
543.476	34910.7
543.676	34591.22
543.877	34920.94
544.077	34488.82
544.277	34032.12
544.478	34519.54
544.678	34583.02
544.878	34626.03
545.078	34501.11
545.279	34144.76
545.479	34286.07
545.679	34646.51
545.879	34497.01
546.079	34152.95
546.28	34462.19
546.48	34277.88
546.68	34286.07
546.88	34478.58
547.08	34691.57
547.28	34568.69
547.48	34177.53
547.68	34462.19
547.88	34632.18
548.081	34853.36
548.281	34421.23
548.481	34468.34
548.681	34482.67
548.881	34388.47
549.081	34591.22
549.28	34734.57
549.48	34757.1
549.68	34476.53
549.88	34664.94
550.08	34140.66
550.28	34294.26
550.48	34206.2
550.68	34619.89
550.88	34384.37
551.08	34474.48
551.279	34404.85
551.479	34419.19
551.679	34460.15
551.879	34056.7
552.079	34437.62
552.278	34294.26
552.478	34425.33
552.678	34392.56
552.878	34374.13
553.077	33948.15
553.277	33954.3
553.477	34546.16
553.676	34138.62
553.876	34234.87
554.076	33991.16
554.275	33821.18
554.475	33649.15
554.674	33884.67
554.874	34593.26
555.074	33862.14
555.273	34081.27
555.473	34202.1
555.672	33874.43
555.872	33995.26
556.071	33833.47
556.271	33688.06
556.47	33761.79
556.67	33456.64
556.869	33339.91
557.068	33933.82
557.268	33372.67
557.467	33475.07
557.667	33444.35
557.866	33696.25
558.065	33536.51
558.265	33454.59
558.464	33219.08
558.663	33550.85
558.863	33145.35
559.062	33470.98
559.261	32926.22
559.461	33423.87
559.66	32668.17
559.859	32565.78
560.058	32827.92
560.258	33192.45
560.457	32514.58
560.656	33001.99
560.855	32569.87
561.054	32608.78
561.253	32662.03
561.453	32850.44
561.652	32455.18
561.851	32731.66
562.05	32537.1
562.249	32393.75
562.448	32707.08
562.647	32490
562.846	32432.66
563.045	32498.19
563.244	32119.32
563.443	32543.25
563.642	31836.7
563.841	32053.78
564.04	32209.43
564.239	32328.21
564.438	31910.43
564.637	31986.2
564.836	32072.21
565.035	31455.78
565.234	31836.7
565.432	31517.22
565.631	31476.26
565.83	31717.92
566.029	31468.06
566.228	31113.77
566.427	31181.35
566.625	31126.05
566.824	30990.89
567.023	31398.43
567.222	30657.07
567.42	31420.96
567.619	30990.89
567.818	30474.8
568.016	30863.91
568.215	30935.59
568.414	30818.86
568.612	30839.34
568.811	30659.12
569.01	30272.05
569.208	30059.06
569.407	30587.44
569.605	29968.95
569.804	30368.3
570.002	29692.47
570.201	29778.49
570.4	29672
570.598	29755.96
570.797	29702.71
570.995	29790.78
571.193	29403.71
571.392	29432.38
571.59	28807.75
571.789	29499.97
571.987	29162.05
572.186	28840.52
572.384	29108.8
572.582	28840.52
572.781	29096.52
572.979	28340.82
573.177	28754.51
573.376	29123.14
573.574	28402.25
573.772	28486.22
573.971	28183.12
574.169	28086.87
574.367	28017.24
574.565	28043.86
574.763	28156.5
574.962	27998.8
575.16	27834.97
575.358	27837.02
575.556	27523.68
575.754	27761.24
575.952	27349.6
576.151	27624.03
576.349	27284.06
576.547	27126.37
576.745	27228.77
576.943	27523.68
577.141	26802.79
577.339	27175.52
577.537	27017.83
577.735	27011.68
577.933	26632.81
578.131	26964.58
578.329	26612.33
578.527	26348.14
578.725	26296.94
578.923	26387.05
579.121	26200.69
579.319	26364.53
579.516	26124.91
579.714	25989.75
579.912	25922.16
580.11	25819.77
580.308	26036.85
580.506	25354.88
580.704	25391.74
580.901	25311.87
581.099	25424.51
581.297	25381.5
581.495	25016.96
581.692	25531
581.89	24971.91
582.088	25244.29
582.285	25238.14
582.483	24949.38
582.681	24808.07
582.878	24994.43
583.076	24543.88
583.274	24797.83
583.471	24554.12
583.669	24507.02
583.866	24308.37
584.064	24593.03
584.262	24230.54
584.459	24345.23
584.657	24187.53
584.854	24248.97
585.052	23769.75
585.249	24099.47
585.447	23739.03
585.644	23614.1
585.841	23650.97
586.039	23970.45
586.236	23325.34
586.434	23636.63
586.631	23595.67
586.828	23442.07
587.026	23198.37
587.223	23261.85
587.42	23220.89
587.618	23147.17
587.815	23055.01
588.012	22842.02
588.21	22874.79
588.407	23104.16
588.604	22626.98
588.801	22682.28
588.999	22520.49
589.196	22678.18
589.393	22403.75
589.59	22416.04
589.787	22192.81
589.984	22078.13
590.182	22203.05
590.379	22125.23
590.576	22106.8
590.773	21992.11
590.97	21910.19
591.167	21877.43
591.364	21854.9
591.561	21942.96
591.758	21580.47
591.955	21525.18
592.152	21566.13
592.349	21373.63
592.546	21361.34
592.743	21172.92
592.94	21082.81
593.137	21129.92
593.334	21656.25
593.531	20978.37
593.727	21109.44
593.924	21029.57
594.121	20966.08
594.318	20912.83
594.515	20667.08
594.712	20824.77
594.908	20697.8
595.105	20708.04
595.302	20273.87
595.499	20669.12
595.696	20701.89
595.892	20452.04
596.089	20587.21
596.286	20329.16
596.482	20085.45
596.679	20097.74
596.876	20292.3
597.072	20050.64
597.269	20163.28
597.466	19874.51
597.662	19907.28
597.859	19847.89
598.055	19899.09
598.252	19563.22
598.448	19628.76
598.645	19163.87
598.841	19354.33
599.038	19507.93
599.234	19264.22
599.431	19167.96
599.627	19286.75
599.824	19387.1
600.02	19120.86
600.217	18959.07
600.413	19055.33
600.609	18995.93
600.806	18916.06
601.002	18920.16
601.198	18836.19
601.395	18557.67
601.591	18678.5
601.787	18539.24
601.984	18201.32
602.18	18520.81
602.376	18334.44
602.572	18477.8
602.769	18107.12
602.965	18162.41
603.161	18125.55
603.357	18205.42
603.553	18039.53
603.75	18221.8
603.946	17883.89
604.142	17918.7
604.338	17832.69
604.534	17816.3
604.73	17613.56
604.926	17578.74
605.122	17629.94
605.318	17541.88
605.514	17107.71
605.71	17273.59
605.906	17206.01
606.102	17249.02
606.298	17050.36
606.494	16941.82
606.69	17197.82
606.886	17087.23
607.082	16915.2
607.278	16947.97
607.474	16667.39
607.67	16958.21
607.866	16528.13
608.062	16671.49
608.257	16694.02
608.453	16603.91
608.649	16528.13
608.845	16562.95
609.041	16483.08
609.236	16354.05
609.432	16362.25
609.628	16202.5
609.824	16055.05
610.019	16122.63
610.215	16173.83
610.411	16298.76
610.606	15909.65
610.802	16296.71
610.998	15958.8
611.193	15887.12
611.389	15852.3
611.584	15844.11
611.78	15776.53
611.976	15600.4
612.171	15498
612.367	15450.9
612.562	15491.86
612.758	15536.91
612.953	15371.03
613.149	15635.22
613.344	14850.85
613.539	15541.01
613.735	15153.94
613.93	15432.47
614.126	15147.8
614.321	15571.73
614.517	15080.22
614.712	15045.4
614.907	14971.68
615.103	14994.2
615.298	15100.7
615.493	15188.76
615.688	14785.31
615.884	15108.89
616.079	14773.02
616.274	14805.79
616.47	14691.1
616.665	14748.45
616.86	14590.75
617.055	14519.07
617.25	14525.22
617.445	14742.3
617.641	14220.07
617.836	14414.63
618.031	14312.23
618.226	14197.54
618.421	14381.86
618.616	14433.06
618.811	13976.36
619.006	14017.32
619.201	13970.22
619.396	13839.15
619.591	13861.68
619.786	13906.73
619.981	13667.12
620.176	13976.36
620.371	13652.78
620.566	13503.28
620.761	13439.79
620.956	13464.37
621.151	13329.2
621.346	13470.51
621.541	13288.25
621.735	13394.74
621.93	12968.76
622.125	13292.34
622.32	12712.77
622.515	12886.84
622.709	12888.89
622.904	12901.18
623.099	12618.56
623.294	12639.04
623.488	12643.14
623.683	12413.76
623.878	12438.34
624.072	12546.88
624.267	12378.95
624.462	12337.99
624.656	12137.29
624.851	12313.41
625.046	12155.72
625.24	11883.34
625.435	11744.08
625.629	11719.5
625.824	11744.08
626.018	11705.17
626.213	11598.67
626.407	11604.81
626.602	11412.31
626.796	11610.96
626.991	11414.35
627.185	11459.41
627.38	11639.63
627.574	11385.68
627.768	11176.79
627.963	11221.84
628.157	10996.57
628.352	10861.4
628.546	10771.29
628.74	11033.43
628.935	10832.73
629.129	10744.67
629.323	10593.12
629.517	10650.46
629.712	10625.89
629.906	10543.97
630.1	10365.79
630.294	10406.75
630.489	10163.04
630.683	10464.1
630.877	10296.16
631.071	10152.81
631.265	10060.65
631.459	10093.41
631.653	10150.76
631.848	10003.3
632.042	9847.66
632.236	10044.26
632.43	9732.97
632.624	9931.62
632.818	9931.62
633.012	9765.74
633.206	9595.76
633.4	9653.1
633.594	9542.51
633.788	9726.83
633.982	9622.38
634.176	9556.85
634.369	9462.64
634.563	9395.06
634.757	9233.27
634.951	9423.73
635.145	9296.75
635.339	9241.46
635.533	9169.78
635.726	9079.67
635.92	8692.6
636.114	8881.02
636.308	9003.89
636.501	8930.17
636.695	8747.9
636.889	8792.95
637.083	8870.78
637.276	8678.27
637.47	8516.48
637.664	8541.05
637.857	8426.37
638.051	8616.83
638.244	8469.37
638.438	8393.6
638.632	8375.17
638.825	8295.3
639.019	8272.77
639.212	8217.47
639.406	8311.68
639.599	8092.55
639.793	8033.16
639.986	7816.07
640.18	7875.46
640.373	7965.57
640.567	7742.35
640.76	7793.55
640.954	7760.78
641.147	7877.51
641.34	7680.91
641.534	7703.43
641.727	7889.8
641.92	7478.16
642.114	7541.64
642.307	7515.02
642.5	7351.18
642.694	7383.95
642.887	7332.75
643.08	7410.57
643.273	7242.64
643.467	7320.46
643.66	7220.11
643.853	7068.56
644.046	7123.86
644.239	7068.56
644.432	6800.28
644.626	6968.21
644.819	7015.32
645.012	6980.5
645.205	6820.76
645.398	6716.31
645.591	6673.31
645.784	6777.75
645.977	6724.51
646.17	6491.04
646.363	6505.37
646.556	6591.39
646.749	6546.33
646.942	6380.45
647.135	6515.61
647.328	6484.89
647.521	6198.18
647.714	6237.09
647.907	6316.96
648.099	6044.58
648.292	6075.3
648.485	6181.79
648.678	6054.82
648.871	5968.8
649.064	5890.98
649.256	5966.76
649.449	5833.64
649.642	5764.01
649.835	5874.6
650.027	5809.06
650.22	5798.82
650.413	5542.83
650.605	5696.43
650.798	5657.51
650.991	5645.23
651.183	5661.61
651.376	5475.24
651.568	5589.93
651.761	5598.12
651.954	5540.78
652.146	5473.2
652.339	5501.87
652.531	5270.45
652.724	5227.44
652.916	5307.31
653.109	5309.36
653.301	5260.21
653.494	5161.91
653.686	5188.53
653.879	5147.57
654.071	5006.26
654.263	5010.36
654.456	5133.23
654.648	4987.83
654.84	4963.25
655.033	5022.64
655.225	4883.38
655.417	4877.24
655.61	4846.52
655.802	4785.08
655.994	4823.99
656.186	4764.6
656.379	4737.98
656.571	4723.64
656.763	4776.89
656.955	4660.15
657.148	4731.83
657.34	4563.9
657.532	4557.75
657.724	4451.26
657.916	4615.1
658.108	4342.72
658.3	4412.35
658.492	4576.19
658.684	4430.78
658.876	4328.38
659.068	4326.33
659.26	4320.19
659.452	4467.64
659.644	4295.61
659.836	4176.83
660.028	4221.89
660.22	4197.31
660.412	4162.5
660.604	4101.06
660.796	4156.35
660.988	4103.11
661.18	4080.58
661.372	4058.05
661.563	3943.36
661.755	4027.33
661.947	3978.18
662.139	3736.52
662.331	3818.44
662.522	3816.39
662.714	3883.97
662.906	3806.15
663.097	3767.24
663.289	3822.53
663.481	3726.28
663.673	3675.08
663.864	3595.21
664.056	3687.37
664.247	3646.41
664.439	3490.76
664.631	3689.42
664.822	3566.54
665.014	3556.3
665.205	3503.05
665.397	3410.89
665.588	3396.56
665.78	3501
665.971	3392.46
666.163	3429.32
666.354	3394.51
666.546	3394.51
666.737	3224.53
666.929	3365.84
667.12	3238.86
667.311	3279.82
667.503	3251.15
667.694	3300.3
667.885	3202
668.077	3242.96
668.268	3281.87
668.459	3257.29
668.651	3124.18
668.842	3185.62
669.033	3081.17
669.224	3048.4
669.416	3185.62
669.607	3263.44
669.798	3060.69
669.989	3167.18
670.18	3101.65
670.371	2999.25
670.563	3023.83
670.754	2976.72
670.945	2970.58
671.136	2995.15
671.327	2956.24
671.518	3005.39
671.709	2958.29
671.9	2978.77
672.091	2776.02
672.282	2941.91
672.473	2954.19
672.664	2921.43
672.855	2907.09
673.046	2888.66
673.237	2954.19
673.428	2808.79
673.619	2833.36
673.809	2894.8
674	2886.61
674.191	2823.12
674.382	2796.5
674.573	2753.49
674.764	2806.74
674.954	2827.22
675.145	2763.73
675.336	2751.45
675.527	2880.47
675.717	2765.78
675.908	2704.34
676.099	2778.07
676.289	2763.73
676.48	2726.87
676.671	2706.39
676.861	2546.65
677.052	2708.44
677.243	2679.77
677.433	2567.13
677.624	2763.73
677.814	2587.61
678.005	2763.73
678.195	2593.75
678.386	2524.12
678.576	2638.81
678.767	2632.66
678.957	2591.7
679.148	2499.55
679.338	2556.89
679.529	2589.66
679.719	2616.28
679.909	2546.65
680.1	2565.08
680.29	2610.14
680.481	2589.66
680.671	2425.82
680.861	2556.89
681.052	2466.78
681.242	2487.26
681.432	2601.94
681.622	2558.94
681.813	2509.79
682.003	2493.4
682.193	2489.31
682.383	2569.18
682.573	2450.39
682.764	2470.87
682.954	2517.98
683.144	2544.6
683.334	2421.72
683.524	2434.01
683.714	2481.11
683.904	2470.87
684.094	2368.48
684.284	2436.06
684.474	2434.01
684.664	2485.21
684.854	2452.44
685.044	2487.26
685.234	2345.95
685.424	2573.27
685.614	2466.78
685.804	2331.61
685.994	2370.52
686.184	2278.37
686.374	2268.13
686.564	2419.68
686.753	2358.24
686.943	2397.15
687.133	2317.28
687.323	2434.01
687.513	2309.08
687.702	2489.31
687.892	2372.57
688.082	2366.43
688.272	2401.24
688.461	2239.45
688.651	2309.08
688.841	2348
689.03	2210.78
689.22	2282.46
689.41	2405.34
689.599	2425.82
689.789	2384.86
689.979	2253.79
690.168	2354.14
690.358	2335.71
690.547	2294.75
690.737	2376.67
690.926	2339.8
691.116	2339.8
691.305	2257.89
691.495	2294.75
691.684	2399.2
691.874	2274.27
692.063	2257.89
692.252	2348
692.442	2325.47
692.631	2323.42
692.82	2282.46
693.01	2311.13
693.199	2388.96
693.388	2341.85
693.578	2184.16
693.767	2350.04
693.956	2366.43
694.146	2380.76
694.335	2257.89
694.524	2315.23
694.713	2272.22
694.902	2386.91
695.092	2339.8
695.281	2311.13
695.47	2278.37
695.659	2223.07
695.848	2341.85
696.037	2401.24
696.226	2415.58
696.415	2270.17
696.604	2304.99
696.793	2264.03
696.982	2333.66
697.171	2313.18
697.36	2350.04
697.549	2202.59
697.738	2319.32
697.927	2126.82
698.116	2343.9
698.305	2284.51
698.494	2237.41
698.683	2313.18
698.872	2313.18
699.061	2315.23
699.25	2243.55
699.438	2245.6
699.627	2274.27
699.816	2210.78
700.005	2268.13
700.193	2253.79
700.382	2335.71
700.571	2216.93
700.76	2331.61
700.948	2315.23
701.137	2204.64
701.326	2206.69
701.514	2245.6
701.703	2302.94
701.892	2221.02
702.08	2229.21
702.269	2354.14
702.457	2243.55
702.646	2216.93
702.834	2239.45
703.023	2309.08
703.212	2204.64
703.4	2175.97
703.589	2210.78
703.777	2184.16
703.965	2147.3
704.154	2212.83
704.342	2120.67
704.531	2225.12
704.719	2122.72
704.907	2171.87
705.096	2096.1
705.284	2135.01
705.472	2317.28
705.661	2098.14
705.849	2245.6
706.037	2204.64
706.226	2126.82
706.414	2237.41
706.602	2175.97
706.79	2137.06
706.979	2065.38
707.167	2112.48
707.355	2145.25
707.543	2178.01
707.731	2104.29
707.919	2182.11
708.107	2085.86
708.296	2098.14
708.484	2036.7
708.672	2120.67
708.86	2079.71
709.048	2077.66
709.236	2110.43
709.424	2063.33
709.612	2079.71
709.8	2044.9
709.988	1971.17
710.176	1956.83
710.364	2040.8
710.551	2087.9
710.739	1895.4
710.927	2010.08
711.115	1926.11
711.303	1930.21
711.491	1891.3
711.679	1977.31
711.866	2028.51
712.054	1874.92
712.242	1995.75
712.43	1967.07
712.617	1899.49
712.805	1907.68
712.993	1823.72
713.181	1895.4
713.368	1977.31
713.556	1901.54
713.744	1932.26
713.931	1815.52
714.119	1876.96
714.306	1836
714.494	1825.76
714.682	1844.2
714.869	1938.4
715.057	1917.92
715.244	1774.56
715.432	1868.77
715.619	1883.11
715.807	1833.96
715.994	1801.19
716.182	1836
716.369	1727.46
716.556	1831.91
716.744	1776.61
716.931	1848.29
717.119	1819.62
717.306	1784.8
717.493	1774.56
717.681	1821.67
717.868	1747.94
718.055	1737.7
718.242	1633.26
718.43	1678.31
718.617	1661.93
718.804	1682.41
718.991	1692.65
719.179	1684.45
719.366	1735.65
719.553	1731.56
719.74	1663.97
719.927	1766.37
720.114	1598.44
720.301	1653.73
720.488	1641.45
720.676	1666.02
720.863	1706.98
721.05	1588.2
721.237	1639.4
721.424	1674.21
721.611	1641.45
721.798	1586.15
721.985	1668.07
722.172	1592.3
722.358	1551.34
722.545	1598.44
722.732	1629.16
722.919	1727.46
723.106	1663.97
723.293	1565.67
723.48	1541.1
723.667	1577.96
723.853	1553.38
724.04	1563.62
724.227	1512.42
724.414	1539.05
724.6	1567.72
724.787	1473.51
724.974	1592.3
725.161	1477.61
725.347	1526.76
725.534	1389.55
725.72	1543.14
725.907	1453.03
726.094	1631.21
726.28	1547.24
726.467	1604.58
726.653	1477.61
726.84	1479.66
727.027	1594.34
727.213	1467.37
727.4	1412.07
727.586	1438.7
727.773	1465.32
727.959	1457.13
728.145	1442.79
728.332	1379.31
728.518	1489.9
728.705	1403.88
728.891	1377.26
729.077	1371.12
729.264	1418.22
729.45	1358.83
729.636	1414.12
729.823	1330.16
730.009	1383.4
730.195	1430.51
730.382	1436.65
730.568	1481.71
730.754	1336.3
730.94	1381.35
731.126	1278.96
731.313	1342.44
731.499	1305.58
731.685	1367.02
731.871	1235.95
732.057	1287.15
732.243	1336.3
732.429	1395.69
732.615	1344.49
732.801	1356.78
732.987	1217.52
733.173	1315.82
733.359	1235.95
733.545	1276.91
733.731	1340.4
733.917	1254.38
734.103	1242.09
734.289	1291.24
734.475	1287.15
734.661	1336.3
734.847	1194.99
735.033	1326.06
735.219	1184.75
735.404	1354.73
735.59	1205.23
735.776	1170.41
735.962	1278.96
736.148	1238
736.333	1231.85
736.519	1293.29
736.705	1201.13
736.89	1172.46
737.076	1244.14
737.262	1231.85
737.447	1170.41
737.633	1223.66
737.819	1215.47
738.004	1209.33
738.19	1174.51
738.375	1248.24
738.561	1278.96
738.747	1133.55
738.932	1194.99
739.118	1141.74
739.303	1078.26
739.489	1190.89
739.674	1113.07
739.859	1074.16
740.045	1231.85
740.23	1201.13
740.416	1131.5
740.601	1190.89
740.786	1113.07
740.972	1117.17
741.157	1117.17
741.342	1166.32
741.528	1197.04
741.713	1076.21
741.898	1074.16
742.084	1143.79
742.269	1164.27
742.454	1025.01
742.639	1092.59
742.824	1018.86
743.01	1129.45
743.195	1020.91
743.38	1051.63
743.565	1082.35
743.75	1027.06
743.935	1027.06
744.12	973.81
744.305	1002.48
744.49	1000.43
744.675	1012.72
744.86	1004.53
745.045	1010.67
745.23	1035.25
745.415	1057.78
745.6	979.95
745.785	1006.58
745.97	1063.92
746.155	959.47
746.34	936.95
746.525	1012.72
746.71	955.38
746.895	895.99
747.079	936.95
747.264	1027.06
747.449	955.38
747.634	965.62
747.819	986.1
748.003	949.23
748.188	1002.48
748.373	861.17
748.557	916.47
748.742	920.56
748.927	865.27
749.111	910.32
749.296	838.64
749.481	902.13
749.665	922.61
749.85	885.75
750.034	873.46
750.219	865.27
750.404	871.41
750.588	807.92
750.773	809.97
750.957	805.88
751.141	842.74
751.326	775.16
751.51	775.16
751.695	809.97
751.879	826.36
752.064	822.26
752.248	824.31
752.432	818.16
752.617	785.4
752.801	781.3
752.985	783.35
753.17	809.97
753.354	789.49
753.538	773.11
753.722	781.3
753.907	764.92
754.091	758.77
754.275	736.24
754.459	791.54
754.643	633.85
754.828	678.9
755.012	664.57
755.196	676.85
755.38	756.72
755.564	676.85
755.748	693.24
755.932	678.9
756.116	639.99
756.3	687.09
756.484	670.71
756.668	627.7
756.852	701.43
757.036	709.62
757.22	705.53
757.404	668.66
757.588	646.13
757.772	699.38
757.956	715.77
758.14	648.18
758.323	592.89
758.507	617.46
758.691	658.42
758.875	660.47
759.059	715.77
759.242	527.35
759.426	584.7
759.61	615.41
759.794	543.74
759.977	617.46
760.161	639.99
760.345	605.17
760.528	654.33
760.712	531.45
760.895	578.55
761.079	621.56
761.263	590.84
761.446	523.26
761.63	617.46
761.813	566.26
761.997	652.28
762.18	545.78
762.364	584.7
762.547	517.11
762.731	543.74
762.914	607.22
763.098	502.78
763.281	490.49
763.464	539.64
763.648	484.34
763.831	543.74
764.015	531.45
764.198	570.36
764.381	486.39
764.564	582.65
764.748	529.4
764.931	562.17
765.114	418.81
765.297	617.46
765.481	531.45
765.664	470.01
765.847	474.1
766.03	504.82
766.213	467.96
766.397	463.86
766.58	465.91
766.763	564.22
766.946	482.3
767.129	449.53
767.312	529.4
767.495	502.78
767.678	574.46
767.861	490.49
768.044	467.96
768.227	525.3
768.41	470.01
768.593	537.59
768.776	455.67
768.959	402.43
769.142	486.39
769.324	580.6
769.507	488.44
769.69	533.5
769.873	472.06
770.056	457.72
770.239	433.15
770.421	463.86
770.604	465.91
770.787	498.68
770.97	435.19
771.152	435.19
771.335	484.34
771.518	431.1
771.7	431.1
771.883	400.38
772.066	453.63
772.248	521.21
772.431	490.49
772.613	472.06
772.796	396.28
772.978	470.01
773.161	441.34
773.343	408.57
773.526	470.01
773.708	492.54
773.891	439.29
774.073	435.19
774.256	427
774.438	472.06
774.621	314.36
774.803	334.84
774.985	381.95
775.168	416.76
775.35	404.47
775.532	365.56
775.715	429.05
775.897	314.36
776.079	422.91
776.261	412.67
776.444	336.89
776.626	406.52
776.808	422.91
776.99	379.9
777.173	353.27
777.355	416.76
777.537	379.9
777.719	373.75
777.901	416.76
778.083	392.19
778.265	334.84
778.447	375.8
778.629	363.51
778.811	443.39
778.993	371.71
779.175	334.84
779.357	392.19
779.539	345.08
779.721	318.46
779.903	279.55
780.085	392.19
780.267	351.23
780.449	375.8
780.631	361.47
780.812	326.65
780.994	392.19
781.176	273.4
781.358	314.36
781.54	240.64
781.721	228.35
781.903	257.02
782.085	238.59
782.267	261.12
782.448	277.5
782.63	185.34
782.812	300.03
782.993	322.56
783.175	347.13
783.357	254.97
783.538	297.98
783.72	244.73
783.901	259.07
784.083	234.49
784.264	259.07
784.446	265.21
784.627	310.27
784.809	275.45
784.99	363.51
785.172	259.07
785.353	252.92
785.535	328.7
785.716	203.77
785.897	269.31
786.079	214.01
786.26	263.16
786.441	338.94
786.623	209.92
786.804	234.49
786.985	207.87
787.167	220.16
787.348	257.02
787.529	203.77
787.71	254.97
787.891	224.25
788.073	136.19
788.254	166.91
788.435	185.34
788.616	224.25
788.797	304.12
788.978	214.01
789.159	218.11
789.34	259.07
789.522	240.64
789.703	207.87
789.884	283.64
790.065	259.07
790.246	179.2
790.427	201.72
790.607	308.22
790.788	177.15
790.969	168.96
791.15	185.34
791.331	164.86
791.512	191.49
791.693	216.06
791.874	99.33
792.054	138.24
792.235	195.58
792.416	195.58
792.597	205.82
792.778	134.14
792.958	195.58
793.139	183.29
793.32	185.34
793.5	168.96
793.681	185.34
793.862	76.8
794.042	171.01
794.223	140.29
794.404	175.1
794.584	121.85
794.765	121.85
794.945	123.9
795.126	214.01
795.306	179.2
795.487	117.76
795.667	160.77
795.848	216.06
796.028	125.95
796.209	142.33
796.389	183.29
796.57	183.29
796.75	162.81
796.93	156.67
797.111	62.46
797.291	173.05
797.471	117.76
797.652	222.2
797.832	142.33
798.012	144.38
798.192	103.42
798.373	156.67
798.553	193.53
798.733	140.29
798.913	128
799.093	72.7
799.274	185.34
799.454	93.18
799.634	175.1
799.814	173.05
799.994	101.37
800.174	128
800.354	152.57
800.534	128
800.714	134.14
800.894	130.05
801.074	64.51
801.254	171.01
801.434	121.85
801.614	154.62
801.794	76.8
801.974	414.71
802.154	171.01
802.334	160.77
802.514	76.8
802.693	82.94
802.873	119.81
803.053	214.01
803.233	142.33
803.413	101.37
803.592	111.61
803.772	109.57
803.952	117.76
804.131	89.09
804.311	230.4
804.491	164.86
804.67	160.77
804.85	146.43
805.03	128
805.209	109.57
805.389	136.19
805.568	156.67
805.748	33.79
805.928	136.19
806.107	113.66
806.287	113.66
806.466	113.66
806.646	119.81
806.825	134.14
807.004	123.9
807.184	125.95
807.363	54.27
807.543	80.89
807.722	99.33
807.901	142.33
808.081	119.81
808.26	99.33
808.439	107.52
808.619	58.37
808.798	64.51
808.977	91.13
809.156	70.65
809.336	74.75
809.515	31.74
809.694	134.14
809.873	54.27
810.052	54.27
810.231	117.76
810.411	54.27
810.59	80.89
810.769	150.53
810.948	93.18
811.127	33.79
811.306	70.65
811.485	46.08
811.664	125.95
811.843	87.04
812.022	158.72
812.201	58.37
812.38	87.04
812.559	78.85
812.737	64.51
812.916	56.32
813.095	113.66
813.274	91.13
813.453	91.13
813.632	138.24
813.811	101.37
813.989	41.98
814.168	70.65
814.347	1.02
814.526	91.13
814.704	68.61
814.883	171.01
815.062	37.89
815.24	95.23
815.419	87.04
815.598	95.23
815.776	74.75
815.955	152.57
816.133	72.7
816.312	134.14
816.49	136.19
816.669	109.57
816.847	91.13
817.026	31.74
817.204	46.08
817.383	44.03
817.561	35.84
817.74	68.61
817.918	64.51
818.097	50.18
818.275	37.89
818.453	91.13
818.632	123.9
818.81	19.46
818.988	78.85
819.167	58.37
819.345	-9.22
819.523	37.89
819.701	166.91
819.879	3.07
820.058	39.94
820.236	74.75
820.414	80.89
820.592	-3.07
820.77	56.32
820.948	23.55
821.127	105.47
821.305	101.37
821.483	68.61
821.661	56.32
821.839	25.6
822.017	156.67
822.195	11.26
822.373	156.67
822.551	64.51
822.729	111.61
822.907	17.41
823.085	93.18
823.262	33.79
823.44	25.6
823.618	19.46
823.796	109.57
823.974	93.18
824.152	-1.02
824.329	93.18
824.507	111.61
824.685	82.94
824.863	166.91
825.04	80.89
825.218	123.9
825.396	74.75
825.574	72.7
825.751	64.51
825.929	119.81
826.107	-11.26
826.284	46.08
826.462	111.61
826.639	25.6
826.817	37.89
826.994	64.51
827.172	25.6
827.349	78.85
827.527	54.27
827.704	105.47
827.882	37.89
828.059	87.04
828.237	84.99
828.414	11.26
828.591	46.08
828.769	107.52
828.946	64.51
829.124	9.22
829.301	136.19
829.478	7.17
829.655	115.71
829.833	74.75
830.01	76.8
830.187	3.07
830.364	46.08
830.542	54.27
830.719	70.65
830.896	-11.26
831.073	52.22
831.25	39.94
831.427	82.94
831.604	101.37
831.782	107.52
831.959	3.07
832.136	33.79
832.313	5.12
832.49	31.74
832.667	25.6
832.844	41.98
833.021	89.09
833.198	23.55
833.374	19.46
833.551	3.07
833.728	72.7
833.905	37.89
834.082	-19.46
834.259	64.51
834.436	60.42
834.612	44.03
834.789	76.8
834.966	31.74
835.143	103.42
835.319	21.5
835.496	119.81
835.673	84.99
835.85	136.19
836.026	35.84
836.203	29.7
836.38	39.94
836.556	70.65
836.733	27.65
836.909	109.57
837.086	56.32
837.262	19.46
837.439	72.7
837.616	9.22
837.792	72.7
837.968	29.7
838.145	9.22
838.321	-11.26
838.498	21.5
838.674	52.22
838.851	87.04
839.027	13.31
839.203	50.18
839.38	13.31
839.556	-3.07
839.732	66.56
839.909	41.98
840.085	84.99
840.261	91.13
840.437	62.46
840.614	76.8
840.79	82.94
840.966	46.08
841.142	-17.41
841.318	-7.17
841.494	39.94
841.671	-5.12
841.847	21.5
842.023	15.36
842.199	-5.12
842.375	25.6
842.551	3.07
842.727	-37.89
842.903	78.85
843.079	15.36
843.255	-41.98
843.431	-13.31
843.607	93.18
843.783	31.74
843.959	52.22
844.134	54.27
844.31	52.22
844.486	27.65
844.662	54.27
844.838	99.33
845.013	60.42
845.189	72.7
845.365	37.89
845.541	33.79
845.716	33.79
845.892	64.51
846.068	37.89
846.244	3.07
846.419	3.07
846.595	-50.18
846.77	-13.31
846.946	82.94
847.122	35.84
847.297	29.7
847.473	33.79
847.648	37.89
847.824	64.51
847.999	-25.6
848.175	87.04
848.35	62.46
848.526	15.36
848.701	-23.55
848.876	46.08
849.052	19.46
849.227	9.22
849.403	13.31
849.578	107.52
849.753	66.56
849.929	23.55
850.104	39.94
850.279	50.18
850.454	-9.22
850.63	-54.27
850.805	44.03
850.98	7.17
851.155	3.07
851.33	31.74
851.505	19.46
851.681	-46.08
851.856	39.94
852.031	3.07
852.206	19.46
852.381	11.26
852.556	78.85
852.731	13.31
852.906	-5.12
853.081	111.61
853.256	48.13
853.431	50.18
853.606	23.55
853.781	80.89
853.956	25.6
854.131	84.99
854.305	-7.17
854.48	23.55
854.655	-15.36
854.83	-3.07
855.005	68.61
855.18	-54.27
855.354	70.65
855.529	72.7
855.704	13.31
855.879	27.65
856.053	-3.07
856.228	19.46
856.403	-25.6
856.577	19.46
856.752	41.98
856.926	17.41
857.101	13.31
857.276	15.36
857.45	13.31
857.625	48.13
857.799	25.6
857.974	-44.03
858.148	-60.42
858.323	-50.18
858.497	23.55
858.672	31.74
858.846	11.26
859.02	13.31
859.195	23.55
859.369	44.03
859.543	23.55
859.718	-33.79
859.892	-37.89
860.066	5.12
860.241	35.84
860.415	29.7
860.589	54.27
860.763	54.27
860.938	37.89
861.112	-39.94
861.286	-5.12
861.46	82.94
861.634	13.31
861.808	19.46
861.982	54.27
862.157	60.42
862.331	1.02
862.505	-25.6
862.679	-27.65
862.853	-13.31
863.027	-46.08
863.201	1.02
863.375	-19.46
863.549	29.7
863.722	19.46
863.896	41.98
864.07	15.36
864.244	89.09
864.418	56.32
864.592	1.02
864.766	-37.89
864.939	56.32
865.113	15.36
865.287	13.31
865.461	19.46
865.634	74.75
865.808	23.55
865.982	-1.02
866.156	-62.46
866.329	29.7
866.503	84.99
866.676	60.42
866.85	50.18
867.024	-17.41
867.197	44.03
867.371	-33.79
867.544	70.65
867.718	5.12
867.891	-11.26
868.065	19.46
868.238	-41.98
868.412	3.07
868.585	31.74
868.759	119.81
868.932	39.94
869.105	-7.17
869.279	78.85
869.452	52.22
869.625	-17.41
869.799	11.26
869.972	29.7
870.145	-5.12
870.319	52.22
870.492	21.5
870.665	-58.37
870.838	-9.22
871.011	5.12
871.185	44.03
871.358	-29.7
871.531	5.12
871.704	-13.31
871.877	-25.6
872.05	3.07
872.223	50.18
872.396	21.5
872.569	46.08
872.742	27.65
872.915	66.56
873.088	-25.6
873.261	-29.7
873.434	44.03
873.607	46.08
873.78	13.31
873.953	41.98
874.126	-7.17
874.299	21.5
874.471	84.99
874.644	21.5
874.817	17.41
874.99	15.36
875.163	-35.84
875.335	44.03
875.508	1.02
875.681	25.6
875.853	23.55
876.026	-13.31
876.199	23.55
876.371	9.22
876.544	23.55
876.717	-5.12
876.889	-62.46
877.062	52.22
877.234	-27.65
877.407	66.56
877.579	33.79
877.752	82.94
877.924	56.32
878.097	46.08
878.269	-35.84
878.442	17.41
878.614	35.84
878.786	13.31
878.959	-70.65
879.131	35.84
879.303	21.5
879.476	19.46
879.648	-15.36
879.82	44.03
879.993	1.02
880.165	66.56
880.337	5.12
880.509	-9.22
880.681	-25.6
880.854	19.46
881.026	11.26
881.198	62.46
881.37	-11.26
881.542	21.5
881.714	-41.98
881.886	3.07
882.058	76.8
882.23	-35.84
882.402	-29.7
882.574	41.98
882.746	27.65
882.918	44.03
883.09	44.03
883.262	3.07
883.434	-5.12
883.606	50.18
883.778	66.56
883.95	-1.02
884.122	5.12
884.293	5.12
884.465	5.12
884.637	-25.6
884.809	-48.13
884.98	-44.03
885.152	9.22
885.324	64.51
885.496	-46.08
885.667	37.89
885.839	17.41
886.011	60.42
886.182	-58.37
886.354	21.5
886.525	72.7
886.697	52.22
886.869	1.02
887.04	-25.6
887.212	-46.08
887.383	-11.26
887.555	64.51
887.726	-29.7
887.897	-11.26
888.069	3.07
888.24	33.79
888.412	48.13
888.583	-11.26
888.754	5.12
888.926	21.5
889.097	78.85
889.268	-1.02
889.44	9.22
889.611	-35.84
889.782	3.07
889.953	7.17
890.125	3.07
890.296	5.12
890.467	13.31
890.638	-27.65
890.809	3.07
890.98	5.12
891.151	13.31
891.323	23.55
891.494	35.84
891.665	-11.26
891.836	46.08
892.007	-25.6
892.178	23.55
892.349	-27.65
892.52	21.5
892.691	-37.89
892.862	-1.02
893.032	-74.75
893.203	35.84
893.374	17.41
893.545	46.08
893.716	29.7
893.887	17.41
894.057	3.07
894.228	58.37
894.399	41.98
894.57	44.03
894.74	9.22
894.911	5.12
895.082	31.74
895.253	-27.65
895.423	-13.31
895.594	52.22
895.764	19.46
895.935	-33.79
896.106	5.12
896.276	-21.5
896.447	-7.17
896.617	-19.46
896.788	-21.5
896.958	-11.26
897.129	-50.18
897.299	-62.46
897.47	5.12
897.64	-33.79
897.81	25.6
897.981	-15.36
898.151	-5.12
898.322	-11.26
898.492	89.09
898.662	25.6
898.832	19.46
899.003	-50.18
899.173	-7.17
899.343	46.08
899.513	11.26
