Data from USB4F104151__152__13-58-34-714.txt Node

Date: Thu Mar 13 13:58:34 EDT 2025
User: louis
Spectrometer: USB4F10415
Trigger mode: 4
Integration Time (sec): 1.000000E-2
Scans to average: 1
Electric dark correction enabled: true
Nonlinearity correction enabled: false
Boxcar width: 0
XAxis mode: Wavelengths
Number of Pixels in Spectrum: 3648
>>>>>Begin Spectral Data<<<<<
178.204	-56.83
178.424	-56.83
178.644	-56.83
178.864	-26.11
179.084	-13.82
179.304	-5.63
179.524	14.85
179.744	-38.4
179.964	-52.74
180.184	-15.87
180.404	45.57
180.624	-32.26
180.844	-22.02
181.064	39.42
181.283	10.75
181.503	2.56
181.723	53.76
181.943	-34.3
182.163	59.9
182.383	51.71
182.602	61.95
182.822	-11.78
183.042	55.81
183.262	14.85
183.482	-7.68
183.701	-48.64
183.921	43.52
184.141	96.77
184.361	2.56
184.58	-1.54
184.8	29.18
185.02	-1.54
185.239	80.38
185.459	29.18
185.679	-52.74
185.898	0.51
186.118	37.38
186.338	-22.02
186.557	0.51
186.777	-13.82
186.997	27.14
187.216	6.66
187.436	55.81
187.655	47.62
187.875	49.66
188.095	-5.63
188.314	86.53
188.534	55.81
188.753	-5.63
188.973	14.85
189.192	78.33
189.412	47.62
189.631	23.04
189.851	2.56
190.07	27.14
190.29	61.95
190.509	86.53
190.729	-42.5
190.948	-38.4
191.168	-34.3
191.387	104.96
191.607	31.23
191.826	70.14
192.045	-1.54
192.265	47.62
192.484	31.23
192.704	4.61
192.923	12.8
193.142	78.33
193.362	45.57
193.581	45.57
193.8	-13.82
194.02	-9.73
194.239	4.61
194.458	61.95
194.678	45.57
194.897	68.09
195.116	-34.3
195.335	-9.73
195.555	43.52
195.774	35.33
195.993	-5.63
196.212	113.15
196.432	55.81
196.651	59.9
196.87	27.14
197.089	57.86
197.308	-1.54
197.528	0.51
197.747	-9.73
197.966	31.23
198.185	59.9
198.404	90.62
198.623	51.71
198.842	14.85
199.062	61.95
199.281	31.23
199.5	37.38
199.719	-17.92
199.938	29.18
200.157	-22.02
200.376	55.81
200.595	-26.11
200.814	-9.73
201.033	37.38
201.252	47.62
201.471	6.66
201.69	-3.58
201.909	-9.73
202.128	18.94
202.347	94.72
202.566	12.8
202.785	-24.06
203.004	31.23
203.223	25.09
203.442	-26.11
203.661	113.15
203.879	-40.45
204.098	29.18
204.317	39.42
204.536	86.53
204.755	57.86
204.974	14.85
205.193	18.94
205.411	37.38
205.63	64
205.849	10.75
206.068	8.7
206.287	-5.63
206.505	-3.58
206.724	-13.82
206.943	8.7
207.162	14.85
207.381	100.86
207.599	-13.82
207.818	43.52
208.037	14.85
208.255	-13.82
208.474	-46.59
208.693	45.57
208.911	23.04
209.13	-15.87
209.349	-1.54
209.567	39.42
209.786	12.8
210.005	74.24
210.223	96.77
210.442	14.85
210.661	18.94
210.879	35.33
211.098	-9.73
211.316	86.53
211.535	37.38
211.753	39.42
211.972	29.18
212.191	53.76
212.409	27.14
212.628	-11.78
212.846	68.09
213.065	4.61
213.283	82.43
213.502	37.38
213.72	-3.58
213.938	29.18
214.157	139.77
214.375	-34.3
214.594	2.56
214.812	-5.63
215.031	45.57
215.249	6.66
215.467	70.14
215.686	4.61
215.904	43.52
216.122	0.51
216.341	78.33
216.559	-34.3
216.778	70.14
216.996	59.9
217.214	29.18
217.432	-22.02
217.651	27.14
217.869	59.9
218.087	55.81
218.306	14.85
218.524	33.28
218.742	-30.21
218.96	-13.82
219.179	29.18
219.397	-1.54
219.615	-28.16
219.833	25.09
220.051	-22.02
220.27	88.57
220.488	49.66
220.706	-7.68
220.924	10.75
221.142	6.66
221.36	-3.58
221.578	78.33
221.796	-69.12
222.015	27.14
222.233	104.96
222.451	61.95
222.669	37.38
222.887	10.75
223.105	23.04
223.323	45.57
223.541	37.38
223.759	27.14
223.977	-26.11
224.195	-11.78
224.413	20.99
224.631	39.42
224.849	43.52
225.067	66.05
225.285	35.33
225.503	18.94
225.721	49.66
225.939	-32.26
226.157	10.75
226.375	59.9
226.592	-1.54
226.81	-65.02
227.028	86.53
227.246	-1.54
227.464	47.62
227.682	55.81
227.9	20.99
228.117	37.38
228.335	37.38
228.553	8.7
228.771	23.04
228.989	45.57
229.206	10.75
229.424	94.72
229.642	0.51
229.86	10.75
230.077	-11.78
230.295	-15.87
230.513	49.66
230.731	10.75
230.948	47.62
231.166	37.38
231.384	-13.82
231.601	-5.63
231.819	68.09
232.037	41.47
232.254	78.33
232.472	45.57
232.689	47.62
232.907	-17.92
233.125	29.18
233.342	53.76
233.56	10.75
233.777	18.94
233.995	61.95
234.213	-46.59
234.43	57.86
234.648	45.57
234.865	29.18
235.083	57.86
235.3	51.71
235.518	4.61
235.735	49.66
235.953	37.38
236.17	-67.07
236.388	6.66
236.605	18.94
236.822	18.94
237.04	45.57
237.257	43.52
237.475	16.9
237.692	53.76
237.909	74.24
238.127	31.23
238.344	41.47
238.562	78.33
238.779	-15.87
238.996	33.28
239.214	51.71
239.431	10.75
239.648	-22.02
239.865	14.85
240.083	20.99
240.3	68.09
240.517	68.09
240.735	43.52
240.952	18.94
241.169	2.56
241.386	20.99
241.603	64
241.821	64
242.038	-5.63
242.255	61.95
242.472	76.29
242.689	68.09
242.907	88.57
243.124	53.76
243.341	70.14
243.558	18.94
243.775	53.76
243.992	-22.02
244.209	-5.63
244.426	-7.68
244.643	23.04
244.86	55.81
245.078	113.15
245.295	45.57
245.512	82.43
245.729	23.04
245.946	-7.68
246.163	43.52
246.38	72.19
246.597	8.7
246.814	0.51
247.031	53.76
247.248	43.52
247.464	14.85
247.681	92.67
247.898	78.33
248.115	80.38
248.332	16.9
248.549	4.61
248.766	18.94
248.983	10.75
249.2	-11.78
249.417	2.56
249.633	18.94
249.85	86.53
250.067	-13.82
250.284	-3.58
250.501	6.66
250.717	70.14
250.934	-11.78
251.151	37.38
251.368	-13.82
251.585	20.99
251.801	-13.82
252.018	31.23
252.235	76.29
252.451	53.76
252.668	35.33
252.885	43.52
253.102	23.04
253.318	27.14
253.535	23.04
253.752	53.76
253.968	-7.68
254.185	-34.3
254.401	57.86
254.618	8.7
254.835	-7.68
255.051	59.9
255.268	-9.73
255.484	37.38
255.701	59.9
255.917	27.14
256.134	41.47
256.351	86.53
256.567	20.99
256.784	29.18
257	27.14
257.217	12.8
257.433	47.62
257.65	57.86
257.866	-52.74
258.082	8.7
258.299	2.56
258.515	12.8
258.732	74.24
258.948	-30.21
259.165	49.66
259.381	41.47
259.597	2.56
259.814	74.24
260.03	39.42
260.246	96.77
260.463	111.1
260.679	35.33
260.895	59.9
261.112	8.7
261.328	-34.3
261.544	47.62
261.761	86.53
261.977	43.52
262.193	-38.4
262.409	53.76
262.626	51.71
262.842	53.76
263.058	4.61
263.274	66.05
263.49	27.14
263.707	98.81
263.923	12.8
264.139	-7.68
264.355	31.23
264.571	68.09
264.787	84.48
265.004	41.47
265.22	51.71
265.436	23.04
265.652	45.57
265.868	49.66
266.084	64
266.3	107.01
266.516	76.29
266.732	53.76
266.948	-9.73
267.164	41.47
267.38	-1.54
267.596	43.52
267.812	129.53
268.028	-1.54
268.244	-32.26
268.46	111.1
268.676	2.56
268.892	59.9
269.108	4.61
269.324	51.71
269.54	-7.68
269.756	37.38
269.972	16.9
270.188	12.8
270.403	23.04
270.619	72.19
270.835	53.76
271.051	-5.63
271.267	53.76
271.483	2.56
271.698	84.48
271.914	49.66
272.13	14.85
272.346	27.14
272.562	-9.73
272.777	104.96
272.993	-13.82
273.209	37.38
273.425	20.99
273.64	51.71
273.856	57.86
274.072	33.28
274.287	49.66
274.503	41.47
274.719	-3.58
274.934	16.9
275.15	-11.78
275.366	47.62
275.581	18.94
275.797	14.85
276.012	-1.54
276.228	-7.68
276.444	35.33
276.659	72.19
276.875	23.04
277.09	47.62
277.306	37.38
277.521	68.09
277.737	6.66
277.952	92.67
278.168	23.04
278.383	20.99
278.599	27.14
278.814	27.14
279.03	20.99
279.245	23.04
279.461	-15.87
279.676	18.94
279.892	-32.26
280.107	41.47
280.322	-36.35
280.538	59.9
280.753	-5.63
280.969	127.49
281.184	-46.59
281.399	96.77
281.615	2.56
281.83	61.95
282.045	0.51
282.26	94.72
282.476	20.99
282.691	27.14
282.906	20.99
283.122	51.71
283.337	8.7
283.552	43.52
283.767	-9.73
283.983	12.8
284.198	84.48
284.413	18.94
284.628	2.56
284.843	16.9
285.058	43.52
285.274	2.56
285.489	45.57
285.704	45.57
285.919	39.42
286.134	68.09
286.349	45.57
286.564	33.28
286.779	-3.58
286.995	-5.63
287.21	-34.3
287.425	8.7
287.64	39.42
287.855	-36.35
288.07	53.76
288.285	-13.82
288.5	31.23
288.715	27.14
288.93	-34.3
289.145	27.14
289.36	92.67
289.575	6.66
289.79	47.62
290.004	-15.87
290.219	61.95
290.434	45.57
290.649	-1.54
290.864	66.05
291.079	64
291.294	-15.87
291.509	72.19
291.724	70.14
291.938	43.52
292.153	64
292.368	33.28
292.583	51.71
292.798	-108.03
293.012	0.51
293.227	2.56
293.442	113.15
293.657	29.18
293.871	74.24
294.086	6.66
294.301	41.47
294.516	2.56
294.73	37.38
294.945	86.53
295.16	96.77
295.374	37.38
295.589	102.91
295.804	31.23
296.018	27.14
296.233	23.04
296.447	20.99
296.662	-19.97
296.877	-15.87
297.091	-26.11
297.306	92.67
297.52	33.28
297.735	88.57
297.949	37.38
298.164	-19.97
298.378	43.52
298.593	76.29
298.807	27.14
299.022	74.24
299.236	4.61
299.451	51.71
299.665	39.42
299.88	18.94
300.094	125.44
300.309	92.67
300.523	66.05
300.737	51.71
300.952	39.42
301.166	37.38
301.381	37.38
301.595	78.33
301.809	39.42
302.024	29.18
302.238	84.48
302.452	41.47
302.667	41.47
302.881	59.9
303.095	23.04
303.309	47.62
303.524	70.14
303.738	86.53
303.952	-34.3
304.166	57.86
304.381	27.14
304.595	39.42
304.809	25.09
305.023	29.18
305.237	-30.21
305.452	-48.64
305.666	55.81
305.88	76.29
306.094	115.2
306.308	10.75
306.522	74.24
306.736	10.75
306.95	80.38
307.164	64
307.379	20.99
307.593	51.71
307.807	51.71
308.021	31.23
308.235	31.23
308.449	72.19
308.663	4.61
308.877	35.33
309.091	31.23
309.305	-7.68
309.519	14.85
309.733	100.86
309.947	57.86
310.161	-13.82
310.374	10.75
310.588	68.09
310.802	41.47
311.016	47.62
311.23	20.99
311.444	16.9
311.658	43.52
311.872	-42.5
312.085	37.38
312.299	125.44
312.513	84.48
312.727	68.09
312.941	14.85
313.154	14.85
313.368	113.15
313.582	-1.54
313.796	20.99
314.009	10.75
314.223	20.99
314.437	6.66
314.651	-3.58
314.864	51.71
315.078	76.29
315.292	41.47
315.505	23.04
315.719	55.81
315.933	76.29
316.146	107.01
316.36	72.19
316.573	61.95
316.787	16.9
317.001	33.28
317.214	12.8
317.428	55.81
317.641	18.94
317.855	-13.82
318.068	-11.78
318.282	98.81
318.495	23.04
318.709	98.81
318.922	35.33
319.136	47.62
319.349	37.38
319.563	-1.54
319.776	94.72
319.99	18.94
320.203	33.28
320.417	-9.73
320.63	12.8
320.843	35.33
321.057	84.48
321.27	37.38
321.483	53.76
321.697	117.25
321.91	14.85
322.124	-9.73
322.337	43.52
322.55	23.04
322.763	51.71
322.977	59.9
323.19	61.95
323.403	2.56
323.617	23.04
323.83	37.38
324.043	64
324.256	53.76
324.469	-11.78
324.683	25.09
324.896	-3.58
325.109	31.23
325.322	2.56
325.535	68.09
325.748	94.72
325.962	-13.82
326.175	-17.92
326.388	82.43
326.601	35.33
326.814	33.28
327.027	45.57
327.24	35.33
327.453	-28.16
327.666	47.62
327.879	64
328.092	10.75
328.305	61.95
328.518	86.53
328.731	12.8
328.944	80.38
329.157	27.14
329.37	72.19
329.583	70.14
329.796	33.28
330.009	-19.97
330.222	31.23
330.435	53.76
330.648	-42.5
330.861	4.61
331.073	51.71
331.286	45.57
331.499	76.29
331.712	10.75
331.925	90.62
332.138	68.09
332.35	94.72
332.563	53.76
332.776	39.42
332.989	55.81
333.202	127.49
333.414	59.9
333.627	59.9
333.84	-32.26
334.053	35.33
334.265	4.61
334.478	27.14
334.691	-28.16
334.903	84.48
335.116	25.09
335.329	33.28
335.541	53.76
335.754	-13.82
335.966	-9.73
336.179	18.94
336.392	8.7
336.604	43.52
336.817	84.48
337.029	6.66
337.242	14.85
337.454	80.38
337.667	70.14
337.88	59.9
338.092	74.24
338.305	14.85
338.517	6.66
338.729	113.15
338.942	43.52
339.154	10.75
339.367	-44.54
339.579	37.38
339.792	27.14
340.004	25.09
340.217	23.04
340.429	59.9
340.641	39.42
340.854	10.75
341.066	113.15
341.278	27.14
341.491	84.48
341.703	29.18
341.915	-9.73
342.128	82.43
342.34	84.48
342.552	41.47
342.764	88.57
342.977	-54.78
343.189	94.72
343.401	45.57
343.613	12.8
343.826	14.85
344.038	-22.02
344.25	64
344.462	2.56
344.674	12.8
344.886	27.14
345.099	55.81
345.311	37.38
345.523	53.76
345.735	-46.59
345.947	16.9
346.159	55.81
346.371	59.9
346.583	2.56
346.795	57.86
347.007	23.04
347.219	80.38
347.431	82.43
347.643	41.47
347.855	-9.73
348.067	41.47
348.279	39.42
348.491	31.23
348.703	-22.02
348.915	31.23
349.127	-3.58
349.339	92.67
349.551	74.24
349.763	76.29
349.975	10.75
350.187	70.14
350.399	53.76
350.61	37.38
350.822	47.62
351.034	119.29
351.246	53.76
351.458	6.66
351.669	29.18
351.881	-3.58
352.093	45.57
352.305	119.29
352.517	68.09
352.728	96.77
352.94	33.28
353.152	51.71
353.363	-34.3
353.575	84.48
353.787	51.71
353.999	-9.73
354.21	20.99
354.422	61.95
354.633	20.99
354.845	20.99
355.057	18.94
355.268	20.99
355.48	29.18
355.692	33.28
355.903	4.61
356.115	14.85
356.326	37.38
356.538	37.38
356.749	59.9
356.961	14.85
357.172	61.95
357.384	31.23
357.595	18.94
357.807	98.81
358.018	37.38
358.23	14.85
358.441	33.28
358.653	29.18
358.864	29.18
359.075	64
359.287	66.05
359.498	109.05
359.709	53.76
359.921	68.09
360.132	10.75
360.344	109.05
360.555	-26.11
360.766	23.04
360.977	61.95
361.189	31.23
361.4	6.66
361.611	0.51
361.823	39.42
362.034	55.81
362.245	20.99
362.456	-28.16
362.667	29.18
362.879	18.94
363.09	12.8
363.301	45.57
363.512	31.23
363.723	29.18
363.935	43.52
364.146	-1.54
364.357	4.61
364.568	102.91
364.779	-15.87
364.99	41.47
365.201	41.47
365.412	117.25
365.623	27.14
365.834	16.9
366.045	-3.58
366.256	53.76
366.467	31.23
366.678	18.94
366.889	59.9
367.1	72.19
367.311	68.09
367.522	59.9
367.733	57.86
367.944	39.42
368.155	84.48
368.366	35.33
368.577	72.19
368.788	35.33
368.999	20.99
369.209	23.04
369.42	18.94
369.631	43.52
369.842	61.95
370.053	37.38
370.264	59.9
370.474	-24.06
370.685	68.09
370.896	92.67
371.107	-15.87
371.317	86.53
371.528	66.05
371.739	43.52
371.95	96.77
372.16	90.62
372.371	25.09
372.582	53.76
372.792	39.42
373.003	31.23
373.214	57.86
373.424	82.43
373.635	37.38
373.846	43.52
374.056	96.77
374.267	8.7
374.477	59.9
374.688	25.09
374.898	-5.63
375.109	23.04
375.319	111.1
375.53	6.66
375.74	92.67
375.951	12.8
376.161	72.19
376.372	12.8
376.582	88.57
376.793	49.66
377.003	49.66
377.214	41.47
377.424	68.09
377.635	6.66
377.845	6.66
378.055	25.09
378.266	25.09
378.476	72.19
378.686	55.81
378.897	12.8
379.107	27.14
379.317	84.48
379.528	-5.63
379.738	68.09
379.948	70.14
380.158	31.23
380.369	100.86
380.579	23.04
380.789	27.14
380.999	31.23
381.21	6.66
381.42	2.56
381.63	51.71
381.84	72.19
382.05	14.85
382.261	84.48
382.471	23.04
382.681	31.23
382.891	31.23
383.101	12.8
383.311	66.05
383.521	96.77
383.731	74.24
383.941	27.14
384.151	23.04
384.361	51.71
384.571	57.86
384.781	107.01
384.991	82.43
385.201	8.7
385.411	64
385.621	37.38
385.831	18.94
386.041	31.23
386.251	35.33
386.461	8.7
386.671	43.52
386.881	27.14
387.091	131.58
387.301	66.05
387.511	53.76
387.72	59.9
387.93	61.95
388.14	-46.59
388.35	72.19
388.56	49.66
388.769	31.23
388.979	84.48
389.189	68.09
389.399	33.28
389.609	33.28
389.818	80.38
390.028	37.38
390.238	45.57
390.447	20.99
390.657	94.72
390.867	47.62
391.076	23.04
391.286	84.48
391.496	23.04
391.705	57.86
391.915	102.91
392.125	107.01
392.334	53.76
392.544	0.51
392.753	18.94
392.963	78.33
393.172	37.38
393.382	-11.78
393.591	96.77
393.801	64
394.01	51.71
394.22	10.75
394.429	94.72
394.639	72.19
394.848	109.05
395.058	8.7
395.267	61.95
395.477	94.72
395.686	51.71
395.895	45.57
396.105	115.2
396.314	113.15
396.524	86.53
396.733	66.05
396.942	61.95
397.152	31.23
397.361	115.2
397.57	84.48
397.78	88.57
397.989	102.91
398.198	80.38
398.407	96.77
398.617	96.77
398.826	23.04
399.035	133.63
399.244	59.9
399.453	45.57
399.663	121.34
399.872	94.72
400.081	47.62
400.29	43.52
400.499	-5.63
400.708	107.01
400.917	84.48
401.127	43.52
401.336	88.57
401.545	100.86
401.754	51.71
401.963	39.42
402.172	66.05
402.381	102.91
402.59	115.2
402.799	145.92
403.008	166.4
403.217	154.11
403.426	23.04
403.635	111.1
403.844	111.1
404.053	111.1
404.262	131.58
404.471	111.1
404.68	104.96
404.888	139.77
405.097	135.68
405.306	113.15
405.515	43.52
405.724	111.1
405.933	170.49
406.142	131.58
406.35	137.73
406.559	121.34
406.768	154.11
406.977	150.01
407.185	186.88
407.394	150.01
407.603	154.11
407.812	156.16
408.02	184.83
408.229	184.83
408.438	166.4
408.646	223.74
408.855	150.01
409.064	219.64
409.272	166.4
409.481	281.08
409.69	193.02
409.898	215.55
410.107	233.98
410.315	248.32
410.524	217.6
410.733	221.69
410.941	215.55
411.15	295.42
411.358	315.9
411.567	242.17
411.775	311.8
411.984	332.28
412.192	291.32
412.401	336.38
412.609	340.47
412.818	369.15
413.026	342.52
413.234	354.81
413.443	426.49
413.651	387.58
413.86	426.49
414.068	453.11
414.276	440.83
414.485	424.44
414.693	506.36
414.901	563.7
415.11	528.89
415.318	565.75
415.526	598.52
415.734	614.9
415.943	571.9
416.151	604.66
416.359	524.79
416.567	645.62
416.776	664.05
416.984	647.67
417.192	692.73
417.4	729.59
417.608	715.25
417.817	805.36
418.025	666.1
418.233	881.14
418.441	821.75
418.649	862.71
418.857	928.24
419.065	956.91
419.273	942.58
419.481	1016.3
419.689	1108.46
419.897	1065.46
420.105	1020.4
420.313	1075.7
420.521	1108.46
420.729	1155.57
420.937	1178.09
421.145	1337.84
421.353	1284.59
421.561	1325.55
421.769	1475.05
421.977	1552.87
422.185	1448.43
422.393	1542.63
422.601	1661.41
422.809	1692.13
423.017	1595.88
423.224	1751.53
423.432	1729
423.64	1841.64
423.848	1980.9
424.056	1868.26
424.263	2009.57
424.471	2062.82
424.679	2116.06
424.887	2257.37
425.094	2214.37
425.302	2349.53
425.51	2365.92
425.718	2365.92
425.925	2390.49
426.133	2585.05
426.341	2634.2
426.548	2767.32
426.756	2662.87
426.964	2822.61
427.171	2925.01
427.379	3017.17
427.586	3105.23
427.794	3242.45
428.001	3428.81
428.209	3420.62
428.417	3437
428.624	3674.57
428.832	3615.18
429.039	3555.79
429.247	3785.16
429.454	4098.5
429.662	4188.61
429.869	3953.09
430.076	4223.42
430.284	4176.32
430.491	4360.64
430.699	4575.67
430.906	4635.07
431.114	4489.66
431.321	4833.72
431.528	4927.92
431.736	5267.89
431.943	5448.11
432.15	5198.26
432.358	5372.33
432.565	5575.08
432.772	5720.49
432.979	5884.33
433.187	6007.2
433.394	6140.32
433.601	6406.56
433.808	6429.09
434.016	6390.17
434.223	6719.9
434.43	7012.76
434.637	6867.35
434.844	7416.21
435.052	7528.85
435.259	7395.73
435.466	7412.11
435.673	7532.94
435.88	7928.2
436.087	8411.52
436.294	8298.88
436.501	8040.84
436.708	8399.23
436.915	8581.5
437.122	9034.1
437.329	9027.96
437.537	9025.91
437.743	9621.87
437.95	9421.17
438.157	9812.33
438.364	10277.22
438.571	10226.02
438.778	10238.31
438.985	11096.41
439.192	10758.49
439.399	10899.8
439.606	10686.81
439.813	11514.19
440.02	12042.57
440.227	11874.63
440.433	11718.99
440.64	12106.06
440.847	12048.71
441.054	12284.23
441.261	13048.12
441.467	13125.94
441.674	13326.64
441.881	13756.72
442.088	13707.57
442.294	13519.15
442.501	13646.13
442.708	14477.6
442.914	14870.81
443.121	15276.31
443.328	14940.44
443.534	16052.49
443.741	15608.08
443.948	15352.09
444.154	16507.14
444.361	16435.46
444.568	16351.49
444.774	16476.42
444.981	16435.46
445.187	17031.42
445.394	17914.09
445.6	17774.83
445.807	19376.34
446.013	18469.09
446.22	18854.11
446.426	19615.96
446.633	19704.02
446.839	20525.25
447.046	19689.68
447.252	20617.41
447.459	20619.46
447.665	20660.42
447.871	21586.1
448.078	22405.29
448.284	21379.26
448.491	22096.05
448.697	22581.42
448.903	23292.06
449.11	23265.44
449.316	22857.89
449.522	23304.35
449.728	23890.07
449.935	24066.19
450.141	24049.81
450.347	24660.1
450.553	23802
450.76	24211.6
450.966	24987.78
451.172	24610.95
451.378	25000.07
451.584	24490.12
451.791	25172.1
451.997	25122.94
452.203	25667.7
452.409	25919.6
452.615	25270.4
452.821	24598.66
453.027	24324.24
453.233	25462.91
453.44	24445.07
453.646	24604.81
453.852	24778.89
454.058	25221.25
454.264	24350.86
454.47	25077.89
454.676	24373.39
454.882	25118.85
455.088	22812.84
455.294	23224.48
455.5	23818.39
455.705	23808.15
455.911	22708.39
456.117	22145.2
456.323	22102.19
456.529	20932.8
456.735	21739.7
456.941	21381.31
457.147	20822.21
457.352	20326.6
457.558	20164.81
457.764	20422.86
457.97	19890.38
458.176	19237.08
458.381	19312.86
458.587	18677.99
458.793	18548.96
458.999	17490.17
459.204	18800.87
459.41	18059.5
459.616	17160.44
459.821	16986.36
460.027	17099
460.233	16722.18
460.438	15812.88
460.644	15816.97
460.85	15147.29
461.055	15018.27
461.261	15173.91
461.466	13992.23
461.672	13381.94
461.878	14317.86
462.083	13623.6
462.289	13257.01
462.494	13109.56
462.7	12685.63
462.905	12142.92
463.111	12861.76
463.316	12470.59
463.522	12595.52
463.727	12564.8
463.932	12321.09
464.138	12349.76
464.343	12474.69
464.549	11913.55
464.754	12577.09
464.959	12151.11
465.165	12282.18
465.37	11534.67
465.575	11534.67
465.781	12091.72
465.986	11866.44
466.191	11555.15
466.397	11462.99
466.602	10723.68
466.807	11462.99
467.012	11096.41
467.218	10885.47
467.423	10987.86
467.628	11190.61
467.833	11440.47
468.038	10998.1
468.244	10842.46
468.449	11301.2
468.654	10891.61
468.859	10754.4
469.064	10871.13
469.269	10244.45
469.474	10396
469.679	10432.86
469.885	10430.82
470.09	10676.57
470.295	10498.4
470.5	10047.85
470.705	10273.12
470.91	9877.87
471.115	9857.39
471.32	10066.28
471.525	9988.46
471.73	9800.04
471.935	9646.44
472.139	9474.42
472.344	9435.5
472.549	9251.19
472.754	9363.83
472.959	9087.35
473.164	8909.18
473.369	8841.59
473.574	9064.82
473.778	8923.51
473.983	9007.48
474.188	8802.68
474.393	8702.33
474.598	8534.4
474.802	8331.65
475.007	8407.42
475.212	8343.94
475.417	8018.31
475.621	8198.53
475.826	8083.84
476.031	7983.49
476.235	8059.27
476.44	8075.65
476.645	7688.59
476.849	7936.39
477.054	7659.92
477.259	7647.63
477.463	7543.18
477.668	7348.62
477.872	7375.25
478.077	7391.63
478.282	7375.25
478.486	7186.83
478.691	7082.39
478.895	7154.07
479.1	6861.21
479.304	6979.99
479.509	6689.18
479.713	6996.37
479.918	6795.67
480.122	6717.85
480.326	6893.97
480.531	6885.78
480.735	6779.29
480.94	6701.47
481.144	6855.06
481.348	6885.78
481.553	6734.23
481.757	6558.11
481.961	6693.27
482.166	6855.06
482.37	6631.83
482.574	6527.39
482.778	6625.69
482.983	6719.9
483.187	6597.02
483.391	6678.94
483.595	6502.81
483.8	6414.75
484.004	6523.29
484.208	6590.88
484.412	6506.91
484.616	6695.32
484.821	6830.49
485.025	6711.71
485.229	6615.45
485.433	6494.62
485.637	6685.08
485.841	6496.67
486.045	6408.61
486.249	6629.79
486.453	6377.89
486.657	6717.85
486.861	6732.19
487.065	6353.31
487.269	6457.76
487.473	6482.33
487.677	6580.64
487.881	6721.95
488.085	6719.9
488.289	6545.82
488.493	6558.11
488.697	6617.5
488.901	6468
489.105	6734.23
489.309	6545.82
489.512	6613.4
489.716	6605.21
489.92	6885.78
490.124	6726.04
490.328	6900.12
490.531	6611.36
490.735	6842.78
490.939	6916.5
491.143	6801.82
491.346	6875.54
491.55	6908.31
491.754	7072.15
491.958	6904.21
492.161	7053.72
492.365	6758.81
492.569	7096.72
492.772	7113.11
492.976	7190.93
493.18	7278.99
493.383	7092.63
493.587	7309.71
493.79	7332.24
493.994	7152.02
494.197	7252.37
494.401	7440.78
494.605	7291.28
494.808	7518.61
495.012	7436.69
495.215	7649.68
495.419	7805.32
495.622	7537.04
495.825	7817.61
496.029	7737.74
496.232	7948.68
496.436	7879.05
496.639	8176
496.843	8020.36
497.046	8284.55
497.249	8317.31
497.453	8499.58
497.656	8591.74
497.859	8644.99
498.063	8493.44
498.266	8679.8
498.469	9019.77
498.673	9042.29
498.876	8964.47
499.079	9126.26
499.282	9138.55
499.485	9439.6
499.689	9406.83
499.892	9695.6
500.095	9570.67
500.298	9881.96
500.501	9759.08
500.705	9994.6
500.908	10137.96
501.111	10367.33
501.314	10488.16
501.517	10568.03
501.72	10557.79
501.923	10680.67
502.126	10920.28
502.329	11106.65
502.532	11045.21
502.735	11184.47
502.938	11452.75
503.141	11526.48
503.344	11710.8
503.547	11684.17
503.75	11995.46
503.953	12443.97
504.156	12431.68
504.359	12589.38
504.562	12656.96
504.765	12699.97
504.968	12886.33
505.17	13074.74
505.373	13183.29
505.576	13183.29
505.779	13406.52
505.982	13576.5
506.185	13871.4
506.387	14096.68
506.59	14082.35
506.793	14412.07
506.996	14389.54
507.198	14686.5
507.401	14659.87
507.604	14881.05
507.807	15378.71
508.009	15489.3
508.212	15464.72
508.415	15622.42
508.617	16396.55
508.82	16204.04
509.022	16085.26
509.225	16683.27
509.428	16660.74
509.63	16929.02
509.833	17101.05
510.035	17633.52
510.238	17400.05
510.44	17518.84
510.643	17860.85
510.845	17862.9
511.048	18073.84
511.25	18483.43
511.453	18757.86
511.655	19155.16
511.858	19341.53
512.06	19591.38
512.262	19579.09
512.465	19710.16
512.667	20140.24
512.87	20271.31
513.072	20156.62
513.274	20834.5
513.477	20652.23
513.679	21231.8
513.881	21481.66
514.084	21991.6
514.286	21743.8
514.488	22134.96
514.69	22839.46
514.893	22704.29
515.095	22491.3
515.297	23115.94
515.499	23240.86
515.701	23447.71
515.904	23957.65
516.106	24133.78
516.308	24506.51
516.51	24674.44
516.712	24995.97
516.914	25061.51
517.116	25837.69
517.318	25450.62
517.52	25768.05
517.722	26067.06
517.925	26310.77
518.127	26945.64
518.329	26548.33
518.531	26894.44
518.733	27359.33
518.935	27699.29
519.136	27842.65
519.338	27998.29
519.54	28426.32
519.742	28713.03
519.944	28743.75
520.146	29102.15
520.348	29614.14
520.55	29956.15
520.752	29904.95
520.954	30601.26
521.155	30433.33
521.357	30822.44
521.559	31369.25
521.761	31729.69
521.963	31524.89
522.164	31905.82
522.366	32184.34
522.568	32380.95
522.77	32491.54
522.971	33056.78
523.173	32917.51
523.375	32987.14
523.576	33265.67
523.778	33097.73
523.98	33804.28
524.181	33679.36
524.383	34121.72
524.584	34791.41
524.786	34785.26
524.988	34381.81
525.189	35112.94
525.391	35481.57
525.592	35465.19
525.794	35602.4
525.995	35772.38
526.197	35854.3
526.398	35928.03
526.6	36311
526.801	36380.63
527.003	37009.36
527.204	36485.08
527.406	36988.88
527.607	36906.96
527.808	37220.3
528.01	36960.2
528.211	36884.43
528.412	37906.37
528.614	37865.41
528.815	37283.78
529.016	37879.74
529.218	37840.83
529.419	37740.48
529.62	37785.54
529.822	38299.58
530.023	37900.22
530.224	38080.44
530.425	38074.3
530.626	38070.2
530.828	37763.01
531.029	39061.42
531.23	38248.38
531.431	38455.22
531.632	38834.1
531.833	39159.72
532.035	38768.56
532.236	39057.32
532.437	39042.99
532.638	38791.09
532.839	39286.7
533.04	39475.11
533.241	39262.12
533.442	39641
533.643	39249.83
533.844	39008.17
534.045	39149.48
534.246	38690.74
534.447	39389.09
534.648	39204.78
534.849	39253.93
535.05	39262.12
535.251	39454.63
535.451	38823.86
535.652	39610.28
535.853	39436.2
536.054	39540.64
536.255	39696.29
536.456	39251.88
536.657	39667.62
536.857	39718.82
537.058	39565.22
537.259	39610.28
537.46	39565.22
537.66	39409.57
537.861	39612.32
538.062	39225.26
538.263	39673.76
538.463	39511.97
538.664	39616.42
538.865	39821.22
539.065	39749.54
539.266	39354.28
539.466	39921.57
539.667	39030.7
539.868	39919.52
540.068	39554.98
540.269	39356.33
540.469	39745.44
540.67	39356.33
540.87	39767.97
541.071	39141.29
541.271	39901.09
541.472	39579.56
541.672	39153.58
541.873	39407.53
542.073	39327.66
542.274	39901.09
542.474	39532.45
542.675	39282.6
542.875	40126.36
543.075	39448.49
543.276	38979.5
543.476	39868.32
543.676	39542.69
543.877	39493.54
544.077	39268.26
544.277	39569.32
544.478	39499.69
544.678	39907.23
544.878	39487.4
545.078	39284.65
545.279	38858.67
545.479	39012.27
545.679	39532.45
545.879	39452.58
546.079	39571.36
546.28	39262.12
546.48	39241.64
546.68	39583.65
546.88	39800.74
547.08	39577.51
547.28	39503.78
547.48	39305.13
547.68	39581.6
547.88	39219.11
548.081	39557.03
548.281	39364.52
548.481	39335.85
548.681	39702.43
548.881	39731.11
549.081	39354.28
549.28	39026.6
549.48	39743.39
549.68	39589.8
549.88	39794.59
550.08	39483.3
550.28	39481.25
550.48	39204.78
550.68	39808.93
550.88	39290.79
551.08	39004.08
551.279	39341.99
551.479	39008.17
551.679	39511.97
551.879	39632.8
552.079	39206.83
552.278	39380.9
552.478	39333.8
552.678	39198.63
552.878	39718.82
553.077	39045.04
553.277	38715.31
553.477	39393.19
553.676	38811.57
553.876	39036.84
554.076	39061.42
554.275	39086
554.475	38834.1
554.674	39004.08
554.874	39231.4
555.074	39004.08
555.273	39122.86
555.473	39204.78
555.672	38782.9
555.872	39086
556.071	38995.88
556.271	39163.82
556.47	38621.11
556.67	38160.31
556.869	38743.98
557.068	38191.03
557.268	38428.6
557.467	38344.63
557.667	38213.56
557.866	38426.55
558.065	38383.54
558.265	38647.73
558.464	38342.58
558.663	38770.61
558.863	37978.04
559.062	38694.83
559.261	37769.15
559.461	38363.06
559.66	37496.77
559.859	37986.24
560.058	37734.34
560.258	37967.8
560.457	37951.42
560.656	37963.71
560.855	37828.54
561.054	37941.18
561.253	37664.71
561.453	37480.39
561.652	37521.35
561.851	37367.75
562.05	37287.88
562.249	37273.54
562.448	37531.59
562.647	37324.74
562.846	37007.31
563.045	37306.31
563.244	37076.94
563.443	37294.02
563.642	36906.96
563.841	36872.14
564.04	36880.33
564.239	37287.88
564.438	36810.7
564.637	36749.26
564.836	36607.95
565.035	36300.76
565.234	36956.11
565.432	36663.25
565.631	36339.67
565.83	36368.34
566.029	36136.92
566.228	36401.11
566.427	36098.01
566.625	36055
566.824	35747.81
567.023	35915.74
567.222	35885.02
567.42	36519.89
567.619	36216.79
567.818	35723.23
568.016	35622.88
568.215	35510.24
568.414	35561.44
568.612	35796.96
568.811	35715.04
569.01	35762.14
569.208	35170.28
569.407	35487.71
569.605	35188.71
569.804	35071.98
570.002	34723.82
570.201	35065.83
570.4	34627.57
570.598	34605.04
570.797	34572.27
570.995	34588.66
571.193	34297.84
571.392	34574.32
571.59	34084.86
571.789	34328.56
571.987	34234.36
572.186	34068.47
572.384	33974.27
572.582	34031.61
572.781	33714.17
572.979	33163.27
573.177	33910.78
573.376	33873.92
573.574	33398.79
573.772	33253.38
573.971	33040.39
574.169	32925.71
574.367	32473.1
574.565	32761.87
574.763	32923.66
574.962	32858.12
575.16	32641.04
575.358	32630.8
575.556	32217.11
575.754	32505.87
575.952	32100.37
576.151	32665.61
576.349	31895.58
576.547	32057.37
576.745	31873.05
576.943	32127
577.141	31729.69
577.339	31907.87
577.537	31424.54
577.735	31455.26
577.933	31475.74
578.131	31479.84
578.329	31363.11
578.527	30883.88
578.725	31033.38
578.923	30978.09
579.121	30779.43
579.319	30691.37
579.516	30496.81
579.714	30816.3
579.912	30154.8
580.11	30416.94
580.308	30750.76
580.506	30332.98
580.704	30103.6
580.901	30236.72
581.099	30418.99
581.297	29956.15
581.495	29907
581.692	30294.07
581.89	29509.69
582.088	29806.65
582.285	29325.38
582.483	29661.24
582.681	29894.71
582.878	29499.45
583.076	29122.63
583.274	29370.43
583.471	28786.76
583.669	29288.51
583.866	29110.34
584.064	28819.53
584.262	28475.47
584.459	28739.66
584.657	28651.59
584.854	28842.06
585.052	28465.23
585.249	28575.82
585.447	28366.93
585.644	28039.25
585.841	28289.1
586.039	28239.95
586.236	28008.53
586.434	27668.57
586.631	27480.16
586.828	27899.99
587.026	27547.74
587.223	27596.89
587.42	27340.89
587.618	27535.45
587.815	27056.23
588.012	27154.53
588.21	26947.68
588.407	27211.87
588.604	26761.32
588.801	26796.14
588.999	26560.62
589.196	26738.79
589.393	26679.4
589.59	26454.12
589.787	26351.73
589.984	26177.65
590.182	26357.87
590.379	26278
590.576	26148.98
590.773	26321.01
590.97	25983.09
591.167	26253.42
591.364	25950.32
591.561	25987.19
591.758	25745.53
591.955	25616.51
592.152	25999.48
592.349	25657.46
592.546	25514.11
592.743	25495.67
592.94	25098.37
593.137	25294.97
593.334	25610.36
593.531	25018.5
593.727	25337.98
593.924	25043.07
594.121	24758.41
594.318	24789.13
594.515	24477.83
594.712	24893.57
594.908	24633.48
595.105	24768.65
595.302	24373.39
595.499	24858.76
595.696	24299.66
595.892	24606.86
596.089	24367.24
596.286	24387.72
596.482	23713.94
596.679	23992.47
596.876	24088.72
597.072	23640.22
597.269	23863.44
597.466	23707.8
597.662	23820.44
597.859	23548.06
598.055	23885.97
598.252	23570.58
598.448	23652.5
598.645	23589.02
598.841	23443.61
599.038	23566.49
599.234	23380.12
599.431	23126.18
599.627	23320.73
599.824	23193.76
600.02	22827.17
600.217	22843.56
600.413	22948
600.609	22585.51
600.806	22804.64
601.002	22655.14
601.198	22614.18
601.395	22118.57
601.591	22325.42
601.787	22382.76
601.984	22067.38
602.18	22495.4
602.376	21901.49
602.572	21860.53
602.769	22290.6
602.965	21864.63
603.161	22137.01
603.357	21620.92
603.553	21643.45
603.75	21516.47
603.946	21217.47
604.142	21573.81
604.338	21049.53
604.534	21389.5
604.73	21029.06
604.926	21041.34
605.122	21117.12
605.318	20949.18
605.514	20914.37
605.71	20635.85
605.906	20715.72
606.102	20758.72
606.298	20967.62
606.494	20652.23
606.69	20486.34
606.886	20555.97
607.082	20310.22
607.278	20529.35
607.474	20078.8
607.67	20748.48
607.866	20025.55
608.062	20220.11
608.257	20304.07
608.453	20234.44
608.649	20003.02
608.845	19683.54
609.041	19716.31
609.236	19693.78
609.432	19699.92
609.628	19546.33
609.824	19427.54
610.019	19577.05
610.215	19384.54
610.411	19241.18
610.606	19194.08
610.802	19486.93
610.998	19093.72
611.193	19001.57
611.389	19060.96
611.584	19046.62
611.78	19081.44
611.976	18976.99
612.171	18936.03
612.367	18774.24
612.562	18434.28
612.758	18454.76
612.953	18577.64
613.149	18604.26
613.344	18614.5
613.539	18770.15
613.735	18475.24
613.93	18360.55
614.126	18286.82
614.321	18532.58
614.517	18366.7
614.712	18303.21
614.907	18155.75
615.103	18268.39
615.298	18381.03
615.493	18321.64
615.688	17701.11
615.884	18462.95
616.079	17852.66
616.274	17912.05
616.47	17719.54
616.665	18055.4
616.86	17606.9
617.055	17801.46
617.25	17649.91
617.445	17834.22
617.641	17520.88
617.836	17553.65
618.031	17238.26
618.226	17471.73
618.421	17412.34
618.616	17393.91
618.811	17133.82
619.006	17311.99
619.201	16939.26
619.396	16894.21
619.591	16501
619.786	16775.42
619.981	16724.22
620.176	16834.82
620.371	16259.34
620.566	16539.91
620.761	16396.55
620.956	16423.17
621.151	15915.28
621.346	16111.88
621.541	15927.56
621.735	16236.81
621.93	15796.49
622.125	15999.24
622.32	15862.03
622.515	15720.72
622.709	15532.31
622.904	15538.45
623.099	15339.8
623.294	15434
623.488	15311.13
623.683	15141.14
623.878	15079.71
624.072	15067.42
624.267	14993.69
624.462	14866.72
624.656	14801.18
624.851	14647.58
625.046	14666.02
625.24	14614.82
625.435	14510.37
625.629	14565.67
625.824	14090.54
626.018	14422.31
626.213	14131.5
626.407	14111.02
626.602	14086.44
626.796	14039.34
626.991	14008.62
627.185	14025
627.38	13865.26
627.574	13578.54
627.768	13578.54
627.963	13396.28
628.157	13271.35
628.352	13429.04
628.546	13379.89
628.74	13388.08
628.935	12958.01
629.129	13193.53
629.323	13084.98
629.517	12925.24
629.712	13064.5
629.906	12785.98
630.1	12652.86
630.294	12923.19
630.489	12867.9
630.683	12589.38
630.877	12368.2
631.071	12491.07
631.265	12491.07
631.459	12419.39
631.653	12239.17
631.848	12202.31
632.042	12124.49
632.236	12089.67
632.43	12138.82
632.624	11997.51
632.818	11866.44
633.012	11712.85
633.206	11835.72
633.4	11727.18
633.594	11534.67
633.788	11430.23
633.982	11319.64
634.176	11471.18
634.369	11237.72
634.563	11346.26
634.757	11293.01
634.951	11315.54
635.145	11430.23
635.339	11104.6
635.533	11139.41
635.726	10928.47
635.92	11014.49
636.114	11039.06
636.308	10926.43
636.501	10914.14
636.695	10697.05
636.889	10717.53
637.083	10635.61
637.276	10623.33
637.47	10504.54
637.664	10424.67
637.857	10574.17
638.051	10412.39
638.244	10338.66
638.438	10402.15
638.632	10127.72
638.825	10295.65
639.019	10076.52
639.212	9933.16
639.406	10215.78
639.599	10137.96
639.793	9884.01
639.986	9580.91
640.18	9875.82
640.373	9701.74
640.567	9630.06
640.76	9679.21
640.954	9359.73
641.147	9359.73
641.34	9394.54
641.534	9464.18
641.727	9111.92
641.92	9353.59
642.114	9302.39
642.307	9292.15
642.5	9169.27
642.694	9021.81
642.887	8819.07
643.08	8997.24
643.273	8870.26
643.467	8819.07
643.66	8761.72
643.853	8669.56
644.046	8649.08
644.239	8675.71
644.432	8589.69
644.626	8585.6
644.819	8259.97
645.012	8393.09
645.205	8456.57
645.398	8272.26
645.591	8251.78
645.784	8194.43
645.977	8155.52
646.17	8141.19
646.363	8077.7
646.556	8219.01
646.749	7883.14
646.942	8016.26
647.135	7907.72
647.328	7854.47
647.521	7725.45
647.714	7553.42
647.907	7623.05
648.099	7737.74
648.292	7594.38
648.485	7647.63
648.678	7477.65
648.871	7442.83
649.064	7551.37
649.256	7408.01
649.449	7319.95
649.642	7180.69
649.835	7340.43
650.027	7211.41
650.22	7205.27
650.413	7235.99
650.605	7113.11
650.798	7002.52
650.991	6781.34
651.183	6853.02
651.376	6855.06
651.568	6746.52
651.761	6789.53
651.954	6869.4
652.146	6594.97
652.339	6689.18
652.531	6558.11
652.724	6715.8
652.916	6463.9
653.109	6439.33
653.301	6490.52
653.494	6443.42
653.686	6302.11
653.879	6470.05
654.071	6226.34
654.263	6146.47
654.456	6279.58
654.648	6248.86
654.84	6091.17
655.033	5978.53
655.225	6089.12
655.417	6017.44
655.61	6142.37
655.802	5972.39
655.994	5935.53
656.186	5849.51
656.379	5908.9
656.571	5767.59
656.763	5763.5
656.955	5673.39
657.148	5673.39
657.34	5661.1
657.532	5507.5
657.724	5517.74
657.916	5566.89
658.108	5616.04
658.3	5583.27
658.492	5480.88
658.684	5503.4
658.876	5417.39
659.068	5327.28
659.26	5282.22
659.452	5425.58
659.644	5212.59
659.836	5214.64
660.028	5204.4
660.22	5026.23
660.412	5112.24
660.604	5040.56
660.796	5020.08
660.988	4856.25
661.18	4886.97
661.372	4895.16
661.563	4940.21
661.755	4678.07
661.947	4831.67
662.139	4704.7
662.331	4743.61
662.522	4647.35
662.714	4610.49
662.906	4573.63
663.097	4618.68
663.289	4524.47
663.481	4719.03
663.673	4585.91
663.864	4581.82
664.056	4549.05
664.247	4495.8
664.439	4430.27
664.631	4397.5
664.822	4235.71
665.014	4606.39
665.205	4293.05
665.397	4280.77
665.588	4377.02
665.78	4202.94
665.971	4141.5
666.163	4202.94
666.354	4270.53
666.546	4188.61
666.737	4004.29
666.929	4192.7
667.12	3961.28
667.311	4041.15
667.503	4147.65
667.694	4078.02
667.885	3852.74
668.077	3959.24
668.268	3828.17
668.459	3856.84
668.651	3994.05
668.842	3852.74
669.033	3721.67
669.224	3854.79
669.416	3910.08
669.607	3635.66
669.798	3639.75
669.989	3760.58
670.18	3758.53
670.371	3770.82
670.563	3627.46
670.754	3842.5
670.945	3625.42
671.136	3664.33
671.327	3529.16
671.518	3619.27
671.709	3523.02
671.9	3533.26
672.091	3422.67
672.282	3559.88
672.473	3510.73
672.664	3441.1
672.855	3543.5
673.046	3496.39
673.237	3488.2
673.428	3326.41
673.619	3369.42
673.809	3475.91
674	3398.09
674.191	3484.11
674.382	3324.37
674.573	3342.8
674.764	3412.43
674.954	3289.55
675.145	3260.88
675.336	3295.69
675.527	3402.19
675.717	3250.64
675.908	3209.68
676.099	3258.83
676.289	3117.52
676.48	3193.3
676.671	3146.19
676.861	3314.13
677.052	3230.16
677.243	3092.94
677.433	3174.86
677.624	3017.17
677.814	3219.92
678.005	3011.03
678.195	3170.77
678.386	3068.37
678.576	3164.62
678.767	3144.14
678.957	3058.13
679.148	3000.79
679.338	2998.74
679.529	3070.42
679.719	2912.72
679.909	3097.04
680.1	3072.47
680.29	3017.17
680.481	3029.46
680.671	2988.5
680.861	2886.1
681.052	3041.75
681.242	2953.68
681.432	2961.87
681.622	2738.65
681.813	2855.38
682.003	3039.7
682.193	2869.72
682.383	2888.15
682.573	2867.67
682.764	2949.59
682.954	2929.11
683.144	2931.16
683.334	2884.05
683.524	2816.47
683.714	2939.35
683.904	2861.52
684.094	3008.98
684.284	2951.63
684.474	2822.61
684.664	2957.78
684.854	2834.9
685.044	2886.1
685.234	2808.28
685.424	2824.66
685.614	2912.72
685.804	2959.83
685.994	2716.12
686.184	2955.73
686.374	2824.66
686.564	2949.59
686.753	2798.04
686.943	2867.67
687.133	2775.51
687.323	2935.25
687.513	2798.04
687.702	2732.5
687.892	2775.51
688.082	2759.13
688.272	2765.27
688.461	2724.31
688.651	2773.46
688.841	2709.97
689.03	2793.94
689.22	2705.88
689.41	2734.55
689.599	2814.42
689.789	2554.33
689.979	2685.4
690.168	2771.41
690.358	2712.02
690.547	2738.65
690.737	2759.13
690.926	2673.11
691.116	2693.59
691.305	2701.78
691.495	2814.42
691.684	2806.23
691.874	2869.72
692.063	2744.79
692.252	2800.09
692.442	2746.84
692.631	2583
692.82	2728.41
693.01	2652.63
693.199	2824.66
693.388	2648.54
693.578	2687.45
693.767	2722.26
693.956	2765.27
694.146	2716.12
694.335	2607.58
694.524	2724.31
694.713	2605.53
694.902	2666.97
695.092	2623.96
695.281	2671.06
695.47	2785.75
695.659	2709.97
695.848	2673.11
696.037	2822.61
696.226	2728.41
696.415	2724.31
696.604	2687.45
696.793	2746.84
696.982	2693.59
697.171	2722.26
697.36	2650.58
697.549	2738.65
697.738	2830.8
697.927	2673.11
698.116	2666.97
698.305	2718.17
698.494	2669.02
698.683	2626.01
698.872	2736.6
699.061	2613.72
699.25	2617.82
699.438	2664.92
699.627	2689.49
699.816	2628.06
700.005	2658.78
700.193	2626.01
700.382	2746.84
700.571	2669.02
700.76	2617.82
700.948	2456.03
701.137	2607.58
701.326	2570.71
701.514	2593.24
701.703	2525.66
701.892	2609.62
702.08	2580.95
702.269	2529.75
702.457	2482.65
702.646	2591.19
702.834	2484.7
703.023	2519.51
703.212	2507.23
703.4	2503.13
703.589	2562.52
703.777	2392.54
703.965	2453.98
704.154	2480.6
704.342	2456.03
704.531	2507.23
704.719	2503.13
704.907	2443.74
705.096	2529.75
705.284	2406.88
705.472	2322.91
705.661	2441.69
705.849	2402.78
706.037	2357.72
706.226	2406.88
706.414	2488.79
706.602	2372.06
706.79	2521.56
706.979	2382.3
707.167	2322.91
707.355	2337.24
707.543	2410.97
707.731	2441.69
707.919	2341.34
708.107	2286.05
708.296	2472.41
708.484	2222.56
708.672	2265.57
708.86	2161.12
709.048	2345.44
709.236	2245.09
709.424	2179.55
709.612	2288.09
709.8	2146.78
709.988	2255.33
710.176	2134.5
710.364	2255.33
710.551	2191.84
710.739	2210.27
710.927	2208.22
711.115	2120.16
711.303	2218.46
711.491	2111.97
711.679	2214.37
711.866	2228.7
712.054	2142.69
712.242	2122.21
712.43	2191.84
712.617	2120.16
712.805	2114.02
712.993	2195.93
713.181	2116.06
713.368	2159.07
713.556	2036.19
713.744	2066.91
713.931	2150.88
714.119	2060.77
714.306	2054.62
714.494	1882.6
714.682	1915.36
714.869	1954.27
715.057	2048.48
715.244	2048.48
715.432	1964.51
715.619	1890.79
715.807	1948.13
715.994	1919.46
716.182	1919.46
716.369	1919.46
716.556	1970.66
716.744	1898.98
716.931	1921.51
717.119	2017.76
717.306	1903.07
717.493	1841.64
717.681	1855.97
717.868	1868.26
718.055	1872.36
718.242	1782.24
718.43	1931.75
718.617	1862.12
718.804	1880.55
718.991	1831.4
719.179	1806.82
719.366	1880.55
719.553	1757.67
719.74	1741.29
719.927	1765.86
720.114	1708.52
720.301	1692.13
720.488	1628.65
720.676	1800.68
720.863	1765.86
721.05	1767.91
721.237	1759.72
721.424	1819.11
721.611	1724.9
721.798	1708.52
721.985	1614.31
722.172	1575.4
722.358	1624.55
722.545	1573.35
722.732	1585.64
722.919	1714.66
723.106	1606.12
723.293	1681.89
723.48	1645.03
723.667	1554.92
723.853	1534.44
724.04	1546.73
724.227	1511.91
724.414	1620.46
724.6	1604.07
724.787	1589.74
724.974	1606.12
725.161	1477.1
725.347	1384.94
725.534	1516.01
725.72	1446.38
725.907	1620.46
726.094	1446.38
726.28	1503.72
726.467	1440.23
726.653	1513.96
726.84	1518.06
727.027	1540.58
727.213	1544.68
727.4	1528.3
727.586	1587.69
727.773	1458.67
727.959	1391.08
728.145	1481.19
728.332	1423.85
728.518	1440.23
728.705	1489.39
728.891	1405.42
729.077	1434.09
729.264	1374.7
729.45	1432.04
729.636	1460.71
729.823	1491.43
730.009	1352.17
730.195	1323.5
730.382	1382.89
730.568	1374.7
730.754	1352.17
730.94	1294.83
731.126	1483.24
731.313	1360.36
731.499	1458.67
731.685	1403.37
731.871	1276.4
732.057	1411.56
732.243	1253.87
732.429	1331.69
732.615	1350.12
732.801	1346.03
732.987	1298.92
733.173	1206.77
733.359	1356.27
733.545	1288.68
733.731	1219.05
733.917	1399.27
734.103	1262.06
734.289	1350.12
734.475	1270.25
734.661	1321.45
734.847	1178.09
735.033	1280.49
735.219	1255.92
735.404	1278.44
735.59	1257.96
735.776	1198.57
735.962	1180.14
736.148	1192.43
736.333	1335.79
736.519	1186.29
736.705	1133.04
736.89	1149.42
737.076	1307.12
737.262	1200.62
737.447	1167.85
737.633	1161.71
737.819	1245.68
738.004	1174
738.19	1243.63
738.375	1190.38
738.561	1223.15
738.747	1210.86
738.932	1067.5
739.118	1182.19
739.303	1061.36
739.489	1077.74
739.674	1153.52
739.859	1083.89
740.045	1126.89
740.23	1112.56
740.416	1157.61
740.601	1108.46
740.786	1149.42
740.972	1126.89
741.157	1032.69
741.342	1061.36
741.528	938.48
741.713	1094.13
741.898	1077.74
742.084	1122.8
742.269	1116.65
742.454	1096.18
742.639	1077.74
742.824	963.06
743.01	1059.31
743.195	1006.06
743.38	1014.26
743.565	1090.03
743.75	1010.16
743.935	977.39
744.12	1034.74
744.305	920.05
744.49	1047.02
744.675	1106.42
744.86	920.05
745.045	1004.02
745.23	954.87
745.415	1016.3
745.6	995.82
745.785	885.23
745.97	963.06
746.155	879.09
746.34	956.91
746.525	930.29
746.71	934.39
746.895	877.04
747.079	965.11
747.264	932.34
747.449	915.95
747.634	938.48
747.819	850.42
748.003	922.1
748.188	836.08
748.373	856.56
748.557	915.95
748.742	913.91
748.927	881.14
749.111	854.51
749.296	815.6
749.481	831.99
749.665	928.24
749.85	766.45
750.034	858.61
750.219	809.46
750.404	780.79
750.588	838.13
750.773	811.51
750.957	791.03
751.141	766.45
751.326	932.34
751.51	762.36
751.695	831.99
751.879	772.6
752.064	823.8
752.248	653.81
752.432	821.75
752.617	821.75
752.801	817.65
752.985	750.07
753.17	803.32
753.354	700.92
753.538	715.25
753.722	766.45
753.907	688.63
754.091	713.21
754.275	707.06
754.459	639.48
754.643	823.8
754.828	705.01
755.012	637.43
755.196	608.76
755.38	743.92
755.564	705.01
755.748	659.96
755.932	705.01
756.116	717.3
756.3	573.94
756.484	600.57
756.668	688.63
756.852	567.8
757.036	666.1
757.22	602.61
757.404	731.64
757.588	575.99
757.772	629.24
757.956	616.95
758.14	645.62
758.323	641.53
758.507	619
758.691	629.24
758.875	633.33
759.059	610.81
759.242	668.15
759.426	559.61
759.61	537.08
759.794	694.77
759.977	614.9
760.161	551.42
760.345	625.14
760.528	600.57
760.712	569.85
760.895	588.28
761.079	528.89
761.263	608.76
761.446	535.03
761.63	541.18
761.813	575.99
761.997	563.7
762.18	530.94
762.364	567.8
762.547	504.31
762.731	547.32
762.914	465.4
763.098	545.27
763.281	477.69
763.464	494.07
763.648	502.26
763.831	446.97
764.015	549.37
764.198	559.61
764.381	514.55
764.564	553.46
764.748	502.26
764.931	477.69
765.114	543.22
765.297	559.61
765.481	537.08
765.664	477.69
765.847	485.88
766.03	457.21
766.213	541.18
766.397	532.98
766.58	537.08
766.763	475.64
766.946	510.46
767.129	528.89
767.312	489.98
767.495	504.31
767.678	389.63
767.861	430.59
768.044	449.02
768.227	516.6
768.41	479.74
768.593	492.02
768.776	463.35
768.959	473.59
769.142	481.78
769.324	504.31
769.507	430.59
769.69	389.63
769.873	477.69
770.056	459.26
770.239	483.83
770.421	541.18
770.604	483.83
770.787	455.16
770.97	500.22
771.152	395.77
771.335	459.26
771.518	496.12
771.7	498.17
771.883	524.79
772.066	430.59
772.248	422.39
772.431	410.11
772.613	379.39
772.796	408.06
772.978	461.3
773.161	541.18
773.343	477.69
773.526	500.22
773.708	414.2
773.891	342.52
774.073	391.67
774.256	408.06
774.438	408.06
774.621	367.1
774.803	408.06
774.985	465.4
775.168	348.67
775.35	408.06
775.532	352.76
775.715	348.67
775.897	412.15
776.079	453.11
776.261	403.96
776.444	301.56
776.626	358.91
776.808	420.35
776.99	373.24
777.173	428.54
777.355	344.57
777.537	375.29
777.719	465.4
777.901	350.71
778.083	356.86
778.265	422.39
778.447	344.57
778.629	373.24
778.811	352.76
778.993	352.76
779.175	313.85
779.357	424.44
779.539	401.91
779.721	293.37
779.903	387.58
780.085	373.24
780.267	285.18
780.449	303.61
780.631	332.28
780.812	379.39
780.994	403.96
781.176	328.19
781.358	313.85
781.54	313.85
781.721	363
781.903	348.67
782.085	252.41
782.267	311.8
782.448	365.05
782.63	244.22
782.812	254.46
782.993	289.28
783.175	320
783.357	272.89
783.538	262.65
783.72	303.61
783.901	297.47
784.083	291.32
784.264	293.37
784.446	242.17
784.627	279.04
784.809	283.13
784.99	256.51
785.172	258.56
785.353	266.75
785.535	356.86
785.716	258.56
785.897	262.65
786.079	240.12
786.26	311.8
786.441	299.52
786.623	270.84
786.804	309.76
786.985	233.98
787.167	258.56
787.348	215.55
787.529	184.83
787.71	242.17
787.891	246.27
788.073	162.3
788.254	217.6
788.435	274.94
788.616	199.16
788.797	242.17
788.978	276.99
789.159	178.69
789.34	168.45
789.522	193.02
789.703	231.93
789.884	231.93
790.065	184.83
790.246	225.79
790.427	281.08
790.607	285.18
790.788	190.97
790.969	197.12
791.15	279.04
791.331	231.93
791.512	203.26
791.693	242.17
791.874	152.06
792.054	199.16
792.235	180.73
792.416	207.36
792.597	188.93
792.778	231.93
792.958	209.4
793.139	166.4
793.32	215.55
793.5	160.25
793.681	307.71
793.862	188.93
794.042	172.54
794.223	94.72
794.404	162.3
794.584	201.21
794.765	207.36
794.945	188.93
795.126	201.21
795.306	154.11
795.487	190.97
795.667	174.59
795.848	203.26
796.028	213.5
796.209	242.17
796.389	133.63
796.57	166.4
796.75	125.44
796.93	211.45
797.111	158.21
797.291	145.92
797.471	156.16
797.652	195.07
797.832	145.92
798.012	162.3
798.192	66.05
798.373	190.97
798.553	199.16
798.733	199.16
798.913	135.68
799.093	223.74
799.274	137.73
799.454	94.72
799.634	182.78
799.814	168.45
799.994	174.59
800.174	174.59
800.354	139.77
800.534	111.1
800.714	172.54
800.894	125.44
801.074	141.82
801.254	152.06
801.434	139.77
801.614	170.49
801.794	78.33
801.974	375.29
802.154	178.69
802.334	145.92
802.514	100.86
802.693	109.05
802.873	137.73
803.053	201.21
803.233	125.44
803.413	117.25
803.592	74.24
803.772	84.48
803.952	27.14
804.131	156.16
804.311	168.45
804.491	172.54
804.67	55.81
804.85	88.57
805.03	107.01
805.209	94.72
805.389	121.34
805.568	123.39
805.748	125.44
805.928	125.44
806.107	184.83
806.287	135.68
806.466	168.45
806.646	186.88
806.825	158.21
807.004	84.48
807.184	104.96
807.363	166.4
807.543	57.86
807.722	150.01
807.901	109.05
808.081	139.77
808.26	154.11
808.439	88.57
808.619	170.49
808.798	178.69
808.977	139.77
809.156	96.77
809.336	150.01
809.515	143.87
809.694	78.33
809.873	168.45
810.052	78.33
810.231	109.05
810.411	74.24
810.59	96.77
810.769	156.16
810.948	74.24
811.127	178.69
811.306	139.77
811.485	55.81
811.664	107.01
811.843	117.25
812.022	178.69
812.201	94.72
812.38	125.44
812.559	98.81
812.737	98.81
812.916	117.25
813.095	0.51
813.274	100.86
813.453	68.09
813.632	113.15
813.811	86.53
813.989	53.76
814.168	131.58
814.347	66.05
814.526	127.49
814.704	129.53
814.883	45.57
815.062	39.42
815.24	70.14
815.419	53.76
815.598	70.14
815.776	127.49
815.955	229.88
816.133	98.81
816.312	207.36
816.49	68.09
816.669	64
816.847	74.24
817.026	68.09
817.204	74.24
817.383	160.25
817.561	137.73
817.74	45.57
817.918	70.14
818.097	92.67
818.275	39.42
818.453	92.67
818.632	53.76
818.81	82.43
818.988	43.52
819.167	51.71
819.345	51.71
819.523	88.57
819.701	76.29
819.879	51.71
820.058	43.52
820.236	121.34
820.414	133.63
820.592	59.9
820.77	117.25
820.948	37.38
821.127	64
821.305	164.35
821.483	27.14
821.661	57.86
821.839	109.05
822.017	74.24
822.195	57.86
822.373	104.96
822.551	31.23
822.729	182.78
822.907	55.81
823.085	121.34
823.262	129.53
823.44	76.29
823.618	10.75
823.796	43.52
823.974	53.76
824.152	59.9
824.329	18.94
824.507	152.06
824.685	162.3
824.863	-5.63
825.04	33.28
825.218	80.38
825.396	35.33
825.574	-17.92
825.751	70.14
825.929	31.23
826.107	27.14
826.284	29.18
826.462	90.62
826.639	78.33
826.817	78.33
826.994	51.71
827.172	31.23
827.349	61.95
827.527	6.66
827.704	104.96
827.882	84.48
828.059	55.81
828.237	61.95
828.414	59.9
828.591	-26.11
828.769	100.86
828.946	2.56
829.124	33.28
829.301	74.24
829.478	16.9
829.655	51.71
829.833	82.43
830.01	31.23
830.187	76.29
830.364	80.38
830.542	29.18
830.719	107.01
830.896	78.33
831.073	150.01
831.25	29.18
831.427	98.81
831.604	76.29
831.782	45.57
831.959	31.23
832.136	31.23
832.313	72.19
832.49	90.62
832.667	-9.73
832.844	84.48
833.021	84.48
833.198	-9.73
833.374	82.43
833.551	45.57
833.728	109.05
833.905	25.09
834.082	55.81
834.259	18.94
834.436	47.62
834.612	23.04
834.789	51.71
834.966	37.38
835.143	86.53
835.319	59.9
835.496	45.57
835.673	51.71
835.85	96.77
836.026	84.48
836.203	-9.73
836.38	94.72
836.556	94.72
836.733	23.04
836.909	86.53
837.086	-15.87
837.262	0.51
837.439	66.05
837.616	6.66
837.792	14.85
837.968	6.66
838.145	23.04
838.321	64
838.498	80.38
838.674	41.47
838.851	84.48
839.027	88.57
839.203	27.14
839.38	-1.54
839.556	111.1
839.732	82.43
839.909	51.71
840.085	27.14
840.261	45.57
840.437	35.33
840.614	23.04
840.79	6.66
840.966	20.99
841.142	41.47
841.318	-56.83
841.494	84.48
841.671	76.29
841.847	70.14
842.023	37.38
842.199	92.67
842.375	92.67
842.551	-15.87
842.727	-7.68
842.903	78.33
843.079	-17.92
843.255	35.33
843.431	86.53
843.607	94.72
843.783	8.7
843.959	18.94
844.134	41.47
844.31	20.99
844.486	27.14
844.662	0.51
844.838	109.05
845.013	57.86
845.189	10.75
845.365	86.53
845.541	16.9
845.716	23.04
845.892	14.85
846.068	51.71
846.244	-19.97
846.419	23.04
846.595	68.09
846.77	23.04
846.946	92.67
847.122	41.47
847.297	51.71
847.473	18.94
847.648	86.53
847.824	-24.06
847.999	-5.63
848.175	20.99
848.35	14.85
848.526	20.99
848.701	43.52
848.876	43.52
849.052	35.33
849.227	49.66
849.403	66.05
849.578	51.71
849.753	-15.87
849.929	84.48
850.104	4.61
850.279	14.85
850.454	35.33
850.63	64
850.805	10.75
850.98	102.91
851.155	25.09
851.33	37.38
851.505	39.42
851.681	39.42
851.856	16.9
852.031	57.86
852.206	43.52
852.381	-5.63
852.556	78.33
852.731	84.48
852.906	27.14
853.081	4.61
853.256	35.33
853.431	8.7
853.606	8.7
853.781	10.75
853.956	-44.54
854.131	61.95
854.305	100.86
854.48	29.18
854.655	8.7
854.83	16.9
855.005	-36.35
855.18	57.86
855.354	68.09
855.529	6.66
855.704	18.94
855.879	20.99
856.053	-22.02
856.228	2.56
856.403	-1.54
856.577	-9.73
856.752	18.94
856.926	55.81
857.101	100.86
857.276	61.95
857.45	8.7
857.625	37.38
857.799	37.38
857.974	-22.02
858.148	43.52
858.323	29.18
858.497	113.15
858.672	-22.02
858.846	39.42
859.02	121.34
859.195	43.52
859.369	29.18
859.543	8.7
859.718	98.81
859.892	14.85
860.066	6.66
860.241	-3.58
860.415	-22.02
860.589	23.04
860.763	59.9
860.938	45.57
861.112	2.56
861.286	20.99
861.46	16.9
861.634	-38.4
861.808	16.9
861.982	27.14
862.157	33.28
862.331	-3.58
862.505	-3.58
862.679	35.33
862.853	23.04
863.027	43.52
863.201	125.44
863.375	2.56
863.549	12.8
863.722	-24.06
863.896	0.51
864.07	-5.63
864.244	35.33
864.418	39.42
864.592	14.85
864.766	-69.12
864.939	12.8
865.113	-38.4
865.287	35.33
865.461	14.85
865.634	90.62
865.808	-19.97
865.982	41.47
866.156	39.42
866.329	-11.78
866.503	35.33
866.676	68.09
866.85	86.53
867.024	18.94
867.197	39.42
867.371	100.86
867.544	86.53
867.718	12.8
867.891	-11.78
868.065	-11.78
868.238	-5.63
868.412	100.86
868.585	-17.92
868.759	41.47
868.932	59.9
869.105	27.14
869.279	86.53
869.452	6.66
869.625	59.9
869.799	53.76
869.972	41.47
870.145	90.62
870.319	51.71
870.492	64
870.665	35.33
870.838	33.28
871.011	51.71
871.185	72.19
871.358	55.81
871.531	4.61
871.704	45.57
871.877	49.66
872.05	-24.06
872.223	66.05
872.396	35.33
872.569	-5.63
872.742	10.75
872.915	29.18
873.088	104.96
873.261	55.81
873.434	-17.92
873.607	18.94
873.78	25.09
873.953	18.94
874.126	-11.78
874.299	6.66
874.471	27.14
874.644	-71.17
874.817	82.43
874.99	55.81
875.163	27.14
875.335	80.38
875.508	82.43
875.681	43.52
875.853	33.28
876.026	23.04
876.199	57.86
876.371	-5.63
876.544	29.18
876.717	-58.88
876.889	-9.73
877.062	109.05
877.234	-9.73
877.407	57.86
877.579	-13.82
877.752	72.19
877.924	47.62
878.097	84.48
878.269	6.66
878.442	-48.64
878.614	23.04
878.786	-32.26
878.959	25.09
879.131	37.38
879.303	2.56
879.476	-30.21
879.648	-44.54
879.82	61.95
879.993	-1.54
880.165	41.47
880.337	47.62
880.509	123.39
880.681	-13.82
880.854	27.14
881.026	-11.78
881.198	49.66
881.37	35.33
881.542	-3.58
881.714	-19.97
881.886	-26.11
882.058	41.47
882.23	43.52
882.402	-15.87
882.574	-5.63
882.746	-5.63
882.918	76.29
883.09	16.9
883.262	61.95
883.434	43.52
883.606	20.99
883.778	18.94
883.95	-1.54
884.122	-17.92
884.293	78.33
884.465	78.33
884.637	-9.73
884.809	80.38
884.98	31.23
885.152	18.94
885.324	-26.11
885.496	35.33
885.667	45.57
885.839	-24.06
886.011	70.14
886.182	23.04
886.354	0.51
886.525	78.33
886.697	-34.3
886.869	61.95
887.04	35.33
887.212	53.76
887.383	29.18
887.555	18.94
887.726	-11.78
887.897	90.62
888.069	-7.68
888.24	20.99
888.412	18.94
888.583	39.42
888.754	0.51
888.926	-26.11
889.097	20.99
889.268	-38.4
889.44	18.94
889.611	-22.02
889.782	39.42
889.953	-5.63
890.125	-22.02
890.296	0.51
890.467	-1.54
890.638	2.56
890.809	86.53
890.98	-38.4
891.151	-52.74
891.323	-9.73
891.494	14.85
891.665	-46.59
891.836	43.52
892.007	20.99
892.178	57.86
892.349	-7.68
892.52	61.95
892.691	2.56
892.862	-7.68
893.032	29.18
893.203	25.09
893.374	33.28
893.545	45.57
893.716	0.51
893.887	27.14
894.057	20.99
894.228	12.8
894.399	23.04
894.57	45.57
894.74	27.14
894.911	68.09
895.082	41.47
895.253	-52.74
895.423	35.33
895.594	6.66
895.764	49.66
895.935	-15.87
896.106	8.7
896.276	20.99
896.447	12.8
896.617	51.71
896.788	-22.02
896.958	10.75
897.129	-7.68
897.299	-11.78
897.47	25.09
897.64	20.99
897.81	-1.54
897.981	-15.87
898.151	4.61
898.322	92.67
898.492	-28.16
898.662	-3.58
898.832	12.8
899.003	47.62
899.173	8.7
899.343	29.18
899.513	-11.78
