Data from USB4F104151__162__13-58-46-272.txt Node

Date: Thu Mar 13 13:58:46 EDT 2025
User: louis
Spectrometer: USB4F10415
Trigger mode: 4
Integration Time (sec): 1.000000E-2
Scans to average: 1
Electric dark correction enabled: true
Nonlinearity correction enabled: false
Boxcar width: 0
XAxis mode: Wavelengths
Number of Pixels in Spectrum: 3648
>>>>>Begin Spectral Data<<<<<
178.204	-1.37
178.424	-1.37
178.644	-1.37
178.864	-109.91
179.084	-34.13
179.304	25.26
179.524	-32.08
179.744	-75.09
179.964	-15.7
180.184	25.26
180.404	15.02
180.624	10.92
180.844	-1.37
181.064	41.64
181.283	-23.89
181.503	-5.46
181.723	35.5
181.943	-9.56
182.163	78.51
182.383	-9.56
182.602	51.88
182.822	21.16
183.042	27.31
183.262	-5.46
183.482	43.69
183.701	12.97
183.921	41.64
184.141	-7.51
184.361	6.83
184.58	37.55
184.8	72.36
185.02	-5.46
185.239	49.83
185.459	8.87
185.679	-13.65
185.898	43.69
186.118	4.78
186.338	47.79
186.557	12.97
186.777	-17.75
186.997	92.84
187.216	15.02
187.436	6.83
187.655	-11.61
187.875	29.35
188.095	-34.13
188.314	47.79
188.534	-3.41
188.753	-5.46
188.973	-13.65
189.192	17.07
189.412	10.92
189.631	25.26
189.851	19.11
190.07	55.98
190.29	-21.85
190.509	17.07
190.729	60.07
190.948	-19.8
191.168	6.83
191.387	70.31
191.607	74.41
191.826	47.79
192.045	-38.23
192.265	-9.56
192.484	39.59
192.704	23.21
192.923	27.31
193.142	58.03
193.362	23.21
193.581	8.87
193.8	-25.94
194.02	53.93
194.239	33.45
194.458	82.6
194.678	80.55
194.897	-9.56
195.116	23.21
195.335	21.16
195.555	55.98
195.774	-1.37
195.993	10.92
196.212	-15.7
196.432	-60.76
196.651	-5.46
196.87	-3.41
197.089	-17.75
197.308	35.5
197.528	113.32
197.747	-19.8
197.966	6.83
198.185	55.98
198.404	15.02
198.623	-38.23
198.842	-23.89
199.062	-36.18
199.281	47.79
199.5	35.5
199.719	6.83
199.938	19.11
200.157	-25.94
200.376	-1.37
200.595	109.22
200.814	-60.76
201.033	-7.51
201.252	0.68
201.471	31.4
201.69	2.73
201.909	-3.41
202.128	-1.37
202.347	39.59
202.566	4.78
202.785	19.11
203.004	4.78
203.223	27.31
203.442	51.88
203.661	80.55
203.879	35.5
204.098	41.64
204.317	-36.18
204.536	80.55
204.755	19.11
204.974	4.78
205.193	27.31
205.411	0.68
205.63	21.16
205.849	80.55
206.068	-5.46
206.287	39.59
206.505	51.88
206.724	15.02
206.943	27.31
207.162	23.21
207.381	39.59
207.599	-38.23
207.818	8.87
208.037	-25.94
208.255	51.88
208.474	15.02
208.693	23.21
208.911	0.68
209.13	6.83
209.349	39.59
209.567	-17.75
209.786	21.16
210.005	4.78
210.223	4.78
210.442	39.59
210.661	17.07
210.879	-9.56
211.098	10.92
211.316	35.5
211.535	10.92
211.753	15.02
211.972	-40.28
212.191	10.92
212.409	68.27
212.628	2.73
212.846	98.99
213.065	19.11
213.283	-30.04
213.502	-15.7
213.72	47.79
213.938	-13.65
214.157	-30.04
214.375	17.07
214.594	15.02
214.812	19.11
215.031	-9.56
215.249	-5.46
215.467	58.03
215.686	6.83
215.904	23.21
216.122	51.88
216.341	86.7
216.559	-34.13
216.778	60.07
216.996	58.03
217.214	41.64
217.432	-25.94
217.651	43.69
217.869	-23.89
218.087	-50.52
218.306	31.4
218.524	10.92
218.742	31.4
218.96	-7.51
219.179	-46.42
219.397	25.26
219.615	4.78
219.833	49.83
220.051	-30.04
220.27	-1.37
220.488	17.07
220.706	23.21
220.924	21.16
221.142	-19.8
221.36	64.17
221.578	45.74
221.796	19.11
222.015	12.97
222.233	37.55
222.451	41.64
222.669	-27.99
222.887	55.98
223.105	76.46
223.323	-56.66
223.541	-25.94
223.759	-38.23
223.977	0.68
224.195	66.22
224.413	-15.7
224.631	12.97
224.849	43.69
225.067	4.78
225.285	39.59
225.503	6.83
225.721	15.02
225.939	-9.56
226.157	39.59
226.375	15.02
226.592	84.65
226.81	31.4
227.028	47.79
227.246	-11.61
227.464	-42.32
227.682	23.21
227.9	-17.75
228.117	19.11
228.335	-50.52
228.553	15.02
228.771	-25.94
228.989	31.4
229.206	51.88
229.424	58.03
229.642	29.35
229.86	17.07
230.077	31.4
230.295	101.03
230.513	-5.46
230.731	125.61
230.948	-9.56
231.166	-1.37
231.384	27.31
231.601	-38.23
231.819	37.55
232.037	10.92
232.254	49.83
232.472	12.97
232.689	2.73
232.907	47.79
233.125	8.87
233.342	58.03
233.56	-3.41
233.777	6.83
233.995	2.73
234.213	-5.46
234.43	4.78
234.648	39.59
234.865	62.12
235.083	10.92
235.3	64.17
235.518	84.65
235.735	-1.37
235.953	62.12
236.17	-3.41
236.388	31.4
236.605	-3.41
236.822	96.94
237.04	25.26
237.257	-56.66
237.475	-5.46
237.692	27.31
237.909	-1.37
238.127	25.26
238.344	-5.46
238.562	103.08
238.779	-9.56
238.996	29.35
239.214	-3.41
239.431	-5.46
239.648	-81.24
239.865	35.5
240.083	43.69
240.3	4.78
240.517	10.92
240.735	66.22
240.952	15.02
241.169	90.79
241.386	-13.65
241.603	60.07
241.821	12.97
242.038	-36.18
242.255	12.97
242.472	-34.13
242.689	82.6
242.907	72.36
243.124	-32.08
243.341	66.22
243.558	-9.56
243.775	10.92
243.992	-9.56
244.209	62.12
244.426	31.4
244.643	82.6
244.86	4.78
245.078	47.79
245.295	35.5
245.512	33.45
245.729	-1.37
245.946	21.16
246.163	8.87
246.38	74.41
246.597	68.27
246.814	51.88
247.031	68.27
247.248	55.98
247.464	-27.99
247.681	76.46
247.898	8.87
248.115	-36.18
248.332	19.11
248.549	98.99
248.766	33.45
248.983	0.68
249.2	-27.99
249.417	21.16
249.633	-21.85
249.85	12.97
250.067	0.68
250.284	45.74
250.501	17.07
250.717	49.83
250.934	-11.61
251.151	82.6
251.368	49.83
251.585	53.93
251.801	45.74
252.018	2.73
252.235	12.97
252.451	27.31
252.668	-21.85
252.885	55.98
253.102	74.41
253.318	-5.46
253.535	15.02
253.752	-25.94
253.968	-1.37
254.185	15.02
254.401	-5.46
254.618	29.35
254.835	-46.42
255.051	27.31
255.268	47.79
255.484	-23.89
255.701	-1.37
255.917	0.68
256.134	-9.56
256.351	19.11
256.567	41.64
256.784	2.73
257	-11.61
257.217	-3.41
257.433	-15.7
257.65	80.55
257.866	-5.46
258.082	-46.42
258.299	-13.65
258.515	31.4
258.732	96.94
258.948	103.08
259.165	-25.94
259.381	-19.8
259.597	35.5
259.814	-46.42
260.03	-23.89
260.246	-40.28
260.463	17.07
260.679	-36.18
260.895	101.03
261.112	45.74
261.328	15.02
261.544	64.17
261.761	-50.52
261.977	-1.37
262.193	74.41
262.409	51.88
262.626	-1.37
262.842	80.55
263.058	60.07
263.274	41.64
263.49	-7.51
263.707	12.97
263.923	66.22
264.139	-25.94
264.355	29.35
264.571	58.03
264.787	10.92
265.004	49.83
265.22	10.92
265.436	-40.28
265.652	-9.56
265.868	62.12
266.084	-15.7
266.3	-48.47
266.516	19.11
266.732	68.27
266.948	-58.71
267.164	29.35
267.38	4.78
267.596	4.78
267.812	-66.9
268.028	47.79
268.244	55.98
268.46	72.36
268.676	-15.7
268.892	43.69
269.108	-38.23
269.324	-7.51
269.54	0.68
269.756	-19.8
269.972	8.87
270.188	-66.9
270.403	6.83
270.619	60.07
270.835	-87.38
271.051	15.02
271.267	17.07
271.483	31.4
271.698	41.64
271.914	-58.71
272.13	6.83
272.346	35.5
272.562	23.21
272.777	-7.51
272.993	64.17
273.209	-1.37
273.425	29.35
273.64	-1.37
273.856	-5.46
274.072	-11.61
274.287	8.87
274.503	92.84
274.719	31.4
274.934	72.36
275.15	19.11
275.366	0.68
275.581	-19.8
275.797	19.11
276.012	-34.13
276.228	0.68
276.444	41.64
276.659	-15.7
276.875	27.31
277.09	-75.09
277.306	-13.65
277.521	47.79
277.737	31.4
277.952	58.03
278.168	4.78
278.383	64.17
278.599	0.68
278.814	-5.46
279.03	37.55
279.245	68.27
279.461	70.31
279.676	15.02
279.892	27.31
280.107	-30.04
280.322	37.55
280.538	-17.75
280.753	10.92
280.969	10.92
281.184	10.92
281.399	0.68
281.615	21.16
281.83	72.36
282.045	53.93
282.26	55.98
282.476	12.97
282.691	90.79
282.906	49.83
283.122	-15.7
283.337	-1.37
283.552	8.87
283.767	-38.23
283.983	10.92
284.198	-62.8
284.413	58.03
284.628	-34.13
284.843	39.59
285.058	2.73
285.274	19.11
285.489	41.64
285.704	-7.51
285.919	-13.65
286.134	53.93
286.349	23.21
286.564	8.87
286.779	76.46
286.995	8.87
287.21	-5.46
287.425	72.36
287.64	-25.94
287.855	33.45
288.07	15.02
288.285	47.79
288.5	39.59
288.715	15.02
288.93	15.02
289.145	-38.23
289.36	66.22
289.575	51.88
289.79	66.22
290.004	-19.8
290.219	23.21
290.434	80.55
290.649	19.11
290.864	39.59
291.079	-44.37
291.294	0.68
291.509	-30.04
291.724	19.11
291.938	43.69
292.153	23.21
292.368	23.21
292.583	15.02
292.798	66.22
293.012	-25.94
293.227	39.59
293.442	-3.41
293.657	6.83
293.871	25.26
294.086	60.07
294.301	33.45
294.516	121.51
294.73	31.4
294.945	74.41
295.16	66.22
295.374	10.92
295.589	0.68
295.804	6.83
296.018	31.4
296.233	45.74
296.447	-23.89
296.662	23.21
296.877	23.21
297.091	23.21
297.306	-15.7
297.52	6.83
297.735	19.11
297.949	60.07
298.164	33.45
298.378	25.26
298.593	78.51
298.807	-48.47
299.022	-40.28
299.236	58.03
299.451	8.87
299.665	-25.94
299.88	12.97
300.094	29.35
300.309	33.45
300.523	29.35
300.737	12.97
300.952	35.5
301.166	19.11
301.381	-1.37
301.595	-40.28
301.809	12.97
302.024	49.83
302.238	2.73
302.452	55.98
302.667	113.32
302.881	-30.04
303.095	62.12
303.309	31.4
303.524	-21.85
303.738	72.36
303.952	6.83
304.166	0.68
304.381	19.11
304.595	64.17
304.809	41.64
305.023	41.64
305.237	4.78
305.452	68.27
305.666	78.51
305.88	2.73
306.094	58.03
306.308	-46.42
306.522	88.75
306.736	-1.37
306.95	17.07
307.164	25.26
307.379	78.51
307.593	21.16
307.807	29.35
308.021	109.22
308.235	23.21
308.449	-36.18
308.663	21.16
308.877	113.32
309.091	33.45
309.305	-17.75
309.519	-64.85
309.733	10.92
309.947	66.22
310.161	-1.37
310.374	6.83
310.588	60.07
310.802	21.16
311.016	-23.89
311.23	55.98
311.444	39.59
311.658	12.97
311.872	6.83
312.085	2.73
312.299	6.83
312.513	45.74
312.727	15.02
312.941	19.11
313.154	21.16
313.368	-17.75
313.582	17.07
313.796	21.16
314.009	-17.75
314.223	88.75
314.437	19.11
314.651	12.97
314.864	23.21
315.078	10.92
315.292	15.02
315.505	-21.85
315.719	41.64
315.933	-23.89
316.146	49.83
316.36	23.21
316.573	-38.23
316.787	4.78
317.001	94.89
317.214	-5.46
317.428	86.7
317.641	-32.08
317.855	29.35
318.068	-5.46
318.282	115.37
318.495	37.55
318.709	23.21
318.922	-17.75
319.136	-5.46
319.349	12.97
319.563	8.87
319.776	35.5
319.99	8.87
320.203	37.55
320.417	68.27
320.63	86.7
320.843	8.87
321.057	31.4
321.27	101.03
321.483	47.79
321.697	72.36
321.91	70.31
322.124	47.79
322.337	45.74
322.55	47.79
322.763	6.83
322.977	8.87
323.19	-68.95
323.403	2.73
323.617	-40.28
323.83	98.99
324.043	-34.13
324.256	-9.56
324.469	-38.23
324.683	31.4
324.896	8.87
325.109	43.69
325.322	23.21
325.535	31.4
325.748	76.46
325.962	25.26
326.175	-9.56
326.388	76.46
326.601	21.16
326.814	37.55
327.027	2.73
327.24	8.87
327.453	31.4
327.666	88.75
327.879	80.55
328.092	0.68
328.305	21.16
328.518	37.55
328.731	2.73
328.944	-25.94
329.157	-9.56
329.37	10.92
329.583	15.02
329.796	39.59
330.009	2.73
330.222	88.75
330.435	23.21
330.648	-3.41
330.861	76.46
331.073	-5.46
331.286	117.42
331.499	35.5
331.712	35.5
331.925	49.83
332.138	-13.65
332.35	21.16
332.563	-17.75
332.776	35.5
332.989	-62.8
333.202	45.74
333.414	2.73
333.627	15.02
333.84	-15.7
334.053	53.93
334.265	4.78
334.478	27.31
334.691	-19.8
334.903	64.17
335.116	-19.8
335.329	-34.13
335.541	10.92
335.754	-50.52
335.966	23.21
336.179	17.07
336.392	-15.7
336.604	12.97
336.817	19.11
337.029	-19.8
337.242	21.16
337.454	15.02
337.667	29.35
337.88	-3.41
338.092	23.21
338.305	45.74
338.517	21.16
338.729	-1.37
338.942	96.94
339.154	-27.99
339.367	-15.7
339.579	88.75
339.792	-23.89
340.004	47.79
340.217	27.31
340.429	41.64
340.641	-58.71
340.854	25.26
341.066	37.55
341.278	-25.94
341.491	-1.37
341.703	-23.89
341.915	10.92
342.128	60.07
342.34	-5.46
342.552	76.46
342.764	0.68
342.977	-1.37
343.189	8.87
343.401	25.26
343.613	66.22
343.826	-34.13
344.038	41.64
344.25	-21.85
344.462	29.35
344.674	62.12
344.886	6.83
345.099	64.17
345.311	10.92
345.523	-30.04
345.735	-3.41
345.947	17.07
346.159	-7.51
346.371	74.41
346.583	66.22
346.795	96.94
347.007	33.45
347.219	39.59
347.431	-32.08
347.643	33.45
347.855	72.36
348.067	41.64
348.279	76.46
348.491	39.59
348.703	21.16
348.915	-3.41
349.127	23.21
349.339	-9.56
349.551	-9.56
349.763	27.31
349.975	6.83
350.187	-23.89
350.399	-9.56
350.61	-58.71
350.822	25.26
351.034	78.51
351.246	82.6
351.458	49.83
351.669	43.69
351.881	-5.46
352.093	41.64
352.305	12.97
352.517	33.45
352.728	10.92
352.94	12.97
353.152	37.55
353.363	53.93
353.575	49.83
353.787	-30.04
353.999	19.11
354.21	109.22
354.422	15.02
354.633	72.36
354.845	25.26
355.057	-11.61
355.268	76.46
355.48	12.97
355.692	47.79
355.903	-25.94
356.115	49.83
356.326	-34.13
356.538	111.27
356.749	-1.37
356.961	-23.89
357.172	35.5
357.384	88.75
357.595	-3.41
357.807	27.31
358.018	-7.51
358.23	74.41
358.441	43.69
358.653	21.16
358.864	19.11
359.075	-13.65
359.287	-13.65
359.498	25.26
359.709	-1.37
359.921	78.51
360.132	23.21
360.344	25.26
360.555	15.02
360.766	45.74
360.977	39.59
361.189	55.98
361.4	-27.99
361.611	-89.43
361.823	31.4
362.034	55.98
362.245	-15.7
362.456	37.55
362.667	0.68
362.879	39.59
363.09	-13.65
363.301	98.99
363.512	43.69
363.723	82.6
363.935	76.46
364.146	53.93
364.357	-7.51
364.568	27.31
364.779	12.97
364.99	23.21
365.201	29.35
365.412	41.64
365.623	-40.28
365.834	19.11
366.045	39.59
366.256	49.83
366.467	92.84
366.678	8.87
366.889	47.79
367.1	-15.7
367.311	109.22
367.522	-3.41
367.733	21.16
367.944	-11.61
368.155	41.64
368.366	17.07
368.577	-17.75
368.788	55.98
368.999	-3.41
369.209	-7.51
369.42	35.5
369.631	47.79
369.842	-15.7
370.053	31.4
370.264	23.21
370.474	-5.46
370.685	37.55
370.896	-3.41
371.107	92.84
371.317	45.74
371.528	70.31
371.739	-7.51
371.95	76.46
372.16	-32.08
372.371	37.55
372.582	-23.89
372.792	12.97
373.003	25.26
373.214	2.73
373.424	-56.66
373.635	-64.85
373.846	41.64
374.056	-9.56
374.267	101.03
374.477	35.5
374.688	0.68
374.898	58.03
375.109	-21.85
375.319	12.97
375.53	39.59
375.74	-62.8
375.951	23.21
376.161	82.6
376.372	41.64
376.582	6.83
376.793	49.83
377.003	35.5
377.214	47.79
377.424	-48.47
377.635	23.21
377.845	-13.65
378.055	31.4
378.266	43.69
378.476	58.03
378.686	39.59
378.897	-9.56
379.107	-23.89
379.317	-1.37
379.528	-38.23
379.738	92.84
379.948	15.02
380.158	64.17
380.369	15.02
380.579	64.17
380.789	33.45
380.999	53.93
381.21	23.21
381.42	27.31
381.63	72.36
381.84	53.93
382.05	58.03
382.261	64.17
382.471	-25.94
382.681	-34.13
382.891	49.83
383.101	12.97
383.311	-21.85
383.521	-5.46
383.731	72.36
383.941	72.36
384.151	12.97
384.361	-19.8
384.571	23.21
384.781	8.87
384.991	23.21
385.201	58.03
385.411	72.36
385.621	23.21
385.831	35.5
386.041	-15.7
386.251	72.36
386.461	68.27
386.671	-1.37
386.881	37.55
387.091	-23.89
387.301	33.45
387.511	72.36
387.72	111.27
387.93	64.17
388.14	90.79
388.35	2.73
388.56	88.75
388.769	74.41
388.979	49.83
389.189	35.5
389.399	-7.51
389.609	-27.99
389.818	43.69
390.028	-7.51
390.238	68.27
390.447	-54.61
390.657	74.41
390.867	10.92
391.076	6.83
391.286	55.98
391.496	62.12
391.705	35.5
391.915	80.55
392.125	43.69
392.334	31.4
392.544	-50.52
392.753	64.17
392.963	8.87
393.172	29.35
393.382	41.64
393.591	55.98
393.801	15.02
394.01	105.13
394.22	47.79
394.429	53.93
394.639	-25.94
394.848	27.31
395.058	47.79
395.267	49.83
395.477	72.36
395.686	41.64
395.895	111.27
396.105	29.35
396.314	113.32
396.524	76.46
396.733	47.79
396.942	88.75
397.152	15.02
397.361	17.07
397.57	41.64
397.78	33.45
397.989	33.45
398.198	68.27
398.407	-25.94
398.617	12.97
398.826	-27.99
399.035	43.69
399.244	35.5
399.453	25.26
399.663	-40.28
399.872	25.26
400.081	17.07
400.29	68.27
400.499	60.07
400.708	82.6
400.917	41.64
401.127	17.07
401.336	17.07
401.545	117.42
401.754	55.98
401.963	82.6
402.172	35.5
402.381	96.94
402.59	72.36
402.799	33.45
403.008	64.17
403.217	68.27
403.426	19.11
403.635	92.84
403.844	12.97
404.053	74.41
404.262	4.78
404.471	66.22
404.68	84.65
404.888	55.98
405.097	23.21
405.306	137.9
405.515	47.79
405.724	49.83
405.933	88.75
406.142	96.94
406.35	88.75
406.559	127.66
406.768	47.79
406.977	84.65
407.185	41.64
407.394	51.88
407.603	135.85
407.812	80.55
408.02	68.27
408.229	88.75
408.438	139.94
408.646	98.99
408.855	31.4
409.064	123.56
409.272	33.45
409.481	137.9
409.69	96.94
409.898	156.33
410.107	139.94
410.315	115.37
410.524	66.22
410.733	117.42
410.941	160.42
411.15	88.75
411.358	78.51
411.567	137.9
411.775	146.09
411.984	162.47
412.192	164.52
412.401	146.09
412.609	193.19
412.818	180.9
413.026	172.71
413.234	217.77
413.443	148.14
413.651	182.95
413.86	256.68
414.068	211.62
414.276	125.61
414.485	244.39
414.693	211.62
414.901	207.53
415.11	205.48
415.318	254.63
415.526	187.05
415.734	318.12
415.943	228.01
416.151	258.73
416.359	271.01
416.567	275.11
416.776	326.31
416.984	260.77
417.192	281.25
417.4	318.12
417.608	311.97
417.817	305.83
418.025	324.26
418.233	367.27
418.441	332.45
418.649	361.13
418.857	379.56
419.065	406.18
419.273	434.85
419.481	391.84
419.689	506.53
419.897	481.96
420.105	496.29
420.313	508.58
420.521	473.76
420.729	545.44
420.937	496.29
421.145	563.87
421.353	590.5
421.561	629.41
421.769	653.98
421.977	615.07
422.185	658.08
422.393	694.94
422.601	684.7
422.809	668.32
423.017	787.1
423.224	662.18
423.432	756.38
423.64	787.1
423.848	891.55
424.056	854.69
424.263	909.98
424.471	909.98
424.679	899.74
424.887	1051.29
425.094	969.37
425.302	957.08
425.51	963.23
425.718	1067.67
425.925	1114.78
426.133	1082.01
426.341	1096.35
426.548	1204.89
426.756	1174.17
426.964	1155.74
427.171	1215.13
427.379	1317.53
427.586	1333.91
427.794	1313.43
428.001	1303.19
428.209	1553.04
428.417	1491.6
428.624	1567.38
428.832	1528.47
429.039	1555.09
429.247	1497.75
429.454	1745.55
429.662	1872.53
429.869	1772.18
430.076	1675.92
430.284	1794.7
430.491	1856.14
430.699	1942.16
430.906	2058.89
431.114	1972.88
431.321	2009.74
431.528	2118.28
431.736	2237.06
431.943	2216.58
432.15	2304.65
432.358	2271.88
432.565	2458.25
432.772	2370.18
432.979	2546.31
433.187	2579.08
433.394	2607.75
433.601	2738.82
433.808	2898.56
434.016	2742.91
434.223	2800.26
434.43	3037.82
434.637	2939.52
434.844	3203.71
435.052	3086.97
435.259	3209.85
435.466	3146.36
435.673	3187.32
435.88	3478.13
436.087	3568.24
436.294	3529.33
436.501	3326.58
436.708	3420.79
436.915	3603.06
437.122	3828.34
437.329	3789.42
437.537	3900.02
437.743	3930.73
437.95	3914.35
438.157	4303.47
438.364	4194.92
438.571	4254.31
438.778	4325.99
438.985	4588.13
439.192	4575.84
439.399	4688.48
439.606	4418.15
439.813	4754.02
440.02	5081.69
440.227	4997.73
440.433	4962.91
440.64	5059.17
440.847	5075.55
441.054	5194.33
441.261	5581.4
441.467	5665.36
441.674	5538.39
441.881	5706.32
442.088	5823.06
442.294	5751.38
442.501	5878.35
442.708	6036.05
442.914	6191.69
443.121	6431.3
443.328	6238.8
443.534	6746.69
443.741	6550.09
443.948	6470.22
444.154	6974.02
444.361	7086.65
444.568	7062.08
444.774	7084.61
444.981	7189.05
445.187	7373.37
445.394	7658.04
445.6	7526.97
445.807	8243.76
446.013	7885.36
446.22	8034.86
446.426	8272.43
446.633	8516.14
446.839	8882.72
447.046	8329.77
447.252	8653.35
447.459	8841.76
447.665	8755.75
447.871	9142.82
448.078	9478.68
448.284	9339.42
448.491	9271.84
448.697	9781.78
448.903	9912.85
449.11	9851.41
449.316	9667.1
449.522	9957.91
449.728	10117.65
449.935	10379.79
450.141	10312.21
450.347	10703.37
450.553	10263.05
450.76	10361.36
450.966	10787.33
451.172	10447.37
451.378	10979.84
451.584	10676.74
451.791	10773
451.997	10945.03
452.203	11102.72
452.409	10971.65
452.615	11153.92
452.821	10709.51
453.027	10510.86
453.233	10951.17
453.44	10674.7
453.646	10891.78
453.852	10947.08
454.058	11016.71
454.264	10633.74
454.47	10924.55
454.676	10811.91
454.882	10971.65
455.088	10023.44
455.294	10273.29
455.5	10701.32
455.705	10660.36
455.911	10166.8
456.117	10002.96
456.323	9804.31
456.529	9308.7
456.735	9728.53
456.941	9611.8
457.147	9511.45
457.352	8919.59
457.558	8890.91
457.764	8915.49
457.97	8909.35
458.176	8733.22
458.381	8682.02
458.587	8317.48
458.793	8419.88
458.999	7944.75
459.204	8423.98
459.41	8147.5
459.616	7703.09
459.821	7690.81
460.027	7651.89
460.233	7576.12
460.438	7270.97
460.644	7051.84
460.85	6890.05
461.055	6771.27
461.261	6707.78
461.466	6388.3
461.672	5970.51
461.878	6537.8
462.083	6029.9
462.289	6134.35
462.494	5831.25
462.7	5655.12
462.905	5497.43
463.111	5669.46
463.316	5687.89
463.522	5540.44
463.727	5601.88
463.932	5470.81
464.138	5646.93
464.343	5487.19
464.549	5364.31
464.754	5534.29
464.959	5395.03
465.165	5526.1
465.37	5259.87
465.575	5173.85
465.781	5247.58
465.986	5366.36
466.191	5225.05
466.397	5053.02
466.602	4837.98
466.807	4995.68
467.012	5079.65
467.218	5003.87
467.423	4917.86
467.628	4954.72
467.833	5249.63
468.038	4889.18
468.244	4711.01
468.449	5067.36
468.654	4745.83
468.859	4760.16
469.064	4762.21
469.269	4500.07
469.474	4534.89
469.679	4627.04
469.885	4608.61
470.09	4618.85
470.295	4676.2
470.5	4530.79
470.705	4569.7
470.91	4332.14
471.115	4498.02
471.32	4461.16
471.525	4299.37
471.73	4418.15
471.935	4219.5
472.139	4092.52
472.344	4252.27
472.549	4295.27
472.754	4207.21
472.959	4008.56
473.164	3996.27
473.369	4082.28
473.574	4102.76
473.778	4086.38
473.983	4008.56
474.188	3990.13
474.393	3863.15
474.598	3826.29
474.802	3906.16
475.007	3746.42
475.212	3811.95
475.417	3582.58
475.621	3725.94
475.826	3693.17
476.031	3570.29
476.235	3617.4
476.44	3619.44
476.645	3564.15
476.849	3537.52
477.054	3476.09
477.259	3433.08
477.463	3400.31
477.668	3291.77
477.872	3404.41
478.077	3267.19
478.282	3271.29
478.486	3291.77
478.691	3168.89
478.895	3234.43
479.1	3177.08
479.304	3201.66
479.509	2978.43
479.713	3134.07
479.918	2955.9
480.122	3086.97
480.326	3062.4
480.531	3031.68
480.735	3084.92
480.94	3078.78
481.144	2960
481.348	2910.85
481.553	3076.73
481.757	2951.81
481.961	2919.04
482.166	3076.73
482.37	2925.18
482.574	2861.69
482.778	2951.81
482.983	2964.09
483.187	3035.77
483.391	2927.23
483.595	2939.52
483.8	2957.95
484.004	3035.77
484.208	2876.03
484.412	2857.6
484.616	2802.3
484.821	2935.42
485.025	2792.06
485.229	2792.06
485.433	2871.93
485.637	2970.24
485.841	2998.91
486.045	2923.13
486.249	2972.29
486.453	2798.21
486.657	2890.37
486.861	2833.02
487.065	2853.5
487.269	2919.04
487.473	2859.65
487.677	2970.24
487.881	2964.09
488.085	2787.97
488.289	2990.72
488.493	2824.83
488.697	2914.94
488.901	3072.64
489.105	2896.51
489.309	3003
489.512	2914.94
489.716	3046.01
489.92	2923.13
490.124	2945.66
490.328	2996.86
490.531	3048.06
490.735	3048.06
490.939	2925.18
491.143	3111.55
491.346	3005.05
491.55	3068.54
491.754	2982.53
491.958	3232.38
492.161	3164.79
492.365	3226.23
492.569	3213.95
492.772	3089.02
492.976	3195.51
493.18	3187.32
493.383	3226.23
493.587	3316.34
493.79	3342.97
493.994	3242.62
494.197	3349.11
494.401	3420.79
494.605	3365.5
494.808	3267.19
495.012	3349.11
495.215	3390.07
495.419	3385.98
495.622	3490.42
495.825	3465.85
496.029	3363.45
496.232	3529.33
496.436	3613.3
496.639	3555.96
496.843	3652.21
497.046	3777.14
497.249	3918.45
497.453	3768.95
497.656	3971.69
497.859	3996.27
498.063	3965.55
498.266	4084.33
498.469	3986.03
498.673	4065.9
498.876	4127.34
499.079	4149.87
499.282	4096.62
499.485	4315.75
499.689	4323.94
499.892	4395.62
500.095	4455.01
500.298	4389.48
500.501	4424.3
500.705	4524.65
500.908	4846.18
501.111	4794.98
501.314	4696.68
501.517	4891.23
501.72	4823.65
501.923	4928.1
502.126	5022.3
502.329	5132.89
502.532	5091.93
502.735	5253.72
502.938	5333.59
503.141	5356.12
503.344	5513.81
503.547	5548.63
503.75	5620.31
503.953	5769.81
504.156	5800.53
504.359	5722.71
504.562	5890.64
504.765	6036.05
504.968	6117.97
505.17	6171.21
505.373	6310.47
505.576	6560.33
505.779	6505.03
505.982	6416.97
506.185	6603.33
506.387	6728.26
506.59	6818.37
506.793	6933.06
506.996	6904.39
507.198	7281.21
507.401	7221.82
507.604	7303.74
507.807	7455.29
508.009	7469.62
508.212	7592.5
508.415	7875.12
508.617	7625.27
508.82	7889.46
509.022	7946.8
509.225	8331.82
509.428	8210.99
509.63	8458.79
509.833	8483.37
510.035	8589.86
510.238	8821.28
510.44	8663.59
510.643	9126.43
510.845	9079.33
511.048	9130.53
511.25	9558.55
511.453	9232.93
511.655	9722.39
511.858	9714.2
512.06	9804.31
512.262	9962
512.465	9878.04
512.667	10279.44
512.87	10328.59
513.072	10437.13
513.274	10650.12
513.477	10803.72
513.679	10883.59
513.881	11334.14
514.084	11274.75
514.286	11440.64
514.488	11420.16
514.69	11825.65
514.893	11713.02
515.095	12063.22
515.297	12124.66
515.499	12253.68
515.701	12489.2
515.904	12726.76
516.106	12902.89
516.308	12958.18
516.51	13179.36
516.712	13251.04
516.914	13621.72
517.116	13644.25
517.318	13720.03
517.52	13961.69
517.722	13980.12
517.925	14301.65
518.127	14471.63
518.329	14426.57
518.531	14518.73
518.733	14899.66
518.935	15047.11
519.136	15235.52
519.338	15389.12
519.54	15677.88
519.742	15933.88
519.944	15866.3
520.146	16349.62
520.348	16370.1
520.55	16284.08
520.752	16431.54
520.954	16955.82
521.155	16900.52
521.357	17389.99
521.559	17158.56
521.761	17881.5
521.963	17553.82
522.164	17770.91
522.366	17947.03
522.568	18301.33
522.77	18301.33
522.971	18586
523.173	18624.91
523.375	18917.77
523.576	18956.68
523.778	19229.06
523.98	19173.77
524.181	19241.35
524.383	19417.47
524.584	19632.51
524.786	19786.11
524.988	19882.36
525.189	20066.68
525.391	20459.89
525.592	20371.83
525.794	20396.4
525.995	20437.36
526.197	20533.62
526.398	20695.41
526.6	20887.92
526.801	20883.82
527.003	21270.89
527.204	21440.87
527.406	21774.69
527.607	21543.27
527.808	21614.94
528.01	21336.42
528.211	21703.01
528.412	22174.04
528.614	21909.85
528.815	22096.22
529.016	22231.38
529.218	22452.56
529.419	22380.89
529.62	22376.79
529.822	22245.72
530.023	22507.86
530.224	22350.17
530.425	22677.84
530.626	22557.01
530.828	22595.92
531.029	23271.75
531.23	22503.76
531.431	22843.73
531.632	22886.73
531.833	22886.73
532.035	23208.26
532.236	23134.54
532.437	23263.56
532.638	22911.31
532.839	23245.13
533.04	23073.1
533.241	22849.87
533.442	23724.35
533.643	23392.58
533.844	23263.56
534.045	23292.23
534.246	23320.9
534.447	23368.01
534.648	23200.07
534.849	23441.73
535.05	23370.05
535.251	23527.75
535.451	23406.92
535.652	23939.39
535.853	23599.43
536.054	23787.84
536.255	23730.5
536.456	23388.49
536.657	24041.79
536.857	23894.33
537.058	23646.53
537.259	24017.21
537.46	23634.24
537.66	23804.22
537.861	23785.79
538.062	23181.64
538.263	23767.36
538.463	23701.83
538.664	24156.47
538.865	23773.5
539.065	23884.09
539.266	23755.07
539.466	24041.79
539.667	23630.15
539.868	24052.03
540.068	23730.5
540.269	24267.06
540.469	24258.87
540.67	23988.54
540.87	23949.63
541.071	23785.79
541.271	23914.81
541.472	23804.22
541.672	23796.03
541.873	23419.21
542.073	23722.3
542.274	24142.14
542.474	23675.2
542.675	23855.42
542.875	24224.06
543.075	23841.09
543.276	23703.87
543.476	23800.13
543.676	23685.44
543.877	23802.18
544.077	23804.22
544.277	23841.09
544.478	23759.17
544.678	23769.41
544.878	23699.78
545.078	23918.91
545.279	23773.5
545.479	23748.93
545.679	23951.68
545.879	23734.59
546.079	23816.51
546.28	23816.51
546.48	23388.49
546.68	23867.71
546.88	23982.4
547.08	23910.72
547.28	23615.81
547.48	23998.78
547.68	23923.01
547.88	23468.36
548.081	24054.08
548.281	23726.4
548.481	23712.06
548.681	23779.65
548.881	24086.84
549.081	24095.03
549.28	23783.74
549.48	24006.97
549.68	23839.04
549.88	24189.24
550.08	23857.47
550.28	24099.13
550.48	24013.12
550.68	23996.73
550.88	23761.22
551.08	23771.46
551.279	23892.29
551.479	23779.65
551.679	23820.61
551.879	23818.56
552.079	23759.17
552.278	23822.66
552.478	24002.88
552.678	23836.99
552.878	23816.51
553.077	23693.63
553.277	23685.44
553.477	23695.68
553.676	23755.07
553.876	23671.11
554.076	23417.16
554.275	23658.82
554.475	23736.64
554.674	23814.46
554.874	23685.44
555.074	23458.12
555.273	23339.33
555.473	23642.43
555.672	23413.06
555.872	23169.35
556.071	23425.35
556.271	23472.45
556.47	23572.8
556.67	23091.53
556.869	22968.65
557.068	23427.4
557.268	23228.74
557.467	23355.72
557.667	23075.15
557.866	23177.54
558.065	23069
558.265	23056.71
558.464	23230.79
558.663	23333.19
558.863	22608.21
559.062	23245.13
559.261	22544.72
559.461	23132.49
559.66	22671.7
559.859	22862.16
560.058	22796.62
560.258	22960.46
560.457	22538.58
560.656	22999.37
560.855	22581.59
561.054	22884.69
561.253	22450.52
561.453	22391.12
561.652	22653.26
561.851	22481.24
562.05	22778.19
562.249	22442.32
562.448	22874.45
562.647	22124.89
562.846	22427.99
563.045	22317.4
563.244	22184.28
563.443	22444.37
563.642	22163.8
563.841	22124.89
564.04	22372.69
564.239	22192.47
564.438	22024.54
564.637	21782.88
564.836	22071.64
565.035	21832.03
565.234	21700.96
565.432	21750.11
565.631	21569.89
565.83	21662.05
566.029	21688.67
566.228	21627.23
566.427	21533.03
566.625	21338.47
566.824	21117.29
567.023	21481.83
567.222	21277.03
567.42	21594.47
567.619	21162.34
567.818	21125.48
568.016	21135.72
568.215	21295.46
568.414	21092.71
568.612	21266.79
568.811	21182.82
569.01	20842.86
569.208	20611.44
569.407	21021.03
569.605	20582.77
569.804	20640.11
570.002	20699.5
570.201	20781.42
570.4	20590.96
570.598	20228.47
570.797	20279.67
570.995	20390.26
571.193	20169.08
571.392	20337.01
571.59	20099.45
571.789	20011.39
571.987	19796.35
572.186	20115.83
572.384	19722.62
572.582	19757.44
572.781	19923.32
572.979	19583.36
573.177	19499.39
573.376	19876.22
573.574	19136.9
573.772	19243.4
573.971	19356.04
574.169	19063.18
574.367	18999.69
574.565	19362.18
574.763	19106.18
574.962	18901.39
575.16	18467.22
575.358	18905.48
575.556	18966.92
575.754	18946.44
575.952	18696.59
576.151	18682.25
576.349	18522.51
576.547	18391.44
576.745	18278.8
576.943	18760.08
577.141	18502.03
577.339	18088.34
577.537	18100.63
577.735	18276.76
577.933	18219.41
578.131	17930.65
578.329	17828.25
578.527	17703.32
578.725	17848.73
578.923	17779.1
579.121	17858.97
579.319	17850.78
579.516	17791.39
579.714	17734.04
579.912	17377.7
580.11	17594.78
580.308	17643.93
580.506	17189.28
580.704	17072.55
580.901	17250.72
581.099	17443.23
581.297	17086.89
581.495	16953.77
581.692	17011.11
581.89	16865.71
582.088	16935.34
582.285	17000.87
582.483	16867.75
582.681	16699.82
582.878	16851.37
583.076	16671.15
583.274	16785.83
583.471	16314.8
583.669	16478.64
583.866	16439.73
584.064	16566.7
584.262	16148.92
584.459	16404.91
584.657	16042.42
584.854	16388.53
585.052	15905.21
585.249	16058.81
585.447	15876.54
585.644	15759.8
585.841	15919.54
586.039	15927.74
586.236	15761.85
586.434	15727.03
586.631	15735.23
586.828	15958.46
587.026	15712.7
587.223	15567.29
587.42	15417.79
587.618	15309.25
587.815	15438.27
588.012	15460.8
588.21	15145.41
588.407	15129.03
588.604	15212.99
588.801	14995.91
588.999	15212.99
589.196	14997.96
589.393	14946.76
589.59	14954.95
589.787	14875.08
589.984	14856.65
590.182	14678.47
590.379	15069.64
590.576	14559.69
590.773	14727.63
590.97	14432.72
591.167	14668.23
591.364	14684.62
591.561	14350.8
591.758	14354.9
591.955	14420.43
592.152	14469.58
592.349	14240.21
592.546	14242.26
592.743	14393.81
592.94	14111.19
593.137	14047.7
593.334	14416.33
593.531	13799.9
593.727	14137.81
593.924	13986.26
594.121	14014.93
594.318	14035.41
594.515	13926.87
594.712	13951.45
594.908	13584.86
595.105	13732.31
595.302	13558.24
595.499	13619.67
595.696	13533.66
595.892	13425.12
596.089	13593.05
596.286	13451.74
596.482	13717.98
596.679	13507.04
596.876	13490.65
597.072	13335.01
597.269	13353.44
597.466	13400.54
597.662	13212.13
597.859	13216.22
598.055	13214.18
598.252	13240.8
598.448	13042.15
598.645	13105.63
598.841	12853.73
599.038	13027.81
599.234	13021.67
599.431	12810.73
599.627	12642.79
599.824	12900.84
600.02	12558.83
600.217	12882.41
600.413	12720.62
600.609	12392.94
600.806	12347.89
601.002	12503.53
601.198	12218.86
601.395	12399.09
601.591	12313.07
601.787	12431.85
601.984	12216.82
602.18	12347.89
602.376	12245.49
602.572	12171.76
602.769	12155.38
602.965	12122.61
603.161	12102.13
603.357	11860.47
603.553	11899.38
603.75	11983.35
603.946	11839.99
604.142	11936.24
604.338	11575.8
604.534	11854.33
604.73	11733.5
604.926	11637.24
605.122	11733.5
605.318	11518.46
605.514	11565.56
605.71	11452.92
605.906	11256.32
606.102	11426.3
606.298	11260.41
606.494	11203.07
606.69	11106.82
606.886	11182.59
607.082	11123.2
607.278	11047.43
607.474	10928.64
607.67	11049.47
607.866	10947.08
608.062	11227.65
608.257	11051.52
608.453	11061.76
608.649	10842.63
608.845	10762.76
609.041	10668.55
609.236	10805.77
609.432	10758.66
609.628	10750.47
609.824	10625.54
610.019	10768.9
610.215	10465.8
610.411	10433.04
610.606	10254.86
610.802	10486.28
610.998	10521.1
611.193	10271.25
611.389	10197.52
611.584	10279.44
611.78	10234.38
611.976	10392.08
612.171	10234.38
612.367	10220.05
612.562	10207.76
612.758	9857.56
612.953	9957.91
613.149	10045.97
613.344	10005.01
613.539	10140.18
613.735	10140.18
613.93	9830.93
614.126	9832.98
614.321	9734.68
614.517	9843.22
614.712	9671.19
614.907	9671.19
615.103	9714.2
615.298	9599.51
615.493	9728.53
615.688	9460.25
615.884	9558.55
616.079	9523.74
616.274	9478.68
616.47	9382.43
616.665	9171.49
616.86	9540.12
617.055	9345.56
617.25	9222.69
617.445	9458.2
617.641	9273.89
617.836	9277.98
618.031	9196.06
618.226	9259.55
618.421	8841.76
618.616	9296.41
618.811	8833.57
619.006	9067.04
619.201	8989.22
619.396	8704.55
619.591	8643.11
619.786	8727.08
619.981	8671.78
620.176	8788.52
620.371	8550.95
620.566	8598.06
620.761	8612.39
620.956	8532.52
621.151	8419.88
621.346	8483.37
621.541	8299.05
621.735	8483.37
621.93	8057.39
622.125	8360.49
622.32	8200.75
622.515	8297
622.709	7954.99
622.904	8063.54
623.099	8165.93
623.294	8038.96
623.488	7903.79
623.683	7961.14
623.878	7766.58
624.072	7952.95
624.267	7770.68
624.462	7647.8
624.656	7782.96
624.851	7522.87
625.046	7619.13
625.24	7529.02
625.435	7387.71
625.629	7330.36
625.824	7457.34
626.018	7514.68
626.213	7381.56
626.407	7412.28
626.602	7103.04
626.796	7129.66
626.991	7248.44
627.185	7250.49
627.38	7117.37
627.574	6912.58
627.768	6947.39
627.963	6963.78
628.157	6871.62
628.352	6808.13
628.546	6922.82
628.74	6787.65
628.935	6775.36
629.129	6785.6
629.323	6814.27
629.517	6746.69
629.712	6896.19
629.906	6654.53
630.1	6443.59
630.294	6507.08
630.489	6668.87
630.683	6543.94
630.877	6494.79
631.071	6367.82
631.265	6394.44
631.459	6216.27
631.653	6273.61
631.848	6302.28
632.042	6236.75
632.236	6330.95
632.43	6013.52
632.624	6234.7
632.818	6271.56
633.012	6079.05
633.206	6070.86
633.4	6034
633.594	6097.49
633.788	6099.53
633.982	5878.35
634.176	5843.54
634.369	5921.36
634.563	5915.22
634.757	5909.07
634.951	5866.07
635.145	5857.87
635.339	5821.01
635.533	5732.95
635.726	5546.58
635.92	5735
636.114	5544.53
636.308	5683.8
636.501	5685.84
636.695	5384.79
636.889	5732.95
637.083	5399.13
637.276	5489.24
637.47	5446.23
637.664	5327.45
637.857	5419.61
638.051	5358.17
638.244	5257.82
638.438	5489.24
638.632	5257.82
638.825	5280.35
639.019	5120.6
639.212	5048.93
639.406	5349.98
639.599	5091.93
639.793	5079.65
639.986	5061.21
640.18	5116.51
640.373	5032.54
640.567	4958.81
640.76	5083.74
640.954	4907.62
641.147	4852.32
641.34	4864.61
641.534	4899.42
641.727	4784.74
641.92	4737.63
642.114	4668
642.307	4745.83
642.5	4758.11
642.694	4596.32
642.887	4610.66
643.08	4790.88
643.273	4592.23
643.467	4575.84
643.66	4467.3
643.853	4522.6
644.046	4430.44
644.239	4416.1
644.432	4369
644.626	4401.77
644.819	4252.27
645.012	4276.84
645.205	4416.1
645.398	4342.38
645.591	4178.54
645.784	4037.23
645.977	4129.39
646.17	4211.31
646.363	4090.48
646.556	3986.03
646.749	3994.22
646.942	4049.52
647.135	3967.6
647.328	4000.37
647.521	3857.01
647.714	3877.49
647.907	3996.27
648.099	3854.96
648.292	3783.28
648.485	3727.99
648.678	3621.49
648.871	3781.23
649.064	3662.45
649.256	3654.26
649.449	3678.83
649.642	3637.88
649.835	3410.55
650.027	3529.33
650.22	3545.72
650.413	3510.9
650.605	3492.47
650.798	3439.22
650.991	3484.28
651.183	3506.81
651.376	3447.41
651.568	3406.45
651.761	3494.52
651.954	3287.67
652.146	3312.25
652.339	3308.15
652.531	3232.38
652.724	3359.35
652.916	3170.94
653.109	3146.36
653.301	3162.75
653.494	3193.47
653.686	3058.3
653.879	3127.93
654.071	3070.59
654.263	3060.35
654.456	3021.44
654.648	3046.01
654.84	2964.09
655.033	2984.57
655.225	3056.25
655.417	2968.19
655.61	2955.9
655.802	2945.66
655.994	2794.11
656.186	2921.09
656.379	2865.79
656.571	2740.86
656.763	2800.26
656.955	2744.96
657.148	2695.81
657.34	2665.09
657.532	2669.19
657.724	2671.23
657.916	2849.41
658.108	2577.03
658.3	2572.93
658.492	2517.64
658.684	2499.2
658.876	2546.31
659.068	2409.09
659.26	2435.72
659.452	2407.05
659.644	2525.83
659.836	2431.62
660.028	2361.99
660.22	2411.14
660.412	2396.81
660.604	2359.94
660.796	2415.24
660.988	2325.13
661.18	2439.81
661.372	2269.83
661.563	2192.01
661.755	2308.74
661.947	2337.41
662.139	2220.68
662.331	2208.39
662.522	2232.97
662.714	2189.96
662.906	2058.89
663.097	2165.39
663.289	2077.32
663.481	2099.85
663.673	2036.36
663.864	2079.37
664.056	1983.12
664.247	2034.32
664.439	2062.99
664.631	2042.51
664.822	2146.95
665.014	1817.23
665.205	1956.49
665.397	1852.05
665.588	1809.04
665.78	1925.77
665.971	1876.62
666.163	1761.94
666.354	1915.53
666.546	1806.99
666.737	1882.77
666.929	1919.63
667.12	1833.61
667.311	1800.85
667.503	1673.87
667.694	1768.08
667.885	1741.46
668.077	1790.61
668.268	1741.46
668.459	1665.68
668.651	1690.26
668.842	1637.01
669.033	1841.81
669.224	1770.13
669.416	1698.45
669.607	1692.3
669.798	1579.67
669.989	1755.79
670.18	1579.67
670.371	1536.66
670.563	1686.16
670.754	1700.5
670.945	1698.45
671.136	1661.59
671.327	1612.43
671.518	1688.21
671.709	1718.93
671.9	1596.05
672.091	1710.74
672.282	1624.72
672.473	1501.84
672.664	1512.08
672.855	1550.99
673.046	1464.98
673.237	1524.37
673.428	1540.76
673.619	1444.5
673.809	1510.04
674	1415.83
674.191	1514.13
674.382	1581.71
674.573	1548.95
674.764	1497.75
674.954	1553.04
675.145	1493.65
675.336	1432.21
675.527	1424.02
675.717	1446.55
675.908	1415.83
676.099	1499.8
676.289	1495.7
676.48	1424.02
676.671	1473.17
676.861	1446.55
677.052	1385.11
677.243	1419.92
677.433	1366.68
677.624	1399.45
677.814	1385.11
678.005	1424.02
678.195	1475.22
678.386	1385.11
678.576	1409.69
678.767	1366.68
678.957	1383.06
679.148	1434.26
679.338	1383.06
679.529	1456.79
679.719	1432.21
679.909	1366.68
680.1	1514.13
680.29	1403.54
680.481	1448.6
680.671	1331.86
680.861	1381.01
681.052	1311.38
681.242	1303.19
681.432	1454.74
681.622	1360.53
681.813	1432.21
682.003	1385.11
682.193	1370.77
682.383	1331.86
682.573	1419.92
682.764	1409.69
682.954	1313.43
683.144	1338.01
683.334	1348.25
683.524	1395.35
683.714	1391.25
683.904	1483.41
684.094	1374.87
684.284	1444.5
684.474	1440.4
684.664	1362.58
684.854	1362.58
685.044	1383.06
685.234	1452.69
685.424	1401.49
685.614	1434.26
685.804	1383.06
685.994	1405.59
686.184	1434.26
686.374	1411.73
686.564	1456.79
686.753	1444.5
686.943	1444.5
687.133	1473.17
687.323	1301.14
687.513	1485.46
687.702	1415.83
687.892	1419.92
688.082	1383.06
688.272	1397.4
688.461	1366.68
688.651	1354.39
688.841	1444.5
689.03	1378.97
689.22	1415.83
689.41	1415.83
689.599	1460.88
689.789	1321.62
689.979	1524.37
690.168	1383.06
690.358	1442.45
690.547	1407.64
690.737	1458.84
690.926	1409.69
691.116	1411.73
691.305	1454.74
691.495	1530.52
691.684	1481.36
691.874	1526.42
692.063	1473.17
692.252	1548.95
692.442	1467.03
692.631	1395.35
692.82	1469.08
693.01	1376.92
693.199	1436.31
693.388	1446.55
693.578	1483.41
693.767	1479.32
693.956	1540.76
694.146	1538.71
694.335	1483.41
694.524	1530.52
694.713	1524.37
694.902	1464.98
695.092	1596.05
695.281	1438.36
695.47	1462.93
695.659	1557.14
695.848	1532.56
696.037	1555.09
696.226	1596.05
696.415	1567.38
696.604	1583.76
696.793	1546.9
696.982	1548.95
697.171	1575.57
697.36	1612.43
697.549	1550.99
697.738	1610.39
697.927	1571.47
698.116	1524.37
698.305	1616.53
698.494	1540.76
698.683	1589.91
698.872	1600.15
699.061	1548.95
699.25	1612.43
699.438	1522.32
699.627	1555.09
699.816	1477.27
700.005	1600.15
700.193	1448.6
700.382	1520.28
700.571	1563.28
700.76	1671.83
700.948	1608.34
701.137	1575.57
701.326	1575.57
701.514	1594
701.703	1514.13
701.892	1591.95
702.08	1620.63
702.269	1571.47
702.457	1536.66
702.646	1587.86
702.834	1561.23
703.023	1548.95
703.212	1557.14
703.4	1581.71
703.589	1456.79
703.777	1538.71
703.965	1516.18
704.154	1589.91
704.342	1663.63
704.531	1608.34
704.719	1530.52
704.907	1487.51
705.096	1403.54
705.284	1452.69
705.472	1602.19
705.661	1542.8
705.849	1485.46
706.037	1573.52
706.226	1604.24
706.414	1503.89
706.602	1532.56
706.79	1481.36
706.979	1475.22
707.167	1407.64
707.355	1446.55
707.543	1446.55
707.731	1426.07
707.919	1393.3
708.107	1503.89
708.296	1335.96
708.484	1415.83
708.672	1501.84
708.86	1350.29
709.048	1428.12
709.236	1387.16
709.424	1389.21
709.612	1401.49
709.8	1417.88
709.988	1358.49
710.176	1393.3
710.364	1376.92
710.551	1426.07
710.739	1403.54
710.927	1333.91
711.115	1378.97
711.303	1446.55
711.491	1395.35
711.679	1389.21
711.866	1387.16
712.054	1391.25
712.242	1385.11
712.43	1350.29
712.617	1329.81
712.805	1368.73
712.993	1325.72
713.181	1303.19
713.368	1309.33
713.556	1319.57
713.744	1309.33
713.931	1378.97
714.119	1192.6
714.306	1342.1
714.494	1309.33
714.682	1186.46
714.869	1192.6
715.057	1251.99
715.244	1272.47
715.432	1280.66
715.619	1270.42
715.807	1288.85
715.994	1317.53
716.182	1202.84
716.369	1182.36
716.556	1239.7
716.744	1278.62
716.931	1147.55
717.119	1200.79
717.306	1233.56
717.493	1145.5
717.681	1213.08
717.868	1217.18
718.055	1243.8
718.242	1223.32
718.43	1112.73
718.617	1264.28
718.804	1213.08
718.991	1114.78
719.179	1208.98
719.366	1200.79
719.553	1092.25
719.74	1141.4
719.927	1143.45
720.114	1139.35
720.301	1120.92
720.488	1122.97
720.676	1034.91
720.863	1206.94
721.05	1116.83
721.237	1127.07
721.424	1190.55
721.611	1133.21
721.798	1098.39
721.985	1116.83
722.172	985.76
722.358	1018.52
722.545	1161.88
722.732	1102.49
722.919	1059.48
723.106	1100.44
723.293	1118.87
723.48	1004.19
723.667	973.47
723.853	1016.48
724.04	989.85
724.227	993.95
724.414	938.65
724.6	1024.67
724.787	1061.53
724.974	996
725.161	924.32
725.347	1026.71
725.534	1036.95
725.72	1002.14
725.907	975.52
726.094	1024.67
726.28	1002.14
726.467	1016.48
726.653	957.08
726.84	905.88
727.027	1073.82
727.213	1043.1
727.4	989.85
727.586	1006.24
727.773	883.36
727.959	1016.48
728.145	963.23
728.332	952.99
728.518	903.84
728.705	920.22
728.891	928.41
729.077	965.28
729.264	862.88
729.45	879.26
729.636	893.6
729.823	946.84
730.009	903.84
730.195	877.21
730.382	866.97
730.568	922.27
730.754	907.93
730.94	926.36
731.126	883.36
731.313	846.49
731.499	846.49
731.685	924.32
731.871	905.88
732.057	836.25
732.243	866.97
732.429	912.03
732.615	936.6
732.801	916.12
732.987	873.12
733.173	926.36
733.359	901.79
733.545	869.02
733.731	770.72
733.917	897.69
734.103	842.4
734.289	866.97
734.475	905.88
734.661	864.93
734.847	768.67
735.033	893.6
735.219	834.21
735.404	838.3
735.59	817.82
735.776	766.62
735.962	770.72
736.148	785.05
736.333	793.25
736.519	823.97
736.705	805.53
736.89	754.34
737.076	727.71
737.262	742.05
737.447	819.87
737.633	764.58
737.819	819.87
738.004	807.58
738.19	711.33
738.375	848.54
738.561	862.88
738.747	811.68
738.932	686.75
739.118	746.14
739.303	735.9
739.489	713.38
739.674	789.15
739.859	705.18
740.045	711.33
740.23	754.34
740.416	717.47
740.601	717.47
740.786	692.9
740.972	713.38
741.157	750.24
741.342	678.56
741.528	690.85
741.713	694.94
741.898	719.52
742.084	664.22
742.269	727.71
742.454	645.79
742.639	696.99
742.824	608.93
743.01	576.16
743.195	709.28
743.38	672.42
743.565	633.5
743.75	719.52
743.935	635.55
744.12	615.07
744.305	682.66
744.49	631.46
744.675	635.55
744.86	608.93
745.045	625.31
745.23	647.84
745.415	645.79
745.6	719.52
745.785	694.94
745.97	596.64
746.155	635.55
746.34	584.35
746.525	549.54
746.71	662.18
746.895	582.31
747.079	522.91
747.264	594.59
747.449	662.18
747.634	555.68
747.819	547.49
748.003	506.53
748.188	535.2
748.373	707.23
748.557	565.92
748.742	617.12
748.927	649.89
749.111	563.87
749.296	604.83
749.481	529.06
749.665	551.59
749.85	506.53
750.034	514.72
750.219	578.21
750.404	567.97
750.588	535.2
750.773	484
750.957	512.67
751.141	522.91
751.326	533.15
751.51	539.3
751.695	592.55
751.879	557.73
752.064	547.49
752.248	510.63
752.432	492.2
752.617	475.81
752.801	514.72
752.985	506.53
753.17	498.34
753.354	516.77
753.538	430.76
753.722	449.19
753.907	504.48
754.091	533.15
754.275	494.24
754.459	481.96
754.643	465.57
754.828	445.09
755.012	455.33
755.196	535.2
755.38	467.62
755.564	418.47
755.748	352.93
755.932	408.23
756.116	475.81
756.3	484
756.484	389.8
756.668	484
756.852	441
757.036	369.32
757.22	383.65
757.404	481.96
757.588	408.23
757.772	443.04
757.956	484
758.14	465.57
758.323	424.61
758.507	404.13
758.691	397.99
758.875	379.56
759.059	406.18
759.242	371.37
759.426	348.84
759.61	299.69
759.794	352.93
759.977	324.26
760.161	416.42
760.345	359.08
760.528	428.71
760.712	348.84
760.895	408.23
761.079	357.03
761.263	434.85
761.446	314.02
761.63	381.6
761.813	332.45
761.997	348.84
762.18	354.98
762.364	410.28
762.547	240.29
762.731	418.47
762.914	404.13
763.098	363.17
763.281	352.93
763.464	365.22
763.648	254.63
763.831	451.24
764.015	307.88
764.198	414.37
764.381	379.56
764.564	352.93
764.748	402.08
764.931	314.02
765.114	326.31
765.297	332.45
765.481	262.82
765.664	311.97
765.847	400.04
766.03	320.17
766.213	285.35
766.397	303.78
766.58	320.17
766.763	314.02
766.946	301.73
767.129	289.45
767.312	277.16
767.495	344.74
767.678	238.25
767.861	361.13
768.044	402.08
768.227	344.74
768.41	303.78
768.593	397.99
768.776	330.41
768.959	275.11
769.142	287.4
769.324	350.89
769.507	397.99
769.69	336.55
769.873	338.6
770.056	383.65
770.239	309.93
770.421	369.32
770.604	336.55
770.787	283.3
770.97	324.26
771.152	254.63
771.335	230.06
771.518	262.82
771.7	223.91
771.883	346.79
772.066	246.44
772.248	318.12
772.431	264.87
772.613	303.78
772.796	219.82
772.978	289.45
773.161	322.21
773.343	279.21
773.526	264.87
773.708	215.72
773.891	256.68
774.073	285.35
774.256	311.97
774.438	291.49
774.621	246.44
774.803	219.82
774.985	213.67
775.168	258.73
775.35	297.64
775.532	219.82
775.715	281.25
775.897	275.11
776.079	240.29
776.261	297.64
776.444	277.16
776.626	234.15
776.808	228.01
776.99	314.02
777.173	199.34
777.355	178.86
777.537	275.11
777.719	189.1
777.901	232.1
778.083	189.1
778.265	209.58
778.447	324.26
778.629	238.25
778.811	252.58
778.993	303.78
779.175	215.72
779.357	174.76
779.539	238.25
779.721	191.14
779.903	221.86
780.085	297.64
780.267	230.06
780.449	277.16
780.631	189.1
780.812	193.19
780.994	287.4
781.176	221.86
781.358	230.06
781.54	131.75
781.721	144.04
781.903	101.03
782.085	260.77
782.267	172.71
782.448	211.62
782.63	170.66
782.812	199.34
782.993	223.91
783.175	211.62
783.357	162.47
783.538	166.57
783.72	162.47
783.901	180.9
784.083	209.58
784.264	219.82
784.446	152.23
784.627	197.29
784.809	111.27
784.99	131.75
785.172	154.28
785.353	174.76
785.535	199.34
785.716	133.8
785.897	76.46
786.079	217.77
786.26	156.33
786.441	205.48
786.623	176.81
786.804	133.8
786.985	103.08
787.167	137.9
787.348	133.8
787.529	139.94
787.71	80.55
787.891	109.22
788.073	166.57
788.254	84.65
788.435	58.03
788.616	189.1
788.797	131.75
788.978	129.7
789.159	113.32
789.34	160.42
789.522	111.27
789.703	107.18
789.884	107.18
790.065	51.88
790.246	121.51
790.427	141.99
790.607	139.94
790.788	105.13
790.969	189.1
791.15	195.24
791.331	68.27
791.512	107.18
791.693	123.56
791.874	80.55
792.054	98.99
792.235	107.18
792.416	82.6
792.597	117.42
792.778	90.79
792.958	144.04
793.139	146.09
793.32	101.03
793.5	49.83
793.681	107.18
793.862	172.71
794.042	166.57
794.223	86.7
794.404	94.89
794.584	-3.41
794.765	166.57
794.945	107.18
795.126	119.46
795.306	158.38
795.487	180.9
795.667	146.09
795.848	76.46
796.028	84.65
796.209	76.46
796.389	47.79
796.57	148.14
796.75	51.88
796.93	64.17
797.111	123.56
797.291	53.93
797.471	88.75
797.652	88.75
797.832	88.75
798.012	178.86
798.192	74.41
798.373	74.41
798.553	80.55
798.733	96.94
798.913	43.69
799.093	156.33
799.274	76.46
799.454	131.75
799.634	8.87
799.814	174.76
799.994	111.27
800.174	121.51
800.354	156.33
800.534	-9.56
800.714	101.03
800.894	154.28
801.074	-27.99
801.254	133.8
801.434	125.61
801.614	133.8
801.794	51.88
801.974	363.17
802.154	37.55
802.334	131.75
802.514	76.46
802.693	98.99
802.873	74.41
803.053	64.17
803.233	90.79
803.413	191.14
803.592	115.37
803.772	74.41
803.952	94.89
804.131	23.21
804.311	92.84
804.491	92.84
804.67	64.17
804.85	90.79
805.03	156.33
805.209	51.88
805.389	107.18
805.568	84.65
805.748	82.6
805.928	86.7
806.107	123.56
806.287	96.94
806.466	39.59
806.646	-25.94
806.825	82.6
807.004	90.79
807.184	113.32
807.363	23.21
807.543	119.46
807.722	125.61
807.901	86.7
808.081	117.42
808.26	47.79
808.439	68.27
808.619	76.46
808.798	31.4
808.977	31.4
809.156	88.75
809.336	72.36
809.515	96.94
809.694	51.88
809.873	29.35
810.052	15.02
810.231	135.85
810.411	92.84
810.59	92.84
810.769	139.94
810.948	117.42
811.127	103.08
811.306	19.11
811.485	55.98
811.664	60.07
811.843	92.84
812.022	94.89
812.201	90.79
812.38	45.74
812.559	66.22
812.737	33.45
812.916	88.75
813.095	31.4
813.274	39.59
813.453	64.17
813.632	84.65
813.811	39.59
813.989	90.79
814.168	107.18
814.347	53.93
814.526	76.46
814.704	-1.37
814.883	107.18
815.062	43.69
815.24	15.02
815.419	-11.61
815.598	49.83
815.776	-7.51
815.955	101.03
816.133	-11.61
816.312	49.83
816.49	53.93
816.669	68.27
816.847	80.55
817.026	37.55
817.204	96.94
817.383	45.74
817.561	39.59
817.74	58.03
817.918	41.64
818.097	146.09
818.275	47.79
818.453	92.84
818.632	133.8
818.81	23.21
818.988	31.4
819.167	19.11
819.345	53.93
819.523	80.55
819.701	15.02
819.879	127.66
820.058	43.69
820.236	35.5
820.414	58.03
820.592	17.07
820.77	39.59
820.948	58.03
821.127	41.64
821.305	109.22
821.483	-15.7
821.661	35.5
821.839	117.42
822.017	21.16
822.195	96.94
822.373	6.83
822.551	-5.46
822.729	23.21
822.907	45.74
823.085	15.02
823.262	-19.8
823.44	53.93
823.618	-23.89
823.796	15.02
823.974	-21.85
824.152	6.83
824.329	43.69
824.507	15.02
824.685	55.98
824.863	82.6
825.04	49.83
825.218	90.79
825.396	51.88
825.574	55.98
825.751	72.36
825.929	60.07
826.107	19.11
826.284	39.59
826.462	62.12
826.639	66.22
826.817	-5.46
826.994	15.02
827.172	-3.41
827.349	80.55
827.527	62.12
827.704	105.13
827.882	-13.65
828.059	-11.61
828.237	-7.51
828.414	96.94
828.591	-9.56
828.769	55.98
828.946	4.78
829.124	55.98
829.301	-5.46
829.478	96.94
829.655	21.16
829.833	82.6
830.01	53.93
830.187	51.88
830.364	98.99
830.542	68.27
830.719	27.31
830.896	72.36
831.073	6.83
831.25	39.59
831.427	-17.75
831.604	55.98
831.782	33.45
831.959	4.78
832.136	51.88
832.313	33.45
832.49	47.79
832.667	47.79
832.844	15.02
833.021	19.11
833.198	-25.94
833.374	33.45
833.551	-1.37
833.728	-15.7
833.905	-30.04
834.082	4.78
834.259	90.79
834.436	72.36
834.612	162.47
834.789	25.26
834.966	15.02
835.143	2.73
835.319	-1.37
835.496	-34.13
835.673	101.03
835.85	-42.32
836.026	12.97
836.203	25.26
836.38	41.64
836.556	55.98
836.733	-5.46
836.909	35.5
837.086	101.03
837.262	53.93
837.439	35.5
837.616	27.31
837.792	-32.08
837.968	0.68
838.145	2.73
838.321	72.36
838.498	74.41
838.674	74.41
838.851	37.55
839.027	-50.52
839.203	0.68
839.38	31.4
839.556	49.83
839.732	60.07
839.909	29.35
840.085	31.4
840.261	17.07
840.437	19.11
840.614	43.69
840.79	37.55
840.966	33.45
841.142	53.93
841.318	51.88
841.494	25.26
841.671	76.46
841.847	70.31
842.023	33.45
842.199	27.31
842.375	31.4
842.551	-9.56
842.727	19.11
842.903	51.88
843.079	-34.13
843.255	8.87
843.431	39.59
843.607	55.98
843.783	86.7
843.959	68.27
844.134	74.41
844.31	31.4
844.486	109.22
844.662	39.59
844.838	37.55
845.013	37.55
845.189	17.07
845.365	78.51
845.541	-7.51
845.716	72.36
845.892	96.94
846.068	37.55
846.244	15.02
846.419	55.98
846.595	27.31
846.77	4.78
846.946	8.87
847.122	27.31
847.297	4.78
847.473	6.83
847.648	84.65
847.824	55.98
847.999	-71
848.175	15.02
848.35	33.45
848.526	105.13
848.701	4.78
848.876	19.11
849.052	-13.65
849.227	-25.94
849.403	4.78
849.578	92.84
849.753	-91.48
849.929	49.83
850.104	-34.13
850.279	39.59
850.454	-34.13
850.63	41.64
850.805	-34.13
850.98	49.83
851.155	-66.9
851.33	23.21
851.505	-30.04
851.681	-1.37
851.856	-40.28
852.031	15.02
852.206	39.59
852.381	47.79
852.556	-36.18
852.731	49.83
852.906	35.5
853.081	0.68
853.256	21.16
853.431	64.17
853.606	15.02
853.781	-3.41
853.956	31.4
854.131	-27.99
854.305	35.5
854.48	-9.56
854.655	-32.08
854.83	15.02
855.005	27.31
855.18	2.73
855.354	17.07
855.529	51.88
855.704	19.11
855.879	68.27
856.053	-1.37
856.228	2.73
856.403	-17.75
856.577	25.26
856.752	-17.75
856.926	82.6
857.101	-30.04
857.276	-54.61
857.45	43.69
857.625	47.79
857.799	64.17
857.974	15.02
858.148	17.07
858.323	29.35
858.497	80.55
858.672	25.26
858.846	-3.41
859.02	51.88
859.195	35.5
859.369	-50.52
859.543	-7.51
859.718	92.84
859.892	21.16
860.066	70.31
860.241	-21.85
860.415	-21.85
860.589	64.17
860.763	17.07
860.938	41.64
861.112	-38.23
861.286	29.35
861.46	8.87
861.634	25.26
861.808	72.36
861.982	-19.8
862.157	64.17
862.331	4.78
862.505	72.36
862.679	35.5
862.853	-17.75
863.027	39.59
863.201	58.03
863.375	-1.37
863.549	15.02
863.722	51.88
863.896	113.32
864.07	-11.61
864.244	19.11
864.418	-5.46
864.592	-17.75
864.766	62.12
864.939	23.21
865.113	-30.04
865.287	51.88
865.461	45.74
865.634	-77.14
865.808	-30.04
865.982	-3.41
866.156	10.92
866.329	-7.51
866.503	-1.37
866.676	-3.41
866.85	-1.37
867.024	-42.32
867.197	-32.08
867.371	43.69
867.544	15.02
867.718	37.55
867.891	23.21
868.065	-34.13
868.238	23.21
868.412	15.02
868.585	25.26
868.759	15.02
868.932	-34.13
869.105	43.69
869.279	76.46
869.452	64.17
869.625	-13.65
869.799	25.26
869.972	-42.32
870.145	51.88
870.319	29.35
870.492	-7.51
870.665	10.92
870.838	-13.65
871.011	41.64
871.185	45.74
871.358	123.56
871.531	49.83
871.704	-83.28
871.877	41.64
872.05	0.68
872.223	23.21
872.396	-34.13
872.569	33.45
872.742	2.73
872.915	-3.41
873.088	21.16
873.261	68.27
873.434	33.45
873.607	-15.7
873.78	60.07
873.953	-27.99
874.126	39.59
874.299	2.73
874.471	78.51
874.644	-38.23
874.817	-9.56
874.99	31.4
875.163	88.75
875.335	39.59
875.508	-3.41
875.681	39.59
875.853	-83.28
876.026	23.21
876.199	23.21
876.371	-21.85
876.544	4.78
876.717	6.83
876.889	19.11
877.062	88.75
877.234	-48.47
877.407	-32.08
877.579	-30.04
877.752	27.31
877.924	-34.13
878.097	-56.66
878.269	-1.37
878.442	-34.13
878.614	-11.61
878.786	-23.89
878.959	-5.46
879.131	82.6
879.303	10.92
879.476	2.73
879.648	88.75
879.82	-25.94
879.993	-54.61
880.165	23.21
880.337	43.69
880.509	33.45
880.681	41.64
880.854	25.26
881.026	10.92
881.198	62.12
881.37	-25.94
881.542	37.55
881.714	47.79
881.886	-30.04
882.058	19.11
882.23	82.6
882.402	19.11
882.574	37.55
882.746	-25.94
882.918	31.4
883.09	25.26
883.262	-17.75
883.434	37.55
883.606	4.78
883.778	23.21
883.95	80.55
884.122	-9.56
884.293	12.97
884.465	-25.94
884.637	80.55
884.809	-9.56
884.98	-11.61
885.152	76.46
885.324	37.55
885.496	41.64
885.667	47.79
885.839	76.46
886.011	47.79
886.182	-23.89
886.354	64.17
886.525	25.26
886.697	-5.46
886.869	17.07
887.04	15.02
887.212	31.4
887.383	-42.32
887.555	-1.37
887.726	-56.66
887.897	0.68
888.069	2.73
888.24	41.64
888.412	33.45
888.583	8.87
888.754	66.22
888.926	33.45
889.097	15.02
889.268	15.02
889.44	-58.71
889.611	-34.13
889.782	-50.52
889.953	-50.52
890.125	-5.46
890.296	-77.14
890.467	-62.8
890.638	-5.46
890.809	70.31
890.98	25.26
891.151	-42.32
891.323	-13.65
891.494	6.83
891.665	-19.8
891.836	19.11
892.007	35.5
892.178	31.4
892.349	-1.37
892.52	-9.56
892.691	-1.37
892.862	-17.75
893.032	-11.61
893.203	113.32
893.374	6.83
893.545	27.31
893.716	-1.37
893.887	39.59
894.057	-25.94
894.228	76.46
894.399	-38.23
894.57	19.11
894.74	-9.56
894.911	-15.7
895.082	27.31
895.253	0.68
895.423	-36.18
895.594	17.07
895.764	-23.89
895.935	29.35
896.106	78.51
896.276	60.07
896.447	15.02
896.617	19.11
896.788	-5.46
896.958	62.12
897.129	-11.61
897.299	-42.32
897.47	-17.75
897.64	4.78
897.81	-15.7
897.981	53.93
898.151	-79.19
898.322	33.45
898.492	10.92
898.662	-32.08
898.832	-32.08
899.003	-17.75
899.173	27.31
899.343	37.55
899.513	2.73
