Data from USB4F104151__144__13-58-16-315.txt Node

Date: Thu Mar 13 13:58:16 EDT 2025
User: louis
Spectrometer: USB4F10415
Trigger mode: 4
Integration Time (sec): 1.000000E-2
Scans to average: 1
Electric dark correction enabled: true
Nonlinearity correction enabled: false
Boxcar width: 0
XAxis mode: Wavelengths
Number of Pixels in Spectrum: 3648
>>>>>Begin Spectral Data<<<<<
178.204	-2.56
178.424	-2.56
178.644	-2.56
178.864	-2.56
179.084	69.12
179.304	1.54
179.524	-29.18
179.744	11.78
179.964	46.59
180.184	-25.09
180.404	19.97
180.624	15.87
180.844	-10.75
181.064	-12.8
181.283	-84.48
181.503	15.87
181.723	50.69
181.943	13.82
182.163	19.97
182.383	17.92
182.602	126.46
182.822	13.82
183.042	30.21
183.262	-51.71
183.482	83.45
183.701	60.93
183.921	-12.8
184.141	17.92
184.361	77.31
184.58	48.64
184.8	22.02
185.02	48.64
185.239	3.58
185.459	-2.56
185.679	-25.09
185.898	24.06
186.118	58.88
186.338	11.78
186.557	30.21
186.777	42.5
186.997	-27.14
187.216	50.69
187.436	79.36
187.655	58.88
187.875	87.55
188.095	22.02
188.314	24.06
188.534	-2.56
188.753	11.78
188.973	-2.56
189.192	60.93
189.412	-55.81
189.631	52.74
189.851	32.26
190.07	40.45
190.29	-20.99
190.509	13.82
190.729	-39.42
190.948	48.64
191.168	48.64
191.387	87.55
191.607	79.36
191.826	79.36
192.045	19.97
192.265	103.93
192.484	5.63
192.704	-10.75
192.923	36.35
193.142	87.55
193.362	-8.7
193.581	52.74
193.8	11.78
194.02	5.63
194.239	19.97
194.458	67.07
194.678	38.4
194.897	22.02
195.116	28.16
195.335	38.4
195.555	36.35
195.774	28.16
195.993	24.06
196.212	58.88
196.432	-23.04
196.651	42.5
196.87	17.92
197.089	42.5
197.308	97.79
197.528	24.06
197.747	81.41
197.966	17.92
198.185	69.12
198.404	-0.51
198.623	44.54
198.842	32.26
199.062	-64
199.281	62.98
199.5	65.02
199.719	36.35
199.938	34.3
200.157	-0.51
200.376	42.5
200.595	-33.28
200.814	22.02
201.033	-27.14
201.252	48.64
201.471	30.21
201.69	24.06
201.909	69.12
202.128	56.83
202.347	48.64
202.566	32.26
202.785	3.58
203.004	-61.95
203.223	108.03
203.442	-14.85
203.661	7.68
203.879	22.02
204.098	-0.51
204.317	7.68
204.536	30.21
204.755	97.79
204.974	71.17
205.193	-16.9
205.411	69.12
205.63	-45.57
205.849	9.73
206.068	34.3
206.287	-12.8
206.505	52.74
206.724	-2.56
206.943	5.63
207.162	42.5
207.381	58.88
207.599	95.74
207.818	-6.66
208.037	54.78
208.255	9.73
208.474	87.55
208.693	75.26
208.911	60.93
209.13	-18.94
209.349	7.68
209.567	22.02
209.786	62.98
210.005	3.58
210.223	62.98
210.442	44.54
210.661	97.79
210.879	-43.52
211.098	67.07
211.316	50.69
211.535	87.55
211.753	34.3
211.972	71.17
212.191	54.78
212.409	44.54
212.628	128.51
212.846	73.21
213.065	38.4
213.283	38.4
213.502	-20.99
213.72	-4.61
213.938	89.6
214.157	81.41
214.375	36.35
214.594	-0.51
214.812	38.4
215.031	65.02
215.249	30.21
215.467	99.84
215.686	114.17
215.904	30.21
216.122	40.45
216.341	13.82
216.559	-12.8
216.778	79.36
216.996	11.78
217.214	50.69
217.432	38.4
217.651	77.31
217.869	91.65
218.087	-4.61
218.306	30.21
218.524	13.82
218.742	15.87
218.96	38.4
219.179	56.83
219.397	81.41
219.615	95.74
219.833	77.31
220.051	50.69
220.27	67.07
220.488	60.93
220.706	-49.66
220.924	42.5
221.142	13.82
221.36	-14.85
221.578	30.21
221.796	22.02
222.015	89.6
222.233	11.78
222.451	46.59
222.669	26.11
222.887	44.54
223.105	-23.04
223.323	54.78
223.541	11.78
223.759	46.59
223.977	5.63
224.195	67.07
224.413	9.73
224.631	32.26
224.849	54.78
225.067	95.74
225.285	7.68
225.503	65.02
225.721	44.54
225.939	34.3
226.157	-51.71
226.375	40.45
226.592	-43.52
226.81	44.54
227.028	-10.75
227.246	46.59
227.464	-20.99
227.682	48.64
227.9	22.02
228.117	34.3
228.335	7.68
228.553	120.32
228.771	46.59
228.989	22.02
229.206	-12.8
229.424	-18.94
229.642	30.21
229.86	62.98
230.077	13.82
230.295	22.02
230.513	11.78
230.731	28.16
230.948	62.98
231.166	30.21
231.384	38.4
231.601	13.82
231.819	-41.47
232.037	36.35
232.254	-27.14
232.472	30.21
232.689	89.6
232.907	-20.99
233.125	19.97
233.342	101.89
233.56	28.16
233.777	89.6
233.995	67.07
234.213	62.98
234.43	34.3
234.648	52.74
234.865	-37.38
235.083	24.06
235.3	87.55
235.518	73.21
235.735	13.82
235.953	50.69
236.17	5.63
236.388	42.5
236.605	50.69
236.822	-18.94
237.04	24.06
237.257	65.02
237.475	-16.9
237.692	58.88
237.909	-31.23
238.127	11.78
238.344	38.4
238.562	7.68
238.779	11.78
238.996	42.5
239.214	26.11
239.431	62.98
239.648	-0.51
239.865	54.78
240.083	40.45
240.3	77.31
240.517	52.74
240.735	42.5
240.952	65.02
241.169	22.02
241.386	28.16
241.603	44.54
241.821	13.82
242.038	19.97
242.255	87.55
242.472	77.31
242.689	26.11
242.907	56.83
243.124	-2.56
243.341	22.02
243.558	-8.7
243.775	15.87
243.992	60.93
244.209	-18.94
244.426	105.98
244.643	58.88
244.86	46.59
245.078	24.06
245.295	62.98
245.512	-0.51
245.729	93.69
245.946	50.69
246.163	56.83
246.38	58.88
246.597	40.45
246.814	28.16
247.031	7.68
247.248	5.63
247.464	34.3
247.681	36.35
247.898	50.69
248.115	79.36
248.332	34.3
248.549	38.4
248.766	11.78
248.983	-0.51
249.2	87.55
249.417	46.59
249.633	19.97
249.85	36.35
250.067	-49.66
250.284	24.06
250.501	9.73
250.717	79.36
250.934	3.58
251.151	32.26
251.368	44.54
251.585	75.26
251.801	46.59
252.018	-2.56
252.235	-35.33
252.451	34.3
252.668	34.3
252.885	46.59
253.102	103.93
253.318	1.54
253.535	56.83
253.752	22.02
253.968	40.45
254.185	15.87
254.401	91.65
254.618	75.26
254.835	11.78
255.051	9.73
255.268	34.3
255.484	-14.85
255.701	17.92
255.917	69.12
256.134	91.65
256.351	42.5
256.567	67.07
256.784	50.69
257	11.78
257.217	7.68
257.433	30.21
257.65	32.26
257.866	65.02
258.082	93.69
258.299	114.17
258.515	48.64
258.732	-43.52
258.948	87.55
259.165	-18.94
259.381	52.74
259.597	81.41
259.814	93.69
260.03	38.4
260.246	26.11
260.463	28.16
260.679	38.4
260.895	1.54
261.112	22.02
261.328	71.17
261.544	42.5
261.761	56.83
261.977	-6.66
262.193	38.4
262.409	85.5
262.626	-10.75
262.842	22.02
263.058	-23.04
263.274	65.02
263.49	36.35
263.707	108.03
263.923	-35.33
264.139	19.97
264.355	67.07
264.571	81.41
264.787	48.64
265.004	69.12
265.22	-29.18
265.436	-10.75
265.652	38.4
265.868	-10.75
266.084	22.02
266.3	83.45
266.516	60.93
266.732	26.11
266.948	38.4
267.164	-8.7
267.38	48.64
267.596	83.45
267.812	81.41
268.028	124.41
268.244	54.78
268.46	105.98
268.676	9.73
268.892	52.74
269.108	46.59
269.324	85.5
269.54	44.54
269.756	83.45
269.972	-0.51
270.188	62.98
270.403	38.4
270.619	54.78
270.835	91.65
271.051	26.11
271.267	32.26
271.483	50.69
271.698	81.41
271.914	48.64
272.13	91.65
272.346	46.59
272.562	79.36
272.777	40.45
272.993	-12.8
273.209	56.83
273.425	65.02
273.64	48.64
273.856	26.11
274.072	62.98
274.287	62.98
274.503	7.68
274.719	13.82
274.934	108.03
275.15	40.45
275.366	44.54
275.581	-39.42
275.797	46.59
276.012	15.87
276.228	87.55
276.444	83.45
276.659	-10.75
276.875	11.78
277.09	-29.18
277.306	30.21
277.521	83.45
277.737	-37.38
277.952	22.02
278.168	58.88
278.383	50.69
278.599	42.5
278.814	54.78
279.03	50.69
279.245	79.36
279.461	-16.9
279.676	62.98
279.892	5.63
280.107	44.54
280.322	67.07
280.538	19.97
280.753	-0.51
280.969	7.68
281.184	17.92
281.399	13.82
281.615	32.26
281.83	54.78
282.045	34.3
282.26	32.26
282.476	65.02
282.691	118.27
282.906	65.02
283.122	89.6
283.337	56.83
283.552	56.83
283.767	30.21
283.983	58.88
284.198	48.64
284.413	9.73
284.628	-2.56
284.843	32.26
285.058	38.4
285.274	85.5
285.489	-18.94
285.704	56.83
285.919	32.26
286.134	67.07
286.349	58.88
286.564	-25.09
286.779	9.73
286.995	-14.85
287.21	-49.66
287.425	73.21
287.64	19.97
287.855	36.35
288.07	36.35
288.285	48.64
288.5	34.3
288.715	54.78
288.93	56.83
289.145	79.36
289.36	26.11
289.575	38.4
289.79	48.64
290.004	34.3
290.219	3.58
290.434	22.02
290.649	-31.23
290.864	58.88
291.079	17.92
291.294	91.65
291.509	26.11
291.724	83.45
291.938	11.78
292.153	56.83
292.368	-33.28
292.583	9.73
292.798	-12.8
293.012	83.45
293.227	69.12
293.442	26.11
293.657	1.54
293.871	83.45
294.086	34.3
294.301	22.02
294.516	11.78
294.73	97.79
294.945	71.17
295.16	38.4
295.374	48.64
295.589	-49.66
295.804	9.73
296.018	7.68
296.233	42.5
296.447	171.52
296.662	-2.56
296.877	71.17
297.091	112.13
297.306	15.87
297.52	13.82
297.735	24.06
297.949	30.21
298.164	71.17
298.378	26.11
298.593	73.21
298.807	46.59
299.022	-33.28
299.236	3.58
299.451	34.3
299.665	67.07
299.88	95.74
300.094	36.35
300.309	69.12
300.523	30.21
300.737	40.45
300.952	62.98
301.166	114.17
301.381	48.64
301.595	7.68
301.809	3.58
302.024	77.31
302.238	40.45
302.452	65.02
302.667	83.45
302.881	-33.28
303.095	71.17
303.309	50.69
303.524	42.5
303.738	62.98
303.952	67.07
304.166	75.26
304.381	42.5
304.595	112.13
304.809	1.54
305.023	38.4
305.237	34.3
305.452	62.98
305.666	19.97
305.88	101.89
306.094	28.16
306.308	87.55
306.522	1.54
306.736	56.83
306.95	5.63
307.164	-8.7
307.379	-12.8
307.593	105.98
307.807	42.5
308.021	81.41
308.235	46.59
308.449	56.83
308.663	58.88
308.877	93.69
309.091	69.12
309.305	34.3
309.519	-55.81
309.733	30.21
309.947	17.92
310.161	-0.51
310.374	71.17
310.588	-16.9
310.802	32.26
311.016	50.69
311.23	46.59
311.444	42.5
311.658	38.4
311.872	30.21
312.085	13.82
312.299	87.55
312.513	69.12
312.727	30.21
312.941	89.6
313.154	-8.7
313.368	-61.95
313.582	62.98
313.796	44.54
314.009	-0.51
314.223	71.17
314.437	54.78
314.651	38.4
314.864	87.55
315.078	48.64
315.292	1.54
315.505	-37.38
315.719	58.88
315.933	67.07
316.146	-27.14
316.36	1.54
316.573	30.21
316.787	26.11
317.001	38.4
317.214	-14.85
317.428	50.69
317.641	62.98
317.855	36.35
318.068	62.98
318.282	7.68
318.495	50.69
318.709	42.5
318.922	-39.42
319.136	42.5
319.349	26.11
319.563	44.54
319.776	13.82
319.99	60.93
320.203	48.64
320.417	34.3
320.63	65.02
320.843	50.69
321.057	5.63
321.27	30.21
321.483	30.21
321.697	-8.7
321.91	38.4
322.124	60.93
322.337	50.69
322.55	89.6
322.763	1.54
322.977	11.78
323.19	65.02
323.403	24.06
323.617	54.78
323.83	108.03
324.043	36.35
324.256	5.63
324.469	54.78
324.683	34.3
324.896	36.35
325.109	-6.66
325.322	3.58
325.535	24.06
325.748	60.93
325.962	38.4
326.175	-4.61
326.388	7.68
326.601	99.84
326.814	19.97
327.027	69.12
327.24	81.41
327.453	38.4
327.666	79.36
327.879	69.12
328.092	40.45
328.305	34.3
328.518	5.63
328.731	19.97
328.944	22.02
329.157	28.16
329.37	54.78
329.583	28.16
329.796	40.45
330.009	52.74
330.222	9.73
330.435	38.4
330.648	42.5
330.861	48.64
331.073	52.74
331.286	85.5
331.499	11.78
331.712	87.55
331.925	79.36
332.138	77.31
332.35	17.92
332.563	77.31
332.776	62.98
332.989	11.78
333.202	24.06
333.414	46.59
333.627	30.21
333.84	77.31
334.053	17.92
334.265	62.98
334.478	19.97
334.691	9.73
334.903	87.55
335.116	-47.62
335.329	38.4
335.541	136.7
335.754	79.36
335.966	79.36
336.179	83.45
336.392	40.45
336.604	50.69
336.817	11.78
337.029	79.36
337.242	69.12
337.454	56.83
337.667	-6.66
337.88	38.4
338.092	50.69
338.305	87.55
338.517	30.21
338.729	-0.51
338.942	34.3
339.154	-74.24
339.367	-33.28
339.579	114.17
339.792	42.5
340.004	95.74
340.217	50.69
340.429	30.21
340.641	19.97
340.854	9.73
341.066	9.73
341.278	-2.56
341.491	65.02
341.703	44.54
341.915	99.84
342.128	56.83
342.34	52.74
342.552	42.5
342.764	62.98
342.977	69.12
343.189	48.64
343.401	79.36
343.613	48.64
343.826	-0.51
344.038	99.84
344.25	44.54
344.462	-18.94
344.674	46.59
344.886	28.16
345.099	103.93
345.311	26.11
345.523	22.02
345.735	28.16
345.947	19.97
346.159	60.93
346.371	7.68
346.583	71.17
346.795	60.93
347.007	15.87
347.219	28.16
347.431	46.59
347.643	30.21
347.855	65.02
348.067	56.83
348.279	32.26
348.491	22.02
348.703	73.21
348.915	50.69
349.127	36.35
349.339	56.83
349.551	1.54
349.763	67.07
349.975	26.11
350.187	15.87
350.399	-0.51
350.61	85.5
350.822	24.06
351.034	87.55
351.246	40.45
351.458	28.16
351.669	-12.8
351.881	81.41
352.093	28.16
352.305	65.02
352.517	46.59
352.728	87.55
352.94	34.3
353.152	97.79
353.363	7.68
353.575	62.98
353.787	69.12
353.999	5.63
354.21	-4.61
354.422	69.12
354.633	-29.18
354.845	73.21
355.057	13.82
355.268	19.97
355.48	99.84
355.692	44.54
355.903	22.02
356.115	38.4
356.326	-4.61
356.538	26.11
356.749	26.11
356.961	56.83
357.172	-2.56
357.384	28.16
357.595	24.06
357.807	62.98
358.018	-2.56
358.23	48.64
358.441	116.22
358.653	-6.66
358.864	48.64
359.075	-23.04
359.287	56.83
359.498	99.84
359.709	103.93
359.921	15.87
360.132	-0.51
360.344	48.64
360.555	15.87
360.766	81.41
360.977	69.12
361.189	-0.51
361.4	13.82
361.611	36.35
361.823	9.73
362.034	32.26
362.245	-6.66
362.456	34.3
362.667	40.45
362.879	128.51
363.09	32.26
363.301	91.65
363.512	15.87
363.723	17.92
363.935	36.35
364.146	185.85
364.357	-23.04
364.568	99.84
364.779	17.92
364.99	124.41
365.201	-16.9
365.412	134.65
365.623	-8.7
365.834	-23.04
366.045	62.98
366.256	65.02
366.467	79.36
366.678	73.21
366.889	58.88
367.1	-16.9
367.311	83.45
367.522	65.02
367.733	13.82
367.944	62.98
368.155	79.36
368.366	87.55
368.577	56.83
368.788	11.78
368.999	-0.51
369.209	-2.56
369.42	81.41
369.631	71.17
369.842	58.88
370.053	60.93
370.264	36.35
370.474	17.92
370.685	83.45
370.896	-16.9
371.107	87.55
371.317	-2.56
371.528	62.98
371.739	79.36
371.95	54.78
372.16	103.93
372.371	-25.09
372.582	62.98
372.792	9.73
373.003	67.07
373.214	60.93
373.424	67.07
373.635	83.45
373.846	79.36
374.056	97.79
374.267	58.88
374.477	-4.61
374.688	22.02
374.898	-18.94
375.109	52.74
375.319	32.26
375.53	58.88
375.74	46.59
375.951	65.02
376.161	93.69
376.372	93.69
376.582	38.4
376.793	116.22
377.003	38.4
377.214	22.02
377.424	42.5
377.635	46.59
377.845	19.97
378.055	30.21
378.266	1.54
378.476	54.78
378.686	85.5
378.897	-0.51
379.107	28.16
379.317	32.26
379.528	83.45
379.738	62.98
379.948	54.78
380.158	87.55
380.369	83.45
380.579	19.97
380.789	48.64
380.999	30.21
381.21	17.92
381.42	46.59
381.63	85.5
381.84	89.6
382.05	28.16
382.261	46.59
382.471	126.46
382.681	103.93
382.891	71.17
383.101	95.74
383.311	89.6
383.521	56.83
383.731	22.02
383.941	91.65
384.151	17.92
384.361	95.74
384.571	62.98
384.781	167.42
384.991	56.83
385.201	89.6
385.411	62.98
385.621	24.06
385.831	50.69
386.041	75.26
386.251	5.63
386.461	97.79
386.671	26.11
386.881	89.6
387.091	75.26
387.301	128.51
387.511	-0.51
387.72	15.87
387.93	48.64
388.14	22.02
388.35	38.4
388.56	75.26
388.769	112.13
388.979	46.59
389.189	28.16
389.399	30.21
389.609	-23.04
389.818	52.74
390.028	34.3
390.238	56.83
390.447	60.93
390.657	103.93
390.867	15.87
391.076	48.64
391.286	69.12
391.496	-0.51
391.705	-10.75
391.915	50.69
392.125	36.35
392.334	79.36
392.544	87.55
392.753	30.21
392.963	130.56
393.172	116.22
393.382	46.59
393.591	32.26
393.801	138.75
394.01	48.64
394.22	83.45
394.429	-0.51
394.639	44.54
394.848	79.36
395.058	48.64
395.267	89.6
395.477	114.17
395.686	81.41
395.895	13.82
396.105	58.88
396.314	120.32
396.524	73.21
396.733	85.5
396.942	91.65
397.152	89.6
397.361	75.26
397.57	81.41
397.78	124.41
397.989	99.84
398.198	165.37
398.407	5.63
398.617	105.98
398.826	118.27
399.035	142.85
399.244	65.02
399.453	26.11
399.663	22.02
399.872	58.88
400.081	105.98
400.29	128.51
400.499	118.27
400.708	89.6
400.917	62.98
401.127	-4.61
401.336	169.47
401.545	120.32
401.754	36.35
401.963	79.36
402.172	5.63
402.381	148.99
402.59	46.59
402.799	91.65
403.008	142.85
403.217	153.09
403.426	103.93
403.635	153.09
403.844	134.65
404.053	89.6
404.262	99.84
404.471	95.74
404.68	83.45
404.888	105.98
405.097	185.85
405.306	187.9
405.515	103.93
405.724	101.89
405.933	81.41
406.142	91.65
406.35	159.23
406.559	185.85
406.768	206.33
406.977	73.21
407.185	97.79
407.394	200.19
407.603	249.34
407.812	157.18
408.02	151.04
408.229	212.48
408.438	214.52
408.646	189.95
408.855	196.09
409.064	165.37
409.272	181.76
409.481	214.52
409.69	257.53
409.898	206.33
410.107	237.05
410.315	265.72
410.524	253.44
410.733	302.59
410.941	265.72
411.15	290.3
411.358	284.16
411.567	333.31
411.775	361.98
411.984	241.15
412.192	318.97
412.401	177.66
412.609	300.54
412.818	386.55
413.026	359.93
413.234	400.89
413.443	413.18
413.651	425.47
413.86	349.69
414.068	431.61
414.276	400.89
414.485	439.8
414.693	476.66
414.901	466.42
415.11	542.2
415.318	450.04
415.526	437.75
415.734	521.72
415.943	546.3
416.151	597.49
416.359	591.35
416.567	667.13
416.776	622.07
416.984	615.93
417.192	593.4
417.4	665.08
417.608	691.7
417.817	687.61
418.025	720.37
418.233	787.96
418.441	773.62
418.649	820.72
418.857	892.4
419.065	906.74
419.273	873.97
419.481	921.07
419.689	990.7
419.897	1002.99
420.105	998.9
420.313	1064.43
420.521	1076.72
420.729	1013.23
420.937	1228.27
421.145	1250.8
421.353	1230.32
421.561	1297.9
421.769	1308.14
421.977	1410.54
422.185	1267.18
422.393	1457.64
422.601	1498.6
422.809	1482.22
423.017	1541.61
423.224	1584.62
423.432	1697.25
423.64	1732.07
423.848	1824.23
424.056	1768.93
424.263	1875.43
424.471	1922.53
424.679	1973.73
424.887	2162.14
425.094	2061.79
425.302	2160.1
425.51	2190.81
425.718	2242.01
425.925	2233.82
426.133	2274.78
426.341	2424.28
426.548	2635.22
426.756	2602.46
426.964	2684.38
427.171	2762.2
427.379	2823.64
427.586	2901.46
427.794	2979.28
428.001	2979.28
428.209	3341.77
428.417	3216.85
428.624	3483.08
428.832	3487.18
429.039	3388.88
429.247	3401.16
429.454	3798.47
429.662	3788.23
429.869	3757.51
430.076	4003.27
430.284	3739.08
430.491	4132.29
430.699	4294.08
430.906	4306.37
431.114	4132.29
431.321	4482.49
431.528	4507.07
431.736	4699.58
431.943	5021.11
432.15	4922.8
432.358	5074.35
432.565	5170.61
432.772	5199.28
432.979	5539.24
433.187	5641.64
433.394	5582.25
433.601	5975.46
433.808	6178.21
434.016	5811.62
434.223	6114.72
434.43	6532.51
434.637	6550.94
434.844	6657.43
435.052	6995.35
435.259	6981.01
435.466	7050.64
435.673	6927.77
435.88	7531.92
436.087	7886.22
436.294	7923.08
436.501	7423.37
436.708	7779.72
436.915	8080.77
437.122	8439.17
437.329	8250.75
437.537	8498.56
437.743	8746.36
437.95	8629.63
438.157	9110.9
438.364	9256.31
438.571	9346.42
438.778	9485.68
438.985	10450.27
439.192	9917.8
439.399	10317.15
439.606	9887.08
439.813	10388.83
440.02	11158.87
440.227	11009.37
440.433	11031.9
440.64	11228.5
440.847	11400.53
441.054	11421.01
441.261	12027.21
441.467	12207.43
441.674	12395.84
441.881	12524.86
442.088	12700.99
442.294	12651.84
442.501	13094.2
442.708	13317.43
442.914	13612.34
443.121	14349.61
443.328	13845.8
443.534	14910.75
443.741	14632.22
443.948	14251.3
444.154	15129.88
444.361	15133.98
444.568	15322.39
444.774	15334.68
444.981	15584.53
445.187	16010.51
445.394	16612.61
445.6	16585.99
445.807	17804.53
446.013	17075.45
446.22	17476.85
446.426	18306.28
446.633	18345.19
446.839	18754.79
447.046	18375.91
447.252	18975.97
447.459	19072.22
447.665	19092.7
447.871	19879.12
448.078	20550.85
448.284	19817.68
448.491	20464.84
448.697	21144.77
448.903	21339.32
449.11	21677.24
449.316	21281.98
449.522	21595.32
449.728	22236.33
449.935	22191.28
450.141	22334.64
450.347	23088.29
450.553	22340.78
450.76	22539.43
450.966	22908.07
451.172	23076
451.378	23624.86
451.584	22729.89
451.791	23614.62
451.997	23678.1
452.203	23743.64
452.409	23749.78
452.615	24003.73
452.821	22983.84
453.027	22836.39
453.233	23985.3
453.44	22955.17
453.646	23086.24
453.852	23276.7
454.058	23823.51
454.264	22682.79
454.47	23467.16
454.676	22766.76
454.882	23481.5
455.088	21611.7
455.294	22162.61
455.5	22480.04
455.705	22441.13
455.911	21578.93
456.117	21028.03
456.323	20851.91
456.529	19940.56
456.735	20526.28
456.941	20040.91
457.147	19621.08
457.352	19283.16
457.558	18969.82
457.764	18949.34
457.97	18662.63
458.176	18207.98
458.381	18351.34
458.587	17392.89
458.793	17407.22
458.999	16397.57
459.204	17741.04
459.41	17259.77
459.616	16125.19
459.821	16246.02
460.027	15928.59
460.233	15467.8
460.438	14957.85
460.644	15213.85
460.85	14525.73
461.055	14322.98
461.261	14060.84
461.466	13129.02
461.672	12883.26
461.878	13659.44
462.083	12918.07
462.289	12510.53
462.494	12416.32
462.7	11971.91
462.905	11525.46
463.111	11730.25
463.316	11887.95
463.522	11613.52
463.727	11736.4
463.932	11607.37
464.138	11584.85
464.343	11582.8
464.549	11234.64
464.754	11689.29
464.959	11498.83
465.165	11464.02
465.37	10878.3
465.575	10777.95
465.781	11035.99
465.986	10939.74
466.191	10788.19
466.397	10567.01
466.602	10024.3
466.807	10394.98
467.012	10569.05
467.218	10261.86
467.423	10132.84
467.628	10265.96
467.833	10771.8
468.038	10339.68
468.244	10038.63
468.449	10380.64
468.654	10259.81
468.859	10032.49
469.064	10196.32
469.269	9649.52
469.474	9534.83
469.679	9749.87
469.885	9663.85
470.09	9526.64
470.295	9600.37
470.5	9352.56
470.705	9362.8
470.91	9287.03
471.115	9110.9
471.32	9198.96
471.525	9356.66
471.73	8998.26
471.935	8871.29
472.139	8619.39
472.344	8736.12
472.549	8703.36
472.754	8762.75
472.959	8500.61
473.164	8412.54
473.369	8246.66
473.574	8420.74
473.778	8234.37
473.983	8240.51
474.188	8398.21
474.393	7812.49
474.598	8027.53
474.802	7964.04
475.007	7857.54
475.212	7708.04
475.417	7499.15
475.621	7345.55
475.826	7421.33
476.031	7450
476.235	7216.53
476.44	7445.9
476.645	7237.01
476.849	7187.86
477.054	7288.21
477.259	7003.54
477.463	6835.61
477.668	6903.19
477.872	7030.16
478.077	6849.94
478.282	6716.83
478.486	6610.33
478.691	6528.41
478.895	6579.61
479.1	6655.39
479.304	6675.87
479.509	6493.6
479.713	6296.99
479.918	6387.1
480.122	6249.89
480.326	6444.45
480.531	6335.9
480.735	6221.22
480.94	6139.3
481.144	6432.16
481.348	6124.96
481.553	6163.87
481.757	6055.33
481.961	6190.5
482.166	6088.1
482.37	6108.58
482.574	6032.8
482.778	5930.41
482.983	6196.64
483.187	6260.13
483.391	5928.36
483.595	6221.22
483.8	5881.25
484.004	6020.52
484.208	6155.68
484.412	5920.17
484.616	6051.24
484.821	6215.07
485.025	6157.73
485.229	6114.72
485.433	6018.47
485.637	6116.77
485.841	5938.6
486.045	6006.18
486.249	6057.38
486.453	5897.64
486.657	6000.04
486.861	6038.95
487.065	6084
487.269	6063.52
487.473	5936.55
487.677	6192.55
487.881	6129.06
488.085	6077.86
488.289	5907.88
488.493	6090.15
488.697	6043.04
488.901	5944.74
489.105	6077.86
489.309	6129.06
489.512	6170.02
489.716	6071.72
489.92	6159.78
490.124	6051.24
490.328	6139.3
490.531	6243.74
490.735	6190.5
490.939	6346.14
491.143	6307.23
491.346	6247.84
491.55	6321.57
491.754	6292.9
491.958	6352.29
492.161	6413.73
492.365	6479.26
492.569	6419.87
492.772	6309.28
492.976	6481.31
493.18	6405.53
493.383	6663.58
493.587	6505.88
493.79	6583.71
493.994	6655.39
494.197	6649.24
494.401	6798.74
494.605	6792.6
494.808	6890.9
495.012	6950.29
495.215	6829.46
495.419	6940.05
495.622	6870.42
495.825	7011.73
496.029	6897.05
496.232	7009.69
496.436	7159.19
496.639	7452.05
496.843	7202.19
497.046	7503.25
497.249	7531.92
497.453	7562.64
497.656	7749
497.859	7912.84
498.063	7650.7
498.266	7935.37
498.469	8072.58
498.673	8140.16
498.876	8033.67
499.079	8250.75
499.282	8295.81
499.485	8482.17
499.689	8457.6
499.892	8701.31
500.095	8643.96
500.298	8815.99
500.501	8918.39
500.705	8834.43
500.908	9127.28
501.111	9264.5
501.314	9444.72
501.517	9411.95
501.72	9758.06
501.923	9612.65
502.126	9663.85
502.329	10143.08
502.532	10059.11
502.735	9952.62
502.938	10194.28
503.141	10200.42
503.344	10478.94
503.547	10388.83
503.75	10749.28
503.953	10648.93
504.156	11122.01
504.359	11081.05
504.562	11160.92
504.765	11167.06
504.968	11529.55
505.17	11541.84
505.373	11740.49
505.576	11875.66
505.779	12051.78
505.982	11873.61
506.185	12315.97
506.387	12264.77
506.59	12393.79
506.793	12629.31
506.996	12774.72
507.198	13235.51
507.401	13299
507.604	13264.18
507.807	13614.38
508.009	13770.03
508.212	13913.39
508.415	14038.31
508.617	14120.23
508.82	14378.28
509.022	14044.46
509.225	14535.97
509.428	14683.42
509.63	14933.28
509.833	15072.54
510.035	15154.46
510.238	15342.87
510.44	15361.3
510.643	15834.38
510.845	16049.42
511.048	15971.6
511.25	16370.95
511.453	16397.57
511.655	16727.3
511.858	16575.75
512.06	16938.24
512.262	17114.36
512.465	17124.6
512.667	17755.38
512.87	17571.06
513.072	17812.72
513.274	18064.62
513.477	18193.64
513.679	18722.02
513.881	18857.18
514.084	18793.7
514.286	19197.15
514.488	19184.86
514.69	19643.6
514.893	19776.72
515.095	19807.44
515.297	20141.26
515.499	20335.82
515.701	20503.75
515.904	21007.55
516.106	20911.3
516.308	21312.7
516.51	21337.27
516.712	21585.08
516.914	21740.72
517.116	22064.3
517.318	22291.63
517.52	22625.45
517.722	22561.96
517.925	22846.63
518.127	23356.57
518.329	23702.68
518.531	23078.05
518.733	23790.74
518.935	24005.78
519.136	24132.75
519.338	24712.33
519.54	24540.3
519.742	24751.24
519.944	24902.79
520.146	25543.8
520.348	25619.58
520.55	25568.38
520.752	25934.96
520.954	26672.23
521.155	26231.92
521.357	26686.57
521.559	27049.06
521.761	27321.44
521.963	27120.74
522.164	27634.78
522.366	27716.7
522.568	28216.4
522.77	27952.21
522.971	28816.46
523.173	28509.26
523.375	28785.74
523.576	28982.34
523.778	28859.46
523.98	29451.33
524.181	29488.19
524.383	29477.95
524.584	29899.83
524.786	30147.64
524.988	30211.12
525.189	30229.55
525.391	30671.92
525.592	30985.26
525.794	30784.55
525.995	31040.55
526.197	31007.78
526.398	31038.5
526.6	31302.69
526.801	31706.14
527.003	31861.79
527.204	31687.71
527.406	32343.06
527.607	32162.84
527.808	32347.15
528.01	31984.66
528.211	32461.84
528.412	32515.09
528.614	32570.38
528.815	32818.19
529.016	33029.13
529.218	32818.19
529.419	33041.42
529.62	33340.42
529.822	33303.56
530.023	33408
530.224	33143.81
530.425	33399.81
530.626	33338.37
530.828	33362.95
531.029	33981.43
531.23	33424.39
531.431	33803.26
531.632	33952.76
531.833	34165.75
532.035	33862.65
532.236	34206.71
532.437	34257.91
532.638	33817.6
532.839	34182.13
533.04	34237.43
533.241	33999.87
533.442	34843.63
533.643	34419.7
533.844	34405.36
534.045	34524.15
534.246	34124.79
534.447	34583.54
534.648	34231.29
534.849	34489.33
535.05	34083.83
535.251	34325.49
535.451	34352.12
535.652	34503.67
535.853	34554.86
536.054	34632.69
536.255	34644.98
536.456	34350.07
536.657	34677.74
536.857	34534.39
537.058	34325.49
537.259	34812.91
537.46	34745.33
537.66	34690.03
537.861	34864.11
538.062	34616.3
538.263	34618.35
538.463	34544.62
538.664	35234.79
538.865	34810.86
539.065	34888.68
539.266	34444.27
539.466	35199.97
539.667	34167.8
539.868	35224.55
540.068	34657.26
540.269	34505.71
540.469	34964.46
540.67	34599.92
540.87	34501.62
541.071	34395.12
541.271	34683.89
541.472	34952.17
541.672	34384.88
541.873	34730.99
542.073	34173.94
542.274	35091.43
542.474	34419.7
542.675	34534.39
542.875	35124.2
543.075	34567.15
543.276	34255.86
543.476	34595.82
543.676	34427.89
543.877	34853.87
544.077	34595.82
544.277	34943.98
544.478	34825.2
544.678	34655.22
544.878	34452.47
545.078	35081.19
545.279	34456.56
545.479	34667.5
545.679	34718.7
545.879	34522.1
546.079	34862.06
546.28	34276.34
546.48	34239.48
546.68	34767.85
546.88	34765.81
547.08	34960.36
547.28	34487.28
547.48	34305.01
547.68	34657.26
547.88	34454.51
548.081	34612.21
548.281	34264.05
548.481	34270.2
548.681	34683.89
548.881	34720.75
549.081	34427.89
549.28	34507.76
549.48	34710.51
549.68	34221.05
549.88	35130.34
550.08	34399.22
550.28	34477.04
550.48	34458.61
550.68	34550.77
550.88	34329.59
551.08	34538.48
551.279	34829.29
551.479	34386.93
551.679	34614.26
551.879	34268.15
552.079	34737.13
552.278	34270.2
552.478	34608.11
552.678	34620.4
552.878	34690.03
553.077	34532.34
553.277	34098.17
553.477	34583.54
553.676	34454.51
553.876	34266.1
554.076	34345.97
554.275	34409.46
554.475	33645.57
554.674	34118.65
554.874	33930.23
555.074	33831.93
555.273	34018.3
555.473	34042.87
555.672	33500.16
555.872	34040.82
556.071	33647.61
556.271	34229.24
556.47	33819.64
556.67	33420.29
556.869	33825.79
557.068	33790.97
557.268	33457.15
557.467	33377.28
557.667	33831.93
557.866	33717.25
558.065	33491.97
558.265	33278.98
558.464	33244.16
558.663	33522.69
558.863	33047.56
559.062	33451.01
559.261	33000.46
559.461	33907.71
559.66	33154.05
559.859	33131.53
560.058	32814.09
560.258	33190.92
560.457	32633.87
560.656	33160.2
560.855	32588.81
561.054	33049.61
561.253	32513.04
561.453	33025.03
561.652	32734.22
561.851	32945.16
562.05	32830.48
562.249	32689.17
562.448	33111.05
562.647	32394.26
562.846	32865.29
563.045	32330.77
563.244	32248.85
563.443	32558.1
563.642	31982.62
563.841	32287.76
564.04	32101.4
564.239	32209.94
564.438	32285.72
564.637	32285.72
564.836	31882.27
565.035	31839.26
565.234	31882.27
565.432	31675.42
565.631	31769.63
565.83	32037.91
566.029	31347.75
566.228	31618.08
566.427	31491.1
566.625	31695.9
566.824	31400.99
567.023	31505.44
567.222	30991.4
567.42	31347.75
567.619	31439.9
567.818	31073.32
568.016	31054.89
568.215	31355.94
568.414	30942.25
568.612	31101.99
568.811	30536.75
569.01	30843.95
569.208	30323.76
569.407	30540.85
569.605	30252.08
569.804	30546.99
570.002	30133.3
570.201	30551.09
570.4	30096.44
570.598	30053.43
570.797	29932.6
570.995	29951.03
571.193	29723.71
571.392	29838.39
571.59	29580.35
571.789	29735.99
571.987	29350.98
572.186	29549.63
572.384	29344.83
572.582	29436.99
572.781	29441.09
572.979	28775.5
573.177	28888.14
573.376	29242.43
573.574	28808.26
573.772	29099.08
573.971	28732.49
574.169	28736.59
574.367	28558.41
574.565	28474.45
574.763	28478.54
574.962	28275.79
575.16	28208.21
575.358	28415.05
575.556	28032.08
575.754	28195.92
575.952	27800.66
576.151	27968.6
576.349	27565.15
576.547	27491.42
576.745	27468.89
576.943	27661.4
577.141	27452.51
577.339	27346.01
577.537	27530.33
577.735	27366.49
577.933	27413.6
578.131	27237.47
578.329	27186.27
578.527	26424.43
578.725	26883.17
578.923	27335.77
579.121	26471.53
579.319	26938.47
579.516	26799.21
579.714	26672.23
579.912	26516.59
580.11	26520.68
580.308	26604.65
580.506	26236.02
580.704	25916.53
580.901	26074.23
581.099	26145.91
581.297	25891.96
581.495	25881.72
581.692	25879.67
581.89	25582.71
582.088	26063.99
582.285	25597.05
582.483	25656.44
582.681	25562.23
582.878	25183.36
583.076	25035.91
583.274	25212.03
583.471	24898.69
583.669	24953.99
583.866	25214.08
584.064	25078.91
584.262	24786.05
584.459	25027.71
584.657	24732.81
584.854	24994.95
585.052	24153.23
585.249	24605.83
585.447	24411.28
585.644	24198.29
585.841	24347.79
586.039	24532.11
586.236	24157.33
586.434	23936.15
586.631	23901.33
586.828	23610.52
587.026	24095.89
587.223	23727.25
587.42	23600.28
587.618	23725.21
587.815	23606.42
588.012	23409.82
588.21	23217.31
588.407	23622.81
588.604	23336.09
588.801	22985.89
588.999	23237.79
589.196	22992.03
589.393	23063.71
589.59	23002.27
589.787	23053.47
589.984	22434.99
590.182	22635.69
590.379	22742.18
590.576	22514.86
590.773	22600.87
590.97	22293.68
591.167	22559.91
591.364	22076.59
591.561	22592.68
591.758	22070.45
591.955	22045.87
592.152	22131.89
592.349	22025.39
592.546	22031.54
592.743	21773.49
592.94	21714.1
593.137	21798.07
593.334	21968.05
593.531	21521.59
593.727	21785.78
593.924	21800.12
594.121	21165.25
594.318	21437.62
594.515	21251.26
594.712	21284.03
594.908	21161.15
595.105	21437.62
595.302	21060.8
595.499	21169.34
595.696	20870.34
595.892	20704.45
596.089	21116.09
596.286	20737.22
596.482	20450.5
596.679	20692.16
596.876	20614.34
597.072	20452.55
597.269	20714.69
597.466	20210.89
597.662	20794.56
597.859	20413.64
598.055	20384.97
598.252	20079.82
598.448	20124.88
598.645	20257.99
598.841	19903.7
599.038	19971.28
599.234	19782.87
599.431	19780.82
599.627	19854.55
599.824	19750.1
600.02	19596.5
600.217	19678.42
600.413	19465.43
600.609	19412.18
600.806	19420.38
601.002	19453.14
601.198	19084.51
601.395	18887.9
601.591	19326.17
601.787	19264.73
601.984	19025.12
602.18	18855.14
602.376	19076.32
602.572	19152.09
602.769	18578.66
602.965	18529.51
603.161	18902.24
603.357	18607.33
603.553	18375.91
603.75	18783.46
603.946	18257.13
604.142	18179.31
604.338	18038
604.534	18136.3
604.73	18005.23
604.926	17951.98
605.122	18027.76
605.318	17990.89
605.514	17917.17
605.71	17841.39
605.906	17601.78
606.102	17659.12
606.298	17943.79
606.494	17493.24
606.69	17722.61
606.886	17569.01
607.082	17466.61
607.278	17620.21
607.474	17319.16
607.67	17077.5
607.866	17267.96
608.062	17456.37
608.257	17294.58
608.453	16925.95
608.649	17188.09
608.845	16975.1
609.041	16809.22
609.236	16850.17
609.432	16848.13
609.628	16817.41
609.824	16835.84
610.019	16868.61
610.215	16647.43
610.411	16588.03
610.606	16473.35
610.802	16295.18
610.998	16624.9
611.193	16377.09
611.389	16393.48
611.584	16129.29
611.78	16373
611.976	16258.31
612.171	16325.89
612.367	16055.56
612.562	15971.6
612.758	16190.73
612.953	15877.39
613.149	16268.55
613.344	15947.02
613.539	16123.15
613.735	15951.12
613.93	15936.78
614.126	15713.55
614.321	15811.85
614.517	15746.32
614.712	15815.95
614.907	15521.04
615.103	15840.53
615.298	15619.35
615.493	15744.27
615.688	15396.12
615.884	15645.97
616.079	15258.9
616.274	15365.4
616.47	15273.24
616.665	15168.79
616.86	15172.89
617.055	15097.11
617.25	15004.96
617.445	15308.05
617.641	14943.52
617.836	15023.39
618.031	14546.21
618.226	14814.49
618.421	14943.52
618.616	14802.21
618.811	14411.04
619.006	14679.33
619.201	14247.21
619.396	14710.05
619.591	14427.43
619.786	14492.96
619.981	14112.04
620.176	14497.06
620.371	14290.21
620.566	14288.17
620.761	14003.5
620.956	14017.83
621.151	13837.61
621.346	13782.32
621.541	13796.65
621.735	13995.31
621.93	13473.07
622.125	13733.17
622.32	13563.19
622.515	13542.71
622.709	13391.16
622.904	13425.97
623.099	13192.5
623.294	13411.64
623.488	12834.11
623.683	13098.3
623.878	12885.31
624.072	12965.18
624.267	12981.56
624.462	12641.6
624.656	12617.02
624.851	12834.11
625.046	12664.13
625.24	12426.56
625.435	12371.27
625.629	12428.61
625.824	12361.03
626.018	12455.23
626.213	11990.35
626.407	12092.74
626.602	11914.57
626.796	11926.86
626.991	12010.82
627.185	11994.44
627.38	11679.05
627.574	11670.86
627.768	11601.23
627.963	11769.16
628.157	11550.03
628.352	11777.36
628.546	11158.87
628.74	11525.46
628.935	11208.02
629.129	11232.6
629.323	11113.81
629.517	10894.68
629.712	10937.69
629.906	11050.33
630.1	10906.97
630.294	10935.64
630.489	10732.89
630.683	10784.09
630.877	10546.53
631.071	10448.22
631.265	10718.56
631.459	10501.47
631.653	10503.52
631.848	10480.99
632.042	10466.66
632.236	10411.36
632.43	10220.9
632.624	10055.01
632.818	10343.78
633.012	9692.52
633.206	9999.72
633.4	9971.05
633.594	9756.01
633.788	9958.76
633.982	9925.99
634.176	9745.77
634.369	9713
634.563	9776.49
634.757	9540.97
634.951	9715.05
635.145	9717.1
635.339	9528.69
635.533	9438.58
635.726	9629.04
635.92	9528.69
636.114	9495.92
636.308	9303.41
636.501	9291.12
636.695	9180.53
636.889	9221.49
637.083	9100.66
637.276	9010.55
637.47	9135.48
637.664	8828.28
637.857	8881.53
638.051	8914.3
638.244	8803.71
638.438	8693.12
638.632	8641.92
638.825	8674.68
639.019	8695.16
639.212	8510.85
639.406	8490.37
639.599	8430.98
639.793	8521.09
639.986	8404.35
640.18	8447.36
640.373	8164.74
640.567	8316.29
640.76	8228.23
640.954	8072.58
641.147	8142.21
641.34	7939.46
641.534	8076.68
641.727	8011.14
641.92	7921.03
642.114	7744.91
642.307	7636.36
642.5	7931.27
642.694	7579.02
642.887	7650.7
643.08	7775.63
643.273	7662.99
643.467	7460.24
643.66	7445.9
643.853	7495.05
644.046	7378.32
644.239	7208.34
644.432	7257.49
644.626	7138.71
644.819	7241.11
645.012	7153.04
645.205	7134.61
645.398	7132.56
645.591	7021.97
645.784	7083.41
645.977	6823.32
646.17	6821.27
646.363	6952.34
646.556	6679.96
646.749	6933.91
646.942	6880.66
647.135	6630.81
647.328	6782.36
647.521	6573.47
647.714	6491.55
647.907	6528.41
648.099	6493.6
648.292	6583.71
648.485	6413.73
648.678	6481.31
648.871	6370.72
649.064	6243.74
649.256	6358.43
649.449	6198.69
649.642	6243.74
649.835	6116.77
650.027	6159.78
650.22	6020.52
650.413	6118.82
650.605	6024.61
650.798	6014.37
650.991	5920.17
651.183	6000.04
651.376	5844.39
651.568	5922.21
651.761	5940.65
651.954	5756.33
652.146	5789.1
652.339	5733.8
652.531	5692.84
652.724	5651.88
652.916	5506.48
653.109	5668.27
653.301	5580.2
653.494	5535.15
653.686	5389.74
653.879	5512.62
654.071	5397.93
654.263	5539.24
654.456	5455.28
654.648	5354.93
654.84	5201.33
655.033	5072.31
655.225	5254.58
655.417	5180.85
655.61	5225.9
655.802	4939.19
655.994	5068.21
656.186	5025.2
656.379	5037.49
656.571	4996.53
656.763	4945.33
656.955	5041.59
657.148	4969.91
657.34	4883.89
657.532	4838.84
657.724	4914.61
657.916	4791.73
658.108	4777.4
658.3	4660.66
658.492	4689.34
658.684	4558.27
658.876	4515.26
659.068	4689.34
659.26	4677.05
659.452	4511.16
659.644	4480.44
659.836	4486.59
660.028	4519.36
660.22	4480.44
660.412	4298.17
660.604	4289.98
660.796	4283.84
660.988	4298.17
661.18	4230.59
661.372	4382.14
661.563	4203.97
661.755	4185.54
661.947	4046.27
662.139	4281.79
662.331	4130.24
662.522	4185.54
662.714	4027.84
662.906	4144.58
663.097	3917.25
663.289	4081.09
663.481	4060.61
663.673	3976.64
663.864	3954.12
664.056	3818.95
664.247	3898.82
664.439	3864.01
664.631	3909.06
664.822	3950.02
665.014	3888.58
665.205	3698.12
665.397	3777.99
665.588	3857.86
665.78	3628.49
665.971	3722.7
666.163	3749.32
666.354	3581.39
666.546	3556.81
666.737	3472.84
666.929	3603.91
667.12	3667.4
667.311	3446.22
667.503	3407.31
667.694	3503.56
667.885	3491.27
668.077	3431.88
668.268	3433.93
668.459	3448.27
668.651	3417.55
668.842	3399.12
669.033	3470.8
669.224	3315.15
669.416	3448.27
669.607	3354.06
669.798	3364.3
669.989	3304.91
670.18	3358.16
670.371	3198.42
670.563	3266
670.754	3167.7
670.945	3243.47
671.136	3354.06
671.327	3198.42
671.518	3118.54
671.709	3122.64
671.9	3110.35
672.091	3134.93
672.282	3136.98
672.473	3159.5
672.664	3126.74
672.855	3010
673.046	3007.95
673.237	3114.45
673.428	3038.67
673.619	3038.67
673.809	3065.3
674	3005.91
674.191	3018.19
674.382	2938.32
674.573	2940.37
674.764	2874.84
674.954	2940.37
675.145	2885.08
675.336	2909.65
675.527	2842.07
675.717	2811.35
675.908	2768.34
676.099	3016.15
676.289	2801.11
676.48	2858.45
676.671	2885.08
676.861	2852.31
677.052	2821.59
677.243	2825.68
677.433	2751.96
677.624	2819.54
677.814	2780.63
678.005	2813.4
678.195	2731.48
678.386	2764.25
678.576	2651.61
678.767	2704.85
678.957	2610.65
679.148	2747.86
679.338	2745.81
679.529	2772.44
679.719	2715.09
679.909	2700.76
680.1	2596.31
680.29	2684.38
680.481	2659.8
680.671	2688.47
680.861	2575.83
681.052	2530.78
681.242	2567.64
681.432	2604.5
681.622	2545.11
681.813	2688.47
682.003	2667.99
682.193	2444.76
682.383	2678.23
682.573	2536.92
682.764	2520.54
682.954	2606.55
683.144	2618.84
683.334	2465.24
683.524	2471.39
683.714	2420.19
683.904	2555.35
684.094	2407.9
684.284	2506.2
684.474	2534.87
684.664	2383.32
684.854	2412
685.044	2495.96
685.234	2442.71
685.424	2504.15
685.614	2477.53
685.804	2422.24
685.994	2520.54
686.184	2604.5
686.374	2483.67
686.564	2522.59
686.753	2381.28
686.943	2375.13
687.133	2397.66
687.323	2498.01
687.513	2348.51
687.702	2344.41
687.892	2420.19
688.082	2340.32
688.272	2366.94
688.461	2344.41
688.651	2237.92
688.841	2317.79
689.03	2295.26
689.22	2272.73
689.41	2358.75
689.599	2303.45
689.789	2344.41
689.979	2405.85
690.168	2313.69
690.358	2317.79
690.547	2262.49
690.737	2340.32
690.926	2336.22
691.116	2274.78
691.305	2268.64
691.495	2186.72
691.684	2246.11
691.874	2156
692.063	2377.18
692.252	2323.93
692.442	2295.26
692.631	2266.59
692.82	2307.55
693.01	2231.77
693.199	2315.74
693.388	2229.73
693.578	2188.77
693.767	2364.89
693.956	2299.36
694.146	2332.12
694.335	2295.26
694.524	2276.83
694.713	2340.32
694.902	2239.97
695.092	2282.97
695.281	2225.63
695.47	2221.53
695.659	2170.33
695.848	2328.03
696.037	2207.2
696.226	2205.15
696.415	2268.64
696.604	2182.62
696.793	2178.53
696.982	2278.88
697.171	2285.02
697.36	2289.12
697.549	2242.01
697.738	2317.79
697.927	2190.81
698.116	2229.73
698.305	2217.44
698.494	2196.96
698.683	2278.88
698.872	2188.77
699.061	2268.64
699.25	2139.62
699.438	2176.48
699.627	2303.45
699.816	2307.55
700.005	2205.15
700.193	2248.16
700.382	2207.2
700.571	2264.54
700.76	2020.83
700.948	2227.68
701.137	2289.12
701.326	2174.43
701.514	2102.75
701.703	2217.44
701.892	2162.14
702.08	2239.97
702.269	2151.9
702.457	2196.96
702.646	2143.71
702.834	2108.9
703.023	2074.08
703.212	2153.95
703.4	2127.33
703.589	2260.45
703.777	2254.3
703.965	2037.22
704.154	2086.37
704.342	2102.75
704.531	2002.4
704.719	2047.46
704.907	2106.85
705.096	2223.58
705.284	2141.66
705.472	2133.47
705.661	1979.87
705.849	2033.12
706.037	2117.09
706.226	2131.42
706.414	2057.7
706.602	2072.03
706.79	1936.87
706.979	1910.24
707.167	1959.39
707.355	2033.12
707.543	1895.91
707.731	2006.5
707.919	2055.65
708.107	1922.53
708.296	2045.41
708.484	2024.93
708.672	2024.93
708.86	1961.44
709.048	2055.65
709.236	1893.86
709.424	2051.55
709.612	1891.81
709.8	1881.57
709.988	1838.56
710.176	1977.83
710.364	1865.19
710.551	2047.46
710.739	1910.24
710.927	1895.91
711.115	1975.78
711.303	1951.2
711.491	1816.04
711.679	1945.06
711.866	1822.18
712.054	1852.9
712.242	1826.28
712.43	1988.07
712.617	1826.28
712.805	1928.67
712.993	1865.19
713.181	1809.89
713.368	1846.76
713.556	1838.56
713.744	1809.89
713.931	1857
714.119	1662.44
714.306	1738.21
714.494	1807.84
714.682	1803.75
714.869	1795.56
715.057	1709.54
715.244	1865.19
715.432	1807.84
715.619	1789.41
715.807	1750.5
715.994	1695.21
716.182	1609.19
716.369	1736.17
716.556	1652.2
716.744	1656.29
716.931	1762.79
717.119	1631.72
717.306	1613.29
717.493	1736.17
717.681	1725.93
717.868	1588.71
718.055	1572.33
718.242	1687.01
718.43	1687.01
718.617	1717.73
718.804	1658.34
718.991	1562.09
719.179	1615.34
719.366	1701.35
719.553	1670.63
719.74	1605.1
719.927	1572.33
720.114	1519.08
720.301	1590.76
720.488	1521.13
720.676	1578.47
720.863	1578.47
721.05	1453.55
721.237	1471.98
721.424	1557.99
721.611	1506.79
721.798	1615.34
721.985	1580.52
722.172	1539.56
722.358	1508.84
722.545	1424.87
722.732	1547.75
722.919	1467.88
723.106	1381.87
723.293	1396.2
723.48	1514.98
723.667	1428.97
723.853	1504.75
724.04	1431.02
724.227	1400.3
724.414	1424.87
724.6	1383.91
724.787	1414.63
724.974	1467.88
725.161	1390.06
725.347	1377.77
725.534	1416.68
725.72	1512.94
725.907	1451.5
726.094	1404.39
726.28	1388.01
726.467	1357.29
726.653	1349.1
726.84	1390.06
727.027	1398.25
727.213	1316.33
727.4	1381.87
727.586	1361.39
727.773	1465.83
727.959	1365.48
728.145	1394.15
728.332	1277.42
728.518	1293.8
728.705	1224.17
728.891	1342.96
729.077	1275.37
729.264	1226.22
729.45	1326.57
729.636	1314.28
729.823	1250.8
730.009	1285.61
730.195	1324.52
730.382	1256.94
730.568	1326.57
730.754	1254.89
730.94	1345
731.126	1295.85
731.313	1353.2
731.499	1330.67
731.685	1242.61
731.871	1279.47
732.057	1287.66
732.243	1261.04
732.429	1299.95
732.615	1287.66
732.801	1205.74
732.987	1258.99
733.173	1160.69
733.359	1252.84
733.545	1252.84
733.731	1275.37
733.917	1228.27
734.103	1261.04
734.289	1201.65
734.475	1181.17
734.661	1166.83
734.847	1170.93
735.033	1191.41
735.219	1203.69
735.404	1101.3
735.59	1228.27
735.776	1107.44
735.962	1203.69
736.148	1164.78
736.333	1150.45
736.519	1105.39
736.705	1132.01
736.89	1152.49
737.076	1011.18
737.262	1197.55
737.447	1054.19
737.633	1162.73
737.819	1187.31
738.004	1170.93
738.19	1142.25
738.375	1009.14
738.561	1103.34
738.747	1048.05
738.932	980.47
739.118	1035.76
739.303	1039.86
739.489	1089.01
739.674	1078.77
739.859	1056.24
740.045	1082.86
740.23	1019.38
740.416	1023.47
740.601	1050.1
740.786	1099.25
740.972	990.7
741.157	1029.62
741.342	974.32
741.528	1043.95
741.713	939.51
741.898	966.13
742.084	986.61
742.269	1009.14
742.454	994.8
742.639	982.51
742.824	1000.94
743.01	1095.15
743.195	908.79
743.38	1025.52
743.565	869.87
743.75	968.18
743.935	927.22
744.12	1007.09
744.305	955.89
744.49	906.74
744.675	878.07
744.86	841.2
745.045	947.7
745.23	927.22
745.415	964.08
745.6	865.78
745.785	947.7
745.97	882.16
746.155	910.83
746.34	794.1
746.525	804.34
746.71	890.35
746.895	849.4
747.079	876.02
747.264	847.35
747.449	890.35
747.634	916.98
747.819	849.4
748.003	886.26
748.188	812.53
748.373	808.44
748.557	857.59
748.742	873.97
748.927	783.86
749.111	822.77
749.296	824.82
749.481	884.21
749.665	787.96
749.85	824.82
750.034	790
750.219	853.49
750.404	865.78
750.588	771.57
750.773	730.61
750.957	728.56
751.141	742.9
751.326	765.43
751.51	730.61
751.695	792.05
751.879	720.37
752.064	783.86
752.248	812.53
752.432	779.76
752.617	777.72
752.801	798.2
752.985	646.65
753.17	654.84
753.354	706.04
753.538	722.42
753.722	607.73
753.907	714.23
754.091	660.98
754.275	617.97
754.459	683.51
754.643	624.12
754.828	562.68
755.012	689.65
755.196	640.5
755.38	654.84
755.564	648.69
755.748	744.95
755.932	640.5
756.116	636.41
756.3	673.27
756.484	593.4
756.668	650.74
756.852	613.88
757.036	605.69
757.22	654.84
757.404	628.21
757.588	544.25
757.772	617.97
757.956	536.06
758.14	605.69
758.323	579.06
758.507	501.24
758.691	564.73
758.875	558.58
759.059	617.97
759.242	607.73
759.426	652.79
759.61	572.92
759.794	548.34
759.977	581.11
760.161	597.49
760.345	579.06
760.528	587.26
760.712	546.3
760.895	615.93
761.079	511.48
761.263	472.57
761.446	531.96
761.63	464.38
761.813	462.33
761.997	517.62
762.18	527.86
762.364	550.39
762.547	450.04
762.731	523.77
762.914	509.43
763.098	482.81
763.281	501.24
763.464	474.62
763.648	554.49
763.831	562.68
764.015	466.42
764.198	538.1
764.381	435.71
764.564	509.43
764.748	491
764.931	472.57
765.114	415.23
765.297	564.73
765.481	493.05
765.664	488.95
765.847	447.99
766.03	394.75
766.213	484.86
766.397	507.38
766.58	529.91
766.763	521.72
766.946	472.57
767.129	409.08
767.312	447.99
767.495	433.66
767.678	511.48
767.861	493.05
768.044	396.79
768.227	478.71
768.41	411.13
768.593	536.06
768.776	505.34
768.959	429.56
769.142	400.89
769.324	478.71
769.507	423.42
769.69	478.71
769.873	404.99
770.056	411.13
770.239	470.52
770.421	521.72
770.604	458.23
770.787	427.51
770.97	450.04
771.152	400.89
771.335	394.75
771.518	439.8
771.7	429.56
771.883	454.14
772.066	384.51
772.248	464.38
772.431	382.46
772.613	409.08
772.796	421.37
772.978	447.99
773.161	368.12
773.343	425.47
773.526	390.65
773.708	400.89
773.891	394.75
774.073	398.84
774.256	443.9
774.438	409.08
774.621	380.41
774.803	308.73
774.985	339.45
775.168	388.6
775.35	394.75
775.532	431.61
775.715	343.55
775.897	396.79
776.079	325.12
776.261	402.94
776.444	390.65
776.626	343.55
776.808	343.55
776.99	306.68
777.173	380.41
777.355	345.59
777.537	368.12
777.719	390.65
777.901	409.08
778.083	331.26
778.265	382.46
778.447	329.21
778.629	335.35
778.811	388.6
778.993	304.64
779.175	302.59
779.357	407.03
779.539	390.65
779.721	284.16
779.903	327.16
780.085	378.36
780.267	316.92
780.449	353.79
780.631	374.27
780.812	378.36
780.994	300.54
781.176	333.31
781.358	294.4
781.54	357.88
781.721	337.4
781.903	249.34
782.085	339.45
782.267	282.11
782.448	284.16
782.63	290.3
782.812	306.68
782.993	282.11
783.175	310.78
783.357	224.76
783.538	235
783.72	257.53
783.901	306.68
784.083	345.59
784.264	257.53
784.446	333.31
784.627	243.2
784.809	286.2
784.99	261.63
785.172	296.44
785.353	296.44
785.535	294.4
785.716	327.16
785.897	255.48
786.079	235
786.26	204.28
786.441	235
786.623	253.44
786.804	136.7
786.985	239.1
787.167	253.44
787.348	245.24
787.529	210.43
787.71	226.81
787.891	286.2
788.073	286.2
788.254	232.96
788.435	230.91
788.616	237.05
788.797	194.05
788.978	220.67
789.159	171.52
789.34	255.48
789.522	228.86
789.703	259.58
789.884	237.05
790.065	204.28
790.246	210.43
790.427	189.95
790.607	198.14
790.788	177.66
790.969	165.37
791.15	214.52
791.331	212.48
791.512	130.56
791.693	210.43
791.874	163.33
792.054	140.8
792.235	296.44
792.416	165.37
792.597	151.04
792.778	261.63
792.958	146.94
793.139	218.62
793.32	157.18
793.5	230.91
793.681	112.13
793.862	202.24
794.042	204.28
794.223	177.66
794.404	214.52
794.584	189.95
794.765	114.17
794.945	114.17
795.126	136.7
795.306	204.28
795.487	185.85
795.667	167.42
795.848	163.33
796.028	99.84
796.209	122.37
796.389	220.67
796.57	130.56
796.75	144.89
796.93	148.99
797.111	175.61
797.291	198.14
797.471	185.85
797.652	171.52
797.832	181.76
798.012	187.9
798.192	165.37
798.373	194.05
798.553	167.42
798.733	155.13
798.913	128.51
799.093	105.98
799.274	122.37
799.454	108.03
799.634	69.12
799.814	144.89
799.994	144.89
800.174	97.79
800.354	99.84
800.534	167.42
800.714	165.37
800.894	108.03
801.074	105.98
801.254	79.36
801.434	167.42
801.614	151.04
801.794	157.18
801.974	429.56
802.154	95.74
802.334	177.66
802.514	95.74
802.693	40.45
802.873	196.09
803.053	65.02
803.233	128.51
803.413	144.89
803.592	122.37
803.772	95.74
803.952	89.6
804.131	85.5
804.311	130.56
804.491	126.46
804.67	140.8
804.85	38.4
805.03	196.09
805.209	187.9
805.389	112.13
805.568	95.74
805.748	112.13
805.928	138.75
806.107	159.23
806.287	130.56
806.466	110.08
806.646	108.03
806.825	105.98
807.004	118.27
807.184	108.03
807.363	122.37
807.543	155.13
807.722	130.56
807.901	136.7
808.081	71.17
808.26	44.54
808.439	144.89
808.619	116.22
808.798	114.17
808.977	73.21
809.156	93.69
809.336	161.28
809.515	42.5
809.694	163.33
809.873	126.46
810.052	32.26
810.231	114.17
810.411	189.95
810.59	75.26
810.769	101.89
810.948	114.17
811.127	56.83
811.306	169.47
811.485	148.99
811.664	118.27
811.843	89.6
812.022	60.93
812.201	161.28
812.38	73.21
812.559	114.17
812.737	65.02
812.916	101.89
813.095	108.03
813.274	101.89
813.453	54.78
813.632	128.51
813.811	97.79
813.989	56.83
814.168	73.21
814.347	144.89
814.526	54.78
814.704	67.07
814.883	60.93
815.062	173.57
815.24	77.31
815.419	151.04
815.598	99.84
815.776	148.99
815.955	97.79
816.133	65.02
816.312	99.84
816.49	97.79
816.669	101.89
816.847	5.63
817.026	65.02
817.204	62.98
817.383	118.27
817.561	60.93
817.74	85.5
817.918	38.4
818.097	54.78
818.275	108.03
818.453	75.26
818.632	101.89
818.81	28.16
818.988	46.59
819.167	122.37
819.345	110.08
819.523	79.36
819.701	81.41
819.879	75.26
820.058	120.32
820.236	67.07
820.414	114.17
820.592	-2.56
820.77	128.51
820.948	67.07
821.127	101.89
821.305	126.46
821.483	73.21
821.661	132.61
821.839	58.88
822.017	118.27
822.195	48.64
822.373	136.7
822.551	62.98
822.729	38.4
822.907	46.59
823.085	101.89
823.262	44.54
823.44	62.98
823.618	79.36
823.796	58.88
823.974	93.69
824.152	67.07
824.329	122.37
824.507	95.74
824.685	91.65
824.863	103.93
825.04	30.21
825.218	50.69
825.396	87.55
825.574	22.02
825.751	40.45
825.929	32.26
826.107	1.54
826.284	11.78
826.462	89.6
826.639	146.94
826.817	112.13
826.994	15.87
827.172	1.54
827.349	112.13
827.527	-4.61
827.704	108.03
827.882	22.02
828.059	-10.75
828.237	36.35
828.414	128.51
828.591	15.87
828.769	91.65
828.946	40.45
829.124	54.78
829.301	54.78
829.478	44.54
829.655	46.59
829.833	48.64
830.01	60.93
830.187	46.59
830.364	38.4
830.542	136.7
830.719	65.02
830.896	42.5
831.073	136.7
831.25	89.6
831.427	22.02
831.604	-16.9
831.782	58.88
831.959	42.5
832.136	50.69
832.313	60.93
832.49	34.3
832.667	83.45
832.844	42.5
833.021	44.54
833.198	19.97
833.374	93.69
833.551	81.41
833.728	112.13
833.905	75.26
834.082	30.21
834.259	5.63
834.436	124.41
834.612	13.82
834.789	132.61
834.966	73.21
835.143	38.4
835.319	32.26
835.496	62.98
835.673	38.4
835.85	101.89
836.026	62.98
836.203	52.74
836.38	54.78
836.556	87.55
836.733	48.64
836.909	38.4
837.086	46.59
837.262	36.35
837.439	87.55
837.616	-4.61
837.792	38.4
837.968	95.74
838.145	95.74
838.321	-16.9
838.498	97.79
838.674	62.98
838.851	89.6
839.027	22.02
839.203	91.65
839.38	9.73
839.556	38.4
839.732	15.87
839.909	65.02
840.085	48.64
840.261	19.97
840.437	108.03
840.614	30.21
840.79	5.63
840.966	101.89
841.142	89.6
841.318	44.54
841.494	40.45
841.671	22.02
841.847	30.21
842.023	9.73
842.199	38.4
842.375	91.65
842.551	-18.94
842.727	54.78
842.903	71.17
843.079	24.06
843.255	83.45
843.431	105.98
843.607	99.84
843.783	-39.42
843.959	79.36
844.134	50.69
844.31	54.78
844.486	-23.04
844.662	-10.75
844.838	5.63
845.013	93.69
845.189	-20.99
845.365	95.74
845.541	11.78
845.716	58.88
845.892	38.4
846.068	116.22
846.244	-41.47
846.419	15.87
846.595	17.92
846.77	75.26
846.946	65.02
847.122	79.36
847.297	83.45
847.473	15.87
847.648	110.08
847.824	79.36
847.999	24.06
848.175	24.06
848.35	22.02
848.526	32.26
848.701	19.97
848.876	73.21
849.052	13.82
849.227	34.3
849.403	67.07
849.578	38.4
849.753	-14.85
849.929	58.88
850.104	126.46
850.279	-31.23
850.454	3.58
850.63	36.35
850.805	24.06
850.98	30.21
851.155	108.03
851.33	67.07
851.505	36.35
851.681	38.4
851.856	75.26
852.031	-8.7
852.206	95.74
852.381	13.82
852.556	50.69
852.731	87.55
852.906	50.69
853.081	34.3
853.256	34.3
853.431	85.5
853.606	34.3
853.781	36.35
853.956	54.78
854.131	-8.7
854.305	40.45
854.48	28.16
854.655	-8.7
854.83	38.4
855.005	9.73
855.18	22.02
855.354	-31.23
855.529	-2.56
855.704	46.59
855.879	65.02
856.053	28.16
856.228	99.84
856.403	17.92
856.577	-25.09
856.752	5.63
856.926	-10.75
857.101	-37.38
857.276	60.93
857.45	36.35
857.625	71.17
857.799	-33.28
857.974	24.06
858.148	65.02
858.323	42.5
858.497	77.31
858.672	19.97
858.846	-2.56
859.02	26.11
859.195	58.88
859.369	67.07
859.543	-20.99
859.718	42.5
859.892	28.16
860.066	46.59
860.241	11.78
860.415	99.84
860.589	138.75
860.763	13.82
860.938	11.78
861.112	83.45
861.286	30.21
861.46	-23.04
861.634	42.5
861.808	40.45
861.982	42.5
862.157	50.69
862.331	77.31
862.505	13.82
862.679	40.45
862.853	-8.7
863.027	54.78
863.201	30.21
863.375	24.06
863.549	1.54
863.722	26.11
863.896	24.06
864.07	-35.33
864.244	85.5
864.418	71.17
864.592	19.97
864.766	22.02
864.939	46.59
865.113	75.26
865.287	1.54
865.461	48.64
865.634	-8.7
865.808	26.11
865.982	-23.04
866.156	112.13
866.329	97.79
866.503	7.68
866.676	83.45
866.85	42.5
867.024	3.58
867.197	56.83
867.371	69.12
867.544	120.32
867.718	-25.09
867.891	-39.42
868.065	89.6
868.238	62.98
868.412	40.45
868.585	-39.42
868.759	69.12
868.932	-31.23
869.105	48.64
869.279	50.69
869.452	58.88
869.625	54.78
869.799	95.74
869.972	-14.85
870.145	48.64
870.319	34.3
870.492	36.35
870.665	19.97
870.838	-35.33
871.011	22.02
871.185	-10.75
871.358	17.92
871.531	22.02
871.704	52.74
871.877	58.88
872.05	-35.33
872.223	17.92
872.396	28.16
872.569	1.54
872.742	3.58
872.915	-2.56
873.088	3.58
873.261	7.68
873.434	65.02
873.607	26.11
873.78	-0.51
873.953	163.33
874.126	-18.94
874.299	46.59
874.471	30.21
874.644	7.68
874.817	44.54
874.99	69.12
875.163	-43.52
875.335	58.88
875.508	15.87
875.681	48.64
875.853	30.21
876.026	32.26
876.199	87.55
876.371	9.73
876.544	85.5
876.717	3.58
876.889	54.78
877.062	40.45
877.234	3.58
877.407	34.3
877.579	15.87
877.752	11.78
877.924	62.98
878.097	87.55
878.269	108.03
878.442	73.21
878.614	67.07
878.786	11.78
878.959	5.63
879.131	71.17
879.303	-33.28
879.476	69.12
879.648	38.4
879.82	54.78
879.993	30.21
880.165	44.54
880.337	26.11
880.509	48.64
880.681	38.4
880.854	5.63
881.026	44.54
881.198	79.36
881.37	95.74
881.542	46.59
881.714	38.4
881.886	-4.61
882.058	71.17
882.23	46.59
882.402	-59.9
882.574	5.63
882.746	-33.28
882.918	58.88
883.09	24.06
883.262	24.06
883.434	-0.51
883.606	77.31
883.778	24.06
883.95	50.69
884.122	-12.8
884.293	48.64
884.465	-35.33
884.637	-2.56
884.809	-84.48
884.98	79.36
885.152	58.88
885.324	114.17
885.496	105.98
885.667	52.74
885.839	-25.09
886.011	118.27
886.182	-8.7
886.354	54.78
886.525	30.21
886.697	48.64
886.869	-35.33
887.04	11.78
887.212	32.26
887.383	19.97
887.555	44.54
887.726	-0.51
887.897	-27.14
888.069	56.83
888.24	38.4
888.412	9.73
888.583	5.63
888.754	87.55
888.926	58.88
889.097	81.41
889.268	52.74
889.44	34.3
889.611	1.54
889.782	40.45
889.953	7.68
890.125	108.03
890.296	11.78
890.467	5.63
890.638	-25.09
890.809	60.93
890.98	-49.66
891.151	11.78
891.323	-6.66
891.494	15.87
891.665	134.65
891.836	54.78
892.007	-0.51
892.178	-2.56
892.349	13.82
892.52	30.21
892.691	32.26
892.862	48.64
893.032	36.35
893.203	24.06
893.374	11.78
893.545	7.68
893.716	-82.43
893.887	67.07
894.057	48.64
894.228	5.63
894.399	46.59
894.57	22.02
894.74	89.6
894.911	34.3
895.082	-6.66
895.253	-0.51
895.423	22.02
895.594	-6.66
895.764	58.88
895.935	36.35
896.106	52.74
896.276	17.92
896.447	13.82
896.617	13.82
896.788	7.68
896.958	38.4
897.129	-57.86
897.299	30.21
897.47	58.88
897.64	15.87
897.81	-29.18
897.981	5.63
898.151	40.45
898.322	7.68
898.492	-0.51
898.662	7.68
898.832	-68.09
899.003	28.16
899.173	30.21
899.343	60.93
899.513	5.63
