Data from USB4F104151__91__13-54-31-590.txt Node

Date: Thu Mar 13 13:54:31 EDT 2025
User: louis
Spectrometer: USB4F10415
Trigger mode: 4
Integration Time (sec): 1.000000E-2
Scans to average: 1
Electric dark correction enabled: true
Nonlinearity correction enabled: false
Boxcar width: 0
XAxis mode: Wavelengths
Number of Pixels in Spectrum: 3648
>>>>>Begin Spectral Data<<<<<
178.204	-2.9
178.424	-2.9
178.644	-2.9
178.864	-39.76
179.084	-43.86
179.304	7.34
179.524	19.63
179.744	25.77
179.964	46.25
180.184	-17.24
180.404	-60.24
180.624	15.53
180.844	-72.53
181.064	-13.14
181.283	27.82
181.503	19.63
181.723	1.19
181.943	-95.06
182.163	93.35
182.383	17.58
182.602	-41.81
182.822	5.29
183.042	119.98
183.262	23.72
183.482	7.34
183.701	27.82
183.921	46.25
184.141	42.15
184.361	136.36
184.58	46.25
184.8	42.15
185.02	15.53
185.239	19.63
185.459	58.54
185.679	44.2
185.898	17.58
186.118	31.91
186.338	91.31
186.557	52.39
186.777	-62.29
186.997	50.35
187.216	31.91
187.436	9.39
187.655	33.96
187.875	56.49
188.095	-11.09
188.314	23.72
188.534	46.25
188.753	-17.24
188.973	21.67
189.192	-21.33
189.412	-11.09
189.631	9.39
189.851	-7
190.07	-11.09
190.29	-50
190.509	81.07
190.729	-35.67
190.948	64.68
191.168	117.93
191.387	25.77
191.607	21.67
191.826	-19.29
192.045	-13.14
192.265	15.53
192.484	7.34
192.704	-70.48
192.923	54.44
193.142	-7
193.362	31.91
193.581	72.87
193.8	-13.14
194.02	15.53
194.239	74.92
194.458	33.96
194.678	-21.33
194.897	48.3
195.116	60.59
195.335	-23.38
195.555	23.72
195.774	91.31
195.993	1.19
196.212	113.83
196.432	42.15
196.651	58.54
196.87	1.19
197.089	66.73
197.308	60.59
197.528	13.48
197.747	64.68
197.966	15.53
198.185	-13.14
198.404	87.21
198.623	5.29
198.842	1.19
199.062	56.49
199.281	40.11
199.5	-17.24
199.719	23.72
199.938	72.87
200.157	23.72
200.376	-33.62
200.595	64.68
200.814	-9.05
201.033	19.63
201.252	36.01
201.471	60.59
201.69	17.58
201.909	9.39
202.128	1.19
202.347	-2.9
202.566	19.63
202.785	93.35
203.004	-47.96
203.223	89.26
203.442	50.35
203.661	68.78
203.879	46.25
204.098	64.68
204.317	54.44
204.536	64.68
204.755	-35.67
204.974	64.68
205.193	48.3
205.411	21.67
205.63	-35.67
205.849	46.25
206.068	64.68
206.287	85.16
206.505	62.63
206.724	101.55
206.943	36.01
207.162	-9.05
207.381	38.06
207.599	23.72
207.818	31.91
208.037	83.11
208.255	36.01
208.474	38.06
208.693	58.54
208.911	79.02
209.13	68.78
209.349	66.73
209.567	31.91
209.786	33.96
210.005	62.63
210.223	56.49
210.442	62.63
210.661	48.3
210.879	-33.62
211.098	33.96
211.316	126.12
211.535	21.67
211.753	5.29
211.972	13.48
212.191	9.39
212.409	58.54
212.628	62.63
212.846	25.77
213.065	38.06
213.283	76.97
213.502	-13.14
213.72	11.43
213.938	13.48
214.157	64.68
214.375	9.39
214.594	-37.72
214.812	60.59
215.031	29.87
215.249	-41.81
215.467	46.25
215.686	74.92
215.904	40.11
216.122	48.3
216.341	21.67
216.559	72.87
216.778	-4.95
216.996	76.97
217.214	44.2
217.432	21.67
217.651	17.58
217.869	13.48
218.087	60.59
218.306	42.15
218.524	36.01
218.742	44.2
218.96	113.83
219.179	58.54
219.397	56.49
219.615	48.3
219.833	72.87
220.051	56.49
220.27	19.63
220.488	27.82
220.706	-11.09
220.924	-11.09
221.142	29.87
221.36	38.06
221.578	-17.24
221.796	-11.09
222.015	-9.05
222.233	-0.85
222.451	95.4
222.669	50.35
222.887	83.11
223.105	-64.34
223.323	64.68
223.541	-4.95
223.759	54.44
223.977	21.67
224.195	54.44
224.413	31.91
224.631	58.54
224.849	21.67
225.067	38.06
225.285	23.72
225.503	81.07
225.721	52.39
225.939	25.77
226.157	42.15
226.375	50.35
226.592	38.06
226.81	13.48
227.028	68.78
227.246	9.39
227.464	25.77
227.682	46.25
227.9	60.59
228.117	54.44
228.335	-17.24
228.553	19.63
228.771	42.15
228.989	48.3
229.206	-23.38
229.424	29.87
229.642	9.39
229.86	44.2
230.077	76.97
230.295	15.53
230.513	23.72
230.731	-41.81
230.948	13.48
231.166	15.53
231.384	48.3
231.601	-37.72
231.819	42.15
232.037	29.87
232.254	66.73
232.472	13.48
232.689	48.3
232.907	23.72
233.125	-29.52
233.342	70.83
233.56	48.3
233.777	64.68
233.995	27.82
234.213	89.26
234.43	-2.9
234.648	-31.57
234.865	-41.81
235.083	101.55
235.3	11.43
235.518	95.4
235.735	15.53
235.953	72.87
236.17	-23.38
236.388	101.55
236.605	48.3
236.822	68.78
237.04	-7
237.257	31.91
237.475	1.19
237.692	5.29
237.909	21.67
238.127	58.54
238.344	48.3
238.562	-0.85
238.779	3.24
238.996	36.01
239.214	29.87
239.431	44.2
239.648	17.58
239.865	70.83
240.083	3.24
240.3	27.82
240.517	-41.81
240.735	46.25
240.952	56.49
241.169	52.39
241.386	48.3
241.603	46.25
241.821	-41.81
242.038	72.87
242.255	50.35
242.472	3.24
242.689	50.35
242.907	19.63
243.124	-11.09
243.341	56.49
243.558	50.35
243.775	-9.05
243.992	-0.85
244.209	56.49
244.426	33.96
244.643	19.63
244.86	70.83
245.078	-7
245.295	48.3
245.512	-13.14
245.729	111.78
245.946	60.59
246.163	5.29
246.38	87.21
246.597	56.49
246.814	42.15
247.031	-19.29
247.248	42.15
247.464	44.2
247.681	42.15
247.898	52.39
248.115	40.11
248.332	-15.19
248.549	-25.43
248.766	101.55
248.983	62.63
249.2	25.77
249.417	23.72
249.633	48.3
249.85	54.44
250.067	19.63
250.284	56.49
250.501	46.25
250.717	38.06
250.934	-64.34
251.151	81.07
251.368	1.19
251.585	64.68
251.801	40.11
252.018	81.07
252.235	64.68
252.451	40.11
252.668	36.01
252.885	48.3
253.102	-9.05
253.318	97.45
253.535	21.67
253.752	38.06
253.968	62.63
254.185	5.29
254.401	54.44
254.618	21.67
254.835	33.96
255.051	50.35
255.268	1.19
255.484	-15.19
255.701	-54.1
255.917	-27.48
256.134	56.49
256.351	72.87
256.567	-17.24
256.784	81.07
257	-13.14
257.217	13.48
257.433	42.15
257.65	64.68
257.866	87.21
258.082	66.73
258.299	-50
258.515	33.96
258.732	11.43
258.948	9.39
259.165	33.96
259.381	48.3
259.597	46.25
259.814	9.39
260.03	79.02
260.246	3.24
260.463	56.49
260.679	-2.9
260.895	48.3
261.112	76.97
261.328	9.39
261.544	27.82
261.761	52.39
261.977	-0.85
262.193	11.43
262.409	21.67
262.626	-72.53
262.842	54.44
263.058	5.29
263.274	40.11
263.49	93.35
263.707	74.92
263.923	-37.72
264.139	7.34
264.355	72.87
264.571	17.58
264.787	79.02
265.004	107.69
265.22	70.83
265.436	27.82
265.652	-37.72
265.868	19.63
266.084	60.59
266.3	3.24
266.516	21.67
266.732	42.15
266.948	31.91
267.164	25.77
267.38	29.87
267.596	107.69
267.812	64.68
268.028	87.21
268.244	46.25
268.46	52.39
268.676	19.63
268.892	-27.48
269.108	50.35
269.324	-58.2
269.54	-17.24
269.756	17.58
269.972	25.77
270.188	52.39
270.403	-9.05
270.619	5.29
270.835	25.77
271.051	62.63
271.267	15.53
271.483	40.11
271.698	1.19
271.914	13.48
272.13	31.91
272.346	-21.33
272.562	48.3
272.777	70.83
272.993	33.96
273.209	64.68
273.425	105.64
273.64	19.63
273.856	44.2
274.072	46.25
274.287	23.72
274.503	54.44
274.719	-31.57
274.934	52.39
275.15	38.06
275.366	46.25
275.581	11.43
275.797	76.97
276.012	-35.67
276.228	-21.33
276.444	-9.05
276.659	99.5
276.875	95.4
277.09	27.82
277.306	5.29
277.521	52.39
277.737	64.68
277.952	-0.85
278.168	19.63
278.383	66.73
278.599	19.63
278.814	-33.62
279.03	33.96
279.245	38.06
279.461	-11.09
279.676	33.96
279.892	-15.19
280.107	27.82
280.322	56.49
280.538	68.78
280.753	-45.91
280.969	40.11
281.184	72.87
281.399	48.3
281.615	38.06
281.83	21.67
282.045	68.78
282.26	85.16
282.476	25.77
282.691	99.5
282.906	15.53
283.122	25.77
283.337	17.58
283.552	42.15
283.767	9.39
283.983	50.35
284.198	107.69
284.413	-41.81
284.628	46.25
284.843	31.91
285.058	9.39
285.274	87.21
285.489	54.44
285.704	-13.14
285.919	33.96
286.134	46.25
286.349	52.39
286.564	5.29
286.779	-27.48
286.995	19.63
287.21	17.58
287.425	130.22
287.64	52.39
287.855	25.77
288.07	13.48
288.285	23.72
288.5	15.53
288.715	36.01
288.93	27.82
289.145	19.63
289.36	56.49
289.575	-4.95
289.79	105.64
290.004	33.96
290.219	-25.43
290.434	-4.95
290.649	-0.85
290.864	1.19
291.079	19.63
291.294	15.53
291.509	38.06
291.724	13.48
291.938	25.77
292.153	23.72
292.368	60.59
292.583	-9.05
292.798	-25.43
293.012	31.91
293.227	17.58
293.442	144.55
293.657	-13.14
293.871	93.35
294.086	15.53
294.301	15.53
294.516	48.3
294.73	97.45
294.945	27.82
295.16	31.91
295.374	42.15
295.589	33.96
295.804	60.59
296.018	46.25
296.233	74.92
296.447	48.3
296.662	-39.76
296.877	44.2
297.091	17.58
297.306	-23.38
297.52	62.63
297.735	25.77
297.949	87.21
298.164	-2.9
298.378	21.67
298.593	50.35
298.807	91.31
299.022	105.64
299.236	44.2
299.451	56.49
299.665	-29.52
299.88	54.44
300.094	-33.62
300.309	60.59
300.523	58.54
300.737	-7
300.952	36.01
301.166	-0.85
301.381	1.19
301.595	36.01
301.809	60.59
302.024	68.78
302.238	-15.19
302.452	60.59
302.667	46.25
302.881	122.02
303.095	52.39
303.309	-47.96
303.524	38.06
303.738	38.06
303.952	60.59
304.166	36.01
304.381	-2.9
304.595	107.69
304.809	-25.43
305.023	15.53
305.237	25.77
305.452	36.01
305.666	9.39
305.88	17.58
306.094	31.91
306.308	76.97
306.522	27.82
306.736	109.74
306.95	21.67
307.164	-9.05
307.379	60.59
307.593	-4.95
307.807	-11.09
308.021	52.39
308.235	44.2
308.449	17.58
308.663	-29.52
308.877	44.2
309.091	15.53
309.305	122.02
309.519	85.16
309.733	-0.85
309.947	33.96
310.161	76.97
310.374	31.91
310.588	21.67
310.802	9.39
311.016	91.31
311.23	158.89
311.444	3.24
311.658	13.48
311.872	33.96
312.085	40.11
312.299	74.92
312.513	119.98
312.727	23.72
312.941	54.44
313.154	13.48
313.368	13.48
313.582	13.48
313.796	48.3
314.009	54.44
314.223	64.68
314.437	81.07
314.651	5.29
314.864	-2.9
315.078	54.44
315.292	15.53
315.505	42.15
315.719	31.91
315.933	46.25
316.146	15.53
316.36	40.11
316.573	29.87
316.787	111.78
317.001	68.78
317.214	5.29
317.428	21.67
317.641	1.19
317.855	33.96
318.068	-4.95
318.282	44.2
318.495	23.72
318.709	76.97
318.922	36.01
319.136	52.39
319.349	33.96
319.563	5.29
319.776	15.53
319.99	36.01
320.203	50.35
320.417	15.53
320.63	31.91
320.843	89.26
321.057	-4.95
321.27	58.54
321.483	-7
321.697	72.87
321.91	5.29
322.124	46.25
322.337	25.77
322.55	46.25
322.763	25.77
322.977	113.83
323.19	52.39
323.403	-7
323.617	7.34
323.83	23.72
324.043	9.39
324.256	9.39
324.469	29.87
324.683	-29.52
324.896	27.82
325.109	46.25
325.322	50.35
325.535	44.2
325.748	54.44
325.962	7.34
326.175	29.87
326.388	62.63
326.601	27.82
326.814	5.29
327.027	-2.9
327.24	21.67
327.453	-9.05
327.666	27.82
327.879	81.07
328.092	48.3
328.305	-11.09
328.518	62.63
328.731	58.54
328.944	72.87
329.157	48.3
329.37	31.91
329.583	38.06
329.796	-17.24
330.009	9.39
330.222	7.34
330.435	62.63
330.648	74.92
330.861	89.26
331.073	101.55
331.286	40.11
331.499	33.96
331.712	36.01
331.925	29.87
332.138	89.26
332.35	19.63
332.563	-0.85
332.776	17.58
332.989	93.35
333.202	5.29
333.414	7.34
333.627	31.91
333.84	36.01
334.053	-9.05
334.265	60.59
334.478	66.73
334.691	46.25
334.903	36.01
335.116	42.15
335.329	15.53
335.541	54.44
335.754	76.97
335.966	-29.52
336.179	81.07
336.392	15.53
336.604	54.44
336.817	11.43
337.029	7.34
337.242	-4.95
337.454	52.39
337.667	56.49
337.88	27.82
338.092	36.01
338.305	52.39
338.517	48.3
338.729	38.06
338.942	74.92
339.154	130.22
339.367	-25.43
339.579	70.83
339.792	79.02
340.004	58.54
340.217	36.01
340.429	9.39
340.641	7.34
340.854	25.77
341.066	23.72
341.278	3.24
341.491	87.21
341.703	17.58
341.915	79.02
342.128	40.11
342.34	-0.85
342.552	-17.24
342.764	-15.19
342.977	-4.95
343.189	107.69
343.401	50.35
343.613	38.06
343.826	31.91
344.038	9.39
344.25	15.53
344.462	-0.85
344.674	-13.14
344.886	-0.85
345.099	42.15
345.311	64.68
345.523	79.02
345.735	7.34
345.947	38.06
346.159	-15.19
346.371	44.2
346.583	11.43
346.795	89.26
347.007	-13.14
347.219	27.82
347.431	89.26
347.643	85.16
347.855	99.5
348.067	25.77
348.279	7.34
348.491	132.26
348.703	46.25
348.915	29.87
349.127	38.06
349.339	74.92
349.551	87.21
349.763	-17.24
349.975	70.83
350.187	15.53
350.399	-35.67
350.61	-35.67
350.822	31.91
351.034	44.2
351.246	15.53
351.458	99.5
351.669	19.63
351.881	5.29
352.093	64.68
352.305	21.67
352.517	-2.9
352.728	5.29
352.94	23.72
353.152	48.3
353.363	83.11
353.575	156.84
353.787	95.4
353.999	99.5
354.21	83.11
354.422	124.07
354.633	-25.43
354.845	17.58
355.057	36.01
355.268	-4.95
355.48	58.54
355.692	38.06
355.903	36.01
356.115	58.54
356.326	74.92
356.538	7.34
356.749	62.63
356.961	25.77
357.172	21.67
357.384	23.72
357.595	31.91
357.807	105.64
358.018	95.4
358.23	64.68
358.441	101.55
358.653	72.87
358.864	7.34
359.075	29.87
359.287	9.39
359.498	33.96
359.709	46.25
359.921	-4.95
360.132	42.15
360.344	38.06
360.555	27.82
360.766	83.11
360.977	25.77
361.189	52.39
361.4	-19.29
361.611	85.16
361.823	54.44
362.034	54.44
362.245	23.72
362.456	79.02
362.667	33.96
362.879	17.58
363.09	15.53
363.301	72.87
363.512	25.77
363.723	85.16
363.935	-58.2
364.146	33.96
364.357	-13.14
364.568	83.11
364.779	19.63
364.99	44.2
365.201	91.31
365.412	132.26
365.623	113.83
365.834	38.06
366.045	19.63
366.256	23.72
366.467	50.35
366.678	76.97
366.889	1.19
367.1	81.07
367.311	95.4
367.522	-23.38
367.733	105.64
367.944	38.06
368.155	9.39
368.366	40.11
368.577	81.07
368.788	54.44
368.999	25.77
369.209	44.2
369.42	91.31
369.631	64.68
369.842	62.63
370.053	74.92
370.264	21.67
370.474	99.5
370.685	42.15
370.896	-21.33
371.107	13.48
371.317	72.87
371.528	15.53
371.739	40.11
371.95	23.72
372.16	25.77
372.371	9.39
372.582	27.82
372.792	44.2
373.003	62.63
373.214	54.44
373.424	107.69
373.635	42.15
373.846	76.97
374.056	-25.43
374.267	25.77
374.477	50.35
374.688	29.87
374.898	48.3
375.109	-84.82
375.319	-0.85
375.53	58.54
375.74	7.34
375.951	-13.14
376.161	1.19
376.372	79.02
376.582	83.11
376.793	74.92
377.003	-2.9
377.214	74.92
377.424	44.2
377.635	19.63
377.845	-9.05
378.055	31.91
378.266	-0.85
378.476	15.53
378.686	62.63
378.897	83.11
379.107	9.39
379.317	91.31
379.528	70.83
379.738	1.19
379.948	60.59
380.158	85.16
380.369	-2.9
380.579	-15.19
380.789	64.68
380.999	54.44
381.21	79.02
381.42	158.89
381.63	36.01
381.84	107.69
382.05	40.11
382.261	33.96
382.471	48.3
382.681	89.26
382.891	79.02
383.101	79.02
383.311	-62.29
383.521	52.39
383.731	83.11
383.941	56.49
384.151	50.35
384.361	19.63
384.571	29.87
384.781	9.39
384.991	50.35
385.201	105.64
385.411	56.49
385.621	-23.38
385.831	113.83
386.041	81.07
386.251	27.82
386.461	54.44
386.671	93.35
386.881	68.78
387.091	7.34
387.301	60.59
387.511	50.35
387.72	15.53
387.93	74.92
388.14	-29.52
388.35	54.44
388.56	-31.57
388.769	97.45
388.979	64.68
389.189	36.01
389.399	38.06
389.609	52.39
389.818	58.54
390.028	13.48
390.238	130.22
390.447	42.15
390.657	21.67
390.867	79.02
391.076	-0.85
391.286	27.82
391.496	81.07
391.705	17.58
391.915	111.78
392.125	74.92
392.334	79.02
392.544	68.78
392.753	115.88
392.963	64.68
393.172	117.93
393.382	95.4
393.591	25.77
393.801	7.34
394.01	95.4
394.22	23.72
394.429	66.73
394.639	101.55
394.848	52.39
395.058	72.87
395.267	62.63
395.477	109.74
395.686	56.49
395.895	79.02
396.105	66.73
396.314	81.07
396.524	25.77
396.733	40.11
396.942	76.97
397.152	68.78
397.361	36.01
397.57	9.39
397.78	134.31
397.989	99.5
398.198	132.26
398.407	97.45
398.617	50.35
398.826	60.59
399.035	187.56
399.244	130.22
399.453	36.01
399.663	81.07
399.872	33.96
400.081	83.11
400.29	74.92
400.499	36.01
400.708	74.92
400.917	109.74
401.127	97.45
401.336	13.48
401.545	107.69
401.754	52.39
401.963	52.39
402.172	107.69
402.381	97.45
402.59	48.3
402.799	48.3
403.008	29.87
403.217	142.5
403.426	44.2
403.635	15.53
403.844	113.83
404.053	58.54
404.262	115.88
404.471	50.35
404.68	36.01
404.888	74.92
405.097	25.77
405.306	130.22
405.515	115.88
405.724	107.69
405.933	89.26
406.142	107.69
406.35	74.92
406.559	117.93
406.768	103.59
406.977	195.75
407.185	101.55
407.394	156.84
407.603	70.83
407.812	154.79
408.02	72.87
408.229	158.89
408.438	132.26
408.646	101.55
408.855	97.45
409.064	119.98
409.272	107.69
409.481	113.83
409.69	134.31
409.898	140.46
410.107	169.13
410.315	124.07
410.524	185.51
410.733	210.09
410.941	175.27
411.15	158.89
411.358	216.23
411.567	226.47
411.775	156.84
411.984	281.77
412.192	185.51
412.401	273.57
412.609	212.14
412.818	249
413.026	228.52
413.234	253.09
413.443	195.75
413.651	259.24
413.86	222.38
414.068	324.77
414.276	271.53
414.485	267.43
414.693	292.01
414.901	316.58
415.11	365.73
415.318	402.6
415.526	365.73
415.734	369.83
415.943	382.12
416.151	392.36
416.359	382.12
416.567	449.7
416.776	498.85
416.984	474.28
417.192	447.65
417.4	498.85
417.608	443.56
417.817	588.96
418.025	490.66
418.233	605.35
418.441	591.01
418.649	582.82
418.857	664.74
419.065	615.59
419.273	629.92
419.481	584.87
419.689	695.46
419.897	660.64
420.105	758.94
420.313	707.74
420.521	687.26
420.729	765.09
420.937	754.85
421.145	789.66
421.353	863.39
421.561	988.32
421.769	873.63
421.977	945.31
422.185	892.06
422.393	996.51
422.601	1141.91
422.809	1107.1
423.017	1066.14
423.224	1137.82
423.432	1197.21
423.64	1186.97
423.848	1279.13
424.056	1283.22
424.263	1350.81
424.471	1283.22
424.679	1342.61
424.887	1391.77
425.094	1494.16
425.302	1385.62
425.51	1633.43
425.718	1602.71
425.925	1653.91
426.133	1664.15
426.341	1723.54
426.548	1920.14
426.756	1852.56
426.964	1797.26
427.171	1911.95
427.379	2000.01
427.586	2077.83
427.794	2129.03
428.001	2219.14
428.209	2393.22
428.417	2235.53
428.624	2440.33
428.832	2434.18
429.039	2378.89
429.247	2296.97
429.454	2610.31
429.662	2706.56
429.869	2620.55
430.076	2782.34
430.284	2720.9
430.491	2837.63
430.699	2991.23
430.906	2935.93
431.114	3030.14
431.321	3064.96
431.528	3275.9
431.736	3216.51
431.943	3601.52
432.15	3599.48
432.358	3533.94
432.565	3550.32
432.772	3630.2
432.979	3945.58
433.187	3900.53
433.394	3943.53
433.601	4195.43
433.808	4123.76
434.016	4215.91
434.223	4363.37
434.43	4578.4
434.637	4488.29
434.844	4764.77
435.052	5002.33
435.259	4928.61
435.466	5114.97
435.673	4916.32
435.88	5231.71
436.087	5461.08
436.294	5473.37
436.501	5512.28
436.708	5499.99
436.915	5596.25
437.122	5760.08
437.329	5928.02
437.537	5901.39
437.743	6257.74
437.95	6118.48
438.157	6442.06
438.364	6704.2
438.571	6609.99
438.778	6595.65
438.985	7435.32
439.192	6868.03
439.399	7248.96
439.606	6970.43
439.813	7386.17
440.02	7971.89
440.227	7719.99
440.433	7613.49
440.64	7883.83
440.847	7928.88
441.054	8186.93
441.261	8565.8
441.467	8381.48
441.674	8764.45
441.881	9026.59
442.088	8989.73
442.294	8926.24
442.501	9104.42
442.708	9331.74
442.914	9643.03
443.121	10173.46
443.328	9733.14
443.534	10515.47
443.741	10056.72
443.948	10181.65
444.154	10748.93
444.361	10763.27
444.568	10837
444.774	10701.83
444.981	11035.65
445.187	11224.06
445.394	11652.09
445.6	11437.05
445.807	12686.31
446.013	12190.7
446.22	12157.94
446.426	12827.62
446.633	12706.79
446.839	13235.17
447.046	12721.13
447.252	13224.93
447.459	13497.31
447.665	13611.99
447.871	14105.56
448.078	14711.75
448.284	13855.7
448.491	14269.39
448.697	14863.3
448.903	15043.53
449.11	15111.11
449.316	14955.46
449.522	15219.65
449.728	15514.56
449.935	15664.06
450.141	15793.08
450.347	15836.09
450.553	15354.82
450.76	15690.68
450.966	16128.95
451.172	15891.38
451.378	16325.55
451.584	15948.73
451.791	16266.16
451.997	16483.25
452.203	16520.11
452.409	16663.47
452.615	16386.99
452.821	15879.1
453.027	15514.56
453.233	16341.94
453.44	15995.83
453.646	15983.54
453.852	16278.45
454.058	16231.35
454.264	15893.43
454.47	16255.92
454.676	15948.73
454.882	16397.23
455.088	14777.29
455.294	14904.26
455.5	15121.35
455.705	15215.55
455.911	14980.04
456.117	14330.83
456.323	14394.32
456.529	13386.72
456.735	14076.88
456.941	13775.83
457.147	13577.18
457.352	13050.85
457.558	12844.01
457.764	12903.4
457.97	12665.83
458.176	12372.97
458.381	12495.85
458.587	11781.11
458.793	11641.85
458.999	11269.12
459.204	11803.64
459.41	11555.83
459.616	10773.51
459.821	10906.63
460.027	10712.07
460.233	10351.63
460.438	10177.55
460.644	10345.48
460.85	9655.32
461.055	9528.35
461.261	9544.73
461.466	8920.1
461.672	8434.73
461.878	9403.42
462.083	8522.79
462.289	8512.55
462.494	8299.56
462.7	8010.8
462.905	7894.07
463.111	8062
463.316	8088.62
463.522	8150.06
463.727	7887.92
463.932	8014.9
464.138	7881.78
464.343	8039.47
464.549	7691.32
464.754	7994.42
464.959	8100.91
465.165	7883.83
465.37	7496.76
465.575	7410.75
465.781	7699.51
465.986	7652.41
466.191	7408.7
466.397	7298.11
466.602	6814.79
466.807	7031.87
467.012	7244.86
467.218	7095.36
467.423	6929.47
467.628	7169.09
467.833	7482.42
468.038	7234.62
468.244	6863.94
468.449	7109.69
468.654	6960.19
468.859	6806.59
469.064	7052.35
469.269	6505.54
469.474	6630.47
469.679	6642.76
469.885	6745.16
470.09	6708.29
470.295	6556.74
470.5	6581.32
470.705	6464.58
470.91	6360.14
471.115	6397
471.32	6302.79
471.525	6419.53
471.73	6194.25
471.935	6110.29
472.139	5950.54
472.344	5956.69
472.549	5819.47
472.754	5930.06
472.959	5600.34
473.164	5561.43
473.369	5688.4
473.574	5743.7
473.778	5721.17
473.983	5534.81
474.188	5768.27
474.393	5360.73
474.598	5538.9
474.802	5403.74
475.007	5264.47
475.212	5456.98
475.417	5022.81
475.621	5020.77
475.826	5168.22
476.031	4998.24
476.235	5004.38
476.44	5207.13
476.645	5063.77
476.849	4951.14
477.054	4975.71
477.259	4877.41
477.463	4906.08
477.668	4752.48
477.872	4795.49
478.077	4629.6
478.282	4459.62
478.486	4619.36
478.691	4490.34
478.895	4525.16
479.1	4549.73
479.304	4418.66
479.509	4416.62
479.713	4535.4
479.918	4295.79
480.122	4263.02
480.326	4484.2
480.531	4406.38
480.735	4367.46
480.94	4244.59
481.144	4273.26
481.348	4183.15
481.553	4086.89
481.757	4183.15
481.961	4289.64
482.166	4289.64
482.37	4224.11
482.574	4201.58
482.778	4230.25
482.983	4154.48
483.187	3970.16
483.391	4203.63
483.595	4299.88
483.8	4017.26
484.004	4195.43
484.208	4211.82
484.412	4297.83
484.616	4273.26
484.821	4074.6
485.025	4181.1
485.229	4179.05
485.433	4109.42
485.637	4066.41
485.841	4017.26
486.045	4136.04
486.249	4217.96
486.453	4035.69
486.657	4158.57
486.861	4256.87
487.065	4080.75
487.269	4191.34
487.473	4162.67
487.677	4109.42
487.881	4260.97
488.085	4121.71
488.289	4265.07
488.493	4146.28
488.697	4187.24
488.901	4150.38
489.105	4199.53
489.309	4283.5
489.512	4222.06
489.716	4244.59
489.92	4211.82
490.124	4220.01
490.328	4250.73
490.531	4320.36
490.735	4299.88
490.939	4322.41
491.143	4400.23
491.346	4383.85
491.55	4457.57
491.754	4308.07
491.958	4349.03
492.161	4430.95
492.365	4441.19
492.569	4482.15
492.772	4336.74
492.976	4510.82
493.18	4570.21
493.383	4441.19
493.587	4613.22
493.79	4643.94
493.994	4744.29
494.197	4527.21
494.401	4723.81
494.605	4746.34
494.808	4668.52
495.012	4861.02
495.215	4887.65
495.419	4815.97
495.622	4959.33
495.825	4994.14
496.029	4924.51
496.232	4922.46
496.436	4959.33
496.639	5164.12
496.843	5211.23
497.046	5291.1
497.249	5282.91
497.453	5344.35
497.656	5571.67
497.859	5454.94
498.063	5569.62
498.266	5381.21
498.469	5557.33
498.673	5645.4
498.876	5637.2
499.079	5784.66
499.282	5811.28
499.485	5962.83
499.689	5805.14
499.892	6069.33
500.095	6087.76
500.298	6274.12
500.501	6112.33
500.705	6241.36
500.908	6538.31
501.111	6472.78
501.314	6612.04
501.517	6597.7
501.72	6511.69
501.923	6685.76
502.126	6843.46
502.329	6978.62
502.532	7029.82
502.735	7068.73
502.938	7246.91
503.141	7388.22
503.344	7482.42
503.547	7341.11
503.75	7466.04
503.953	7697.46
504.156	7736.37
504.359	7756.85
504.562	7820.34
504.765	8215.6
504.968	8027.18
505.17	8246.32
505.373	8283.18
505.576	8496.17
505.779	8549.42
505.982	8545.32
506.185	8774.69
506.387	8836.13
506.59	8965.15
506.793	8995.87
506.996	9116.7
507.198	9223.2
507.401	9327.64
507.604	9427.99
507.807	9659.42
508.009	9632.79
508.212	9919.51
508.415	9929.75
508.617	10232.85
508.82	10042.39
509.022	10140.69
509.225	10429.45
509.428	10505.23
509.63	10744.84
509.833	10681.35
510.035	10998.79
510.238	10994.69
510.44	11320.32
510.643	11265.02
510.845	11482.11
511.048	11578.36
511.25	11734.01
511.453	11764.73
511.655	12258.29
511.858	12256.24
512.06	12305.39
512.262	12338.16
512.465	12317.68
512.667	12831.72
512.87	12547.05
513.072	12805.1
513.274	13345.76
513.477	13226.98
513.679	13536.22
513.881	13650.91
514.084	13781.98
514.286	13636.57
514.488	13951.96
514.69	14277.58
514.893	14463.95
515.095	14574.54
515.297	14760.91
515.499	14681.03
515.701	14982.09
515.904	15248.32
516.106	15338.43
516.308	15666.11
516.51	15436.74
516.712	15821.75
516.914	15893.43
517.116	16350.13
517.318	16317.36
517.52	16354.23
517.722	16507.82
517.925	16497.58
518.127	17079.21
518.329	17109.93
518.531	17124.26
518.733	17427.36
518.935	17851.29
519.136	17675.16
519.338	18103.19
519.54	17970.07
519.742	18580.37
519.944	18381.71
520.146	18920.33
520.348	18934.67
520.55	19213.19
520.752	18779.02
520.954	19764.09
521.155	19495.81
521.357	19950.46
521.559	19954.55
521.761	20327.28
521.963	20448.11
522.164	20589.42
522.366	20566.9
522.568	20724.59
522.77	20890.48
522.971	21234.53
523.173	21216.1
523.375	21511.01
523.576	21582.69
523.778	21738.33
523.98	21824.35
524.181	21846.88
524.383	21945.18
524.584	22500.18
524.786	22448.98
524.988	22117.21
525.189	22713.17
525.391	22795.09
525.592	22999.88
525.794	23016.27
525.995	23051.08
526.197	23331.65
526.398	23536.45
526.6	23411.53
526.801	23718.72
527.003	23839.55
527.204	23849.79
527.406	24064.83
527.607	23960.38
527.808	24320.82
528.01	23890.75
528.211	23710.53
528.412	24922.93
528.614	24572.72
528.815	24773.42
529.016	24828.72
529.218	24861.49
529.419	24750.9
529.62	25142.06
529.822	24582.96
530.023	24732.47
530.224	24724.27
530.425	25121.58
530.626	24646.45
530.828	24924.97
531.029	25910.05
531.23	25344.81
531.431	25228.07
531.632	25262.89
531.833	25611.04
532.035	25391.91
532.236	25381.67
532.437	25531.17
532.638	25281.32
532.839	25617.19
533.04	26073.88
533.241	25518.89
533.442	25932.57
533.643	25746.21
533.844	25717.54
534.045	25920.29
534.246	25684.77
534.447	25883.42
534.648	25807.65
534.849	26000.16
535.05	25961.25
535.251	25619.24
535.451	26149.66
535.652	26024.73
535.853	25688.87
536.054	26327.83
536.255	26125.08
536.456	25914.14
536.657	26264.35
536.857	26016.54
537.058	25912.1
537.259	26653.46
537.46	26317.59
537.66	26010.4
537.861	26354.46
538.062	26295.07
538.263	26295.07
538.463	26137.37
538.664	26110.75
538.865	25832.22
539.065	26450.71
539.266	25688.87
539.466	26141.47
539.667	25953.05
539.868	26323.74
540.068	26350.36
540.269	26250.01
540.469	26092.32
540.67	26141.47
540.87	25973.53
541.071	26428.18
541.271	26170.14
541.472	26120.99
541.672	26090.27
541.873	26041.12
542.073	25789.22
542.274	26604.31
542.474	26102.56
542.675	26075.93
542.875	26344.22
543.075	26342.17
543.276	25781.03
543.476	26325.78
543.676	26204.95
543.877	26241.82
544.077	26196.76
544.277	25934.62
544.478	26223.39
544.678	26164
544.878	25953.05
545.078	26192.67
545.279	25815.84
545.479	25996.06
545.679	26229.53
545.879	25981.73
546.079	26211.1
546.28	25989.92
546.48	25940.77
546.68	26118.94
546.88	26241.82
547.08	26024.73
547.28	26190.62
547.48	26032.93
547.68	26202.91
547.88	26016.54
548.081	26385.18
548.281	26106.65
548.481	26037.02
548.681	26143.52
548.881	26207
549.081	26422.04
549.28	26002.21
549.48	26168.09
549.68	26301.21
549.88	26155.8
550.08	26118.94
550.28	26002.21
550.48	26106.65
550.68	26463
550.88	26047.26
551.08	26194.71
551.279	25973.53
551.479	25920.29
551.679	25965.34
551.879	26272.54
552.079	26362.65
552.278	25922.34
552.478	26166.04
552.678	26172.19
552.878	26321.69
553.077	25881.38
553.277	25936.67
553.477	26303.26
553.676	26034.97
553.876	25862.94
554.076	26090.27
554.275	25768.74
554.475	25787.17
554.674	25951.01
554.874	25912.1
555.074	25903.9
555.273	26090.27
555.473	25881.38
555.672	25469.73
555.872	25412.39
556.071	25674.53
556.271	25908
556.47	25738.02
556.67	25494.31
556.869	25385.77
557.068	25762.59
557.268	25543.46
557.467	25619.24
557.667	25389.86
557.866	25602.85
558.065	25514.79
558.265	25307.94
558.464	25187.11
558.663	25619.24
558.863	25064.24
559.062	25369.38
559.261	24980.27
559.461	25389.86
559.66	24988.46
559.859	24965.93
560.058	25193.26
560.258	24929.07
560.457	24763.18
560.656	25107.24
560.855	24798
561.054	24929.07
561.253	24845.1
561.453	24849.2
561.652	24929.07
561.851	25117.48
562.05	24539.96
562.249	24380.21
562.448	24658.74
562.647	24800.05
562.846	24838.96
563.045	24703.79
563.244	24480.57
563.443	24550.2
563.642	24228.66
563.841	24517.43
564.04	24288.06
564.239	24453.94
564.438	24251.19
564.637	24513.33
564.836	24183.61
565.035	24036.16
565.234	24376.12
565.432	24228.66
565.631	23909.18
565.83	23718.72
566.029	24085.31
566.228	23614.27
566.427	23745.34
566.625	23698.24
566.824	23331.65
567.023	23475.01
567.222	23391.05
567.42	23714.62
567.619	23413.57
567.818	23491.4
568.016	23397.19
568.215	23591.75
568.414	23159.63
568.612	23204.68
568.811	22856.53
569.01	23075.66
569.208	23049.03
569.407	23159.63
569.605	22709.07
569.804	23157.58
570.002	22436.69
570.201	22811.47
570.4	22686.54
570.598	22557.52
570.797	22422.36
570.995	22676.3
571.193	22444.88
571.392	22463.32
571.59	22375.25
571.789	22123.35
571.987	22258.52
572.186	22049.63
572.384	21836.64
572.582	22088.54
572.781	21963.61
572.979	21807.97
573.177	22160.22
573.376	21859.17
573.574	21588.83
573.772	21988.19
573.971	21308.26
574.169	21451.62
574.367	21226.34
574.565	21594.98
574.763	21191.53
574.962	21212.01
575.16	20970.35
575.358	21244.77
575.556	20681.58
575.754	21064.55
575.952	20542.32
576.151	20966.25
576.349	20609.9
576.547	20466.55
576.745	20587.38
576.943	20618.1
577.141	20507.51
577.339	20636.53
577.537	20431.73
577.735	20116.34
577.933	20095.86
578.131	20407.16
578.329	20052.86
578.527	20175.73
578.725	20142.97
578.923	20175.73
579.121	20153.21
579.319	19850.11
579.516	19942.27
579.714	19731.33
579.912	19512.19
580.11	19708.8
580.308	19542.91
580.506	19493.76
580.704	19088.26
580.901	19501.95
581.099	19463.04
581.297	19121.03
581.495	19248
581.692	19190.66
581.89	19051.4
582.088	19182.47
582.285	19039.11
582.483	19041.16
582.681	19022.73
582.878	18799.5
583.076	18557.84
583.274	18822.03
583.471	18367.38
583.669	18639.76
583.866	18228.12
584.064	18348.95
584.262	18408.34
584.459	18348.95
584.657	18420.63
584.854	18230.16
585.052	18117.53
585.249	18228.12
585.447	18185.11
585.644	17757.08
585.841	17894.3
586.039	18011.03
586.236	17689.5
586.434	17943.45
586.631	17562.53
586.828	17861.53
587.026	17628.06
587.223	17845.15
587.42	17433.5
587.618	17548.19
587.815	17183.65
588.012	17259.43
588.21	17157.03
588.407	17589.15
588.604	17200.04
588.801	17183.65
588.999	17146.79
589.196	16933.8
589.393	17107.88
589.59	16866.22
589.787	16667.56
589.984	16905.13
590.182	16655.28
590.379	16901.03
590.576	16671.66
590.773	16403.38
590.97	16657.32
591.167	16616.37
591.364	16528.3
591.561	16407.47
591.758	16268.21
591.955	16214.96
592.152	16374.7
592.349	16327.6
592.546	16393.14
592.743	16296.88
592.94	15938.49
593.137	16153.52
593.334	16241.59
593.531	15956.92
593.727	15922.1
593.924	15813.56
594.121	15535.04
594.318	15969.21
594.515	15678.4
594.712	15815.61
594.908	15778.75
595.105	15711.16
595.302	15522.75
595.499	15465.41
595.696	15408.06
595.892	15082.44
596.089	15551.42
596.286	15266.75
596.482	15324.1
596.679	15244.23
596.876	15150.02
597.072	15227.84
597.269	15137.73
597.466	15115.2
597.662	14994.37
597.859	15018.95
598.055	14840.78
598.252	15074.24
598.448	14844.87
598.645	14881.74
598.841	14502.86
599.038	14615.5
599.234	14603.21
599.431	14500.81
599.627	14298.06
599.824	14515.15
600.02	14439.37
600.217	14228.43
600.413	14425.04
600.609	14150.61
600.806	14347.22
601.002	14318.54
601.198	14130.13
601.395	14150.61
601.591	14042.07
601.787	14156.75
601.984	13986.77
602.18	14160.85
602.376	13911
602.572	13716.44
602.769	13765.59
602.965	13585.37
603.161	13704.15
603.357	13730.78
603.553	13648.86
603.75	13724.63
603.946	13507.55
604.142	13753.3
604.338	13272.03
604.534	13349.85
604.73	13360.09
604.926	13245.41
605.122	13339.62
605.318	13140.96
605.514	12995.56
605.71	12979.17
605.906	12946.41
606.102	12905.45
606.298	12839.91
606.494	13057
606.69	12942.31
606.886	12997.6
607.082	12737.51
607.278	12846.05
607.474	12657.64
607.67	12749.8
607.866	12491.76
608.062	12667.88
608.257	12616.68
608.453	12608.49
608.649	12545
608.845	12393.45
609.041	12391.41
609.236	12370.93
609.432	12315.63
609.628	12319.73
609.824	12555.24
610.019	12286.96
610.215	12139.51
610.411	12162.03
610.606	12033.01
610.802	12123.12
610.998	12065.78
611.193	12053.49
611.389	12033.01
611.584	11932.66
611.78	11910.13
611.976	11793.4
612.171	11701.24
612.367	11750.39
612.562	11768.82
612.758	11650.04
612.953	11637.75
613.149	11602.94
613.344	11697.14
613.539	11652.09
613.735	11447.29
613.93	11666.42
614.126	11473.92
614.321	11410.43
614.517	11363.33
614.712	11328.51
614.907	11088.9
615.103	11346.94
615.298	11197.44
615.493	11445.24
615.688	11088.9
615.884	11162.62
616.079	11092.99
616.274	11037.7
616.47	11156.48
616.665	11285.5
616.86	10890.24
617.055	11054.08
617.25	10793.99
617.445	11170.82
617.641	10810.37
617.836	10970.12
618.031	10736.65
618.226	10818.57
618.421	10793.99
618.616	10800.13
618.811	10687.5
619.006	10630.15
619.201	10595.34
619.396	10691.59
619.591	10214.41
619.786	10476.55
619.981	10181.65
620.176	10445.84
620.371	10195.98
620.566	10101.78
620.761	10253.33
620.956	10394.64
621.151	10105.87
621.346	9966.61
621.541	10015.76
621.735	10198.03
621.93	9925.65
622.125	9888.79
622.32	9890.84
622.515	9597.98
622.709	9739.29
622.904	9872.4
623.099	9565.21
623.294	9532.44
623.488	9434.14
623.683	9331.74
623.878	9247.77
624.072	9499.67
624.267	9370.65
624.462	9333.79
624.656	9120.8
624.851	9290.78
625.046	8930.34
625.24	9012.26
625.435	9120.8
625.629	9096.22
625.824	8729.64
626.018	8860.71
626.213	8786.98
626.407	8664.1
626.602	8707.11
626.796	8723.49
626.991	8508.46
627.185	8631.33
627.38	8588.33
627.574	8483.88
627.768	8496.17
627.963	8367.15
628.157	8102.96
628.352	8475.69
628.546	8105.01
628.74	8295.47
628.935	8080.43
629.129	8219.69
629.323	7978.03
629.517	8105.01
629.712	7947.31
629.906	8145.97
630.1	7746.61
630.294	7789.62
630.489	8096.82
630.683	7892.02
630.877	7646.26
631.071	7740.47
631.265	7650.36
631.459	7586.87
631.653	7535.67
631.848	7308.35
632.042	7519.29
632.236	7525.43
632.43	7257.15
632.624	7423.03
632.818	7453.75
633.012	7294.01
633.206	7349.31
633.4	7283.77
633.594	7201.85
633.788	7101.5
633.982	7160.89
634.176	7132.22
634.369	6915.14
634.563	7212.09
634.757	7038.02
634.951	6952
635.145	6913.09
635.339	6960.19
635.533	6734.92
635.726	6956.1
635.92	6659.14
636.114	6655.05
636.308	6710.34
636.501	6790.21
636.695	6558.79
636.889	6622.28
637.083	6519.88
637.276	6593.61
637.47	6466.63
637.664	6394.95
637.857	6403.14
638.051	6333.51
638.244	6399.05
638.438	6399.05
638.632	6198.35
638.825	6239.31
639.019	6081.61
639.212	6134.86
639.406	6063.18
639.599	6134.86
639.793	6093.9
639.986	6005.84
640.18	5928.02
640.373	6032.46
640.567	5977.17
640.76	5930.06
640.954	5968.98
641.147	5755.99
641.34	5770.32
641.534	5905.49
641.727	5702.74
641.92	5760.08
642.114	5659.73
642.307	5639.25
642.5	5489.75
642.694	5373.02
642.887	5563.48
643.08	5510.23
643.273	5635.16
643.467	5506.13
643.66	5358.68
643.853	5200.99
644.046	5444.7
644.239	5274.71
644.432	5233.75
644.626	5303.39
644.819	5184.6
645.012	5125.21
645.205	5299.29
645.398	5145.69
645.591	5168.22
645.784	5131.36
645.977	5000.29
646.17	4981.85
646.363	4998.24
646.556	4768.87
646.749	4848.74
646.942	4994.14
647.135	4801.63
647.328	4686.95
647.521	4777.06
647.714	4641.89
647.907	4664.42
648.099	4529.25
648.292	4609.12
648.485	4639.84
648.678	4670.56
648.871	4537.45
649.064	4506.73
649.256	4473.96
649.449	4476.01
649.642	4361.32
649.835	4443.24
650.027	4359.27
650.22	4447.33
650.413	4303.98
650.605	4349.03
650.798	4258.92
650.991	4283.5
651.183	4303.98
651.376	4158.57
651.568	4367.46
651.761	4177
651.954	4129.9
652.146	3984.49
652.339	4156.52
652.531	3990.64
652.724	4037.74
652.916	3947.63
653.109	4076.65
653.301	3957.87
653.494	4009.07
653.686	3824.75
653.879	3900.53
654.071	3816.56
654.263	3892.34
654.456	3867.76
654.648	3785.84
654.84	3660.91
655.033	3681.39
655.225	3726.45
655.417	3617.91
655.61	3576.95
655.802	3568.76
655.994	3597.43
656.186	3447.93
656.379	3632.24
656.571	3687.54
656.763	3318.9
656.955	3515.51
657.148	3458.17
657.34	3474.55
657.532	3497.08
657.724	3333.24
657.916	3384.44
658.108	3474.55
658.3	3394.68
658.492	3206.27
658.684	3290.23
658.876	3337.34
659.068	3333.24
659.26	3173.5
659.452	3236.99
659.644	3263.61
659.836	3185.79
660.028	3185.79
660.22	3105.92
660.412	3173.5
660.604	3122.3
660.796	2956.41
660.988	2987.13
661.18	3034.24
661.372	3042.43
661.563	2919.55
661.755	2915.45
661.947	3071.1
662.139	2956.41
662.331	2948.22
662.522	2929.79
662.714	2858.11
662.906	2800.77
663.097	2886.78
663.289	2905.21
663.481	2808.96
663.673	2929.79
663.864	2724.99
664.056	2718.85
664.247	2708.61
664.439	2628.74
664.631	2712.71
664.822	2641.03
665.014	2671.75
665.205	2755.71
665.397	2647.17
665.588	2673.79
665.78	2593.92
665.971	2604.16
666.163	2606.21
666.354	2538.63
666.546	2524.29
666.737	2561.16
666.929	2489.48
667.12	2638.98
667.311	2475.14
667.503	2499.72
667.694	2358.41
667.885	2425.99
668.077	2391.17
668.268	2407.56
668.459	2399.37
668.651	2389.13
668.842	2466.95
669.033	2290.82
669.224	2378.89
669.416	2344.07
669.607	2387.08
669.798	2278.54
669.989	2368.65
670.18	2337.93
670.371	2186.38
670.563	2241.67
670.754	2266.25
670.945	2219.14
671.136	2309.26
671.327	2223.24
671.518	2213
671.709	2186.38
671.9	2202.76
672.091	2120.84
672.282	2188.43
672.473	2153.61
672.664	2139.27
672.855	2047.12
673.046	2141.32
673.237	2159.75
673.428	2198.67
673.619	2096.27
673.809	2104.46
674	2126.99
674.191	2120.84
674.382	2090.12
674.573	1971.34
674.764	2129.03
674.954	1950.86
675.145	2010.25
675.336	1965.2
675.527	2049.16
675.717	2069.64
675.908	1973.39
676.099	2032.78
676.289	2034.83
676.48	1957
676.671	1952.91
676.861	1985.68
677.052	1971.34
677.243	2040.97
677.433	1938.57
677.624	1877.13
677.814	2047.12
678.005	1903.76
678.195	1916.05
678.386	1936.53
678.576	1936.53
678.767	1987.72
678.957	1838.22
679.148	1899.66
679.338	2040.97
679.529	1957
679.719	1891.47
679.909	2053.26
680.1	1854.61
680.29	1877.13
680.481	1774.74
680.671	1860.75
680.861	1887.37
681.052	1784.98
681.242	1856.65
681.432	1967.24
681.622	1885.33
681.813	1856.65
682.003	1717.39
682.193	1766.54
682.383	1895.57
682.573	1903.76
682.764	1807.5
682.954	1784.98
683.144	1772.69
683.334	1885.33
683.524	1809.55
683.714	1877.13
683.904	1893.52
684.094	1967.24
684.284	1842.32
684.474	1866.89
684.664	1834.13
684.854	1760.4
685.044	1776.78
685.234	1739.92
685.424	1811.6
685.614	1780.88
685.804	1823.89
685.994	1746.06
686.184	1801.36
686.374	1721.49
686.564	1825.93
686.753	1752.21
686.943	1752.21
687.133	1729.68
687.323	1764.5
687.513	1668.24
687.702	1762.45
687.892	1778.83
688.082	1782.93
688.272	1649.81
688.461	1725.58
688.651	1709.2
688.841	1789.07
689.03	1707.15
689.22	1752.21
689.41	1711.25
689.599	1619.09
689.789	1713.3
689.979	1811.6
690.168	1696.91
690.358	1707.15
690.547	1672.34
690.737	1701.01
690.926	1645.71
691.116	1733.78
691.305	1610.9
691.495	1688.72
691.684	1633.43
691.874	1795.22
692.063	1719.44
692.252	1750.16
692.442	1764.5
692.631	1678.48
692.82	1778.83
693.01	1737.87
693.199	1569.94
693.388	1735.82
693.578	1725.58
693.767	1729.68
693.956	1729.68
694.146	1686.67
694.335	1711.25
694.524	1733.78
694.713	1660.05
694.902	1711.25
695.092	1797.26
695.281	1637.52
695.47	1688.72
695.659	1721.49
695.848	1748.11
696.037	1569.94
696.226	1756.3
696.415	1586.32
696.604	1766.54
696.793	1782.93
696.982	1748.11
697.171	1670.29
697.36	1795.22
697.549	1680.53
697.738	1707.15
697.927	1592.47
698.116	1733.78
698.305	1696.91
698.494	1707.15
698.683	1680.53
698.872	1807.5
699.061	1686.67
699.25	1782.93
699.438	1731.73
699.627	1754.26
699.816	1750.16
700.005	1619.09
700.193	1752.21
700.382	1600.66
700.571	1696.91
700.76	1748.11
700.948	1698.96
701.137	1698.96
701.326	1725.58
701.514	1688.72
701.703	1660.05
701.892	1672.34
702.08	1694.86
702.269	1664.15
702.457	1653.91
702.646	1598.61
702.834	1715.34
703.023	1645.71
703.212	1713.3
703.4	1678.48
703.589	1701.01
703.777	1756.3
703.965	1739.92
704.154	1698.96
704.342	1676.43
704.531	1676.43
704.719	1590.42
704.907	1649.81
705.096	1731.73
705.284	1664.15
705.472	1739.92
705.661	1660.05
705.849	1643.67
706.037	1561.75
706.226	1649.81
706.414	1617.04
706.602	1516.69
706.79	1641.62
706.979	1512.6
707.167	1672.34
707.355	1598.61
707.543	1557.65
707.731	1533.08
707.919	1580.18
708.107	1571.99
708.296	1580.18
708.484	1518.74
708.672	1610.9
708.86	1653.91
709.048	1584.27
709.236	1637.52
709.424	1600.66
709.612	1586.32
709.8	1463.44
709.988	1590.42
710.176	1590.42
710.364	1477.78
710.551	1594.51
710.739	1496.21
710.927	1535.12
711.115	1426.58
711.303	1559.7
711.491	1545.36
711.679	1510.55
711.866	1535.12
712.054	1449.11
712.242	1504.4
712.43	1533.08
712.617	1375.38
712.805	1436.82
712.993	1526.93
713.181	1430.68
713.368	1465.49
713.556	1526.93
713.744	1457.3
713.931	1524.88
714.119	1457.3
714.306	1438.87
714.494	1424.53
714.682	1459.35
714.869	1359
715.057	1481.88
715.244	1469.59
715.432	1451.16
715.619	1451.16
715.807	1424.53
715.994	1318.04
716.182	1373.33
716.369	1432.72
716.556	1328.28
716.744	1393.81
716.931	1389.72
717.119	1391.77
717.306	1375.38
717.493	1340.57
717.681	1453.2
717.868	1309.85
718.055	1328.28
718.242	1408.15
718.43	1315.99
718.617	1359
718.804	1365.14
718.991	1297.56
719.179	1291.41
719.366	1340.57
719.553	1299.61
719.74	1318.04
719.927	1309.85
720.114	1303.7
720.301	1338.52
720.488	1266.84
720.676	1315.99
720.863	1264.79
721.05	1262.74
721.237	1295.51
721.424	1258.65
721.611	1166.49
721.798	1211.54
721.985	1131.67
722.172	1236.12
722.358	1201.3
722.545	1272.98
722.732	1152.15
722.919	1096.86
723.106	1244.31
723.293	1283.22
723.48	1154.2
723.667	1195.16
723.853	1156.25
724.04	1197.21
724.227	1186.97
724.414	1156.25
724.6	1160.34
724.787	1193.11
724.974	1209.5
725.161	1160.34
725.347	1182.87
725.534	1211.54
725.72	1086.62
725.907	1238.17
726.094	1074.33
726.28	1059.99
726.467	1135.77
726.653	1150.11
726.84	1164.44
727.027	1150.11
727.213	1098.91
727.4	1150.11
727.586	1152.15
727.773	1055.9
727.959	1178.78
728.145	1094.81
728.332	1094.81
728.518	1205.4
728.705	1029.27
728.891	1123.48
729.077	1137.82
729.264	1115.29
729.45	1176.73
729.636	1019.04
729.823	1027.23
730.009	1117.34
730.195	1023.13
730.382	1039.51
730.568	980.12
730.754	1053.85
730.94	1008.8
731.126	1070.23
731.313	1068.19
731.499	949.4
731.685	1031.32
731.871	1033.37
732.057	906.4
732.243	1086.62
732.429	941.21
732.615	1096.86
732.801	978.08
732.987	1000.6
733.173	1062.04
733.359	982.17
733.545	1051.8
733.731	947.36
733.917	990.36
734.103	916.64
734.289	926.88
734.475	963.74
734.661	969.88
734.847	947.36
735.033	920.73
735.219	1025.18
735.404	1006.75
735.59	1014.94
735.776	937.12
735.962	867.49
736.148	935.07
736.333	967.84
736.519	791.71
736.705	978.08
736.89	924.83
737.076	904.35
737.262	935.07
737.447	1008.8
737.633	900.25
737.819	965.79
738.004	869.53
738.19	906.4
738.375	953.5
738.561	937.12
738.747	914.59
738.932	865.44
739.118	900.25
739.303	990.36
739.489	849.05
739.674	910.49
739.859	840.86
740.045	959.64
740.23	844.96
740.416	877.73
740.601	924.83
740.786	791.71
740.972	791.71
741.157	847.01
741.342	781.47
741.528	836.77
741.713	777.37
741.898	797.85
742.084	887.97
742.269	818.33
742.454	797.85
742.639	871.58
742.824	871.58
743.01	754.85
743.195	824.48
743.38	799.9
743.565	873.63
743.75	705.7
743.935	760.99
744.12	820.38
744.305	789.66
744.49	789.66
744.675	834.72
744.86	830.62
745.045	750.75
745.23	781.47
745.415	816.29
745.6	826.53
745.785	783.52
745.97	717.98
746.155	758.94
746.34	814.24
746.525	672.93
746.71	793.76
746.895	765.09
747.079	674.98
747.264	746.66
747.449	699.55
747.634	662.69
747.819	736.42
748.003	674.98
748.188	746.66
748.373	699.55
748.557	738.46
748.742	674.98
748.927	713.89
749.111	734.37
749.296	656.54
749.481	677.02
749.665	662.69
749.85	617.63
750.034	638.11
750.219	713.89
750.404	615.59
750.588	685.22
750.773	564.39
750.957	584.87
751.141	552.1
751.326	642.21
751.51	623.78
751.695	525.47
751.879	685.22
752.064	615.59
752.248	611.49
752.432	617.63
752.617	595.11
752.801	529.57
752.985	646.3
753.17	677.02
753.354	519.33
753.538	580.77
753.722	545.95
753.907	523.43
754.091	640.16
754.275	588.96
754.459	646.3
754.643	556.19
754.828	613.54
755.012	570.53
755.196	521.38
755.38	574.63
755.564	521.38
755.748	517.28
755.932	527.52
756.116	582.82
756.3	519.33
756.484	519.33
756.668	558.24
756.852	527.52
757.036	523.43
757.22	539.81
757.404	502.95
757.588	562.34
757.772	519.33
757.956	488.61
758.14	515.23
758.323	474.28
758.507	433.32
758.691	537.76
758.875	455.84
759.059	502.95
759.242	449.7
759.426	500.9
759.61	457.89
759.794	523.43
759.977	494.76
760.161	564.39
760.345	507.04
760.528	394.4
760.712	449.7
760.895	504.99
761.079	502.95
761.263	449.7
761.446	418.98
761.63	480.42
761.813	461.99
761.997	378.02
762.18	517.28
762.364	478.37
762.547	443.56
762.731	416.93
762.914	396.45
763.098	423.08
763.281	449.7
763.464	392.36
763.648	459.94
763.831	478.37
764.015	488.61
764.198	353.45
764.381	416.93
764.564	423.08
764.748	398.5
764.931	410.79
765.114	410.79
765.297	363.69
765.481	341.16
765.664	437.41
765.847	414.88
766.03	455.84
766.213	300.2
766.397	429.22
766.58	359.59
766.763	410.79
766.946	380.07
767.129	396.45
767.312	439.46
767.495	412.84
767.678	373.92
767.861	373.92
768.044	441.51
768.227	466.08
768.41	373.92
768.593	337.06
768.776	355.49
768.959	359.59
769.142	412.84
769.324	408.74
769.507	296.1
769.69	326.82
769.873	408.74
770.056	416.93
770.239	353.45
770.421	449.7
770.604	404.64
770.787	375.97
770.97	351.4
771.152	328.87
771.335	404.64
771.518	328.87
771.7	394.4
771.883	437.41
772.066	298.15
772.248	373.92
772.431	328.87
772.613	400.55
772.796	384.16
772.978	310.44
773.161	404.64
773.343	320.68
773.526	304.29
773.708	277.67
773.891	255.14
774.073	296.1
774.256	349.35
774.438	441.51
774.621	330.92
774.803	431.27
774.985	347.3
775.168	361.64
775.35	337.06
775.532	375.97
775.715	324.77
775.897	343.21
776.079	195.75
776.261	316.58
776.444	298.15
776.626	240.81
776.808	314.53
776.99	335.01
777.173	359.59
777.355	349.35
777.537	298.15
777.719	410.79
777.901	292.01
778.083	271.53
778.265	318.63
778.447	292.01
778.629	312.49
778.811	347.3
778.993	275.62
779.175	242.85
779.357	275.62
779.539	294.05
779.721	259.24
779.903	261.29
780.085	257.19
780.267	259.24
780.449	287.91
780.631	253.09
780.812	279.72
780.994	328.87
781.176	351.4
781.358	238.76
781.54	318.63
781.721	205.99
781.903	275.62
782.085	312.49
782.267	212.14
782.448	298.15
782.63	287.91
782.812	261.29
782.993	191.66
783.175	296.1
783.357	226.47
783.538	230.57
783.72	277.67
783.901	181.42
784.083	259.24
784.264	320.68
784.446	287.91
784.627	167.08
784.809	232.62
784.99	232.62
785.172	148.65
785.353	197.8
785.535	230.57
785.716	224.42
785.897	185.51
786.079	216.23
786.26	191.66
786.441	232.62
786.623	246.95
786.804	195.75
786.985	255.14
787.167	222.38
787.348	261.29
787.529	230.57
787.71	199.85
787.891	199.85
788.073	152.74
788.254	228.52
788.435	228.52
788.616	181.42
788.797	154.79
788.978	193.7
789.159	134.31
789.34	205.99
789.522	205.99
789.703	183.46
789.884	199.85
790.065	271.53
790.246	203.94
790.427	220.33
790.607	240.81
790.788	152.74
790.969	117.93
791.15	156.84
791.331	128.17
791.512	132.26
791.693	136.36
791.874	261.29
792.054	220.33
792.235	181.42
792.416	165.03
792.597	195.75
792.778	169.13
792.958	216.23
793.139	146.6
793.32	130.22
793.5	162.98
793.681	136.36
793.862	197.8
794.042	122.02
794.223	109.74
794.404	167.08
794.584	167.08
794.765	132.26
794.945	162.98
795.126	160.94
795.306	199.85
795.487	97.45
795.667	171.18
795.848	154.79
796.028	183.46
796.209	97.45
796.389	119.98
796.57	117.93
796.75	124.07
796.93	173.22
797.111	136.36
797.291	179.37
797.471	162.98
797.652	167.08
797.832	144.55
798.012	113.83
798.192	122.02
798.373	156.84
798.553	124.07
798.733	162.98
798.913	101.55
799.093	128.17
799.274	70.83
799.454	115.88
799.634	113.83
799.814	179.37
799.994	146.6
800.174	148.65
800.354	130.22
800.534	83.11
800.714	97.45
800.894	148.65
801.074	99.5
801.254	230.57
801.434	62.63
801.614	154.79
801.794	103.59
801.974	347.3
802.154	152.74
802.334	128.17
802.514	111.78
802.693	60.59
802.873	134.31
803.053	119.98
803.233	115.88
803.413	140.46
803.592	148.65
803.772	218.28
803.952	142.5
804.131	165.03
804.311	74.92
804.491	29.87
804.67	66.73
804.85	109.74
805.03	95.4
805.209	91.31
805.389	103.59
805.568	89.26
805.748	56.49
805.928	101.55
806.107	79.02
806.287	97.45
806.466	17.58
806.646	132.26
806.825	138.41
807.004	105.64
807.184	64.68
807.363	91.31
807.543	167.08
807.722	136.36
807.901	132.26
808.081	109.74
808.26	105.64
808.439	171.18
808.619	117.93
808.798	83.11
808.977	50.35
809.156	185.51
809.336	48.3
809.515	144.55
809.694	68.78
809.873	156.84
810.052	85.16
810.231	89.26
810.411	70.83
810.59	103.59
810.769	119.98
810.948	134.31
811.127	74.92
811.306	103.59
811.485	95.4
811.664	52.39
811.843	140.46
812.022	89.26
812.201	126.12
812.38	66.73
812.559	72.87
812.737	99.5
812.916	76.97
813.095	70.83
813.274	87.21
813.453	158.89
813.632	97.45
813.811	167.08
813.989	31.91
814.168	-47.96
814.347	97.45
814.526	7.34
814.704	48.3
814.883	119.98
815.062	89.26
815.24	95.4
815.419	83.11
815.598	74.92
815.776	95.4
815.955	60.59
816.133	64.68
816.312	25.77
816.49	50.35
816.669	95.4
816.847	66.73
817.026	85.16
817.204	134.31
817.383	89.26
817.561	93.35
817.74	128.17
817.918	128.17
818.097	52.39
818.275	70.83
818.453	124.07
818.632	42.15
818.81	97.45
818.988	56.49
819.167	105.64
819.345	-11.09
819.523	56.49
819.701	119.98
819.879	74.92
820.058	101.55
820.236	-17.24
820.414	93.35
820.592	56.49
820.77	46.25
820.948	79.02
821.127	140.46
821.305	138.41
821.483	52.39
821.661	97.45
821.839	21.67
822.017	19.63
822.195	44.2
822.373	99.5
822.551	13.48
822.729	101.55
822.907	68.78
823.085	64.68
823.262	58.54
823.44	64.68
823.618	58.54
823.796	91.31
823.974	62.63
824.152	7.34
824.329	117.93
824.507	81.07
824.685	36.01
824.863	66.73
825.04	46.25
825.218	89.26
825.396	64.68
825.574	154.79
825.751	25.77
825.929	89.26
826.107	72.87
826.284	66.73
826.462	-41.81
826.639	83.11
826.817	62.63
826.994	113.83
827.172	48.3
827.349	17.58
827.527	113.83
827.704	91.31
827.882	62.63
828.059	19.63
828.237	46.25
828.414	122.02
828.591	40.11
828.769	152.74
828.946	29.87
829.124	162.98
829.301	-15.19
829.478	70.83
829.655	23.72
829.833	7.34
830.01	50.35
830.187	9.39
830.364	56.49
830.542	70.83
830.719	42.15
830.896	107.69
831.073	83.11
831.25	40.11
831.427	144.55
831.604	9.39
831.782	93.35
831.959	105.64
832.136	9.39
832.313	48.3
832.49	58.54
832.667	64.68
832.844	48.3
833.021	7.34
833.198	21.67
833.374	66.73
833.551	25.77
833.728	54.44
833.905	107.69
834.082	101.55
834.259	68.78
834.436	11.43
834.612	44.2
834.789	70.83
834.966	70.83
835.143	44.2
835.319	99.5
835.496	62.63
835.673	-31.57
835.85	52.39
836.026	97.45
836.203	111.78
836.38	50.35
836.556	36.01
836.733	5.29
836.909	60.59
837.086	40.11
837.262	50.35
837.439	-2.9
837.616	19.63
837.792	87.21
837.968	19.63
838.145	122.02
838.321	25.77
838.498	54.44
838.674	5.29
838.851	54.44
839.027	9.39
839.203	64.68
839.38	36.01
839.556	46.25
839.732	38.06
839.909	56.49
840.085	42.15
840.261	83.11
840.437	99.5
840.614	54.44
840.79	81.07
840.966	103.59
841.142	64.68
841.318	54.44
841.494	54.44
841.671	54.44
841.847	38.06
842.023	13.48
842.199	17.58
842.375	23.72
842.551	-33.62
842.727	27.82
842.903	7.34
843.079	38.06
843.255	40.11
843.431	21.67
843.607	58.54
843.783	44.2
843.959	72.87
844.134	72.87
844.31	70.83
844.486	132.26
844.662	11.43
844.838	50.35
845.013	66.73
845.189	25.77
845.365	44.2
845.541	-9.05
845.716	101.55
845.892	40.11
846.068	40.11
846.244	70.83
846.419	-9.05
846.595	27.82
846.77	42.15
846.946	64.68
847.122	19.63
847.297	-2.9
847.473	1.19
847.648	40.11
847.824	5.29
847.999	-2.9
848.175	60.59
848.35	23.72
848.526	99.5
848.701	87.21
848.876	122.02
849.052	62.63
849.227	-27.48
849.403	60.59
849.578	58.54
849.753	31.91
849.929	83.11
850.104	-39.76
850.279	15.53
850.454	31.91
850.63	19.63
850.805	-17.24
850.98	68.78
851.155	134.31
851.33	52.39
851.505	-9.05
851.681	72.87
851.856	52.39
852.031	13.48
852.206	105.64
852.381	29.87
852.556	33.96
852.731	64.68
852.906	95.4
853.081	11.43
853.256	52.39
853.431	-7
853.606	27.82
853.781	27.82
853.956	48.3
854.131	42.15
854.305	60.59
854.48	15.53
854.655	83.11
854.83	-13.14
855.005	52.39
855.18	13.48
855.354	3.24
855.529	60.59
855.704	66.73
855.879	72.87
856.053	52.39
856.228	13.48
856.403	-0.85
856.577	64.68
856.752	9.39
856.926	38.06
857.101	50.35
857.276	19.63
857.45	117.93
857.625	38.06
857.799	40.11
857.974	56.49
858.148	-2.9
858.323	48.3
858.497	31.91
858.672	38.06
858.846	13.48
859.02	21.67
859.195	15.53
859.369	66.73
859.543	29.87
859.718	68.78
859.892	50.35
860.066	21.67
860.241	-21.33
860.415	-2.9
860.589	17.58
860.763	-7
860.938	46.25
861.112	58.54
861.286	27.82
861.46	9.39
861.634	-23.38
861.808	70.83
861.982	-13.14
862.157	23.72
862.331	-2.9
862.505	23.72
862.679	46.25
862.853	-0.85
863.027	23.72
863.201	44.2
863.375	48.3
863.549	-11.09
863.722	62.63
863.896	72.87
864.07	-19.29
864.244	-9.05
864.418	70.83
864.592	85.16
864.766	44.2
864.939	7.34
865.113	27.82
865.287	9.39
865.461	42.15
865.634	-13.14
865.808	1.19
865.982	36.01
866.156	1.19
866.329	-33.62
866.503	-84.82
866.676	-11.09
866.85	31.91
867.024	-39.76
867.197	7.34
867.371	-25.43
867.544	-0.85
867.718	-29.52
867.891	56.49
868.065	-27.48
868.238	44.2
868.412	19.63
868.585	36.01
868.759	-11.09
868.932	44.2
869.105	83.11
869.279	38.06
869.452	13.48
869.625	-11.09
869.799	-13.14
869.972	-2.9
870.145	52.39
870.319	-9.05
870.492	-7
870.665	23.72
870.838	31.91
871.011	27.82
871.185	101.55
871.358	-7
871.531	81.07
871.704	68.78
871.877	113.83
872.05	60.59
872.223	11.43
872.396	23.72
872.569	21.67
872.742	74.92
872.915	81.07
873.088	-9.05
873.261	36.01
873.434	13.48
873.607	19.63
873.78	89.26
873.953	11.43
874.126	72.87
874.299	25.77
874.471	-39.76
874.644	-4.95
874.817	-43.86
874.99	23.72
875.163	58.54
875.335	74.92
875.508	105.64
875.681	-45.91
875.853	64.68
876.026	15.53
876.199	9.39
876.371	36.01
876.544	44.2
876.717	-23.38
876.889	83.11
877.062	42.15
877.234	40.11
877.407	15.53
877.579	-33.62
877.752	23.72
877.924	19.63
878.097	13.48
878.269	25.77
878.442	29.87
878.614	-29.52
878.786	72.87
878.959	48.3
879.131	64.68
879.303	-2.9
879.476	74.92
879.648	42.15
879.82	40.11
879.993	79.02
880.165	-25.43
880.337	1.19
880.509	95.4
880.681	21.67
880.854	7.34
881.026	-21.33
881.198	58.54
881.37	5.29
881.542	42.15
881.714	40.11
881.886	23.72
882.058	19.63
882.23	54.44
882.402	62.63
882.574	66.73
882.746	-29.52
882.918	56.49
883.09	17.58
883.262	21.67
883.434	48.3
883.606	-23.38
883.778	48.3
883.95	144.55
884.122	-37.72
884.293	52.39
884.465	-19.29
884.637	11.43
884.809	15.53
884.98	27.82
885.152	36.01
885.324	91.31
885.496	60.59
885.667	-2.9
885.839	-37.72
886.011	-17.24
886.182	7.34
886.354	56.49
886.525	33.96
886.697	38.06
886.869	74.92
887.04	-29.52
887.212	5.29
887.383	19.63
887.555	15.53
887.726	21.67
887.897	19.63
888.069	62.63
888.24	21.67
888.412	19.63
888.583	13.48
888.754	87.21
888.926	-52.05
889.097	9.39
889.268	19.63
889.44	52.39
889.611	-52.05
889.782	25.77
889.953	52.39
890.125	87.21
890.296	31.91
890.467	-0.85
890.638	40.11
890.809	46.25
890.98	19.63
891.151	-33.62
891.323	3.24
891.494	19.63
891.665	25.77
891.836	101.55
892.007	11.43
892.178	-4.95
892.349	9.39
892.52	15.53
892.691	-35.67
892.862	46.25
893.032	-23.38
893.203	19.63
893.374	9.39
893.545	11.43
893.716	9.39
893.887	56.49
894.057	31.91
894.228	25.77
894.399	-15.19
894.57	7.34
894.74	-25.43
894.911	54.44
895.082	46.25
895.253	81.07
895.423	48.3
895.594	52.39
895.764	54.44
895.935	7.34
896.106	31.91
896.276	-19.29
896.447	25.77
896.617	93.35
896.788	-27.48
896.958	40.11
897.129	-0.85
897.299	23.72
897.47	66.73
897.64	-2.9
897.81	76.97
897.981	11.43
898.151	-25.43
898.322	31.91
898.492	-15.19
898.662	15.53
898.832	-15.19
899.003	91.31
899.173	9.39
899.343	-11.09
899.513	33.96
