Data from USB4F104151__293__14-02-48-956.txt Node

Date: Thu Mar 13 14:02:48 EDT 2025
User: louis
Spectrometer: USB4F10415
Trigger mode: 4
Integration Time (sec): 1.000000E-2
Scans to average: 1
Electric dark correction enabled: true
Nonlinearity correction enabled: false
Boxcar width: 0
XAxis mode: Wavelengths
Number of Pixels in Spectrum: 3648
>>>>>Begin Spectral Data<<<<<
178.204	-14.68
178.424	-14.68
178.644	-14.68
178.864	-88.4
179.084	-90.45
179.304	9.9
179.524	24.23
179.744	18.09
179.964	34.47
180.184	28.33
180.404	-8.53
180.624	-24.92
180.844	-24.92
181.064	16.04
181.283	-53.59
181.503	-63.83
181.723	44.71
181.943	-22.87
182.163	46.76
182.383	57
182.602	52.91
182.822	-2.39
183.042	20.14
183.262	-39.25
183.482	48.81
183.701	34.47
183.921	-78.16
184.141	-39.25
184.361	5.8
184.58	28.33
184.8	40.62
185.02	18.09
185.239	-0.34
185.459	52.91
185.679	52.91
185.898	71.34
186.118	36.52
186.338	63.15
186.557	38.57
186.777	-33.11
186.997	-4.44
187.216	-4.44
187.436	22.19
187.655	69.29
187.875	26.28
188.095	-51.54
188.314	-90.45
188.534	9.9
188.753	59.05
188.973	-20.82
189.192	63.15
189.412	1.71
189.631	63.15
189.851	3.75
190.07	28.33
190.29	13.99
190.509	13.99
190.729	24.23
190.948	-26.96
191.168	110.25
191.387	36.52
191.607	-18.77
191.826	-6.49
192.045	30.38
192.265	20.14
192.484	3.75
192.704	59.05
192.923	9.9
193.142	20.14
193.362	40.62
193.581	81.58
193.8	57
194.02	44.71
194.239	-26.96
194.458	9.9
194.678	-0.34
194.897	54.95
195.116	24.23
195.335	-31.06
195.555	-41.3
195.774	20.14
195.993	38.57
196.212	75.43
196.432	28.33
196.651	93.87
196.87	54.95
197.089	-0.34
197.308	-29.01
197.528	-0.34
197.747	-45.4
197.966	5.8
198.185	61.1
198.404	-31.06
198.623	-6.49
198.842	57
199.062	-24.92
199.281	20.14
199.5	34.47
199.719	73.39
199.938	65.19
200.157	-8.53
200.376	22.19
200.595	69.29
200.814	48.81
201.033	69.29
201.252	77.48
201.471	50.86
201.69	38.57
201.909	46.76
202.128	59.05
202.347	3.75
202.566	-47.44
202.785	26.28
203.004	7.85
203.223	97.96
203.442	-45.4
203.661	50.86
203.879	11.95
204.098	3.75
204.317	59.05
204.536	77.48
204.755	26.28
204.974	-49.49
205.193	-0.34
205.411	46.76
205.63	7.85
205.849	-8.53
206.068	67.24
206.287	89.77
206.505	-16.73
206.724	40.62
206.943	-6.49
207.162	16.04
207.381	67.24
207.599	11.95
207.818	52.91
208.037	34.47
208.255	-0.34
208.474	24.23
208.693	40.62
208.911	32.43
209.13	-6.49
209.349	-2.39
209.567	-18.77
209.786	59.05
210.005	104.11
210.223	138.92
210.442	22.19
210.661	13.99
210.879	-63.83
211.098	116.39
211.316	-10.58
211.535	-8.53
211.753	20.14
211.972	61.1
212.191	-4.44
212.409	-31.06
212.628	1.71
212.846	-55.64
213.065	54.95
213.283	38.57
213.502	9.9
213.72	7.85
213.938	48.81
214.157	-8.53
214.375	30.38
214.594	28.33
214.812	79.53
215.031	85.67
215.249	34.47
215.467	-8.53
215.686	38.57
215.904	40.62
216.122	32.43
216.341	89.77
216.559	-22.87
216.778	7.85
216.996	89.77
217.214	-47.44
217.432	-8.53
217.651	40.62
217.869	54.95
218.087	50.86
218.306	110.25
218.524	36.52
218.742	77.48
218.96	44.71
219.179	24.23
219.397	1.71
219.615	28.33
219.833	22.19
220.051	-49.49
220.27	57
220.488	18.09
220.706	65.19
220.924	-10.58
221.142	48.81
221.36	-12.63
221.578	48.81
221.796	-61.78
222.015	24.23
222.233	57
222.451	38.57
222.669	-106.84
222.887	69.29
223.105	-10.58
223.323	-8.53
223.541	-29.01
223.759	3.75
223.977	-41.3
224.195	13.99
224.413	-4.44
224.631	-29.01
224.849	32.43
225.067	18.09
225.285	28.33
225.503	44.71
225.721	11.95
225.939	22.19
226.157	24.23
226.375	-8.53
226.592	-16.73
226.81	73.39
227.028	16.04
227.246	26.28
227.464	40.62
227.682	87.72
227.9	28.33
228.117	-18.77
228.335	28.33
228.553	-29.01
228.771	18.09
228.989	11.95
229.206	-24.92
229.424	73.39
229.642	-29.01
229.86	7.85
230.077	-16.73
230.295	40.62
230.513	-39.25
230.731	20.14
230.948	34.47
231.166	3.75
231.384	-10.58
231.601	-41.3
231.819	-24.92
232.037	63.15
232.254	-24.92
232.472	18.09
232.689	24.23
232.907	7.85
233.125	48.81
233.342	-33.11
233.56	48.81
233.777	67.24
233.995	7.85
234.213	9.9
234.43	52.91
234.648	28.33
234.865	-22.87
235.083	65.19
235.3	52.91
235.518	106.15
235.735	122.54
235.953	-0.34
236.17	1.71
236.388	65.19
236.605	-20.82
236.822	20.14
237.04	-2.39
237.257	40.62
237.475	-8.53
237.692	-24.92
237.909	-6.49
238.127	16.04
238.344	81.58
238.562	-6.49
238.779	42.67
238.996	40.62
239.214	20.14
239.431	87.72
239.648	30.38
239.865	-2.39
240.083	11.95
240.3	-6.49
240.517	26.28
240.735	32.43
240.952	50.86
241.169	32.43
241.386	7.85
241.603	34.47
241.821	18.09
242.038	32.43
242.255	-16.73
242.472	-6.49
242.689	-39.25
242.907	44.71
243.124	5.8
243.341	-53.59
243.558	-18.77
243.775	36.52
243.992	65.19
244.209	71.34
244.426	40.62
244.643	-45.4
244.86	-22.87
245.078	-14.68
245.295	50.86
245.512	20.14
245.729	-24.92
245.946	50.86
246.163	63.15
246.38	65.19
246.597	28.33
246.814	34.47
247.031	3.75
247.248	52.91
247.464	16.04
247.681	50.86
247.898	54.95
248.115	11.95
248.332	-0.34
248.549	30.38
248.766	65.19
248.983	118.44
249.2	59.05
249.417	-18.77
249.633	108.2
249.85	30.38
250.067	18.09
250.284	16.04
250.501	-41.3
250.717	57
250.934	34.47
251.151	102.06
251.368	-31.06
251.585	65.19
251.801	54.95
252.018	-37.2
252.235	28.33
252.451	-8.53
252.668	-33.11
252.885	-18.77
253.102	-63.83
253.318	32.43
253.535	75.43
253.752	-14.68
253.968	18.09
254.185	7.85
254.401	1.71
254.618	11.95
254.835	1.71
255.051	42.67
255.268	-6.49
255.484	73.39
255.701	-12.63
255.917	16.04
256.134	11.95
256.351	9.9
256.567	-45.4
256.784	65.19
257	1.71
257.217	7.85
257.433	16.04
257.65	50.86
257.866	1.71
258.082	-65.88
258.299	38.57
258.515	26.28
258.732	44.71
258.948	-0.34
259.165	22.19
259.381	26.28
259.597	42.67
259.814	22.19
260.03	-6.49
260.246	22.19
260.463	59.05
260.679	16.04
260.895	67.24
261.112	9.9
261.328	-14.68
261.544	63.15
261.761	-45.4
261.977	13.99
262.193	7.85
262.409	65.19
262.626	1.71
262.842	106.15
263.058	13.99
263.274	-0.34
263.49	-4.44
263.707	65.19
263.923	93.87
264.139	-35.16
264.355	-24.92
264.571	28.33
264.787	97.96
265.004	57
265.22	5.8
265.436	40.62
265.652	7.85
265.868	40.62
266.084	-8.53
266.3	124.58
266.516	52.91
266.732	-33.11
266.948	26.28
267.164	24.23
267.38	69.29
267.596	48.81
267.812	69.29
268.028	-4.44
268.244	100.01
268.46	-14.68
268.676	75.43
268.892	32.43
269.108	32.43
269.324	42.67
269.54	-37.2
269.756	48.81
269.972	-6.49
270.188	75.43
270.403	34.47
270.619	30.38
270.835	40.62
271.051	48.81
271.267	9.9
271.483	-65.88
271.698	9.9
271.914	28.33
272.13	20.14
272.346	18.09
272.562	-22.87
272.777	9.9
272.993	36.52
273.209	73.39
273.425	-47.44
273.64	-33.11
273.856	61.1
274.072	3.75
274.287	-94.55
274.503	7.85
274.719	24.23
274.934	89.77
275.15	-24.92
275.366	77.48
275.581	32.43
275.797	26.28
276.012	-6.49
276.228	67.24
276.444	48.81
276.659	40.62
276.875	13.99
277.09	32.43
277.306	22.19
277.521	7.85
277.737	-2.39
277.952	65.19
278.168	-8.53
278.383	38.57
278.599	30.38
278.814	57
279.03	69.29
279.245	97.96
279.461	-45.4
279.676	24.23
279.892	22.19
280.107	-0.34
280.322	104.11
280.538	7.85
280.753	-20.82
280.969	44.71
281.184	-47.44
281.399	36.52
281.615	3.75
281.83	24.23
282.045	63.15
282.26	34.47
282.476	-24.92
282.691	65.19
282.906	11.95
283.122	67.24
283.337	69.29
283.552	3.75
283.767	54.95
283.983	48.81
284.198	34.47
284.413	59.05
284.628	-12.63
284.843	11.95
285.058	44.71
285.274	-10.58
285.489	-18.77
285.704	34.47
285.919	-0.34
286.134	20.14
286.349	-49.49
286.564	116.39
286.779	18.09
286.995	-0.34
287.21	57
287.425	20.14
287.64	-6.49
287.855	28.33
288.07	24.23
288.285	40.62
288.5	42.67
288.715	1.71
288.93	20.14
289.145	26.28
289.36	11.95
289.575	48.81
289.79	13.99
290.004	42.67
290.219	63.15
290.434	11.95
290.649	-20.82
290.864	36.52
291.079	-53.59
291.294	50.86
291.509	-4.44
291.724	36.52
291.938	-37.2
292.153	36.52
292.368	-26.96
292.583	16.04
292.798	-0.34
293.012	100.01
293.227	67.24
293.442	-29.01
293.657	26.28
293.871	40.62
294.086	40.62
294.301	26.28
294.516	16.04
294.73	-14.68
294.945	-55.64
295.16	24.23
295.374	-10.58
295.589	20.14
295.804	36.52
296.018	1.71
296.233	24.23
296.447	83.63
296.662	-41.3
296.877	102.06
297.091	36.52
297.306	36.52
297.52	16.04
297.735	85.67
297.949	28.33
298.164	65.19
298.378	65.19
298.593	28.33
298.807	57
299.022	91.82
299.236	114.34
299.451	-45.4
299.665	-33.11
299.88	9.9
300.094	30.38
300.309	32.43
300.523	-0.34
300.737	-4.44
300.952	46.76
301.166	24.23
301.381	9.9
301.595	9.9
301.809	54.95
302.024	13.99
302.238	24.23
302.452	89.77
302.667	44.71
302.881	40.62
303.095	-4.44
303.309	65.19
303.524	48.81
303.738	28.33
303.952	11.95
304.166	57
304.381	32.43
304.595	1.71
304.809	36.52
305.023	73.39
305.237	30.38
305.452	-4.44
305.666	-12.63
305.88	-16.73
306.094	50.86
306.308	97.96
306.522	-8.53
306.736	-8.53
306.95	73.39
307.164	-35.16
307.379	5.8
307.593	-53.59
307.807	32.43
308.021	73.39
308.235	-6.49
308.449	40.62
308.663	-0.34
308.877	147.11
309.091	54.95
309.305	69.29
309.519	-0.34
309.733	7.85
309.947	48.81
310.161	24.23
310.374	75.43
310.588	34.47
310.802	26.28
311.016	-6.49
311.23	65.19
311.444	57
311.658	-6.49
311.872	57
312.085	44.71
312.299	26.28
312.513	63.15
312.727	-14.68
312.941	24.23
313.154	24.23
313.368	9.9
313.582	7.85
313.796	1.71
314.009	-6.49
314.223	-24.92
314.437	63.15
314.651	89.77
314.864	50.86
315.078	75.43
315.292	7.85
315.505	11.95
315.719	-8.53
315.933	89.77
316.146	16.04
316.36	13.99
316.573	59.05
316.787	124.58
317.001	-43.35
317.214	20.14
317.428	89.77
317.641	65.19
317.855	-33.11
318.068	77.48
318.282	38.57
318.495	30.38
318.709	22.19
318.922	7.85
319.136	65.19
319.349	7.85
319.563	5.8
319.776	9.9
319.99	-45.4
320.203	22.19
320.417	20.14
320.63	73.39
320.843	57
321.057	77.48
321.27	3.75
321.483	34.47
321.697	52.91
321.91	11.95
322.124	30.38
322.337	-16.73
322.55	83.63
322.763	-22.87
322.977	65.19
323.19	77.48
323.403	34.47
323.617	9.9
323.83	9.9
324.043	-24.92
324.256	59.05
324.469	3.75
324.683	108.2
324.896	52.91
325.109	36.52
325.322	26.28
325.535	116.39
325.748	11.95
325.962	69.29
326.175	20.14
326.388	59.05
326.601	9.9
326.814	52.91
327.027	-31.06
327.24	26.28
327.453	-14.68
327.666	-4.44
327.879	32.43
328.092	24.23
328.305	-8.53
328.518	67.24
328.731	59.05
328.944	24.23
329.157	59.05
329.37	26.28
329.583	73.39
329.796	-12.63
330.009	-69.97
330.222	20.14
330.435	24.23
330.648	20.14
330.861	26.28
331.073	28.33
331.286	61.1
331.499	48.81
331.712	102.06
331.925	-24.92
332.138	36.52
332.35	11.95
332.563	61.1
332.776	34.47
332.989	89.77
333.202	3.75
333.414	9.9
333.627	36.52
333.84	89.77
334.053	11.95
334.265	65.19
334.478	16.04
334.691	34.47
334.903	42.67
335.116	73.39
335.329	20.14
335.541	1.71
335.754	83.63
335.966	81.58
336.179	28.33
336.392	24.23
336.604	18.09
336.817	75.43
337.029	9.9
337.242	65.19
337.454	24.23
337.667	-14.68
337.88	83.63
338.092	36.52
338.305	50.86
338.517	-29.01
338.729	40.62
338.942	48.81
339.154	48.81
339.367	9.9
339.579	57
339.792	40.62
340.004	91.82
340.217	5.8
340.429	69.29
340.641	36.52
340.854	9.9
341.066	26.28
341.278	32.43
341.491	91.82
341.703	44.71
341.915	-31.06
342.128	61.1
342.34	32.43
342.552	-16.73
342.764	57
342.977	-14.68
343.189	108.2
343.401	91.82
343.613	-14.68
343.826	-0.34
344.038	-63.83
344.25	24.23
344.462	89.77
344.674	75.43
344.886	69.29
345.099	73.39
345.311	16.04
345.523	18.09
345.735	22.19
345.947	85.67
346.159	40.62
346.371	36.52
346.583	9.9
346.795	73.39
347.007	9.9
347.219	-41.3
347.431	34.47
347.643	20.14
347.855	-16.73
348.067	52.91
348.279	-29.01
348.491	104.11
348.703	-12.63
348.915	28.33
349.127	34.47
349.339	54.95
349.551	16.04
349.763	28.33
349.975	42.67
350.187	114.34
350.399	3.75
350.61	24.23
350.822	40.62
351.034	-12.63
351.246	1.71
351.458	73.39
351.669	57
351.881	-8.53
352.093	-18.77
352.305	32.43
352.517	102.06
352.728	42.67
352.94	32.43
353.152	-20.82
353.363	26.28
353.575	5.8
353.787	81.58
353.999	28.33
354.21	48.81
354.422	102.06
354.633	73.39
354.845	16.04
355.057	48.81
355.268	59.05
355.48	79.53
355.692	3.75
355.903	69.29
356.115	46.76
356.326	-14.68
356.538	143.02
356.749	-0.34
356.961	36.52
357.172	-22.87
357.384	20.14
357.595	40.62
357.807	63.15
358.018	-4.44
358.23	22.19
358.441	-8.53
358.653	61.1
358.864	26.28
359.075	32.43
359.287	40.62
359.498	91.82
359.709	28.33
359.921	24.23
360.132	91.82
360.344	40.62
360.555	-29.01
360.766	57
360.977	24.23
361.189	26.28
361.4	75.43
361.611	106.15
361.823	57
362.034	30.38
362.245	93.87
362.456	73.39
362.667	26.28
362.879	5.8
363.09	59.05
363.301	36.52
363.512	24.23
363.723	83.63
363.935	57
364.146	40.62
364.357	13.99
364.568	16.04
364.779	93.87
364.99	38.57
365.201	77.48
365.412	16.04
365.623	48.81
365.834	52.91
366.045	57
366.256	16.04
366.467	32.43
366.678	48.81
366.889	34.47
367.1	69.29
367.311	-63.83
367.522	46.76
367.733	9.9
367.944	24.23
368.155	11.95
368.366	73.39
368.577	71.34
368.788	9.9
368.999	48.81
369.209	67.24
369.42	46.76
369.631	38.57
369.842	-90.45
370.053	40.62
370.264	30.38
370.474	-0.34
370.685	-8.53
370.896	26.28
371.107	-6.49
371.317	52.91
371.528	65.19
371.739	73.39
371.95	50.86
372.16	-16.73
372.371	52.91
372.582	63.15
372.792	9.9
373.003	46.76
373.214	7.85
373.424	97.96
373.635	-45.4
373.846	44.71
374.056	65.19
374.267	-24.92
374.477	65.19
374.688	57
374.898	50.86
375.109	52.91
375.319	-8.53
375.53	28.33
375.74	77.48
375.951	52.91
376.161	44.71
376.372	57
376.582	22.19
376.793	40.62
377.003	20.14
377.214	16.04
377.424	13.99
377.635	22.19
377.845	40.62
378.055	7.85
378.266	95.91
378.476	24.23
378.686	40.62
378.897	-20.82
379.107	32.43
379.317	54.95
379.528	9.9
379.738	22.19
379.948	32.43
380.158	57
380.369	-4.44
380.579	24.23
380.789	77.48
380.999	59.05
381.21	3.75
381.42	65.19
381.63	77.48
381.84	40.62
382.05	54.95
382.261	69.29
382.471	40.62
382.681	75.43
382.891	81.58
383.101	48.81
383.311	73.39
383.521	24.23
383.731	89.77
383.941	93.87
384.151	52.91
384.361	44.71
384.571	61.1
384.781	106.15
384.991	48.81
385.201	57
385.411	65.19
385.621	38.57
385.831	42.67
386.041	38.57
386.251	61.1
386.461	57
386.671	59.05
386.881	54.95
387.091	26.28
387.301	61.1
387.511	26.28
387.72	7.85
387.93	-0.34
388.14	59.05
388.35	79.53
388.56	100.01
388.769	18.09
388.979	81.58
389.189	67.24
389.399	-8.53
389.609	1.71
389.818	65.19
390.028	91.82
390.238	1.71
390.447	59.05
390.657	59.05
390.867	52.91
391.076	59.05
391.286	61.1
391.496	85.67
391.705	42.67
391.915	134.82
392.125	48.81
392.334	46.76
392.544	65.19
392.753	100.01
392.963	89.77
393.172	59.05
393.382	1.71
393.591	73.39
393.801	69.29
394.01	-4.44
394.22	67.24
394.429	91.82
394.639	83.63
394.848	59.05
395.058	57
395.267	155.3
395.477	59.05
395.686	69.29
395.895	42.67
396.105	102.06
396.314	54.95
396.524	85.67
396.733	71.34
396.942	102.06
397.152	-0.34
397.361	34.47
397.57	83.63
397.78	52.91
397.989	28.33
398.198	40.62
398.407	67.24
398.617	11.95
398.826	50.86
399.035	73.39
399.244	136.87
399.453	77.48
399.663	93.87
399.872	59.05
400.081	52.91
400.29	134.82
400.499	97.96
400.708	183.98
400.917	126.63
401.127	44.71
401.336	85.67
401.545	153.26
401.754	140.97
401.963	130.73
402.172	73.39
402.381	97.96
402.59	97.96
402.799	143.02
403.008	89.77
403.217	138.92
403.426	171.69
403.635	110.25
403.844	147.11
404.053	122.54
404.262	122.54
404.471	116.39
404.68	130.73
404.888	87.72
405.097	200.36
405.306	151.21
405.515	100.01
405.724	208.55
405.933	149.16
406.142	128.68
406.35	183.98
406.559	179.88
406.768	175.78
406.977	259.75
407.185	218.79
407.394	247.46
407.603	151.21
407.812	229.03
408.02	196.26
408.229	192.17
408.438	138.92
408.646	261.8
408.855	145.06
409.064	194.22
409.272	253.61
409.481	292.52
409.69	208.55
409.898	300.71
410.107	327.33
410.315	319.14
410.524	286.37
410.733	261.8
410.941	216.74
411.15	319.14
411.358	384.68
411.567	417.44
411.775	345.77
411.984	337.57
412.192	419.49
412.401	325.29
412.609	491.17
412.818	528.03
413.026	427.68
413.234	442.02
413.443	466.6
413.651	501.41
413.86	519.84
414.068	669.34
414.276	605.86
414.485	571.04
414.693	640.67
414.901	650.91
415.11	597.67
415.318	616.1
415.526	724.64
415.734	652.96
415.943	790.17
416.151	779.93
416.359	761.5
416.567	700.06
416.776	759.46
416.984	966.3
417.192	884.38
417.4	915.1
417.608	896.67
417.817	1009.31
418.025	974.49
418.233	1103.51
418.441	1058.46
418.649	1066.65
418.857	1177.24
419.065	1273.5
419.273	1154.71
419.481	1173.14
419.689	1291.93
419.897	1392.28
420.105	1445.52
420.313	1451.67
420.521	1457.81
420.729	1480.34
420.937	1658.51
421.145	1629.84
421.353	1707.66
421.561	1734.29
421.769	1816.21
421.977	1922.7
422.185	1908.37
422.393	1943.18
422.601	2080.39
422.809	2109.07
423.017	2031.24
423.224	2223.75
423.432	2217.61
423.64	2389.64
423.848	2438.79
424.056	2369.16
424.263	2619.01
424.471	2672.26
424.679	2662.02
424.887	2836.1
425.094	2895.49
425.302	2975.36
425.51	3139.19
425.718	3030.65
425.925	2995.84
426.133	3298.94
426.341	3282.55
426.548	3559.03
426.756	3442.29
426.964	3669.62
427.171	3890.8
427.379	3903.09
427.586	3991.15
427.794	4099.69
428.001	4374.12
428.209	4519.53
428.417	4402.79
428.624	4664.93
428.832	4859.49
429.039	4757.09
429.247	4609.64
429.454	5127.77
429.662	5500.5
429.869	5144.16
430.076	5639.76
430.284	5242.46
430.491	5656.15
430.699	5754.45
430.906	5944.91
431.114	5912.14
431.321	6291.02
431.528	6274.63
431.736	6622.79
431.943	6915.65
432.15	6846.02
432.358	7013.95
432.565	7257.66
432.772	7431.74
432.979	7667.25
433.187	7751.22
433.394	7781.94
433.601	8244.78
433.808	8283.69
434.016	8201.77
434.223	8633.89
434.43	9068.06
434.637	8764.96
434.844	9547.29
435.052	9618.97
435.259	9618.97
435.466	9700.89
435.673	9698.84
435.88	10341.9
436.087	10948.1
436.294	10868.23
436.501	10714.63
436.708	10530.31
436.915	11116.03
437.122	11619.83
437.329	11650.55
437.537	11951.6
437.743	12330.48
437.95	12189.17
438.157	12522.99
438.364	13219.3
438.571	12942.82
438.778	13270.5
438.985	14392.78
439.192	13831.64
439.399	14200.27
439.606	13962.71
439.813	14769.61
440.02	15648.19
440.227	15300.03
440.433	14896.58
440.64	15500.73
440.847	15664.57
441.054	15893.94
441.261	16911.78
441.467	16811.43
441.674	17036.71
441.881	17851.8
442.088	17524.13
442.294	17702.3
442.501	18142.61
442.708	18324.88
442.914	18883.98
443.121	20026.75
443.328	19336.58
443.534	20952.43
443.741	20184.44
443.948	19907.96
444.154	21413.22
444.361	21067.11
444.568	21380.45
444.774	21413.22
444.981	21876.06
445.187	22173.02
445.394	23348.55
445.6	23084.36
445.807	25355.56
446.013	24124.73
446.22	24337.72
446.426	25488.68
446.633	25509.16
446.839	26770.71
447.046	25337.13
447.252	27047.18
447.459	26658.07
447.665	26866.96
447.871	27712.77
448.078	29011.18
448.284	27882.75
448.491	28306.68
448.697	29506.79
448.903	30037.22
449.11	29983.97
449.316	29658.34
449.522	30080.22
449.728	30883.03
449.935	30934.23
450.141	31423.69
450.347	31909.06
450.553	30934.23
450.76	31306.96
450.966	31993.03
451.172	31904.96
451.378	32713.91
451.584	32183.49
451.791	33019.06
451.997	32496.83
452.203	32937.14
452.409	33754.28
452.615	33193.14
452.821	32025.79
453.027	31755.46
453.233	33010.87
453.44	32230.59
453.646	32212.16
453.852	32332.99
454.058	32984.24
454.264	31341.77
454.47	32707.77
454.676	31474.89
454.882	32935.09
455.088	30170.33
455.294	30624.98
455.5	30821.59
455.705	31044.82
455.911	29752.55
456.117	29486.31
456.323	29048.05
456.529	27559.17
456.735	28656.89
456.941	27763.97
457.147	27172.11
457.352	26819.86
457.558	26352.92
457.764	26199.32
457.97	26035.49
458.176	25605.41
458.381	25140.52
458.587	24233.27
458.793	24194.36
458.999	23061.83
459.204	24352.06
459.41	23883.07
459.616	22359.38
459.821	22144.34
460.027	22232.41
460.233	21845.34
460.438	20671.86
460.644	20870.51
460.85	20335.99
461.055	19488.13
461.261	19553.66
461.466	18167.19
461.672	17810.84
461.878	18812.3
462.083	17708.44
462.289	17178.02
462.494	17100.2
462.7	16444.85
462.905	16051.64
463.111	16559.53
463.316	16770.47
463.522	16221.62
463.727	16096.69
463.932	16166.32
464.138	16096.69
464.343	16020.92
464.549	15654.33
464.754	16149.94
464.959	15830.46
465.165	15844.79
465.37	15357.38
465.575	14806.47
465.781	15504.83
465.986	15486.4
466.191	14929.35
466.397	14626.25
466.602	13966.81
466.807	14495.18
467.012	14570.96
467.218	14415.31
467.423	14155.22
467.628	14257.62
467.833	15005.13
468.038	14583.24
468.244	13819.35
468.449	14548.43
468.654	13991.38
468.859	13925.85
469.064	14020.05
469.269	13145.57
469.474	13362.65
469.679	13690.33
469.885	13159.91
470.09	13604.32
470.295	13356.51
470.5	13268.45
470.705	13319.65
470.91	13080.04
471.115	12697.06
471.32	12905.96
471.525	12766.7
471.73	12475.88
471.935	12357.1
472.139	11951.6
472.344	12172.78
472.549	12123.63
472.754	11902.45
472.959	11726.33
473.164	11652.6
473.369	11286.01
473.574	11757.05
473.778	11628.03
473.983	11339.26
474.188	11384.32
474.393	10958.34
474.598	11015.68
474.802	10853.89
475.007	10882.56
475.212	10835.46
475.417	10401.29
475.621	10649.1
475.826	10462.73
476.031	10337.8
476.235	10202.64
476.44	10325.52
476.645	10032.66
476.849	9934.36
477.054	9915.92
477.259	9821.72
477.463	9698.84
477.668	9455.13
477.872	9569.82
478.077	9444.89
478.282	9283.1
478.486	9240.09
478.691	9020.96
478.895	9223.71
479.1	9168.41
479.304	8945.19
479.509	8824.36
479.713	8910.37
479.918	8838.69
480.122	8683.05
480.326	8986.15
480.531	8752.68
480.735	8728.1
480.94	8855.08
481.144	8973.86
481.348	8212.01
481.553	8730.15
481.757	8306.22
481.961	8490.54
482.166	8492.59
482.37	8498.73
482.574	8330.8
482.778	8400.43
482.983	8535.59
483.187	8398.38
483.391	8644.13
483.595	8463.91
483.8	8197.68
484.004	8447.53
484.208	8529.45
484.412	8468.01
484.616	8476.2
484.821	8306.22
485.025	8293.93
485.229	8476.2
485.433	8377.9
485.637	8394.28
485.841	8298.03
486.045	8343.08
486.249	8402.47
486.453	8275.5
486.657	8414.76
486.861	8531.5
487.065	8429.1
487.269	8306.22
487.473	8271.4
487.677	8670.76
487.881	8660.52
488.085	8252.97
488.289	8289.84
488.493	8502.82
488.697	8627.75
488.901	8310.32
489.105	8406.57
489.309	8488.49
489.512	8322.6
489.716	8586.79
489.92	8416.81
490.124	8508.97
490.328	8568.36
490.531	8521.26
490.735	8709.67
490.939	8605.22
491.143	8648.23
491.346	8654.37
491.55	9018.91
491.754	8769.06
491.958	8916.51
492.161	8564.26
492.365	8799.78
492.569	8801.83
492.772	8875.56
492.976	8930.85
493.18	9137.7
493.383	9027.1
493.587	9078.3
493.79	9248.29
493.994	9070.11
494.197	9299.48
494.401	9340.44
494.605	9475.61
494.808	9580.06
495.012	9518.62
495.215	9498.14
495.419	9723.41
495.622	9797.14
495.825	9791
496.029	10028.56
496.232	10026.51
496.436	9948.69
496.639	10444.3
496.843	10292.75
497.046	10499.59
497.249	10536.46
497.453	10489.35
497.656	10649.1
497.859	10587.66
498.063	10978.82
498.266	10907.14
498.469	11052.55
498.673	11122.18
498.876	11281.92
499.079	11496.96
499.282	11417.08
499.485	11845.11
499.689	11759.1
499.892	12250.61
500.095	11931.12
500.298	12457.45
500.501	12215.79
500.705	12492.27
500.908	12559.85
501.111	12770.79
501.314	12889.57
501.517	13184.48
501.72	13276.64
501.923	13172.19
502.126	13485.53
502.329	13843.93
502.532	13913.56
502.735	14001.62
502.938	14040.53
503.141	14294.48
503.344	14464.46
503.547	14491.09
503.75	14986.69
503.953	14847.43
504.156	14978.5
504.359	15343.04
504.562	15582.65
504.765	15547.84
504.968	15932.86
505.17	16094.65
505.373	16065.97
505.576	16629.16
505.779	16608.69
505.982	16706.99
506.185	16737.71
506.387	17175.97
506.59	17100.2
506.793	17636.77
506.996	17612.19
507.198	18138.52
507.401	17956.25
507.604	18367.89
507.807	18355.6
508.009	18693.52
508.212	18820.49
508.415	19105.16
508.617	19434.88
508.82	19651.97
509.022	19541.38
509.225	19916.15
509.428	19946.87
509.63	20268.41
509.833	20450.67
510.035	21351.78
510.238	20745.58
510.44	21153.13
510.643	21452.13
510.845	21728.61
511.048	21554.53
511.25	22240.6
511.453	22310.23
511.655	23285.06
511.858	23053.64
512.06	23135.56
512.262	23559.49
512.465	23418.18
512.667	23833.92
512.87	24300.86
513.072	23881.02
513.274	24550.71
513.477	24677.68
513.679	25074.99
513.881	25058.6
514.084	25759.01
514.286	25840.93
514.488	26029.34
514.69	26666.26
514.893	27063.57
515.095	26805.52
515.297	27182.35
515.499	27337.99
515.701	27694.34
515.904	28128.51
516.106	28376.31
516.308	28445.94
516.51	29013.23
516.712	29015.28
516.914	29392.11
517.116	29893.86
517.318	29525.22
517.52	30098.66
517.722	30516.44
517.925	30991.57
518.127	31202.51
518.329	31472.84
518.531	31274.19
518.733	31878.34
518.935	32373.95
519.136	32316.61
519.338	33133.75
519.54	33031.35
519.742	33238.19
519.944	33328.3
520.146	34086.05
520.348	34579.61
520.55	34487.45
520.752	34727.06
520.954	35314.83
521.155	35073.17
521.357	35531.92
521.559	36074.63
521.761	36326.53
521.963	36011.14
522.164	36619.39
522.366	36957.3
522.568	37106.8
522.77	37547.12
522.971	38208.61
523.173	37401.71
523.375	37915.75
523.576	38333.54
523.778	38171.75
523.98	38683.74
524.181	38786.14
524.383	39443.54
524.584	39498.83
524.786	39740.49
524.988	39605.33
525.189	39832.65
525.391	40203.33
525.592	40621.12
525.794	40688.7
525.995	40803.39
526.197	41049.14
526.398	40954.94
526.6	41561.14
526.801	41507.89
527.003	41698.35
527.204	41378.87
527.406	41802.8
527.607	42181.67
527.808	42259.49
528.01	41819.18
528.211	42347.56
528.412	43414.55
528.614	42974.23
528.815	42931.23
529.016	43480.08
529.218	42548.26
529.419	43293.72
529.62	42986.52
529.822	42703.9
530.023	43645.97
530.224	43656.21
530.425	43340.82
530.626	43359.25
530.828	43183.13
531.029	44090.38
531.23	43303.96
531.431	43752.46
531.632	43762.7
531.833	43934.73
532.035	44117
532.236	44342.28
532.437	44076.04
532.638	44045.32
532.839	44628.99
533.04	44676.1
533.241	44082.19
533.442	44755.97
533.643	44553.22
533.844	43981.84
534.045	44612.61
534.246	44039.18
534.447	44616.71
534.648	44229.64
534.849	44665.86
535.05	44495.88
535.251	44618.75
535.451	44522.5
535.652	45089.79
535.853	44690.43
536.054	44872.7
536.255	44717.06
536.456	44602.37
536.657	44841.98
536.857	44647.43
537.058	44581.89
537.259	44657.67
537.46	45059.07
537.66	44440.58
537.861	44805.12
538.062	44399.62
538.263	44739.58
538.463	44770.3
538.664	44729.34
538.865	44680.19
539.065	44895.23
539.266	44188.68
539.466	44807.17
539.667	44301.32
539.868	45014.01
540.068	44887.04
540.269	44502.02
540.469	44798.98
540.67	44729.34
540.87	44864.51
541.071	44919.81
541.271	44958.72
541.472	44366.85
541.672	44426.24
541.873	44524.55
542.073	44274.7
542.274	45120.51
542.474	44467.2
542.675	44164.1
542.875	44610.56
543.075	44708.86
543.276	44305.41
543.476	45005.82
543.676	44542.98
543.877	44782.59
544.077	44440.58
544.277	44610.56
544.478	44440.58
544.678	44956.67
544.878	44698.62
545.078	44710.91
545.279	44264.46
545.479	44289.03
545.679	44620.8
545.879	44608.51
546.079	44493.83
546.28	44344.33
546.48	44106.76
546.68	44874.75
546.88	44821.5
547.08	44846.08
547.28	43783.18
547.48	44207.11
547.68	44426.24
547.88	43963.4
548.081	44522.5
548.281	44321.8
548.481	44227.59
548.681	44477.44
548.881	44618.75
549.081	44491.78
549.28	44176.39
549.48	44323.85
549.68	44373
549.88	44944.38
550.08	44319.75
550.28	44356.61
550.48	44196.87
550.68	44418.05
550.88	43842.57
551.08	44133.39
551.279	44692.48
551.479	44084.23
551.679	44028.94
551.879	44254.22
552.079	44428.29
552.278	44293.13
552.478	43971.6
552.678	44110.86
552.878	44362.76
553.077	43836.43
553.277	43566.1
553.477	44823.55
553.676	43842.57
553.876	44211.21
554.076	43832.33
554.275	43672.59
554.475	43318.29
554.674	44055.56
554.874	43801.61
555.074	43527.19
555.273	44078.09
555.473	43772.94
555.672	43525.14
555.872	43191.32
556.071	43508.75
556.271	43801.61
556.47	43791.37
556.67	43576.34
556.869	43406.36
557.068	43449.36
557.268	43090.97
557.467	43265.05
557.667	43426.84
557.866	43412.5
558.065	42978.33
558.265	43084.83
558.464	42564.64
558.663	43451.41
558.863	42953.76
559.062	43250.71
559.261	42855.45
559.461	43207.7
559.66	42464.29
559.859	42720.29
560.058	42490.91
560.258	42658.85
560.457	42507.3
560.656	42785.82
560.855	42234.92
561.054	42869.79
561.253	42310.69
561.453	42531.87
561.652	42277.93
561.851	42374.18
562.05	42054.7
562.249	42169.38
562.448	42216.49
562.647	42091.56
562.846	42058.79
563.045	41956.39
563.244	41356.34
563.443	42206.25
563.642	41440.31
563.841	41630.77
564.04	41473.07
564.239	41485.36
564.438	41540.66
564.637	41663.53
564.836	41645.1
565.035	41180.21
565.234	40975.42
565.432	40762.43
565.631	41067.58
565.83	40950.84
566.029	41051.19
566.228	40844.35
566.427	40946.75
566.625	40461.38
566.824	40291.4
567.023	40631.36
567.222	40043.59
567.42	40485.95
567.619	40254.53
567.818	40248.39
568.016	39601.23
568.215	40283.2
568.414	40125.51
568.612	40463.43
568.811	39832.65
569.01	40272.96
569.208	39281.75
569.407	39627.85
569.605	39048.28
569.804	39658.57
570.002	39197.78
570.201	39392.34
570.4	39165.01
570.598	39218.26
570.797	38804.57
570.995	39033.94
571.193	38599.77
571.392	38851.67
571.59	38630.49
571.789	38515.81
571.987	38579.29
572.186	38304.87
572.384	37999.72
572.582	38106.21
572.781	38407.26
572.979	37702.76
573.177	38085.73
573.376	37602.41
573.574	37514.35
573.772	37876.84
573.971	37393.52
574.169	37268.59
574.367	36820.09
574.565	37348.46
574.763	37031.03
574.962	36848.76
575.16	36725.88
575.358	36914.3
575.556	36539.52
575.754	36856.95
575.952	36390.02
576.151	36809.85
576.349	36236.42
576.547	35865.74
576.745	36150.4
576.943	35974.28
577.141	36048
577.339	35968.13
577.537	35640.46
577.735	35724.43
577.933	35327.12
578.131	35609.74
578.329	35241.1
578.527	35040.4
578.725	35171.47
578.923	35359.89
579.121	35155.09
579.319	34985.11
579.516	35249.3
579.714	35265.68
579.912	34639
580.11	34208.93
580.308	34577.56
580.506	34350.24
580.704	34061.47
580.901	34368.67
581.099	34376.86
581.297	33887.4
581.495	33807.53
581.692	34028.71
581.89	33596.59
582.088	33936.55
582.285	33729.7
582.483	33676.46
582.681	33729.7
582.878	33402.03
583.076	33123.51
583.274	33285.29
583.471	32631.99
583.669	33389.74
583.866	32769.21
584.064	33281.2
584.262	32505.02
584.459	32629.94
584.657	32160.96
584.854	32971.96
585.052	32222.4
585.249	32373.95
585.447	32134.34
585.644	32089.28
585.841	32083.14
586.039	32148.67
586.236	31550.67
586.434	31530.19
586.631	31227.09
586.828	31540.43
587.026	31777.99
587.223	31329.48
587.42	31233.23
587.618	31151.31
587.815	31075.54
588.012	30966.99
588.21	30944.47
588.407	31028.43
588.604	30661.85
588.801	30518.49
588.999	30874.84
589.196	30577.88
589.393	30573.78
589.59	30153.95
589.787	30463.19
589.984	30104.8
590.182	29971.68
590.379	30213.34
590.576	29752.55
590.773	30010.59
590.97	29531.37
591.167	30000.35
591.364	29183.21
591.561	29297.9
591.758	29351.15
591.955	29283.56
592.152	29512.94
592.349	28959.98
592.546	29451.5
592.743	28921.07
592.94	28480.76
593.137	28841.2
593.334	28943.6
593.531	28787.96
593.727	28556.53
593.924	28642.55
594.121	28216.57
594.318	28613.88
594.515	28091.65
594.712	28323.07
594.908	28052.73
595.105	28235
595.302	27874.56
595.499	27862.27
595.696	27680
595.892	27735.3
596.089	27634.95
596.286	27831.55
596.482	27534.6
596.679	27454.73
596.876	27309.32
597.072	27362.57
597.269	27507.97
597.466	27114.76
597.662	26873.1
597.859	27006.22
598.055	26678.55
598.252	26754.32
598.448	26856.72
598.645	26799.38
598.841	26486.04
599.038	26527
599.234	26217.75
599.431	26326.3
599.627	26053.92
599.824	26465.56
600.02	26008.86
600.217	26029.34
600.413	26094.88
600.609	25672.99
600.806	25668.9
601.002	26015.01
601.198	25541.92
601.395	25521.45
601.591	25685.28
601.787	25586.98
601.984	25242.92
602.18	25439.53
602.376	25050.41
602.572	24939.82
602.769	25314.6
602.965	24487.22
603.161	24687.92
603.357	24806.7
603.553	24655.15
603.75	24671.54
603.946	24524.08
604.142	24458.55
604.338	23833.92
604.534	24309.05
604.73	24081.72
604.926	24053.05
605.122	23745.86
605.318	23663.94
605.514	23704.9
605.71	24024.38
605.906	23686.47
606.102	23602.5
606.298	23971.13
606.494	23606.59
606.69	23690.56
606.886	23622.98
607.082	23215.43
607.278	23289.16
607.474	22904.14
607.67	23375.17
607.866	22742.35
608.062	23407.94
608.257	22871.37
608.453	23006.54
608.649	22756.69
608.845	22672.72
609.041	22787.41
609.236	22730.06
609.432	22275.41
609.628	22451.54
609.824	22216.02
610.019	22596.95
610.215	22359.38
610.411	22369.62
610.606	22510.93
610.802	22162.78
610.998	22019.42
611.193	22240.6
611.389	21847.39
611.584	22062.43
611.78	21730.66
611.976	21710.18
612.171	22005.08
612.367	21796.19
612.562	21618.02
612.758	21378.4
612.953	21501.28
613.149	21615.97
613.344	21261.67
613.539	21777.76
613.735	21396.84
613.93	21472.61
614.126	21499.23
614.321	21450.08
614.517	21187.94
614.712	20999.53
614.907	20997.48
615.103	21347.68
615.298	21085.54
615.493	21306.73
615.688	20569.46
615.884	21048.68
616.079	20641.14
616.274	20678
616.47	20653.42
616.665	20714.86
616.86	20495.73
617.055	20387.19
617.25	20526.45
617.445	20342.13
617.641	20118.9
617.836	20526.45
618.031	20237.69
618.226	20460.91
618.421	19834.24
618.616	20020.6
618.811	19715.45
619.006	20172.15
619.201	19600.77
619.396	19660.16
619.591	19654.01
619.786	19834.24
619.981	19225.99
620.176	19457.41
620.371	19185.03
620.566	19232.13
620.761	19160.45
620.956	19019.14
621.151	18773.39
621.346	18818.44
621.541	18695.57
621.735	19072.39
621.93	18193.81
622.125	18697.61
622.32	18271.64
622.515	18572.69
622.709	18474.38
622.904	17919.39
623.099	18111.89
623.294	18087.32
623.488	17886.62
623.683	17784.22
623.878	17812.89
624.072	17540.51
624.267	17749.4
624.462	17497.5
624.656	17194.4
624.851	17405.35
625.046	16969.13
625.24	17165.73
625.435	17130.92
625.629	16958.89
625.824	16838.06
626.018	16543.15
626.213	16563.63
626.407	16713.13
626.602	16092.6
626.796	16424.37
626.991	16227.76
627.185	16274.87
627.38	16317.87
627.574	15998.39
627.768	15949.24
627.963	15857.08
628.157	15596.99
628.352	15723.96
628.546	15314.37
628.74	15590.84
628.935	15334.85
629.129	15400.38
629.323	15076.8
629.517	15162.82
629.712	15207.87
629.906	14915.02
630.1	14890.44
630.294	14687.69
630.489	14745.03
630.683	15056.32
630.877	14677.45
631.071	14466.51
631.265	14349.78
631.459	14169.55
631.653	14157.27
631.848	14384.59
632.042	14228.95
632.236	14241.23
632.43	14013.91
632.624	14116.31
632.818	13886.93
633.012	13694.43
633.206	13600.22
633.4	13530.59
633.594	13778.39
633.788	13587.93
633.982	13376.99
634.176	13436.38
634.369	13481.44
634.563	13227.49
634.757	13329.89
634.951	12930.53
635.145	12985.83
635.339	13221.34
635.533	12625.39
635.726	12951.01
635.92	12871.14
636.114	12797.42
636.308	12527.08
636.501	12649.96
636.695	12778.98
636.889	12406.25
637.083	12373.49
637.276	12310
637.47	12238.32
637.664	12363.25
637.857	12127.73
638.051	12342.77
638.244	12152.31
638.438	12060.15
638.632	11855.35
638.825	11927.03
639.019	11814.39
639.212	11855.35
639.406	11599.35
639.599	11693.56
639.793	11699.7
639.986	11554.3
640.18	11318.78
640.373	11353.6
640.567	11271.68
640.76	11415.04
640.954	11089.41
641.147	11124.22
641.34	10874.37
641.534	10909.19
641.727	10776.07
641.92	10870.28
642.114	10702.34
642.307	10751.49
642.5	10511.88
642.694	10487.31
642.887	10452.49
643.08	10608.14
643.273	10466.83
643.467	10380.81
643.66	10155.54
643.853	10016.27
644.046	10026.51
644.239	10184.21
644.432	10337.8
644.626	9893.4
644.819	9844.24
645.012	9924.12
645.205	9963.03
645.398	9739.8
645.591	9762.33
645.784	9561.62
645.977	9752.09
646.17	9510.43
646.363	9414.17
646.556	9352.73
646.749	9373.21
646.942	9479.71
647.135	9338.4
647.328	9213.47
647.521	9223.71
647.714	9051.68
647.907	9207.33
648.099	8928.8
648.292	8980
648.485	8826.4
648.678	8805.92
648.871	8756.77
649.064	8576.55
649.256	8676.9
649.449	8601.13
649.642	8721.96
649.835	8605.22
650.027	8637.99
650.22	8375.85
650.413	8392.23
650.605	8404.52
650.798	8404.52
650.991	8207.92
651.183	8316.46
651.376	8169.01
651.568	8166.96
651.761	8091.18
651.954	8007.22
652.146	7833.14
652.339	7853.62
652.531	7831.09
652.724	7878.19
652.916	7757.36
653.109	7689.78
653.301	7710.26
653.494	7804.47
653.686	7708.21
653.879	7566.9
654.071	7349.82
654.263	7519.8
654.456	7372.35
654.648	7521.85
654.84	7259.71
655.033	7284.28
655.225	7329.34
655.417	7259.71
655.61	7136.83
655.802	7169.6
655.994	7118.4
656.186	7136.83
656.379	7188.03
656.571	7067.2
656.763	6909.51
656.955	6893.12
657.148	6905.41
657.34	6913.6
657.532	6895.17
657.724	6956.61
657.916	6848.07
658.108	6792.77
658.3	6573.64
658.492	6499.91
658.684	6579.78
658.876	6516.3
659.068	6389.32
659.26	6413.9
659.452	6514.25
659.644	6547.01
659.836	6239.82
660.028	6360.65
660.22	6284.87
660.412	6352.46
660.604	6155.85
660.796	6139.47
660.988	6102.61
661.18	6043.21
661.372	5906
661.563	5965.39
661.755	5965.39
661.947	6086.22
662.139	5719.64
662.331	5615.19
662.522	5758.55
662.714	5776.98
662.906	5688.92
663.097	5799.51
663.289	5733.97
663.481	5664.34
663.673	5662.29
663.864	5484.12
664.056	5590.61
664.247	5572.18
664.439	5559.89
664.631	5307.99
664.822	5391.96
665.014	5537.37
665.205	5426.78
665.397	5289.56
665.588	5287.51
665.78	5193.31
665.971	5230.17
666.163	5195.36
666.354	5119.58
666.546	5105.24
666.737	4955.74
666.929	5033.57
667.12	5031.52
667.311	5004.89
667.503	5045.85
667.694	4963.93
667.885	5045.85
668.077	4859.49
668.268	4867.68
668.459	4816.48
668.651	4931.17
668.842	4904.54
669.033	4873.82
669.224	4757.09
669.416	4705.89
669.607	4621.92
669.798	4839.01
669.989	4900.45
670.18	4775.52
670.371	4597.35
670.563	4603.49
670.754	4515.43
670.945	4503.14
671.136	4542.05
671.327	4562.53
671.518	4488.81
671.709	4613.73
671.9	4365.93
672.091	4441.7
672.282	4431.46
672.473	4431.46
672.664	4408.94
672.855	4337.26
673.046	4261.48
673.237	4324.97
673.428	4300.39
673.619	4435.56
673.809	4232.81
674	4324.97
674.191	4218.47
674.382	4234.86
674.573	4142.7
674.764	4089.45
674.954	4208.23
675.145	4320.87
675.336	4105.84
675.527	4210.28
675.717	4079.21
675.908	3989.1
676.099	4071.02
676.289	3931.76
676.48	4109.93
676.671	3921.52
676.861	4195.95
677.052	3911.28
677.243	3960.43
677.433	3997.29
677.624	4124.27
677.814	3974.77
678.005	3982.96
678.195	3851.89
678.386	4005.49
678.576	3905.14
678.767	3939.95
678.957	3876.46
679.148	3821.17
679.338	3860.08
679.529	3745.39
679.719	3853.94
679.909	3825.26
680.1	3903.09
680.29	3769.97
680.481	3823.22
680.671	3745.39
680.861	3681.91
681.052	3696.24
681.242	3696.24
681.432	3739.25
681.622	3579.51
681.813	3667.57
682.003	3747.44
682.193	3634.8
682.383	3587.7
682.573	3546.74
682.764	3626.61
682.954	3604.08
683.144	3571.32
683.334	3677.81
683.524	3618.42
683.714	3464.82
683.904	3563.12
684.094	3489.4
684.284	3427.96
684.474	3595.89
684.664	3522.16
684.854	3489.4
685.044	3509.88
685.234	3468.92
685.424	3518.07
685.614	3432.05
685.804	3540.6
685.994	3477.11
686.184	3495.54
686.374	3442.29
686.564	3403.38
686.753	3376.76
686.943	3481.21
687.133	3260.02
687.323	3348.09
687.513	3393.14
687.702	3358.33
687.892	3300.98
688.082	3411.57
688.272	3403.38
688.461	3303.03
688.651	3278.46
688.841	3300.98
689.03	3286.65
689.22	3341.94
689.41	3237.5
689.599	3196.54
689.789	3331.7
689.979	3214.97
690.168	3348.09
690.358	3196.54
690.547	3153.53
690.737	3241.59
690.926	3206.78
691.116	3161.72
691.305	3231.35
691.495	3163.77
691.684	3169.91
691.874	3241.59
692.063	3288.7
692.252	3253.88
692.442	3153.53
692.631	3079.8
692.82	3155.58
693.01	3268.22
693.199	3262.07
693.388	3167.87
693.578	3194.49
693.767	3137.15
693.956	3110.52
694.146	3081.85
694.335	3145.34
694.524	3190.39
694.713	3042.94
694.902	3153.53
695.092	3047.04
695.281	3047.04
695.47	3067.52
695.659	2948.73
695.848	3098.24
696.037	3141.24
696.226	3032.7
696.415	2961.02
696.604	3188.35
696.793	3085.95
696.982	3030.65
697.171	2922.11
697.36	3016.32
697.549	3026.56
697.738	3122.81
697.927	3065.47
698.116	3102.33
698.305	3026.56
698.494	3018.36
698.683	3090.04
698.872	2999.93
699.061	2961.02
699.25	3065.47
699.438	2987.65
699.627	2991.74
699.816	2979.45
700.005	2944.64
700.193	2967.17
700.382	2995.84
700.571	2832
700.76	3022.46
700.948	3028.6
701.137	2997.88
701.326	2791.04
701.514	2954.88
701.703	2885.25
701.892	2889.34
702.08	2946.69
702.269	3022.46
702.457	2965.12
702.646	2948.73
702.834	2971.26
703.023	2791.04
703.212	2903.68
703.4	2950.78
703.589	2870.91
703.777	2868.86
703.965	2899.58
704.154	2883.2
704.342	2850.43
704.531	2842.24
704.719	2754.18
704.907	2799.23
705.096	2811.52
705.284	2840.19
705.472	2965.12
705.661	2725.51
705.849	2801.28
706.037	2735.74
706.226	2735.74
706.414	2598.53
706.602	2606.72
706.79	2713.22
706.979	2713.22
707.167	2817.66
707.355	2709.12
707.543	2573.96
707.731	2729.6
707.919	2698.88
708.107	2606.72
708.296	2639.49
708.484	2678.4
708.672	2657.92
708.86	2643.59
709.048	2631.3
709.236	2567.81
709.424	2594.44
709.612	2653.83
709.8	2533
709.988	2631.3
710.176	2551.43
710.364	2729.6
710.551	2461.32
710.739	2516.61
710.927	2604.67
711.115	2596.48
711.303	2502.28
711.491	2569.86
711.679	2535.04
711.866	2414.21
712.054	2473.6
712.242	2430.6
712.43	2492.04
712.617	2442.89
712.805	2363.01
712.993	2397.83
713.181	2367.11
713.368	2453.13
713.556	2438.79
713.744	2277
713.931	2489.99
714.119	2367.11
714.306	2262.66
714.494	2246.28
714.682	2324.1
714.869	2277
715.057	2328.2
715.244	2277
715.432	2324.1
715.619	2305.67
715.807	2260.62
715.994	2344.58
716.182	2254.47
716.369	2137.74
716.556	2174.6
716.744	2248.33
716.931	2141.83
717.119	2254.47
717.306	2238.09
717.493	2188.94
717.681	2260.62
717.868	2141.83
718.055	2156.17
718.242	2229.9
718.43	2104.97
718.617	2147.98
718.804	2180.75
718.991	2045.58
719.179	2250.38
719.366	2139.79
719.553	1996.43
719.74	2068.11
719.927	1928.85
720.114	2166.41
720.301	2051.72
720.488	2080.39
720.676	1998.48
720.863	2014.86
721.05	2006.67
721.237	2096.78
721.424	1990.28
721.611	1957.52
721.798	1973.9
721.985	1945.23
722.172	1898.13
722.358	1914.51
722.545	1926.8
722.732	1941.13
722.919	1973.9
723.106	2014.86
723.293	1883.79
723.48	1975.95
723.667	1982.09
723.853	1842.83
724.04	1861.26
724.227	1871.5
724.414	1910.41
724.6	1891.98
724.787	1904.27
724.974	1949.32
725.161	1810.06
725.347	1810.06
725.534	1949.32
725.72	1803.92
725.907	1754.77
726.094	1834.64
726.28	1771.15
726.467	1771.15
726.653	1818.25
726.84	1791.63
727.027	1857.17
727.213	1754.77
727.4	1646.23
727.586	1808.02
727.773	1719.95
727.959	1795.73
728.145	1777.3
728.332	1713.81
728.518	1699.47
728.705	1689.23
728.891	1734.29
729.077	1719.95
729.264	1623.7
729.45	1726.1
729.636	1707.66
729.823	1683.09
730.009	1615.51
730.195	1588.88
730.382	1842.83
730.568	1629.84
730.754	1722
730.94	1724.05
731.126	1683.09
731.313	1627.79
731.499	1517.2
731.685	1781.39
731.871	1633.94
732.057	1621.65
732.243	1691.28
732.429	1631.89
732.615	1599.12
732.801	1658.51
732.987	1582.74
733.173	1607.31
733.359	1638.03
733.545	1599.12
733.731	1580.69
733.917	1603.22
734.103	1595.03
734.289	1519.25
734.475	1564.31
734.661	1580.69
734.847	1644.18
735.033	1564.31
735.219	1511.06
735.404	1541.78
735.59	1498.77
735.776	1582.74
735.962	1439.38
736.148	1474.2
736.333	1478.29
736.519	1515.16
736.705	1543.83
736.89	1427.09
737.076	1390.23
737.262	1500.82
737.447	1474.2
737.633	1482.39
737.819	1568.4
738.004	1369.75
738.19	1355.41
738.375	1414.81
738.561	1390.23
738.747	1445.52
738.932	1420.95
739.118	1439.38
739.303	1437.33
739.489	1377.94
739.674	1359.51
739.859	1359.51
740.045	1390.23
740.23	1367.7
740.416	1341.08
740.601	1375.89
740.786	1328.79
740.972	1253.02
741.157	1410.71
741.342	1394.33
741.528	1336.98
741.713	1228.44
741.898	1355.41
742.084	1308.31
742.269	1255.06
742.454	1244.82
742.639	1230.49
742.824	1279.64
743.01	1271.45
743.195	1310.36
743.38	1271.45
743.565	1271.45
743.75	1220.25
743.935	1248.92
744.12	1216.15
744.305	1197.72
744.49	1195.67
744.675	1193.62
744.86	1197.72
745.045	1126.04
745.23	1220.25
745.415	1265.3
745.6	1250.97
745.785	1207.96
745.97	1140.38
746.155	1162.9
746.34	1107.61
746.525	1185.43
746.71	1212.06
746.895	1156.76
747.079	1179.29
747.264	1175.19
747.449	1146.52
747.634	1066.65
747.819	1203.86
748.003	1085.08
748.188	1058.46
748.373	1085.08
748.557	1113.75
748.742	1136.28
748.927	1089.18
749.111	999.07
749.296	1033.88
749.481	1162.9
749.665	1046.17
749.85	1019.55
750.034	1044.12
750.219	992.92
750.404	954.01
750.588	978.59
750.773	1042.07
750.957	1064.6
751.141	1115.8
751.326	1025.69
751.51	994.97
751.695	1015.45
751.879	919.2
752.064	974.49
752.248	927.39
752.432	876.19
752.617	962.2
752.801	960.16
752.985	902.81
753.17	958.11
753.354	929.44
753.538	966.3
753.722	933.53
753.907	913.05
754.091	904.86
754.275	913.05
754.459	929.44
754.643	861.85
754.828	878.24
755.012	855.71
755.196	857.76
755.38	890.53
755.564	726.69
755.748	868
755.932	796.32
756.116	890.53
756.3	818.85
756.484	894.62
756.668	882.33
756.852	796.32
757.036	786.08
757.22	913.05
757.404	786.08
757.588	845.47
757.772	859.81
757.956	812.7
758.14	790.17
758.323	775.84
758.507	847.52
758.691	788.13
758.875	716.45
759.059	745.12
759.242	769.69
759.426	691.87
759.61	695.97
759.794	693.92
759.977	659.1
760.161	763.55
760.345	794.27
760.528	704.16
760.712	661.15
760.895	661.15
761.079	673.44
761.263	585.38
761.446	738.98
761.63	671.39
761.813	626.34
761.997	614.05
762.18	706.21
762.364	786.08
762.547	663.2
762.731	612
762.914	753.31
763.098	628.39
763.281	689.82
763.464	661.15
763.648	716.45
763.831	603.81
764.015	652.96
764.198	667.3
764.381	626.34
764.564	702.11
764.748	679.58
764.931	679.58
765.114	622.24
765.297	597.67
765.481	560.8
765.664	614.05
765.847	624.29
766.03	607.91
766.213	648.86
766.397	638.62
766.58	571.04
766.763	614.05
766.946	616.1
767.129	507.55
767.312	513.7
767.495	577.19
767.678	640.67
767.861	659.1
768.044	624.29
768.227	638.62
768.41	546.47
768.593	587.43
768.776	607.91
768.959	560.8
769.142	575.14
769.324	581.28
769.507	560.8
769.69	577.19
769.873	575.14
770.056	579.23
770.239	513.7
770.421	515.75
770.604	558.75
770.787	530.08
770.97	497.32
771.152	517.79
771.335	558.75
771.518	550.56
771.7	593.57
771.883	534.18
772.066	491.17
772.248	495.27
772.431	587.43
772.613	556.71
772.796	468.64
772.978	466.6
773.161	525.99
773.343	534.18
773.526	456.36
773.708	466.6
773.891	548.51
774.073	515.75
774.256	470.69
774.438	519.84
774.621	509.6
774.803	552.61
774.985	525.99
775.168	528.03
775.35	515.75
775.532	528.03
775.715	407.2
775.897	464.55
776.079	503.46
776.261	501.41
776.444	419.49
776.626	446.12
776.808	534.18
776.99	458.4
777.173	474.79
777.355	450.21
777.537	456.36
777.719	485.03
777.901	378.53
778.083	515.75
778.265	495.27
778.447	468.64
778.629	409.25
778.811	499.36
778.993	452.26
779.175	442.02
779.357	409.25
779.539	435.88
779.721	386.72
779.903	364.2
780.085	427.68
780.267	476.84
780.449	392.87
780.631	364.2
780.812	392.87
780.994	450.21
781.176	335.53
781.358	384.68
781.54	370.34
781.721	343.72
781.903	319.14
782.085	302.76
782.267	419.49
782.448	360.1
782.63	302.76
782.812	378.53
782.993	347.81
783.175	325.29
783.357	315.05
783.538	401.06
783.72	353.96
783.901	401.06
784.083	368.29
784.264	313
784.446	351.91
784.627	327.33
784.809	353.96
784.99	249.51
785.172	212.65
785.353	298.66
785.535	335.53
785.716	396.96
785.897	253.61
786.079	405.16
786.26	294.57
786.441	323.24
786.623	335.53
786.804	319.14
786.985	366.25
787.167	272.04
787.348	247.46
787.529	257.7
787.71	298.66
787.891	325.29
788.073	288.42
788.254	243.37
788.435	261.8
788.616	315.05
788.797	335.53
788.978	210.6
789.159	210.6
789.34	294.57
789.522	241.32
789.703	249.51
789.884	327.33
790.065	255.65
790.246	237.22
790.427	249.51
790.607	245.41
790.788	222.89
790.969	214.7
791.15	288.42
791.331	245.41
791.512	269.99
791.693	257.7
791.874	212.65
792.054	267.94
792.235	247.46
792.416	181.93
792.597	294.57
792.778	276.13
792.958	243.37
793.139	165.54
793.32	222.89
793.5	175.78
793.681	153.26
793.862	220.84
794.042	214.7
794.223	196.26
794.404	192.17
794.584	237.22
794.765	216.74
794.945	179.88
795.126	204.46
795.306	179.88
795.487	251.56
795.667	216.74
795.848	134.82
796.028	245.41
796.209	237.22
796.389	181.93
796.57	149.16
796.75	206.5
796.93	231.08
797.111	181.93
797.291	163.5
797.471	245.41
797.652	226.98
797.832	108.2
798.012	229.03
798.192	169.64
798.373	237.22
798.553	143.02
798.733	140.97
798.913	208.55
799.093	163.5
799.274	128.68
799.454	241.32
799.634	263.85
799.814	155.3
799.994	216.74
800.174	149.16
800.354	83.63
800.534	83.63
800.714	175.78
800.894	183.98
801.074	147.11
801.254	134.82
801.434	188.07
801.614	132.78
801.794	77.48
801.974	427.68
802.154	212.65
802.334	130.73
802.514	181.93
802.693	188.07
802.873	179.88
803.053	194.22
803.233	155.3
803.413	196.26
803.592	87.72
803.772	163.5
803.952	122.54
804.131	73.39
804.311	204.46
804.491	169.64
804.67	108.2
804.85	202.41
805.03	106.15
805.209	179.88
805.389	130.73
805.568	169.64
805.748	44.71
805.928	85.67
806.107	169.64
806.287	132.78
806.466	138.92
806.646	149.16
806.825	134.82
807.004	122.54
807.184	128.68
807.363	108.2
807.543	110.25
807.722	171.69
807.901	196.26
808.081	81.58
808.26	130.73
808.439	122.54
808.619	112.3
808.798	179.88
808.977	171.69
809.156	161.45
809.336	118.44
809.515	147.11
809.694	110.25
809.873	75.43
810.052	136.87
810.231	126.63
810.411	106.15
810.59	167.59
810.769	48.81
810.948	171.69
811.127	106.15
811.306	112.3
811.485	85.67
811.664	159.4
811.843	69.29
812.022	89.77
812.201	97.96
812.38	73.39
812.559	112.3
812.737	110.25
812.916	153.26
813.095	130.73
813.274	106.15
813.453	138.92
813.632	102.06
813.811	32.43
813.989	126.63
814.168	50.86
814.347	57
814.526	89.77
814.704	175.78
814.883	100.01
815.062	89.77
815.24	192.17
815.419	40.62
815.598	108.2
815.776	85.67
815.955	130.73
816.133	83.63
816.312	151.21
816.49	69.29
816.669	22.19
816.847	95.91
817.026	116.39
817.204	67.24
817.383	63.15
817.561	22.19
817.74	106.15
817.918	163.5
818.097	73.39
818.275	102.06
818.453	81.58
818.632	155.3
818.81	89.77
818.988	179.88
819.167	97.96
819.345	108.2
819.523	79.53
819.701	179.88
819.879	85.67
820.058	188.07
820.236	124.58
820.414	108.2
820.592	61.1
820.77	63.15
820.948	143.02
821.127	61.1
821.305	130.73
821.483	110.25
821.661	54.95
821.839	95.91
822.017	118.44
822.195	89.77
822.373	108.2
822.551	77.48
822.729	65.19
822.907	5.8
823.085	73.39
823.262	69.29
823.44	77.48
823.618	163.5
823.796	77.48
823.974	77.48
824.152	91.82
824.329	44.71
824.507	48.81
824.685	38.57
824.863	93.87
825.04	81.58
825.218	57
825.396	114.34
825.574	50.86
825.751	161.45
825.929	73.39
826.107	44.71
826.284	-6.49
826.462	42.67
826.639	106.15
826.817	40.62
826.994	34.47
827.172	136.87
827.349	89.77
827.527	77.48
827.704	-37.2
827.882	104.11
828.059	26.28
828.237	-67.92
828.414	81.58
828.591	-26.96
828.769	147.11
828.946	63.15
829.124	83.63
829.301	48.81
829.478	20.14
829.655	81.58
829.833	44.71
830.01	52.91
830.187	132.78
830.364	93.87
830.542	61.1
830.719	20.14
830.896	52.91
831.073	-35.16
831.25	54.95
831.427	54.95
831.604	40.62
831.782	34.47
831.959	130.73
832.136	32.43
832.313	57
832.49	-51.54
832.667	24.23
832.844	71.34
833.021	65.19
833.198	59.05
833.374	50.86
833.551	16.04
833.728	-22.87
833.905	108.2
834.082	48.81
834.259	91.82
834.436	81.58
834.612	77.48
834.789	16.04
834.966	87.72
835.143	75.43
835.319	50.86
835.496	-2.39
835.673	-33.11
835.85	36.52
836.026	40.62
836.203	59.05
836.38	52.91
836.556	50.86
836.733	3.75
836.909	93.87
837.086	20.14
837.262	89.77
837.439	52.91
837.616	83.63
837.792	89.77
837.968	22.19
838.145	1.71
838.321	3.75
838.498	79.53
838.674	114.34
838.851	28.33
839.027	48.81
839.203	40.62
839.38	28.33
839.556	-12.63
839.732	-20.82
839.909	-24.92
840.085	34.47
840.261	71.34
840.437	81.58
840.614	77.48
840.79	108.2
840.966	9.9
841.142	85.67
841.318	30.38
841.494	-22.87
841.671	81.58
841.847	63.15
842.023	36.52
842.199	32.43
842.375	3.75
842.551	30.38
842.727	61.1
842.903	32.43
843.079	52.91
843.255	13.99
843.431	48.81
843.607	-14.68
843.783	-35.16
843.959	28.33
844.134	16.04
844.31	85.67
844.486	50.86
844.662	42.67
844.838	7.85
845.013	87.72
845.189	-4.44
845.365	63.15
845.541	16.04
845.716	59.05
845.892	44.71
846.068	46.76
846.244	30.38
846.419	48.81
846.595	-37.2
846.77	75.43
846.946	9.9
847.122	20.14
847.297	7.85
847.473	67.24
847.648	-63.83
847.824	57
847.999	36.52
848.175	69.29
848.35	-14.68
848.526	87.72
848.701	-53.59
848.876	48.81
849.052	75.43
849.227	26.28
849.403	50.86
849.578	-37.2
849.753	-63.83
849.929	16.04
850.104	-26.96
850.279	42.67
850.454	20.14
850.63	75.43
850.805	22.19
850.98	42.67
851.155	-57.68
851.33	83.63
851.505	40.62
851.681	85.67
851.856	7.85
852.031	46.76
852.206	-14.68
852.381	83.63
852.556	34.47
852.731	57
852.906	13.99
853.081	28.33
853.256	20.14
853.431	20.14
853.606	22.19
853.781	-57.68
853.956	61.1
854.131	36.52
854.305	48.81
854.48	32.43
854.655	16.04
854.83	1.71
855.005	-22.87
855.18	-0.34
855.354	36.52
855.529	42.67
855.704	18.09
855.879	-6.49
856.053	16.04
856.228	-4.44
856.403	22.19
856.577	50.86
856.752	26.28
856.926	26.28
857.101	42.67
857.276	7.85
857.45	-39.25
857.625	16.04
857.799	16.04
857.974	57
858.148	20.14
858.323	-8.53
858.497	26.28
858.672	13.99
858.846	28.33
859.02	34.47
859.195	22.19
859.369	5.8
859.543	-10.58
859.718	67.24
859.892	22.19
860.066	18.09
860.241	40.62
860.415	-16.73
860.589	3.75
860.763	38.57
860.938	36.52
861.112	65.19
861.286	13.99
861.46	3.75
861.634	-33.11
861.808	61.1
861.982	-12.63
862.157	-0.34
862.331	7.85
862.505	18.09
862.679	40.62
862.853	57
863.027	3.75
863.201	42.67
863.375	26.28
863.549	52.91
863.722	44.71
863.896	13.99
864.07	22.19
864.244	85.67
864.418	-31.06
864.592	81.58
864.766	63.15
864.939	-8.53
865.113	-63.83
865.287	73.39
865.461	54.95
865.634	-2.39
865.808	-55.64
865.982	11.95
866.156	-63.83
866.329	30.38
866.503	38.57
866.676	-14.68
866.85	34.47
867.024	32.43
867.197	48.81
867.371	7.85
867.544	-33.11
867.718	7.85
867.891	24.23
868.065	11.95
868.238	-26.96
868.412	-16.73
868.585	-61.78
868.759	-8.53
868.932	-33.11
869.105	73.39
869.279	-16.73
869.452	83.63
869.625	13.99
869.799	20.14
869.972	-33.11
870.145	24.23
870.319	-6.49
870.492	65.19
870.665	-14.68
870.838	11.95
871.011	40.62
871.185	24.23
871.358	32.43
871.531	-74.07
871.704	-29.01
871.877	-24.92
872.05	-8.53
872.223	-6.49
872.396	30.38
872.569	-6.49
872.742	59.05
872.915	52.91
873.088	-37.2
873.261	32.43
873.434	3.75
873.607	-0.34
873.78	-24.92
873.953	24.23
874.126	9.9
874.299	-12.63
874.471	-6.49
874.644	-10.58
874.817	50.86
874.99	24.23
875.163	-0.34
875.335	-41.3
875.508	-33.11
875.681	57
875.853	18.09
876.026	-20.82
876.199	13.99
876.371	-8.53
876.544	18.09
876.717	54.95
876.889	9.9
877.062	-2.39
877.234	81.58
877.407	-37.2
877.579	30.38
877.752	32.43
877.924	18.09
878.097	-20.82
878.269	-8.53
878.442	3.75
878.614	30.38
878.786	-8.53
878.959	-86.36
879.131	-22.87
879.303	22.19
879.476	11.95
879.648	-55.64
879.82	9.9
879.993	54.95
880.165	34.47
880.337	3.75
880.509	-10.58
880.681	-37.2
880.854	30.38
881.026	-16.73
881.198	26.28
881.37	-10.58
881.542	13.99
881.714	-43.35
881.886	-33.11
882.058	-45.4
882.23	-37.2
882.402	73.39
882.574	-57.68
882.746	-12.63
882.918	7.85
883.09	7.85
883.262	-82.26
883.434	32.43
883.606	18.09
883.778	-0.34
883.95	-4.44
884.122	-33.11
884.293	81.58
884.465	-82.26
884.637	30.38
884.809	-41.3
884.98	-4.44
885.152	-78.16
885.324	-8.53
885.496	11.95
885.667	9.9
885.839	-16.73
886.011	36.52
886.182	-4.44
886.354	32.43
886.525	44.71
886.697	57
886.869	-26.96
887.04	1.71
887.212	30.38
887.383	81.58
887.555	52.91
887.726	-33.11
887.897	-63.83
888.069	38.57
888.24	-8.53
888.412	1.71
888.583	-33.11
888.754	48.81
888.926	40.62
889.097	-57.68
889.268	-29.01
889.44	85.67
889.611	-59.73
889.782	-0.34
889.953	38.57
890.125	36.52
890.296	-4.44
890.467	54.95
890.638	20.14
890.809	11.95
890.98	73.39
891.151	-14.68
891.323	-26.96
891.494	34.47
891.665	-37.2
891.836	-24.92
892.007	-6.49
892.178	18.09
892.349	57
892.52	-20.82
892.691	-16.73
892.862	54.95
893.032	-6.49
893.203	-8.53
893.374	44.71
893.545	-18.77
893.716	-20.82
893.887	28.33
894.057	67.24
894.228	44.71
894.399	18.09
894.57	54.95
894.74	-16.73
894.911	9.9
895.082	3.75
895.253	-63.83
895.423	7.85
895.594	7.85
895.764	-8.53
895.935	1.71
896.106	24.23
896.276	-14.68
896.447	24.23
896.617	-61.78
896.788	22.19
896.958	-33.11
897.129	-0.34
897.299	-8.53
897.47	-12.63
897.64	7.85
897.81	40.62
897.981	83.63
898.151	-74.07
898.322	-33.11
898.492	-35.16
898.662	44.71
898.832	-4.44
899.003	-20.82
899.173	-22.87
899.343	-6.49
899.513	36.52
