Data from USB4F104151__291__14-02-48-236.txt Node

Date: Thu Mar 13 14:02:48 EDT 2025
User: louis
Spectrometer: USB4F10415
Trigger mode: 4
Integration Time (sec): 1.000000E-2
Scans to average: 1
Electric dark correction enabled: true
Nonlinearity correction enabled: false
Boxcar width: 0
XAxis mode: Wavelengths
Number of Pixels in Spectrum: 3648
>>>>>Begin Spectral Data<<<<<
178.204	-14.85
178.424	-14.85
178.644	-14.85
178.864	-59.9
179.084	-45.57
179.304	-41.47
179.524	-29.18
179.744	-47.62
179.964	56.83
180.184	46.59
180.404	7.68
180.624	-33.28
180.844	19.97
181.064	11.78
181.283	48.64
181.503	-53.76
181.723	13.82
181.943	9.73
182.163	-29.18
182.383	22.02
182.602	-39.42
182.822	-16.9
183.042	40.45
183.262	-20.99
183.482	34.3
183.701	-47.62
183.921	38.4
184.141	22.02
184.361	40.45
184.58	15.87
184.8	50.69
185.02	28.16
185.239	30.21
185.459	-41.47
185.679	-2.56
185.898	-20.99
186.118	48.64
186.338	62.98
186.557	69.12
186.777	-86.53
186.997	3.58
187.216	42.5
187.436	62.98
187.655	36.35
187.875	36.35
188.095	44.54
188.314	44.54
188.534	-16.9
188.753	13.82
188.973	87.55
189.192	13.82
189.412	3.58
189.631	11.78
189.851	73.21
190.07	89.6
190.29	26.11
190.509	60.93
190.729	-29.18
190.948	7.68
191.168	-14.85
191.387	40.45
191.607	85.5
191.826	5.63
192.045	52.74
192.265	11.78
192.484	-14.85
192.704	44.54
192.923	-18.94
193.142	15.87
193.362	3.58
193.581	11.78
193.8	-6.66
194.02	44.54
194.239	36.35
194.458	-8.7
194.678	52.74
194.897	-43.52
195.116	-2.56
195.335	42.5
195.555	32.26
195.774	36.35
195.993	-2.56
196.212	52.74
196.432	13.82
196.651	19.97
196.87	7.68
197.089	24.06
197.308	38.4
197.528	-10.75
197.747	-41.47
197.966	-55.81
198.185	93.69
198.404	22.02
198.623	69.12
198.842	46.59
199.062	-20.99
199.281	48.64
199.5	3.58
199.719	44.54
199.938	9.73
200.157	52.74
200.376	-2.56
200.595	19.97
200.814	-2.56
201.033	48.64
201.252	54.78
201.471	22.02
201.69	15.87
201.909	40.45
202.128	-4.61
202.347	44.54
202.566	-18.94
202.785	46.59
203.004	-27.14
203.223	44.54
203.442	36.35
203.661	32.26
203.879	-4.61
204.098	22.02
204.317	13.82
204.536	28.16
204.755	-0.51
204.974	122.37
205.193	11.78
205.411	54.78
205.63	15.87
205.849	-0.51
206.068	19.97
206.287	19.97
206.505	-45.57
206.724	75.26
206.943	36.35
207.162	-35.33
207.381	32.26
207.599	52.74
207.818	40.45
208.037	11.78
208.255	42.5
208.474	-2.56
208.693	38.4
208.911	-20.99
209.13	40.45
209.349	38.4
209.567	-2.56
209.786	-0.51
210.005	36.35
210.223	62.98
210.442	60.93
210.661	40.45
210.879	52.74
211.098	97.79
211.316	-14.85
211.535	-8.7
211.753	40.45
211.972	15.87
212.191	-4.61
212.409	19.97
212.628	1.54
212.846	5.63
213.065	50.69
213.283	69.12
213.502	46.59
213.72	30.21
213.938	-53.76
214.157	54.78
214.375	54.78
214.594	24.06
214.812	52.74
215.031	105.98
215.249	-16.9
215.467	38.4
215.686	-2.56
215.904	101.89
216.122	5.63
216.341	44.54
216.559	52.74
216.778	56.83
216.996	-8.7
217.214	-111.1
217.432	15.87
217.651	-37.38
217.869	-18.94
218.087	-23.04
218.306	60.93
218.524	67.07
218.742	11.78
218.96	30.21
219.179	-25.09
219.397	3.58
219.615	15.87
219.833	56.83
220.051	-27.14
220.27	26.11
220.488	24.06
220.706	93.69
220.924	-2.56
221.142	46.59
221.36	30.21
221.578	67.07
221.796	48.64
222.015	-0.51
222.233	5.63
222.451	-8.7
222.669	-6.66
222.887	65.02
223.105	-4.61
223.323	-12.8
223.541	5.63
223.759	-14.85
223.977	5.63
224.195	13.82
224.413	79.36
224.631	44.54
224.849	46.59
225.067	60.93
225.285	-8.7
225.503	42.5
225.721	-4.61
225.939	28.16
226.157	24.06
226.375	40.45
226.592	28.16
226.81	17.92
227.028	19.97
227.246	54.78
227.464	38.4
227.682	28.16
227.9	40.45
228.117	-53.76
228.335	1.54
228.553	15.87
228.771	36.35
228.989	38.4
229.206	77.31
229.424	5.63
229.642	-2.56
229.86	95.74
230.077	28.16
230.295	24.06
230.513	-12.8
230.731	-6.66
230.948	24.06
231.166	75.26
231.384	38.4
231.601	60.93
231.819	28.16
232.037	24.06
232.254	36.35
232.472	-12.8
232.689	46.59
232.907	17.92
233.125	-8.7
233.342	-25.09
233.56	46.59
233.777	38.4
233.995	30.21
234.213	26.11
234.43	-25.09
234.648	44.54
234.865	85.5
235.083	1.54
235.3	13.82
235.518	11.78
235.735	91.65
235.953	7.68
236.17	40.45
236.388	116.22
236.605	-4.61
236.822	-37.38
237.04	3.58
237.257	48.64
237.475	7.68
237.692	22.02
237.909	19.97
238.127	-2.56
238.344	3.58
238.562	-18.94
238.779	-37.38
238.996	-4.61
239.214	-8.7
239.431	32.26
239.648	73.21
239.865	114.17
240.083	-2.56
240.3	34.3
240.517	15.87
240.735	32.26
240.952	-29.18
241.169	-20.99
241.386	28.16
241.603	40.45
241.821	-12.8
242.038	15.87
242.255	22.02
242.472	19.97
242.689	-6.66
242.907	73.21
243.124	-16.9
243.341	56.83
243.558	-37.38
243.775	81.41
243.992	85.5
244.209	62.98
244.426	48.64
244.643	56.83
244.86	-33.28
245.078	-14.85
245.295	30.21
245.512	58.88
245.729	9.73
245.946	11.78
246.163	-2.56
246.38	-23.04
246.597	-0.51
246.814	79.36
247.031	62.98
247.248	19.97
247.464	26.11
247.681	17.92
247.898	-0.51
248.115	-2.56
248.332	19.97
248.549	-25.09
248.766	48.64
248.983	13.82
249.2	19.97
249.417	40.45
249.633	-12.8
249.85	48.64
250.067	-66.05
250.284	44.54
250.501	19.97
250.717	7.68
250.934	11.78
251.151	-8.7
251.368	93.69
251.585	-8.7
251.801	26.11
252.018	32.26
252.235	56.83
252.451	15.87
252.668	28.16
252.885	17.92
253.102	44.54
253.318	9.73
253.535	67.07
253.752	56.83
253.968	-4.61
254.185	24.06
254.401	60.93
254.618	44.54
254.835	7.68
255.051	22.02
255.268	15.87
255.484	40.45
255.701	50.69
255.917	52.74
256.134	-16.9
256.351	-4.61
256.567	67.07
256.784	60.93
257	36.35
257.217	13.82
257.433	44.54
257.65	50.69
257.866	11.78
258.082	81.41
258.299	11.78
258.515	22.02
258.732	1.54
258.948	-12.8
259.165	-72.19
259.381	62.98
259.597	11.78
259.814	81.41
260.03	7.68
260.246	46.59
260.463	17.92
260.679	-0.51
260.895	13.82
261.112	65.02
261.328	24.06
261.544	17.92
261.761	32.26
261.977	7.68
262.193	-4.61
262.409	13.82
262.626	-29.18
262.842	36.35
263.058	-51.71
263.274	79.36
263.49	3.58
263.707	22.02
263.923	-12.8
264.139	28.16
264.355	15.87
264.571	-4.61
264.787	11.78
265.004	62.98
265.22	24.06
265.436	19.97
265.652	-29.18
265.868	54.78
266.084	11.78
266.3	26.11
266.516	56.83
266.732	71.17
266.948	26.11
267.164	-4.61
267.38	19.97
267.596	19.97
267.812	46.59
268.028	22.02
268.244	-59.9
268.46	38.4
268.676	52.74
268.892	28.16
269.108	40.45
269.324	85.5
269.54	40.45
269.756	24.06
269.972	77.31
270.188	34.3
270.403	-8.7
270.619	-20.99
270.835	60.93
271.051	38.4
271.267	28.16
271.483	34.3
271.698	81.41
271.914	38.4
272.13	26.11
272.346	-59.9
272.562	67.07
272.777	-2.56
272.993	44.54
273.209	28.16
273.425	-8.7
273.64	-68.09
273.856	44.54
274.072	105.98
274.287	-29.18
274.503	-18.94
274.719	24.06
274.934	54.78
275.15	15.87
275.366	85.5
275.581	15.87
275.797	19.97
276.012	3.58
276.228	69.12
276.444	28.16
276.659	112.13
276.875	56.83
277.09	105.98
277.306	52.74
277.521	69.12
277.737	13.82
277.952	134.65
278.168	-14.85
278.383	-12.8
278.599	56.83
278.814	87.55
279.03	65.02
279.245	65.02
279.461	7.68
279.676	44.54
279.892	11.78
280.107	-10.75
280.322	73.21
280.538	60.93
280.753	38.4
280.969	42.5
281.184	-6.66
281.399	30.21
281.615	-6.66
281.83	-12.8
282.045	7.68
282.26	40.45
282.476	-2.56
282.691	3.58
282.906	40.45
283.122	28.16
283.337	7.68
283.552	32.26
283.767	44.54
283.983	65.02
284.198	-10.75
284.413	73.21
284.628	11.78
284.843	69.12
285.058	46.59
285.274	-12.8
285.489	-18.94
285.704	73.21
285.919	44.54
286.134	101.89
286.349	32.26
286.564	28.16
286.779	11.78
286.995	-14.85
287.21	50.69
287.425	3.58
287.64	52.74
287.855	11.78
288.07	97.79
288.285	28.16
288.5	-2.56
288.715	-20.99
288.93	99.84
289.145	79.36
289.36	48.64
289.575	-20.99
289.79	9.73
290.004	42.5
290.219	-53.76
290.434	24.06
290.649	30.21
290.864	65.02
291.079	85.5
291.294	50.69
291.509	36.35
291.724	54.78
291.938	52.74
292.153	-43.52
292.368	44.54
292.583	93.69
292.798	3.58
293.012	60.93
293.227	32.26
293.442	46.59
293.657	7.68
293.871	34.3
294.086	42.5
294.301	62.98
294.516	62.98
294.73	40.45
294.945	48.64
295.16	7.68
295.374	69.12
295.589	54.78
295.804	-39.42
296.018	56.83
296.233	13.82
296.447	24.06
296.662	56.83
296.877	62.98
297.091	17.92
297.306	38.4
297.52	19.97
297.735	97.79
297.949	26.11
298.164	-12.8
298.378	-16.9
298.593	52.74
298.807	62.98
299.022	-10.75
299.236	-35.33
299.451	-37.38
299.665	19.97
299.88	52.74
300.094	48.64
300.309	69.12
300.523	28.16
300.737	87.55
300.952	9.73
301.166	-8.7
301.381	28.16
301.595	118.27
301.809	9.73
302.024	-16.9
302.238	-10.75
302.452	28.16
302.667	-37.38
302.881	95.74
303.095	42.5
303.309	26.11
303.524	83.45
303.738	-0.51
303.952	-18.94
304.166	71.17
304.381	3.58
304.595	24.06
304.809	77.31
305.023	81.41
305.237	62.98
305.452	77.31
305.666	42.5
305.88	128.51
306.094	44.54
306.308	19.97
306.522	48.64
306.736	28.16
306.95	44.54
307.164	44.54
307.379	15.87
307.593	-20.99
307.807	11.78
308.021	-27.14
308.235	-2.56
308.449	-6.66
308.663	-37.38
308.877	93.69
309.091	-18.94
309.305	36.35
309.519	22.02
309.733	85.5
309.947	-53.76
310.161	-12.8
310.374	44.54
310.588	85.5
310.802	36.35
311.016	54.78
311.23	-16.9
311.444	-39.42
311.658	77.31
311.872	9.73
312.085	-4.61
312.299	42.5
312.513	22.02
312.727	93.69
312.941	40.45
313.154	-8.7
313.368	38.4
313.582	32.26
313.796	15.87
314.009	52.74
314.223	103.93
314.437	97.79
314.651	42.5
314.864	11.78
315.078	11.78
315.292	17.92
315.505	52.74
315.719	-14.85
315.933	-25.09
316.146	38.4
316.36	-8.7
316.573	42.5
316.787	15.87
317.001	128.51
317.214	91.65
317.428	-16.9
317.641	40.45
317.855	93.69
318.068	-29.18
318.282	1.54
318.495	-20.99
318.709	83.45
318.922	11.78
319.136	28.16
319.349	101.89
319.563	101.89
319.776	62.98
319.99	-35.33
320.203	97.79
320.417	30.21
320.63	52.74
320.843	3.58
321.057	62.98
321.27	5.63
321.483	48.64
321.697	28.16
321.91	32.26
322.124	1.54
322.337	56.83
322.55	-35.33
322.763	1.54
322.977	-4.61
323.19	-16.9
323.403	69.12
323.617	9.73
323.83	40.45
324.043	83.45
324.256	54.78
324.469	9.73
324.683	32.26
324.896	11.78
325.109	95.74
325.322	79.36
325.535	69.12
325.748	-0.51
325.962	-8.7
326.175	95.74
326.388	128.51
326.601	48.64
326.814	-16.9
327.027	-29.18
327.24	3.58
327.453	-35.33
327.666	-29.18
327.879	40.45
328.092	46.59
328.305	3.58
328.518	30.21
328.731	69.12
328.944	19.97
329.157	69.12
329.37	48.64
329.583	13.82
329.796	101.89
330.009	28.16
330.222	85.5
330.435	36.35
330.648	52.74
330.861	-4.61
331.073	46.59
331.286	32.26
331.499	17.92
331.712	38.4
331.925	36.35
332.138	38.4
332.35	42.5
332.563	19.97
332.776	36.35
332.989	71.17
333.202	22.02
333.414	24.06
333.627	13.82
333.84	54.78
334.053	65.02
334.265	-55.81
334.478	30.21
334.691	60.93
334.903	3.58
335.116	-14.85
335.329	24.06
335.541	28.16
335.754	28.16
335.966	19.97
336.179	-4.61
336.392	91.65
336.604	62.98
336.817	79.36
337.029	77.31
337.242	-35.33
337.454	-20.99
337.667	52.74
337.88	71.17
338.092	36.35
338.305	50.69
338.517	75.26
338.729	65.02
338.942	-4.61
339.154	77.31
339.367	11.78
339.579	30.21
339.792	42.5
340.004	28.16
340.217	36.35
340.429	7.68
340.641	-45.57
340.854	19.97
341.066	52.74
341.278	69.12
341.491	77.31
341.703	54.78
341.915	101.89
342.128	69.12
342.34	-16.9
342.552	28.16
342.764	52.74
342.977	-14.85
343.189	30.21
343.401	44.54
343.613	40.45
343.826	60.93
344.038	46.59
344.25	-10.75
344.462	-33.28
344.674	69.12
344.886	52.74
345.099	-4.61
345.311	13.82
345.523	87.55
345.735	11.78
345.947	44.54
346.159	36.35
346.371	28.16
346.583	54.78
346.795	126.46
347.007	28.16
347.219	32.26
347.431	28.16
347.643	58.88
347.855	101.89
348.067	28.16
348.279	38.4
348.491	-16.9
348.703	13.82
348.915	101.89
349.127	46.59
349.339	110.08
349.551	112.13
349.763	-6.66
349.975	-27.14
350.187	60.93
350.399	3.58
350.61	19.97
350.822	9.73
351.034	3.58
351.246	-29.18
351.458	-8.7
351.669	77.31
351.881	50.69
352.093	17.92
352.305	52.74
352.517	11.78
352.728	75.26
352.94	48.64
353.152	62.98
353.363	38.4
353.575	56.83
353.787	-4.61
353.999	48.64
354.21	28.16
354.422	65.02
354.633	28.16
354.845	93.69
355.057	-10.75
355.268	44.54
355.48	32.26
355.692	28.16
355.903	60.93
356.115	11.78
356.326	28.16
356.538	36.35
356.749	-41.47
356.961	58.88
357.172	36.35
357.384	46.59
357.595	56.83
357.807	89.6
358.018	36.35
358.23	73.21
358.441	-4.61
358.653	69.12
358.864	40.45
359.075	19.97
359.287	-23.04
359.498	40.45
359.709	9.73
359.921	56.83
360.132	122.37
360.344	46.59
360.555	56.83
360.766	130.56
360.977	9.73
361.189	95.74
361.4	28.16
361.611	89.6
361.823	34.3
362.034	71.17
362.245	28.16
362.456	15.87
362.667	7.68
362.879	54.78
363.09	9.73
363.301	128.51
363.512	-2.56
363.723	-18.94
363.935	40.45
364.146	62.98
364.357	-12.8
364.568	-39.42
364.779	54.78
364.99	85.5
365.201	52.74
365.412	11.78
365.623	-27.14
365.834	1.54
366.045	-14.85
366.256	52.74
366.467	-2.56
366.678	-6.66
366.889	52.74
367.1	7.68
367.311	32.26
367.522	-2.56
367.733	24.06
367.944	71.17
368.155	-61.95
368.366	17.92
368.577	-12.8
368.788	46.59
368.999	3.58
369.209	38.4
369.42	85.5
369.631	79.36
369.842	48.64
370.053	-6.66
370.264	11.78
370.474	52.74
370.685	46.59
370.896	77.31
371.107	71.17
371.317	93.69
371.528	38.4
371.739	40.45
371.95	52.74
372.16	42.5
372.371	26.11
372.582	38.4
372.792	-4.61
373.003	144.89
373.214	77.31
373.424	105.98
373.635	32.26
373.846	40.45
374.056	28.16
374.267	54.78
374.477	3.58
374.688	24.06
374.898	52.74
375.109	60.93
375.319	56.83
375.53	46.59
375.74	54.78
375.951	15.87
376.161	52.74
376.372	69.12
376.582	97.79
376.793	77.31
377.003	19.97
377.214	-8.7
377.424	60.93
377.635	108.03
377.845	56.83
378.055	60.93
378.266	13.82
378.476	46.59
378.686	13.82
378.897	62.98
379.107	42.5
379.317	1.54
379.528	5.63
379.738	36.35
379.948	65.02
380.158	1.54
380.369	13.82
380.579	19.97
380.789	-4.61
380.999	44.54
381.21	71.17
381.42	60.93
381.63	24.06
381.84	-20.99
382.05	124.41
382.261	-2.56
382.471	69.12
382.681	-12.8
382.891	22.02
383.101	52.74
383.311	110.08
383.521	75.26
383.731	42.5
383.941	46.59
384.151	-4.61
384.361	46.59
384.571	19.97
384.781	54.78
384.991	24.06
385.201	101.89
385.411	46.59
385.621	79.36
385.831	67.07
386.041	40.45
386.251	24.06
386.461	79.36
386.671	7.68
386.881	97.79
387.091	36.35
387.301	-10.75
387.511	91.65
387.72	19.97
387.93	40.45
388.14	69.12
388.35	32.26
388.56	11.78
388.769	-27.14
388.979	110.08
389.189	101.89
389.399	-18.94
389.609	28.16
389.818	83.45
390.028	89.6
390.238	73.21
390.447	50.69
390.657	67.07
390.867	52.74
391.076	30.21
391.286	83.45
391.496	36.35
391.705	5.63
391.915	103.93
392.125	118.27
392.334	56.83
392.544	-23.04
392.753	89.6
392.963	19.97
393.172	75.26
393.382	79.36
393.591	58.88
393.801	67.07
394.01	146.94
394.22	54.78
394.429	67.07
394.639	89.6
394.848	40.45
395.058	71.17
395.267	17.92
395.477	93.69
395.686	42.5
395.895	85.5
396.105	79.36
396.314	148.99
396.524	112.13
396.733	118.27
396.942	85.5
397.152	120.32
397.361	122.37
397.57	62.98
397.78	110.08
397.989	77.31
398.198	173.57
398.407	130.56
398.617	120.32
398.826	77.31
399.035	138.75
399.244	130.56
399.453	79.36
399.663	93.69
399.872	124.41
400.081	108.03
400.29	105.98
400.499	128.51
400.708	132.61
400.917	155.13
401.127	112.13
401.336	77.31
401.545	157.18
401.754	103.93
401.963	144.89
402.172	120.32
402.381	71.17
402.59	161.28
402.799	132.61
403.008	161.28
403.217	105.98
403.426	146.94
403.635	128.51
403.844	134.65
404.053	128.51
404.262	83.45
404.471	179.71
404.68	167.42
404.888	71.17
405.097	179.71
405.306	122.37
405.515	136.7
405.724	194.05
405.933	194.05
406.142	212.48
406.35	185.85
406.559	142.85
406.768	210.43
406.977	179.71
407.185	185.85
407.394	214.52
407.603	151.04
407.812	159.23
408.02	241.15
408.229	206.33
408.438	204.28
408.646	241.15
408.855	185.85
409.064	235
409.272	200.19
409.481	325.12
409.69	298.49
409.898	241.15
410.107	218.62
410.315	318.97
410.524	278.01
410.733	290.3
410.941	347.64
411.15	290.3
411.358	323.07
411.567	390.65
411.775	429.56
411.984	413.18
412.192	364.03
412.401	388.6
412.609	456.19
412.818	435.71
413.026	495.1
413.234	443.9
413.443	445.95
413.651	437.75
413.86	464.38
414.068	470.52
414.276	534.01
414.485	564.73
414.693	681.46
414.901	683.51
415.11	605.69
415.318	658.93
415.526	691.7
415.734	710.13
415.943	730.61
416.151	751.09
416.359	783.86
416.567	790
416.776	775.67
416.984	943.6
417.192	974.32
417.4	898.55
417.608	896.5
417.817	957.94
418.025	912.88
418.233	1002.99
418.441	1009.14
418.649	1086.96
418.857	1154.54
419.065	1134.06
419.273	1117.68
419.481	1314.28
419.689	1330.67
419.897	1396.2
420.105	1412.59
420.313	1406.44
420.521	1521.13
420.729	1521.13
420.937	1607.14
421.145	1553.9
421.353	1625.58
421.561	1811.94
421.769	1797.6
421.977	1969.63
422.185	1818.08
422.393	2043.36
422.601	2055.65
422.809	2045.41
423.017	2156
423.224	2182.62
423.432	2199.01
423.64	2338.27
423.848	2487.77
424.056	2379.23
424.263	2596.31
424.471	2538.97
424.679	2657.75
424.887	2819.54
425.094	2911.7
425.302	2913.75
425.51	2905.56
425.718	3036.63
425.925	3128.78
426.133	3444.17
426.341	3292.62
426.548	3567.05
426.756	3565
426.964	3595.72
427.171	3792.33
427.379	3898.82
427.586	4109.76
427.794	4093.38
428.001	4353.47
428.209	4582.84
428.417	4509.12
428.624	4785.59
428.832	4642.23
429.039	4705.72
429.247	4804.02
429.454	5174.71
429.662	5426.61
429.869	5191.09
430.076	5563.82
430.284	5283.25
430.491	5557.68
430.699	5797.29
430.906	5850.53
431.114	5875.11
431.321	6208.93
431.528	6217.12
431.736	6684.06
431.943	6882.71
432.15	6811.03
432.358	7003.54
432.565	7206.29
432.772	7015.83
432.979	7617.93
433.187	7712.14
433.394	7665.04
433.601	8136.07
433.808	8322.43
434.016	8265.09
434.223	8633.72
434.43	9211.25
434.637	8951.16
434.844	9600.37
435.052	9475.44
435.259	9434.48
435.466	9731.44
435.673	9626.99
435.88	10009.96
436.087	10700.12
436.294	10732.89
436.501	10407.27
436.708	10675.55
436.915	11128.15
437.122	11461.97
437.329	11498.83
437.537	11820.36
437.743	11818.32
437.95	12002.63
438.157	12567.87
438.364	13094.2
438.571	12911.93
438.778	12967.23
438.985	14413.09
439.192	13708.59
439.399	14093.61
439.606	14095.66
439.813	14703.9
440.02	15648.02
440.227	15160.6
440.433	14947.61
440.64	15443.22
440.847	15402.26
441.054	15949.07
441.261	16829.7
441.467	16622.85
441.674	17147.13
441.881	17462.52
442.088	17679.6
442.294	17353.98
442.501	17798.38
442.708	18121.96
442.914	18949.34
443.121	19727.57
443.328	19330.27
443.534	20575.43
443.741	20061.39
443.948	19973.33
444.154	21212.35
444.361	20995.26
444.568	21103.81
444.774	21284.03
444.981	21640.37
445.187	21699.76
445.394	23319.71
445.6	22662.31
445.807	24743.05
446.013	23973.01
446.22	24392.84
446.426	25279.61
446.633	25359.49
446.839	26066.03
447.046	25250.94
447.252	26571.88
447.459	26420.33
447.665	26465.39
447.871	27712.6
448.078	28669
448.284	27679.83
448.491	28288.08
448.697	29094.98
448.903	29674.56
449.11	29905.98
449.316	29547.58
449.522	29953.08
449.728	30714.92
449.935	31034.41
450.141	30936.1
450.347	31517.73
450.553	30682.16
450.76	30692.4
450.966	32050.2
451.172	31341.6
451.378	32390.16
451.584	31773.72
451.791	32437.27
451.997	32539.66
452.203	33268.74
452.409	32859.15
452.615	32607.25
452.821	31523.87
453.027	31519.78
453.233	33102.85
453.44	31800.35
453.646	32115.73
453.852	32091.16
454.058	32490.51
454.264	31718.43
454.47	32246.8
454.676	31231.01
454.882	32449.55
455.088	29639.74
455.294	30256.18
455.5	30569.52
455.705	30927.91
455.911	29168.71
456.117	29297.73
456.323	28691.53
456.529	27071.59
456.735	28451.92
456.941	27599.96
457.147	27417.69
457.352	26371.18
457.558	26072.18
457.764	26031.22
457.97	25580.67
458.176	25054.34
458.381	25369.72
458.587	24065.17
458.793	23882.9
458.999	22639.78
459.204	24300.69
459.41	23397.53
459.616	22103.21
459.821	22285.48
460.027	22244.52
460.233	21517.5
460.438	20296.91
460.644	20860.1
460.85	19703
461.055	19461.34
461.261	19610.84
461.466	18124.01
461.672	17562.87
461.878	18613.48
462.083	17552.63
462.289	17190.14
462.494	16940.29
462.7	16348.42
462.905	15934.73
463.111	16399.62
463.316	16583.94
463.522	15994.12
463.727	16360.71
463.932	16047.37
464.138	15678.74
464.343	16002.32
464.549	15633.68
464.754	15830.29
464.959	15813.9
465.165	15643.92
465.37	15230.23
465.575	14603.55
465.781	15353.11
465.986	15140.12
466.191	14849.31
466.397	14454.05
466.602	13577.52
466.807	14331.17
467.012	14390.56
467.218	14239.01
467.423	14075.18
467.628	14251.3
467.833	14753.05
468.038	14325.03
468.244	13894.96
468.449	14388.52
468.654	13974.83
468.859	13759.79
469.064	13675.82
469.269	13241.65
469.474	13221.17
469.679	13630.77
469.885	13069.62
470.09	13190.45
470.295	13217.08
470.5	12926.27
470.705	12954.94
470.91	12653.89
471.115	12555.58
471.32	12952.89
471.525	12557.63
471.73	12369.22
471.935	12258.63
472.139	11939.15
472.344	12275.01
472.549	11947.34
472.754	11677.01
472.959	11414.87
473.164	11308.37
473.369	11275.6
473.574	11795.79
473.778	11492.69
473.983	11427.15
474.188	11529.55
474.393	10919.26
474.598	10859.87
474.802	10841.43
475.007	10704.22
475.212	10859.87
475.417	10425.7
475.621	10431.84
475.826	10294.63
476.031	10319.2
476.235	10136.93
476.44	10204.52
476.645	10093.93
476.849	10044.77
477.054	9833.83
477.259	9635.18
477.463	9739.63
477.668	9504.11
477.872	9676.14
478.077	9528.69
478.282	9315.7
478.486	9168.24
478.691	9196.92
478.895	8990.07
479.1	8965.5
479.304	8985.97
479.509	8801.66
479.713	8693.12
479.918	8740.22
480.122	8564.09
480.326	8852.86
480.531	8826.23
480.735	8586.62
480.94	8465.79
481.144	8924.54
481.348	8400.26
481.553	8287.62
481.757	8254.85
481.961	8306.05
482.166	8527.23
482.37	8433.02
482.574	8281.47
482.778	8402.3
482.983	8482.17
483.187	8299.91
483.391	8426.88
483.595	8428.93
483.8	8234.37
484.004	8269.19
484.208	8478.08
484.412	8373.63
484.616	8260.99
484.821	8455.55
485.025	8201.6
485.229	8451.46
485.433	8496.51
485.637	8336.77
485.841	8267.14
486.045	8299.91
486.249	8353.15
486.453	8150.4
486.657	8422.78
486.861	8447.36
487.065	8160.64
487.269	8400.26
487.473	8117.64
487.677	8168.84
487.881	8371.58
488.085	8240.51
488.289	8416.64
488.493	8111.49
488.697	8473.98
488.901	8457.6
489.105	8295.81
489.309	8531.33
489.512	8547.71
489.716	8340.86
489.92	8439.17
490.124	8533.37
490.328	8772.99
490.531	8641.92
490.735	8447.36
490.939	8643.96
491.143	8502.65
491.346	8379.78
491.55	8801.66
491.754	8662.4
491.958	8727.93
492.161	8682.88
492.365	8910.2
492.569	8795.51
492.772	8969.59
492.976	8893.82
493.18	8809.85
493.383	9080.18
493.587	9194.87
493.79	9172.34
493.994	9002.36
494.197	9303.41
494.401	9411.95
494.605	9473.39
494.808	9653.61
495.012	9342.32
495.215	9655.66
495.419	9545.07
495.622	9473.39
495.825	9788.78
496.029	9969
496.232	10020.2
496.436	9842.03
496.639	10259.81
496.843	10048.87
497.046	10288.48
497.249	10456.42
497.453	10513.76
497.656	10532.19
497.859	10640.73
498.063	10726.75
498.266	11117.91
498.469	10949.98
498.673	11144.53
498.876	11431.25
499.079	11464.02
499.282	11347.28
499.485	11638.09
499.689	11681.1
499.892	11742.54
500.095	12072.26
500.298	12287.3
500.501	11912.52
500.705	12608.83
500.908	12614.98
501.111	12576.06
501.314	12848.44
501.517	12952.89
501.72	13208.89
501.923	13008.19
502.126	13249.85
502.329	13600.05
502.532	13626.67
502.735	13589.81
502.938	14132.52
503.141	14150.95
503.344	14406.95
503.547	14370.08
503.75	14671.14
503.953	14810.4
504.156	14755.1
504.359	15301.91
504.562	15224.09
504.765	15736.08
504.968	15713.55
505.17	15734.03
505.373	15879.44
505.576	16555.27
505.779	16626.95
505.982	16524.55
506.185	16819.46
506.387	16803.07
506.59	17237.24
506.793	17538.29
506.996	17515.76
507.198	17761.52
507.401	17738.99
507.604	17964.27
507.807	18386.15
508.009	18572.52
508.212	18967.77
508.415	18918.62
508.617	19184.86
508.82	19602.64
509.022	19207.39
509.225	19926.22
509.428	19936.46
509.63	20270.28
509.833	20294.86
510.035	21030.08
510.238	20772.04
510.44	21374.14
510.643	21394.62
510.845	21642.42
511.048	21710
511.25	21925.04
511.453	22103.21
511.655	22844.58
511.858	22543.53
512.06	22838.44
512.262	23098.53
512.465	23549.08
512.667	23647.38
512.87	23721.11
513.072	23987.35
513.274	24706.18
513.477	24667.27
513.679	24994.95
513.881	25400.44
514.084	25392.25
514.286	25664.63
514.488	25750.65
514.69	26852.45
514.893	26434.67
515.095	26668.14
515.297	26864.74
515.499	27094.11
515.701	27618.39
515.904	27698.27
516.106	27950.17
516.308	28159.06
516.51	28810.31
516.712	28820.55
516.914	29060.16
517.116	29688.89
517.318	29738.04
517.52	29836.34
517.722	30190.64
517.925	30546.99
518.127	30829.61
518.329	31157.28
518.531	31116.33
518.733	31726.62
518.935	32150.55
519.136	31980.57
519.338	32545.81
519.54	32642.06
519.742	32896.01
519.944	32965.64
520.146	33950.71
520.348	33969.15
520.55	34175.99
520.752	34561.01
520.954	35316.71
521.155	34941.93
521.357	35253.22
521.559	35920.86
521.761	36096.99
521.963	36365.27
522.164	36350.93
522.366	36320.21
522.568	36969.42
522.77	37309.38
522.971	37727.17
523.173	37458.88
523.375	38089.66
523.576	37874.62
523.778	38036.41
523.98	38486.96
524.181	38712.24
524.383	38771.63
524.584	39412.65
524.786	38994.86
524.988	39476.13
525.189	39912.35
525.391	40082.33
525.592	40461.21
525.794	40584.08
525.995	40280.99
526.197	39996.32
526.398	40719.25
526.6	40739.73
526.801	41259.91
527.003	41048.97
527.204	41347.98
527.406	41663.36
527.607	41741.19
527.808	42304.38
528.01	41620.36
528.211	42070.91
528.412	42666.87
528.614	42447.74
528.815	42546.04
529.016	42976.11
529.218	42531.7
529.419	42986.35
529.62	42664.82
529.822	43295.6
530.023	43225.96
530.224	42902.39
530.425	43328.36
530.626	42703.73
530.828	43326.31
531.029	43592.55
531.23	43033.46
531.431	43189.1
531.632	43664.23
531.833	43678.57
532.035	43801.44
532.236	43932.51
532.437	44088.16
532.638	43690.85
532.839	44243.8
533.04	44280.67
533.241	43369.32
533.442	44620.63
533.643	44016.48
533.844	44120.93
534.045	44475.23
534.246	43641.7
534.447	44841.81
534.648	44165.98
534.849	44684.12
535.05	44231.52
535.251	44368.73
535.451	43926.37
535.652	44292.96
535.853	44479.32
536.054	44381.02
536.255	44315.48
536.456	44018.53
536.657	45124.43
536.857	44563.29
537.058	44219.23
537.259	44428.12
537.46	44462.94
537.66	44141.41
537.861	44759.89
538.062	44471.13
538.263	44518.23
538.463	44114.78
538.664	44393.31
538.865	44637.01
539.065	44753.75
539.266	44401.5
539.466	44979.03
539.667	44041.06
539.868	44710.74
540.068	44567.38
540.269	44688.21
540.469	44786.52
540.67	44329.82
540.87	44518.23
541.071	44620.63
541.271	44608.34
541.472	44264.28
541.672	44227.42
541.873	44165.98
542.073	43842.4
542.274	44614.49
542.474	44088.16
542.675	44082.02
542.875	44405.59
543.075	44542.81
543.276	43697
543.476	45040.46
543.676	43864.93
543.877	44391.26
544.077	44366.68
544.277	44018.53
544.478	44090.21
544.678	44467.03
544.878	44495.71
545.078	44622.68
545.279	44137.31
545.479	43948.9
545.679	44372.83
545.879	44290.91
546.079	43932.51
546.28	44088.16
546.48	43907.94
546.68	44348.25
546.88	43977.57
547.08	44221.28
547.28	44358.49
547.48	43756.39
547.68	44368.73
547.88	44118.88
548.081	44077.92
548.281	43912.03
548.481	43957.09
548.681	44065.63
548.881	44090.21
549.081	44399.45
549.28	43897.7
549.48	44430.17
549.68	43789.16
549.88	44358.49
550.08	43713.38
550.28	44135.26
550.48	43852.64
550.68	44176.22
550.88	44116.83
551.08	43967.33
551.279	44188.51
551.479	43858.79
551.679	43981.66
551.879	43574.12
552.079	44114.78
552.278	43729.76
552.478	44106.59
552.678	43967.33
552.878	44118.88
553.077	44018.53
553.277	43481.96
553.477	44684.12
553.676	43424.62
553.876	43369.32
554.076	43766.63
554.275	43447.15
554.475	42992.5
554.674	43703.14
554.874	43651.94
555.074	43180.91
555.273	43639.65
555.473	43709.29
555.672	43334.51
555.872	43012.98
556.071	43375.47
556.271	43778.92
556.47	43031.41
556.67	42953.58
556.869	42879.86
557.068	43144.05
557.268	43051.89
557.467	42849.14
557.667	42744.69
557.866	42845.04
558.065	42822.51
558.265	42933.1
558.464	42740.6
558.663	42695.54
558.863	42509.18
559.062	43096.94
559.261	42500.98
559.461	42713.97
559.66	42498.94
559.859	42595.19
560.058	42095.49
560.258	42609.53
560.457	41948.03
560.656	42333.05
560.855	42265.47
561.054	42115.97
561.253	41689.99
561.453	42183.55
561.652	41880.45
561.851	41925.5
562.05	42011.52
562.249	41948.03
562.448	42019.71
562.647	41577.35
562.846	41812.87
563.045	41839.49
563.244	41438.09
563.443	41939.84
563.642	41294.73
563.841	41393.03
564.04	41386.89
564.239	41679.75
564.438	40960.91
564.637	41405.32
564.836	40954.77
565.035	40739.73
565.234	40938.38
565.432	40778.64
565.631	40311.7
565.83	40655.76
566.029	40418.2
566.228	40551.32
566.427	40446.87
566.625	40530.84
566.824	40180.63
567.023	40668.05
567.222	39527.33
567.42	40563.61
567.619	40115.1
567.818	39943.07
568.016	39912.35
568.215	39734.18
568.414	39740.32
568.612	40039.33
568.811	39611.3
569.01	39881.63
569.208	39236.52
569.407	39730.08
569.605	38736.82
569.804	39304.1
570.002	38886.32
570.201	39175.08
570.4	38505.4
570.598	38798.26
570.797	38458.29
570.995	38564.79
571.193	38501.3
571.392	38706.1
571.59	38095.8
571.789	38552.5
571.987	38386.61
572.186	37991.36
572.384	37737.41
572.582	37827.52
572.781	38249.4
572.979	37440.45
573.177	37673.92
573.376	37774.27
573.574	37198.79
573.772	37604.29
573.971	37270.47
574.169	36842.45
574.367	36760.53
574.565	37297.09
574.763	37077.96
574.962	36991.95
575.16	36477.91
575.358	36535.25
575.556	36129.75
575.754	36518.87
575.952	36037.59
576.151	36445.14
576.349	36099.03
576.547	35789.79
576.745	36506.58
576.943	36004.83
577.141	35963.87
577.339	35699.68
577.537	35515.36
577.735	35929.05
577.933	35236.84
578.131	35275.75
578.329	35111.91
578.527	34886.64
578.725	35066.86
578.923	35122.15
579.121	34884.59
579.319	34919.4
579.516	34683.89
579.714	34774
579.912	34667.5
580.11	34200.57
580.308	34622.45
580.506	34071.54
580.704	33338.37
580.901	33893.37
581.099	34294.77
581.297	33743.87
581.495	33762.3
581.692	33735.68
581.89	33668.09
582.088	33938.43
582.285	33672.19
582.483	33381.38
582.681	33215.49
582.878	33262.6
583.076	33096.71
583.274	33156.1
583.471	32527.38
583.669	32799.76
583.866	32480.27
584.064	32867.34
584.262	32435.22
584.459	32779.28
584.657	32363.54
584.854	32429.07
585.052	31992.86
585.249	32193.56
585.447	31896.6
585.644	31755.29
585.841	31972.38
586.039	32001.05
586.236	31345.7
586.434	31577.12
586.631	31231.01
586.828	31065.13
587.026	31409.18
587.223	31169.57
587.42	30905.38
587.618	30923.82
587.815	30856.23
588.012	30749.74
588.21	30866.47
588.407	30917.67
588.604	30725.16
588.801	30659.63
588.999	30710.83
589.196	30555.18
589.393	30233.65
589.59	30358.58
589.787	30276.66
589.984	30037.05
590.182	29637.69
590.379	29885.5
590.576	29621.31
590.773	29830.2
590.97	29189.19
591.167	29692.99
591.364	29043.78
591.561	29613.12
591.758	28884.04
591.955	28990.53
592.152	29135.94
592.349	29070.4
592.546	29140.04
592.743	28800.07
592.94	28208.21
593.137	28714.06
593.334	28773.45
593.531	28413.01
593.727	28851.27
593.924	28529.74
594.121	27976.79
594.318	28451.92
594.515	27907.16
594.712	27984.98
594.908	27929.69
595.105	28046.42
595.302	27636.83
595.499	27671.64
595.696	27657.31
595.892	27503.71
596.089	27507.8
596.286	27411.55
596.482	27559
596.679	27503.71
596.876	27303.01
597.072	27090.02
597.269	27069.54
597.466	26768.49
597.662	26877.03
597.859	26530.92
598.055	26864.74
598.252	26528.88
598.448	26645.61
598.645	26528.88
598.841	26119.28
599.038	26227.82
599.234	26354.8
599.431	25666.68
599.627	25836.66
599.824	25975.92
600.02	26131.57
600.217	25969.78
600.413	25519.23
600.609	25930.87
600.806	25611.39
601.002	25617.53
601.198	25300.09
601.395	25332.86
601.591	25439.36
601.787	24972.42
601.984	25009.28
602.18	25085.06
602.376	24921.22
602.572	24917.12
602.769	24728.71
602.965	24460.43
603.161	24816.77
603.357	24366.22
603.553	24577.16
603.75	24317.07
603.946	24214.67
604.142	24519.82
604.338	23895.19
604.534	24237.2
604.73	23704.73
604.926	24067.22
605.122	23870.61
605.318	23833.75
605.514	23524.51
605.71	23499.93
605.906	23643.29
606.102	23456.92
606.298	23551.13
606.494	23561.37
606.69	23207.07
606.886	23489.69
607.082	23012.51
607.278	23434.39
607.474	22758.56
607.67	22693.03
607.866	22699.17
608.062	22893.73
608.257	22602.92
608.453	22701.22
608.649	22975.65
608.845	22291.63
609.041	22535.34
609.236	22613.16
609.432	22398.12
609.628	22430.89
609.824	22164.65
610.019	21961.9
610.215	22443.18
610.411	22265
610.606	22019.25
610.802	22338.73
610.998	21869.75
611.193	22344.88
611.389	21904.56
611.584	21503.16
611.78	21623.99
611.976	21644.47
612.171	21929.14
612.367	21744.82
612.562	21568.69
612.758	21329.08
612.953	21253.31
613.149	21398.71
613.344	21400.76
613.539	21667
613.735	21378.23
613.93	21628.09
614.126	21062.85
614.321	21034.18
614.517	20907.2
614.712	21302.46
614.907	20886.72
615.103	21015.74
615.298	20864.19
615.493	20817.09
615.688	20483.27
615.884	21009.6
616.079	20667.59
616.274	20647.11
616.47	20638.92
616.665	20552.9
616.86	20425.93
617.055	20247.76
617.25	20155.6
617.445	20452.55
617.641	19829.97
617.836	19928.27
618.031	20059.34
618.226	20106.45
618.421	20249.8
618.616	20088.01
618.811	19969.23
619.006	20110.54
619.201	19598.55
619.396	19801.3
619.591	19352.79
619.786	19475.67
619.981	19115.23
620.176	19328.22
620.371	18896.1
620.566	19123.42
620.761	18916.58
620.956	19221.72
621.151	18793.7
621.346	18832.61
621.541	18511.08
621.735	18660.58
621.93	18343.14
622.125	18527.46
622.32	17990.89
622.515	18302.18
622.709	18152.68
622.904	17911.02
623.099	17945.84
623.294	17988.85
623.488	17632.5
623.683	17810.67
623.878	17579.25
624.072	17511.67
624.267	17505.52
624.462	17470.71
624.656	17220.86
624.851	17265.91
625.046	17001.72
625.24	16954.62
625.435	16694.53
625.629	16960.77
625.824	16692.48
626.018	16704.77
626.213	16149.77
626.407	16219.4
626.602	16207.11
626.796	16416.01
626.991	15881.49
627.185	16061.71
627.38	15904.01
627.574	16190.73
627.768	15738.13
627.963	15729.94
628.157	16014.6
628.352	15691.02
628.546	15340.82
628.74	15420.69
628.935	15369.49
629.129	15299.86
629.323	15115.55
629.517	15187.22
629.712	15193.37
629.906	14894.36
630.1	14708
630.294	14810.4
630.489	14531.87
630.683	14677.28
630.877	14499.11
631.071	14181.67
631.265	14464.29
631.459	14556.45
631.653	14386.47
631.848	14325.03
632.042	14148.9
632.236	14353.7
632.43	13786.41
632.624	13880.62
632.818	13864.24
633.012	13686.06
633.206	13559.09
633.4	13647.15
633.594	13413.68
633.788	13468.98
633.982	13477.17
634.176	13428.02
634.369	13198.65
634.563	13165.88
634.757	13143.35
634.951	12961.08
635.145	13122.87
635.339	13067.58
635.533	12817.72
635.726	12862.78
635.92	12762.43
636.114	12764.48
636.308	12414.27
636.501	12559.68
636.695	12416.32
636.889	12363.08
637.083	12201.29
637.276	12266.82
637.47	12225.86
637.664	12123.46
637.857	12168.52
638.051	12145.99
638.244	12035.4
638.438	11904.33
638.632	11846.99
638.825	11691.34
639.019	11691.34
639.212	11578.7
639.406	11767.12
639.599	11627.85
639.793	11441.49
639.986	11171.16
640.18	11291.99
640.373	11187.54
640.567	11058.52
640.76	11302.23
640.954	11128.15
641.147	10820.95
641.34	11097.43
641.534	10878.3
641.727	10712.41
641.92	10933.59
642.114	10767.71
642.307	10636.64
642.5	10657.12
642.694	10456.42
642.887	10521.95
643.08	10397.03
643.273	10446.18
643.467	10227.04
643.66	10349.92
643.853	10343.78
644.046	9960.81
644.239	9850.22
644.432	10098.02
644.626	9848.17
644.819	10083.69
645.012	9889.13
645.205	9743.72
645.398	9788.78
645.591	9776.49
645.784	9624.94
645.977	9516.4
646.17	9506.16
646.363	9448.82
646.556	9282.93
646.749	9377.14
646.942	9209.2
647.135	9223.54
647.328	9121.14
647.521	9088.37
647.714	8899.96
647.907	9067.89
648.099	9055.61
648.292	8969.59
648.485	8783.23
648.678	8801.66
648.871	8641.92
649.064	8598.91
649.256	8709.5
649.449	8568.19
649.642	8373.63
649.835	8494.46
650.027	8412.54
650.22	8451.46
650.413	8414.59
650.605	8260.99
650.798	8330.62
650.991	8109.44
651.183	8078.72
651.376	8019.33
651.568	8150.4
651.761	8084.87
651.954	8095.11
652.146	7867.78
652.339	8060.29
652.531	7908.74
652.724	7894.41
652.916	7599.5
653.109	7687.56
653.301	7605.64
653.494	7703.95
653.686	7392.66
653.879	7687.56
654.071	7622.03
654.263	7437.71
654.456	7562.64
654.648	7531.92
654.84	7189.91
655.033	7435.66
655.225	7187.86
655.417	7249.3
655.61	7230.87
655.802	7036.31
655.994	7208.34
656.186	7042.45
656.379	6968.73
656.571	6952.34
656.763	6954.39
656.955	6823.32
657.148	6757.78
657.34	6886.81
657.532	6653.34
657.724	6639
657.916	6827.42
658.108	6618.52
658.3	6645.15
658.492	6591.9
658.684	6544.8
658.876	6450.59
659.068	6387.1
659.26	6333.86
659.452	6299.04
659.644	6350.24
659.836	6202.79
660.028	6391.2
660.22	6165.92
660.412	6348.19
660.604	6153.63
660.796	6108.58
660.988	6084
661.18	5948.84
661.372	6059.43
661.563	5819.82
661.755	5852.58
661.947	6057.38
662.139	5811.62
662.331	5817.77
662.522	5715.37
662.714	5762.47
662.906	5805.48
663.097	5909.93
663.289	5586.35
663.481	5592.49
663.673	5729.7
663.864	5442.99
664.056	5498.28
664.247	5578.15
664.439	5453.23
664.631	5344.69
664.822	5496.24
665.014	5428.65
665.205	5445.04
665.397	5215.66
665.588	5242.29
665.78	5213.62
665.971	5211.57
666.163	5148.08
666.354	5092.79
666.546	5107.12
666.737	5076.4
666.929	5268.91
667.12	5025.2
667.311	5111.22
667.503	4994.48
667.694	4898.23
667.885	4904.37
668.077	5000.63
668.268	4904.37
668.459	4892.09
668.651	4912.57
668.842	4765.11
669.033	4894.13
669.224	4814.26
669.416	4722.1
669.607	4820.41
669.798	4738.49
669.989	4611.51
670.18	4570.55
670.371	4746.68
670.563	4629.95
670.754	4484.54
670.945	4468.16
671.136	4582.84
671.327	4552.12
671.518	4519.36
671.709	4566.46
671.9	4312.51
672.091	4439.48
672.282	4435.39
672.473	4320.7
672.664	4568.51
672.855	4302.27
673.046	4371.9
673.237	4410.81
673.428	4296.13
673.619	4253.12
673.809	4261.31
674	4306.37
674.191	4173.25
674.382	4316.61
674.573	4048.32
674.764	4232.64
674.954	4033.99
675.145	4081.09
675.336	4214.21
675.527	4079.04
675.717	4191.68
675.908	4142.53
676.099	4103.62
676.289	4052.42
676.48	4009.41
676.671	3866.05
676.861	4115.91
677.052	4113.86
677.243	3907.01
677.433	3923.4
677.624	3814.85
677.814	3913.16
678.005	3947.97
678.195	3829.19
678.386	3827.14
678.576	3696.07
678.767	3861.96
678.957	3812.81
679.148	3931.59
679.338	3882.44
679.529	3802.57
679.719	3702.22
679.909	3794.37
680.1	3874.24
680.29	3751.37
680.481	3755.46
680.671	3665.35
680.861	3712.46
681.052	3614.15
681.242	3710.41
681.432	3665.35
681.622	3636.68
681.813	3839.43
682.003	3728.84
682.193	3644.87
682.383	3579.34
682.573	3593.67
682.764	3612.1
682.954	3390.92
683.144	3612.1
683.334	3591.63
683.524	3558.86
683.714	3478.99
683.904	3536.33
684.094	3470.8
684.284	3659.21
684.474	3497.42
684.664	3378.64
684.854	3433.93
685.044	3452.36
685.234	3444.17
685.424	3511.75
685.614	3411.4
685.804	3395.02
685.994	3284.43
686.184	3329.49
686.374	3300.81
686.564	3483.08
686.753	3374.54
686.943	3206.61
687.133	3380.68
687.323	3321.29
687.513	3349.96
687.702	3245.52
687.892	3272.14
688.082	3280.33
688.272	3243.47
688.461	3419.6
688.651	3372.49
688.841	3304.91
689.03	3229.13
689.22	3216.85
689.41	3278.29
689.599	3255.76
689.789	3278.29
689.979	3210.7
690.168	3214.8
690.358	3087.82
690.547	3120.59
690.737	3335.63
690.926	3112.4
691.116	3210.7
691.305	3405.26
691.495	3069.39
691.684	3069.39
691.874	3143.12
692.063	3235.28
692.252	3108.3
692.442	3100.11
692.631	3034.58
692.82	3116.5
693.01	3083.73
693.199	3098.06
693.388	2897.36
693.578	3044.82
693.767	3143.12
693.956	3132.88
694.146	2954.71
694.335	3073.49
694.524	3083.73
694.713	3067.35
694.902	2995.67
695.092	3134.93
695.281	2923.99
695.47	3075.54
695.659	3108.3
695.848	3010
696.037	3126.74
696.226	2995.67
696.415	2934.23
696.604	3010
696.793	3143.12
696.982	3022.29
697.171	3167.7
697.36	2889.17
697.549	3034.58
697.738	3093.97
697.927	3044.82
698.116	2985.43
698.305	2883.03
698.494	3089.87
698.683	2944.47
698.872	2962.9
699.061	2944.47
699.25	3061.2
699.438	2969.04
699.627	2971.09
699.816	2969.04
700.005	3114.45
700.193	2921.94
700.382	2964.95
700.571	2962.9
700.76	3044.82
700.948	2837.97
701.137	2821.59
701.326	2923.99
701.514	2942.42
701.703	2846.16
701.892	2958.8
702.08	2909.65
702.269	2921.94
702.457	2772.44
702.646	2833.88
702.834	2833.88
703.023	2835.92
703.212	2805.21
703.4	2821.59
703.589	2854.36
703.777	2803.16
703.965	2665.94
704.154	2840.02
704.342	2844.12
704.531	2803.16
704.719	2815.45
704.907	2915.8
705.096	2827.73
705.284	2829.78
705.472	2790.87
705.661	2717.14
705.849	2749.91
706.037	2782.68
706.226	2723.29
706.414	2692.57
706.602	2723.29
706.79	2727.38
706.979	2534.87
707.167	2612.7
707.355	2723.29
707.543	2661.85
707.731	2682.33
707.919	2653.66
708.107	2692.57
708.296	2633.18
708.484	2586.07
708.672	2602.46
708.86	2645.46
709.048	2715.09
709.236	2620.89
709.424	2545.11
709.612	2610.65
709.8	2575.83
709.988	2573.78
710.176	2477.53
710.364	2588.12
710.551	2424.28
710.739	2479.58
710.927	2436.57
711.115	2328.03
711.303	2412
711.491	2432.47
711.679	2407.9
711.866	2504.15
712.054	2543.07
712.242	2532.83
712.43	2436.57
712.617	2375.13
712.805	2389.47
712.993	2424.28
713.181	2313.69
713.368	2313.69
713.556	2438.62
713.744	2274.78
713.931	2407.9
714.119	2381.28
714.306	2352.6
714.494	2321.88
714.682	2399.71
714.869	2325.98
715.057	2332.12
715.244	2305.5
715.432	2287.07
715.619	2203.1
715.807	2242.01
715.994	2346.46
716.182	2231.77
716.369	2282.97
716.556	2256.35
716.744	2186.72
716.931	2211.29
717.119	2303.45
717.306	2248.16
717.493	2127.33
717.681	2121.18
717.868	2053.6
718.055	2203.1
718.242	2141.66
718.43	2153.95
718.617	2184.67
718.804	2100.7
718.991	2141.66
719.179	2108.9
719.366	2020.83
719.553	2090.46
719.74	2090.46
719.927	2086.37
720.114	2082.27
720.301	2174.43
720.488	1963.49
720.676	1957.35
720.863	1953.25
721.05	1969.63
721.237	1949.15
721.424	1977.83
721.611	2043.36
721.798	2014.69
721.985	2045.41
722.172	1943.01
722.358	1965.54
722.545	1957.35
722.732	1926.63
722.919	1945.06
723.106	1916.39
723.293	1836.52
723.48	2002.4
723.667	1861.09
723.853	1961.44
724.04	1957.35
724.227	1842.66
724.414	1865.19
724.6	1768.93
724.787	1912.29
724.974	1850.85
725.161	1881.57
725.347	1799.65
725.534	1773.03
725.72	1852.9
725.907	1758.69
726.094	1725.93
726.28	1857
726.467	1676.77
726.653	1795.56
726.84	1813.99
727.027	1807.84
727.213	1789.41
727.4	1859.04
727.586	1758.69
727.773	1742.31
727.959	1777.12
728.145	1791.46
728.332	1760.74
728.518	1777.12
728.705	1719.78
728.891	1746.41
729.077	1764.84
729.264	1730.02
729.45	1750.5
729.636	1609.19
729.823	1627.62
730.009	1627.62
730.195	1695.21
730.382	1668.58
730.568	1770.98
730.754	1732.07
730.94	1603.05
731.126	1691.11
731.313	1623.53
731.499	1621.48
731.685	1627.62
731.871	1662.44
732.057	1576.42
732.243	1617.38
732.429	1666.53
732.615	1633.77
732.801	1648.1
732.987	1531.37
733.173	1533.42
733.359	1576.42
733.545	1488.36
733.731	1537.51
733.917	1551.85
734.103	1537.51
734.289	1506.79
734.475	1514.98
734.661	1578.47
734.847	1584.62
735.033	1547.75
735.219	1531.37
735.404	1521.13
735.59	1461.74
735.776	1482.22
735.962	1461.74
736.148	1506.79
736.333	1547.75
736.519	1375.72
736.705	1529.32
736.89	1543.66
737.076	1461.74
737.262	1465.83
737.447	1453.55
737.633	1375.72
737.819	1502.7
738.004	1385.96
738.19	1437.16
738.375	1392.11
738.561	1471.98
738.747	1381.87
738.932	1431.02
739.118	1396.2
739.303	1443.31
739.489	1400.3
739.674	1340.91
739.859	1379.82
740.045	1486.31
740.23	1304.04
740.416	1338.86
740.601	1406.44
740.786	1310.19
740.972	1375.72
741.157	1240.56
741.342	1297.9
741.528	1377.77
741.713	1500.65
741.898	1289.71
742.084	1314.28
742.269	1275.37
742.454	1273.32
742.639	1361.39
742.824	1269.23
743.01	1258.99
743.195	1209.84
743.38	1279.47
743.565	1289.71
743.75	1240.56
743.935	1236.46
744.12	1170.93
744.305	1203.69
744.49	1166.83
744.675	1261.04
744.86	1101.3
745.045	1232.37
745.23	1279.47
745.415	1273.32
745.6	1183.21
745.785	1082.86
745.97	1234.41
746.155	1207.79
746.34	1183.21
746.525	1152.49
746.71	1156.59
746.895	1093.1
747.079	1222.13
747.264	1052.14
747.449	1097.2
747.634	1076.72
747.819	1091.06
748.003	1203.69
748.188	1033.71
748.373	1105.39
748.557	1043.95
748.742	1056.24
748.927	1060.34
749.111	964.08
749.296	1041.9
749.481	1005.04
749.665	1031.66
749.85	1050.1
750.034	1021.42
750.219	1013.23
750.404	1011.18
750.588	1037.81
750.773	939.51
750.957	996.85
751.141	925.17
751.326	1029.62
751.51	1019.38
751.695	996.85
751.879	880.11
752.064	1019.38
752.248	900.59
752.432	921.07
752.617	962.03
752.801	921.07
752.985	996.85
753.17	898.55
753.354	896.5
753.538	869.87
753.722	908.79
753.907	937.46
754.091	964.08
754.275	937.46
754.459	962.03
754.643	826.87
754.828	933.36
755.012	882.16
755.196	890.35
755.38	806.39
755.564	835.06
755.748	792.05
755.932	851.44
756.116	837.11
756.3	863.73
756.484	798.2
756.668	740.85
756.852	855.54
757.036	802.29
757.22	839.16
757.404	773.62
757.588	800.24
757.772	747
757.956	792.05
758.14	710.13
758.323	830.96
758.507	765.43
758.691	751.09
758.875	781.81
759.059	730.61
759.242	724.47
759.426	771.57
759.61	685.56
759.794	716.28
759.977	783.86
760.161	703.99
760.345	728.56
760.528	658.93
760.712	736.76
760.895	683.51
761.079	732.66
761.263	716.28
761.446	642.55
761.63	701.94
761.813	652.79
761.997	579.06
762.18	732.66
762.364	652.79
762.547	642.55
762.731	740.85
762.914	638.45
763.098	656.89
763.281	720.37
763.464	708.09
763.648	699.89
763.831	689.65
764.015	593.4
764.198	603.64
764.381	642.55
764.564	613.88
764.748	663.03
764.931	663.03
765.114	701.94
765.297	554.49
765.481	665.08
765.664	644.6
765.847	521.72
766.03	562.68
766.213	587.26
766.397	531.96
766.58	613.88
766.763	634.36
766.946	529.91
767.129	622.07
767.312	529.91
767.495	607.73
767.678	568.82
767.861	617.97
768.044	527.86
768.227	593.4
768.41	671.22
768.593	620.02
768.776	515.58
768.959	630.26
769.142	681.46
769.324	527.86
769.507	595.45
769.69	527.86
769.873	536.06
770.056	572.92
770.239	568.82
770.421	652.79
770.604	579.06
770.787	548.34
770.97	540.15
771.152	601.59
771.335	570.87
771.518	577.02
771.7	495.1
771.883	572.92
772.066	511.48
772.248	544.25
772.431	572.92
772.613	642.55
772.796	566.78
772.978	577.02
773.161	501.24
773.343	495.1
773.526	501.24
773.708	554.49
773.891	415.23
774.073	527.86
774.256	536.06
774.438	503.29
774.621	429.56
774.803	499.19
774.985	493.05
775.168	521.72
775.35	443.9
775.532	482.81
775.715	427.51
775.897	478.71
776.079	497.14
776.261	462.33
776.444	417.27
776.626	464.38
776.808	515.58
776.99	513.53
777.173	513.53
777.355	519.67
777.537	486.9
777.719	462.33
777.901	413.18
778.083	382.46
778.265	368.12
778.447	439.8
778.629	447.99
778.811	421.37
778.993	435.71
779.175	413.18
779.357	482.81
779.539	450.04
779.721	394.75
779.903	447.99
780.085	404.99
780.267	513.53
780.449	327.16
780.631	347.64
780.812	376.31
780.994	382.46
781.176	364.03
781.358	454.14
781.54	398.84
781.721	376.31
781.903	386.55
782.085	306.68
782.267	429.56
782.448	368.12
782.63	323.07
782.812	329.21
782.993	380.41
783.175	382.46
783.357	355.83
783.538	372.22
783.72	349.69
783.901	347.64
784.083	374.27
784.264	357.88
784.446	314.88
784.627	378.36
784.809	349.69
784.99	333.31
785.172	331.26
785.353	310.78
785.535	329.21
785.716	341.5
785.897	271.87
786.079	380.41
786.26	304.64
786.441	327.16
786.623	273.92
786.804	323.07
786.985	273.92
787.167	273.92
787.348	269.82
787.529	280.06
787.71	259.58
787.891	216.57
788.073	249.34
788.254	257.53
788.435	343.55
788.616	292.35
788.797	232.96
788.978	271.87
789.159	314.88
789.34	247.29
789.522	175.61
789.703	200.19
789.884	257.53
790.065	265.72
790.246	273.92
790.427	177.66
790.607	249.34
790.788	257.53
790.969	175.61
791.15	323.07
791.331	218.62
791.512	329.21
791.693	273.92
791.874	235
792.054	237.05
792.235	251.39
792.416	208.38
792.597	308.73
792.778	253.44
792.958	208.38
793.139	200.19
793.32	255.48
793.5	265.72
793.681	243.2
793.862	167.42
794.042	171.52
794.223	202.24
794.404	181.76
794.584	155.13
794.765	226.81
794.945	222.72
795.126	218.62
795.306	161.28
795.487	198.14
795.667	200.19
795.848	267.77
796.028	120.32
796.209	216.57
796.389	179.71
796.57	228.86
796.75	175.61
796.93	202.24
797.111	212.48
797.291	181.76
797.471	134.65
797.652	177.66
797.832	169.47
798.012	134.65
798.192	136.7
798.373	108.03
798.553	179.71
798.733	224.76
798.913	212.48
799.093	81.41
799.274	169.47
799.454	224.76
799.634	159.23
799.814	241.15
799.994	253.44
800.174	249.34
800.354	216.57
800.534	134.65
800.714	220.67
800.894	173.57
801.074	112.13
801.254	130.56
801.434	255.48
801.614	101.89
801.794	151.04
801.974	398.84
802.154	142.85
802.334	136.7
802.514	192
802.693	218.62
802.873	206.33
803.053	151.04
803.233	89.6
803.413	187.9
803.592	56.83
803.772	187.9
803.952	161.28
804.131	140.8
804.311	200.19
804.491	192
804.67	126.46
804.85	130.56
805.03	130.56
805.209	128.51
805.389	114.17
805.568	232.96
805.748	167.42
805.928	134.65
806.107	118.27
806.287	155.13
806.466	79.36
806.646	157.18
806.825	177.66
807.004	169.47
807.184	159.23
807.363	163.33
807.543	128.51
807.722	146.94
807.901	155.13
808.081	77.31
808.26	173.57
808.439	118.27
808.619	120.32
808.798	130.56
808.977	83.45
809.156	142.85
809.336	124.41
809.515	97.79
809.694	75.26
809.873	108.03
810.052	116.22
810.231	58.88
810.411	165.37
810.59	126.46
810.769	77.31
810.948	136.7
811.127	62.98
811.306	153.09
811.485	159.23
811.664	194.05
811.843	62.98
812.022	136.7
812.201	89.6
812.38	77.31
812.559	79.36
812.737	151.04
812.916	124.41
813.095	144.89
813.274	118.27
813.453	105.98
813.632	83.45
813.811	97.79
813.989	77.31
814.168	93.69
814.347	118.27
814.526	159.23
814.704	62.98
814.883	77.31
815.062	56.83
815.24	110.08
815.419	105.98
815.598	85.5
815.776	60.93
815.955	140.8
816.133	69.12
816.312	93.69
816.49	69.12
816.669	85.5
816.847	85.5
817.026	144.89
817.204	69.12
817.383	71.17
817.561	40.45
817.74	83.45
817.918	81.41
818.097	146.94
818.275	73.21
818.453	161.28
818.632	71.17
818.81	67.07
818.988	112.13
819.167	116.22
819.345	73.21
819.523	62.98
819.701	73.21
819.879	65.02
820.058	85.5
820.236	22.02
820.414	71.17
820.592	52.74
820.77	108.03
820.948	130.56
821.127	124.41
821.305	15.87
821.483	71.17
821.661	81.41
821.839	194.05
822.017	77.31
822.195	124.41
822.373	105.98
822.551	91.65
822.729	157.18
822.907	26.11
823.085	99.84
823.262	52.74
823.44	108.03
823.618	97.79
823.796	85.5
823.974	108.03
824.152	126.46
824.329	60.93
824.507	101.89
824.685	46.59
824.863	3.58
825.04	75.26
825.218	118.27
825.396	87.55
825.574	56.83
825.751	112.13
825.929	103.93
826.107	-27.14
826.284	73.21
826.462	95.74
826.639	97.79
826.817	77.31
826.994	24.06
827.172	134.65
827.349	62.98
827.527	69.12
827.704	32.26
827.882	93.69
828.059	122.37
828.237	81.41
828.414	159.23
828.591	52.74
828.769	52.74
828.946	58.88
829.124	67.07
829.301	58.88
829.478	46.59
829.655	67.07
829.833	69.12
830.01	71.17
830.187	91.65
830.364	67.07
830.542	-43.52
830.719	118.27
830.896	67.07
831.073	79.36
831.25	15.87
831.427	101.89
831.604	153.09
831.782	67.07
831.959	52.74
832.136	40.45
832.313	87.55
832.49	101.89
832.667	69.12
832.844	56.83
833.021	52.74
833.198	26.11
833.374	11.78
833.551	19.97
833.728	85.5
833.905	28.16
834.082	19.97
834.259	13.82
834.436	69.12
834.612	79.36
834.789	30.21
834.966	54.78
835.143	19.97
835.319	22.02
835.496	101.89
835.673	93.69
835.85	60.93
836.026	62.98
836.203	134.65
836.38	9.73
836.556	81.41
836.733	73.21
836.909	65.02
837.086	62.98
837.262	69.12
837.439	-4.61
837.616	101.89
837.792	40.45
837.968	-8.7
838.145	-53.76
838.321	34.3
838.498	13.82
838.674	3.58
838.851	54.78
839.027	30.21
839.203	81.41
839.38	142.85
839.556	19.97
839.732	5.63
839.909	38.4
840.085	83.45
840.261	32.26
840.437	65.02
840.614	36.35
840.79	179.71
840.966	89.6
841.142	128.51
841.318	17.92
841.494	30.21
841.671	19.97
841.847	112.13
842.023	-27.14
842.199	58.88
842.375	30.21
842.551	105.98
842.727	-4.61
842.903	116.22
843.079	54.78
843.255	36.35
843.431	69.12
843.607	52.74
843.783	-35.33
843.959	46.59
844.134	56.83
844.31	48.64
844.486	79.36
844.662	38.4
844.838	-12.8
845.013	52.74
845.189	11.78
845.365	13.82
845.541	-29.18
845.716	69.12
845.892	5.63
846.068	36.35
846.244	77.31
846.419	95.74
846.595	-10.75
846.77	42.5
846.946	3.58
847.122	87.55
847.297	32.26
847.473	81.41
847.648	-2.56
847.824	52.74
847.999	15.87
848.175	56.83
848.35	38.4
848.526	17.92
848.701	58.88
848.876	34.3
849.052	124.41
849.227	54.78
849.403	30.21
849.578	77.31
849.753	-51.71
849.929	116.22
850.104	-20.99
850.279	30.21
850.454	54.78
850.63	40.45
850.805	62.98
850.98	62.98
851.155	52.74
851.33	5.63
851.505	52.74
851.681	48.64
851.856	87.55
852.031	60.93
852.206	36.35
852.381	-27.14
852.556	99.84
852.731	62.98
852.906	73.21
853.081	42.5
853.256	34.3
853.431	38.4
853.606	62.98
853.781	46.59
853.956	-6.66
854.131	79.36
854.305	22.02
854.48	58.88
854.655	73.21
854.83	67.07
855.005	-8.7
855.18	15.87
855.354	-45.57
855.529	52.74
855.704	36.35
855.879	91.65
856.053	11.78
856.228	101.89
856.403	28.16
856.577	52.74
856.752	-4.61
856.926	5.63
857.101	30.21
857.276	22.02
857.45	28.16
857.625	22.02
857.799	11.78
857.974	17.92
858.148	-37.38
858.323	3.58
858.497	58.88
858.672	19.97
858.846	62.98
859.02	79.36
859.195	79.36
859.369	-4.61
859.543	7.68
859.718	60.93
859.892	97.79
860.066	95.74
860.241	52.74
860.415	1.54
860.589	3.58
860.763	48.64
860.938	-8.7
861.112	-2.56
861.286	77.31
861.46	44.54
861.634	26.11
861.808	-8.7
861.982	-41.47
862.157	50.69
862.331	-8.7
862.505	17.92
862.679	-29.18
862.853	-2.56
863.027	32.26
863.201	-6.66
863.375	77.31
863.549	-20.99
863.722	15.87
863.896	36.35
864.07	-8.7
864.244	105.98
864.418	52.74
864.592	-78.33
864.766	-20.99
864.939	32.26
865.113	7.68
865.287	46.59
865.461	-20.99
865.634	-27.14
865.808	-61.95
865.982	62.98
866.156	-66.05
866.329	-12.8
866.503	69.12
866.676	9.73
866.85	30.21
867.024	11.78
867.197	-10.75
867.371	85.5
867.544	54.78
867.718	28.16
867.891	5.63
868.065	3.58
868.238	30.21
868.412	34.3
868.585	89.6
868.759	36.35
868.932	-61.95
869.105	62.98
869.279	-2.56
869.452	42.5
869.625	-0.51
869.799	62.98
869.972	56.83
870.145	-25.09
870.319	52.74
870.492	3.58
870.665	9.73
870.838	-6.66
871.011	-14.85
871.185	-10.75
871.358	9.73
871.531	28.16
871.704	-2.56
871.877	-78.33
872.05	5.63
872.223	7.68
872.396	-14.85
872.569	85.5
872.742	-14.85
872.915	-8.7
873.088	-6.66
873.261	40.45
873.434	32.26
873.607	-45.57
873.78	-12.8
873.953	34.3
874.126	-8.7
874.299	28.16
874.471	3.58
874.644	62.98
874.817	7.68
874.99	-70.14
875.163	42.5
875.335	3.58
875.508	67.07
875.681	52.74
875.853	-41.47
876.026	38.4
876.199	52.74
876.371	69.12
876.544	-72.19
876.717	58.88
876.889	40.45
877.062	56.83
877.234	9.73
877.407	48.64
877.579	44.54
877.752	-16.9
877.924	24.06
878.097	15.87
878.269	-2.56
878.442	13.82
878.614	-12.8
878.786	-23.04
878.959	65.02
879.131	-23.04
879.303	1.54
879.476	17.92
879.648	69.12
879.82	7.68
879.993	3.58
880.165	26.11
880.337	30.21
880.509	-74.24
880.681	19.97
880.854	38.4
881.026	15.87
881.198	44.54
881.37	15.87
881.542	32.26
881.714	-2.56
881.886	5.63
882.058	-2.56
882.23	93.69
882.402	17.92
882.574	48.64
882.746	-16.9
882.918	69.12
883.09	13.82
883.262	-0.51
883.434	36.35
883.606	32.26
883.778	19.97
883.95	-10.75
884.122	19.97
884.293	69.12
884.465	60.93
884.637	-4.61
884.809	-57.86
884.98	28.16
885.152	13.82
885.324	62.98
885.496	-18.94
885.667	-4.61
885.839	22.02
886.011	36.35
886.182	-12.8
886.354	-43.52
886.525	-31.23
886.697	24.06
886.869	60.93
887.04	-41.47
887.212	-43.52
887.383	13.82
887.555	28.16
887.726	-29.18
887.897	52.74
888.069	32.26
888.24	9.73
888.412	60.93
888.583	-10.75
888.754	22.02
888.926	-12.8
889.097	7.68
889.268	30.21
889.44	44.54
889.611	30.21
889.782	-23.04
889.953	-10.75
890.125	32.26
890.296	3.58
890.467	-45.57
890.638	-8.7
890.809	28.16
890.98	-18.94
891.151	46.59
891.323	-6.66
891.494	60.93
891.665	-8.7
891.836	-43.52
892.007	13.82
892.178	22.02
892.349	19.97
892.52	-20.99
892.691	13.82
892.862	28.16
893.032	-20.99
893.203	-4.61
893.374	46.59
893.545	62.98
893.716	22.02
893.887	-20.99
894.057	-37.38
894.228	105.98
894.399	-18.94
894.57	-74.24
894.74	97.79
894.911	-2.56
895.082	9.73
895.253	-37.38
895.423	-47.62
895.594	1.54
895.764	34.3
895.935	24.06
896.106	56.83
896.276	-49.66
896.447	15.87
896.617	-4.61
896.788	1.54
896.958	-10.75
897.129	71.17
897.299	38.4
897.47	-53.76
897.64	22.02
897.81	-23.04
897.981	7.68
898.151	-68.09
898.322	-25.09
898.492	42.5
898.662	-68.09
898.832	44.54
899.003	24.06
899.173	-29.18
899.343	22.02
899.513	34.3
