Data from USB4F104151__148__13-58-23-435.txt Node

Date: Thu Mar 13 13:58:23 EDT 2025
User: louis
Spectrometer: USB4F10415
Trigger mode: 4
Integration Time (sec): 1.000000E-2
Scans to average: 1
Electric dark correction enabled: true
Nonlinearity correction enabled: false
Boxcar width: 0
XAxis mode: Wavelengths
Number of Pixels in Spectrum: 3648
>>>>>Begin Spectral Data<<<<<
178.204	-55.81
178.424	-55.81
178.644	-55.81
178.864	11.78
179.084	-27.14
179.304	-90.62
179.524	7.68
179.744	24.06
179.964	28.16
180.184	-45.57
180.404	26.11
180.624	22.02
180.844	1.54
181.064	11.78
181.283	15.87
181.503	-10.75
181.723	9.73
181.943	-72.19
182.163	19.97
182.383	3.58
182.602	5.63
182.822	-23.04
183.042	48.64
183.262	-0.51
183.482	7.68
183.701	-18.94
183.921	11.78
184.141	-2.56
184.361	48.64
184.58	75.26
184.8	26.11
185.02	-6.66
185.239	91.65
185.459	-0.51
185.679	32.26
185.898	56.83
186.118	3.58
186.338	24.06
186.557	-6.66
186.777	-66.05
186.997	40.45
187.216	19.97
187.436	9.73
187.655	-12.8
187.875	28.16
188.095	36.35
188.314	-23.04
188.534	71.17
188.753	50.69
188.973	24.06
189.192	52.74
189.412	17.92
189.631	24.06
189.851	-33.28
190.07	42.5
190.29	-25.09
190.509	40.45
190.729	-53.76
190.948	103.93
191.168	30.21
191.387	26.11
191.607	26.11
191.826	3.58
192.045	-0.51
192.265	32.26
192.484	24.06
192.704	24.06
192.923	-86.53
193.142	-20.99
193.362	32.26
193.581	50.69
193.8	50.69
194.02	91.65
194.239	1.54
194.458	-33.28
194.678	-86.53
194.897	-6.66
195.116	-16.9
195.335	32.26
195.555	60.93
195.774	75.26
195.993	-6.66
196.212	19.97
196.432	-90.62
196.651	48.64
196.87	42.5
197.089	19.97
197.308	-12.8
197.528	15.87
197.747	3.58
197.966	30.21
198.185	40.45
198.404	56.83
198.623	56.83
198.842	30.21
199.062	-0.51
199.281	11.78
199.5	-57.86
199.719	48.64
199.938	11.78
200.157	42.5
200.376	11.78
200.595	-4.61
200.814	65.02
201.033	42.5
201.252	3.58
201.471	67.07
201.69	34.3
201.909	52.74
202.128	-4.61
202.347	-16.9
202.566	-51.71
202.785	65.02
203.004	-41.47
203.223	58.88
203.442	3.58
203.661	73.21
203.879	-6.66
204.098	52.74
204.317	34.3
204.536	28.16
204.755	-8.7
204.974	67.07
205.193	17.92
205.411	58.88
205.63	32.26
205.849	40.45
206.068	13.82
206.287	19.97
206.505	1.54
206.724	7.68
206.943	-16.9
207.162	60.93
207.381	-41.47
207.599	22.02
207.818	-33.28
208.037	-29.18
208.255	15.87
208.474	11.78
208.693	-47.62
208.911	58.88
209.13	28.16
209.349	-72.19
209.567	7.68
209.786	-8.7
210.005	-47.62
210.223	-33.28
210.442	38.4
210.661	1.54
210.879	36.35
211.098	73.21
211.316	36.35
211.535	87.55
211.753	40.45
211.972	-6.66
212.191	50.69
212.409	40.45
212.628	28.16
212.846	-33.28
213.065	1.54
213.283	67.07
213.502	36.35
213.72	-0.51
213.938	30.21
214.157	40.45
214.375	60.93
214.594	-27.14
214.812	11.78
215.031	85.5
215.249	19.97
215.467	-4.61
215.686	91.65
215.904	93.69
216.122	77.31
216.341	34.3
216.559	1.54
216.778	24.06
216.996	38.4
217.214	9.73
217.432	-35.33
217.651	-6.66
217.869	7.68
218.087	-6.66
218.306	36.35
218.524	48.64
218.742	-29.18
218.96	62.98
219.179	30.21
219.397	52.74
219.615	75.26
219.833	34.3
220.051	-16.9
220.27	65.02
220.488	46.59
220.706	17.92
220.924	15.87
221.142	24.06
221.36	30.21
221.578	24.06
221.796	-41.47
222.015	42.5
222.233	11.78
222.451	-37.38
222.669	-6.66
222.887	89.6
223.105	-23.04
223.323	48.64
223.541	56.83
223.759	15.87
223.977	1.54
224.195	34.3
224.413	-12.8
224.631	1.54
224.849	30.21
225.067	-39.42
225.285	-8.7
225.503	89.6
225.721	-31.23
225.939	28.16
226.157	52.74
226.375	99.84
226.592	-41.47
226.81	-33.28
227.028	3.58
227.246	15.87
227.464	58.88
227.682	-12.8
227.9	-35.33
228.117	28.16
228.335	19.97
228.553	-29.18
228.771	7.68
228.989	58.88
229.206	40.45
229.424	17.92
229.642	67.07
229.86	28.16
230.077	-6.66
230.295	36.35
230.513	93.69
230.731	-10.75
230.948	9.73
231.166	54.78
231.384	19.97
231.601	-16.9
231.819	-49.66
232.037	60.93
232.254	69.12
232.472	9.73
232.689	-57.86
232.907	-0.51
233.125	-6.66
233.342	-27.14
233.56	-14.85
233.777	81.41
233.995	-20.99
234.213	26.11
234.43	44.54
234.648	3.58
234.865	19.97
235.083	17.92
235.3	69.12
235.518	24.06
235.735	-20.99
235.953	9.73
236.17	19.97
236.388	40.45
236.605	15.87
236.822	75.26
237.04	44.54
237.257	75.26
237.475	17.92
237.692	40.45
237.909	26.11
238.127	58.88
238.344	17.92
238.562	15.87
238.779	17.92
238.996	38.4
239.214	32.26
239.431	75.26
239.648	-2.56
239.865	-0.51
240.083	-6.66
240.3	67.07
240.517	5.63
240.735	89.6
240.952	-20.99
241.169	3.58
241.386	17.92
241.603	-88.57
241.821	28.16
242.038	-37.38
242.255	62.98
242.472	-55.81
242.689	36.35
242.907	118.27
243.124	7.68
243.341	32.26
243.558	7.68
243.775	42.5
243.992	-51.71
244.209	34.3
244.426	24.06
244.643	13.82
244.86	32.26
245.078	36.35
245.295	-0.51
245.512	24.06
245.729	-33.28
245.946	11.78
246.163	-4.61
246.38	11.78
246.597	73.21
246.814	22.02
247.031	24.06
247.248	13.82
247.464	-100.86
247.681	-6.66
247.898	69.12
248.115	30.21
248.332	62.98
248.549	32.26
248.766	50.69
248.983	-2.56
249.2	52.74
249.417	28.16
249.633	67.07
249.85	24.06
250.067	60.93
250.284	15.87
250.501	1.54
250.717	-10.75
250.934	-4.61
251.151	58.88
251.368	38.4
251.585	91.65
251.801	50.69
252.018	-68.09
252.235	22.02
252.451	81.41
252.668	26.11
252.885	-16.9
253.102	83.45
253.318	40.45
253.535	36.35
253.752	77.31
253.968	-14.85
254.185	73.21
254.401	-4.61
254.618	46.59
254.835	36.35
255.051	30.21
255.268	81.41
255.484	-4.61
255.701	-55.81
255.917	7.68
256.134	22.02
256.351	22.02
256.567	-25.09
256.784	28.16
257	28.16
257.217	26.11
257.433	-16.9
257.65	97.79
257.866	22.02
258.082	32.26
258.299	-6.66
258.515	42.5
258.732	38.4
258.948	48.64
259.165	93.69
259.381	58.88
259.597	32.26
259.814	65.02
260.03	-6.66
260.246	44.54
260.463	-35.33
260.679	22.02
260.895	3.58
261.112	-61.95
261.328	32.26
261.544	26.11
261.761	24.06
261.977	93.69
262.193	-49.66
262.409	17.92
262.626	-23.04
262.842	26.11
263.058	-39.42
263.274	-20.99
263.49	65.02
263.707	-0.51
263.923	26.11
264.139	-6.66
264.355	38.4
264.571	24.06
264.787	-25.09
265.004	54.78
265.22	1.54
265.436	15.87
265.652	9.73
265.868	15.87
266.084	-12.8
266.3	19.97
266.516	34.3
266.732	44.54
266.948	36.35
267.164	34.3
267.38	19.97
267.596	5.63
267.812	7.68
268.028	7.68
268.244	52.74
268.46	32.26
268.676	46.59
268.892	54.78
269.108	-37.38
269.324	81.41
269.54	-33.28
269.756	128.51
269.972	19.97
270.188	-41.47
270.403	-2.56
270.619	114.17
270.835	99.84
271.051	48.64
271.267	34.3
271.483	1.54
271.698	48.64
271.914	7.68
272.13	26.11
272.346	9.73
272.562	-29.18
272.777	48.64
272.993	69.12
273.209	-37.38
273.425	26.11
273.64	1.54
273.856	-12.8
274.072	3.58
274.287	77.31
274.503	38.4
274.719	13.82
274.934	-4.61
275.15	1.54
275.366	42.5
275.581	1.54
275.797	38.4
276.012	15.87
276.228	17.92
276.444	71.17
276.659	58.88
276.875	40.45
277.09	87.55
277.306	-0.51
277.521	34.3
277.737	62.98
277.952	50.69
278.168	65.02
278.383	22.02
278.599	-12.8
278.814	22.02
279.03	34.3
279.245	15.87
279.461	83.45
279.676	-12.8
279.892	81.41
280.107	-4.61
280.322	32.26
280.538	-10.75
280.753	22.02
280.969	36.35
281.184	48.64
281.399	40.45
281.615	28.16
281.83	62.98
282.045	36.35
282.26	-16.9
282.476	32.26
282.691	58.88
282.906	-16.9
283.122	40.45
283.337	-10.75
283.552	5.63
283.767	-45.57
283.983	34.3
284.198	-12.8
284.413	67.07
284.628	54.78
284.843	52.74
285.058	60.93
285.274	36.35
285.489	11.78
285.704	-4.61
285.919	19.97
286.134	103.93
286.349	11.78
286.564	89.6
286.779	62.98
286.995	3.58
287.21	13.82
287.425	26.11
287.64	9.73
287.855	-14.85
288.07	5.63
288.285	75.26
288.5	-12.8
288.715	-14.85
288.93	19.97
289.145	65.02
289.36	-12.8
289.575	114.17
289.79	-8.7
290.004	38.4
290.219	22.02
290.434	-16.9
290.649	-16.9
290.864	-25.09
291.079	52.74
291.294	69.12
291.509	42.5
291.724	36.35
291.938	-45.57
292.153	42.5
292.368	24.06
292.583	50.69
292.798	11.78
293.012	73.21
293.227	42.5
293.442	-23.04
293.657	19.97
293.871	42.5
294.086	19.97
294.301	15.87
294.516	5.63
294.73	15.87
294.945	-25.09
295.16	5.63
295.374	77.31
295.589	-8.7
295.804	65.02
296.018	62.98
296.233	87.55
296.447	60.93
296.662	36.35
296.877	19.97
297.091	26.11
297.306	-12.8
297.52	7.68
297.735	52.74
297.949	77.31
298.164	-8.7
298.378	36.35
298.593	-0.51
298.807	13.82
299.022	9.73
299.236	48.64
299.451	17.92
299.665	-47.62
299.88	56.83
300.094	-16.9
300.309	34.3
300.523	69.12
300.737	58.88
300.952	108.03
301.166	-2.56
301.381	-18.94
301.595	-70.14
301.809	7.68
302.024	-23.04
302.238	-27.14
302.452	11.78
302.667	24.06
302.881	73.21
303.095	56.83
303.309	32.26
303.524	46.59
303.738	5.63
303.952	-14.85
304.166	46.59
304.381	17.92
304.595	83.45
304.809	32.26
305.023	7.68
305.237	-64
305.452	50.69
305.666	24.06
305.88	34.3
306.094	17.92
306.308	-10.75
306.522	46.59
306.736	58.88
306.95	-4.61
307.164	24.06
307.379	22.02
307.593	28.16
307.807	-47.62
308.021	11.78
308.235	58.88
308.449	-23.04
308.663	26.11
308.877	89.6
309.091	-2.56
309.305	26.11
309.519	-37.38
309.733	-6.66
309.947	-31.23
310.161	42.5
310.374	62.98
310.588	30.21
310.802	75.26
311.016	105.98
311.23	3.58
311.444	-14.85
311.658	-55.81
311.872	85.5
312.085	32.26
312.299	56.83
312.513	54.78
312.727	87.55
312.941	-6.66
313.154	-37.38
313.368	-0.51
313.582	58.88
313.796	65.02
314.009	101.89
314.223	48.64
314.437	40.45
314.651	58.88
314.864	-8.7
315.078	22.02
315.292	24.06
315.505	48.64
315.719	56.83
315.933	-0.51
316.146	11.78
316.36	40.45
316.573	15.87
316.787	3.58
317.001	67.07
317.214	7.68
317.428	42.5
317.641	-16.9
317.855	22.02
318.068	62.98
318.282	46.59
318.495	17.92
318.709	44.54
318.922	-2.56
319.136	48.64
319.349	60.93
319.563	52.74
319.776	3.58
319.99	52.74
320.203	99.84
320.417	-18.94
320.63	85.5
320.843	9.73
321.057	-4.61
321.27	-49.66
321.483	30.21
321.697	65.02
321.91	17.92
322.124	32.26
322.337	-31.23
322.55	65.02
322.763	73.21
322.977	-14.85
323.19	-45.57
323.403	81.41
323.617	42.5
323.83	-8.7
324.043	3.58
324.256	7.68
324.469	15.87
324.683	36.35
324.896	30.21
325.109	19.97
325.322	40.45
325.535	132.61
325.748	5.63
325.962	71.17
326.175	-47.62
326.388	-57.86
326.601	65.02
326.814	77.31
327.027	40.45
327.24	38.4
327.453	-14.85
327.666	32.26
327.879	42.5
328.092	-4.61
328.305	-16.9
328.518	124.41
328.731	77.31
328.944	65.02
329.157	83.45
329.37	-8.7
329.583	22.02
329.796	77.31
330.009	58.88
330.222	81.41
330.435	65.02
330.648	73.21
330.861	7.68
331.073	-59.9
331.286	7.68
331.499	32.26
331.712	-23.04
331.925	-55.81
332.138	87.55
332.35	44.54
332.563	15.87
332.776	48.64
332.989	15.87
333.202	56.83
333.414	22.02
333.627	24.06
333.84	30.21
334.053	-8.7
334.265	48.64
334.478	28.16
334.691	34.3
334.903	19.97
335.116	9.73
335.329	81.41
335.541	-31.23
335.754	56.83
335.966	22.02
336.179	32.26
336.392	36.35
336.604	24.06
336.817	15.87
337.029	19.97
337.242	17.92
337.454	15.87
337.667	60.93
337.88	83.45
338.092	56.83
338.305	73.21
338.517	50.69
338.729	-0.51
338.942	65.02
339.154	93.69
339.367	5.63
339.579	19.97
339.792	79.36
340.004	32.26
340.217	34.3
340.429	120.32
340.641	-18.94
340.854	13.82
341.066	42.5
341.278	42.5
341.491	58.88
341.703	24.06
341.915	-2.56
342.128	46.59
342.34	9.73
342.552	75.26
342.764	-33.28
342.977	56.83
343.189	32.26
343.401	34.3
343.613	42.5
343.826	60.93
344.038	-0.51
344.25	62.98
344.462	-47.62
344.674	110.08
344.886	22.02
345.099	-12.8
345.311	7.68
345.523	108.03
345.735	40.45
345.947	67.07
346.159	-37.38
346.371	34.3
346.583	46.59
346.795	77.31
347.007	1.54
347.219	65.02
347.431	34.3
347.643	3.58
347.855	144.89
348.067	87.55
348.279	34.3
348.491	13.82
348.703	60.93
348.915	48.64
349.127	1.54
349.339	-16.9
349.551	60.93
349.763	9.73
349.975	52.74
350.187	11.78
350.399	38.4
350.61	34.3
350.822	26.11
351.034	22.02
351.246	24.06
351.458	56.83
351.669	26.11
351.881	89.6
352.093	48.64
352.305	-2.56
352.517	34.3
352.728	132.61
352.94	93.69
353.152	1.54
353.363	71.17
353.575	32.26
353.787	54.78
353.999	114.17
354.21	1.54
354.422	5.63
354.633	50.69
354.845	54.78
355.057	112.13
355.268	-45.57
355.48	89.6
355.692	13.82
355.903	22.02
356.115	91.65
356.326	13.82
356.538	65.02
356.749	28.16
356.961	34.3
357.172	17.92
357.384	26.11
357.595	112.13
357.807	91.65
358.018	3.58
358.23	48.64
358.441	71.17
358.653	97.79
358.864	11.78
359.075	60.93
359.287	38.4
359.498	58.88
359.709	11.78
359.921	7.68
360.132	34.3
360.344	-4.61
360.555	24.06
360.766	52.74
360.977	-43.52
361.189	56.83
361.4	22.02
361.611	36.35
361.823	11.78
362.034	81.41
362.245	3.58
362.456	17.92
362.667	58.88
362.879	17.92
363.09	54.78
363.301	97.79
363.512	103.93
363.723	54.78
363.935	36.35
364.146	28.16
364.357	52.74
364.568	36.35
364.779	11.78
364.99	46.59
365.201	24.06
365.412	36.35
365.623	148.99
365.834	17.92
366.045	48.64
366.256	69.12
366.467	38.4
366.678	95.74
366.889	19.97
367.1	36.35
367.311	69.12
367.522	75.26
367.733	56.83
367.944	9.73
368.155	-29.18
368.366	50.69
368.577	67.07
368.788	-25.09
368.999	7.68
369.209	60.93
369.42	40.45
369.631	46.59
369.842	65.02
370.053	-20.99
370.264	-16.9
370.474	3.58
370.685	9.73
370.896	28.16
371.107	103.93
371.317	9.73
371.528	46.59
371.739	-25.09
371.95	-4.61
372.16	114.17
372.371	30.21
372.582	46.59
372.792	93.69
373.003	89.6
373.214	-14.85
373.424	60.93
373.635	9.73
373.846	52.74
374.056	40.45
374.267	105.98
374.477	5.63
374.688	11.78
374.898	54.78
375.109	22.02
375.319	105.98
375.53	40.45
375.74	-6.66
375.951	65.02
376.161	73.21
376.372	62.98
376.582	-16.9
376.793	28.16
377.003	103.93
377.214	-6.66
377.424	-23.04
377.635	7.68
377.845	32.26
378.055	1.54
378.266	15.87
378.476	54.78
378.686	34.3
378.897	91.65
379.107	36.35
379.317	81.41
379.528	19.97
379.738	81.41
379.948	40.45
380.158	-6.66
380.369	67.07
380.579	24.06
380.789	-37.38
380.999	58.88
381.21	-41.47
381.42	34.3
381.63	-8.7
381.84	17.92
382.05	24.06
382.261	50.69
382.471	75.26
382.681	75.26
382.891	40.45
383.101	24.06
383.311	32.26
383.521	40.45
383.731	-12.8
383.941	101.89
384.151	44.54
384.361	-29.18
384.571	65.02
384.781	108.03
384.991	132.61
385.201	73.21
385.411	46.59
385.621	38.4
385.831	75.26
386.041	73.21
386.251	17.92
386.461	101.89
386.671	13.82
386.881	99.84
387.091	-41.47
387.301	48.64
387.511	15.87
387.72	95.74
387.93	71.17
388.14	-0.51
388.35	67.07
388.56	75.26
388.769	-2.56
388.979	56.83
389.189	7.68
389.399	101.89
389.609	54.78
389.818	81.41
390.028	81.41
390.238	1.54
390.447	32.26
390.657	89.6
390.867	95.74
391.076	-4.61
391.286	60.93
391.496	36.35
391.705	46.59
391.915	24.06
392.125	-0.51
392.334	24.06
392.544	40.45
392.753	19.97
392.963	85.5
393.172	81.41
393.382	-25.09
393.591	75.26
393.801	58.88
394.01	138.75
394.22	67.07
394.429	73.21
394.639	22.02
394.848	183.81
395.058	42.5
395.267	38.4
395.477	77.31
395.686	87.55
395.895	40.45
396.105	75.26
396.314	85.5
396.524	40.45
396.733	79.36
396.942	93.69
397.152	9.73
397.361	118.27
397.57	65.02
397.78	130.56
397.989	128.51
398.198	75.26
398.407	60.93
398.617	110.08
398.826	34.3
399.035	42.5
399.244	-25.09
399.453	36.35
399.663	69.12
399.872	132.61
400.081	83.45
400.29	136.7
400.499	79.36
400.708	128.51
400.917	103.93
401.127	140.8
401.336	15.87
401.545	105.98
401.754	40.45
401.963	124.41
402.172	87.55
402.381	110.08
402.59	151.04
402.799	52.74
403.008	112.13
403.217	62.98
403.426	95.74
403.635	116.22
403.844	124.41
404.053	48.64
404.262	81.41
404.471	130.56
404.68	89.6
404.888	42.5
405.097	144.89
405.306	91.65
405.515	126.46
405.724	165.37
405.933	153.09
406.142	181.76
406.35	157.18
406.559	116.22
406.768	138.75
406.977	146.94
407.185	132.61
407.394	118.27
407.603	169.47
407.812	163.33
408.02	148.99
408.229	134.65
408.438	179.71
408.646	169.47
408.855	208.38
409.064	173.57
409.272	167.42
409.481	208.38
409.69	230.91
409.898	294.4
410.107	255.48
410.315	204.28
410.524	165.37
410.733	259.58
410.941	214.52
411.15	271.87
411.358	298.49
411.567	288.25
411.775	230.91
411.984	288.25
412.192	273.92
412.401	290.3
412.609	310.78
412.818	357.88
413.026	304.64
413.234	329.21
413.443	308.73
413.651	392.7
413.86	392.7
414.068	468.47
414.276	462.33
414.485	454.14
414.693	441.85
414.901	513.53
415.11	507.38
415.318	474.62
415.526	495.1
415.734	550.39
415.943	534.01
416.151	605.69
416.359	640.5
416.567	650.74
416.776	648.69
416.984	634.36
417.192	660.98
417.4	714.23
417.608	683.51
417.817	796.15
418.025	722.42
418.233	777.72
418.441	816.63
418.649	806.39
418.857	908.79
419.065	919.03
419.273	933.36
419.481	892.4
419.689	1158.64
419.897	1009.14
420.105	1002.99
420.313	1203.69
420.521	1062.38
420.729	1107.44
420.937	1101.3
421.145	1295.85
421.353	1228.27
421.561	1334.76
421.769	1398.25
421.977	1486.31
422.185	1336.81
422.393	1588.71
422.601	1703.4
422.809	1641.96
423.017	1691.11
423.224	1625.58
423.432	1918.43
423.64	1725.93
423.848	1949.15
424.056	1920.48
424.263	2039.26
424.471	2022.88
424.679	2069.98
424.887	2131.42
425.094	2262.49
425.302	2268.64
425.51	2274.78
425.718	2438.62
425.925	2256.35
426.133	2463.19
426.341	2622.94
426.548	2813.4
426.756	2758.1
426.964	2768.34
427.171	2985.43
427.379	2973.14
427.586	2979.28
427.794	3165.65
428.001	3435.98
428.209	3501.51
428.417	3442.12
428.624	3767.75
428.832	3634.63
429.039	3677.64
429.247	3771.85
429.454	4093.38
429.662	4279.74
429.869	4027.84
430.076	4396.48
430.284	4152.77
430.491	4416.96
430.699	4548.03
430.906	4500.92
431.114	4609.47
431.321	4740.54
431.528	4863.41
431.736	5219.76
431.943	5504.43
432.15	5297.58
432.358	5408.17
432.565	5545.39
432.772	5670.31
432.979	5879.21
433.187	5764.52
433.394	5979.56
433.601	6438.3
433.808	6454.69
434.016	6270.37
434.223	6641.05
434.43	7144.85
434.637	6819.22
434.844	7320.98
435.052	7327.12
435.259	7589.26
435.466	7636.36
435.673	7517.58
435.88	7951.75
436.087	8510.85
436.294	8416.64
436.501	8125.83
436.708	8410.5
436.915	8756.6
437.122	9012.6
437.329	8889.72
437.537	9463.15
437.743	9248.11
437.95	9477.49
438.157	9856.36
438.364	10057.06
438.571	10022.25
438.778	10349.92
438.985	11160.92
439.192	10573.15
439.399	11087.19
439.606	10849.63
439.813	11378
440.02	12002.63
440.227	11656.53
440.433	11545.94
440.64	12166.47
440.847	12275.01
441.054	12350.79
441.261	13086.01
441.467	13014.33
441.674	13288.76
441.881	13894.96
442.088	13522.23
442.294	13522.23
442.501	13849.9
442.708	14310.69
442.914	14705.95
443.121	15097.11
443.328	14822.69
443.534	15990.03
443.741	15473.94
443.948	15248.66
444.154	16545.03
444.361	16520.45
444.568	16700.67
444.774	16309.51
444.981	16590.08
445.187	17188.09
445.394	17808.62
445.6	17546.48
445.807	19397.85
446.013	18484.45
446.22	19033.31
446.426	19752.15
446.633	19758.29
446.839	20346.06
447.046	19580.12
447.252	20542.66
447.459	20462.79
447.665	20577.48
447.871	21337.27
448.078	22396.07
448.284	21333.18
448.491	21824.69
448.697	22772.9
448.903	23268.51
449.11	23286.94
449.316	22983.84
449.522	23299.23
449.728	23561.37
449.935	23962.77
450.141	23944.34
450.347	24327.31
450.553	23583.9
450.76	23966.87
450.966	24992.9
451.172	24386.7
451.378	25025.67
451.584	24468.62
451.791	24816.77
451.997	24867.97
452.203	25566.33
452.409	25551.99
452.615	25177.22
452.821	24212.62
453.027	24091.79
453.233	25242.75
453.44	24372.36
453.646	24366.22
453.852	24636.55
454.058	24935.56
454.264	24401.04
454.47	24781.96
454.676	23917.72
454.882	24849.54
455.088	22709.41
455.294	23035.04
455.5	23295.13
455.705	23411.87
455.911	22502.57
456.117	22189.23
456.323	21937.33
456.529	20778.18
456.735	21511.35
456.941	21120.19
457.147	20509.9
457.352	19868.88
457.558	19813.59
457.764	19827.92
457.97	19717.33
458.176	19254.49
458.381	19162.33
458.587	17915.12
458.793	18095.34
458.999	17210.62
459.204	18502.89
459.41	17884.4
459.616	16628.99
459.821	16577.8
460.027	16553.22
460.233	16436.49
460.438	15496.47
460.644	16026.89
460.85	15097.11
461.055	14685.47
461.261	14632.22
461.466	13493.55
461.672	13339.96
461.878	14413.09
462.083	13294.9
462.289	13086.01
462.494	12864.83
462.7	12444.99
462.905	11740.49
463.111	12444.99
463.316	12373.32
463.522	12111.18
463.727	12100.94
463.932	12172.61
464.138	11984.2
464.343	11937.1
464.549	12002.63
464.754	12168.52
464.959	12096.84
465.165	11992.39
465.37	11478.35
465.575	11353.43
465.781	11586.9
465.986	11580.75
466.191	11316.56
466.397	11289.94
466.602	10663.26
466.807	11253.08
467.012	11128.15
467.218	10909.02
467.423	10771.8
467.628	10732.89
467.833	11371.86
468.038	10966.36
468.244	10734.94
468.449	11066.71
468.654	10724.7
468.859	10587.49
469.064	10661.21
469.269	10161.51
469.474	10468.7
469.679	10384.74
469.885	10171.75
470.09	10458.46
470.295	10055.01
470.5	10106.21
470.705	10222.95
470.91	9751.92
471.115	9727.34
471.32	9850.22
471.525	9551.21
471.73	9573.74
471.935	9565.55
472.139	9166.2
472.344	9182.58
472.549	9192.82
472.754	9176.44
472.959	8924.54
473.164	8711.55
473.369	8512.89
473.574	8983.93
473.778	8842.62
473.983	8709.5
474.188	8672.64
474.393	8234.37
474.598	8418.69
474.802	8342.91
475.007	8455.55
475.212	8134.02
475.417	7871.88
475.621	7826.82
475.826	8000.9
476.031	7826.82
476.235	7601.55
476.44	7816.58
476.645	7581.07
476.849	7595.4
477.054	7630.22
477.259	7392.66
477.463	7458.19
477.668	7194
477.872	7212.43
478.077	7175.57
478.282	7177.62
478.486	7105.94
478.691	7181.71
478.895	6761.88
479.1	6921.62
479.304	6817.18
479.509	6917.53
479.713	6993.3
479.918	6688.15
480.122	6669.72
480.326	6612.38
480.531	6735.26
480.735	6622.62
480.94	6397.34
481.144	6866.33
481.348	6376.86
481.553	6651.29
481.757	6383.01
481.961	6471.07
482.166	6612.38
482.37	6430.11
482.574	6366.62
482.778	6518.17
482.983	6741.4
483.187	6489.5
483.391	6524.32
483.595	6532.51
483.8	6407.58
484.004	6444.45
484.208	6528.41
484.412	6378.91
484.616	6313.38
484.821	6509.98
485.025	6432.16
485.229	6491.55
485.433	6249.89
485.637	6346.14
485.841	6471.07
486.045	6256.03
486.249	6321.57
486.453	6536.6
486.657	6389.15
486.861	6624.67
487.065	6372.77
487.269	6344.1
487.473	6315.42
487.677	6288.8
487.881	6466.97
488.085	6276.51
488.289	6528.41
488.493	6487.45
488.697	6587.8
488.901	6417.82
489.105	6497.69
489.309	6485.41
489.512	6593.95
489.716	6544.8
489.92	6487.45
490.124	6409.63
490.328	6696.35
490.531	6458.78
490.735	6606.24
490.939	6737.31
491.143	6739.35
491.346	6501.79
491.55	6849.94
491.754	6942.1
491.958	6796.7
492.161	6755.74
492.365	6817.18
492.569	6917.53
492.772	6813.08
492.976	6888.85
493.18	7024.02
493.383	7042.45
493.587	6950.29
493.79	7015.83
493.994	7024.02
494.197	7028.12
494.401	7126.42
494.605	7171.47
494.808	7333.26
495.012	7304.59
495.215	7462.29
495.419	7607.69
495.622	7366.03
495.825	7622.03
496.029	7644.56
496.232	7759.24
496.436	7947.65
496.639	7779.72
496.843	7884.17
497.046	7970.18
497.249	8029.57
497.453	8107.4
497.656	8142.21
497.859	8295.81
498.063	8265.09
498.266	8428.93
498.469	8572.29
498.673	8514.94
498.876	8803.71
499.079	8824.19
499.282	8826.23
499.485	8990.07
499.689	8822.14
499.892	9080.18
500.095	9137.52
500.298	9379.18
500.501	9348.47
500.705	9551.21
500.908	9774.44
501.111	9923.94
501.314	9782.63
501.517	10048.87
501.72	10059.11
501.923	10040.68
502.126	10452.32
502.329	10515.81
502.532	10653.02
502.735	10861.91
502.938	10919.26
503.141	11093.33
503.344	10913.11
503.547	11187.54
503.75	11238.74
503.953	11429.2
504.156	11611.47
504.359	11638.09
504.562	11836.75
504.765	11892.04
504.968	11984.2
505.17	12365.12
505.373	12094.79
505.576	12612.93
505.779	12684.61
505.982	13014.33
506.185	13258.04
506.387	13206.84
506.59	13012.28
506.793	13270.33
506.996	13479.22
507.198	13903.15
507.401	13792.56
507.604	14032.17
507.807	14249.25
508.009	14265.64
508.212	14376.23
508.415	14613.79
508.617	14851.36
508.82	14849.31
509.022	14849.31
509.225	15217.94
509.428	15537.43
509.63	15553.81
509.833	15731.98
510.035	16096.52
510.238	15967.5
510.44	15953.16
510.643	16729.34
510.845	16354.57
511.048	16479.49
511.25	16710.91
511.453	16907.52
511.655	17847.54
511.858	17401.08
512.06	17544.44
512.262	17675.51
512.465	17587.44
512.667	18183.4
512.87	18259.18
513.072	18447.59
513.274	18793.7
513.477	18855.14
513.679	19111.13
513.881	19549.4
514.084	19588.31
514.286	19573.97
514.488	19557.59
514.69	20333.77
514.893	20376.78
515.095	20442.31
515.297	20649.16
515.499	20985.02
515.701	21073.09
515.904	21040.32
516.106	21599.41
516.308	21439.67
516.51	21937.33
516.712	21953.71
516.914	22189.23
517.116	22422.7
517.318	22598.82
517.52	22815.91
517.722	22867.11
517.925	23395.48
518.127	23508.12
518.329	23870.61
518.531	23733.4
518.733	24487.05
518.935	24605.83
519.136	24618.12
519.338	24841.35
519.54	24958.08
519.742	25302.14
519.944	25570.43
520.146	25869.43
520.348	25824.37
520.55	26203.25
520.752	26184.82
520.954	26745.96
521.155	26522.73
521.357	26901.61
521.559	27102.31
521.761	27393.12
521.963	27380.83
522.164	27665.5
522.366	27917.4
522.568	27970.65
522.77	28429.39
522.971	28925
523.173	28636.24
523.375	28974.15
523.576	28873.8
523.778	28769.35
523.98	29389.89
524.181	29244.48
524.383	29506.62
524.584	30237.75
524.786	29785.15
524.988	29811.77
525.189	30503.98
525.391	30286.9
525.592	30714.92
525.794	30782.51
525.995	30923.82
526.197	30911.53
526.398	30964.78
526.6	31462.43
526.801	31231.01
527.003	31400.99
527.204	31839.26
527.406	31861.79
527.607	31634.46
527.808	31747.1
528.01	31474.72
528.211	31964.18
528.412	32623.63
528.614	32328.72
528.815	32308.24
529.016	32842.76
529.218	32558.1
529.419	32533.52
529.62	32742.41
529.822	32916.49
530.023	32791.56
530.224	32625.68
530.425	32967.69
530.626	32711.69
530.828	32535.57
531.029	33491.97
531.23	33022.98
531.431	33289.22
531.632	33115.14
531.833	33309.7
532.035	33510.4
532.236	33219.59
532.437	33590.27
532.638	33446.91
532.839	33276.93
533.04	33575.94
533.241	33461.25
533.442	33696.77
533.643	33952.76
533.844	33661.95
534.045	33664
534.246	33233.92
534.447	33778.68
534.648	33391.62
534.849	33874.94
535.05	33545.22
535.251	33692.67
535.451	33453.06
535.652	33846.27
535.853	33623.04
536.054	34024.44
536.255	33788.92
536.456	33471.49
536.657	34126.84
536.857	33938.43
537.058	34110.46
537.259	33688.57
537.46	33756.16
537.66	33743.87
537.861	34147.32
538.062	33797.12
538.263	33831.93
538.463	33946.62
538.664	34104.31
538.865	33745.92
539.065	34008.06
539.266	33475.59
539.466	34180.09
539.667	33328.13
539.868	34284.53
540.068	33963
540.269	33561.6
540.469	33813.5
540.67	34051.06
540.87	33707.01
541.071	33917.95
541.271	33981.43
541.472	34128.89
541.672	33571.84
541.873	33913.85
542.073	33659.9
542.274	33944.57
542.474	34126.84
542.675	33463.3
542.875	34348.02
543.075	33893.37
543.276	33553.41
543.476	34077.69
543.676	33741.82
543.877	34022.39
544.077	33801.21
544.277	33657.85
544.478	33831.93
544.678	34159.61
544.878	34038.78
545.078	33995.77
545.279	33797.12
545.479	33913.85
545.679	33434.63
545.879	34178.04
546.079	33850.36
546.28	33496.06
546.48	33516.54
546.68	33922.04
546.88	34010.11
547.08	33532.93
547.28	34020.34
547.48	33487.87
547.68	33684.48
547.88	33821.69
548.081	33836.03
548.281	33426.43
548.481	33432.58
548.681	33772.54
548.881	33690.62
549.081	33653.76
549.28	33700.86
549.48	33913.85
549.68	33836.03
549.88	34079.74
550.08	33541.12
550.28	33575.94
550.48	33604.61
550.68	33924.09
550.88	33831.93
551.08	33688.57
551.279	33770.49
551.479	33166.34
551.679	34108.41
551.879	33688.57
552.079	33840.12
552.278	33721.34
552.478	33725.44
552.678	33653.76
552.878	33795.07
553.077	33715.2
553.277	33106.95
553.477	34018.3
553.676	33588.22
553.876	33494.02
554.076	32920.59
554.275	33741.82
554.475	33215.49
554.674	33592.32
554.874	33790.97
555.074	33678.33
555.273	33399.81
555.473	33653.76
555.672	33143.81
555.872	33088.52
556.071	33772.54
556.271	33629.18
556.47	33321.99
556.67	32799.76
556.869	33149.96
557.068	33481.73
557.268	33016.84
557.467	33133.57
557.667	33373.19
557.866	32840.71
558.065	32723.98
558.265	32717.84
558.464	32607.25
558.663	32949.26
558.863	32623.63
559.062	33137.67
559.261	32603.15
559.461	32695.31
559.66	32683.02
559.859	32496.66
560.058	32797.71
560.258	32537.62
560.457	32351.25
560.656	32687.12
560.855	32494.61
561.054	32334.87
561.253	31747.1
561.453	32556.05
561.652	32408.59
561.851	32490.51
562.05	32097.3
562.249	31927.32
562.448	32427.03
562.647	32115.73
562.846	31892.51
563.045	32437.27
563.244	31661.08
563.443	31880.22
563.642	31331.36
563.841	31962.14
564.04	31685.66
564.239	32365.59
564.438	31562.78
564.637	31568.93
564.836	31941.66
565.035	31175.72
565.234	31341.6
565.432	31140.9
565.631	31546.4
565.83	31319.07
566.029	31190.05
566.228	31190.05
566.427	30972.97
566.625	30649.39
566.824	30579.76
567.023	31214.63
567.222	30336.05
567.42	31278.11
567.619	30905.38
567.818	30958.63
568.016	30829.61
568.215	30954.54
568.414	30546.99
568.612	31181.86
568.811	30684.2
569.01	30313.52
569.208	30430.26
569.407	30573.61
569.605	30032.95
569.804	30415.92
570.002	29899.83
570.201	30166.07
570.4	29623.36
570.598	29930.55
570.797	30018.61
570.995	29973.56
571.193	29187.14
571.392	30016.57
571.59	29291.59
571.789	29447.23
571.987	29338.69
572.186	29205.57
572.384	28974.15
572.582	29406.27
572.781	29035.59
572.979	28777.54
573.177	29066.31
573.376	29144.13
573.574	28558.41
573.772	28656.71
573.971	28726.35
574.169	28392.53
574.367	28572.75
574.565	28617.8
574.763	28468.3
574.962	28361.81
575.16	27903.06
575.358	28296.27
575.556	27970.65
575.754	28316.75
575.952	27788.38
576.151	28251.22
576.349	27821.14
576.547	27694.17
576.745	28011.6
576.943	27497.56
577.141	27591.77
577.339	27978.84
577.537	27499.61
577.735	27497.56
577.933	27280.48
578.131	27124.83
578.329	27249.76
578.527	26954.85
578.725	27223.14
578.923	27063.4
579.121	26721.38
579.319	26805.35
579.516	26897.51
579.714	26797.16
579.912	26342.51
580.11	26444.91
580.308	26502.25
580.506	26215.54
580.704	25967.73
580.901	26563.69
581.099	26262.64
581.297	26145.91
581.495	25982.07
581.692	26154.1
581.89	25781.37
582.088	26453.1
582.285	25836.66
582.483	25707.64
582.681	25652.34
582.878	25498.75
583.076	25511.03
583.274	25781.37
583.471	25181.31
583.669	25435.26
583.866	25128.06
584.064	25371.77
584.262	25097.35
584.459	24978.56
584.657	24812.68
584.854	24702.09
585.052	24603.78
585.249	25074.82
585.447	24609.93
585.644	24544.39
585.841	24726.66
586.039	24738.95
586.236	24425.61
586.434	24249.49
586.631	24169.62
586.828	24302.73
587.026	24280.21
587.223	24286.35
587.42	24169.62
587.618	23897.24
587.815	23729.3
588.012	23741.59
588.21	23989.39
588.407	23887
588.604	23448.73
588.801	23538.84
588.999	23450.78
589.196	23295.13
589.393	23375
589.59	23237.79
589.787	23434.39
589.984	23051.42
590.182	23047.33
590.379	23299.23
590.576	22742.18
590.773	22756.52
590.97	22635.69
591.167	23121.06
591.364	22715.56
591.561	22789.28
591.758	22674.6
591.955	22764.71
592.152	22590.63
592.349	22410.41
592.546	22469.8
592.743	22256.81
592.94	21990.58
593.137	22209.71
593.334	22371.5
593.531	22183.09
593.727	21869.75
593.924	21951.67
594.121	21732.53
594.318	21804.21
594.515	21527.74
594.712	21789.88
594.908	21867.7
595.105	21785.78
595.302	21529.78
595.499	21523.64
595.696	21447.86
595.892	21107.9
596.089	21376.19
596.286	21243.07
596.482	21382.33
596.679	21204.16
596.876	21222.59
597.072	20806.85
597.269	21132.48
597.466	20798.66
597.662	20868.29
597.859	20698.31
598.055	21021.89
598.252	20569.29
598.448	20563.14
598.645	20751.56
598.841	20337.87
599.038	20796.61
599.234	20321.48
599.431	20331.72
599.627	20264.14
599.824	20020.43
600.02	20016.33
600.217	20020.43
600.413	20049.1
600.609	19834.07
600.806	19883.22
601.002	20004.05
601.198	19516.63
601.395	19571.93
601.591	19682.52
601.787	19725.52
601.984	19766.48
602.18	19801.3
602.376	19373.27
602.572	19336.41
602.769	19293.4
602.965	19143.9
603.161	19236.06
603.357	19057.89
603.553	19338.46
603.75	18861.28
603.946	19051.74
604.142	18898.14
604.338	18679.01
604.534	18648.29
604.73	18504.93
604.926	18545.89
605.122	18750.69
605.318	18547.94
605.514	18445.54
605.71	18275.56
605.906	18281.71
606.102	18250.99
606.298	18412.78
606.494	18154.73
606.69	18132.2
606.886	18267.37
607.082	18136.3
607.278	18013.42
607.474	17825.01
607.67	17876.21
607.866	17706.23
608.062	18007.28
608.257	17659.12
608.453	17474.81
608.649	17863.92
608.845	17521.91
609.041	17669.36
609.236	17638.64
609.432	17339.64
609.628	17708.27
609.824	17444.09
610.019	17030.4
610.215	17339.64
610.411	17366.26
610.606	17040.64
610.802	17378.55
610.998	17011.96
611.193	17145.08
611.389	17005.82
611.584	16915.71
611.78	16753.92
611.976	16721.15
612.171	16766.21
612.367	16854.27
612.562	16770.3
612.758	16618.75
612.953	16596.23
613.149	16874.75
613.344	16506.12
613.539	16819.46
613.735	16581.89
613.93	16590.08
614.126	16590.08
614.321	16561.41
614.517	16295.18
614.712	16493.83
614.907	16129.29
615.103	16438.53
615.298	16344.33
615.493	16436.49
615.688	16104.71
615.884	16477.44
616.079	16137.48
616.274	15994.12
616.47	16117
616.665	16176.39
616.86	15828.24
617.055	15680.78
617.25	16117
617.445	15813.9
617.641	15734.03
617.836	15875.34
618.031	15543.57
618.226	15795.47
618.421	15777.04
618.616	15697.17
618.811	15371.54
619.006	15609.11
619.201	15269.14
619.396	15408.4
619.591	15095.07
619.786	15146.26
619.981	14978.33
620.176	15154.46
620.371	14996.76
620.566	14943.52
620.761	14959.9
620.956	14943.52
621.151	14619.94
621.346	14886.17
621.541	14566.69
621.735	14753.05
621.93	14466.34
622.125	14458.15
622.32	14220.58
622.515	14345.51
622.709	14122.28
622.904	14548.26
623.099	13817.13
623.294	14069.03
623.488	13548.85
623.683	13948.2
623.878	13589.81
624.072	13835.56
624.267	13794.61
624.462	13540.66
624.656	13468.98
624.851	13483.31
625.046	13174.07
625.24	13284.66
625.435	13157.69
625.629	13258.04
625.824	13024.57
626.018	13061.43
626.213	12582.21
626.407	12999.99
626.602	12899.64
626.796	12744
626.991	12703.04
627.185	12684.61
627.38	12606.78
627.574	12189
627.768	12477.76
627.963	12258.63
628.157	11965.77
628.352	12416.32
628.546	12019.02
628.74	12201.29
628.935	11953.48
629.129	11935.05
629.323	11795.79
629.517	11720.01
629.712	11812.17
629.906	11566.42
630.1	11468.11
630.294	11724.11
630.489	11615.57
630.683	11631.95
630.877	11300.18
631.071	11148.63
631.265	11265.36
631.459	11185.49
631.653	11212.12
631.848	11359.57
632.042	11064.66
632.236	10999.13
632.43	10997.08
632.624	10782.04
632.818	10958.17
633.012	10704.22
633.206	10911.07
633.4	10632.54
633.594	10614.11
633.788	10577.25
633.982	10503.52
634.176	10544.48
634.369	10452.32
634.563	10550.62
634.757	10354.02
634.951	10368.35
635.145	10200.42
635.339	10184.04
635.533	10181.99
635.726	10265.96
635.92	10042.73
636.114	10036.58
636.308	9903.46
636.501	9655.66
636.695	9835.88
636.889	10038.63
637.083	9551.21
637.276	9616.75
637.47	9665.9
637.664	9657.71
637.857	9608.56
638.051	9526.64
638.244	9573.74
638.438	9434.48
638.632	9119.09
638.825	9160.05
639.019	9094.52
639.212	8912.25
639.406	9033.08
639.599	9108.85
639.793	9053.56
639.986	8928.63
640.18	8889.72
640.373	8805.75
640.567	8764.79
640.76	8564.09
640.954	8586.62
641.147	8617.34
641.34	8506.75
641.534	8553.85
641.727	8430.98
641.92	8568.19
642.114	8301.95
642.307	8392.06
642.5	8363.39
642.694	8326.53
642.887	8248.71
643.08	8091.01
643.273	8078.72
643.467	8088.96
643.66	8002.95
643.853	7746.95
644.046	7998.85
644.239	7880.07
644.432	7873.93
644.626	7806.34
644.819	7720.33
645.012	7894.41
645.205	7800.2
645.398	7937.41
645.591	7626.12
645.784	7556.49
645.977	7538.06
646.17	7527.82
646.363	7406.99
646.556	7366.03
646.749	7374.22
646.942	7255.44
647.135	7247.25
647.328	7298.45
647.521	7169.43
647.714	7091.6
647.907	7173.52
648.099	7003.54
648.292	6999.45
648.485	7105.94
648.678	6976.92
648.871	6882.71
649.064	6895
649.256	6753.69
649.449	6821.27
649.642	6782.36
649.835	6899.09
650.027	6639
650.22	6526.36
650.413	6671.77
650.605	6602.14
650.798	6518.17
650.991	6389.15
651.183	6493.6
651.376	6411.68
651.568	6450.59
651.761	6309.28
651.954	6278.56
652.146	6247.84
652.339	6309.28
652.531	6372.77
652.724	6235.55
652.916	6032.8
653.109	6253.98
653.301	6049.19
653.494	6186.4
653.686	5957.03
653.879	5987.75
654.071	5885.35
654.263	5871.01
654.456	5793.19
654.648	5995.94
654.84	5662.12
655.033	5957.03
655.225	5875.11
655.417	5651.88
655.61	5664.17
655.802	5617.07
655.994	5623.21
656.186	5524.91
656.379	5610.92
656.571	5512.62
656.763	5588.39
656.955	5438.89
657.148	5486
657.34	5412.27
657.532	5459.37
657.724	5414.32
657.916	5154.23
658.108	5215.66
658.3	5242.29
658.492	5195.18
658.684	5234.1
658.876	5057.97
659.068	5205.42
659.26	4984.24
659.452	5012.92
659.644	5115.31
659.836	4949.43
660.028	5111.22
660.22	4887.99
660.412	5045.68
660.604	4935.09
660.796	4947.38
660.988	4902.33
661.18	4783.54
661.372	4709.82
661.563	4793.78
661.755	4644.28
661.947	4627.9
662.139	4525.5
662.331	4623.8
662.522	4783.54
662.714	4636.09
662.906	4445.63
663.097	4451.77
663.289	4490.68
663.481	4488.64
663.673	4384.19
663.864	4349.37
664.056	4400.57
664.247	4320.7
664.439	4423.1
664.631	4429.24
664.822	4195.78
665.014	4384.19
665.205	4212.16
665.397	4210.11
665.588	4244.93
665.78	4273.6
665.971	4154.82
666.163	4218.3
666.354	4079.04
666.546	4025.79
666.737	4083.14
666.929	4033.99
667.12	3935.68
667.311	3919.3
667.503	3956.16
667.694	3866.05
667.885	3939.78
668.077	4019.65
668.268	3870.15
668.459	3982.79
668.651	3909.06
668.842	3855.81
669.033	3808.71
669.224	3691.98
669.416	3857.86
669.607	3689.93
669.798	3757.51
669.989	3800.52
670.18	3653.06
670.371	3665.35
670.563	3675.59
670.754	3833.29
670.945	3794.37
671.136	3777.99
671.327	3530.19
671.518	3501.51
671.709	3646.92
671.9	3597.77
672.091	3567.05
672.282	3634.63
672.473	3390.92
672.664	3458.51
672.855	3438.03
673.046	3327.44
673.237	3560.91
673.428	3452.36
673.619	3413.45
673.809	3358.16
674	3251.66
674.191	3204.56
674.382	3292.62
674.573	3352.01
674.764	3292.62
674.954	3407.31
675.145	3225.04
675.336	3399.12
675.527	3206.61
675.717	3222.99
675.908	3186.13
676.099	3235.28
676.289	3186.13
676.48	3159.5
676.671	3073.49
676.861	3212.75
677.052	3106.26
677.243	3188.18
677.433	3153.36
677.624	3081.68
677.814	3220.94
678.005	3042.77
678.195	3098.06
678.386	3089.87
678.576	3081.68
678.767	3073.49
678.957	3014.1
679.148	3020.24
679.338	3036.63
679.529	2993.62
679.719	3044.82
679.909	2956.75
680.1	3061.2
680.29	2999.76
680.481	2966.99
680.671	2936.28
680.861	2958.8
681.052	2891.22
681.242	3048.91
681.432	2993.62
681.622	2833.88
681.813	2903.51
682.003	2801.11
682.193	2737.62
682.383	2823.64
682.573	2852.31
682.764	2891.22
682.954	2913.75
683.144	2891.22
683.334	2827.73
683.524	2809.3
683.714	2999.76
683.904	2731.48
684.094	2672.09
684.284	2686.42
684.474	2797.01
684.664	2786.77
684.854	2694.61
685.044	2690.52
685.234	2684.38
685.424	2647.51
685.614	2725.33
685.804	2670.04
685.994	2635.22
686.184	2674.14
686.374	2657.75
686.564	2639.32
686.753	2729.43
686.943	2657.75
687.133	2612.7
687.323	2514.39
687.513	2543.07
687.702	2590.17
687.892	2588.12
688.082	2489.82
688.272	2594.26
688.461	2514.39
688.651	2584.02
688.841	2604.5
689.03	2395.61
689.22	2622.94
689.41	2588.12
689.599	2393.56
689.789	2403.8
689.979	2465.24
690.168	2487.77
690.358	2543.07
690.547	2321.88
690.737	2498.01
690.926	2475.48
691.116	2313.69
691.305	2440.67
691.495	2483.67
691.684	2500.06
691.874	2467.29
692.063	2387.42
692.252	2436.57
692.442	2487.77
692.631	2391.52
692.82	2258.4
693.01	2360.8
693.199	2465.24
693.388	2319.84
693.578	2393.56
693.767	2303.45
693.956	2383.32
694.146	2377.18
694.335	2344.41
694.524	2375.13
694.713	2270.69
694.902	2319.84
695.092	2301.4
695.281	2258.4
695.47	2375.13
695.659	2309.6
695.848	2291.17
696.037	2383.32
696.226	2338.27
696.415	2309.6
696.604	2342.36
696.793	2432.47
696.982	2325.98
697.171	2366.94
697.36	2328.03
697.549	2307.55
697.738	2307.55
697.927	2176.48
698.116	2270.69
698.305	2252.25
698.494	2252.25
698.683	2360.8
698.872	2313.69
699.061	2266.59
699.25	2151.9
699.438	2248.16
699.627	2205.15
699.816	2227.68
700.005	2295.26
700.193	2166.24
700.382	2321.88
700.571	2162.14
700.76	2309.6
700.948	2248.16
701.137	2192.86
701.326	2186.72
701.514	2145.76
701.703	2219.49
701.892	2135.52
702.08	2244.06
702.269	2211.29
702.457	2069.98
702.646	2258.4
702.834	2158.05
703.023	2166.24
703.212	2125.28
703.4	2174.43
703.589	2153.95
703.777	2225.63
703.965	2069.98
704.154	2166.24
704.342	2106.85
704.531	2104.8
704.719	2072.03
704.907	2217.44
705.096	2063.84
705.284	2119.14
705.472	2072.03
705.661	2024.93
705.849	2151.9
706.037	2149.86
706.226	2010.59
706.414	2092.51
706.602	2069.98
706.79	2000.35
706.979	1983.97
707.167	2004.45
707.355	2033.12
707.543	2045.41
707.731	1994.21
707.919	1983.97
708.107	1990.11
708.296	2080.22
708.484	2049.5
708.672	1916.39
708.86	2076.13
709.048	1947.11
709.236	2006.5
709.424	1957.35
709.612	1943.01
709.8	1959.39
709.988	1850.85
710.176	1904.1
710.364	1879.52
710.551	1902.05
710.739	1887.72
710.927	1865.19
711.115	1920.48
711.303	1830.37
711.491	1893.86
711.679	1848.8
711.866	1926.63
712.054	1908.19
712.242	1836.52
712.43	1842.66
712.617	1850.85
712.805	1854.95
712.993	1832.42
713.181	1840.61
713.368	1654.25
713.556	1904.1
713.744	1723.88
713.931	1789.41
714.119	1777.12
714.306	1766.89
714.494	1752.55
714.682	1805.8
714.869	1750.5
715.057	1730.02
715.244	1752.55
715.432	1709.54
715.619	1703.4
715.807	1699.3
715.994	1699.3
716.182	1705.45
716.369	1603.05
716.556	1750.5
716.744	1787.36
716.931	1738.21
717.119	1637.86
717.306	1639.91
717.493	1609.19
717.681	1633.77
717.868	1760.74
718.055	1727.97
718.242	1648.1
718.43	1596.9
718.617	1560.04
718.804	1500.65
718.991	1539.56
719.179	1617.38
719.366	1490.41
719.553	1666.53
719.74	1578.47
719.927	1549.8
720.114	1609.19
720.301	1562.09
720.488	1529.32
720.676	1498.6
720.863	1484.27
721.05	1539.56
721.237	1474.03
721.424	1506.79
721.611	1457.64
721.798	1576.42
721.985	1517.03
722.172	1428.97
722.358	1484.27
722.545	1369.58
722.732	1480.17
722.919	1363.44
723.106	1439.21
723.293	1408.49
723.48	1426.92
723.667	1353.2
723.853	1408.49
724.04	1431.02
724.227	1482.22
724.414	1265.13
724.6	1394.15
724.787	1379.82
724.974	1375.72
725.161	1334.76
725.347	1373.68
725.534	1414.63
725.72	1379.82
725.907	1265.13
726.094	1400.3
726.28	1375.72
726.467	1375.72
726.653	1336.81
726.84	1320.43
727.027	1424.87
727.213	1328.62
727.4	1273.32
727.586	1433.07
727.773	1318.38
727.959	1363.44
728.145	1306.09
728.332	1320.43
728.518	1215.98
728.705	1302
728.891	1220.08
729.077	1228.27
729.264	1172.97
729.45	1291.76
729.636	1289.71
729.823	1328.62
730.009	1267.18
730.195	1144.3
730.382	1254.89
730.568	1228.27
730.754	1232.37
730.94	1230.32
731.126	1220.08
731.313	1304.04
731.499	1228.27
731.685	1273.32
731.871	1148.4
732.057	1164.78
732.243	1203.69
732.429	1271.28
732.615	1277.42
732.801	1117.68
732.987	1205.74
733.173	1189.36
733.359	1193.45
733.545	1191.41
733.731	1134.06
733.917	1183.21
734.103	1177.07
734.289	1246.7
734.475	1207.79
734.661	1195.5
734.847	1197.55
735.033	1093.1
735.219	1115.63
735.404	1080.82
735.59	1127.92
735.776	1093.1
735.962	1091.06
736.148	1164.78
736.333	1080.82
736.519	1060.34
736.705	1101.3
736.89	1056.24
737.076	1066.48
737.262	1127.92
737.447	1097.2
737.633	1035.76
737.819	1080.82
738.004	1023.47
738.19	1099.25
738.375	1115.63
738.561	1084.91
738.747	1068.53
738.932	1117.68
739.118	1037.81
739.303	1103.34
739.489	1076.72
739.674	1107.44
739.859	1060.34
740.045	1043.95
740.23	986.61
740.416	976.37
740.601	1025.52
740.786	1074.67
740.972	1007.09
741.157	943.6
741.342	964.08
741.528	1000.94
741.713	1041.9
741.898	1060.34
742.084	970.23
742.269	964.08
742.454	910.83
742.639	896.5
742.824	964.08
743.01	962.03
743.195	904.69
743.38	980.47
743.565	908.79
743.75	908.79
743.935	933.36
744.12	982.51
744.305	962.03
744.49	898.55
744.675	863.73
744.86	896.5
745.045	906.74
745.23	957.94
745.415	824.82
745.6	884.21
745.785	855.54
745.97	763.38
746.155	787.96
746.34	941.55
746.525	779.76
746.71	861.68
746.895	806.39
747.079	769.52
747.264	839.16
747.449	769.52
747.634	804.34
747.819	871.92
748.003	841.2
748.188	771.57
748.373	769.52
748.557	783.86
748.742	859.63
748.927	744.95
749.111	785.91
749.296	706.04
749.481	763.38
749.665	712.18
749.85	751.09
750.034	806.39
750.219	703.99
750.404	714.23
750.588	712.18
750.773	740.85
750.957	695.8
751.141	749.04
751.326	753.14
751.51	792.05
751.695	740.85
751.879	658.93
752.064	785.91
752.248	691.7
752.432	656.89
752.617	652.79
752.801	781.81
752.985	712.18
753.17	693.75
753.354	671.22
753.538	636.41
753.722	675.32
753.907	730.61
754.091	634.36
754.275	720.37
754.459	583.16
754.643	597.49
754.828	640.5
755.012	648.69
755.196	656.89
755.38	624.12
755.564	550.39
755.748	654.84
755.932	747
756.116	613.88
756.3	648.69
756.484	640.5
756.668	703.99
756.852	620.02
757.036	646.65
757.22	507.38
757.404	556.54
757.588	556.54
757.772	501.24
757.956	589.3
758.14	632.31
758.323	579.06
758.507	554.49
758.691	517.62
758.875	566.78
759.059	597.49
759.242	570.87
759.426	642.55
759.61	513.53
759.794	554.49
759.977	542.2
760.161	572.92
760.345	552.44
760.528	523.77
760.712	581.11
760.895	548.34
761.079	542.2
761.263	513.53
761.446	589.3
761.63	476.66
761.813	597.49
761.997	552.44
762.18	517.62
762.364	525.82
762.547	464.38
762.731	417.27
762.914	458.23
763.098	462.33
763.281	517.62
763.464	472.57
763.648	511.48
763.831	460.28
764.015	484.86
764.198	529.91
764.381	501.24
764.564	517.62
764.748	509.43
764.931	519.67
765.114	507.38
765.297	482.81
765.481	505.34
765.664	474.62
765.847	435.71
766.03	386.55
766.213	491
766.397	409.08
766.58	456.19
766.763	423.42
766.946	495.1
767.129	433.66
767.312	468.47
767.495	404.99
767.678	441.85
767.861	493.05
768.044	468.47
768.227	484.86
768.41	433.66
768.593	435.71
768.776	384.51
768.959	433.66
769.142	495.1
769.324	400.89
769.507	431.61
769.69	415.23
769.873	415.23
770.056	505.34
770.239	343.55
770.421	443.9
770.604	394.75
770.787	417.27
770.97	359.93
771.152	450.04
771.335	429.56
771.518	372.22
771.7	458.23
771.883	486.9
772.066	431.61
772.248	390.65
772.431	409.08
772.613	370.17
772.796	431.61
772.978	413.18
773.161	484.86
773.343	429.56
773.526	370.17
773.708	343.55
773.891	437.75
774.073	300.54
774.256	376.31
774.438	345.59
774.621	388.6
774.803	361.98
774.985	339.45
775.168	384.51
775.35	378.36
775.532	411.13
775.715	417.27
775.897	368.12
776.079	310.78
776.261	318.97
776.444	376.31
776.626	378.36
776.808	392.7
776.99	316.92
777.173	321.02
777.355	343.55
777.537	327.16
777.719	384.51
777.901	417.27
778.083	318.97
778.265	308.73
778.447	304.64
778.629	296.44
778.811	370.17
778.993	347.64
779.175	364.03
779.357	253.44
779.539	329.21
779.721	280.06
779.903	323.07
780.085	337.4
780.267	232.96
780.449	296.44
780.631	282.11
780.812	278.01
780.994	282.11
781.176	294.4
781.358	280.06
781.54	310.78
781.721	353.79
781.903	304.64
782.085	230.91
782.267	329.21
782.448	294.4
782.63	280.06
782.812	302.59
782.993	261.63
783.175	361.98
783.357	235
783.538	380.41
783.72	288.25
783.901	314.88
784.083	192
784.264	255.48
784.446	230.91
784.627	249.34
784.809	286.2
784.99	220.67
785.172	257.53
785.353	187.9
785.535	226.81
785.716	232.96
785.897	212.48
786.079	282.11
786.26	261.63
786.441	230.91
786.623	183.81
786.804	173.57
786.985	157.18
787.167	263.68
787.348	159.23
787.529	263.68
787.71	286.2
787.891	245.24
788.073	265.72
788.254	171.52
788.435	212.48
788.616	200.19
788.797	122.37
788.978	206.33
789.159	251.39
789.34	200.19
789.522	124.41
789.703	214.52
789.884	204.28
790.065	278.01
790.246	169.47
790.427	185.85
790.607	261.63
790.788	282.11
790.969	171.52
791.15	167.42
791.331	153.09
791.512	237.05
791.693	210.43
791.874	192
792.054	257.53
792.235	116.22
792.416	251.39
792.597	134.65
792.778	132.61
792.958	173.57
793.139	165.37
793.32	142.85
793.5	77.31
793.681	194.05
793.862	179.71
794.042	134.65
794.223	138.75
794.404	155.13
794.584	230.91
794.765	134.65
794.945	181.76
795.126	196.09
795.306	157.18
795.487	161.28
795.667	112.13
795.848	146.94
796.028	192
796.209	116.22
796.389	198.14
796.57	208.38
796.75	79.36
796.93	173.57
797.111	144.89
797.291	159.23
797.471	126.46
797.652	157.18
797.832	101.89
798.012	183.81
798.192	114.17
798.373	110.08
798.553	151.04
798.733	157.18
798.913	181.76
799.093	126.46
799.274	132.61
799.454	232.96
799.634	196.09
799.814	144.89
799.994	155.13
800.174	151.04
800.354	187.9
800.534	87.55
800.714	108.03
800.894	99.84
801.074	144.89
801.254	134.65
801.434	83.45
801.614	89.6
801.794	110.08
801.974	343.55
802.154	155.13
802.334	189.95
802.514	71.17
802.693	73.21
802.873	110.08
803.053	155.13
803.233	105.98
803.413	116.22
803.592	138.75
803.772	112.13
803.952	95.74
804.131	91.65
804.311	108.03
804.491	192
804.67	134.65
804.85	83.45
805.03	140.8
805.209	79.36
805.389	187.9
805.568	69.12
805.748	122.37
805.928	132.61
806.107	77.31
806.287	81.41
806.466	105.98
806.646	75.26
806.825	155.13
807.004	124.41
807.184	130.56
807.363	103.93
807.543	56.83
807.722	101.89
807.901	159.23
808.081	73.21
808.26	36.35
808.439	91.65
808.619	97.79
808.798	60.93
808.977	153.09
809.156	132.61
809.336	97.79
809.515	163.33
809.694	89.6
809.873	138.75
810.052	114.17
810.231	138.75
810.411	95.74
810.59	87.55
810.769	40.45
810.948	151.04
811.127	65.02
811.306	65.02
811.485	126.46
811.664	93.69
811.843	99.84
812.022	155.13
812.201	105.98
812.38	91.65
812.559	130.56
812.737	110.08
812.916	38.4
813.095	65.02
813.274	114.17
813.453	69.12
813.632	97.79
813.811	130.56
813.989	56.83
814.168	24.06
814.347	101.89
814.526	132.61
814.704	118.27
814.883	42.5
815.062	110.08
815.24	132.61
815.419	13.82
815.598	189.95
815.776	-2.56
815.955	81.41
816.133	-0.51
816.312	24.06
816.49	50.69
816.669	99.84
816.847	52.74
817.026	32.26
817.204	67.07
817.383	91.65
817.561	56.83
817.74	105.98
817.918	65.02
818.097	108.03
818.275	169.47
818.453	69.12
818.632	34.3
818.81	122.37
818.988	60.93
819.167	79.36
819.345	15.87
819.523	67.07
819.701	108.03
819.879	103.93
820.058	69.12
820.236	75.26
820.414	83.45
820.592	159.23
820.77	50.69
820.948	108.03
821.127	79.36
821.305	50.69
821.483	95.74
821.661	89.6
821.839	28.16
822.017	99.84
822.195	148.99
822.373	77.31
822.551	42.5
822.729	99.84
822.907	97.79
823.085	81.41
823.262	101.89
823.44	67.07
823.618	9.73
823.796	130.56
823.974	69.12
824.152	89.6
824.329	1.54
824.507	36.35
824.685	52.74
824.863	85.5
825.04	-25.09
825.218	110.08
825.396	77.31
825.574	54.78
825.751	19.97
825.929	114.17
826.107	65.02
826.284	99.84
826.462	26.11
826.639	46.59
826.817	42.5
826.994	105.98
827.172	60.93
827.349	83.45
827.527	110.08
827.704	52.74
827.882	87.55
828.059	65.02
828.237	87.55
828.414	36.35
828.591	-29.18
828.769	67.07
828.946	13.82
829.124	-27.14
829.301	118.27
829.478	17.92
829.655	30.21
829.833	26.11
830.01	73.21
830.187	-8.7
830.364	48.64
830.542	99.84
830.719	85.5
830.896	40.45
831.073	19.97
831.25	95.74
831.427	50.69
831.604	11.78
831.782	73.21
831.959	34.3
832.136	97.79
832.313	91.65
832.49	32.26
832.667	65.02
832.844	19.97
833.021	50.69
833.198	-2.56
833.374	40.45
833.551	3.58
833.728	58.88
833.905	138.75
834.082	36.35
834.259	56.83
834.436	118.27
834.612	28.16
834.789	42.5
834.966	9.73
835.143	108.03
835.319	56.83
835.496	11.78
835.673	87.55
835.85	79.36
836.026	79.36
836.203	62.98
836.38	54.78
836.556	13.82
836.733	-6.66
836.909	91.65
837.086	101.89
837.262	-37.38
837.439	50.69
837.616	28.16
837.792	1.54
837.968	62.98
838.145	83.45
838.321	7.68
838.498	28.16
838.674	67.07
838.851	52.74
839.027	24.06
839.203	3.58
839.38	17.92
839.556	36.35
839.732	-6.66
839.909	46.59
840.085	17.92
840.261	32.26
840.437	15.87
840.614	91.65
840.79	-0.51
840.966	48.64
841.142	17.92
841.318	65.02
841.494	11.78
841.671	56.83
841.847	81.41
842.023	36.35
842.199	58.88
842.375	62.98
842.551	7.68
842.727	13.82
842.903	50.69
843.079	36.35
843.255	97.79
843.431	7.68
843.607	44.54
843.783	48.64
843.959	52.74
844.134	32.26
844.31	54.78
844.486	38.4
844.662	17.92
844.838	17.92
845.013	105.98
845.189	24.06
845.365	99.84
845.541	105.98
845.716	48.64
845.892	28.16
846.068	28.16
846.244	83.45
846.419	42.5
846.595	99.84
846.77	62.98
846.946	19.97
847.122	42.5
847.297	-14.85
847.473	40.45
847.648	15.87
847.824	58.88
847.999	-4.61
848.175	56.83
848.35	40.45
848.526	56.83
848.701	11.78
848.876	46.59
849.052	77.31
849.227	28.16
849.403	38.4
849.578	11.78
849.753	71.17
849.929	-27.14
850.104	5.63
850.279	1.54
850.454	44.54
850.63	-57.86
850.805	34.3
850.98	67.07
851.155	-18.94
851.33	26.11
851.505	60.93
851.681	24.06
851.856	13.82
852.031	62.98
852.206	46.59
852.381	77.31
852.556	19.97
852.731	15.87
852.906	22.02
853.081	36.35
853.256	75.26
853.431	36.35
853.606	-20.99
853.781	40.45
853.956	7.68
854.131	34.3
854.305	-37.38
854.48	17.92
854.655	-2.56
854.83	103.93
855.005	34.3
855.18	30.21
855.354	28.16
855.529	15.87
855.704	-59.9
855.879	15.87
856.053	69.12
856.228	28.16
856.403	56.83
856.577	22.02
856.752	-20.99
856.926	-14.85
857.101	65.02
857.276	26.11
857.45	67.07
857.625	7.68
857.799	-2.56
857.974	-16.9
858.148	36.35
858.323	7.68
858.497	42.5
858.672	30.21
858.846	17.92
859.02	7.68
859.195	26.11
859.369	-14.85
859.543	17.92
859.718	-18.94
859.892	44.54
860.066	-6.66
860.241	24.06
860.415	-33.28
860.589	-0.51
860.763	75.26
860.938	-2.56
861.112	-8.7
861.286	11.78
861.46	17.92
861.634	-47.62
861.808	40.45
861.982	38.4
862.157	38.4
862.331	-6.66
862.505	-12.8
862.679	32.26
862.853	-8.7
863.027	-18.94
863.201	38.4
863.375	44.54
863.549	52.74
863.722	48.64
863.896	24.06
864.07	-29.18
864.244	-4.61
864.418	-31.23
864.592	5.63
864.766	19.97
864.939	24.06
865.113	52.74
865.287	3.58
865.461	-0.51
865.634	-27.14
865.808	42.5
865.982	75.26
866.156	5.63
866.329	65.02
866.503	5.63
866.676	46.59
866.85	26.11
867.024	28.16
867.197	1.54
867.371	52.74
867.544	17.92
867.718	42.5
867.891	24.06
868.065	71.17
868.238	19.97
868.412	40.45
868.585	26.11
868.759	58.88
868.932	-25.09
869.105	85.5
869.279	36.35
869.452	60.93
869.625	42.5
869.799	71.17
869.972	-10.75
870.145	67.07
870.319	112.13
870.492	-33.28
870.665	-12.8
870.838	73.21
871.011	50.69
871.185	9.73
871.358	-45.57
871.531	-10.75
871.704	85.5
871.877	-53.76
872.05	-29.18
872.223	40.45
872.396	52.74
872.569	15.87
872.742	-4.61
872.915	17.92
873.088	54.78
873.261	-6.66
873.434	13.82
873.607	62.98
873.78	42.5
873.953	56.83
874.126	50.69
874.299	-6.66
874.471	-14.85
874.644	34.3
874.817	-2.56
874.99	26.11
875.163	26.11
875.335	36.35
875.508	-35.33
875.681	28.16
875.853	42.5
876.026	46.59
876.199	58.88
876.371	3.58
876.544	9.73
876.717	-49.66
876.889	-2.56
877.062	44.54
877.234	15.87
877.407	19.97
877.579	-51.71
877.752	9.73
877.924	13.82
878.097	-47.62
878.269	28.16
878.442	-8.7
878.614	50.69
878.786	15.87
878.959	5.63
879.131	3.58
879.303	-47.62
879.476	-4.61
879.648	11.78
879.82	15.87
879.993	-25.09
880.165	19.97
880.337	-18.94
880.509	56.83
880.681	56.83
880.854	-10.75
881.026	-8.7
881.198	13.82
881.37	65.02
881.542	15.87
881.714	5.63
881.886	9.73
882.058	-31.23
882.23	58.88
882.402	87.55
882.574	60.93
882.746	-4.61
882.918	-43.52
883.09	38.4
883.262	13.82
883.434	7.68
883.606	-37.38
883.778	19.97
883.95	-37.38
884.122	24.06
884.293	-47.62
884.465	-74.24
884.637	-53.76
884.809	9.73
884.98	36.35
885.152	32.26
885.324	67.07
885.496	-10.75
885.667	58.88
885.839	-35.33
886.011	50.69
886.182	3.58
886.354	36.35
886.525	30.21
886.697	-64
886.869	50.69
887.04	-39.42
887.212	77.31
887.383	32.26
887.555	-55.81
887.726	7.68
887.897	9.73
888.069	1.54
888.24	-18.94
888.412	19.97
888.583	-23.04
888.754	-6.66
888.926	-16.9
889.097	-41.47
889.268	-18.94
889.44	-12.8
889.611	-31.23
889.782	34.3
889.953	30.21
890.125	85.5
890.296	-10.75
890.467	54.78
890.638	17.92
890.809	-12.8
890.98	-16.9
891.151	-4.61
891.323	-18.94
891.494	40.45
891.665	36.35
891.836	-0.51
892.007	-20.99
892.178	-10.75
892.349	-25.09
892.52	24.06
892.691	42.5
892.862	19.97
893.032	-0.51
893.203	26.11
893.374	65.02
893.545	-4.61
893.716	-25.09
893.887	-2.56
894.057	-2.56
894.228	-49.66
894.399	13.82
894.57	-14.85
894.74	38.4
894.911	48.64
895.082	-8.7
895.253	46.59
895.423	-43.52
895.594	32.26
895.764	-10.75
895.935	-41.47
896.106	17.92
896.276	-14.85
896.447	-6.66
896.617	-41.47
896.788	9.73
896.958	-29.18
897.129	42.5
897.299	-4.61
897.47	26.11
897.64	44.54
897.81	-20.99
897.981	7.68
898.151	-39.42
898.322	26.11
898.492	17.92
898.662	-23.04
898.832	-82.43
899.003	-39.42
899.173	60.93
899.343	52.74
899.513	-35.33
