Data from USB4F104151__14__13-52-21-025.txt Node

Date: Thu Mar 13 13:52:21 EDT 2025
User: louis
Spectrometer: USB4F10415
Trigger mode: 4
Integration Time (sec): 1.000000E-2
Scans to average: 1
Electric dark correction enabled: true
Nonlinearity correction enabled: false
Boxcar width: 0
XAxis mode: Wavelengths
Number of Pixels in Spectrum: 3648
>>>>>Begin Spectral Data<<<<<
178.204	-2.9
178.424	-2.9
178.644	-2.9
178.864	-70.48
179.084	-74.58
179.304	-4.95
179.524	-2.9
179.744	11.43
179.964	-11.09
180.184	-25.43
180.404	36.01
180.624	54.44
180.844	-2.9
181.064	15.53
181.283	9.39
181.503	-39.76
181.723	-39.76
181.943	-31.57
182.163	54.44
182.383	40.11
182.602	56.49
182.822	29.87
183.042	48.3
183.262	25.77
183.482	13.48
183.701	31.91
183.921	-19.29
184.141	-27.48
184.361	-7
184.58	50.35
184.8	97.45
185.02	-23.38
185.239	36.01
185.459	46.25
185.679	23.72
185.898	11.43
186.118	19.63
186.338	42.15
186.557	40.11
186.777	-35.67
186.997	29.87
187.216	19.63
187.436	7.34
187.655	15.53
187.875	27.82
188.095	3.24
188.314	15.53
188.534	23.72
188.753	-21.33
188.973	1.19
189.192	27.82
189.412	19.63
189.631	64.68
189.851	85.16
190.07	-33.62
190.29	72.87
190.509	52.39
190.729	-7
190.948	23.72
191.168	105.64
191.387	-15.19
191.607	25.77
191.826	11.43
192.045	25.77
192.265	3.24
192.484	19.63
192.704	54.44
192.923	-17.24
193.142	124.07
193.362	-25.43
193.581	36.01
193.8	19.63
194.02	1.19
194.239	40.11
194.458	27.82
194.678	54.44
194.897	72.87
195.116	21.67
195.335	-17.24
195.555	46.25
195.774	-58.2
195.993	62.63
196.212	74.92
196.432	-19.29
196.651	11.43
196.87	36.01
197.089	5.29
197.308	40.11
197.528	9.39
197.747	56.49
197.966	-25.43
198.185	36.01
198.404	38.06
198.623	-41.81
198.842	13.48
199.062	76.97
199.281	-9.05
199.5	113.83
199.719	7.34
199.938	19.63
200.157	52.39
200.376	40.11
200.595	-7
200.814	50.35
201.033	27.82
201.252	11.43
201.471	-31.57
201.69	19.63
201.909	58.54
202.128	13.48
202.347	-4.95
202.566	46.25
202.785	31.91
203.004	-25.43
203.223	58.54
203.442	64.68
203.661	83.11
203.879	19.63
204.098	15.53
204.317	-0.85
204.536	23.72
204.755	40.11
204.974	72.87
205.193	-4.95
205.411	-11.09
205.63	19.63
205.849	23.72
206.068	11.43
206.287	21.67
206.505	1.19
206.724	-0.85
206.943	40.11
207.162	11.43
207.381	3.24
207.599	62.63
207.818	21.67
208.037	1.19
208.255	83.11
208.474	50.35
208.693	5.29
208.911	-25.43
209.13	-43.86
209.349	3.24
209.567	40.11
209.786	13.48
210.005	85.16
210.223	-39.76
210.442	9.39
210.661	70.83
210.879	56.49
211.098	3.24
211.316	54.44
211.535	99.5
211.753	31.91
211.972	3.24
212.191	48.3
212.409	27.82
212.628	25.77
212.846	31.91
213.065	44.2
213.283	54.44
213.502	7.34
213.72	13.48
213.938	25.77
214.157	52.39
214.375	44.2
214.594	-23.38
214.812	54.44
215.031	31.91
215.249	23.72
215.467	29.87
215.686	25.77
215.904	64.68
216.122	19.63
216.341	44.2
216.559	-21.33
216.778	119.98
216.996	7.34
217.214	46.25
217.432	81.07
217.651	31.91
217.869	3.24
218.087	44.2
218.306	27.82
218.524	52.39
218.742	9.39
218.96	40.11
219.179	-50
219.397	1.19
219.615	46.25
219.833	68.78
220.051	36.01
220.27	21.67
220.488	-70.48
220.706	54.44
220.924	83.11
221.142	79.02
221.36	11.43
221.578	9.39
221.796	40.11
222.015	31.91
222.233	66.73
222.451	-25.43
222.669	-2.9
222.887	95.4
223.105	9.39
223.323	-25.43
223.541	58.54
223.759	68.78
223.977	-72.53
224.195	-9.05
224.413	-21.33
224.631	-19.29
224.849	-25.43
225.067	58.54
225.285	25.77
225.503	-29.52
225.721	58.54
225.939	48.3
226.157	-0.85
226.375	54.44
226.592	9.39
226.81	-7
227.028	46.25
227.246	124.07
227.464	27.82
227.682	95.4
227.9	42.15
228.117	74.92
228.335	-7
228.553	17.58
228.771	17.58
228.989	-15.19
229.206	31.91
229.424	-9.05
229.642	-9.05
229.86	-84.82
230.077	7.34
230.295	36.01
230.513	-9.05
230.731	83.11
230.948	52.39
231.166	99.5
231.384	95.4
231.601	-37.72
231.819	56.49
232.037	81.07
232.254	27.82
232.472	1.19
232.689	7.34
232.907	36.01
233.125	19.63
233.342	-15.19
233.56	1.19
233.777	46.25
233.995	-27.48
234.213	17.58
234.43	3.24
234.648	-7
234.865	-23.38
235.083	25.77
235.3	40.11
235.518	1.19
235.735	46.25
235.953	15.53
236.17	107.69
236.388	46.25
236.605	5.29
236.822	103.59
237.04	81.07
237.257	64.68
237.475	36.01
237.692	76.97
237.909	7.34
238.127	81.07
238.344	25.77
238.562	58.54
238.779	46.25
238.996	-7
239.214	19.63
239.431	46.25
239.648	29.87
239.865	50.35
240.083	21.67
240.3	33.96
240.517	-9.05
240.735	46.25
240.952	36.01
241.169	56.49
241.386	13.48
241.603	38.06
241.821	97.45
242.038	23.72
242.255	-11.09
242.472	46.25
242.689	11.43
242.907	13.48
243.124	25.77
243.341	-11.09
243.558	11.43
243.775	27.82
243.992	-19.29
244.209	62.63
244.426	-4.95
244.643	-11.09
244.86	70.83
245.078	31.91
245.295	5.29
245.512	126.12
245.729	11.43
245.946	44.2
246.163	60.59
246.38	48.3
246.597	-23.38
246.814	17.58
247.031	23.72
247.248	-15.19
247.464	-21.33
247.681	-4.95
247.898	17.58
248.115	58.54
248.332	17.58
248.549	-0.85
248.766	-0.85
248.983	46.25
249.2	27.82
249.417	48.3
249.633	42.15
249.85	68.78
250.067	-50
250.284	27.82
250.501	-0.85
250.717	58.54
250.934	52.39
251.151	128.17
251.368	46.25
251.585	66.73
251.801	64.68
252.018	7.34
252.235	3.24
252.451	-7
252.668	68.78
252.885	38.06
253.102	-0.85
253.318	21.67
253.535	56.49
253.752	23.72
253.968	62.63
254.185	19.63
254.401	81.07
254.618	21.67
254.835	17.58
255.051	17.58
255.268	83.11
255.484	-17.24
255.701	7.34
255.917	11.43
256.134	-68.44
256.351	21.67
256.567	3.24
256.784	52.39
257	-4.95
257.217	-7
257.433	23.72
257.65	68.78
257.866	25.77
258.082	9.39
258.299	-64.34
258.515	-0.85
258.732	7.34
258.948	3.24
259.165	44.2
259.381	48.3
259.597	48.3
259.814	60.59
260.03	-0.85
260.246	72.87
260.463	-2.9
260.679	23.72
260.895	-0.85
261.112	17.58
261.328	58.54
261.544	15.53
261.761	74.92
261.977	-9.05
262.193	42.15
262.409	21.67
262.626	70.83
262.842	-0.85
263.058	31.91
263.274	38.06
263.49	50.35
263.707	58.54
263.923	-0.85
264.139	29.87
264.355	89.26
264.571	42.15
264.787	74.92
265.004	109.74
265.22	19.63
265.436	81.07
265.652	60.59
265.868	165.03
266.084	-37.72
266.3	33.96
266.516	42.15
266.732	38.06
266.948	11.43
267.164	76.97
267.38	68.78
267.596	70.83
267.812	38.06
268.028	54.44
268.244	-35.67
268.46	23.72
268.676	50.35
268.892	79.02
269.108	-33.62
269.324	21.67
269.54	68.78
269.756	42.15
269.972	27.82
270.188	119.98
270.403	-58.2
270.619	91.31
270.835	17.58
271.051	15.53
271.267	-62.29
271.483	42.15
271.698	-33.62
271.914	89.26
272.13	19.63
272.346	83.11
272.562	25.77
272.777	60.59
272.993	19.63
273.209	64.68
273.425	27.82
273.64	31.91
273.856	-7
274.072	7.34
274.287	52.39
274.503	19.63
274.719	-60.24
274.934	56.49
275.15	5.29
275.366	38.06
275.581	-15.19
275.797	1.19
276.012	62.63
276.228	72.87
276.444	87.21
276.659	44.2
276.875	87.21
277.09	99.5
277.306	50.35
277.521	85.16
277.737	21.67
277.952	76.97
278.168	44.2
278.383	-23.38
278.599	23.72
278.814	58.54
279.03	89.26
279.245	52.39
279.461	54.44
279.676	64.68
279.892	62.63
280.107	44.2
280.322	93.35
280.538	66.73
280.753	40.11
280.969	50.35
281.184	66.73
281.399	25.77
281.615	-41.81
281.83	105.64
282.045	9.39
282.26	46.25
282.476	-17.24
282.691	54.44
282.906	19.63
283.122	36.01
283.337	-23.38
283.552	95.4
283.767	54.44
283.983	21.67
284.198	111.78
284.413	105.64
284.628	72.87
284.843	38.06
285.058	40.11
285.274	81.07
285.489	42.15
285.704	13.48
285.919	7.34
286.134	1.19
286.349	27.82
286.564	15.53
286.779	-39.76
286.995	29.87
287.21	29.87
287.425	40.11
287.64	74.92
287.855	89.26
288.07	21.67
288.285	72.87
288.5	70.83
288.715	21.67
288.93	91.31
289.145	1.19
289.36	17.58
289.575	25.77
289.79	33.96
290.004	38.06
290.219	70.83
290.434	64.68
290.649	48.3
290.864	25.77
291.079	-17.24
291.294	-15.19
291.509	27.82
291.724	-23.38
291.938	50.35
292.153	27.82
292.368	-2.9
292.583	95.4
292.798	36.01
293.012	83.11
293.227	7.34
293.442	42.15
293.657	93.35
293.871	103.59
294.086	5.29
294.301	40.11
294.516	-0.85
294.73	87.21
294.945	46.25
295.16	19.63
295.374	21.67
295.589	31.91
295.804	-35.67
296.018	46.25
296.233	17.58
296.447	25.77
296.662	17.58
296.877	33.96
297.091	9.39
297.306	58.54
297.52	21.67
297.735	56.49
297.949	25.77
298.164	113.83
298.378	44.2
298.593	-4.95
298.807	64.68
299.022	36.01
299.236	33.96
299.451	-19.29
299.665	25.77
299.88	46.25
300.094	119.98
300.309	64.68
300.523	66.73
300.737	130.22
300.952	33.96
301.166	40.11
301.381	19.63
301.595	-2.9
301.809	66.73
302.024	-23.38
302.238	-33.62
302.452	93.35
302.667	19.63
302.881	89.26
303.095	54.44
303.309	31.91
303.524	19.63
303.738	126.12
303.952	136.36
304.166	48.3
304.381	29.87
304.595	83.11
304.809	27.82
305.023	-0.85
305.237	15.53
305.452	81.07
305.666	83.11
305.88	103.59
306.094	29.87
306.308	81.07
306.522	21.67
306.736	76.97
306.95	68.78
307.164	60.59
307.379	87.21
307.593	13.48
307.807	44.2
308.021	7.34
308.235	-9.05
308.449	50.35
308.663	62.63
308.877	58.54
309.091	38.06
309.305	44.2
309.519	-13.14
309.733	85.16
309.947	31.91
310.161	74.92
310.374	111.78
310.588	93.35
310.802	-47.96
311.016	42.15
311.23	29.87
311.444	40.11
311.658	33.96
311.872	97.45
312.085	76.97
312.299	81.07
312.513	31.91
312.727	27.82
312.941	36.01
313.154	85.16
313.368	13.48
313.582	72.87
313.796	-17.24
314.009	58.54
314.223	68.78
314.437	40.11
314.651	5.29
314.864	13.48
315.078	54.44
315.292	48.3
315.505	13.48
315.719	40.11
315.933	38.06
316.146	25.77
316.36	21.67
316.573	128.17
316.787	23.72
317.001	19.63
317.214	1.19
317.428	25.77
317.641	44.2
317.855	29.87
318.068	46.25
318.282	48.3
318.495	54.44
318.709	36.01
318.922	5.29
319.136	144.55
319.349	81.07
319.563	60.59
319.776	46.25
319.99	64.68
320.203	46.25
320.417	130.22
320.63	15.53
320.843	58.54
321.057	89.26
321.27	44.2
321.483	9.39
321.697	27.82
321.91	5.29
322.124	7.34
322.337	126.12
322.55	38.06
322.763	13.48
322.977	62.63
323.19	-21.33
323.403	29.87
323.617	103.59
323.83	117.93
324.043	36.01
324.256	109.74
324.469	25.77
324.683	42.15
324.896	95.4
325.109	56.49
325.322	31.91
325.535	40.11
325.748	13.48
325.962	13.48
326.175	-13.14
326.388	113.83
326.601	5.29
326.814	54.44
327.027	27.82
327.24	95.4
327.453	62.63
327.666	101.55
327.879	38.06
328.092	44.2
328.305	66.73
328.518	29.87
328.731	68.78
328.944	9.39
329.157	42.15
329.37	58.54
329.583	50.35
329.796	130.22
330.009	60.59
330.222	5.29
330.435	60.59
330.648	31.91
330.861	23.72
331.073	56.49
331.286	60.59
331.499	58.54
331.712	-11.09
331.925	74.92
332.138	15.53
332.35	58.54
332.563	-4.95
332.776	23.72
332.989	68.78
333.202	15.53
333.414	-11.09
333.627	60.59
333.84	42.15
334.053	93.35
334.265	-2.9
334.478	62.63
334.691	124.07
334.903	126.12
335.116	56.49
335.329	-2.9
335.541	64.68
335.754	60.59
335.966	83.11
336.179	3.24
336.392	-0.85
336.604	93.35
336.817	72.87
337.029	29.87
337.242	81.07
337.454	81.07
337.667	101.55
337.88	72.87
338.092	-23.38
338.305	87.21
338.517	79.02
338.729	-33.62
338.942	101.55
339.154	-7
339.367	58.54
339.579	48.3
339.792	19.63
340.004	46.25
340.217	27.82
340.429	-17.24
340.641	54.44
340.854	60.59
341.066	50.35
341.278	66.73
341.491	50.35
341.703	40.11
341.915	11.43
342.128	68.78
342.34	83.11
342.552	21.67
342.764	101.55
342.977	44.2
343.189	-9.05
343.401	38.06
343.613	1.19
343.826	50.35
344.038	48.3
344.25	95.4
344.462	44.2
344.674	25.77
344.886	40.11
345.099	103.59
345.311	19.63
345.523	33.96
345.735	21.67
345.947	70.83
346.159	-23.38
346.371	119.98
346.583	136.36
346.795	62.63
347.007	54.44
347.219	21.67
347.431	19.63
347.643	66.73
347.855	64.68
348.067	48.3
348.279	76.97
348.491	107.69
348.703	89.26
348.915	48.3
349.127	11.43
349.339	33.96
349.551	11.43
349.763	70.83
349.975	60.59
350.187	42.15
350.399	64.68
350.61	1.19
350.822	89.26
351.034	-23.38
351.246	5.29
351.458	70.83
351.669	72.87
351.881	81.07
352.093	87.21
352.305	97.45
352.517	136.36
352.728	50.35
352.94	68.78
353.152	46.25
353.363	79.02
353.575	52.39
353.787	7.34
353.999	68.78
354.21	42.15
354.422	68.78
354.633	62.63
354.845	42.15
355.057	33.96
355.268	5.29
355.48	44.2
355.692	56.49
355.903	93.35
356.115	148.65
356.326	-31.57
356.538	66.73
356.749	13.48
356.961	56.49
357.172	64.68
357.384	27.82
357.595	-23.38
357.807	60.59
358.018	44.2
358.23	68.78
358.441	13.48
358.653	85.16
358.864	27.82
359.075	74.92
359.287	99.5
359.498	70.83
359.709	113.83
359.921	89.26
360.132	-2.9
360.344	87.21
360.555	50.35
360.766	5.29
360.977	52.39
361.189	99.5
361.4	68.78
361.611	52.39
361.823	19.63
362.034	89.26
362.245	-31.57
362.456	38.06
362.667	15.53
362.879	103.59
363.09	76.97
363.301	105.64
363.512	111.78
363.723	62.63
363.935	111.78
364.146	79.02
364.357	99.5
364.568	11.43
364.779	60.59
364.99	9.39
365.201	-37.72
365.412	60.59
365.623	15.53
365.834	72.87
366.045	74.92
366.256	48.3
366.467	-9.05
366.678	62.63
366.889	25.77
367.1	85.16
367.311	72.87
367.522	52.39
367.733	144.55
367.944	23.72
368.155	87.21
368.366	74.92
368.577	17.58
368.788	85.16
368.999	54.44
369.209	140.46
369.42	76.97
369.631	111.78
369.842	58.54
370.053	1.19
370.264	-9.05
370.474	-0.85
370.685	42.15
370.896	103.59
371.107	64.68
371.317	46.25
371.528	27.82
371.739	-15.19
371.95	58.54
372.16	111.78
372.371	60.59
372.582	50.35
372.792	44.2
373.003	95.4
373.214	-11.09
373.424	91.31
373.635	56.49
373.846	66.73
374.056	33.96
374.267	23.72
374.477	93.35
374.688	93.35
374.898	21.67
375.109	119.98
375.319	42.15
375.53	-0.85
375.74	66.73
375.951	48.3
376.161	9.39
376.372	46.25
376.582	89.26
376.793	64.68
377.003	99.5
377.214	42.15
377.424	58.54
377.635	74.92
377.845	58.54
378.055	-11.09
378.266	44.2
378.476	76.97
378.686	21.67
378.897	48.3
379.107	11.43
379.317	25.77
379.528	23.72
379.738	52.39
379.948	97.45
380.158	113.83
380.369	13.48
380.579	126.12
380.789	17.58
380.999	95.4
381.21	27.82
381.42	60.59
381.63	13.48
381.84	93.35
382.05	101.55
382.261	3.24
382.471	136.36
382.681	-7
382.891	91.31
383.101	-4.95
383.311	25.77
383.521	46.25
383.731	103.59
383.941	72.87
384.151	46.25
384.361	66.73
384.571	54.44
384.781	91.31
384.991	128.17
385.201	64.68
385.411	70.83
385.621	36.01
385.831	50.35
386.041	15.53
386.251	85.16
386.461	68.78
386.671	52.39
386.881	132.26
387.091	48.3
387.301	56.49
387.511	19.63
387.72	72.87
387.93	83.11
388.14	136.36
388.35	-9.05
388.56	107.69
388.769	119.98
388.979	70.83
389.189	44.2
389.399	124.07
389.609	70.83
389.818	81.07
390.028	48.3
390.238	48.3
390.447	107.69
390.657	62.63
390.867	113.83
391.076	58.54
391.286	66.73
391.496	44.2
391.705	36.01
391.915	23.72
392.125	25.77
392.334	117.93
392.544	46.25
392.753	79.02
392.963	56.49
393.172	115.88
393.382	105.64
393.591	109.74
393.801	115.88
394.01	136.36
394.22	64.68
394.429	126.12
394.639	124.07
394.848	87.21
395.058	52.39
395.267	83.11
395.477	93.35
395.686	128.17
395.895	119.98
396.105	156.84
396.314	122.02
396.524	162.98
396.733	89.26
396.942	60.59
397.152	130.22
397.361	126.12
397.57	122.02
397.78	62.63
397.989	119.98
398.198	113.83
398.407	144.55
398.617	95.4
398.826	40.11
399.035	87.21
399.244	150.7
399.453	74.92
399.663	87.21
399.872	122.02
400.081	128.17
400.29	177.32
400.499	130.22
400.708	132.26
400.917	134.31
401.127	103.59
401.336	136.36
401.545	89.26
401.754	144.55
401.963	154.79
402.172	68.78
402.381	33.96
402.59	148.65
402.799	152.74
403.008	113.83
403.217	54.44
403.426	154.79
403.635	154.79
403.844	115.88
404.053	183.46
404.262	134.31
404.471	173.22
404.68	81.07
404.888	136.36
405.097	201.9
405.306	193.7
405.515	203.94
405.724	103.59
405.933	138.41
406.142	191.66
406.35	191.66
406.559	228.52
406.768	175.27
406.977	187.56
407.185	165.03
407.394	191.66
407.603	212.14
407.812	224.42
408.02	195.75
408.229	173.22
408.438	205.99
408.646	230.57
408.855	205.99
409.064	332.97
409.272	212.14
409.481	283.81
409.69	257.19
409.898	263.33
410.107	351.4
410.315	326.82
410.524	306.34
410.733	384.16
410.941	322.73
411.15	375.97
411.358	390.31
411.567	390.31
411.775	461.99
411.984	418.98
412.192	437.41
412.401	427.17
412.609	486.56
412.818	408.74
413.026	498.85
413.234	607.39
413.443	461.99
413.651	535.71
413.86	605.35
414.068	591.01
414.276	670.88
414.485	746.66
414.693	656.54
414.901	634.02
415.11	642.21
415.318	717.98
415.526	650.4
415.734	779.42
415.943	660.64
416.151	873.63
416.359	924.83
416.567	797.85
416.776	873.63
416.984	988.32
417.192	971.93
417.4	951.45
417.608	1025.18
417.817	1080.47
418.025	1053.85
418.233	1115.29
418.441	1170.58
418.649	1289.37
418.857	1258.65
419.065	1232.02
419.273	1256.6
419.481	1445.01
419.689	1483.92
419.897	1473.68
420.105	1567.89
420.313	1590.42
420.521	1686.67
420.729	1633.43
420.937	1694.86
421.145	1780.88
421.353	1866.89
421.561	2008.2
421.769	1967.24
421.977	2040.97
422.185	2081.93
422.393	2139.27
422.601	2239.62
422.809	2169.99
423.017	2335.88
423.224	2327.69
423.432	2567.3
423.64	2473.09
423.848	2720.9
424.056	2636.93
424.263	2823.3
424.471	2741.38
424.679	2874.49
424.887	3116.16
425.094	3210.36
425.302	3130.49
425.51	3216.51
425.718	3216.51
425.925	3425.4
426.133	3677.3
426.341	3687.54
426.548	4045.93
426.756	3867.76
426.964	3976.3
427.171	4162.67
427.379	4215.91
427.586	4476.01
427.794	4510.82
428.001	4605.03
428.209	4789.35
428.417	4797.54
428.624	5108.83
428.832	5104.73
429.039	5059.68
429.247	5145.69
429.454	5518.42
429.662	6018.13
429.869	5725.27
430.076	5989.46
430.284	5977.17
430.491	6034.51
430.699	6569.03
430.906	6526.02
431.114	6458.44
431.321	6710.34
431.528	6812.74
431.736	7330.87
431.943	7590.97
432.15	7330.87
432.358	7384.12
432.565	8016.94
432.772	7951.41
432.979	8207.41
433.187	8342.57
433.394	8430.63
433.601	9083.94
433.808	9092.13
434.016	9116.7
434.223	9397.28
434.43	10132.5
434.637	9794.58
434.844	10392.59
435.052	10601.48
435.259	10314.77
435.466	10470.41
435.673	10480.65
435.88	11275.26
436.087	12026.87
436.294	11994.1
436.501	11531.26
436.708	11830.26
436.915	12106.74
437.122	12669.93
437.329	12604.39
437.537	13091.81
437.743	13349.85
437.95	13183.97
438.157	13704.15
438.364	14304.21
438.571	14195.67
438.778	14506.96
438.985	15707.07
439.192	15160.26
439.399	15610.81
439.606	15446.97
439.813	15979.45
440.02	16855.98
440.227	16798.63
440.433	16653.23
440.64	17343.39
440.847	17220.52
441.054	17388.45
441.261	18650
441.467	18246.55
441.674	18854.79
441.881	19485.57
442.088	19317.64
442.294	18996.1
442.501	19700.61
442.708	20063.1
442.914	20783.98
443.121	21599.07
443.328	20937.58
443.534	22922.06
443.741	21900.12
443.948	21775.2
444.154	23456.58
444.361	23151.43
444.568	23063.37
444.774	23544.64
444.981	23673.67
445.187	24199.99
445.394	25482.02
445.6	25027.37
445.807	27405.06
446.013	26252.06
446.22	26825.49
446.426	27826.95
446.633	28072.7
446.839	29111.02
447.046	27499.27
447.252	29262.57
447.459	29178.61
447.665	28869.36
447.871	30343.9
448.078	31414.99
448.284	30376.67
448.491	31101.65
448.697	32225.98
448.903	32633.53
449.11	33071.79
449.316	32377.53
449.522	32867
449.728	33753.77
449.935	33764.01
450.141	34099.87
450.347	34654.87
450.553	33446.57
450.76	33729.19
450.966	34978.45
451.172	34437.79
451.378	35644.04
451.584	34493.08
451.791	35594.89
451.997	35609.23
452.203	36010.63
452.409	35850.89
452.615	35916.42
452.821	34353.82
453.027	34253.47
453.233	35474.06
453.44	34605.72
453.646	34814.62
453.852	34738.84
454.058	35316.37
454.264	34042.53
454.47	35105.43
454.676	34253.47
454.882	35279.5
455.088	32103.1
455.294	32899.76
455.5	32950.96
455.705	33309.36
455.911	31916.74
456.117	31548.11
456.323	30915.28
456.529	29205.23
456.735	30474.97
456.941	29580.01
457.147	29367.02
457.352	28310.27
457.558	28265.21
457.764	28064.51
457.97	27482.89
458.176	26958.61
458.381	27265.8
458.587	25498.41
458.793	25740.07
458.999	24472.37
459.204	26114.84
459.41	25314.09
459.616	23659.33
459.821	23649.09
460.027	23552.84
460.233	23225.16
460.438	22008.67
460.644	22289.24
460.85	21207.91
461.055	21160.81
461.261	20605.81
461.466	19338.12
461.672	18574.22
461.878	20206.45
462.083	18887.56
462.289	18506.64
462.494	18123.67
462.7	17378.21
462.905	16780.2
463.111	17634.21
463.316	18023.32
463.522	17173.41
463.727	17456.03
463.932	17419.17
464.138	16948.14
464.343	17163.17
464.549	16599.98
464.754	17439.65
464.959	16946.09
465.165	16817.07
465.37	16456.62
465.575	15682.49
465.781	16569.26
465.986	16667.56
466.191	15969.21
466.397	15731.64
466.602	14830.54
466.807	15467.45
467.012	15664.06
467.218	15541.18
467.423	15377.34
467.628	15246.27
467.833	15883.19
468.038	15393.73
468.244	14898.12
468.449	15594.43
468.654	14988.23
468.859	15002.57
469.064	14650.32
469.269	14173.14
469.474	14343.12
469.679	14674.89
469.885	13960.15
470.09	14250.96
470.295	14056.4
470.5	13945.81
470.705	13857.75
470.91	13679.58
471.115	13657.05
471.32	13763.54
471.525	13726.68
471.73	13198.31
471.935	13235.17
472.139	12889.06
472.344	13065.19
472.549	12626.92
472.754	12817.38
472.959	12553.2
473.164	12153.84
473.369	11963.38
473.574	12428.27
473.778	12202.99
473.983	12182.51
474.188	12268.53
474.393	11570.17
474.598	11559.93
474.802	11412.48
475.007	11430.91
475.212	11447.29
475.417	11031.55
475.621	10961.92
475.826	11033.6
476.031	10951.68
476.235	10728.45
476.44	10798.09
476.645	10499.08
476.849	10613.77
477.054	10566.67
477.259	10171.41
477.463	10206.22
477.668	10044.43
477.872	10357.77
478.077	10122.26
478.282	9692.18
478.486	9727
478.691	9696.28
478.895	9772.05
479.1	9542.68
479.304	9419.8
479.509	9206.81
479.713	9587.74
479.918	9266.21
480.122	9225.25
480.326	9503.77
480.531	9485.34
480.735	9206.81
480.94	9184.29
481.144	9501.72
481.348	8977.44
481.553	9180.19
481.757	9004.07
481.961	9165.85
482.166	9126.94
482.37	8936.48
482.574	8750.12
482.778	8809.51
482.983	8850.47
483.187	8942.63
483.391	8952.87
483.595	8979.49
483.8	8827.94
484.004	9024.54
484.208	9135.14
484.412	8905.76
484.616	8916
484.821	8946.72
485.025	8885.28
485.229	9034.78
485.433	8848.42
485.637	8899.62
485.841	8674.34
486.045	8846.37
486.249	9092.13
486.453	8705.06
486.657	9034.78
486.861	8967.2
487.065	8670.25
487.269	8819.75
487.473	8670.25
487.677	8922.15
487.881	8959.01
488.085	8891.43
488.289	8981.54
488.493	8991.78
488.697	8956.96
488.901	9006.11
489.105	8942.63
489.309	8870.95
489.512	9045.02
489.716	9042.98
489.92	9061.41
490.124	8950.82
490.328	9161.76
490.531	9061.41
490.735	9008.16
490.939	9096.22
491.143	9200.67
491.346	9194.53
491.55	9174.05
491.754	9106.46
491.958	9182.24
492.161	9382.94
492.365	9255.97
492.569	9526.3
492.772	9567.26
492.976	9473.05
493.18	9393.18
493.383	9600.02
493.587	9667.61
493.79	9763.86
493.994	9573.4
494.197	9886.74
494.401	9849.88
494.605	9985.04
494.808	10058.77
495.012	10122.26
495.215	10224.65
495.419	10343.44
495.622	10378.25
495.825	10347.53
496.029	10654.73
496.232	10591.24
496.436	10568.71
496.639	10839.05
496.843	10718.22
497.046	11115.52
497.249	11287.55
497.453	11262.97
497.656	11537.4
497.859	11373.57
498.063	11379.71
498.266	11977.72
498.469	11559.93
498.673	11916.28
498.876	12057.59
499.079	12076.02
499.282	11985.91
499.485	12442.6
499.689	12614.63
499.892	12706.79
500.095	12764.14
500.298	13032.42
500.501	12934.12
500.705	13392.86
500.908	13446.11
501.111	13577.18
501.314	13605.85
501.517	13921.24
501.72	14019.54
501.923	13853.66
502.126	14429.13
502.329	14582.73
502.532	14730.19
502.735	15008.71
502.938	15186.88
503.141	15383.49
503.344	15479.74
503.547	15340.48
503.75	15616.96
503.953	15858.62
504.156	16018.36
504.359	16401.33
504.562	16452.53
504.765	16747.44
504.968	16923.56
505.17	17234.85
505.373	17148.84
505.576	17540
505.779	17759.13
505.982	17818.52
506.185	18228.12
506.387	17980.31
506.59	18301.84
506.793	18860.94
506.996	18684.81
507.198	19514.24
507.401	19366.79
507.604	19540.86
507.807	20087.67
508.009	19942.27
508.212	20317.04
508.415	20548.47
508.617	20992.87
508.82	21019.5
509.022	21226.34
509.225	21410.66
509.428	21709.66
509.63	21775.2
509.833	22154.07
510.035	22887.25
510.238	22477.65
510.44	23055.18
510.643	23122.76
510.845	23679.81
511.048	23591.75
511.25	24249.14
511.453	24109.88
511.655	24980.27
511.858	24353.59
512.06	24875.82
512.262	25129.77
512.465	25187.11
512.667	25576.23
512.87	25838.37
513.072	26030.88
513.274	26583.83
513.477	27054.86
513.679	27085.58
513.881	27710.21
514.084	27607.81
514.286	27714.31
514.488	28238.59
514.69	28990.19
514.893	28916.47
515.095	29176.56
515.297	29518.57
515.499	29934.31
515.701	30169.82
515.904	30317.28
516.106	30198.49
516.308	31306.44
516.51	31103.7
516.712	31523.53
516.914	31781.57
517.116	32115.39
517.318	32344.77
517.52	32565.95
517.722	32930.48
517.925	33315.5
518.127	33723.05
518.329	33962.66
518.531	33907.37
518.733	34470.56
518.935	35293.84
519.136	35269.26
519.338	35955.33
519.54	35893.89
519.742	36233.86
519.944	36156.03
520.146	37024.37
520.348	37216.88
520.55	37444.21
520.752	37888.62
520.954	38699.61
521.155	38353.51
521.357	38969.94
521.559	39432.78
521.761	39832.14
521.963	39604.81
522.164	39584.33
522.366	39815.76
522.568	40528.45
522.77	40788.54
522.971	41290.29
523.173	40882.75
523.375	41542.19
523.576	41447.99
523.778	41712.17
523.98	42400.29
524.181	42600.99
524.383	42568.23
524.584	42867.23
524.786	43082.27
524.988	42910.24
525.189	43252.25
525.391	43913.74
525.592	44317.19
525.794	44012.04
525.995	44265.99
526.197	44114.44
526.398	44206.6
526.6	44855.81
526.801	45048.32
527.003	44864
527.204	45240.82
527.406	45740.53
527.607	45363.7
527.808	46049.77
528.01	45533.68
528.211	46354.92
528.412	46862.82
528.614	46651.87
528.815	46549.48
529.016	47215.07
529.218	46963.17
529.419	46651.87
529.62	47024.61
529.822	47391.19
530.023	47002.08
530.224	47112.67
530.425	47489.49
530.626	47159.77
530.828	46983.65
531.029	47962.57
531.23	47524.31
531.431	47440.34
531.632	47745.49
531.833	48038.35
532.035	47929.81
532.236	47868.37
532.437	48167.37
532.638	47958.48
532.839	48079.31
533.04	48382.41
533.241	47835.6
533.442	48824.77
533.643	48294.35
533.844	48046.54
534.045	48652.74
534.246	48097.74
534.447	48507.33
534.648	48255.43
534.849	48691.65
535.05	48232.91
535.251	48619.97
535.451	48157.13
535.652	48814.53
535.853	48048.59
536.054	48175.56
536.255	48599.49
536.456	48269.77
536.657	49240.51
536.857	48179.66
537.058	48347.59
537.259	48861.63
537.46	48511.43
537.66	48134.6
537.861	48835.01
538.062	48445.9
538.263	48900.54
538.463	48499.14
538.664	48871.87
538.865	48562.63
539.065	48693.7
539.266	48411.08
539.466	49191.36
539.667	48153.04
539.868	48753.09
540.068	48277.96
540.269	48126.41
540.469	49144.25
540.67	48339.4
540.87	48202.19
541.071	48357.83
541.271	48822.72
541.472	48265.67
541.672	48527.81
541.873	48124.36
542.073	48036.3
542.274	48787.91
542.474	48110.03
542.675	48226.76
542.875	48759.23
543.075	48134.6
543.276	48204.24
543.476	48638.4
543.676	48118.22
543.877	48513.48
544.077	48538.05
544.277	48333.26
544.478	48462.28
544.678	48560.58
544.878	48468.42
545.078	48056.78
545.279	48370.12
545.479	48366.02
545.679	48366.02
545.879	48351.69
546.079	48081.36
546.28	48136.65
546.48	48044.49
546.68	48150.99
546.88	48288.2
547.08	48247.24
547.28	48241.1
547.48	47489.49
547.68	48169.42
547.88	48222.67
548.081	48179.66
548.281	48394.7
548.481	48144.84
548.681	48028.11
548.881	48005.58
549.081	48159.18
549.28	48224.71
549.48	48544.2
549.68	47630.8
549.88	48591.3
550.08	47806.93
550.28	48216.52
550.48	48222.67
550.68	48136.65
550.88	47704.53
551.08	47999.44
551.279	48081.36
551.479	47651.28
551.679	47960.53
551.879	47880.66
552.079	48110.03
552.278	47727.06
552.478	47798.74
552.678	47755.73
552.878	48103.88
553.077	47970.77
553.277	47315.42
553.477	48224.71
553.676	47495.64
553.876	47602.13
554.076	47589.84
554.275	47407.58
554.475	47419.86
554.674	48001.49
554.874	47727.06
555.074	47487.45
555.273	47813.07
555.473	48134.6
555.672	47127
555.872	47223.26
556.071	47124.96
556.271	47495.64
556.47	46950.88
556.67	46727.65
556.869	46997.98
557.068	46901.73
557.268	46537.19
557.467	46705.12
557.667	47172.06
557.866	46750.18
558.065	46696.93
558.265	46733.79
558.464	46756.32
558.663	47137.24
558.863	45865.45
559.062	47192.54
559.261	46066.16
559.461	46828
559.66	45720.05
559.859	46168.55
560.058	45761.01
560.258	46467.56
560.457	45810.16
560.656	46352.87
560.855	45689.33
561.054	45935.09
561.253	45988.33
561.453	45867.5
561.652	45666.8
561.851	45570.55
562.05	46014.96
562.249	45404.66
562.448	45718
562.647	45398.52
562.846	45496.82
563.045	45529.59
563.244	45044.22
563.443	45468.15
563.642	44706.3
563.841	45134.33
564.04	44980.73
564.239	45160.95
564.438	44640.77
564.637	45226.49
564.836	44818.94
565.035	44659.2
565.234	44784.13
565.432	44235.27
565.631	44397.06
565.83	44421.64
566.029	44296.71
566.228	44595.71
566.427	44243.46
566.625	43840.01
566.824	43199
567.023	44300.81
567.222	43162.14
567.42	43702.8
567.619	43878.93
567.818	43336.21
568.016	43172.38
568.215	43455
568.414	43577.87
568.612	43799.05
568.811	43112.98
569.01	43180.57
569.208	42752.54
569.407	43149.85
569.605	42439.2
569.804	43123.22
570.002	42277.41
570.201	42895.9
570.4	42557.99
570.598	42043.95
570.797	42031.66
570.995	42531.36
571.193	41798.19
571.392	42312.23
571.59	41611.82
571.789	41464.37
571.987	41433.65
572.186	42007.08
572.384	40931.9
572.582	41429.55
572.781	41456.18
572.979	40811.07
573.177	40935.99
573.376	41005.62
573.574	40270.4
573.772	41144.89
573.971	40628.8
574.169	40389.19
574.367	39961.16
574.565	40098.37
574.763	40057.42
574.962	40456.77
575.16	39397.97
575.358	40108.61
575.556	39500.37
575.754	40079.94
575.952	39273.04
576.151	39400.02
576.349	39189.08
576.547	39176.79
576.745	38931.03
576.943	39348.82
577.141	38601.31
577.339	39271
577.537	38701.66
577.735	38496.86
577.933	38314.59
578.131	38337.12
578.329	38132.32
578.527	37921.38
578.725	38062.69
578.923	37993.06
579.121	37939.82
579.319	37640.81
579.516	38029.93
579.714	37225.07
579.912	37083.76
580.11	37673.58
580.308	37573.23
580.506	37345.9
580.704	36506.24
580.901	37229.17
581.099	37143.16
581.297	36659.84
581.495	36629.12
581.692	36991.61
581.89	36715.13
582.088	36432.51
582.285	36342.4
582.483	36555.39
582.681	36428.41
582.878	35738.25
583.076	35873.42
583.274	35834.5
583.471	35367.57
583.669	35728.01
583.866	35365.52
584.064	35414.67
584.262	35166.87
584.459	35725.96
584.657	34941.59
584.854	35328.66
585.052	34525.85
585.249	34878.1
585.447	34861.72
585.644	34511.52
585.841	34626.2
586.039	34648.73
586.236	34253.47
586.434	33786.54
586.631	33987.24
586.828	34022.05
587.026	34169.51
587.223	33841.83
587.42	33899.17
587.618	33759.91
587.815	33313.45
588.012	33364.65
588.21	33415.85
588.407	33899.17
588.604	33329.84
588.801	32912.05
588.999	32717.5
589.196	33153.71
589.393	33094.32
589.59	32981.68
589.787	32811.7
589.984	32398.01
590.182	32465.6
590.379	32494.27
590.576	32338.62
590.773	32285.37
590.97	32168.64
591.167	32037.57
591.364	31505.1
591.561	31933.12
591.758	31093.46
591.955	31212.24
592.152	31685.32
592.349	31392.46
592.546	31738.57
592.743	31464.14
592.94	31023.83
593.137	31126.22
593.334	31437.51
593.531	30618.33
593.727	30939.86
593.924	30841.56
594.121	30423.77
594.318	30751.45
594.515	30153.44
594.712	30628.57
594.908	30386.91
595.105	30466.78
595.302	29784.8
595.499	30259.93
595.696	29569.77
595.892	29801.19
596.089	29911.78
596.286	30165.73
596.482	29324.01
596.679	29428.46
596.876	29504.23
597.072	29219.56
597.269	29395.69
597.466	29154.03
597.662	28941.04
597.859	29104.88
598.055	29256.43
598.252	28697.33
598.448	28777.2
598.645	28476.15
598.841	28699.38
599.038	28637.94
599.234	28420.86
599.431	28246.78
599.627	28029.69
599.824	28353.27
600.02	28052.22
600.217	28179.2
600.413	27712.26
600.609	27861.76
600.806	27820.8
601.002	27695.88
601.198	27519.75
601.395	27429.64
601.591	27550.47
601.787	27261.71
601.984	27081.49
602.18	27194.12
602.376	27005.71
602.572	26970.9
602.769	27079.44
602.965	26981.13
603.161	27015.95
603.357	26614.55
603.553	26370.84
603.75	26495.77
603.946	26235.67
604.142	26075.93
604.338	25754.4
604.534	26524.44
604.73	26090.27
604.926	25971.49
605.122	25801.5
605.318	25860.9
605.514	25322.28
605.71	25951.01
605.906	25565.99
606.102	25236.27
606.298	25475.88
606.494	25199.4
606.69	25314.09
606.886	25377.58
607.082	24736.56
607.278	25230.12
607.474	24611.64
607.67	25219.88
607.866	24503.09
608.062	24859.44
608.257	24615.73
608.453	24910.64
608.649	24599.35
608.845	24511.28
609.041	24152.89
609.236	24462.13
609.432	24394.55
609.628	24187.71
609.824	24286.01
610.019	24152.89
610.215	24118.07
610.411	23864.13
610.606	23538.5
610.802	23716.67
610.998	23710.53
611.193	23511.88
611.389	23546.69
611.584	23468.87
611.78	23380.81
611.976	23655.23
612.171	23567.17
612.367	23356.23
612.562	23067.47
612.758	23053.13
612.953	23020.36
613.149	23370.57
613.344	22872.91
613.539	23032.65
613.735	22758.22
613.93	22872.91
614.126	22666.06
614.321	22803.28
614.517	22872.91
614.712	22504.28
614.907	22514.52
615.103	22790.99
615.298	22324.05
615.493	22616.91
615.688	22307.67
615.884	22696.78
616.079	22158.17
616.274	22217.56
616.47	22131.54
616.665	22479.7
616.86	22168.41
617.055	22115.16
617.25	21576.55
617.445	22145.88
617.641	21603.17
617.836	22020.95
618.031	21435.24
618.226	22027.1
618.421	21427.04
618.616	21605.22
618.811	21199.72
619.006	21633.89
619.201	21197.67
619.396	21070.7
619.591	21070.7
619.786	21212.01
619.981	20913
620.176	20837.23
620.371	20687.73
620.566	20663.15
620.761	20527.99
620.956	20401.01
621.151	20020.09
621.346	20052.86
621.541	19903.35
621.735	19995.51
621.93	19690.37
622.125	19622.78
622.32	19450.75
622.515	19522.43
622.709	19342.21
622.904	19321.73
623.099	19213.19
623.294	19145.61
623.488	18965.39
623.683	19110.79
623.878	18545.55
624.072	18815.88
624.267	18789.26
624.462	18451.35
624.656	18301.84
624.851	18664.33
625.046	18275.22
625.24	18250.64
625.435	18152.34
625.629	17980.31
625.824	17992.6
626.018	18164.63
626.213	17421.22
626.407	17720.22
626.602	17173.41
626.796	17499.04
626.991	17329.06
627.185	17011.62
627.38	16999.34
627.574	17050.53
627.768	16896.94
627.963	16792.49
628.157	16542.64
628.352	16706.48
628.546	16235.44
628.74	16569.26
628.935	16356.27
629.129	16286.64
629.323	16110.52
629.517	16272.31
629.712	16251.83
629.906	15823.8
630.1	15750.07
630.294	15772.6
630.489	15602.62
630.683	15967.16
630.877	15655.87
631.071	15385.54
631.265	15274.95
631.459	15215.55
631.653	15170.5
631.848	15287.23
632.042	14879.69
632.236	15014.85
632.43	14855.11
632.624	14971.85
632.818	14762.95
633.012	14545.87
633.206	14537.68
633.4	14652.36
633.594	14261.2
633.788	14425.04
633.982	14228.43
634.176	14253.01
634.369	14083.03
634.563	14210
634.757	13935.57
634.951	13970.39
635.145	13831.13
635.339	13605.85
635.533	13771.74
635.726	13851.61
635.92	13388.77
636.114	13642.71
636.308	13206.5
636.501	13306.85
636.695	13251.55
636.889	13370.33
637.083	13036.52
637.276	13001.7
637.47	12846.05
637.664	12981.22
637.857	12987.36
638.051	12805.1
638.244	12432.36
638.438	12604.39
638.632	12504.04
638.825	12620.78
639.019	12608.49
639.212	12401.65
639.406	12434.41
639.599	12364.78
639.793	12344.3
639.986	11869.17
640.18	11877.37
640.373	11889.65
640.567	11840.5
640.76	11867.13
640.954	11770.87
641.147	11695.1
641.34	11578.36
641.534	11531.26
641.727	11449.34
641.92	11551.74
642.114	11254.78
642.307	11164.67
642.5	11213.82
642.694	10941.44
642.887	11015.17
643.08	11105.28
643.273	10966.02
643.467	10996.74
643.66	10816.52
643.853	10757.13
644.046	10703.88
644.239	10628.1
644.432	10654.73
644.626	10478.6
644.819	10593.29
645.012	10464.27
645.205	10374.16
645.398	10417.16
645.591	10218.51
645.784	9956.37
645.977	10087.44
646.17	10064.91
646.363	10071.06
646.556	9921.56
646.749	9739.29
646.942	9847.83
647.135	9733.14
647.328	9720.85
647.521	9935.89
647.714	9301.02
647.907	9565.21
648.099	9626.65
648.292	9583.64
648.485	9473.05
648.678	9217.05
648.871	9303.07
649.064	9055.26
649.256	9346.08
649.449	8913.95
649.642	9081.89
649.835	9012.26
650.027	9012.26
650.22	8770.6
650.413	8813.6
650.605	8559.66
650.798	8827.94
650.991	8705.06
651.183	8590.38
651.376	8623.14
651.568	8635.43
651.761	8342.57
651.954	8655.91
652.146	8180.78
652.339	8195.12
652.531	8270.89
652.724	8068.14
652.916	7986.22
653.109	7978.03
653.301	8062
653.494	8102.96
653.686	7857.2
653.879	8105.01
654.071	7863.35
654.263	7873.59
654.456	7750.71
654.648	7658.55
654.84	7500.86
655.033	7633.97
655.225	7349.31
655.417	7697.46
655.61	7429.18
655.802	7390.27
655.994	7273.53
656.186	7253.05
656.379	7173.18
656.571	7289.92
656.763	7056.45
656.955	7124.03
657.148	7187.52
657.34	7076.93
657.532	7052.35
657.724	7156.8
657.916	6884.42
658.108	6970.43
658.3	6874.18
658.492	6689.86
658.684	6722.63
658.876	6790.21
659.068	6616.13
659.26	6657.09
659.452	6761.54
659.644	6564.93
659.836	6509.64
660.028	6546.5
660.22	6370.38
660.412	6386.76
660.604	6423.62
660.796	6263.88
660.988	6241.36
661.18	6173.77
661.372	6245.45
661.563	6128.72
661.755	6085.71
661.947	6034.51
662.139	6130.77
662.331	6007.89
662.522	5940.3
662.714	5786.71
662.906	5854.29
663.097	5842
663.289	5741.65
663.481	5735.51
663.673	5751.89
663.864	5817.43
664.056	5702.74
664.247	5618.77
664.439	5524.57
664.631	5735.51
664.822	5569.62
665.014	5387.35
665.205	5526.61
665.397	5586.01
665.588	5418.07
665.78	5362.78
665.971	5348.44
666.163	5299.29
666.354	5207.13
666.546	5266.52
666.737	5065.82
666.929	5293.15
667.12	5225.56
667.311	5139.55
667.503	4942.94
667.694	5162.08
667.885	5059.68
668.077	5026.91
668.268	5028.96
668.459	4992.09
668.651	4963.42
668.842	4887.65
669.033	4770.91
669.224	4850.78
669.416	4887.65
669.607	4775.01
669.798	4912.22
669.989	4811.87
670.18	4717.67
670.371	4738.15
670.563	4637.8
670.754	4662.37
670.945	4547.69
671.136	4658.28
671.327	4736.1
671.518	4568.16
671.709	4519.01
671.9	4422.76
672.091	4349.03
672.282	4394.09
672.473	4303.98
672.664	4559.97
672.855	4461.67
673.046	4527.21
673.237	4469.86
673.428	4482.15
673.619	4365.42
673.809	4316.26
674	4314.22
674.191	4398.18
674.382	4134
674.573	4242.54
674.764	4142.19
674.954	4183.15
675.145	4166.76
675.336	4181.1
675.527	4318.31
675.717	4068.46
675.908	4086.89
676.099	4056.17
676.289	4273.26
676.48	4113.52
676.671	4113.52
676.861	4134
677.052	3966.06
677.243	4084.84
677.433	4031.6
677.624	4084.84
677.814	3927.15
678.005	3878
678.195	3949.68
678.386	3941.49
678.576	3828.85
678.767	3984.49
678.957	3839.09
679.148	4031.6
679.338	3875.95
679.529	3703.92
679.719	3705.97
679.909	3734.64
680.1	3857.52
680.29	3744.88
680.481	3800.18
680.671	3744.88
680.861	3794.03
681.052	3662.96
681.242	3740.79
681.432	3687.54
681.622	3667.06
681.813	3753.07
682.003	3759.22
682.193	3654.77
682.383	3646.58
682.573	3626.1
682.764	3677.3
682.954	3589.24
683.144	3687.54
683.334	3703.92
683.524	3552.37
683.714	3658.87
683.904	3622
684.094	3611.76
684.284	3585.14
684.474	3509.37
684.664	3558.52
684.854	3431.54
685.044	3519.6
685.234	3445.88
685.424	3445.88
685.614	3554.42
685.804	3497.08
685.994	3460.21
686.184	3490.93
686.374	3568.76
686.564	3333.24
686.753	3474.55
686.943	3501.17
687.133	3476.6
687.323	3384.44
687.513	3499.13
687.702	3417.21
687.892	3282.04
688.082	3261.56
688.272	3239.03
688.461	3329.14
688.651	3349.62
688.841	3265.66
689.03	3353.72
689.22	3292.28
689.41	3333.24
689.599	3185.79
689.789	3351.67
689.979	3355.77
690.168	3269.75
690.358	3406.97
690.547	3376.25
690.737	3310.71
690.926	3366.01
691.116	3095.68
691.305	3255.42
691.495	3161.21
691.684	3220.6
691.874	3339.38
692.063	3234.94
692.252	3390.58
692.442	3312.76
692.631	3118.2
692.82	3355.77
693.01	3161.21
693.199	3134.59
693.388	3091.58
693.578	3224.7
693.767	3220.6
693.956	3249.27
694.146	3140.73
694.335	3050.62
694.524	3212.41
694.713	3267.7
694.902	3064.96
695.092	3208.31
695.281	3232.89
695.47	3087.48
695.659	3159.16
695.848	3118.2
696.037	3140.73
696.226	3101.82
696.415	3214.46
696.604	3081.34
696.793	3099.77
696.982	3112.06
697.171	3323
697.36	3202.17
697.549	3142.78
697.738	3167.35
697.927	3185.79
698.116	3159.16
698.305	3013.76
698.494	3116.16
698.683	3163.26
698.872	3144.83
699.061	3073.15
699.25	3064.96
699.438	3067
699.627	3069.05
699.816	3089.53
700.005	3101.82
700.193	3097.72
700.382	3155.07
700.571	3017.85
700.76	3034.24
700.948	3034.24
701.137	3048.57
701.326	3128.44
701.514	3046.52
701.703	3001.47
701.892	2952.32
702.08	2944.13
702.269	3021.95
702.457	2880.64
702.646	3122.3
702.834	2997.37
703.023	3054.72
703.212	3007.61
703.4	3028.09
703.589	2815.1
703.777	2888.83
703.965	2905.21
704.154	2968.7
704.342	2956.41
704.531	2970.75
704.719	2991.23
704.907	2823.3
705.096	2815.1
705.284	2804.86
705.472	2870.4
705.661	2784.38
705.849	2761.86
706.037	2940.03
706.226	2763.9
706.414	2831.49
706.602	2774.14
706.79	2675.84
706.979	2686.08
707.167	2833.54
707.355	2665.6
707.543	2864.25
707.731	2761.86
707.919	2743.42
708.107	2598.02
708.296	2659.46
708.484	2626.69
708.672	2714.75
708.86	2636.93
709.048	2681.99
709.236	2718.85
709.424	2655.36
709.612	2587.78
709.8	2567.3
709.988	2651.27
710.176	2655.36
710.364	2634.88
710.551	2575.49
710.739	2536.58
710.927	2555.01
711.115	2552.96
711.303	2548.87
711.491	2489.48
711.679	2425.99
711.866	2618.5
712.054	2589.83
712.242	2616.45
712.43	2425.99
712.617	2471.04
712.805	2403.46
712.993	2475.14
713.181	2536.58
713.368	2358.41
713.556	2370.69
713.744	2311.3
713.931	2327.69
714.119	2262.15
714.306	2403.46
714.494	2335.88
714.682	2215.05
714.869	2409.61
715.057	2385.03
715.244	2366.6
715.432	2260.1
715.619	2405.51
715.807	2362.5
715.994	2348.17
716.182	2151.56
716.369	2262.15
716.556	2315.4
716.744	2213
716.931	2270.34
717.119	2235.53
717.306	2153.61
717.493	2215.05
717.681	2200.71
717.868	2143.37
718.055	2190.47
718.242	2051.21
718.43	2114.7
718.617	2165.9
718.804	2208.9
718.991	2143.37
719.179	2178.19
719.366	2040.97
719.553	2190.47
719.74	2141.32
719.927	2223.24
720.114	2034.83
720.301	2045.07
720.488	2055.31
720.676	2118.79
720.863	1940.62
721.05	1922.19
721.237	2024.59
721.424	1952.91
721.611	1954.96
721.798	1973.39
721.985	1977.48
722.172	1963.15
722.358	1944.72
722.545	1932.43
722.732	1895.57
722.919	2010.25
723.106	1916.05
723.293	1928.33
723.48	1881.23
723.667	1934.48
723.853	1989.77
724.04	1957
724.227	1901.71
724.414	1926.29
724.6	1881.23
724.787	1821.84
724.974	1836.17
725.161	1854.61
725.347	1774.74
725.534	1873.04
725.72	1827.98
725.907	1748.11
726.094	1770.64
726.28	1739.92
726.467	1746.06
726.653	1803.41
726.84	1723.54
727.027	1883.28
727.213	1776.78
727.4	1842.32
727.586	1735.82
727.773	1772.69
727.959	1758.35
728.145	1635.47
728.332	1758.35
728.518	1723.54
728.705	1772.69
728.891	1619.09
729.077	1772.69
729.264	1625.23
729.45	1582.23
729.636	1664.15
729.823	1684.62
730.009	1651.86
730.195	1629.33
730.382	1696.91
730.568	1696.91
730.754	1696.91
730.94	1612.95
731.126	1477.78
731.313	1569.94
731.499	1602.71
731.685	1629.33
731.871	1578.13
732.057	1596.56
732.243	1588.37
732.429	1569.94
732.615	1531.03
732.801	1649.81
732.987	1520.79
733.173	1508.5
733.359	1586.32
733.545	1547.41
733.731	1533.08
733.917	1545.36
734.103	1522.84
734.289	1440.92
734.475	1475.73
734.661	1465.49
734.847	1416.34
735.033	1492.12
735.219	1557.65
735.404	1553.55
735.59	1555.6
735.776	1404.05
735.962	1510.55
736.148	1369.24
736.333	1500.31
736.519	1498.26
736.705	1531.03
736.89	1418.39
737.076	1506.45
737.262	1356.95
737.447	1422.48
737.633	1346.71
737.819	1363.09
738.004	1371.29
738.19	1332.37
738.375	1379.48
738.561	1359
738.747	1404.05
738.932	1354.9
739.118	1408.15
739.303	1414.29
739.489	1367.19
739.674	1371.29
739.859	1342.61
740.045	1309.85
740.23	1350.81
740.416	1350.81
740.601	1359
740.786	1313.94
740.972	1295.51
741.157	1320.09
741.342	1250.46
741.528	1270.94
741.713	1338.52
741.898	1195.16
742.084	1195.16
742.269	1045.66
742.454	1189.02
742.639	1295.51
742.824	1209.5
743.01	1223.83
743.195	1258.65
743.38	1148.06
743.565	1191.06
743.75	1238.17
743.935	1211.54
744.12	1223.83
744.305	1107.1
744.49	1256.6
744.675	1217.69
744.86	1070.23
745.045	1146.01
745.23	1260.7
745.415	1166.49
745.6	1229.98
745.785	1166.49
745.97	1143.96
746.155	1127.58
746.34	1070.23
746.525	1057.95
746.71	1162.39
746.895	1107.1
747.079	1123.48
747.264	990.36
747.449	1160.34
747.634	1029.27
747.819	1037.47
748.003	1029.27
748.188	1055.9
748.373	1094.81
748.557	996.51
748.742	1096.86
748.927	951.45
749.111	994.46
749.296	963.74
749.481	973.98
749.665	1000.6
749.85	951.45
750.034	965.79
750.219	1023.13
750.404	986.27
750.588	986.27
750.773	945.31
750.957	998.56
751.141	969.88
751.326	967.84
751.51	959.64
751.695	994.46
751.879	873.63
752.064	947.36
752.248	965.79
752.432	935.07
752.617	955.55
752.801	965.79
752.985	885.92
753.17	883.87
753.354	830.62
753.538	869.53
753.722	851.1
753.907	849.05
754.091	851.1
754.275	902.3
754.459	824.48
754.643	752.8
754.828	865.44
755.012	773.28
755.196	804
755.38	857.25
755.564	853.15
755.748	820.38
755.932	859.29
756.116	810.14
756.3	777.37
756.484	754.85
756.668	736.42
756.852	769.18
757.036	722.08
757.22	730.27
757.404	681.12
757.588	767.13
757.772	769.18
757.956	816.29
758.14	742.56
758.323	646.3
758.507	709.79
758.691	705.7
758.875	638.11
759.059	640.16
759.242	724.13
759.426	720.03
759.61	730.27
759.794	672.93
759.977	781.47
760.161	674.98
760.345	656.54
760.528	728.22
760.712	697.5
760.895	658.59
761.079	666.78
761.263	672.93
761.446	625.83
761.63	693.41
761.813	605.35
761.997	701.6
762.18	658.59
762.364	529.57
762.547	623.78
762.731	679.07
762.914	660.64
763.098	611.49
763.281	644.26
763.464	642.21
763.648	597.15
763.831	709.79
764.015	617.63
764.198	572.58
764.381	629.92
764.564	603.3
764.748	595.11
764.931	609.44
765.114	527.52
765.297	566.43
765.481	623.78
765.664	570.53
765.847	670.88
766.03	580.77
766.213	607.39
766.397	621.73
766.58	562.34
766.763	648.35
766.946	642.21
767.129	560.29
767.312	607.39
767.495	574.63
767.678	603.3
767.861	554.15
768.044	554.15
768.227	558.24
768.41	541.86
768.593	574.63
768.776	564.39
768.959	502.95
769.142	517.28
769.324	582.82
769.507	634.02
769.69	584.87
769.873	601.25
770.056	578.72
770.239	552.1
770.421	558.24
770.604	511.14
770.787	519.33
770.97	566.43
771.152	521.38
771.335	502.95
771.518	504.99
771.7	509.09
771.883	601.25
772.066	470.18
772.248	527.52
772.431	545.95
772.613	545.95
772.796	482.47
772.978	521.38
773.161	541.86
773.343	492.71
773.526	509.09
773.708	494.76
773.891	500.9
774.073	509.09
774.256	492.71
774.438	554.15
774.621	484.52
774.803	539.81
774.985	517.28
775.168	464.04
775.35	578.72
775.532	511.14
775.715	474.28
775.897	529.57
776.079	556.19
776.261	464.04
776.444	486.56
776.626	449.7
776.808	437.41
776.99	529.57
777.173	461.99
777.355	490.66
777.537	464.04
777.719	431.27
777.901	392.36
778.083	494.76
778.265	437.41
778.447	394.4
778.629	343.21
778.811	410.79
778.993	513.19
779.175	418.98
779.357	482.47
779.539	396.45
779.721	476.32
779.903	380.07
780.085	384.16
780.267	392.36
780.449	388.26
780.631	398.5
780.812	439.46
780.994	357.54
781.176	320.68
781.358	404.64
781.54	392.36
781.721	433.32
781.903	357.54
782.085	396.45
782.267	394.4
782.448	322.73
782.63	328.87
782.812	437.41
782.993	373.92
783.175	363.69
783.357	355.49
783.538	328.87
783.72	402.6
783.901	365.73
784.083	349.35
784.264	224.42
784.446	328.87
784.627	365.73
784.809	332.97
784.99	285.86
785.172	314.53
785.353	318.63
785.535	271.53
785.716	271.53
785.897	324.77
786.079	328.87
786.26	310.44
786.441	373.92
786.623	322.73
786.804	332.97
786.985	306.34
787.167	357.54
787.348	287.91
787.529	306.34
787.71	384.16
787.891	267.43
788.073	316.58
788.254	339.11
788.435	292.01
788.616	246.95
788.797	234.66
788.978	232.62
789.159	275.62
789.34	183.46
789.522	251.05
789.703	228.52
789.884	263.33
790.065	332.97
790.246	259.24
790.427	240.81
790.607	283.81
790.788	287.91
790.969	220.33
791.15	289.96
791.331	244.9
791.512	244.9
791.693	226.47
791.874	175.27
792.054	283.81
792.235	289.96
792.416	193.7
792.597	257.19
792.778	218.28
792.958	267.43
793.139	234.66
793.32	152.74
793.5	251.05
793.681	255.14
793.862	199.85
794.042	267.43
794.223	208.04
794.404	208.04
794.584	150.7
794.765	169.13
794.945	167.08
795.126	171.18
795.306	230.57
795.487	195.75
795.667	201.9
795.848	261.29
796.028	244.9
796.209	191.66
796.389	232.62
796.57	203.94
796.75	234.66
796.93	173.22
797.111	208.04
797.291	165.03
797.471	273.57
797.652	257.19
797.832	226.47
798.012	281.77
798.192	119.98
798.373	181.42
798.553	185.51
798.733	191.66
798.913	165.03
799.093	185.51
799.274	189.61
799.454	216.23
799.634	148.65
799.814	253.09
799.994	165.03
800.174	234.66
800.354	228.52
800.534	146.6
800.714	212.14
800.894	158.89
801.074	132.26
801.254	158.89
801.434	126.12
801.614	83.11
801.794	144.55
801.974	361.64
802.154	126.12
802.334	187.56
802.514	122.02
802.693	220.33
802.873	203.94
803.053	115.88
803.233	111.78
803.413	218.28
803.592	193.7
803.772	220.33
803.952	197.8
804.131	210.09
804.311	156.84
804.491	158.89
804.67	124.07
804.85	165.03
805.03	201.9
805.209	156.84
805.389	160.94
805.568	119.98
805.748	140.46
805.928	171.18
806.107	177.32
806.287	160.94
806.466	130.22
806.646	148.65
806.825	122.02
807.004	181.42
807.184	144.55
807.363	138.41
807.543	191.66
807.722	111.78
807.901	138.41
808.081	216.23
808.26	193.7
808.439	111.78
808.619	85.16
808.798	152.74
808.977	175.27
809.156	128.17
809.336	134.31
809.515	117.93
809.694	99.5
809.873	89.26
810.052	101.55
810.231	154.79
810.411	31.91
810.59	146.6
810.769	173.22
810.948	212.14
811.127	148.65
811.306	105.64
811.485	97.45
811.664	52.39
811.843	113.83
812.022	126.12
812.201	122.02
812.38	27.82
812.559	44.2
812.737	126.12
812.916	148.65
813.095	148.65
813.274	85.16
813.453	113.83
813.632	115.88
813.811	115.88
813.989	33.96
814.168	146.6
814.347	111.78
814.526	117.93
814.704	177.32
814.883	101.55
815.062	126.12
815.24	109.74
815.419	48.3
815.598	99.5
815.776	160.94
815.955	187.56
816.133	154.79
816.312	109.74
816.49	50.35
816.669	54.44
816.847	60.59
817.026	101.55
817.204	93.35
817.383	124.07
817.561	97.45
817.74	101.55
817.918	85.16
818.097	158.89
818.275	93.35
818.453	81.07
818.632	97.45
818.81	109.74
818.988	101.55
819.167	48.3
819.345	68.78
819.523	95.4
819.701	111.78
819.879	134.31
820.058	101.55
820.236	66.73
820.414	46.25
820.592	193.7
820.77	124.07
820.948	128.17
821.127	138.41
821.305	115.88
821.483	58.54
821.661	60.59
821.839	126.12
822.017	128.17
822.195	152.74
822.373	122.02
822.551	79.02
822.729	105.64
822.907	126.12
823.085	23.72
823.262	58.54
823.44	142.5
823.618	58.54
823.796	68.78
823.974	74.92
824.152	103.59
824.329	146.6
824.507	44.2
824.685	58.54
824.863	66.73
825.04	33.96
825.218	70.83
825.396	111.78
825.574	152.74
825.751	62.63
825.929	60.59
826.107	31.91
826.284	54.44
826.462	15.53
826.639	142.5
826.817	58.54
826.994	25.77
827.172	64.68
827.349	126.12
827.527	36.01
827.704	126.12
827.882	72.87
828.059	52.39
828.237	103.59
828.414	128.17
828.591	42.15
828.769	42.15
828.946	54.44
829.124	68.78
829.301	5.29
829.478	87.21
829.655	89.26
829.833	74.92
830.01	58.54
830.187	68.78
830.364	29.87
830.542	87.21
830.719	72.87
830.896	62.63
831.073	105.64
831.25	109.74
831.427	48.3
831.604	52.39
831.782	58.54
831.959	187.56
832.136	25.77
832.313	93.35
832.49	117.93
832.667	46.25
832.844	25.77
833.021	56.49
833.198	52.39
833.374	97.45
833.551	66.73
833.728	89.26
833.905	132.26
834.082	89.26
834.259	25.77
834.436	38.06
834.612	13.48
834.789	31.91
834.966	138.41
835.143	-4.95
835.319	17.58
835.496	85.16
835.673	23.72
835.85	89.26
836.026	95.4
836.203	60.59
836.38	83.11
836.556	101.55
836.733	48.3
836.909	165.03
837.086	72.87
837.262	-4.95
837.439	38.06
837.616	33.96
837.792	38.06
837.968	146.6
838.145	5.29
838.321	70.83
838.498	50.35
838.674	60.59
838.851	62.63
839.027	62.63
839.203	13.48
839.38	33.96
839.556	36.01
839.732	19.63
839.909	27.82
840.085	44.2
840.261	56.49
840.437	33.96
840.614	-7
840.79	21.67
840.966	11.43
841.142	38.06
841.318	68.78
841.494	54.44
841.671	70.83
841.847	64.68
842.023	-27.48
842.199	99.5
842.375	44.2
842.551	3.24
842.727	36.01
842.903	23.72
843.079	23.72
843.255	31.91
843.431	36.01
843.607	29.87
843.783	46.25
843.959	-2.9
844.134	44.2
844.31	107.69
844.486	21.67
844.662	23.72
844.838	87.21
845.013	21.67
845.189	52.39
845.365	54.44
845.541	-43.86
845.716	58.54
845.892	66.73
846.068	105.64
846.244	48.3
846.419	60.59
846.595	17.58
846.77	17.58
846.946	33.96
847.122	50.35
847.297	19.63
847.473	25.77
847.648	-19.29
847.824	-13.14
847.999	89.26
848.175	3.24
848.35	-4.95
848.526	-2.9
848.701	9.39
848.876	130.22
849.052	68.78
849.227	-13.14
849.403	23.72
849.578	36.01
849.753	13.48
849.929	89.26
850.104	79.02
850.279	64.68
850.454	48.3
850.63	97.45
850.805	27.82
850.98	21.67
851.155	-4.95
851.33	89.26
851.505	58.54
851.681	27.82
851.856	-7
852.031	-23.38
852.206	36.01
852.381	46.25
852.556	-9.05
852.731	89.26
852.906	1.19
853.081	-2.9
853.256	44.2
853.431	44.2
853.606	11.43
853.781	-4.95
853.956	21.67
854.131	19.63
854.305	1.19
854.48	105.64
854.655	79.02
854.83	1.19
855.005	64.68
855.18	25.77
855.354	29.87
855.529	3.24
855.704	29.87
855.879	38.06
856.053	54.44
856.228	66.73
856.403	60.59
856.577	58.54
856.752	27.82
856.926	15.53
857.101	46.25
857.276	-23.38
857.45	70.83
857.625	13.48
857.799	17.58
857.974	85.16
858.148	66.73
858.323	42.15
858.497	79.02
858.672	5.29
858.846	-25.43
859.02	58.54
859.195	29.87
859.369	48.3
859.543	42.15
859.718	83.11
859.892	25.77
860.066	31.91
860.241	17.58
860.415	25.77
860.589	50.35
860.763	46.25
860.938	-4.95
861.112	25.77
861.286	21.67
861.46	52.39
861.634	25.77
861.808	-4.95
861.982	1.19
862.157	46.25
862.331	44.2
862.505	13.48
862.679	46.25
862.853	11.43
863.027	-39.76
863.201	19.63
863.375	62.63
863.549	54.44
863.722	76.97
863.896	-7
864.07	13.48
864.244	19.63
864.418	33.96
864.592	19.63
864.766	-0.85
864.939	44.2
865.113	83.11
865.287	101.55
865.461	-2.9
865.634	19.63
865.808	-66.39
865.982	74.92
866.156	19.63
866.329	-13.14
866.503	3.24
866.676	-23.38
866.85	25.77
867.024	1.19
867.197	11.43
867.371	-21.33
867.544	58.54
867.718	64.68
867.891	46.25
868.065	48.3
868.238	27.82
868.412	68.78
868.585	-13.14
868.759	5.29
868.932	-2.9
869.105	-27.48
869.279	66.73
869.452	21.67
869.625	-27.48
869.799	79.02
869.972	-35.67
870.145	-11.09
870.319	-58.2
870.492	17.58
870.665	25.77
870.838	31.91
871.011	19.63
871.185	42.15
871.358	3.24
871.531	31.91
871.704	-0.85
871.877	9.39
872.05	42.15
872.223	-29.52
872.396	11.43
872.569	29.87
872.742	76.97
872.915	31.91
873.088	-9.05
873.261	97.45
873.434	52.39
873.607	-17.24
873.78	40.11
873.953	9.39
874.126	79.02
874.299	19.63
874.471	7.34
874.644	79.02
874.817	60.59
874.99	23.72
875.163	36.01
875.335	111.78
875.508	-2.9
875.681	124.07
875.853	5.29
876.026	81.07
876.199	74.92
876.371	87.21
876.544	52.39
876.717	-39.76
876.889	-9.05
877.062	-19.29
877.234	-13.14
877.407	19.63
877.579	17.58
877.752	66.73
877.924	-27.48
878.097	93.35
878.269	89.26
878.442	7.34
878.614	50.35
878.786	-35.67
878.959	29.87
879.131	99.5
879.303	54.44
879.476	-7
879.648	5.29
879.82	-35.67
879.993	19.63
880.165	25.77
880.337	19.63
880.509	29.87
880.681	-0.85
880.854	70.83
881.026	23.72
881.198	70.83
881.37	-25.43
881.542	52.39
881.714	54.44
881.886	79.02
882.058	-7
882.23	60.59
882.402	-56.15
882.574	46.25
882.746	-15.19
882.918	31.91
883.09	72.87
883.262	-0.85
883.434	23.72
883.606	3.24
883.778	-17.24
883.95	7.34
884.122	-4.95
884.293	-15.19
884.465	25.77
884.637	40.11
884.809	25.77
884.98	-11.09
885.152	3.24
885.324	-41.81
885.496	-13.14
885.667	13.48
885.839	46.25
886.011	52.39
886.182	64.68
886.354	15.53
886.525	-11.09
886.697	21.67
886.869	42.15
887.04	62.63
887.212	-2.9
887.383	52.39
887.555	-4.95
887.726	-37.72
887.897	-54.1
888.069	-4.95
888.24	15.53
888.412	7.34
888.583	44.2
888.754	-47.96
888.926	52.39
889.097	9.39
889.268	-64.34
889.44	38.06
889.611	7.34
889.782	58.54
889.953	70.83
890.125	36.01
890.296	1.19
890.467	-4.95
890.638	-19.29
890.809	103.59
890.98	-52.05
891.151	25.77
891.323	44.2
891.494	-52.05
891.665	-19.29
891.836	48.3
892.007	-52.05
892.178	11.43
892.349	-15.19
892.52	40.11
892.691	62.63
892.862	7.34
893.032	68.78
893.203	21.67
893.374	-17.24
893.545	52.39
893.716	27.82
893.887	-2.9
894.057	-17.24
894.228	-11.09
894.399	-35.67
894.57	-19.29
894.74	-21.33
894.911	74.92
895.082	19.63
895.253	38.06
895.423	46.25
895.594	-0.85
895.764	-0.85
895.935	17.58
896.106	50.35
896.276	1.19
896.447	-11.09
896.617	46.25
896.788	103.59
896.958	-113.49
897.129	5.29
897.299	11.43
897.47	62.63
897.64	31.91
897.81	-37.72
897.981	7.34
898.151	-50
898.322	-13.14
898.492	58.54
898.662	7.34
898.832	54.44
899.003	33.96
899.173	-21.33
899.343	31.91
899.513	60.59
