Data from USB4F104151__198__13-59-40-786.txt Node

Date: Thu Mar 13 13:59:40 EDT 2025
User: louis
Spectrometer: USB4F10415
Trigger mode: 4
Integration Time (sec): 1.000000E-2
Scans to average: 1
Electric dark correction enabled: true
Nonlinearity correction enabled: false
Boxcar width: 0
XAxis mode: Wavelengths
Number of Pixels in Spectrum: 3648
>>>>>Begin Spectral Data<<<<<
178.204	-53.76
178.424	-53.76
178.644	-53.76
178.864	-82.43
179.084	-25.09
179.304	-47.62
179.524	48.64
179.744	15.87
179.964	-16.9
180.184	-6.66
180.404	32.26
180.624	-45.57
180.844	-10.75
181.064	-27.14
181.283	58.88
181.503	1.54
181.723	-2.56
181.943	15.87
182.163	5.63
182.383	-0.51
182.602	28.16
182.822	-12.8
183.042	93.69
183.262	-31.23
183.482	17.92
183.701	3.58
183.921	26.11
184.141	32.26
184.361	15.87
184.58	9.73
184.8	-23.04
185.02	-2.56
185.239	1.54
185.459	-18.94
185.679	26.11
185.898	26.11
186.118	22.02
186.338	-2.56
186.557	13.82
186.777	-16.9
186.997	3.58
187.216	7.68
187.436	36.35
187.655	-68.09
187.875	-10.75
188.095	-27.14
188.314	19.97
188.534	-18.94
188.753	1.54
188.973	-16.9
189.192	32.26
189.412	1.54
189.631	38.4
189.851	1.54
190.07	13.82
190.29	1.54
190.509	30.21
190.729	-6.66
190.948	62.98
191.168	44.54
191.387	9.73
191.607	40.45
191.826	30.21
192.045	-2.56
192.265	-10.75
192.484	15.87
192.704	34.3
192.923	-14.85
193.142	79.36
193.362	50.69
193.581	-43.52
193.8	26.11
194.02	73.21
194.239	-0.51
194.458	-0.51
194.678	-31.23
194.897	46.59
195.116	-80.38
195.335	71.17
195.555	30.21
195.774	52.74
195.993	81.41
196.212	30.21
196.432	-47.62
196.651	87.55
196.87	19.97
197.089	17.92
197.308	-35.33
197.528	52.74
197.747	-23.04
197.966	-16.9
198.185	-6.66
198.404	-51.71
198.623	1.54
198.842	7.68
199.062	13.82
199.281	28.16
199.5	9.73
199.719	-23.04
199.938	42.5
200.157	-35.33
200.376	-14.85
200.595	50.69
200.814	34.3
201.033	11.78
201.252	52.74
201.471	15.87
201.69	-12.8
201.909	26.11
202.128	-23.04
202.347	-12.8
202.566	65.02
202.785	-12.8
203.004	71.17
203.223	15.87
203.442	-49.66
203.661	22.02
203.879	-37.38
204.098	-4.61
204.317	-14.85
204.536	-25.09
204.755	-33.28
204.974	-84.48
205.193	79.36
205.411	65.02
205.63	-20.99
205.849	83.45
206.068	-2.56
206.287	26.11
206.505	28.16
206.724	60.93
206.943	3.58
207.162	11.78
207.381	38.4
207.599	15.87
207.818	-35.33
208.037	-37.38
208.255	15.87
208.474	42.5
208.693	46.59
208.911	22.02
209.13	36.35
209.349	-6.66
209.567	13.82
209.786	-33.28
210.005	-51.71
210.223	42.5
210.442	71.17
210.661	-27.14
210.879	81.41
211.098	69.12
211.316	9.73
211.535	44.54
211.753	50.69
211.972	36.35
212.191	40.45
212.409	71.17
212.628	1.54
212.846	19.97
213.065	62.98
213.283	95.74
213.502	-76.29
213.72	30.21
213.938	-16.9
214.157	11.78
214.375	89.6
214.594	15.87
214.812	30.21
215.031	9.73
215.249	15.87
215.467	-10.75
215.686	32.26
215.904	15.87
216.122	-20.99
216.341	54.78
216.559	42.5
216.778	-2.56
216.996	40.45
217.214	32.26
217.432	9.73
217.651	7.68
217.869	54.78
218.087	5.63
218.306	-35.33
218.524	112.13
218.742	19.97
218.96	46.59
219.179	-0.51
219.397	26.11
219.615	-10.75
219.833	-2.56
220.051	-27.14
220.27	101.89
220.488	54.78
220.706	-25.09
220.924	32.26
221.142	26.11
221.36	15.87
221.578	-0.51
221.796	-47.62
222.015	-6.66
222.233	15.87
222.451	24.06
222.669	-64
222.887	32.26
223.105	83.45
223.323	-41.47
223.541	1.54
223.759	26.11
223.977	32.26
224.195	73.21
224.413	-6.66
224.631	30.21
224.849	-80.38
225.067	58.88
225.285	-6.66
225.503	7.68
225.721	13.82
225.939	22.02
226.157	40.45
226.375	126.46
226.592	-70.14
226.81	58.88
227.028	1.54
227.246	32.26
227.464	-53.76
227.682	-29.18
227.9	13.82
228.117	-18.94
228.335	26.11
228.553	9.73
228.771	-2.56
228.989	38.4
229.206	30.21
229.424	-2.56
229.642	-51.71
229.86	36.35
230.077	38.4
230.295	17.92
230.513	71.17
230.731	28.16
230.948	36.35
231.166	1.54
231.384	5.63
231.601	9.73
231.819	19.97
232.037	22.02
232.254	-31.23
232.472	83.45
232.689	-12.8
232.907	-2.56
233.125	-23.04
233.342	-0.51
233.56	-23.04
233.777	-41.47
233.995	-23.04
234.213	-41.47
234.43	22.02
234.648	75.26
234.865	40.45
235.083	5.63
235.3	17.92
235.518	62.98
235.735	-14.85
235.953	-33.28
236.17	-76.29
236.388	-25.09
236.605	22.02
236.822	11.78
237.04	44.54
237.257	-2.56
237.475	-84.48
237.692	36.35
237.909	19.97
238.127	101.89
238.344	24.06
238.562	-12.8
238.779	1.54
238.996	54.78
239.214	28.16
239.431	50.69
239.648	5.63
239.865	48.64
240.083	112.13
240.3	15.87
240.517	-20.99
240.735	28.16
240.952	-41.47
241.169	50.69
241.386	46.59
241.603	62.98
241.821	42.5
242.038	-20.99
242.255	22.02
242.472	24.06
242.689	1.54
242.907	44.54
243.124	42.5
243.341	65.02
243.558	77.31
243.775	69.12
243.992	-39.42
244.209	-2.56
244.426	28.16
244.643	-14.85
244.86	48.64
245.078	5.63
245.295	26.11
245.512	73.21
245.729	36.35
245.946	26.11
246.163	24.06
246.38	11.78
246.597	-39.42
246.814	-6.66
247.031	15.87
247.248	22.02
247.464	54.78
247.681	24.06
247.898	67.07
248.115	50.69
248.332	15.87
248.549	40.45
248.766	65.02
248.983	58.88
249.2	5.63
249.417	54.78
249.633	19.97
249.85	48.64
250.067	-18.94
250.284	-4.61
250.501	44.54
250.717	114.17
250.934	-18.94
251.151	73.21
251.368	-2.56
251.585	9.73
251.801	22.02
252.018	48.64
252.235	-2.56
252.451	-27.14
252.668	9.73
252.885	19.97
253.102	42.5
253.318	110.08
253.535	99.84
253.752	24.06
253.968	-33.28
254.185	22.02
254.401	28.16
254.618	42.5
254.835	24.06
255.051	36.35
255.268	9.73
255.484	40.45
255.701	-2.56
255.917	48.64
256.134	15.87
256.351	30.21
256.567	-12.8
256.784	130.56
257	-0.51
257.217	48.64
257.433	67.07
257.65	-51.71
257.866	38.4
258.082	54.78
258.299	-0.51
258.515	-2.56
258.732	-8.7
258.948	-18.94
259.165	54.78
259.381	79.36
259.597	24.06
259.814	62.98
260.03	13.82
260.246	3.58
260.463	69.12
260.679	81.41
260.895	38.4
261.112	-70.14
261.328	17.92
261.544	52.74
261.761	65.02
261.977	22.02
262.193	15.87
262.409	40.45
262.626	9.73
262.842	26.11
263.058	-61.95
263.274	32.26
263.49	1.54
263.707	30.21
263.923	17.92
264.139	48.64
264.355	-39.42
264.571	56.83
264.787	-2.56
265.004	128.51
265.22	67.07
265.436	3.58
265.652	26.11
265.868	-23.04
266.084	28.16
266.3	1.54
266.516	30.21
266.732	-33.28
266.948	30.21
267.164	38.4
267.38	54.78
267.596	97.79
267.812	-6.66
268.028	26.11
268.244	-96.77
268.46	5.63
268.676	7.68
268.892	93.69
269.108	13.82
269.324	-25.09
269.54	-41.47
269.756	-8.7
269.972	24.06
270.188	-29.18
270.403	62.98
270.619	28.16
270.835	44.54
271.051	69.12
271.267	22.02
271.483	-23.04
271.698	15.87
271.914	54.78
272.13	26.11
272.346	73.21
272.562	-49.66
272.777	34.3
272.993	3.58
273.209	40.45
273.425	1.54
273.64	-27.14
273.856	65.02
274.072	11.78
274.287	3.58
274.503	144.89
274.719	71.17
274.934	26.11
275.15	-68.09
275.366	120.32
275.581	22.02
275.797	15.87
276.012	-6.66
276.228	91.65
276.444	22.02
276.659	48.64
276.875	11.78
277.09	-12.8
277.306	42.5
277.521	73.21
277.737	30.21
277.952	28.16
278.168	-27.14
278.383	42.5
278.599	26.11
278.814	-0.51
279.03	-68.09
279.245	17.92
279.461	52.74
279.676	3.58
279.892	13.82
280.107	36.35
280.322	1.54
280.538	15.87
280.753	-8.7
280.969	83.45
281.184	24.06
281.399	28.16
281.615	-10.75
281.83	11.78
282.045	34.3
282.26	15.87
282.476	7.68
282.691	95.74
282.906	-10.75
283.122	71.17
283.337	13.82
283.552	108.03
283.767	71.17
283.983	32.26
284.198	13.82
284.413	22.02
284.628	38.4
284.843	5.63
285.058	1.54
285.274	3.58
285.489	38.4
285.704	24.06
285.919	5.63
286.134	95.74
286.349	-10.75
286.564	22.02
286.779	77.31
286.995	62.98
287.21	36.35
287.425	50.69
287.64	36.35
287.855	58.88
288.07	24.06
288.285	-8.7
288.5	56.83
288.715	89.6
288.93	65.02
289.145	54.78
289.36	36.35
289.575	3.58
289.79	13.82
290.004	42.5
290.219	9.73
290.434	46.59
290.649	15.87
290.864	38.4
291.079	-37.38
291.294	87.55
291.509	-10.75
291.724	56.83
291.938	28.16
292.153	30.21
292.368	-43.52
292.583	65.02
292.798	17.92
293.012	62.98
293.227	52.74
293.442	30.21
293.657	101.89
293.871	15.87
294.086	46.59
294.301	69.12
294.516	46.59
294.73	40.45
294.945	24.06
295.16	28.16
295.374	-0.51
295.589	71.17
295.804	-0.51
296.018	17.92
296.233	13.82
296.447	38.4
296.662	-27.14
296.877	67.07
297.091	38.4
297.306	13.82
297.52	52.74
297.735	77.31
297.949	17.92
298.164	32.26
298.378	3.58
298.593	3.58
298.807	-35.33
299.022	54.78
299.236	73.21
299.451	36.35
299.665	5.63
299.88	19.97
300.094	28.16
300.309	17.92
300.523	-0.51
300.737	62.98
300.952	32.26
301.166	32.26
301.381	71.17
301.595	11.78
301.809	22.02
302.024	17.92
302.238	1.54
302.452	22.02
302.667	-33.28
302.881	34.3
303.095	54.78
303.309	7.68
303.524	54.78
303.738	42.5
303.952	15.87
304.166	-2.56
304.381	-31.23
304.595	38.4
304.809	38.4
305.023	32.26
305.237	69.12
305.452	9.73
305.666	22.02
305.88	65.02
306.094	-33.28
306.308	48.64
306.522	-27.14
306.736	44.54
306.95	36.35
307.164	-18.94
307.379	11.78
307.593	52.74
307.807	-10.75
308.021	17.92
308.235	15.87
308.449	-27.14
308.663	71.17
308.877	1.54
309.091	32.26
309.305	3.58
309.519	1.54
309.733	38.4
309.947	54.78
310.161	-29.18
310.374	71.17
310.588	83.45
310.802	17.92
311.016	40.45
311.23	24.06
311.444	-45.57
311.658	-2.56
311.872	42.5
312.085	28.16
312.299	-14.85
312.513	60.93
312.727	48.64
312.941	9.73
313.154	5.63
313.368	1.54
313.582	77.31
313.796	-2.56
314.009	40.45
314.223	42.5
314.437	38.4
314.651	24.06
314.864	3.58
315.078	-53.76
315.292	-6.66
315.505	30.21
315.719	132.61
315.933	34.3
316.146	65.02
316.36	54.78
316.573	5.63
316.787	1.54
317.001	13.82
317.214	62.98
317.428	58.88
317.641	22.02
317.855	32.26
318.068	50.69
318.282	30.21
318.495	116.22
318.709	54.78
318.922	24.06
319.136	-0.51
319.349	13.82
319.563	65.02
319.776	-2.56
319.99	-0.51
320.203	7.68
320.417	75.26
320.63	52.74
320.843	46.59
321.057	-27.14
321.27	95.74
321.483	73.21
321.697	28.16
321.91	13.82
322.124	-2.56
322.337	40.45
322.55	15.87
322.763	50.69
322.977	67.07
323.19	30.21
323.403	22.02
323.617	79.36
323.83	44.54
324.043	-66.05
324.256	24.06
324.469	1.54
324.683	75.26
324.896	-55.81
325.109	3.58
325.322	71.17
325.535	38.4
325.748	34.3
325.962	3.58
326.175	56.83
326.388	50.69
326.601	-23.04
326.814	48.64
327.027	-68.09
327.24	36.35
327.453	32.26
327.666	24.06
327.879	28.16
328.092	-10.75
328.305	22.02
328.518	17.92
328.731	-25.09
328.944	15.87
329.157	56.83
329.37	-12.8
329.583	1.54
329.796	40.45
330.009	22.02
330.222	-33.28
330.435	19.97
330.648	114.17
330.861	44.54
331.073	26.11
331.286	-2.56
331.499	108.03
331.712	46.59
331.925	52.74
332.138	13.82
332.35	38.4
332.563	44.54
332.776	58.88
332.989	22.02
333.202	48.64
333.414	34.3
333.627	148.99
333.84	15.87
334.053	73.21
334.265	75.26
334.478	42.5
334.691	58.88
334.903	32.26
335.116	-4.61
335.329	24.06
335.541	56.83
335.754	22.02
335.966	26.11
336.179	5.63
336.392	22.02
336.604	65.02
336.817	48.64
337.029	54.78
337.242	13.82
337.454	32.26
337.667	93.69
337.88	13.82
338.092	89.6
338.305	-20.99
338.517	67.07
338.729	1.54
338.942	50.69
339.154	-29.18
339.367	26.11
339.579	56.83
339.792	-12.8
340.004	69.12
340.217	65.02
340.429	40.45
340.641	-37.38
340.854	103.93
341.066	50.69
341.278	58.88
341.491	122.37
341.703	99.84
341.915	-27.14
342.128	28.16
342.34	73.21
342.552	79.36
342.764	24.06
342.977	103.93
343.189	36.35
343.401	105.98
343.613	91.65
343.826	38.4
344.038	-33.28
344.25	50.69
344.462	28.16
344.674	126.46
344.886	48.64
345.099	28.16
345.311	56.83
345.523	-25.09
345.735	-20.99
345.947	32.26
346.159	9.73
346.371	32.26
346.583	87.55
346.795	114.17
347.007	91.65
347.219	30.21
347.431	54.78
347.643	81.41
347.855	34.3
348.067	1.54
348.279	-33.28
348.491	-25.09
348.703	99.84
348.915	26.11
349.127	32.26
349.339	46.59
349.551	36.35
349.763	1.54
349.975	28.16
350.187	30.21
350.399	15.87
350.61	7.68
350.822	-74.24
351.034	87.55
351.246	75.26
351.458	32.26
351.669	89.6
351.881	-14.85
352.093	71.17
352.305	1.54
352.517	9.73
352.728	79.36
352.94	-2.56
353.152	52.74
353.363	30.21
353.575	93.69
353.787	48.64
353.999	71.17
354.21	38.4
354.422	1.54
354.633	13.82
354.845	40.45
355.057	114.17
355.268	79.36
355.48	-20.99
355.692	65.02
355.903	-8.7
356.115	46.59
356.326	-23.04
356.538	50.69
356.749	48.64
356.961	9.73
357.172	-20.99
357.384	36.35
357.595	17.92
357.807	54.78
358.018	32.26
358.23	105.98
358.441	44.54
358.653	124.41
358.864	7.68
359.075	32.26
359.287	75.26
359.498	52.74
359.709	46.59
359.921	36.35
360.132	56.83
360.344	5.63
360.555	58.88
360.766	22.02
360.977	17.92
361.189	95.74
361.4	40.45
361.611	9.73
361.823	62.98
362.034	118.27
362.245	13.82
362.456	-100.86
362.667	99.84
362.879	50.69
363.09	54.78
363.301	124.41
363.512	42.5
363.723	95.74
363.935	42.5
364.146	13.82
364.357	30.21
364.568	24.06
364.779	36.35
364.99	89.6
365.201	-37.38
365.412	54.78
365.623	-2.56
365.834	110.08
366.045	-6.66
366.256	126.46
366.467	3.58
366.678	89.6
366.889	56.83
367.1	140.8
367.311	97.79
367.522	48.64
367.733	30.21
367.944	11.78
368.155	36.35
368.366	34.3
368.577	5.63
368.788	48.64
368.999	-6.66
369.209	26.11
369.42	67.07
369.631	-0.51
369.842	15.87
370.053	118.27
370.264	65.02
370.474	77.31
370.685	22.02
370.896	-35.33
371.107	-29.18
371.317	52.74
371.528	11.78
371.739	97.79
371.95	15.87
372.16	50.69
372.371	-14.85
372.582	3.58
372.792	32.26
373.003	46.59
373.214	32.26
373.424	30.21
373.635	103.93
373.846	44.54
374.056	-66.05
374.267	13.82
374.477	89.6
374.688	124.41
374.898	-49.66
375.109	124.41
375.319	65.02
375.53	42.5
375.74	71.17
375.951	62.98
376.161	40.45
376.372	91.65
376.582	36.35
376.793	22.02
377.003	56.83
377.214	48.64
377.424	54.78
377.635	73.21
377.845	19.97
378.055	56.83
378.266	32.26
378.476	-10.75
378.686	71.17
378.897	112.13
379.107	89.6
379.317	32.26
379.528	52.74
379.738	79.36
379.948	-35.33
380.158	67.07
380.369	87.55
380.579	11.78
380.789	56.83
380.999	101.89
381.21	91.65
381.42	26.11
381.63	36.35
381.84	50.69
382.05	-41.47
382.261	85.5
382.471	67.07
382.681	73.21
382.891	97.79
383.101	62.98
383.311	15.87
383.521	24.06
383.731	30.21
383.941	42.5
384.151	40.45
384.361	69.12
384.571	38.4
384.781	19.97
384.991	83.45
385.201	73.21
385.411	93.69
385.621	17.92
385.831	42.5
386.041	40.45
386.251	75.26
386.461	62.98
386.671	-4.61
386.881	54.78
387.091	69.12
387.301	91.65
387.511	62.98
387.72	11.78
387.93	22.02
388.14	114.17
388.35	58.88
388.56	54.78
388.769	65.02
388.979	32.26
389.189	54.78
389.399	32.26
389.609	30.21
389.818	120.32
390.028	50.69
390.238	108.03
390.447	67.07
390.657	122.37
390.867	112.13
391.076	-23.04
391.286	62.98
391.496	54.78
391.705	15.87
391.915	79.36
392.125	101.89
392.334	105.98
392.544	5.63
392.753	91.65
392.963	26.11
393.172	38.4
393.382	62.98
393.591	105.98
393.801	38.4
394.01	108.03
394.22	46.59
394.429	138.75
394.639	79.36
394.848	81.41
395.058	116.22
395.267	132.61
395.477	116.22
395.686	118.27
395.895	128.51
396.105	110.08
396.314	112.13
396.524	89.6
396.733	87.55
396.942	157.18
397.152	112.13
397.361	185.85
397.57	97.79
397.78	120.32
397.989	124.41
398.198	140.8
398.407	105.98
398.617	144.89
398.826	40.45
399.035	153.09
399.244	95.74
399.453	105.98
399.663	108.03
399.872	85.5
400.081	161.28
400.29	112.13
400.499	105.98
400.708	65.02
400.917	101.89
401.127	95.74
401.336	99.84
401.545	89.6
401.754	38.4
401.963	130.56
402.172	155.13
402.381	138.75
402.59	136.7
402.799	140.8
403.008	140.8
403.217	83.45
403.426	112.13
403.635	202.24
403.844	142.85
404.053	110.08
404.262	138.75
404.471	144.89
404.68	173.57
404.888	177.66
405.097	140.8
405.306	93.69
405.515	214.52
405.724	144.89
405.933	128.51
406.142	241.15
406.35	218.62
406.559	210.43
406.768	239.1
406.977	212.48
407.185	194.05
407.394	165.37
407.603	237.05
407.812	253.44
408.02	228.86
408.229	208.38
408.438	230.91
408.646	251.39
408.855	259.58
409.064	247.29
409.272	286.2
409.481	376.31
409.69	257.53
409.898	325.12
410.107	337.4
410.315	376.31
410.524	331.26
410.733	366.07
410.941	359.93
411.15	447.99
411.358	404.99
411.567	437.75
411.775	398.84
411.984	517.62
412.192	513.53
412.401	540.15
412.609	484.86
412.818	556.54
413.026	519.67
413.234	570.87
413.443	570.87
413.651	632.31
413.86	675.32
414.068	701.94
414.276	679.41
414.485	644.6
414.693	775.67
414.901	802.29
415.11	747
415.318	726.52
415.526	837.11
415.734	867.83
415.943	857.59
416.151	1037.81
416.359	900.59
416.567	988.66
416.776	984.56
416.984	1086.96
417.192	1152.49
417.4	1170.93
417.608	1140.21
417.817	1158.64
418.025	1248.75
418.233	1215.98
418.441	1383.91
418.649	1277.42
418.857	1398.25
419.065	1578.47
419.273	1379.82
419.481	1603.05
419.689	1627.62
419.897	1734.12
420.105	1762.79
420.313	1672.68
420.521	1828.32
420.729	1824.23
420.937	1916.39
421.145	2121.18
421.353	2078.18
421.561	2176.48
421.769	2244.06
421.977	2444.76
422.185	2340.32
422.393	2424.28
422.601	2514.39
422.809	2522.59
423.017	2526.68
423.224	2596.31
423.432	2794.97
423.64	2850.26
423.848	3061.2
424.056	3102.16
424.263	3309.01
424.471	3358.16
424.679	3286.48
424.887	3390.92
425.094	3610.06
425.302	3626.44
425.51	3757.51
425.718	3810.76
425.925	3843.53
426.133	3988.93
426.341	4298.17
426.548	4462.01
426.756	4466.11
426.964	4517.31
427.171	4863.41
427.379	4916.66
427.586	4996.53
427.794	5027.25
428.001	5322.16
428.209	5588.39
428.417	5494.19
428.624	5995.94
428.832	5879.21
429.039	5901.73
429.247	5856.68
429.454	6407.58
429.662	6866.33
429.869	6356.38
430.076	6845.85
430.284	6634.91
430.491	6993.3
430.699	7509.39
430.906	7384.46
431.114	7521.68
431.321	7521.68
431.528	7746.95
431.736	8334.72
431.943	8484.22
432.15	8265.09
432.358	8455.55
432.565	8799.61
432.772	8899.96
432.979	9491.82
433.187	9583.98
433.394	9799.02
433.601	10196.32
433.808	10278.24
434.016	10134.89
434.223	10718.56
434.43	11171.16
434.637	11115.86
434.844	11875.66
435.052	11873.61
435.259	11705.68
435.466	12076.36
435.673	11836.75
435.88	12739.9
436.087	13442.35
436.294	13364.53
436.501	13096.25
436.708	13217.08
436.915	13810.99
437.122	14273.83
437.329	14302.5
437.537	14824.73
437.743	15168.79
437.95	14763.29
438.157	15545.62
438.364	16254.22
438.571	15908.11
438.778	16420.1
438.985	17888.5
439.192	17163.51
439.399	17769.71
439.606	17128.7
439.813	18466.02
440.02	19406.04
440.227	18904.29
440.433	18547.94
440.64	19258.59
440.847	19420.38
441.054	19625.17
441.261	20954.3
441.467	20806.85
441.674	21384.38
441.881	21845.17
442.088	21832.88
442.294	21732.53
442.501	22283.44
442.708	22295.72
442.914	23526.55
443.121	24626.31
443.328	24048.79
443.534	25506.94
443.741	24829.06
443.948	24687.75
444.154	26475.63
444.361	26055.79
444.568	26313.84
444.774	26315.89
444.981	26985.57
445.187	27532.38
445.394	28460.11
445.6	28419.15
445.807	31104.04
446.013	29793.34
446.22	30121.01
446.426	31038.5
446.633	31337.51
446.839	32689.17
447.046	31564.83
447.252	32961.55
447.459	33117.19
447.665	33012.74
447.871	34739.18
448.078	35832.8
448.284	34169.85
448.491	35296.23
448.697	36447.19
448.903	36985.8
449.11	37204.94
449.316	36584.4
449.522	37125.07
449.728	38200.25
449.935	38394.81
450.141	38783.92
450.347	39261.1
450.553	38181.82
450.76	39113.64
450.966	40262.55
451.172	39588.77
451.378	40387.48
451.584	39537.57
451.791	40596.37
451.997	40756.11
452.203	41347.98
452.409	41139.08
452.615	41223.05
452.821	39381.93
453.027	39224.23
453.233	40905.62
453.44	39760.8
453.646	40016.8
453.852	40080.28
454.058	40954.77
454.264	39492.52
454.47	40639.38
454.676	39457.7
454.882	41005.97
455.088	37329.86
455.294	37790.66
455.5	38591.41
455.705	39027.63
455.911	37180.36
456.117	36688.85
456.323	36008.92
456.529	34472.95
456.735	35978.2
456.941	35038.19
457.147	34536.43
457.352	33074.18
457.558	33029.13
457.764	33176.58
457.97	32502.8
458.176	31798.3
458.381	31833.11
458.587	30065.72
458.793	29840.44
458.999	28716.11
459.204	30616.62
459.41	29735.99
459.616	27817.05
459.821	28052.56
460.027	27933.78
460.233	27391.07
460.438	25848.95
460.644	26248.3
460.85	24913.03
461.055	24462.47
461.261	25097.35
461.466	22971.55
461.672	21882.03
461.878	23637.14
462.083	22084.78
462.289	21761.2
462.494	21689.53
462.7	20718.79
462.905	20253.9
463.111	20622.53
463.316	21101.76
463.522	20526.28
463.727	20442.31
463.932	20239.56
464.138	20071.63
464.343	20227.28
464.549	19805.39
464.754	20083.92
464.959	20288.71
465.165	20012.24
465.37	19356.89
465.575	18568.42
465.781	19793.11
465.986	19668.18
466.191	18703.59
466.397	18488.55
466.602	17634.55
466.807	18451.69
467.012	18347.24
467.218	18189.55
467.423	17968.37
467.628	17949.93
467.833	18736.35
468.038	18230.51
468.244	17853.68
468.449	18289.9
468.654	17562.87
468.859	17732.85
469.064	17794.29
469.269	16758.02
469.474	17081.6
469.679	17241.34
469.885	16516.36
470.09	16858.37
470.295	17206.52
470.5	16526.6
470.705	16538.88
470.91	16160.01
471.115	16284.94
471.32	16422.15
471.525	16358.66
471.73	15797.52
471.935	15629.59
472.139	15119.64
472.344	15461.65
472.549	15349.01
472.754	14982.43
472.959	15045.91
473.164	14628.13
473.369	14507.3
473.574	15015.19
473.778	14677.28
473.983	14695.71
474.188	14634.27
474.393	13808.94
474.598	13956.4
474.802	13745.45
475.007	13714.73
475.212	13727.02
475.417	13378.87
475.621	13387.06
475.826	13335.86
476.031	13075.77
476.235	12918.07
476.44	13075.77
476.645	12811.58
476.849	12762.43
477.054	12465.47
477.259	12463.43
477.463	12551.49
477.668	11767.12
477.872	12311.88
478.077	12119.37
478.282	11957.58
478.486	11660.62
478.691	11562.32
478.895	11683.15
479.1	11613.52
479.304	11455.83
479.509	11226.45
479.713	11480.4
479.918	10968.41
480.122	11085.14
480.326	11253.08
480.531	11099.48
480.735	10902.87
480.94	10913.11
481.144	11072.86
481.348	10827.1
481.553	10866.01
481.757	10597.73
481.961	10943.83
482.166	10780
482.37	10909.02
482.574	10569.05
482.778	10521.95
482.983	10882.39
483.187	10976.6
483.391	10677.6
483.595	10599.77
483.8	10419.55
484.004	10546.53
484.208	10859.87
484.412	10620.25
484.616	10495.33
484.821	10409.31
485.025	10579.29
485.229	10360.16
485.433	10571.1
485.637	10689.88
485.841	10636.64
486.045	10640.73
486.249	10628.45
486.453	10521.95
486.657	10597.73
486.861	10673.5
487.065	10354.02
487.269	10706.27
487.473	10354.02
487.677	10548.58
487.881	10534.24
488.085	10675.55
488.289	10646.88
488.493	10646.88
488.697	10874.2
488.901	10855.77
489.105	10816.86
489.309	10884.44
489.512	10974.55
489.716	10765.66
489.92	10646.88
490.124	10605.92
490.328	10984.79
490.531	10775.9
490.735	10911.07
490.939	11003.22
491.143	10968.41
491.346	11068.76
491.55	11324.76
491.754	11232.6
491.958	11404.63
492.161	10976.6
492.365	11255.12
492.569	11296.08
492.772	11177.3
492.976	11343.19
493.18	11320.66
493.383	11527.5
493.587	11533.65
493.79	11705.68
493.994	11552.08
494.197	11760.97
494.401	11726.16
494.605	11859.28
494.808	12064.07
495.012	12223.81
495.215	12322.12
495.419	12383.56
495.622	12514.63
495.825	12463.43
496.029	12500.29
496.232	12741.95
496.436	12752.19
496.639	13104.44
496.843	13040.95
497.046	13360.44
497.249	13436.21
497.453	13468.98
497.656	13505.84
497.859	13800.75
498.063	13868.33
498.266	14347.56
498.469	14161.19
498.673	14185.77
498.876	14552.35
499.079	14724.38
499.282	14970.14
499.485	15293.72
499.689	15078.68
499.892	15457.56
500.095	15582.48
500.298	15744.27
500.501	15947.02
500.705	16170.25
500.908	16305.42
501.111	16473.35
501.314	16487.68
501.517	16895.23
501.72	17054.97
501.923	17155.32
502.126	17491.19
502.329	17863.92
502.532	17913.07
502.735	17808.62
502.938	18478.31
503.141	18492.65
503.344	18826.46
503.547	18793.7
503.75	19297.5
503.953	19619.03
504.156	19735.76
504.359	19715.28
504.562	20051.15
504.765	20329.67
504.968	20657.35
505.17	21054.65
505.373	21216.44
505.576	21634.23
505.779	21912.75
505.982	21843.12
506.185	22228.14
506.387	22299.82
506.59	22529.19
506.793	23305.37
506.996	23213.21
507.198	24124.56
507.401	23807.12
507.604	24145.04
507.807	24700.04
508.009	25109.63
508.212	25050.24
508.415	25425.02
508.617	25695.35
508.82	25797.75
509.022	25906.29
509.225	26397.81
509.428	27034.72
509.63	27352.16
509.833	27169.89
510.035	28036.18
510.238	27638.87
510.44	28675.15
510.643	28599.37
510.845	29465.66
511.048	28881.99
511.25	29674.56
511.453	29553.73
511.655	31013.93
511.858	30667.82
512.06	30983.21
512.262	31183.91
512.465	31337.51
512.667	32123.93
512.87	32390.16
513.072	32367.63
513.274	33111.05
513.477	33883.13
513.679	33938.43
513.881	34075.64
514.084	34657.26
514.286	34661.36
514.488	35107.82
514.69	36074.46
514.893	36176.86
515.095	36432.85
515.297	36717.52
515.499	36631.51
515.701	37213.13
515.904	37673.92
516.106	38067.13
516.308	38505.4
516.51	38620.08
516.712	38859.7
516.914	39295.91
517.116	40520.6
517.318	40379.29
517.52	40764.31
517.722	40772.5
517.925	41548.68
518.127	41923.46
518.329	42169.21
518.531	42173.31
518.733	43164.53
518.935	43580.26
519.136	43393.9
519.338	44127.07
519.54	44329.82
519.742	44698.45
519.944	44893.01
520.146	45869.89
520.348	46142.27
520.55	46203.71
520.752	46699.32
520.954	47278.89
521.155	46885.68
521.357	47766.31
521.559	48628.51
521.761	48587.55
521.963	48747.29
522.164	49081.11
522.366	49320.72
522.568	49566.48
522.77	50256.64
522.971	50916.09
523.173	50488.06
523.375	51088.12
523.576	51129.08
523.778	51563.25
523.98	51782.38
524.181	52103.91
524.383	52046.57
524.584	53146.33
524.786	52955.86
524.988	52714.2
525.189	53377.75
525.391	53469.9
525.592	54086.34
525.794	54061.77
525.995	54338.24
526.197	54061.77
526.398	54215.36
526.6	54780.6
526.801	55145.14
527.003	55577.26
527.204	55784.11
527.406	55696.05
527.607	55751.34
527.808	56476.32
528.01	55544.5
528.211	56126.12
528.412	57346.71
528.614	56853.15
528.815	56943.26
529.016	57275.03
529.218	56584.86
529.419	56773.28
529.62	57148.06
529.822	57385.62
530.023	57399.96
530.224	57762.45
530.425	57426.58
530.626	57254.55
530.828	57391.76
531.029	58192.52
531.23	57862.8
531.431	57864.85
531.632	58020.49
531.833	58352.26
532.035	57997.96
532.236	58573.44
532.437	58811.01
532.638	58077.83
532.839	58393.22
533.04	58813.05
533.241	58100.36
533.442	59163.26
533.643	58788.48
533.844	58681.98
534.045	59146.87
534.246	58397.32
534.447	59054.71
534.648	58819.2
534.849	59030.14
535.05	58913.41
535.251	58874.49
535.451	58655.36
535.652	59044.48
535.853	58800.77
536.054	58880.64
536.255	59312.76
536.456	58561.15
536.657	59785.84
536.857	59130.49
537.058	58661.5
537.259	59069.05
537.46	58929.79
537.66	58657.41
537.861	59212.41
538.062	58894.97
538.263	59374.2
538.463	58798.72
538.664	59077.24
538.865	59345.53
539.065	59357.81
539.266	58845.82
539.466	59916.91
539.667	58548.87
539.868	59273.85
540.068	59114.11
540.269	59165.31
540.469	59026.04
540.67	59064.95
540.87	58729.09
541.071	58841.73
541.271	59210.36
541.472	58876.54
541.672	58937.98
541.873	58778.24
542.073	58305.16
542.274	59263.61
542.474	58864.25
542.675	58651.27
542.875	58890.88
543.075	58501.76
543.276	58702.46
543.476	59552.37
543.676	58786.43
543.877	58796.67
544.077	58688.13
544.277	59273.85
544.478	59095.67
544.678	58901.12
544.878	58962.56
545.078	59191.93
545.279	58749.57
545.479	58641.03
545.679	58933.88
545.879	58954.36
546.079	59040.38
546.28	58821.25
546.48	58575.49
546.68	58915.45
546.88	59148.92
547.08	58593.92
547.28	58786.43
547.48	58667.65
547.68	58477.19
547.88	57997.96
548.081	58520.2
548.281	58655.36
548.481	58268.29
548.681	58952.32
548.881	58880.64
549.081	58790.53
549.28	58569.35
549.48	58991.23
549.68	58104.46
549.88	59093.63
550.08	57901.71
550.28	58749.57
550.48	58010.25
550.68	58837.63
550.88	58520.2
551.08	58354.31
551.279	58258.06
551.479	58395.27
551.679	58565.25
551.879	58081.93
552.079	58612.35
552.278	58296.97
552.478	58542.72
552.678	58159.75
552.878	58567.3
553.077	58337.93
553.277	58038.92
553.477	58575.49
553.676	57666.19
553.876	57897.61
554.076	57881.23
554.275	57860.75
554.475	57348.76
554.674	57803.41
554.874	57981.58
555.074	57864.85
555.273	57983.63
555.473	58083.98
555.672	57344.66
555.872	57649.81
556.071	57772.69
556.271	57782.93
556.47	57395.86
556.67	57197.21
556.869	57328.28
557.068	57735.82
557.268	57367.19
557.467	57150.1
557.667	56961.69
557.866	57359
558.065	57170.58
558.265	57004.7
558.464	56756.89
558.663	57227.93
558.863	56752.8
559.062	57440.92
559.261	56642.21
559.461	57203.35
559.66	56187.56
559.859	56922.78
560.058	56425.12
560.258	56705.69
560.457	56382.12
560.656	56722.08
560.855	56021.67
561.054	56404.64
561.253	56036.01
561.453	56015.53
561.652	56363.68
561.851	56849.05
562.05	56263.33
562.249	55814.83
562.448	56535.71
562.647	55823.02
562.846	55485.11
563.045	56068.78
563.244	55173.81
563.443	56048.3
563.642	55083.7
563.841	55280.31
564.04	55540.4
564.239	56160.94
564.438	54921.91
564.637	56068.78
564.836	55296.69
565.035	54878.91
565.234	55372.47
565.432	55110.33
565.631	54860.47
565.83	54966.97
566.029	54821.56
566.228	54504.13
566.427	54678.21
566.625	54856.38
566.824	53826.25
567.023	54424.26
567.222	53617.36
567.42	55091.9
567.619	54182.6
567.818	54178.5
568.016	54180.55
568.215	54235.84
568.414	53895.88
568.612	54127.3
568.811	53666.51
569.01	53859.02
569.208	53203.67
569.407	53863.11
569.605	53459.66
569.804	53689.04
570.002	53093.08
570.201	53037.78
570.4	52802.27
570.598	52677.34
570.797	52591.33
570.995	52861.66
571.193	51997.41
571.392	53158.61
571.59	52048.61
571.789	52320.99
571.987	52370.14
572.186	52024.04
572.384	52015.85
572.582	52005.61
572.781	51950.31
572.979	51317.49
573.177	51616.49
573.376	51917.54
573.574	51274.48
573.772	51247.86
573.971	50918.14
574.169	50971.38
574.367	50414.33
574.565	50739.96
574.763	50361.09
574.962	50744.06
575.16	49883.91
575.358	50549.5
575.556	49787.66
575.754	50277.12
575.952	49951.49
576.151	50098.95
576.349	49642.25
576.547	49611.53
576.745	49376.01
576.943	49703.69
577.141	49494.8
577.339	49347.34
577.537	49011.48
577.735	48968.47
577.933	48474.91
578.131	49099.54
578.329	48280.35
578.527	47964.96
578.725	48341.79
578.923	48517.92
579.121	48212.77
579.319	48274.21
579.516	48360.22
579.714	47969.06
579.912	47891.24
580.11	47399.72
580.308	47434.54
580.506	46983.99
580.704	46449.47
580.901	47127.34
581.099	47485.74
581.297	46445.37
581.495	46867.25
581.692	47045.43
581.89	46183.23
582.088	46631.74
582.285	46357.31
582.483	46584.63
582.681	46293.82
582.878	45976.39
583.076	45839.17
583.274	46066.5
583.471	45282.13
583.669	45957.95
583.866	45261.65
584.064	45304.65
584.262	44858.2
584.459	45673.29
584.657	44698.45
584.854	44974.93
585.052	44286.81
585.249	44698.45
585.447	44763.99
585.644	44221.28
585.841	44282.72
586.039	44397.4
586.236	43869.03
586.434	43879.27
586.631	43729.76
586.828	43748.2
587.026	43715.43
587.223	43400.04
587.42	43156.33
587.618	43363.18
587.815	42566.52
588.012	42447.74
588.21	42849.14
588.407	42873.71
588.604	42435.45
588.801	42636.15
588.999	42558.33
589.196	42419.06
589.393	42222.46
589.59	42089.34
589.787	41907.07
589.984	41915.26
590.182	41515.91
590.379	41851.78
590.576	41204.62
590.773	41302.92
590.97	41188.24
591.167	41239.43
591.364	40577.94
591.561	41145.23
591.758	40684.44
591.955	40506.26
592.152	40690.58
592.349	40670.1
592.546	40985.49
592.743	40821.65
592.94	39887.78
593.137	40223.64
593.334	40178.59
593.531	39986.08
593.727	39734.18
593.924	40055.71
594.121	39326.63
594.318	39535.52
594.515	39080.88
594.712	39455.65
594.908	38972.33
595.105	39048.11
595.302	39125.93
595.499	38865.84
595.696	39044.01
595.892	38605.75
596.089	38740.91
596.286	38988.72
596.482	38443.96
596.679	38343.61
596.876	38511.54
597.072	37843.9
597.269	38212.54
597.466	37479.36
597.662	37526.47
597.859	37602.24
598.055	37743.55
598.252	37262.28
598.448	37532.61
598.645	37305.29
598.841	36719.57
599.038	37256.14
599.234	37100.49
599.431	36565.97
599.627	36428.76
599.824	36846.54
600.02	36439
600.217	36557.78
600.413	36230.1
600.609	36076.51
600.806	35707.87
601.002	35974.11
601.198	36170.71
601.395	35566.56
601.591	35445.73
601.787	35986.39
601.984	35040.23
602.18	35892.19
602.376	35337.19
602.572	35001.32
602.769	35032.04
602.965	34690.03
603.161	35070.95
603.357	34692.08
603.553	34325.49
603.75	34616.3
603.946	34407.41
604.142	34540.53
604.338	33805.31
604.534	34505.71
604.73	33629.18
604.926	34128.89
605.122	33594.37
605.318	33111.05
605.514	33643.52
605.71	33475.59
605.906	33250.31
606.102	32926.73
606.298	33178.63
606.494	33008.65
606.69	32910.35
606.886	33016.84
607.082	32351.25
607.278	32742.41
607.474	32326.67
607.67	32580.62
607.866	32283.67
608.062	32308.24
608.257	32490.51
608.453	32017.43
608.649	32021.53
608.845	31939.61
609.041	31663.13
609.236	31822.87
609.432	31687.71
609.628	31216.68
609.824	31323.17
610.019	31400.99
610.215	31171.62
610.411	31620.13
610.606	30964.78
610.802	31054.89
610.998	30772.27
611.193	31255.59
611.389	30630.96
611.584	30436.4
611.78	30174.26
611.976	30854.19
612.171	30053.43
612.367	30174.26
612.562	30387.25
612.758	29862.97
612.953	29865.02
613.149	30002.23
613.344	29836.34
613.539	30133.3
613.735	29563.96
613.93	29678.65
614.126	29482.05
614.321	29570.11
614.517	29264.96
614.712	29617.21
614.907	29201.47
615.103	29324.35
615.298	29017.16
615.493	29453.37
615.688	28941.38
615.884	29281.35
616.079	28437.58
616.274	29056.07
616.47	28519.5
616.665	28779.59
616.86	28494.93
617.055	28283.98
617.25	28353.62
617.445	28539.98
617.641	27812.95
617.836	28505.17
618.031	27915.35
618.226	27862.1
618.421	27806.81
618.616	27933.78
618.811	27634.78
619.006	27784.28
619.201	27008.1
619.396	27366.49
619.591	26883.17
619.786	27231.33
619.981	26838.12
620.176	27198.56
620.371	26768.49
620.566	26645.61
620.761	26397.81
620.956	26623.08
621.151	25941.11
621.346	26219.63
621.541	25920.63
621.735	26270.83
621.93	25560.19
622.125	25545.85
622.32	25246.85
622.515	25515.13
622.709	25318.53
622.904	25425.02
623.099	25160.83
623.294	24751.24
623.488	24444.04
623.683	24960.13
623.878	24405.13
624.072	24431.76
624.267	24290.45
624.462	24188.05
624.656	24065.17
624.851	24013.97
625.046	23714.97
625.24	23626.9
625.435	23223.45
625.629	23553.18
625.824	23233.69
626.018	23366.81
626.213	22736.04
626.407	22977.7
626.602	22445.23
626.796	22901.92
626.991	22551.72
627.185	22402.22
627.38	22396.07
627.574	22092.97
627.768	21970.1
627.963	22330.54
628.157	21699.76
628.352	21822.64
628.546	21558.46
628.74	21578.93
628.935	21060.8
629.129	21230.78
629.323	21028.03
629.517	20837.57
629.712	20849.86
629.906	20593.86
630.1	20686.02
630.294	20763.84
630.489	20344.01
630.683	20563.14
630.877	20133.07
631.071	19883.22
631.265	20212.94
631.459	19944.66
631.653	19813.59
631.848	19977.42
632.042	19520.73
632.236	19862.74
632.43	19330.27
632.624	19221.72
632.818	19381.46
633.012	19432.66
633.206	19043.55
633.4	19115.23
633.594	18777.31
633.788	18656.48
633.982	18746.59
634.176	18552.04
634.369	18535.65
634.563	18453.73
634.757	18359.53
634.951	18382.06
635.145	18306.28
635.339	18169.07
635.533	17884.4
635.726	18146.54
635.92	17874.16
636.114	17650.93
636.308	17427.7
636.501	17753.33
636.695	17648.88
636.889	17380.6
637.083	17181.95
637.276	17390.84
637.47	17282.3
637.664	16809.22
637.857	16876.8
638.051	17149.18
638.244	16600.32
638.438	16749.82
638.632	16522.5
638.825	16440.58
639.019	16377.09
639.212	16364.81
639.406	16258.31
639.599	16342.28
639.793	16117
639.986	15897.87
640.18	15875.34
640.373	15996.17
640.567	15983.88
640.76	15676.69
640.954	15430.93
641.147	15600.91
641.34	15486.23
641.534	15392.02
641.727	15297.81
641.92	15293.72
642.114	14982.43
642.307	15066.39
642.5	14726.43
642.694	14904.6
642.887	14593.31
643.08	14804.25
643.273	14576.93
643.467	14722.34
643.66	14304.55
643.853	14300.45
644.046	14069.03
644.239	14322.98
644.432	14234.92
644.626	14071.08
644.819	14013.74
645.012	14097.7
645.205	13952.3
645.398	13813.04
645.591	13712.69
645.784	13681.97
645.977	13393.2
646.17	13346.1
646.363	13389.11
646.556	13194.55
646.749	13337.91
646.942	13434.16
647.135	13202.74
647.328	12889.4
647.521	12926.27
647.714	12825.92
647.907	12940.6
648.099	12557.63
648.292	12727.61
648.485	12645.7
648.678	12203.33
648.871	12356.93
649.064	12293.44
649.256	12383.56
649.449	12191.05
649.642	11760.97
649.835	12121.42
650.027	11982.15
650.22	11998.54
650.413	11760.97
650.605	11863.37
650.798	11654.48
650.991	11521.36
651.183	11599.18
651.376	11294.04
651.568	11615.57
651.761	11308.37
651.954	11115.86
652.146	11210.07
652.339	10945.88
652.531	11107.67
652.724	11070.81
652.916	10704.22
653.109	10663.26
653.301	10734.94
653.494	10800.48
653.686	10607.97
653.879	10626.4
654.071	10540.38
654.263	10556.77
654.456	10462.56
654.648	10331.49
654.84	9958.76
655.033	10085.73
655.225	10073.45
655.417	9889.13
655.61	9913.7
655.802	9932.14
655.994	9655.66
656.186	9801.07
656.379	9698.67
656.571	9596.27
656.763	9600.37
656.955	9477.49
657.148	9430.38
657.34	9340.27
657.532	9198.96
657.724	9151.86
657.916	9155.96
658.108	9196.92
658.3	9020.79
658.492	8981.88
658.684	8965.5
658.876	8924.54
659.068	8680.83
659.26	8678.78
659.452	8596.86
659.644	8504.7
659.836	8428.93
660.028	8596.86
660.22	8189.32
660.412	8377.73
660.604	8115.59
660.796	8228.23
660.988	8103.3
661.18	7982.47
661.372	7939.46
661.563	7910.79
661.755	7755.15
661.947	7796.11
662.139	7777.67
662.331	7736.71
662.522	7560.59
662.714	7548.3
662.906	7333.26
663.097	7638.41
663.289	7363.98
663.481	7310.74
663.673	7212.43
663.864	7251.35
664.056	7167.38
664.247	7056.79
664.439	7030.16
664.631	7073.17
664.822	6808.98
665.014	7046.55
665.205	6884.76
665.397	6780.31
665.588	6778.26
665.78	6854.04
665.971	6782.36
666.163	6671.77
666.354	6673.82
666.546	6585.76
666.737	6520.22
666.929	6423.97
667.12	6385.05
667.311	6473.12
667.503	6337.95
667.694	6393.25
667.885	6319.52
668.077	6178.21
668.268	6165.92
668.459	5897.64
668.651	6004.13
668.842	6110.63
669.033	6022.56
669.224	5963.17
669.416	5928.36
669.607	6073.76
669.798	5776.81
669.989	5918.12
670.18	5879.21
670.371	5805.48
670.563	5799.34
670.754	5744.04
670.945	5729.7
671.136	5694.89
671.327	5684.65
671.518	5608.87
671.709	5565.87
671.9	5629.35
672.091	5498.28
672.282	5488.04
672.473	5563.82
672.664	5275.06
672.855	5414.32
673.046	5440.94
673.237	5436.85
673.428	5313.97
673.619	5279.15
673.809	5264.82
674	5193.14
674.191	5176.75
674.382	5270.96
674.573	5154.23
674.764	5111.22
674.954	5164.47
675.145	5105.07
675.336	5158.32
675.527	4982.2
675.717	5109.17
675.908	4928.95
676.099	5000.63
676.289	5019.06
676.48	4928.95
676.671	4914.61
676.861	4844.98
677.052	5025.2
677.243	4644.28
677.433	4816.31
677.624	4892.09
677.814	4914.61
678.005	4836.79
678.195	4705.72
678.386	4658.62
678.576	4797.88
678.767	4677.05
678.957	4668.86
679.148	4783.54
679.338	4789.69
679.529	4644.28
679.719	4658.62
679.909	4605.37
680.1	4470.2
680.29	4580.79
680.481	4515.26
680.671	4455.87
680.861	4562.36
681.052	4402.62
681.242	4507.07
681.432	4384.19
681.622	4369.85
681.813	4429.24
682.003	4445.63
682.193	4496.83
682.383	4453.82
682.573	4419
682.764	4328.89
682.954	4277.69
683.144	4341.18
683.334	4140.48
683.524	4218.3
683.714	4371.9
683.904	4267.45
684.094	4171.2
684.284	4314.56
684.474	4437.44
684.664	4283.84
684.854	4380.09
685.044	4220.35
685.234	4265.41
685.424	4197.82
685.614	4138.43
685.804	4185.54
685.994	4191.68
686.184	4222.4
686.374	4214.21
686.564	4240.83
686.753	4150.72
686.943	4140.48
687.133	4257.22
687.323	4236.74
687.513	4191.68
687.702	4152.77
687.892	4203.97
688.082	4023.75
688.272	4238.78
688.461	4208.06
688.651	4185.54
688.841	4027.84
689.03	4005.31
689.22	4025.79
689.41	4138.43
689.599	4101.57
689.789	4085.19
689.979	3966.4
690.168	3927.49
690.358	3968.45
690.547	4044.23
690.737	4087.23
690.926	4099.52
691.116	4072.9
691.305	4011.46
691.495	3925.44
691.684	4087.23
691.874	4011.46
692.063	4011.46
692.252	3931.59
692.442	3886.53
692.631	4023.75
692.82	3884.48
693.01	3954.12
693.199	3997.12
693.388	3970.5
693.578	3986.88
693.767	3941.83
693.956	3896.77
694.146	3923.4
694.335	3884.48
694.524	3886.53
694.713	4027.84
694.902	3898.82
695.092	3943.88
695.281	3823.05
695.47	3818.95
695.659	3896.77
695.848	3843.53
696.037	4007.36
696.226	3788.23
696.415	3913.16
696.604	3855.81
696.793	3788.23
696.982	3870.15
697.171	3857.86
697.36	3978.69
697.549	3663.3
697.738	3726.79
697.927	3759.56
698.116	3849.67
698.305	3841.48
698.494	3792.33
698.683	3679.69
698.872	3677.64
699.061	3835.33
699.25	3726.79
699.438	3657.16
699.627	3784.13
699.816	3648.97
700.005	3714.5
700.193	3608.01
700.382	3714.5
700.571	3577.29
700.76	3775.94
700.948	3601.87
701.137	3710.41
701.326	3612.1
701.514	3610.06
701.703	3466.7
701.892	3419.6
702.08	3614.15
702.269	3624.39
702.457	3491.27
702.646	3458.51
702.834	3481.03
703.023	3491.27
703.212	3528.14
703.4	3380.68
703.589	3489.23
703.777	3429.84
703.965	3405.26
704.154	3364.3
704.342	3421.64
704.531	3304.91
704.719	3339.73
704.907	3364.3
705.096	3380.68
705.284	3278.29
705.472	3364.3
705.661	3200.46
705.849	3302.86
706.037	3304.91
706.226	3192.27
706.414	3231.18
706.602	3200.46
706.79	3136.98
706.979	3259.85
707.167	3272.14
707.355	3030.48
707.543	3165.65
707.731	3227.09
707.919	3077.59
708.107	3110.35
708.296	3077.59
708.484	3069.39
708.672	3028.43
708.86	3096.02
709.048	3026.39
709.236	3028.43
709.424	2993.62
709.612	3046.87
709.8	2883.03
709.988	3024.34
710.176	2934.23
710.364	2772.44
710.551	2989.52
710.739	2889.17
710.927	2788.82
711.115	2948.56
711.303	2897.36
711.491	2741.72
711.679	2876.88
711.866	2725.33
712.054	2807.25
712.242	2692.57
712.43	2727.38
712.617	2788.82
712.805	2743.77
712.993	2739.67
713.181	2604.5
713.368	2610.65
713.556	2627.03
713.744	2627.03
713.931	2690.52
714.119	2686.42
714.306	2655.7
714.494	2729.43
714.682	2629.08
714.869	2606.55
715.057	2633.18
715.244	2536.92
715.432	2465.24
715.619	2590.17
715.807	2586.07
715.994	2633.18
716.182	2514.39
716.369	2489.82
716.556	2475.48
716.744	2516.44
716.931	2385.37
717.119	2364.89
717.306	2442.71
717.493	2385.37
717.681	2350.56
717.868	2383.32
718.055	2344.41
718.242	2493.91
718.43	2381.28
718.617	2446.81
718.804	2338.27
718.991	2258.4
719.179	2498.01
719.366	2315.74
719.553	2233.82
719.74	2192.86
719.927	2137.57
720.114	2168.29
720.301	2233.82
720.488	2147.81
720.676	2196.96
720.863	2244.06
721.05	2110.94
721.237	2153.95
721.424	1988.07
721.611	2209.25
721.798	2024.93
721.985	2131.42
722.172	2002.4
722.358	2082.27
722.545	2102.75
722.732	2037.22
722.919	2024.93
723.106	2059.74
723.293	1979.87
723.48	1975.78
723.667	2086.37
723.853	1961.44
724.04	1969.63
724.227	1975.78
724.414	1861.09
724.6	1924.58
724.787	1988.07
724.974	2006.5
725.161	1879.52
725.347	1871.33
725.534	1969.63
725.72	1908.19
725.907	1895.91
726.094	1938.91
726.28	1766.89
726.467	1775.08
726.653	1840.61
726.84	1783.27
727.027	1893.86
727.213	1768.93
727.4	1846.76
727.586	1826.28
727.773	1766.89
727.959	1766.89
728.145	1754.6
728.332	1736.17
728.518	1791.46
728.705	1740.26
728.891	1746.41
729.077	1813.99
729.264	1703.4
729.45	1635.82
729.636	1691.11
729.823	1787.36
730.009	1627.62
730.195	1660.39
730.382	1717.73
730.568	1627.62
730.754	1691.11
730.94	1684.97
731.126	1584.62
731.313	1623.53
731.499	1621.48
731.685	1582.57
731.871	1621.48
732.057	1584.62
732.243	1576.42
732.429	1527.27
732.615	1705.45
732.801	1555.94
732.987	1582.57
733.173	1547.75
733.359	1490.41
733.545	1564.14
733.731	1508.84
733.917	1572.33
734.103	1523.18
734.289	1512.94
734.475	1486.31
734.661	1406.44
734.847	1514.98
735.033	1469.93
735.219	1502.7
735.404	1406.44
735.59	1437.16
735.776	1410.54
735.962	1476.07
736.148	1480.17
736.333	1547.75
736.519	1428.97
736.705	1414.63
736.89	1302
737.076	1422.83
737.262	1349.1
737.447	1299.95
737.633	1302
737.819	1445.35
738.004	1308.14
738.19	1334.76
738.375	1318.38
738.561	1283.56
738.747	1363.44
738.932	1322.48
739.118	1373.68
739.303	1314.28
739.489	1363.44
739.674	1246.7
739.859	1248.75
740.045	1326.57
740.23	1299.95
740.416	1289.71
740.601	1320.43
740.786	1295.85
740.972	1310.19
741.157	1275.37
741.342	1101.3
741.528	1228.27
741.713	1261.04
741.898	1207.79
742.084	1306.09
742.269	1226.22
742.454	1207.79
742.639	1152.49
742.824	1142.25
743.01	1072.62
743.195	1177.07
743.38	1119.73
743.565	1136.11
743.75	1144.3
743.935	1146.35
744.12	1095.15
744.305	1125.87
744.49	1089.01
744.675	1050.1
744.86	1103.34
745.045	1052.14
745.23	1064.43
745.415	1093.1
745.6	972.27
745.785	1046
745.97	1046
746.155	1039.86
746.34	1089.01
746.525	1037.81
746.71	1111.54
746.895	1029.62
747.079	1025.52
747.264	1068.53
747.449	1103.34
747.634	1043.95
747.819	964.08
748.003	1031.66
748.188	1005.04
748.373	1013.23
748.557	1015.28
748.742	994.8
748.927	1062.38
749.111	1013.23
749.296	951.79
749.481	972.27
749.665	951.79
749.85	921.07
750.034	923.12
750.219	851.44
750.404	841.2
750.588	919.03
750.773	894.45
750.957	843.25
751.141	908.79
751.326	957.94
751.51	882.16
751.695	808.44
751.879	896.5
752.064	865.78
752.248	898.55
752.432	847.35
752.617	826.87
752.801	937.46
752.985	759.28
753.17	833.01
753.354	792.05
753.538	773.62
753.722	742.9
753.907	808.44
754.091	796.15
754.275	837.11
754.459	765.43
754.643	835.06
754.828	703.99
755.012	824.82
755.196	740.85
755.38	800.24
755.564	716.28
755.748	759.28
755.932	732.66
756.116	699.89
756.3	675.32
756.484	747
756.668	701.94
756.852	663.03
757.036	687.61
757.22	720.37
757.404	783.86
757.588	724.47
757.772	714.23
757.956	636.41
758.14	658.93
758.323	683.51
758.507	654.84
758.691	693.75
758.875	804.34
759.059	634.36
759.242	660.98
759.426	658.93
759.61	724.47
759.794	595.45
759.977	656.89
760.161	714.23
760.345	638.45
760.528	611.83
760.712	656.89
760.895	634.36
761.079	693.75
761.263	572.92
761.446	620.02
761.63	587.26
761.813	556.54
761.997	630.26
762.18	548.34
762.364	646.65
762.547	579.06
762.731	583.16
762.914	564.73
763.098	554.49
763.281	622.07
763.464	507.38
763.648	583.16
763.831	652.79
764.015	538.1
764.198	525.82
764.381	611.83
764.564	591.35
764.748	656.89
764.931	581.11
765.114	589.3
765.297	542.2
765.481	488.95
765.664	538.1
765.847	589.3
766.03	538.1
766.213	482.81
766.397	523.77
766.58	499.19
766.763	562.68
766.946	501.24
767.129	574.97
767.312	589.3
767.495	523.77
767.678	554.49
767.861	523.77
768.044	536.06
768.227	566.78
768.41	505.34
768.593	546.3
768.776	458.23
768.959	460.28
769.142	587.26
769.324	521.72
769.507	554.49
769.69	515.58
769.873	525.82
770.056	548.34
770.239	460.28
770.421	548.34
770.604	536.06
770.787	468.47
770.97	466.42
771.152	419.32
771.335	468.47
771.518	546.3
771.7	462.33
771.883	531.96
772.066	439.8
772.248	546.3
772.431	454.14
772.613	505.34
772.796	501.24
772.978	534.01
773.161	484.86
773.343	474.62
773.526	464.38
773.708	435.71
773.891	429.56
774.073	472.57
774.256	497.14
774.438	497.14
774.621	452.09
774.803	443.9
774.985	435.71
775.168	488.95
775.35	509.43
775.532	474.62
775.715	505.34
775.897	454.14
776.079	484.86
776.261	450.04
776.444	404.99
776.626	409.08
776.808	409.08
776.99	421.37
777.173	394.75
777.355	433.66
777.537	390.65
777.719	388.6
777.901	400.89
778.083	454.14
778.265	437.75
778.447	419.32
778.629	398.84
778.811	329.21
778.993	396.79
779.175	407.03
779.357	308.73
779.539	407.03
779.721	343.55
779.903	392.7
780.085	423.42
780.267	386.55
780.449	308.73
780.631	345.59
780.812	423.42
780.994	284.16
781.176	275.96
781.358	374.27
781.54	278.01
781.721	386.55
781.903	310.78
782.085	321.02
782.267	355.83
782.448	339.45
782.63	368.12
782.812	394.75
782.993	325.12
783.175	329.21
783.357	314.88
783.538	374.27
783.72	280.06
783.901	288.25
784.083	308.73
784.264	331.26
784.446	310.78
784.627	294.4
784.809	284.16
784.99	339.45
785.172	343.55
785.353	286.2
785.535	198.14
785.716	325.12
785.897	310.78
786.079	267.77
786.26	286.2
786.441	232.96
786.623	253.44
786.804	353.79
786.985	259.58
787.167	314.88
787.348	316.92
787.529	275.96
787.71	220.67
787.891	321.02
788.073	286.2
788.254	267.77
788.435	243.2
788.616	235
788.797	204.28
788.978	214.52
789.159	210.43
789.34	310.78
789.522	275.96
789.703	169.47
789.884	318.97
790.065	226.81
790.246	271.87
790.427	275.96
790.607	259.58
790.788	245.24
790.969	194.05
791.15	230.91
791.331	239.1
791.512	185.85
791.693	194.05
791.874	161.28
792.054	259.58
792.235	247.29
792.416	224.76
792.597	140.8
792.778	206.33
792.958	214.52
793.139	185.85
793.32	210.43
793.5	192
793.681	251.39
793.862	138.75
794.042	222.72
794.223	138.75
794.404	224.76
794.584	163.33
794.765	146.94
794.945	202.24
795.126	183.81
795.306	235
795.487	194.05
795.667	247.29
795.848	200.19
796.028	251.39
796.209	148.99
796.389	226.81
796.57	267.77
796.75	179.71
796.93	245.24
797.111	173.57
797.291	146.94
797.471	206.33
797.652	222.72
797.832	103.93
798.012	204.28
798.192	140.8
798.373	122.37
798.553	210.43
798.733	189.95
798.913	58.88
799.093	259.58
799.274	157.18
799.454	138.75
799.634	173.57
799.814	146.94
799.994	144.89
800.174	198.14
800.354	146.94
800.534	177.66
800.714	181.76
800.894	210.43
801.074	148.99
801.254	161.28
801.434	189.95
801.614	192
801.794	103.93
801.974	333.31
802.154	173.57
802.334	161.28
802.514	144.89
802.693	163.33
802.873	216.57
803.053	169.47
803.233	144.89
803.413	159.23
803.592	118.27
803.772	198.14
803.952	151.04
804.131	130.56
804.311	140.8
804.491	153.09
804.67	204.28
804.85	120.32
805.03	144.89
805.209	128.51
805.389	105.98
805.568	196.09
805.748	161.28
805.928	146.94
806.107	71.17
806.287	173.57
806.466	130.56
806.646	118.27
806.825	128.51
807.004	108.03
807.184	128.51
807.363	155.13
807.543	95.74
807.722	134.65
807.901	112.13
808.081	169.47
808.26	126.46
808.439	179.71
808.619	46.59
808.798	165.37
808.977	89.6
809.156	169.47
809.336	144.89
809.515	58.88
809.694	65.02
809.873	126.46
810.052	114.17
810.231	112.13
810.411	103.93
810.59	110.08
810.769	122.37
810.948	75.26
811.127	120.32
811.306	101.89
811.485	71.17
811.664	83.45
811.843	124.41
812.022	60.93
812.201	110.08
812.38	89.6
812.559	73.21
812.737	97.79
812.916	71.17
813.095	97.79
813.274	206.33
813.453	83.45
813.632	144.89
813.811	71.17
813.989	126.46
814.168	71.17
814.347	30.21
814.526	71.17
814.704	171.52
814.883	185.85
815.062	62.98
815.24	62.98
815.419	50.69
815.598	101.89
815.776	124.41
815.955	60.93
816.133	114.17
816.312	89.6
816.49	56.83
816.669	79.36
816.847	56.83
817.026	67.07
817.204	40.45
817.383	48.64
817.561	73.21
817.74	153.09
817.918	136.7
818.097	60.93
818.275	46.59
818.453	103.93
818.632	140.8
818.81	67.07
818.988	79.36
819.167	97.79
819.345	54.78
819.523	71.17
819.701	22.02
819.879	103.93
820.058	11.78
820.236	42.5
820.414	69.12
820.592	56.83
820.77	46.59
820.948	81.41
821.127	87.55
821.305	52.74
821.483	67.07
821.661	46.59
821.839	44.54
822.017	34.3
822.195	-18.94
822.373	81.41
822.551	34.3
822.729	71.17
822.907	7.68
823.085	95.74
823.262	112.13
823.44	60.93
823.618	22.02
823.796	58.88
823.974	108.03
824.152	50.69
824.329	73.21
824.507	83.45
824.685	19.97
824.863	48.64
825.04	17.92
825.218	95.74
825.396	40.45
825.574	81.41
825.751	60.93
825.929	48.64
826.107	79.36
826.284	120.32
826.462	30.21
826.639	91.65
826.817	7.68
826.994	71.17
827.172	13.82
827.349	81.41
827.527	32.26
827.704	81.41
827.882	28.16
828.059	38.4
828.237	79.36
828.414	58.88
828.591	7.68
828.769	-33.28
828.946	22.02
829.124	105.98
829.301	71.17
829.478	26.11
829.655	58.88
829.833	77.31
830.01	13.82
830.187	54.78
830.364	1.54
830.542	95.74
830.719	22.02
830.896	67.07
831.073	71.17
831.25	-16.9
831.427	24.06
831.604	22.02
831.782	93.69
831.959	50.69
832.136	56.83
832.313	7.68
832.49	79.36
832.667	71.17
832.844	-14.85
833.021	71.17
833.198	9.73
833.374	40.45
833.551	52.74
833.728	99.84
833.905	77.31
834.082	38.4
834.259	40.45
834.436	30.21
834.612	28.16
834.789	89.6
834.966	179.71
835.143	60.93
835.319	28.16
835.496	85.5
835.673	26.11
835.85	56.83
836.026	7.68
836.203	83.45
836.38	-43.52
836.556	44.54
836.733	67.07
836.909	30.21
837.086	32.26
837.262	54.78
837.439	69.12
837.616	46.59
837.792	60.93
837.968	52.74
838.145	24.06
838.321	28.16
838.498	62.98
838.674	54.78
838.851	-4.61
839.027	71.17
839.203	42.5
839.38	42.5
839.556	7.68
839.732	48.64
839.909	5.63
840.085	52.74
840.261	-37.38
840.437	-6.66
840.614	28.16
840.79	32.26
840.966	42.5
841.142	40.45
841.318	26.11
841.494	58.88
841.671	-2.56
841.847	-18.94
842.023	15.87
842.199	99.84
842.375	-27.14
842.551	7.68
842.727	62.98
842.903	7.68
843.079	-90.62
843.255	42.5
843.431	79.36
843.607	65.02
843.783	73.21
843.959	46.59
844.134	-53.76
844.31	-4.61
844.486	-12.8
844.662	-4.61
844.838	40.45
845.013	36.35
845.189	65.02
845.365	-18.94
845.541	-27.14
845.716	11.78
845.892	38.4
846.068	-18.94
846.244	40.45
846.419	79.36
846.595	26.11
846.77	-16.9
846.946	-39.42
847.122	-41.47
847.297	73.21
847.473	17.92
847.648	-61.95
847.824	34.3
847.999	5.63
848.175	15.87
848.35	-6.66
848.526	42.5
848.701	17.92
848.876	79.36
849.052	85.5
849.227	44.54
849.403	22.02
849.578	62.98
849.753	-23.04
849.929	85.5
850.104	44.54
850.279	13.82
850.454	34.3
850.63	75.26
850.805	9.73
850.98	32.26
851.155	56.83
851.33	32.26
851.505	-84.48
851.681	15.87
851.856	1.54
852.031	54.78
852.206	50.69
852.381	103.93
852.556	-12.8
852.731	99.84
852.906	-37.38
853.081	30.21
853.256	60.93
853.431	13.82
853.606	-10.75
853.781	26.11
853.956	-6.66
854.131	-18.94
854.305	24.06
854.48	-2.56
854.655	67.07
854.83	-6.66
855.005	62.98
855.18	15.87
855.354	71.17
855.529	38.4
855.704	46.59
855.879	15.87
856.053	-18.94
856.228	34.3
856.403	-20.99
856.577	44.54
856.752	71.17
856.926	38.4
857.101	11.78
857.276	-4.61
857.45	-27.14
857.625	52.74
857.799	11.78
857.974	67.07
858.148	-18.94
858.323	26.11
858.497	-31.23
858.672	-18.94
858.846	-45.57
859.02	11.78
859.195	15.87
859.369	-33.28
859.543	38.4
859.718	-16.9
859.892	-10.75
860.066	50.69
860.241	13.82
860.415	54.78
860.589	54.78
860.763	-2.56
860.938	-33.28
861.112	62.98
861.286	13.82
861.46	11.78
861.634	3.58
861.808	32.26
861.982	34.3
862.157	-18.94
862.331	-51.71
862.505	89.6
862.679	-37.38
862.853	26.11
863.027	-2.56
863.201	28.16
863.375	-14.85
863.549	28.16
863.722	-16.9
863.896	22.02
864.07	13.82
864.244	-35.33
864.418	22.02
864.592	-4.61
864.766	13.82
864.939	19.97
865.113	-6.66
865.287	-33.28
865.461	5.63
865.634	-4.61
865.808	-6.66
865.982	15.87
866.156	-0.51
866.329	-10.75
866.503	69.12
866.676	-45.57
866.85	-10.75
867.024	103.93
867.197	9.73
867.371	50.69
867.544	-27.14
867.718	30.21
867.891	60.93
868.065	5.63
868.238	15.87
868.412	67.07
868.585	13.82
868.759	32.26
868.932	56.83
869.105	24.06
869.279	65.02
869.452	-6.66
869.625	17.92
869.799	56.83
869.972	-35.33
870.145	-23.04
870.319	-18.94
870.492	1.54
870.665	13.82
870.838	13.82
871.011	-25.09
871.185	13.82
871.358	-18.94
871.531	-2.56
871.704	-45.57
871.877	36.35
872.05	-27.14
872.223	-74.24
872.396	40.45
872.569	46.59
872.742	-10.75
872.915	120.32
873.088	7.68
873.261	-39.42
873.434	42.5
873.607	-31.23
873.78	-18.94
873.953	58.88
874.126	26.11
874.299	30.21
874.471	15.87
874.644	73.21
874.817	9.73
874.99	9.73
875.163	-8.7
875.335	-2.56
875.508	34.3
875.681	-10.75
875.853	-47.62
876.026	-55.81
876.199	-51.71
876.371	-20.99
876.544	-8.7
876.717	-41.47
876.889	-23.04
877.062	46.59
877.234	-23.04
877.407	32.26
877.579	13.82
877.752	15.87
877.924	-80.38
878.097	42.5
878.269	-8.7
878.442	13.82
878.614	-47.62
878.786	108.03
878.959	-18.94
879.131	32.26
879.303	34.3
879.476	-14.85
879.648	9.73
879.82	13.82
879.993	32.26
880.165	-18.94
880.337	-10.75
880.509	9.73
880.681	-76.29
880.854	38.4
881.026	5.63
881.198	91.65
881.37	-2.56
881.542	26.11
881.714	7.68
881.886	-23.04
882.058	-10.75
882.23	30.21
882.402	-14.85
882.574	7.68
882.746	1.54
882.918	-2.56
883.09	42.5
883.262	46.59
883.434	-35.33
883.606	-39.42
883.778	11.78
883.95	7.68
884.122	-10.75
884.293	1.54
884.465	15.87
884.637	17.92
884.809	-25.09
884.98	-29.18
885.152	77.31
885.324	-39.42
885.496	3.58
885.667	28.16
885.839	38.4
886.011	-0.51
886.182	75.26
886.354	11.78
886.525	-39.42
886.697	65.02
886.869	-33.28
887.04	28.16
887.212	7.68
887.383	-4.61
887.555	1.54
887.726	91.65
887.897	-102.91
888.069	-10.75
888.24	40.45
888.412	15.87
888.583	-23.04
888.754	-6.66
888.926	7.68
889.097	7.68
889.268	-10.75
889.44	-39.42
889.611	62.98
889.782	7.68
889.953	-43.52
890.125	-4.61
890.296	48.64
890.467	-45.57
890.638	15.87
890.809	62.98
890.98	-2.56
891.151	-31.23
891.323	36.35
891.494	38.4
891.665	-59.9
891.836	-27.14
892.007	30.21
892.178	-6.66
892.349	17.92
892.52	-16.9
892.691	-27.14
892.862	-25.09
893.032	28.16
893.203	7.68
893.374	-16.9
893.545	3.58
893.716	-0.51
893.887	-18.94
894.057	-59.9
894.228	-25.09
894.399	62.98
894.57	26.11
894.74	-10.75
894.911	36.35
895.082	11.78
895.253	-18.94
895.423	5.63
895.594	15.87
895.764	-45.57
895.935	26.11
896.106	-43.52
896.276	-14.85
896.447	48.64
896.617	-10.75
896.788	-12.8
896.958	9.73
897.129	-47.62
897.299	-27.14
897.47	5.63
897.64	5.63
897.81	5.63
897.981	-35.33
898.151	-43.52
898.322	32.26
898.492	62.98
898.662	-45.57
898.832	1.54
899.003	67.07
899.173	40.45
899.343	54.78
899.513	17.92
