Data from USB4F104151__156__13-58-40-213.txt Node

Date: Thu Mar 13 13:58:40 EDT 2025
User: louis
Spectrometer: USB4F10415
Trigger mode: 4
Integration Time (sec): 1.000000E-2
Scans to average: 1
Electric dark correction enabled: true
Nonlinearity correction enabled: false
Boxcar width: 0
XAxis mode: Wavelengths
Number of Pixels in Spectrum: 3648
>>>>>Begin Spectral Data<<<<<
178.204	-22.36
178.424	-22.36
178.644	-22.36
178.864	-65.36
179.084	-85.84
179.304	-12.12
179.524	-18.26
179.744	-18.26
179.964	-10.07
180.184	34.99
180.404	20.65
180.624	-1.88
180.844	32.94
181.064	-10.07
181.283	30.89
181.503	-34.64
181.723	-14.17
181.943	-48.98
182.163	45.23
182.383	18.6
182.602	-36.69
182.822	-32.6
183.042	24.75
183.262	-30.55
183.482	22.7
183.701	-87.89
183.921	12.46
184.141	-28.5
184.361	-1.88
184.58	22.7
184.8	41.13
185.02	-20.31
185.239	18.6
185.459	26.79
185.679	55.47
185.898	-59.22
186.118	30.89
186.338	-16.21
186.557	-10.07
186.777	-5.97
186.997	-59.22
187.216	-8.02
187.436	12.46
187.655	10.41
187.875	0.17
188.095	-8.02
188.314	-1.88
188.534	-48.98
188.753	0.17
188.973	67.75
189.192	-10.07
189.412	63.66
189.631	10.41
189.851	16.55
190.07	71.85
190.29	51.37
190.509	63.66
190.729	39.08
190.948	92.33
191.168	73.9
191.387	24.75
191.607	14.51
191.826	-8.02
192.045	16.55
192.265	-10.07
192.484	-22.36
192.704	26.79
192.923	16.55
193.142	47.27
193.362	32.94
193.581	22.7
193.8	14.51
194.02	32.94
194.239	-71.51
194.458	-24.4
194.678	-12.12
194.897	90.28
195.116	-42.84
195.335	30.89
195.555	-1.88
195.774	26.79
195.993	69.8
196.212	24.75
196.432	39.08
196.651	6.31
196.87	-24.4
197.089	65.71
197.308	-30.55
197.528	34.99
197.747	-38.74
197.966	30.89
198.185	-30.55
198.404	-24.4
198.623	-1.88
198.842	41.13
199.062	-10.07
199.281	45.23
199.5	-44.88
199.719	24.75
199.938	34.99
200.157	2.22
200.376	-26.45
200.595	47.27
200.814	51.37
201.033	26.79
201.252	-12.12
201.471	22.7
201.69	30.89
201.909	30.89
202.128	6.31
202.347	14.51
202.566	-8.02
202.785	47.27
203.004	6.31
203.223	18.6
203.442	37.03
203.661	24.75
203.879	92.33
204.098	18.6
204.317	12.46
204.536	73.9
204.755	-14.17
204.974	0.17
205.193	26.79
205.411	30.89
205.63	32.94
205.849	30.89
206.068	0.17
206.287	63.66
206.505	39.08
206.724	-1.88
206.943	59.56
207.162	-1.88
207.381	-8.02
207.599	-5.97
207.818	18.6
208.037	26.79
208.255	20.65
208.474	-28.5
208.693	6.31
208.911	63.66
209.13	-30.55
209.349	-26.45
209.567	30.89
209.786	30.89
210.005	14.51
210.223	49.32
210.442	-18.26
210.661	6.31
210.879	53.42
211.098	14.51
211.316	55.47
211.535	39.08
211.753	18.6
211.972	96.43
212.191	49.32
212.409	6.31
212.628	20.65
212.846	-3.93
213.065	-34.64
213.283	114.86
213.502	47.27
213.72	-51.03
213.938	-8.02
214.157	-3.93
214.375	41.13
214.594	2.22
214.812	43.18
215.031	-38.74
215.249	-18.26
215.467	88.23
215.686	82.09
215.904	30.89
216.122	28.84
216.341	53.42
216.559	-44.88
216.778	55.47
216.996	-18.26
217.214	10.41
217.432	10.41
217.651	6.31
217.869	16.55
218.087	51.37
218.306	16.55
218.524	49.32
218.742	-28.5
218.96	-8.02
219.179	43.18
219.397	49.32
219.615	28.84
219.833	-5.97
220.051	18.6
220.27	49.32
220.488	-16.21
220.706	32.94
220.924	-57.17
221.142	-44.88
221.36	30.89
221.578	96.43
221.796	30.89
222.015	0.17
222.233	16.55
222.451	-1.88
222.669	-55.12
222.887	-18.26
223.105	-46.93
223.323	0.17
223.541	18.6
223.759	59.56
223.977	77.99
224.195	47.27
224.413	49.32
224.631	63.66
224.849	-24.4
225.067	-3.93
225.285	10.41
225.503	24.75
225.721	-114.52
225.939	-5.97
226.157	41.13
226.375	34.99
226.592	14.51
226.81	-65.36
227.028	88.23
227.246	41.13
227.464	51.37
227.682	82.09
227.9	43.18
228.117	39.08
228.335	32.94
228.553	-5.97
228.771	-20.31
228.989	47.27
229.206	-22.36
229.424	41.13
229.642	-34.64
229.86	-24.4
230.077	-10.07
230.295	59.56
230.513	51.37
230.731	-36.69
230.948	47.27
231.166	57.51
231.384	18.6
231.601	-40.79
231.819	20.65
232.037	16.55
232.254	57.51
232.472	22.7
232.689	88.23
232.907	39.08
233.125	20.65
233.342	55.47
233.56	-22.36
233.777	45.23
233.995	57.51
234.213	10.41
234.43	2.22
234.648	-34.64
234.865	-10.07
235.083	20.65
235.3	16.55
235.518	43.18
235.735	-16.21
235.953	39.08
236.17	-16.21
236.388	30.89
236.605	-22.36
236.822	18.6
237.04	4.27
237.257	-32.6
237.475	-12.12
237.692	41.13
237.909	26.79
238.127	18.6
238.344	43.18
238.562	12.46
238.779	24.75
238.996	0.17
239.214	-20.31
239.431	-22.36
239.648	2.22
239.865	30.89
240.083	-3.93
240.3	8.36
240.517	6.31
240.735	39.08
240.952	-8.02
241.169	67.75
241.386	37.03
241.603	39.08
241.821	69.8
242.038	77.99
242.255	61.61
242.472	-8.02
242.689	51.37
242.907	47.27
243.124	14.51
243.341	0.17
243.558	59.56
243.775	22.7
243.992	32.94
244.209	18.6
244.426	6.31
244.643	47.27
244.86	14.51
245.078	2.22
245.295	-32.6
245.512	18.6
245.729	51.37
245.946	51.37
246.163	0.17
246.38	88.23
246.597	8.36
246.814	-1.88
247.031	-22.36
247.248	57.51
247.464	-110.42
247.681	145.58
247.898	18.6
248.115	6.31
248.332	8.36
248.549	-94.04
248.766	-24.4
248.983	-24.4
249.2	6.31
249.417	6.31
249.633	6.31
249.85	6.31
250.067	18.6
250.284	18.6
250.501	-8.02
250.717	20.65
250.934	18.6
251.151	-38.74
251.368	12.46
251.585	75.95
251.801	-14.17
252.018	57.51
252.235	18.6
252.451	-30.55
252.668	32.94
252.885	12.46
253.102	41.13
253.318	77.99
253.535	18.6
253.752	43.18
253.968	10.41
254.185	12.46
254.401	20.65
254.618	37.03
254.835	-1.88
255.051	8.36
255.268	-42.84
255.484	14.51
255.701	-3.93
255.917	57.51
256.134	8.36
256.351	-73.56
256.567	6.31
256.784	30.89
257	41.13
257.217	0.17
257.433	-32.6
257.65	-34.64
257.866	-22.36
258.082	-1.88
258.299	-34.64
258.515	55.47
258.732	6.31
258.948	-20.31
259.165	32.94
259.381	75.95
259.597	47.27
259.814	-20.31
260.03	61.61
260.246	37.03
260.463	43.18
260.679	59.56
260.895	55.47
261.112	24.75
261.328	12.46
261.544	28.84
261.761	-22.36
261.977	57.51
262.193	-81.75
262.409	-3.93
262.626	-77.65
262.842	49.32
263.058	-20.31
263.274	8.36
263.49	22.7
263.707	28.84
263.923	16.55
264.139	-5.97
264.355	-18.26
264.571	37.03
264.787	20.65
265.004	-32.6
265.22	32.94
265.436	39.08
265.652	16.55
265.868	28.84
266.084	-10.07
266.3	0.17
266.516	22.7
266.732	49.32
266.948	49.32
267.164	-42.84
267.38	30.89
267.596	82.09
267.812	45.23
268.028	77.99
268.244	18.6
268.46	2.22
268.676	53.42
268.892	-32.6
269.108	-63.32
269.324	12.46
269.54	41.13
269.756	37.03
269.972	-8.02
270.188	18.6
270.403	-18.26
270.619	30.89
270.835	43.18
271.051	24.75
271.267	-32.6
271.483	-38.74
271.698	34.99
271.914	-48.98
272.13	20.65
272.346	32.94
272.562	55.47
272.777	32.94
272.993	30.89
273.209	59.56
273.425	-8.02
273.64	47.27
273.856	32.94
274.072	-16.21
274.287	-48.98
274.503	22.7
274.719	41.13
274.934	18.6
275.15	14.51
275.366	67.75
275.581	28.84
275.797	-26.45
276.012	26.79
276.228	24.75
276.444	45.23
276.659	-1.88
276.875	-5.97
277.09	-14.17
277.306	59.56
277.521	43.18
277.737	18.6
277.952	-20.31
278.168	34.99
278.383	-59.22
278.599	55.47
278.814	43.18
279.03	61.61
279.245	26.79
279.461	-28.5
279.676	10.41
279.892	18.6
280.107	-3.93
280.322	59.56
280.538	106.67
280.753	90.28
280.969	63.66
281.184	24.75
281.399	82.09
281.615	57.51
281.83	30.89
282.045	-1.88
282.26	8.36
282.476	-22.36
282.691	6.31
282.906	37.03
283.122	22.7
283.337	0.17
283.552	22.7
283.767	-3.93
283.983	4.27
284.198	-46.93
284.413	80.04
284.628	-3.93
284.843	30.89
285.058	30.89
285.274	-30.55
285.489	22.7
285.704	-14.17
285.919	16.55
286.134	-28.5
286.349	45.23
286.564	145.58
286.779	57.51
286.995	14.51
287.21	-3.93
287.425	67.75
287.64	0.17
287.855	16.55
288.07	14.51
288.285	-10.07
288.5	41.13
288.715	28.84
288.93	32.94
289.145	63.66
289.36	-20.31
289.575	24.75
289.79	-18.26
290.004	43.18
290.219	41.13
290.434	-3.93
290.649	63.66
290.864	32.94
291.079	20.65
291.294	18.6
291.509	65.71
291.724	59.56
291.938	16.55
292.153	18.6
292.368	73.9
292.583	-12.12
292.798	-44.88
293.012	57.51
293.227	26.79
293.442	-42.84
293.657	4.27
293.871	135.34
294.086	-3.93
294.301	4.27
294.516	32.94
294.73	37.03
294.945	-53.08
295.16	-10.07
295.374	57.51
295.589	63.66
295.804	39.08
296.018	39.08
296.233	16.55
296.447	26.79
296.662	20.65
296.877	90.28
297.091	45.23
297.306	112.81
297.52	10.41
297.735	10.41
297.949	63.66
298.164	37.03
298.378	37.03
298.593	61.61
298.807	69.8
299.022	92.33
299.236	-20.31
299.451	161.96
299.665	24.75
299.88	0.17
300.094	37.03
300.309	2.22
300.523	20.65
300.737	-12.12
300.952	24.75
301.166	26.79
301.381	4.27
301.595	80.04
301.809	10.41
302.024	22.7
302.238	10.41
302.452	32.94
302.667	-5.97
302.881	127.14
303.095	14.51
303.309	14.51
303.524	-3.93
303.738	30.89
303.952	24.75
304.166	10.41
304.381	-18.26
304.595	86.19
304.809	16.55
305.023	-3.93
305.237	53.42
305.452	-22.36
305.666	30.89
305.88	-3.93
306.094	80.04
306.308	4.27
306.522	49.32
306.736	28.84
306.95	43.18
307.164	18.6
307.379	39.08
307.593	39.08
307.807	18.6
308.021	10.41
308.235	-87.89
308.449	-8.02
308.663	24.75
308.877	34.99
309.091	-38.74
309.305	-8.02
309.519	-12.12
309.733	86.19
309.947	43.18
310.161	-10.07
310.374	16.55
310.588	-24.4
310.802	26.79
311.016	18.6
311.23	12.46
311.444	88.23
311.658	22.7
311.872	0.17
312.085	-22.36
312.299	63.66
312.513	86.19
312.727	47.27
312.941	6.31
313.154	84.14
313.368	51.37
313.582	14.51
313.796	43.18
314.009	16.55
314.223	61.61
314.437	32.94
314.651	6.31
314.864	73.9
315.078	43.18
315.292	41.13
315.505	32.94
315.719	-12.12
315.933	-16.21
316.146	10.41
316.36	-81.75
316.573	39.08
316.787	55.47
317.001	30.89
317.214	4.27
317.428	10.41
317.641	4.27
317.855	22.7
318.068	39.08
318.282	73.9
318.495	51.37
318.709	86.19
318.922	82.09
319.136	8.36
319.349	49.32
319.563	16.55
319.776	37.03
319.99	8.36
320.203	-8.02
320.417	63.66
320.63	10.41
320.843	110.76
321.057	-44.88
321.27	100.52
321.483	-40.79
321.697	-3.93
321.91	92.33
322.124	10.41
322.337	53.42
322.55	-1.88
322.763	69.8
322.977	24.75
323.19	-16.21
323.403	-38.74
323.617	-32.6
323.83	26.79
324.043	8.36
324.256	16.55
324.469	63.66
324.683	32.94
324.896	47.27
325.109	22.7
325.322	43.18
325.535	24.75
325.748	-22.36
325.962	-1.88
326.175	55.47
326.388	0.17
326.601	63.66
326.814	41.13
327.027	-32.6
327.24	-3.93
327.453	-18.26
327.666	63.66
327.879	-26.45
328.092	41.13
328.305	86.19
328.518	24.75
328.731	-48.98
328.944	28.84
329.157	43.18
329.37	-1.88
329.583	-18.26
329.796	4.27
330.009	-8.02
330.222	-79.7
330.435	47.27
330.648	47.27
330.861	39.08
331.073	65.71
331.286	-24.4
331.499	-10.07
331.712	-8.02
331.925	0.17
332.138	-44.88
332.35	47.27
332.563	51.37
332.776	-1.88
332.989	6.31
333.202	30.89
333.414	10.41
333.627	2.22
333.84	55.47
334.053	10.41
334.265	55.47
334.478	18.6
334.691	22.7
334.903	37.03
335.116	104.62
335.329	47.27
335.541	-36.69
335.754	26.79
335.966	6.31
336.179	63.66
336.392	-73.56
336.604	69.8
336.817	55.47
337.029	57.51
337.242	43.18
337.454	-8.02
337.667	14.51
337.88	28.84
338.092	47.27
338.305	-38.74
338.517	-28.5
338.729	20.65
338.942	55.47
339.154	51.37
339.367	4.27
339.579	18.6
339.792	-24.4
340.004	55.47
340.217	18.6
340.429	24.75
340.641	14.51
340.854	0.17
341.066	22.7
341.278	6.31
341.491	20.65
341.703	43.18
341.915	0.17
342.128	12.46
342.34	39.08
342.552	18.6
342.764	18.6
342.977	-26.45
343.189	-1.88
343.401	32.94
343.613	39.08
343.826	-8.02
344.038	55.47
344.25	6.31
344.462	53.42
344.674	2.22
344.886	14.51
345.099	8.36
345.311	53.42
345.523	-42.84
345.735	55.47
345.947	32.94
346.159	65.71
346.371	20.65
346.583	0.17
346.795	73.9
347.007	0.17
347.219	63.66
347.431	-51.03
347.643	-14.17
347.855	22.7
348.067	65.71
348.279	28.84
348.491	55.47
348.703	55.47
348.915	24.75
349.127	-16.21
349.339	47.27
349.551	63.66
349.763	71.85
349.975	-10.07
350.187	73.9
350.399	116.9
350.61	37.03
350.822	-14.17
351.034	67.75
351.246	73.9
351.458	39.08
351.669	-16.21
351.881	30.89
352.093	39.08
352.305	51.37
352.517	57.51
352.728	32.94
352.94	59.56
353.152	51.37
353.363	-12.12
353.575	20.65
353.787	20.65
353.999	20.65
354.21	57.51
354.422	-51.03
354.633	-18.26
354.845	80.04
355.057	41.13
355.268	14.51
355.48	43.18
355.692	55.47
355.903	2.22
356.115	-12.12
356.326	-44.88
356.538	-16.21
356.749	53.42
356.961	49.32
357.172	84.14
357.384	80.04
357.595	41.13
357.807	-14.17
358.018	-5.97
358.23	55.47
358.441	-51.03
358.653	82.09
358.864	67.75
359.075	-32.6
359.287	28.84
359.498	10.41
359.709	2.22
359.921	-65.36
360.132	30.89
360.344	57.51
360.555	6.31
360.766	10.41
360.977	-26.45
361.189	32.94
361.4	-32.6
361.611	12.46
361.823	67.75
362.034	69.8
362.245	110.76
362.456	51.37
362.667	34.99
362.879	61.61
363.09	55.47
363.301	26.79
363.512	67.75
363.723	51.37
363.935	34.99
364.146	51.37
364.357	-34.64
364.568	-1.88
364.779	-14.17
364.99	63.66
365.201	-65.36
365.412	24.75
365.623	-32.6
365.834	12.46
366.045	59.56
366.256	24.75
366.467	-10.07
366.678	82.09
366.889	112.81
367.1	4.27
367.311	32.94
367.522	-8.02
367.733	-18.26
367.944	59.56
368.155	18.6
368.366	73.9
368.577	84.14
368.788	39.08
368.999	59.56
369.209	80.04
369.42	-32.6
369.631	55.47
369.842	57.51
370.053	47.27
370.264	30.89
370.474	57.51
370.685	32.94
370.896	59.56
371.107	59.56
371.317	43.18
371.528	30.89
371.739	4.27
371.95	49.32
372.16	104.62
372.371	-28.5
372.582	30.89
372.792	43.18
373.003	57.51
373.214	6.31
373.424	112.81
373.635	6.31
373.846	123.05
374.056	0.17
374.267	49.32
374.477	90.28
374.688	-3.93
374.898	88.23
375.109	53.42
375.319	-34.64
375.53	39.08
375.74	24.75
375.951	16.55
376.161	47.27
376.372	147.62
376.582	49.32
376.793	65.71
377.003	59.56
377.214	49.32
377.424	10.41
377.635	84.14
377.845	-38.74
378.055	45.23
378.266	2.22
378.476	0.17
378.686	61.61
378.897	2.22
379.107	-91.99
379.317	2.22
379.528	-55.12
379.738	20.65
379.948	-10.07
380.158	20.65
380.369	30.89
380.579	30.89
380.789	-63.32
380.999	20.65
381.21	65.71
381.42	6.31
381.63	20.65
381.84	114.86
382.05	-69.46
382.261	14.51
382.471	59.56
382.681	88.23
382.891	65.71
383.101	4.27
383.311	71.85
383.521	106.67
383.731	125.1
383.941	14.51
384.151	51.37
384.361	6.31
384.571	67.75
384.781	37.03
384.991	71.85
385.201	77.99
385.411	73.9
385.621	67.75
385.831	30.89
386.041	47.27
386.251	-1.88
386.461	55.47
386.671	-1.88
386.881	16.55
387.091	43.18
387.301	69.8
387.511	-28.5
387.72	55.47
387.93	73.9
388.14	125.1
388.35	22.7
388.56	10.41
388.769	18.6
388.979	39.08
389.189	10.41
389.399	71.85
389.609	51.37
389.818	34.99
390.028	96.43
390.238	-38.74
390.447	65.71
390.657	61.61
390.867	37.03
391.076	14.51
391.286	39.08
391.496	39.08
391.705	88.23
391.915	4.27
392.125	43.18
392.334	32.94
392.544	55.47
392.753	65.71
392.963	184.49
393.172	92.33
393.382	71.85
393.591	88.23
393.801	75.95
394.01	10.41
394.22	4.27
394.429	100.52
394.639	65.71
394.848	125.1
395.058	73.9
395.267	96.43
395.477	63.66
395.686	-10.07
395.895	92.33
396.105	43.18
396.314	37.03
396.524	82.09
396.733	82.09
396.942	98.47
397.152	45.23
397.361	112.81
397.57	57.51
397.78	104.62
397.989	26.79
398.198	106.67
398.407	39.08
398.617	100.52
398.826	90.28
399.035	121
399.244	47.27
399.453	49.32
399.663	75.95
399.872	123.05
400.081	100.52
400.29	110.76
400.499	67.75
400.708	108.71
400.917	94.38
401.127	129.19
401.336	30.89
401.545	84.14
401.754	63.66
401.963	59.56
402.172	98.47
402.381	116.9
402.59	69.8
402.799	139.43
403.008	112.81
403.217	51.37
403.426	135.34
403.635	114.86
403.844	131.24
404.053	147.62
404.262	61.61
404.471	133.29
404.68	137.38
404.888	178.34
405.097	112.81
405.306	100.52
405.515	155.82
405.724	100.52
405.933	100.52
406.142	141.48
406.35	100.52
406.559	174.25
406.768	125.1
406.977	168.1
407.185	147.62
407.394	182.44
407.603	161.96
407.812	178.34
408.02	235.69
408.229	219.3
408.438	182.44
408.646	164.01
408.855	135.34
409.064	143.53
409.272	137.38
409.481	157.86
409.69	233.64
409.898	164.01
410.107	262.31
410.315	194.73
410.524	268.45
410.733	233.64
410.941	157.86
411.15	252.07
411.358	286.89
411.567	213.16
411.775	241.83
411.984	221.35
412.192	293.03
412.401	329.89
412.609	301.22
412.818	391.33
413.026	420
413.234	372.9
413.443	295.08
413.651	374.95
413.86	389.28
414.068	399.52
414.276	405.67
414.485	481.44
414.693	514.21
414.901	438.44
415.11	501.92
415.318	508.07
415.526	450.72
415.734	567.46
415.943	592.03
416.151	528.55
416.359	573.6
416.567	600.23
416.776	661.66
416.984	616.61
417.192	710.82
417.4	635.04
417.608	714.91
417.817	743.58
418.025	741.54
418.233	868.51
418.441	807.07
418.649	809.12
418.857	850.08
419.065	934.04
419.273	946.33
419.481	813.21
419.689	1015.96
419.897	1085.59
420.105	1048.73
420.313	1020.06
420.521	1149.08
420.729	1179.8
420.937	1165.46
421.145	1226.9
421.353	1169.56
421.561	1319.06
421.769	1386.65
421.977	1413.27
422.185	1542.29
422.393	1624.21
422.601	1720.46
422.809	1562.77
423.017	1636.5
423.224	1714.32
423.432	1706.13
423.64	1722.51
423.848	1953.93
424.056	1826.96
424.263	1992.84
424.471	1996.94
424.679	2066.57
424.887	2152.59
425.094	2242.7
425.302	2197.64
425.51	2388.1
425.718	2390.15
425.925	2488.45
426.133	2549.89
426.341	2683.01
426.548	2619.52
426.756	2857.09
426.964	2793.6
427.171	2982.01
427.379	3070.08
427.586	3100.8
427.794	3266.68
428.001	3291.26
428.209	3455.09
428.417	3420.28
428.624	3645.56
428.832	3682.42
429.039	3580.02
429.247	3606.64
429.454	3946.61
429.662	4235.37
429.869	4044.91
430.076	4180.07
430.284	4132.97
430.491	4350.06
430.699	4618.34
430.906	4524.13
431.114	4597.86
431.321	4870.24
431.528	4917.34
431.736	5081.18
431.943	5445.72
432.15	5306.46
432.358	5310.55
432.565	5531.73
432.772	5570.65
432.979	5793.87
433.187	5875.79
433.394	5810.26
433.601	6355.02
433.808	6395.98
434.016	6271.05
434.223	6543.43
434.43	6993.98
434.637	6883.39
434.844	7389.24
435.052	7524.41
435.259	7405.63
435.466	7714.87
435.673	7471.16
435.88	7987.25
436.087	8474.67
436.294	8280.11
436.501	7981.1
436.708	8181.81
436.915	8790.05
437.122	8910.88
437.329	9017.38
437.537	9340.96
437.743	9437.21
437.95	8986.66
438.157	9728.02
438.364	10051.6
438.571	10133.52
438.778	10135.57
438.985	11018.24
439.192	10436.62
439.399	10944.52
439.606	10674.18
439.813	11247.62
440.02	11884.53
440.227	11804.66
440.433	11917.3
440.64	12074.99
440.847	11913.2
441.054	12355.57
441.261	12967.91
441.467	13047.78
441.674	13375.45
441.881	13586.4
442.088	13565.92
442.294	13539.29
442.501	13834.2
442.708	14157.78
442.914	14704.59
443.121	15153.09
443.328	14751.69
443.534	15867.83
443.741	15390.66
443.948	15157.19
444.154	16218.04
444.361	16123.83
444.568	16422.83
444.774	16353.2
444.981	16830.38
445.187	17072.04
445.394	17764.25
445.6	17506.21
445.807	19136.39
446.013	18294.68
446.22	18972.55
446.426	19545.98
446.633	19453.83
446.839	20369.27
447.046	19656.57
447.252	20592.5
447.459	20469.62
447.665	20375.41
447.871	21569.38
448.078	22216.54
448.284	21233.51
448.491	21757.79
448.697	22470.48
448.903	22673.23
449.11	23134.03
449.316	22822.73
449.522	23119.69
449.728	23682.88
449.935	23801.66
450.141	23891.77
450.347	24145.72
450.553	23584.58
450.76	24012.6
450.966	24790.83
451.172	24491.83
451.378	24932.14
451.584	24434.49
451.791	25161.51
451.997	25171.75
452.203	25192.23
452.409	25509.67
452.615	25114.41
452.821	24508.21
453.027	24180.54
453.233	25257.77
453.44	24459.06
453.646	24596.28
453.852	24753.97
454.058	25036.59
454.264	24364.85
454.47	24903.47
454.676	24110.91
454.882	25241.39
455.088	22853.45
455.294	23271.24
455.5	23461.7
455.705	23244.62
455.911	22671.18
456.117	22187.86
456.323	22157.14
456.529	21034.86
456.735	21563.23
456.941	21389.16
457.147	20670.32
457.352	20483.95
457.558	20014.97
457.764	20135.8
457.97	19527.55
458.176	18921.35
458.381	19251.08
458.587	18446.23
458.793	18286.48
458.999	17168.29
459.204	18448.27
459.41	18235.28
459.616	17113
459.821	16871.34
460.027	17194.92
460.233	16326.58
460.438	16095.16
460.644	15822.78
460.85	15128.52
461.055	14981.06
461.261	14727.11
461.466	13895.64
461.672	13436.89
461.878	14378.96
462.083	13334.5
462.289	13152.23
462.494	12945.38
462.7	12302.32
462.905	12218.35
463.111	12607.47
463.316	12644.33
463.522	12386.29
463.727	12423.15
463.932	12308.46
464.138	12208.11
464.343	12255.22
464.549	12052.47
464.754	12439.53
464.959	12003.32
465.165	12017.65
465.37	11544.57
465.575	11376.64
465.781	12158.96
465.986	11984.88
466.191	11468.8
466.397	11196.42
466.602	10469.39
466.807	11216.9
467.012	11210.75
467.218	11145.22
467.423	10934.28
467.628	11073.54
467.833	11196.42
468.038	11014.15
468.244	10706.95
468.449	11081.73
468.654	10768.39
468.859	10665.99
469.064	10846.21
469.269	10229.77
469.474	10262.54
469.679	10510.35
469.885	10182.67
470.09	10383.37
470.295	10348.56
470.5	9777.17
470.705	10063.89
470.91	9891.86
471.115	9857.04
471.32	10022.93
471.525	9947.15
471.73	9662.49
471.935	9689.11
472.139	9132.06
472.344	9371.68
472.549	9183.26
472.754	9084.96
472.959	9007.14
473.164	8847.4
473.369	8831.01
473.574	9109.54
473.778	8966.18
473.983	9052.19
474.188	8609.83
474.393	8476.71
474.598	8443.95
474.802	8362.03
475.007	8411.18
475.212	8400.94
475.417	8040.5
475.621	7880.75
475.826	8085.55
476.031	8075.31
476.235	7667.77
476.44	8050.74
476.645	7675.96
476.849	7915.57
477.054	7731.25
477.259	7600.18
477.463	7469.11
477.668	7352.38
477.872	7209.02
478.077	7254.08
478.282	7024.7
478.486	7223.36
478.691	7153.73
478.895	7034.94
479.1	7034.94
479.304	6940.74
479.509	6813.76
479.713	6858.82
479.918	6781
480.122	6729.8
480.326	6895.68
480.531	6903.87
480.735	6754.37
480.94	6477.9
481.144	6787.14
481.348	6615.11
481.553	6533.19
481.757	6477.9
481.961	6619.21
482.166	6850.63
482.37	6580.29
482.574	6529.1
482.778	6594.63
482.983	6527.05
483.187	6522.95
483.391	6635.59
483.595	6627.4
483.8	6361.16
484.004	6332.49
484.208	6549.57
484.412	6572.1
484.616	6434.89
484.821	6565.96
485.025	6426.7
485.229	6582.34
485.433	6334.54
485.637	6510.66
485.841	6629.45
486.045	6492.23
486.249	6672.45
486.453	6410.31
486.657	6656.07
486.861	6570.05
487.065	6455.37
487.269	6301.77
487.473	6441.03
487.677	6545.48
487.881	6537.29
488.085	6600.77
488.289	6613.06
488.493	6539.33
488.697	6608.97
488.901	6651.97
489.105	6611.01
489.309	6535.24
489.512	6600.77
489.716	6549.57
489.92	6764.61
490.124	6594.63
490.328	6774.85
490.531	6537.29
490.735	6680.64
490.939	6641.73
491.143	6774.85
491.346	6654.02
491.55	6766.66
491.754	6858.82
491.958	6957.12
492.161	6873.15
492.365	6901.83
492.569	6793.28
492.772	6858.82
492.976	7200.83
493.18	6979.65
493.383	6965.31
493.587	7192.64
493.79	7362.62
493.994	7184.45
494.197	7073.85
494.401	7307.32
494.605	7321.66
494.808	7438.39
495.012	7520.31
495.215	7616.57
495.419	7645.24
495.622	7561.27
495.825	7686.2
496.029	7817.27
496.232	7723.06
496.436	7764.02
496.639	8134.7
496.843	8046.64
497.046	8149.04
497.249	8302.64
497.453	8294.44
497.656	8560.68
497.859	8402.99
498.063	8560.68
498.266	8751.14
498.469	8673.32
498.673	8777.76
498.876	8839.2
499.079	9050.14
499.282	9035.81
499.485	9019.43
499.689	9209.89
499.892	9445.4
500.095	9322.52
500.298	9580.57
500.501	9504.79
500.705	9914.39
500.908	10008.59
501.111	10051.6
501.314	10156.05
501.517	10336.27
501.72	10471.43
501.923	10477.58
502.126	10698.76
502.329	10883.08
502.532	10934.28
502.735	11001.86
502.938	11237.38
503.141	11331.58
503.344	11507.71
503.547	11313.15
503.75	11773.94
503.953	11905.01
504.156	11978.74
504.359	12122.1
504.562	12427.25
504.765	12488.68
504.968	12466.16
505.17	12709.86
505.373	12793.83
505.576	13047.78
505.779	13395.93
505.982	13551.58
506.185	13592.54
506.387	13678.55
506.59	13627.35
506.793	14010.32
506.996	14006.23
507.198	14567.37
507.401	14522.32
507.604	14600.14
507.807	14872.52
508.009	15151.04
508.212	15275.97
508.415	15415.23
508.617	15808.44
508.82	15787.96
509.022	15843.26
509.225	16103.35
509.428	16334.77
509.63	16549.81
509.833	16535.47
510.035	16734.12
510.238	16947.11
510.44	17340.32
510.643	17381.28
510.845	17631.13
511.048	17639.33
511.25	17981.34
511.453	18106.26
511.655	18741.13
511.858	18667.41
512.06	18769.8
512.262	18907.02
512.465	19048.33
512.667	19398.53
512.87	19470.21
513.072	19765.12
513.274	20152.18
513.477	20649.84
513.679	20615.02
513.881	20385.65
514.084	21188.46
514.286	20918.12
514.488	21512.03
514.69	21923.68
514.893	22026.07
515.095	21983.07
515.297	22427.48
515.499	22488.92
515.701	22937.42
515.904	23039.82
516.106	23355.21
516.308	23600.96
516.51	23768.9
516.712	23789.38
516.914	23957.31
517.116	24688.43
517.318	24737.59
517.52	25155.37
517.722	24973.1
517.925	25356.07
518.127	25802.53
518.329	25827.1
518.531	26205.98
518.733	26343.19
518.935	26621.72
519.136	26906.38
519.338	27457.29
519.54	27193.1
519.742	27707.14
519.944	27819.78
520.146	28403.45
520.348	28133.12
520.55	28518.14
520.752	28448.5
520.954	29380.33
521.155	29101.81
521.357	29658.85
521.559	29619.94
521.761	30308.06
521.963	30058.21
522.164	30815.96
522.366	30525.14
522.568	30670.55
522.77	30912.21
522.971	31495.88
523.173	31471.31
523.375	31991.49
523.576	31854.28
523.778	31870.66
523.98	32401.08
524.181	32534.2
524.383	32274.11
524.584	33119.92
524.786	33255.09
524.988	32640.7
525.189	33326.77
525.391	33810.09
525.592	33681.06
525.794	34127.52
525.995	34061.99
526.197	33861.29
526.398	34326.17
526.6	34131.62
526.801	34297.5
527.003	34801.3
527.204	34854.55
527.406	35485.33
527.607	35002
527.808	35425.93
528.01	35057.3
528.211	35010.2
528.412	36064.9
528.614	35370.64
528.815	36025.99
529.016	36191.87
529.218	35577.48
529.419	36173.44
529.62	36535.93
529.822	36236.93
530.023	36519.55
530.224	36341.38
530.425	36556.41
530.626	36386.43
530.828	36019.85
531.029	36855.42
531.23	36609.66
531.431	36583.04
531.632	36482.69
531.833	36937.34
532.035	36767.35
532.236	36781.69
532.437	37209.71
532.638	36759.16
532.839	37062.26
533.04	36945.53
533.241	36812.41
533.442	37379.7
533.643	37039.73
533.844	37158.52
534.045	37316.21
534.246	36812.41
534.447	37023.35
534.648	37297.78
534.849	37324.4
535.05	37009.01
535.251	37240.43
535.451	37168.76
535.652	37127.8
535.853	37045.88
536.054	37250.67
536.255	37467.76
536.456	37451.38
536.657	37504.62
536.857	37351.02
537.058	37205.62
537.259	37774.95
537.46	37303.92
537.66	37353.07
537.861	37805.67
538.062	37369.46
538.263	37367.41
538.463	37154.42
538.664	37461.62
538.865	37508.72
539.065	37478
539.266	36714.11
539.466	37942.89
539.667	37367.41
539.868	37746.28
540.068	37103.22
540.269	37434.99
540.469	37650.03
540.67	37252.72
540.87	37285.49
541.071	37189.24
541.271	37357.17
541.472	37549.68
541.672	37148.28
541.873	37119.6
542.073	36503.17
542.274	37766.76
542.474	37189.24
542.675	36836.98
542.875	37332.59
543.075	37441.14
543.276	36959.86
543.476	37779.05
543.676	37076.6
543.877	37594.73
544.077	37164.66
544.277	37693.04
544.478	37207.67
544.678	37361.26
544.878	36984.44
545.078	37506.67
545.279	37119.6
545.479	37052.02
545.679	37359.22
545.879	37138.04
546.079	37305.97
546.28	37277.3
546.48	36812.41
546.68	37246.58
546.88	37422.7
547.08	37232.24
547.28	37258.87
547.48	36744.83
547.68	37340.78
547.88	36875.9
548.081	37273.2
548.281	37039.73
548.481	36902.52
548.681	37262.96
548.881	36955.77
549.081	37193.33
549.28	37181.04
549.48	37371.5
549.68	36941.43
549.88	37445.23
550.08	36734.59
550.28	37047.93
550.48	36867.7
550.68	37258.87
550.88	37109.36
551.08	37127.8
551.279	37375.6
551.479	36697.72
551.679	37099.12
551.879	37023.35
552.079	37277.3
552.278	37387.89
552.478	37207.67
552.678	37082.74
552.878	37154.42
553.077	36703.87
553.277	36707.96
553.477	37285.49
553.676	36900.47
553.876	37047.93
554.076	36814.46
554.275	36945.53
554.475	36607.61
554.674	36832.89
554.874	36859.51
555.074	37013.11
555.273	36914.81
555.473	36789.88
555.672	37181.04
555.872	36673.15
556.071	36236.93
556.271	36705.91
556.47	36413.06
556.67	36394.62
556.869	36310.66
557.068	36742.78
557.268	36535.93
557.467	36671.1
557.667	36060.8
557.866	36077.19
558.065	36562.56
558.265	36046.47
558.464	36251.27
558.663	36501.12
558.863	35856.01
559.062	36748.92
559.261	35823.24
559.461	36079.24
559.66	35661.45
559.859	35933.83
560.058	35737.23
560.258	35626.64
560.457	35540.62
560.656	35694.22
560.855	35497.61
561.054	35862.15
561.253	35430.03
561.453	35073.68
561.652	35683.98
561.851	35862.15
562.05	35362.45
562.249	35090.07
562.448	35751.56
562.647	35002
562.846	35726.99
563.045	35356.3
563.244	34999.96
563.443	35278.48
563.642	34709.15
563.841	35034.77
564.04	34723.48
564.239	35720.84
564.438	34778.78
564.637	34895.51
564.836	34862.74
565.035	34461.34
565.234	34682.52
565.432	34518.68
565.631	34571.93
565.83	34580.12
566.029	34565.79
566.228	34098.85
566.427	34061.99
566.625	34096.8
566.824	33969.83
567.023	34242.21
567.222	33683.11
567.42	34199.2
567.619	33752.74
567.818	33906.34
568.016	33777.32
568.215	34385.57
568.414	33574.57
568.612	34016.93
568.811	33478.32
569.01	33316.53
569.208	33099.44
569.407	33414.83
569.605	32822.97
569.804	33451.69
570.002	33060.53
570.201	32919.22
570.4	33103.54
570.598	32718.52
570.797	32620.22
570.995	32886.45
571.193	32282.3
571.392	32571.07
571.59	32319.17
571.789	32728.76
571.987	32069.31
572.186	32235.2
572.384	31981.25
572.582	32024.26
572.781	32104.13
572.979	31856.32
573.177	32075.46
573.376	31852.23
573.574	31624.9
573.772	31522.51
573.971	31536.84
574.169	31739.59
574.367	31264.46
574.565	31366.86
574.763	31119.06
574.962	31278.8
575.16	30983.89
575.358	31401.68
575.556	30609.11
575.754	31280.85
575.952	30697.17
576.151	30828.24
576.349	30629.59
576.547	30330.59
576.745	30207.71
576.943	30215.9
577.141	30539.48
577.339	30576.34
577.537	30332.64
577.735	30136.03
577.933	29675.24
578.131	29980.39
578.329	29558.5
578.527	29714.15
578.725	29849.32
578.923	29449.96
579.121	29439.72
579.319	29023.98
579.516	29654.76
579.714	29349.61
579.912	29402.86
580.11	29058.8
580.308	29257.45
580.506	28847.86
580.704	28669.69
580.901	28913.39
581.099	28944.11
581.297	28624.63
581.495	28477.18
581.692	28432.12
581.89	28317.43
582.088	28610.29
582.285	28274.43
582.483	28477.18
582.681	28165.88
582.878	28038.91
583.076	27973.38
583.274	28147.45
583.471	27563.78
583.669	27707.14
583.866	27637.51
584.064	27920.13
584.262	27117.32
584.459	27424.52
584.657	27092.75
584.854	27596.55
585.052	27010.83
585.249	27152.14
585.447	26912.53
585.644	26953.49
585.841	26771.22
586.039	26935.06
586.236	26658.58
586.434	26867.47
586.631	26582.81
586.828	26523.41
587.026	26492.69
587.223	26451.74
587.42	26500.89
587.618	26427.16
587.815	26005.28
588.012	25884.45
588.21	25843.49
588.407	25911.07
588.604	25780
588.801	25943.84
588.999	25984.8
589.196	25714.47
589.393	25509.67
589.59	25524.01
589.787	25378.6
589.984	25179.95
590.182	25288.49
590.379	24844.08
590.576	25030.44
590.773	25288.49
590.97	24928.05
591.167	24958.77
591.364	24524.6
591.561	24643.38
591.758	24510.26
591.955	24807.22
592.152	24700.72
592.349	24600.37
592.546	24502.07
592.743	24262.46
592.94	24145.72
593.137	24164.15
593.334	24553.27
593.531	23963.45
593.727	24016.7
593.924	23879.49
594.121	23942.97
594.318	24215.35
594.515	23568.2
594.712	23820.1
594.908	23945.02
595.105	23838.53
595.302	23334.73
595.499	23619.39
595.696	23373.64
595.892	23258.95
596.089	23187.27
596.286	23064.39
596.482	23043.92
596.679	22998.86
596.876	23240.52
597.072	22982.48
597.269	22880.08
597.466	22800.21
597.662	22755.15
597.859	22499.16
598.055	22689.62
598.252	22570.83
598.448	22562.64
598.645	22407
598.841	22394.71
599.038	22280.02
599.234	22255.45
599.431	21792.61
599.627	21972.83
599.824	22044.51
600.02	22183.77
600.217	21989.21
600.413	21884.76
600.609	21790.56
600.806	21393.25
601.002	21645.15
601.198	21600.1
601.395	21335.91
601.591	21489.51
601.787	21632.86
601.984	21266.28
602.18	21333.86
602.376	21010.28
602.572	21307.24
602.769	20979.56
602.965	20899.69
603.161	20799.34
603.357	20768.62
603.553	20862.83
603.75	20690.8
603.946	20387.7
604.142	20483.95
604.338	20119.42
604.534	20359.03
604.73	20236.15
604.926	20125.56
605.122	20510.58
605.318	20092.79
605.514	19949.43
605.71	20072.31
605.906	19994.49
606.102	19709.82
606.298	19740.54
606.494	19761.02
606.69	19818.36
606.886	19953.53
607.082	19484.55
607.278	19593.09
607.474	19369.86
607.67	19554.18
607.866	19171.21
608.062	19408.77
608.257	19361.67
608.453	19128.2
608.649	19179.4
608.845	19134.34
609.041	18972.55
609.236	18958.22
609.432	18870.15
609.628	19011.46
609.824	18765.71
610.019	18618.25
610.215	18769.8
610.411	18581.39
610.606	18685.84
610.802	18698.13
610.998	18493.33
611.193	18292.63
611.389	18677.65
611.584	18196.37
611.78	18274.2
611.976	18368.4
612.171	18503.57
612.367	17813.4
612.562	18118.55
612.758	17903.51
612.953	18038.68
613.149	18083.73
613.344	17930.14
613.539	17926.04
613.735	17670.05
613.93	17954.71
614.126	17438.62
614.321	17661.85
614.517	17612.7
614.712	17248.16
614.907	17483.68
615.103	17538.98
615.298	17311.65
615.493	17407.91
615.688	17276.84
615.884	17418.14
616.079	16889.77
616.274	17391.52
616.47	17203.11
616.665	17162.15
616.86	16924.58
617.055	17153.96
617.25	17153.96
617.445	17225.64
617.641	16727.98
617.836	17049.51
618.031	16392.11
618.226	16654.25
618.421	16523.18
618.616	16842.67
618.811	16615.34
619.006	16646.06
619.201	16228.28
619.396	16410.54
619.591	16041.91
619.786	16162.74
619.981	16080.82
620.176	16201.65
620.371	15779.77
620.566	15992.76
620.761	15892.41
620.956	15990.71
621.151	15726.52
621.346	15820.73
621.541	15433.66
621.735	15443.9
621.93	15448
622.125	15663.04
622.32	15292.35
622.515	15149
622.709	15171.52
622.904	14962.63
623.099	15239.11
623.294	14784.46
623.488	14794.7
623.683	14839.75
623.878	14518.22
624.072	14735.31
624.267	14612.43
624.462	14362.58
624.656	14389.2
624.851	14229.46
625.046	14034.9
625.24	14233.55
625.435	13932.5
625.629	14211.03
625.824	13819.86
626.018	13973.46
626.213	13594.59
626.407	13709.27
626.602	13481.95
626.796	13563.87
626.991	13457.37
627.185	13604.83
627.38	13084.64
627.574	12978.15
627.768	13055.97
627.963	12976.1
628.157	12795.88
628.352	13168.61
628.546	12615.66
628.74	12984.29
628.935	12834.79
629.129	12779.5
629.323	12701.67
629.517	12629.99
629.712	12435.44
629.906	12292.08
630.1	12318.7
630.294	12244.98
630.489	12126.19
630.683	12281.84
630.877	12034.04
631.071	12038.13
631.265	11935.73
631.459	11759.61
631.653	11737.08
631.848	11825.14
632.042	11665.4
632.236	11759.61
632.43	11606.01
632.624	11583.48
632.818	11550.71
633.012	11247.62
633.206	11196.42
633.4	11417.6
633.594	11235.33
633.788	11255.81
633.982	11114.5
634.176	11030.53
634.369	11104.26
634.563	11077.63
634.757	11151.36
634.951	10797.06
635.145	11057.15
635.339	10858.5
635.533	10780.68
635.726	10584.07
635.92	10385.42
636.114	10668.04
636.308	10754.05
636.501	10524.68
636.695	10248.21
636.889	10399.76
637.083	10188.82
637.276	10108.94
637.47	10262.54
637.664	9934.87
637.857	10049.55
638.051	10117.14
638.244	10098.7
638.438	9916.44
638.632	10016.79
638.825	9811.99
639.019	9549.85
639.212	9879.57
639.406	9607.19
639.599	9439.26
639.793	9648.15
639.986	9353.24
640.18	9469.98
640.373	9388.06
640.567	9138.21
640.76	9343
640.954	9256.99
641.147	9175.07
641.34	9080.86
641.534	9191.45
641.727	9021.47
641.92	8990.75
642.114	8785.96
642.307	8921.12
642.5	8874.02
642.694	8853.54
642.887	8691.75
643.08	8769.57
643.273	8726.57
643.467	8689.7
643.66	8493.1
643.853	8294.44
644.046	8314.92
644.239	8431.66
644.432	8626.22
644.626	8091.7
644.819	8128.56
645.012	8224.81
645.205	8130.61
645.398	8210.48
645.591	8040.5
645.784	8005.68
645.977	7905.33
646.17	7774.26
646.363	7804.98
646.556	7632.95
646.749	7641.14
646.942	7792.69
647.135	7680.05
647.328	7628.85
647.521	7698.49
647.714	7346.23
647.907	7555.13
648.099	7663.67
648.292	7503.93
648.485	7370.81
648.678	7270.46
648.871	7256.12
649.064	7176.25
649.256	7204.92
649.449	7055.42
649.642	7202.88
649.835	7106.62
650.027	7080
650.22	6942.78
650.413	6715.46
650.605	6803.52
650.798	6979.65
650.991	6754.37
651.183	6639.69
651.376	6557.77
651.568	6785.09
651.761	6537.29
651.954	6496.33
652.146	6531.14
652.339	6576.2
652.531	6463.56
652.724	6371.4
652.916	6340.68
653.109	6301.77
653.301	6256.72
653.494	6291.53
653.686	6111.31
653.879	6223.95
654.071	6246.48
654.263	6170.7
654.456	5949.52
654.648	6043.73
654.84	6062.16
655.033	5996.62
655.225	5931.09
655.417	5863.51
655.61	5826.64
655.802	5980.24
655.994	5830.74
656.186	5728.34
656.379	5673.04
656.571	5761.11
656.763	5480.54
656.955	5642.32
657.148	5654.61
657.34	5664.85
657.532	5423.19
657.724	5470.3
657.916	5480.54
658.108	5435.48
658.3	5328.99
658.492	5365.85
658.684	5253.21
658.876	5118.04
659.068	5181.53
659.26	5290.07
659.452	5034.08
659.644	5087.33
659.836	5005.41
660.028	5048.41
660.22	5032.03
660.412	4884.58
660.604	4937.82
660.796	4843.62
660.988	4839.52
661.18	4862.05
661.372	4868.19
661.563	4737.12
661.755	4663.4
661.947	4610.15
662.139	4561
662.331	4585.57
662.522	4503.65
662.714	4585.57
662.906	4513.89
663.097	4616.29
663.289	4356.2
663.481	4413.54
663.673	4517.99
663.864	4393.06
664.056	4415.59
664.247	4343.91
664.439	4182.12
664.631	4368.49
664.822	4323.43
665.014	4178.03
665.205	4221.03
665.397	4251.75
665.588	4264.04
665.78	4171.88
665.971	4067.44
666.163	4155.5
666.354	4020.33
666.546	4081.77
666.737	3958.89
666.929	3981.42
667.12	3987.57
667.311	3887.22
667.503	3827.82
667.694	3829.87
667.885	3782.77
668.077	3967.09
668.268	3727.47
668.459	3795.06
668.651	3793.01
668.842	3756.15
669.033	3647.6
669.224	3704.95
669.416	3713.14
669.607	3551.35
669.798	3614.84
669.989	3577.97
670.18	3598.45
670.371	3731.57
670.563	3704.95
670.754	3549.3
670.945	3389.56
671.136	3524.72
671.327	3588.21
671.518	3391.61
671.709	3522.68
671.9	3457.14
672.091	3565.68
672.282	3465.33
672.473	3283.06
672.664	3356.79
672.855	3446.9
673.046	3342.46
673.237	3262.58
673.428	3367.03
673.619	3373.18
673.809	3154.04
674	3176.57
674.191	3229.82
674.382	3317.88
674.573	3215.48
674.764	3180.67
674.954	3233.91
675.145	3180.67
675.336	3203.19
675.527	3147.9
675.717	3240.06
675.908	3229.82
676.099	3045.5
676.289	3158.14
676.48	3061.88
676.671	3156.09
676.861	3143.8
677.052	3014.78
677.243	3004.54
677.433	3084.41
677.624	2877.57
677.814	3004.54
678.005	3047.55
678.195	3006.59
678.386	2906.24
678.576	2988.16
678.767	3010.68
678.957	2926.72
679.148	2961.53
679.338	2930.81
679.529	2979.97
679.719	2883.71
679.909	2967.68
680.1	2881.66
680.29	2799.74
680.481	2828.42
680.671	2926.72
680.861	2799.74
681.052	2867.33
681.242	2785.41
681.432	2867.33
681.622	2875.52
681.813	2840.7
682.003	2752.64
682.193	2859.14
682.383	2746.5
682.573	2717.83
682.764	2701.44
682.954	2744.45
683.144	2803.84
683.334	2791.55
683.524	2705.54
683.714	2773.12
683.904	2662.53
684.094	2826.37
684.284	2640
684.474	2775.17
684.664	2764.93
684.854	2648.19
685.044	2709.63
685.234	2746.5
685.424	2660.48
685.614	2730.11
685.804	2580.61
685.994	2693.25
686.184	2689.15
686.374	2680.96
686.564	2830.46
686.753	2746.5
686.943	2617.47
687.133	2594.95
687.323	2631.81
687.513	2664.58
687.702	2699.39
687.892	2560.13
688.082	2621.57
688.272	2642.05
688.461	2508.93
688.651	2644.1
688.841	2556.04
689.03	2490.5
689.22	2545.8
689.41	2533.51
689.599	2594.95
689.789	2545.8
689.979	2523.27
690.168	2502.79
690.358	2590.85
690.547	2515.08
690.737	2574.47
690.926	2611.33
691.116	2547.84
691.305	2590.85
691.495	2574.47
691.684	2652.29
691.874	2523.27
692.063	2535.56
692.252	2515.08
692.442	2537.6
692.631	2271.37
692.82	2551.94
693.01	2513.03
693.199	2617.47
693.388	2553.99
693.578	2455.69
693.767	2586.76
693.956	2599.04
694.146	2568.32
694.335	2459.78
694.524	2601.09
694.713	2537.6
694.902	2506.88
695.092	2461.83
695.281	2549.89
695.47	2414.73
695.659	2398.34
695.848	2566.28
696.037	2494.6
696.226	2418.82
696.415	2539.65
696.604	2400.39
696.793	2398.34
696.982	2433.16
697.171	2431.11
697.36	2437.25
697.549	2492.55
697.738	2513.03
697.927	2463.88
698.116	2420.87
698.305	2373.77
698.494	2379.91
698.683	2312.33
698.872	2381.96
699.061	2447.49
699.25	2480.26
699.438	2361.48
699.627	2345.09
699.816	2373.77
700.005	2371.72
700.193	2390.15
700.382	2308.23
700.571	2341
700.76	2361.48
700.948	2402.44
701.137	2349.19
701.326	2381.96
701.514	2404.49
701.703	2355.33
701.892	2302.09
702.08	2525.32
702.269	2291.85
702.457	2295.94
702.646	2224.26
702.834	2244.74
703.023	2254.98
703.212	2375.81
703.4	2377.86
703.589	2187.4
703.777	2279.56
703.965	2173.07
704.154	2277.51
704.342	2138.25
704.531	2214.02
704.719	2216.07
704.907	2271.37
705.096	2242.7
705.284	2195.59
705.472	2193.55
705.661	2193.55
705.849	2054.28
706.037	2111.63
706.226	2193.55
706.414	2171.02
706.602	2162.83
706.79	2121.87
706.979	2193.55
707.167	2062.48
707.355	2177.16
707.543	2134.15
707.731	2173.07
707.919	1978.51
708.107	2160.78
708.296	2117.77
708.484	2087.05
708.672	2031.76
708.86	2089.1
709.048	1984.65
709.236	1988.75
709.424	2050.19
709.612	2025.61
709.8	1996.94
709.988	2023.56
710.176	2037.9
710.364	2011.28
710.551	1996.94
710.739	2005.13
710.927	1890.45
711.115	1902.73
711.303	2009.23
711.491	2007.18
711.679	1908.88
711.866	1853.58
712.054	1941.65
712.242	1900.69
712.43	1921.17
712.617	1894.54
712.805	1822.86
712.993	1939.6
713.181	1777.81
713.368	1847.44
713.556	1804.43
713.744	1839.25
713.931	1865.87
714.119	1886.35
714.306	1820.81
714.494	1855.63
714.682	1769.62
714.869	1884.3
715.057	1843.34
715.244	1794.19
715.432	1786
715.619	1718.42
715.807	1685.65
715.994	1661.07
716.182	1695.89
716.369	1749.14
716.556	1759.38
716.744	1708.18
716.931	1757.33
717.119	1736.85
717.306	1804.43
717.493	1689.74
717.681	1613.97
717.868	1704.08
718.055	1554.58
718.242	1659.03
718.43	1603.73
718.617	1552.53
718.804	1620.11
718.991	1677.46
719.179	1693.84
719.366	1527.96
719.553	1538.2
719.74	1525.91
719.927	1607.83
720.114	1577.11
720.301	1589.39
720.488	1489.04
720.676	1599.63
720.863	1650.83
721.05	1575.06
721.237	1517.72
721.424	1577.11
721.611	1411.22
721.798	1503.38
721.985	1505.43
722.172	1476.76
722.358	1540.24
722.545	1423.51
722.732	1407.13
722.919	1468.56
723.106	1480.85
723.293	1398.93
723.48	1405.08
723.667	1386.65
723.853	1433.75
724.04	1341.59
724.227	1450.13
724.414	1278.1
724.6	1300.63
724.787	1345.69
724.974	1433.75
725.161	1267.86
725.347	1366.17
725.534	1294.49
725.72	1331.35
725.907	1384.6
726.094	1464.47
726.28	1345.69
726.467	1187.99
726.653	1392.79
726.84	1425.56
727.027	1343.64
727.213	1319.06
727.4	1251.48
727.586	1274.01
727.773	1249.43
727.959	1228.95
728.145	1276.06
728.332	1226.9
728.518	1228.95
728.705	1259.67
728.891	1323.16
729.077	1298.58
729.264	1245.34
729.45	1228.95
729.636	1251.48
729.823	1267.86
730.009	1161.37
730.195	1202.33
730.382	1300.63
730.568	1228.95
730.754	1294.49
730.94	1239.19
731.126	1128.6
731.313	1183.9
731.499	1149.08
731.685	1144.99
731.871	1142.94
732.057	1138.84
732.243	1108.12
732.429	1194.14
732.615	1155.23
732.801	1206.42
732.987	1054.87
733.173	1073.31
733.359	1110.17
733.545	1081.5
733.731	1114.27
733.917	1187.99
734.103	1118.36
734.289	1065.11
734.475	1018.01
734.661	1106.07
734.847	1046.68
735.033	1048.73
735.219	1056.92
735.404	1089.69
735.59	1022.11
735.776	1065.11
735.962	1063.07
736.148	1151.13
736.333	1009.82
736.519	944.28
736.705	1069.21
736.89	1015.96
737.076	1013.92
737.262	1054.87
737.447	1099.93
737.633	993.44
737.819	1018.01
738.004	1048.73
738.19	997.53
738.375	1108.12
738.561	1124.51
738.747	1038.49
738.932	929.95
739.118	1085.59
739.303	911.52
739.489	1040.54
739.674	985.24
739.859	927.9
740.045	983.2
740.23	989.34
740.416	934.04
740.601	972.96
740.786	970.91
740.972	942.24
741.157	897.18
741.342	829.6
741.528	929.95
741.713	1001.63
741.898	833.69
742.084	858.27
742.269	948.38
742.454	911.52
742.639	858.27
742.824	811.17
743.01	882.85
743.195	874.65
743.38	932
743.565	927.9
743.75	901.28
743.935	878.75
744.12	852.13
744.305	786.59
744.49	833.69
744.675	901.28
744.86	790.69
745.045	876.7
745.23	833.69
745.415	852.13
745.6	772.25
745.785	817.31
745.97	813.21
746.155	813.21
746.34	786.59
746.525	850.08
746.71	772.25
746.895	764.06
747.079	776.35
747.264	721.06
747.449	778.4
747.634	684.19
747.819	759.97
748.003	678.05
748.188	723.1
748.373	710.82
748.557	700.58
748.742	716.96
748.927	786.59
749.111	702.62
749.296	751.78
749.481	708.77
749.665	682.14
749.85	618.66
750.034	661.66
750.219	735.39
750.404	684.19
750.588	665.76
750.773	731.3
750.957	696.48
751.141	729.25
751.326	678.05
751.51	661.66
751.695	612.51
751.879	682.14
752.064	575.65
752.248	620.71
752.432	723.1
752.617	594.08
752.801	635.04
752.985	630.95
753.17	696.48
753.354	534.69
753.538	755.87
753.722	600.23
753.907	639.14
754.091	639.14
754.275	604.32
754.459	565.41
754.643	546.98
754.828	606.37
755.012	600.23
755.196	639.14
755.38	606.37
755.564	512.16
755.748	581.79
755.932	487.59
756.116	540.83
756.3	518.31
756.484	512.16
756.668	538.79
756.852	592.03
757.036	585.89
757.22	522.4
757.404	506.02
757.588	506.02
757.772	508.07
757.956	600.23
758.14	583.84
758.323	538.79
758.507	479.4
758.691	536.74
758.875	571.55
759.059	540.83
759.242	456.87
759.426	546.98
759.61	481.44
759.794	456.87
759.977	528.55
760.161	557.22
760.345	508.07
760.528	516.26
760.712	477.35
760.895	495.78
761.079	477.35
761.263	522.4
761.446	524.45
761.63	403.62
761.813	458.92
761.997	487.59
762.18	503.97
762.364	448.68
762.547	395.43
762.731	465.06
762.914	448.68
763.098	501.92
763.281	446.63
763.464	483.49
763.648	571.55
763.831	497.83
764.015	444.58
764.198	372.9
764.381	405.67
764.564	506.02
764.748	489.64
764.931	454.82
765.114	452.77
765.297	399.52
765.481	403.62
765.664	481.44
765.847	344.23
766.03	458.92
766.213	366.76
766.397	422.05
766.58	407.72
766.763	440.48
766.946	407.72
767.129	405.67
767.312	460.96
767.495	438.44
767.678	456.87
767.861	485.54
768.044	368.81
768.227	405.67
768.41	313.51
768.593	407.72
768.776	360.61
768.959	370.85
769.142	407.72
769.324	422.05
769.507	399.52
769.69	401.57
769.873	372.9
770.056	399.52
770.239	299.17
770.421	403.62
770.604	358.57
770.787	389.28
770.97	381.09
771.152	403.62
771.335	372.9
771.518	374.95
771.7	358.57
771.883	401.57
772.066	372.9
772.248	438.44
772.431	331.94
772.613	342.18
772.796	372.9
772.978	399.52
773.161	323.75
773.343	442.53
773.526	325.8
773.708	276.65
773.891	315.56
774.073	358.57
774.256	348.33
774.438	403.62
774.621	403.62
774.803	327.85
774.985	350.37
775.168	338.09
775.35	413.86
775.532	303.27
775.715	297.13
775.897	243.88
776.079	317.61
776.261	342.18
776.444	350.37
776.626	333.99
776.808	340.13
776.99	319.65
777.173	301.22
777.355	290.98
777.537	374.95
777.719	311.46
777.901	303.27
778.083	344.23
778.265	278.69
778.447	303.27
778.629	313.51
778.811	278.69
778.993	286.89
779.175	293.03
779.357	340.13
779.539	295.08
779.721	319.65
779.903	346.28
780.085	254.12
780.267	266.41
780.449	284.84
780.631	303.27
780.812	288.93
780.994	235.69
781.176	247.97
781.358	342.18
781.54	278.69
781.721	307.37
781.903	202.92
782.085	194.73
782.267	329.89
782.448	200.87
782.63	276.65
782.812	286.89
782.993	262.31
783.175	262.31
783.357	233.64
783.538	198.82
783.72	202.92
783.901	129.19
784.083	250.02
784.264	254.12
784.446	254.12
784.627	211.11
784.809	280.74
784.99	178.34
785.172	174.25
785.353	211.11
785.535	211.11
785.716	194.73
785.897	172.2
786.079	211.11
786.26	280.74
786.441	172.2
786.623	221.35
786.804	170.15
786.985	211.11
787.167	221.35
787.348	110.76
787.529	137.38
787.71	159.91
787.891	245.93
788.073	188.58
788.254	221.35
788.435	227.5
788.616	121
788.797	198.82
788.978	121
789.159	200.87
789.34	194.73
789.522	145.58
789.703	69.8
789.884	180.39
790.065	213.16
790.246	190.63
790.427	194.73
790.607	151.72
790.788	174.25
790.969	184.49
791.15	211.11
791.331	168.1
791.512	186.54
791.693	137.38
791.874	186.54
792.054	161.96
792.235	215.21
792.416	96.43
792.597	141.48
792.778	178.34
792.958	164.01
793.139	151.72
793.32	231.59
793.5	129.19
793.681	200.87
793.862	188.58
794.042	170.15
794.223	190.63
794.404	198.82
794.584	166.06
794.765	123.05
794.945	176.3
795.126	159.91
795.306	110.76
795.487	147.62
795.667	166.06
795.848	164.01
796.028	131.24
796.209	147.62
796.389	192.68
796.57	159.91
796.75	186.54
796.93	112.81
797.111	80.04
797.291	90.28
797.471	125.1
797.652	161.96
797.832	161.96
798.012	102.57
798.192	108.71
798.373	90.28
798.553	116.9
798.733	108.71
798.913	94.38
799.093	114.86
799.274	92.33
799.454	151.72
799.634	80.04
799.814	96.43
799.994	129.19
800.174	157.86
800.354	129.19
800.534	147.62
800.714	90.28
800.894	96.43
801.074	133.29
801.254	82.09
801.434	149.67
801.614	166.06
801.794	118.95
801.974	344.23
802.154	75.95
802.334	65.71
802.514	94.38
802.693	88.23
802.873	16.55
803.053	133.29
803.233	57.51
803.413	73.9
803.592	96.43
803.772	82.09
803.952	106.67
804.131	108.71
804.311	137.38
804.491	155.82
804.67	20.65
804.85	94.38
805.03	125.1
805.209	123.05
805.389	47.27
805.568	143.53
805.748	133.29
805.928	123.05
806.107	112.81
806.287	155.82
806.466	106.67
806.646	84.14
806.825	55.47
807.004	110.76
807.184	96.43
807.363	71.85
807.543	88.23
807.722	131.24
807.901	84.14
808.081	90.28
808.26	104.62
808.439	63.66
808.619	69.8
808.798	65.71
808.977	106.67
809.156	125.1
809.336	30.89
809.515	137.38
809.694	63.66
809.873	47.27
810.052	131.24
810.231	94.38
810.411	59.56
810.59	65.71
810.769	145.58
810.948	129.19
811.127	90.28
811.306	55.47
811.485	47.27
811.664	86.19
811.843	59.56
812.022	135.34
812.201	112.81
812.38	86.19
812.559	51.37
812.737	-14.17
812.916	125.1
813.095	61.61
813.274	45.23
813.453	90.28
813.632	164.01
813.811	55.47
813.989	32.94
814.168	129.19
814.347	32.94
814.526	98.47
814.704	75.95
814.883	61.61
815.062	88.23
815.24	57.51
815.419	30.89
815.598	63.66
815.776	34.99
815.955	98.47
816.133	28.84
816.312	102.57
816.49	92.33
816.669	39.08
816.847	94.38
817.026	22.7
817.204	30.89
817.383	75.95
817.561	47.27
817.74	110.76
817.918	18.6
818.097	22.7
818.275	-26.45
818.453	96.43
818.632	45.23
818.81	59.56
818.988	92.33
819.167	90.28
819.345	20.65
819.523	39.08
819.701	55.47
819.879	143.53
820.058	45.23
820.236	18.6
820.414	43.18
820.592	55.47
820.77	32.94
820.948	20.65
821.127	-51.03
821.305	75.95
821.483	47.27
821.661	77.99
821.839	53.42
822.017	100.52
822.195	43.18
822.373	30.89
822.551	57.51
822.729	43.18
822.907	-3.93
823.085	16.55
823.262	37.03
823.44	22.7
823.618	80.04
823.796	59.56
823.974	51.37
824.152	86.19
824.329	28.84
824.507	45.23
824.685	55.47
824.863	100.52
825.04	12.46
825.218	96.43
825.396	-10.07
825.574	100.52
825.751	45.23
825.929	8.36
826.107	98.47
826.284	-26.45
826.462	49.32
826.639	86.19
826.817	32.94
826.994	14.51
827.172	-57.17
827.349	32.94
827.527	53.42
827.704	82.09
827.882	8.36
828.059	26.79
828.237	86.19
828.414	26.79
828.591	20.65
828.769	12.46
828.946	53.42
829.124	63.66
829.301	41.13
829.478	71.85
829.655	-40.79
829.833	16.55
830.01	22.7
830.187	22.7
830.364	37.03
830.542	39.08
830.719	92.33
830.896	63.66
831.073	47.27
831.25	43.18
831.427	32.94
831.604	34.99
831.782	86.19
831.959	75.95
832.136	-1.88
832.313	28.84
832.49	32.94
832.667	84.14
832.844	51.37
833.021	14.51
833.198	45.23
833.374	28.84
833.551	12.46
833.728	39.08
833.905	65.71
834.082	-32.6
834.259	123.05
834.436	39.08
834.612	-24.4
834.789	63.66
834.966	10.41
835.143	84.14
835.319	80.04
835.496	49.32
835.673	32.94
835.85	69.8
836.026	43.18
836.203	75.95
836.38	30.89
836.556	92.33
836.733	30.89
836.909	57.51
837.086	-8.02
837.262	67.75
837.439	57.51
837.616	59.56
837.792	32.94
837.968	121
838.145	-5.97
838.321	51.37
838.498	20.65
838.674	4.27
838.851	41.13
839.027	77.99
839.203	-5.97
839.38	30.89
839.556	26.79
839.732	-5.97
839.909	28.84
840.085	43.18
840.261	28.84
840.437	-1.88
840.614	86.19
840.79	-61.27
840.966	24.75
841.142	-18.26
841.318	39.08
841.494	34.99
841.671	14.51
841.847	-5.97
842.023	39.08
842.199	18.6
842.375	39.08
842.551	-10.07
842.727	-57.17
842.903	88.23
843.079	28.84
843.255	80.04
843.431	16.55
843.607	143.53
843.783	-5.97
843.959	77.99
844.134	47.27
844.31	28.84
844.486	-34.64
844.662	-24.4
844.838	61.61
845.013	4.27
845.189	30.89
845.365	32.94
845.541	-32.6
845.716	-36.69
845.892	57.51
846.068	63.66
846.244	67.75
846.419	-22.36
846.595	-16.21
846.77	-1.88
846.946	-12.12
847.122	-59.22
847.297	34.99
847.473	-57.17
847.648	51.37
847.824	-1.88
847.999	-22.36
848.175	47.27
848.35	57.51
848.526	100.52
848.701	53.42
848.876	73.9
849.052	30.89
849.227	18.6
849.403	80.04
849.578	14.51
849.753	16.55
849.929	-22.36
850.104	6.31
850.279	47.27
850.454	49.32
850.63	6.31
850.805	30.89
850.98	20.65
851.155	24.75
851.33	32.94
851.505	22.7
851.681	8.36
851.856	-16.21
852.031	-34.64
852.206	-12.12
852.381	-12.12
852.556	59.56
852.731	49.32
852.906	-5.97
853.081	65.71
853.256	39.08
853.431	26.79
853.606	-14.17
853.781	28.84
853.956	77.99
854.131	41.13
854.305	-42.84
854.48	30.89
854.655	-34.64
854.83	20.65
855.005	34.99
855.18	-1.88
855.354	30.89
855.529	47.27
855.704	2.22
855.879	57.51
856.053	22.7
856.228	26.79
856.403	-30.55
856.577	18.6
856.752	39.08
856.926	32.94
857.101	39.08
857.276	26.79
857.45	82.09
857.625	30.89
857.799	55.47
857.974	37.03
858.148	-26.45
858.323	45.23
858.497	28.84
858.672	34.99
858.846	18.6
859.02	-5.97
859.195	-8.02
859.369	22.7
859.543	-65.36
859.718	55.47
859.892	10.41
860.066	92.33
860.241	16.55
860.415	26.79
860.589	-18.26
860.763	22.7
860.938	0.17
861.112	-5.97
861.286	18.6
861.46	26.79
861.634	-10.07
861.808	86.19
861.982	-38.74
862.157	6.31
862.331	16.55
862.505	-36.69
862.679	8.36
862.853	-1.88
863.027	-8.02
863.201	49.32
863.375	20.65
863.549	-30.55
863.722	108.71
863.896	22.7
864.07	-1.88
864.244	12.46
864.418	12.46
864.592	18.6
864.766	47.27
864.939	32.94
865.113	26.79
865.287	71.85
865.461	12.46
865.634	-71.51
865.808	-40.79
865.982	-18.26
866.156	51.37
866.329	-18.26
866.503	14.51
866.676	12.46
866.85	-42.84
867.024	4.27
867.197	-22.36
867.371	32.94
867.544	-48.98
867.718	-36.69
867.891	22.7
868.065	2.22
868.238	49.32
868.412	22.7
868.585	-38.74
868.759	-12.12
868.932	4.27
869.105	32.94
869.279	-79.7
869.452	8.36
869.625	4.27
869.799	-30.55
869.972	102.57
870.145	-42.84
870.319	73.9
870.492	65.71
870.665	-1.88
870.838	55.47
871.011	-51.03
871.185	39.08
871.358	-38.74
871.531	18.6
871.704	-112.47
871.877	4.27
872.05	-26.45
872.223	-24.4
872.396	49.32
872.569	2.22
872.742	-1.88
872.915	28.84
873.088	-10.07
873.261	18.6
873.434	-77.65
873.607	20.65
873.78	63.66
873.953	10.41
874.126	-5.97
874.299	-20.31
874.471	-36.69
874.644	-24.4
874.817	26.79
874.99	30.89
875.163	-48.98
875.335	14.51
875.508	45.23
875.681	-28.5
875.853	16.55
876.026	67.75
876.199	-20.31
876.371	-36.69
876.544	32.94
876.717	39.08
876.889	22.7
877.062	28.84
877.234	-48.98
877.407	-28.5
877.579	22.7
877.752	77.99
877.924	10.41
878.097	69.8
878.269	69.8
878.442	-28.5
878.614	14.51
878.786	-51.03
878.959	18.6
879.131	6.31
879.303	77.99
879.476	73.9
879.648	47.27
879.82	-22.36
879.993	-10.07
880.165	-48.98
880.337	41.13
880.509	47.27
880.681	22.7
880.854	-69.46
881.026	32.94
881.198	41.13
881.37	22.7
881.542	96.43
881.714	4.27
881.886	-5.97
882.058	-14.17
882.23	18.6
882.402	8.36
882.574	26.79
882.746	2.22
882.918	-24.4
883.09	-5.97
883.262	-1.88
883.434	75.95
883.606	49.32
883.778	2.22
883.95	-24.4
884.122	8.36
884.293	6.31
884.465	18.6
884.637	10.41
884.809	-24.4
884.98	-16.21
885.152	55.47
885.324	18.6
885.496	22.7
885.667	-10.07
885.839	-10.07
886.011	43.18
886.182	6.31
886.354	61.61
886.525	8.36
886.697	8.36
886.869	-53.08
887.04	6.31
887.212	-10.07
887.383	30.89
887.555	-24.4
887.726	0.17
887.897	-34.64
888.069	16.55
888.24	-57.17
888.412	8.36
888.583	-32.6
888.754	59.56
888.926	-1.88
889.097	-26.45
889.268	-10.07
889.44	-8.02
889.611	30.89
889.782	-3.93
889.953	-24.4
890.125	-44.88
890.296	0.17
890.467	37.03
890.638	-55.12
890.809	18.6
890.98	-16.21
891.151	-30.55
891.323	-1.88
891.494	-24.4
891.665	-18.26
891.836	-1.88
892.007	-71.51
892.178	55.47
892.349	2.22
892.52	-44.88
892.691	12.46
892.862	28.84
893.032	-46.93
893.203	-42.84
893.374	-44.88
893.545	14.51
893.716	39.08
893.887	45.23
894.057	2.22
894.228	63.66
894.399	39.08
894.57	18.6
894.74	45.23
894.911	59.56
895.082	-32.6
895.253	14.51
895.423	-16.21
895.594	16.55
895.764	-69.46
895.935	0.17
896.106	4.27
896.276	53.42
896.447	32.94
896.617	-22.36
896.788	-16.21
896.958	16.55
897.129	-20.31
897.299	-18.26
897.47	18.6
897.64	-8.02
897.81	45.23
897.981	32.94
898.151	6.31
898.322	6.31
898.492	-38.74
898.662	-8.02
898.832	98.47
899.003	6.31
899.173	18.6
899.343	-8.02
899.513	82.09
