Data from USB4F104151__193__13-59-26-021.txt Node

Date: Thu Mar 13 13:59:26 EDT 2025
User: louis
Spectrometer: USB4F10415
Trigger mode: 4
Integration Time (sec): 1.000000E-2
Scans to average: 1
Electric dark correction enabled: true
Nonlinearity correction enabled: false
Boxcar width: 0
XAxis mode: Wavelengths
Number of Pixels in Spectrum: 3648
>>>>>Begin Spectral Data<<<<<
178.204	29.7
178.424	29.7
178.644	29.7
178.864	-17.41
179.084	-117.76
179.304	13.31
179.524	7.17
179.744	11.26
179.964	-11.26
180.184	-21.5
180.404	37.89
180.624	-23.55
180.844	29.7
181.064	-23.55
181.283	-46.08
181.503	52.22
181.723	-25.6
181.943	31.74
182.163	76.8
182.383	-11.26
182.602	7.17
182.822	23.55
183.042	5.12
183.262	58.37
183.482	37.89
183.701	19.46
183.921	76.8
184.141	-15.36
184.361	37.89
184.58	27.65
184.8	-27.65
185.02	-11.26
185.239	31.74
185.459	-1.02
185.679	35.84
185.898	-62.46
186.118	78.85
186.338	15.36
186.557	21.5
186.777	23.55
186.997	-39.94
187.216	-31.74
187.436	72.7
187.655	-15.36
187.875	33.79
188.095	-19.46
188.314	76.8
188.534	91.13
188.753	35.84
188.973	56.32
189.192	66.56
189.412	58.37
189.631	25.6
189.851	15.36
190.07	-5.12
190.29	48.13
190.509	54.27
190.729	46.08
190.948	62.46
191.168	54.27
191.387	29.7
191.607	52.22
191.826	39.94
192.045	19.46
192.265	15.36
192.484	19.46
192.704	27.65
192.923	13.31
193.142	5.12
193.362	52.22
193.581	13.31
193.8	-3.07
194.02	-41.98
194.239	-5.12
194.458	58.37
194.678	21.5
194.897	-1.02
195.116	-46.08
195.335	19.46
195.555	44.03
195.774	-9.22
195.993	48.13
196.212	82.94
196.432	-9.22
196.651	84.99
196.87	70.65
197.089	78.85
197.308	-23.55
197.528	66.56
197.747	-25.6
197.966	13.31
198.185	64.51
198.404	-27.65
198.623	72.7
198.842	72.7
199.062	39.94
199.281	31.74
199.5	-35.84
199.719	54.27
199.938	37.89
200.157	99.33
200.376	111.61
200.595	80.89
200.814	35.84
201.033	15.36
201.252	9.22
201.471	52.22
201.69	78.85
201.909	39.94
202.128	62.46
202.347	23.55
202.566	50.18
202.785	50.18
203.004	-35.84
203.223	70.65
203.442	13.31
203.661	52.22
203.879	-33.79
204.098	56.32
204.317	27.65
204.536	23.55
204.755	29.7
204.974	60.42
205.193	23.55
205.411	107.52
205.63	105.47
205.849	17.41
206.068	39.94
206.287	-1.02
206.505	1.02
206.724	29.7
206.943	70.65
207.162	35.84
207.381	-13.31
207.599	33.79
207.818	13.31
208.037	80.89
208.255	3.07
208.474	37.89
208.693	19.46
208.911	25.6
209.13	13.31
209.349	76.8
209.567	62.46
209.786	58.37
210.005	33.79
210.223	13.31
210.442	72.7
210.661	95.23
210.879	60.42
211.098	7.17
211.316	89.09
211.535	35.84
211.753	15.36
211.972	89.09
212.191	80.89
212.409	17.41
212.628	-29.7
212.846	7.17
213.065	72.7
213.283	54.27
213.502	95.23
213.72	-5.12
213.938	103.42
214.157	101.37
214.375	58.37
214.594	25.6
214.812	68.61
215.031	70.65
215.249	5.12
215.467	111.61
215.686	46.08
215.904	80.89
216.122	19.46
216.341	68.61
216.559	-9.22
216.778	33.79
216.996	31.74
217.214	-37.89
217.432	33.79
217.651	13.31
217.869	52.22
218.087	44.03
218.306	-5.12
218.524	-7.17
218.742	-44.03
218.96	80.89
219.179	54.27
219.397	39.94
219.615	64.51
219.833	117.76
220.051	99.33
220.27	-9.22
220.488	78.85
220.706	5.12
220.924	-1.02
221.142	35.84
221.36	35.84
221.578	54.27
221.796	66.56
222.015	19.46
222.233	-15.36
222.451	89.09
222.669	-27.65
222.887	82.94
223.105	7.17
223.323	33.79
223.541	29.7
223.759	46.08
223.977	48.13
224.195	37.89
224.413	93.18
224.631	56.32
224.849	44.03
225.067	46.08
225.285	-29.7
225.503	35.84
225.721	37.89
225.939	15.36
226.157	13.31
226.375	29.7
226.592	41.98
226.81	50.18
227.028	-46.08
227.246	105.47
227.464	-3.07
227.682	101.37
227.9	1.02
228.117	-3.07
228.335	64.51
228.553	87.04
228.771	80.89
228.989	87.04
229.206	-11.26
229.424	66.56
229.642	7.17
229.86	46.08
230.077	23.55
230.295	103.42
230.513	-15.36
230.731	58.37
230.948	37.89
231.166	23.55
231.384	68.61
231.601	13.31
231.819	25.6
232.037	25.6
232.254	-9.22
232.472	27.65
232.689	29.7
232.907	97.28
233.125	9.22
233.342	78.85
233.56	19.46
233.777	-7.17
233.995	29.7
234.213	37.89
234.43	70.65
234.648	48.13
234.865	80.89
235.083	-19.46
235.3	5.12
235.518	-9.22
235.735	-9.22
235.953	56.32
236.17	39.94
236.388	60.42
236.605	41.98
236.822	54.27
237.04	27.65
237.257	115.71
237.475	11.26
237.692	41.98
237.909	27.65
238.127	27.65
238.344	-27.65
238.562	54.27
238.779	64.51
238.996	-11.26
239.214	-17.41
239.431	46.08
239.648	25.6
239.865	11.26
240.083	76.8
240.3	-3.07
240.517	-66.56
240.735	103.42
240.952	119.81
241.169	19.46
241.386	107.52
241.603	13.31
241.821	74.75
242.038	115.71
242.255	3.07
242.472	33.79
242.689	37.89
242.907	87.04
243.124	95.23
243.341	25.6
243.558	13.31
243.775	62.46
243.992	35.84
244.209	72.7
244.426	29.7
244.643	54.27
244.86	31.74
245.078	44.03
245.295	70.65
245.512	13.31
245.729	23.55
245.946	78.85
246.163	29.7
246.38	44.03
246.597	7.17
246.814	23.55
247.031	78.85
247.248	39.94
247.464	99.33
247.681	72.7
247.898	109.57
248.115	46.08
248.332	-39.94
248.549	74.75
248.766	66.56
248.983	33.79
249.2	-17.41
249.417	-31.74
249.633	76.8
249.85	66.56
250.067	37.89
250.284	44.03
250.501	48.13
250.717	109.57
250.934	66.56
251.151	-25.6
251.368	93.18
251.585	7.17
251.801	31.74
252.018	58.37
252.235	66.56
252.451	44.03
252.668	76.8
252.885	91.13
253.102	37.89
253.318	41.98
253.535	72.7
253.752	54.27
253.968	-3.07
254.185	41.98
254.401	-11.26
254.618	27.65
254.835	19.46
255.051	37.89
255.268	3.07
255.484	70.65
255.701	-19.46
255.917	58.37
256.134	-27.65
256.351	37.89
256.567	27.65
256.784	15.36
257	-11.26
257.217	64.51
257.433	101.37
257.65	54.27
257.866	50.18
258.082	-21.5
258.299	31.74
258.515	37.89
258.732	-1.02
258.948	21.5
259.165	33.79
259.381	101.37
259.597	64.51
259.814	-11.26
260.03	-25.6
260.246	56.32
260.463	46.08
260.679	35.84
260.895	5.12
261.112	-41.98
261.328	76.8
261.544	95.23
261.761	101.37
261.977	29.7
262.193	84.99
262.409	74.75
262.626	5.12
262.842	7.17
263.058	82.94
263.274	27.65
263.49	62.46
263.707	62.46
263.923	76.8
264.139	50.18
264.355	60.42
264.571	-1.02
264.787	39.94
265.004	39.94
265.22	48.13
265.436	64.51
265.652	46.08
265.868	89.09
266.084	19.46
266.3	-15.36
266.516	27.65
266.732	70.65
266.948	54.27
267.164	54.27
267.38	11.26
267.596	46.08
267.812	21.5
268.028	105.47
268.244	-27.65
268.46	48.13
268.676	56.32
268.892	35.84
269.108	41.98
269.324	-19.46
269.54	80.89
269.756	39.94
269.972	23.55
270.188	1.02
270.403	33.79
270.619	105.47
270.835	25.6
271.051	-1.02
271.267	62.46
271.483	-1.02
271.698	80.89
271.914	5.12
272.13	-70.65
272.346	87.04
272.562	5.12
272.777	17.41
272.993	46.08
273.209	66.56
273.425	-7.17
273.64	31.74
273.856	-39.94
274.072	54.27
274.287	52.22
274.503	80.89
274.719	9.22
274.934	62.46
275.15	46.08
275.366	50.18
275.581	7.17
275.797	68.61
276.012	54.27
276.228	60.42
276.444	84.99
276.659	103.42
276.875	35.84
277.09	72.7
277.306	50.18
277.521	-11.26
277.737	-25.6
277.952	84.99
278.168	17.41
278.383	105.47
278.599	60.42
278.814	37.89
279.03	54.27
279.245	99.33
279.461	27.65
279.676	62.46
279.892	5.12
280.107	103.42
280.322	39.94
280.538	111.61
280.753	-11.26
280.969	101.37
281.184	3.07
281.399	37.89
281.615	23.55
281.83	37.89
282.045	72.7
282.26	-5.12
282.476	35.84
282.691	111.61
282.906	39.94
283.122	78.85
283.337	1.02
283.552	41.98
283.767	15.36
283.983	70.65
284.198	-11.26
284.413	54.27
284.628	105.47
284.843	-23.55
285.058	37.89
285.274	105.47
285.489	-21.5
285.704	-31.74
285.919	-1.02
286.134	39.94
286.349	78.85
286.564	50.18
286.779	41.98
286.995	78.85
287.21	66.56
287.425	50.18
287.64	-37.89
287.855	103.42
288.07	21.5
288.285	33.79
288.5	70.65
288.715	103.42
288.93	-23.55
289.145	46.08
289.36	-37.89
289.575	17.41
289.79	46.08
290.004	5.12
290.219	66.56
290.434	-5.12
290.649	54.27
290.864	70.65
291.079	52.22
291.294	87.04
291.509	84.99
291.724	25.6
291.938	-25.6
292.153	-9.22
292.368	46.08
292.583	91.13
292.798	97.28
293.012	46.08
293.227	119.81
293.442	107.52
293.657	25.6
293.871	-3.07
294.086	70.65
294.301	-19.46
294.516	17.41
294.73	95.23
294.945	-1.02
295.16	76.8
295.374	62.46
295.589	1.02
295.804	58.37
296.018	144.38
296.233	33.79
296.447	56.32
296.662	25.6
296.877	50.18
297.091	39.94
297.306	-60.42
297.52	31.74
297.735	-17.41
297.949	3.07
298.164	84.99
298.378	50.18
298.593	72.7
298.807	78.85
299.022	87.04
299.236	95.23
299.451	33.79
299.665	15.36
299.88	91.13
300.094	93.18
300.309	41.98
300.523	105.47
300.737	21.5
300.952	58.37
301.166	44.03
301.381	72.7
301.595	46.08
301.809	66.56
302.024	17.41
302.238	41.98
302.452	128
302.667	29.7
302.881	41.98
303.095	78.85
303.309	101.37
303.524	39.94
303.738	64.51
303.952	3.07
304.166	72.7
304.381	7.17
304.595	48.13
304.809	29.7
305.023	84.99
305.237	50.18
305.452	48.13
305.666	93.18
305.88	84.99
306.094	89.09
306.308	66.56
306.522	-25.6
306.736	39.94
306.95	78.85
307.164	-9.22
307.379	138.24
307.593	62.46
307.807	128
308.021	41.98
308.235	52.22
308.449	25.6
308.663	48.13
308.877	39.94
309.091	7.17
309.305	39.94
309.519	66.56
309.733	76.8
309.947	41.98
310.161	66.56
310.374	72.7
310.588	66.56
310.802	3.07
311.016	44.03
311.23	70.65
311.444	82.94
311.658	9.22
311.872	68.61
312.085	78.85
312.299	41.98
312.513	17.41
312.727	62.46
312.941	3.07
313.154	111.61
313.368	164.86
313.582	23.55
313.796	48.13
314.009	-13.31
314.223	76.8
314.437	70.65
314.651	1.02
314.864	5.12
315.078	-13.31
315.292	70.65
315.505	5.12
315.719	56.32
315.933	41.98
316.146	48.13
316.36	19.46
316.573	21.5
316.787	15.36
317.001	62.46
317.214	46.08
317.428	37.89
317.641	56.32
317.855	27.65
318.068	17.41
318.282	111.61
318.495	19.46
318.709	64.51
318.922	39.94
319.136	119.81
319.349	62.46
319.563	70.65
319.776	21.5
319.99	-11.26
320.203	-7.17
320.417	64.51
320.63	66.56
320.843	76.8
321.057	-11.26
321.27	130.05
321.483	54.27
321.697	95.23
321.91	41.98
322.124	41.98
322.337	11.26
322.55	17.41
322.763	119.81
322.977	46.08
323.19	15.36
323.403	25.6
323.617	-7.17
323.83	48.13
324.043	50.18
324.256	113.66
324.469	-31.74
324.683	64.51
324.896	1.02
325.109	99.33
325.322	74.75
325.535	82.94
325.748	80.89
325.962	37.89
326.175	29.7
326.388	91.13
326.601	99.33
326.814	72.7
327.027	58.37
327.24	76.8
327.453	117.76
327.666	37.89
327.879	29.7
328.092	37.89
328.305	72.7
328.518	-11.26
328.731	123.9
328.944	-3.07
329.157	66.56
329.37	21.5
329.583	-3.07
329.796	37.89
330.009	58.37
330.222	25.6
330.435	136.19
330.648	29.7
330.861	113.66
331.073	111.61
331.286	99.33
331.499	-5.12
331.712	-60.42
331.925	39.94
332.138	95.23
332.35	21.5
332.563	99.33
332.776	50.18
332.989	54.27
333.202	-3.07
333.414	56.32
333.627	82.94
333.84	70.65
334.053	64.51
334.265	15.36
334.478	107.52
334.691	84.99
334.903	144.38
335.116	39.94
335.329	44.03
335.541	35.84
335.754	64.51
335.966	44.03
336.179	21.5
336.392	-13.31
336.604	7.17
336.817	72.7
337.029	60.42
337.242	56.32
337.454	68.61
337.667	29.7
337.88	37.89
338.092	91.13
338.305	56.32
338.517	-27.65
338.729	74.75
338.942	52.22
339.154	58.37
339.367	89.09
339.579	148.48
339.792	15.36
340.004	62.46
340.217	9.22
340.429	37.89
340.641	60.42
340.854	109.57
341.066	25.6
341.278	56.32
341.491	97.28
341.703	111.61
341.915	50.18
342.128	89.09
342.34	41.98
342.552	78.85
342.764	33.79
342.977	78.85
343.189	56.32
343.401	50.18
343.613	72.7
343.826	39.94
344.038	87.04
344.25	29.7
344.462	-19.46
344.674	56.32
344.886	19.46
345.099	74.75
345.311	82.94
345.523	74.75
345.735	9.22
345.947	78.85
346.159	72.7
346.371	115.71
346.583	37.89
346.795	35.84
347.007	21.5
347.219	58.37
347.431	56.32
347.643	91.13
347.855	39.94
348.067	91.13
348.279	48.13
348.491	62.46
348.703	95.23
348.915	82.94
349.127	7.17
349.339	54.27
349.551	95.23
349.763	99.33
349.975	11.26
350.187	46.08
350.399	17.41
350.61	99.33
350.822	70.65
351.034	33.79
351.246	-11.26
351.458	144.38
351.669	115.71
351.881	78.85
352.093	44.03
352.305	115.71
352.517	130.05
352.728	56.32
352.94	-15.36
353.152	54.27
353.363	-1.02
353.575	50.18
353.787	48.13
353.999	54.27
354.21	103.42
354.422	66.56
354.633	46.08
354.845	91.13
355.057	52.22
355.268	54.27
355.48	39.94
355.692	33.79
355.903	64.51
356.115	52.22
356.326	15.36
356.538	87.04
356.749	48.13
356.961	33.79
357.172	50.18
357.384	-11.26
357.595	54.27
357.807	74.75
358.018	37.89
358.23	82.94
358.441	23.55
358.653	72.7
358.864	84.99
359.075	87.04
359.287	21.5
359.498	119.81
359.709	23.55
359.921	78.85
360.132	66.56
360.344	56.32
360.555	64.51
360.766	70.65
360.977	58.37
361.189	64.51
361.4	132.09
361.611	123.9
361.823	121.85
362.034	74.75
362.245	70.65
362.456	31.74
362.667	111.61
362.879	9.22
363.09	121.85
363.301	64.51
363.512	37.89
363.723	-29.7
363.935	62.46
364.146	111.61
364.357	-23.55
364.568	56.32
364.779	50.18
364.99	99.33
365.201	35.84
365.412	95.23
365.623	39.94
365.834	56.32
366.045	78.85
366.256	78.85
366.467	56.32
366.678	132.09
366.889	27.65
367.1	66.56
367.311	70.65
367.522	-7.17
367.733	-9.22
367.944	33.79
368.155	121.85
368.366	62.46
368.577	111.61
368.788	64.51
368.999	54.27
369.209	89.09
369.42	199.68
369.631	119.81
369.842	46.08
370.053	68.61
370.264	52.22
370.474	95.23
370.685	33.79
370.896	89.09
371.107	91.13
371.317	103.42
371.528	105.47
371.739	76.8
371.95	46.08
372.16	46.08
372.371	-21.5
372.582	52.22
372.792	60.42
373.003	89.09
373.214	17.41
373.424	160.77
373.635	13.31
373.846	87.04
374.056	62.46
374.267	103.42
374.477	72.7
374.688	33.79
374.898	66.56
375.109	72.7
375.319	-60.42
375.53	27.65
375.74	41.98
375.951	23.55
376.161	54.27
376.372	76.8
376.582	44.03
376.793	89.09
377.003	54.27
377.214	95.23
377.424	46.08
377.635	82.94
377.845	107.52
378.055	74.75
378.266	48.13
378.476	27.65
378.686	105.47
378.897	60.42
379.107	115.71
379.317	80.89
379.528	82.94
379.738	58.37
379.948	117.76
380.158	56.32
380.369	89.09
380.579	80.89
380.789	62.46
380.999	93.18
381.21	54.27
381.42	111.61
381.63	33.79
381.84	89.09
382.05	113.66
382.261	60.42
382.471	111.61
382.681	160.77
382.891	99.33
383.101	82.94
383.311	41.98
383.521	48.13
383.731	99.33
383.941	39.94
384.151	80.89
384.361	76.8
384.571	91.13
384.781	82.94
384.991	82.94
385.201	103.42
385.411	48.13
385.621	103.42
385.831	7.17
386.041	29.7
386.251	142.33
386.461	56.32
386.671	99.33
386.881	80.89
387.091	99.33
387.301	46.08
387.511	41.98
387.72	168.96
387.93	87.04
388.14	76.8
388.35	140.29
388.56	74.75
388.769	78.85
388.979	109.57
389.189	29.7
389.399	125.95
389.609	103.42
389.818	82.94
390.028	125.95
390.238	60.42
390.447	60.42
390.657	44.03
390.867	130.05
391.076	119.81
391.286	52.22
391.496	39.94
391.705	62.46
391.915	82.94
392.125	87.04
392.334	95.23
392.544	54.27
392.753	29.7
392.963	140.29
393.172	68.61
393.382	99.33
393.591	35.84
393.801	128
394.01	119.81
394.22	78.85
394.429	70.65
394.639	95.23
394.848	164.86
395.058	119.81
395.267	117.76
395.477	105.47
395.686	95.23
395.895	72.7
396.105	177.15
396.314	89.09
396.524	46.08
396.733	66.56
396.942	89.09
397.152	15.36
397.361	89.09
397.57	84.99
397.78	146.43
397.989	89.09
398.198	107.52
398.407	121.85
398.617	64.51
398.826	52.22
399.035	84.99
399.244	99.33
399.453	70.65
399.663	138.24
399.872	78.85
400.081	56.32
400.29	70.65
400.499	142.33
400.708	142.33
400.917	113.66
401.127	144.38
401.336	70.65
401.545	140.29
401.754	138.24
401.963	162.81
402.172	160.77
402.381	99.33
402.59	136.19
402.799	148.48
403.008	177.15
403.217	152.57
403.426	193.53
403.635	146.43
403.844	113.66
404.053	189.44
404.262	177.15
404.471	128
404.68	189.44
404.888	158.72
405.097	95.23
405.306	199.68
405.515	193.53
405.724	125.95
405.933	191.49
406.142	177.15
406.35	183.29
406.559	193.53
406.768	291.84
406.977	271.36
407.185	234.49
407.394	242.68
407.603	216.06
407.812	257.02
408.02	306.17
408.229	277.5
408.438	222.2
408.646	285.69
408.855	289.79
409.064	347.13
409.272	285.69
409.481	283.64
409.69	293.88
409.898	302.08
410.107	383.99
410.315	322.56
410.524	343.03
410.733	465.91
410.941	386.04
411.15	390.14
411.358	381.95
411.567	416.76
411.775	439.29
411.984	441.34
412.192	502.78
412.401	394.23
412.609	490.49
412.818	502.78
413.026	519.16
413.234	549.88
413.443	492.54
413.651	547.83
413.86	623.61
414.068	619.51
414.276	691.19
414.485	646.13
414.693	726
414.901	748.53
415.11	719.86
415.318	760.82
415.526	879.6
415.734	836.6
415.943	828.4
416.151	799.73
416.359	895.99
416.567	908.27
416.776	1018.86
416.984	992.24
417.192	1053.68
417.4	1022.96
417.608	998.38
417.817	1151.98
418.025	1223.66
418.233	1149.93
418.441	1248.24
418.649	1293.29
418.857	1317.87
419.065	1317.87
419.273	1379.31
419.481	1379.31
419.689	1463.27
419.897	1551.34
420.105	1612.78
420.313	1602.54
420.521	1684.45
420.729	1678.31
420.937	1754.09
421.145	1893.35
421.353	1838.05
421.561	1991.65
421.769	2036.7
421.977	2102.24
422.185	2085.86
422.393	2266.08
422.601	2307.04
422.809	2438.11
423.017	2352.09
423.224	2415.58
423.432	2522.07
423.64	2513.88
423.848	2747.35
424.056	2685.91
424.263	2954.19
424.471	2962.39
424.679	3005.39
424.887	3169.23
425.094	3195.86
425.302	3279.82
425.51	3560.39
425.718	3529.67
425.925	3513.29
426.133	3701.7
426.341	3810.25
426.548	4078.53
426.756	4029.38
426.964	3931.08
427.171	4199.36
427.379	4408.25
427.586	4582.33
427.794	4600.76
428.001	4897.72
428.209	5045.17
428.417	5016.5
428.624	5280.69
428.832	5194.67
429.039	5235.63
429.247	5309.36
429.454	5718.95
429.662	6204.32
429.869	5741.48
430.076	6433.69
430.284	5987.24
430.491	6220.71
430.699	6708.12
430.906	6744.99
431.114	6781.85
431.321	7046.04
431.528	7205.78
431.736	7687.05
431.943	7773.07
432.15	7654.28
432.358	7852.94
432.565	8196.99
432.772	8196.99
432.979	8551.29
433.187	8625.02
433.394	8768.38
433.601	9304.95
433.808	9184.12
434.016	9315.19
434.223	9720.68
434.43	10019.69
434.637	9976.68
434.844	10529.63
435.052	10916.7
435.259	10840.92
435.466	11072.34
435.673	10670.94
435.88	11414.35
436.087	12090.18
436.294	11875.15
436.501	12016.46
436.708	11995.98
436.915	12505.92
437.122	13153.08
437.329	12886.84
437.537	13421.36
437.743	13744.94
437.95	13435.7
438.157	14197.54
438.364	14695.2
438.571	14598.95
438.778	14803.74
438.985	16116.49
439.192	15532.82
439.399	16050.96
439.606	15579.92
439.813	16745.22
440.02	17601.27
440.227	17388.28
440.433	16986.88
440.64	17726.19
440.847	17568.5
441.054	17801.97
441.261	18928.35
441.467	18662.12
441.674	19342.04
441.881	20071.12
442.088	19813.07
442.294	20056.78
442.501	20380.36
442.708	20726.47
442.914	21312.19
443.121	22629.03
443.328	21631.67
443.534	23726.74
443.741	22428.33
443.948	22379.18
444.154	24115.86
444.361	23904.92
444.568	23839.38
444.774	23730.84
444.981	24263.31
445.187	25150.08
445.394	25889.4
445.6	25686.65
445.807	28576.33
446.013	26632.81
446.22	27630.17
446.426	28406.35
446.633	28410.45
446.839	29729.34
447.046	28555.85
447.252	30278.19
447.459	29942.33
447.665	29741.63
447.871	31326.75
448.078	32598.54
448.284	31068.71
448.491	31756.83
448.697	33286.66
448.903	33335.81
449.11	33788.41
449.316	33268.23
449.522	33657.34
449.728	34961.9
449.935	35113.45
450.141	34988.52
450.347	35840.48
450.553	34853.36
450.76	35088.87
450.966	36254.17
451.172	35770.85
451.378	36862.41
451.584	35899.87
451.791	36592.08
451.997	36903.37
452.203	37472.71
452.409	37409.22
452.615	37171.66
452.821	35611.1
453.027	35189.22
453.233	37048.78
453.44	35613.15
453.646	35994.07
453.852	36389.33
454.058	37085.64
454.264	35889.63
454.47	36344.28
454.676	35441.12
454.882	37020.11
455.088	33356.29
455.294	34097.66
455.5	34712.05
455.705	34961.9
455.911	33212.93
456.117	32995.85
456.323	32625.17
456.529	30790.19
456.735	32113.17
456.941	31273.51
457.147	30726.7
457.352	30048.82
457.558	29536.83
457.764	29452.86
457.97	29024.84
458.176	28234.32
458.381	28318.29
458.587	27017.83
458.793	27140.71
458.999	25873.01
459.204	27707.99
459.41	26866.28
459.616	24992.39
459.821	25176.7
460.027	24951.43
460.233	24877.7
460.438	23493.27
460.644	23720.6
460.85	22270.64
461.055	22033.07
461.261	22225.58
461.466	20542.15
461.672	19768.02
461.878	21369.53
462.083	19825.36
462.289	19565.27
462.494	19301.08
462.7	18285.29
462.905	18014.96
463.111	18535.14
463.316	18647.78
463.522	18119.4
463.727	18381.54
463.932	18152.17
464.138	18133.74
464.343	18248.43
464.549	17574.64
464.754	18139.88
464.959	18148.08
465.165	18203.37
465.37	17283.83
465.575	16495.36
465.781	17607.41
465.986	17570.55
466.191	17056.51
466.397	16677.63
466.602	16038.67
466.807	16462.6
467.012	16540.42
467.218	16251.66
467.423	16108.3
467.628	16347.91
467.833	16696.07
468.038	16354.05
468.244	15766.29
468.449	16468.74
468.654	16079.63
468.859	15762.19
469.064	15809.29
469.269	15242.01
469.474	15309.59
469.679	15745.81
469.885	14949.15
470.09	15151.9
470.295	15072.03
470.5	14813.98
470.705	15024.92
470.91	14582.56
471.115	14506.79
471.32	14807.84
471.525	14476.07
471.73	14293.8
471.935	14332.71
472.139	13783.85
472.344	13957.93
472.549	14009.13
472.754	13792.05
472.959	13380.4
473.164	12897.08
473.369	12991.29
473.574	13376.31
473.778	13048.63
473.983	12933.95
474.188	13136.7
474.393	12665.66
474.598	12620.61
474.802	12401.47
475.007	12213.06
475.212	12274.5
475.417	11752.27
475.621	12055.37
475.826	12032.84
476.031	11690.83
476.235	11590.48
476.44	11678.54
476.645	11426.64
476.849	11451.22
477.054	11363.15
477.259	11305.81
477.463	11158.36
477.668	10789.72
477.872	11082.58
478.077	10883.93
478.282	10722.14
478.486	10388.32
478.691	10392.42
478.895	10412.9
479.1	10468.19
479.304	10476.38
479.509	9997.16
479.713	10255.2
479.918	10095.46
480.122	9876.33
480.326	9853.8
480.531	10023.78
480.735	9948.01
480.94	9665.39
481.144	9995.11
481.348	9587.57
481.553	9757.55
481.757	9589.61
481.961	9677.68
482.166	9816.94
482.37	9722.73
482.574	9460.59
482.778	9581.42
482.983	9644.91
483.187	9716.59
483.391	9513.84
483.595	9175.92
483.8	9575.28
484.004	9638.76
484.208	9591.66
484.412	9565.04
484.616	9401.2
484.821	9651.05
485.025	9272.18
485.229	9628.53
485.433	9444.21
485.637	9423.73
485.841	9577.33
486.045	9454.45
486.249	9589.61
486.453	9476.98
486.657	9589.61
486.861	9737.07
487.065	9571.18
487.269	9540.46
487.473	9413.49
487.677	9513.84
487.881	9556.85
488.085	9532.27
488.289	9810.79
488.493	9481.07
488.697	9745.26
488.901	9653.1
489.105	9651.05
489.309	9589.61
489.512	9812.84
489.716	9794.41
489.92	9794.41
490.124	9657.2
490.328	9929.58
490.531	9757.55
490.735	9872.23
490.939	9796.46
491.143	9902.95
491.346	9769.83
491.55	10013.54
491.754	10054.5
491.958	10019.69
492.161	10060.65
492.365	10294.11
492.569	10091.37
492.772	10144.61
492.976	10265.44
493.18	10394.47
493.383	10416.99
493.587	10572.64
493.79	10593.12
493.994	10619.74
494.197	10650.46
494.401	10560.35
494.605	10738.52
494.808	11082.58
495.012	10881.88
495.215	11070.3
495.419	11086.68
495.622	11086.68
495.825	11438.93
496.029	11305.81
496.232	11643.73
496.436	11524.94
496.639	11801.42
496.843	11664.21
497.046	12198.73
497.249	12168.01
497.453	12081.99
497.656	12381
497.859	12350.28
498.063	12272.45
498.266	12802.88
498.469	12995.39
498.673	12923.71
498.876	13267.77
499.079	13140.79
499.282	13251.38
499.485	13669.17
499.689	13603.63
499.892	14080.81
500.095	14119.72
500.298	14269.22
500.501	14218.02
500.705	14760.73
500.908	14869.28
501.111	15047.45
501.314	15164.18
501.517	15278.87
501.72	15588.11
501.923	15536.91
502.126	16012.04
502.329	15995.66
502.532	16192.26
502.735	16300.81
502.938	16384.77
503.141	16757.5
503.344	16878.33
503.547	16927.49
503.75	17433.33
503.953	17580.79
504.156	17871.6
504.359	17924.85
504.562	17957.61
504.765	18784.99
504.968	18830.05
505.17	18877.15
505.373	19188.44
505.576	19393.24
505.779	19690.2
505.982	19841.75
506.185	20075.21
506.387	20411.08
506.59	20386.5
506.793	20890.31
506.996	20966.08
507.198	21504.7
507.401	21312.19
507.604	21699.25
507.807	22053.55
508.009	22188.72
508.212	22471.34
508.415	22622.89
508.617	23069.34
508.82	23128.74
509.022	23542.42
509.225	23927.44
509.428	24064.66
509.63	24484.49
509.833	24689.29
510.035	25145.98
510.238	25338.49
510.44	25596.54
510.643	26002.04
510.845	25881.21
511.048	26169.97
511.25	26604.14
511.453	27253.34
511.655	27849.3
511.858	27402.85
512.06	28254.8
512.262	28293.71
512.465	28658.25
512.667	28918.34
512.87	29276.74
513.072	29291.07
513.274	29882.94
513.477	30265.91
513.679	30554.67
513.881	30939.69
514.084	31588.89
514.286	31250.98
514.488	31494.69
514.69	32789
514.893	32621.07
515.095	32598.54
515.297	33325.57
515.499	33507.84
515.701	33765.88
515.904	34118.14
516.106	34359.8
516.308	34714.09
516.51	35647.97
516.712	35629.54
516.914	35920.35
517.116	36743.63
517.318	36698.58
517.52	37259.72
517.722	36780.49
517.925	37808.58
518.127	38291.9
518.329	38384.05
518.531	38285.75
518.733	39195.05
518.935	39459.24
519.136	39678.37
519.338	40214.94
519.54	40726.93
519.742	41193.87
519.944	40933.78
520.146	41724.29
520.348	42396.03
520.55	42066.3
520.752	42701.17
520.954	43053.42
521.155	42586.49
521.357	43915.62
521.559	43868.51
521.761	44454.23
521.963	44519.77
522.164	45095.25
522.366	45113.68
522.568	45447.5
522.77	45664.58
522.971	46618.94
523.173	46201.15
523.375	46840.12
523.576	46739.77
523.778	47415.6
523.98	47681.83
524.181	48138.53
524.383	48486.68
524.584	48881.94
524.786	49019.16
524.988	48398.62
525.189	48929.05
525.391	49621.26
525.592	49731.85
525.794	49830.15
525.995	50063.62
526.197	49938.69
526.398	50268.42
526.6	50667.77
526.801	51251.44
527.003	51083.51
527.204	50919.67
527.406	51773.67
527.607	51704.04
527.808	51880.17
528.01	51243.25
528.211	51648.75
528.412	52771.03
528.614	52340.96
528.815	52574.43
529.016	53065.94
529.218	52437.22
529.419	52611.29
529.62	53096.66
529.822	52617.44
530.023	52918.49
530.224	53403.86
530.425	53285.07
530.626	53213.4
530.828	52920.54
531.029	54216.9
531.23	53604.56
531.431	53827.79
531.632	53952.71
531.833	53928.14
532.035	54024.39
532.236	54583.49
532.437	54208.71
532.638	53934.28
532.839	54743.23
533.04	54302.92
533.241	54032.58
533.442	54857.91
533.643	54749.37
533.844	54440.13
534.045	54653.12
534.246	54200.52
534.447	54915.26
534.648	54819
534.849	54323.4
535.05	54491.33
535.251	54939.83
535.451	54800.57
535.652	54786.24
535.853	54438.08
536.054	55109.82
536.255	54618.3
536.456	54268.1
536.657	55185.59
536.857	54976.7
537.058	54288.58
537.259	55437.49
537.46	54851.77
537.66	54663.36
537.861	54456.51
538.062	54888.63
538.263	54950.07
538.463	54776
538.664	54843.58
538.865	55029.94
539.065	55216.31
539.266	54384.83
539.466	55173.3
539.667	54350.02
539.868	55404.72
540.068	55038.14
540.269	54657.21
540.469	55234.74
540.67	54479.04
540.87	54720.7
541.071	54452.42
541.271	55183.54
541.472	54360.26
541.672	54659.26
541.873	54812.86
542.073	53768.4
542.274	55244.98
542.474	54677.69
542.675	54386.88
542.875	54956.22
543.075	54681.79
543.276	53426.38
543.476	55310.52
543.676	54497.47
543.877	55167.16
544.077	55310.52
544.277	54653.12
544.478	54677.69
544.678	54941.88
544.878	54374.59
545.078	54610.11
545.279	54595.77
545.479	54603.97
545.679	55134.39
545.879	54982.84
546.079	54644.93
546.28	54737.08
546.48	54421.7
546.68	54845.63
546.88	54554.82
547.08	54642.88
547.28	54628.54
547.48	54292.68
547.68	54593.73
547.88	54540.48
548.081	54769.85
548.281	54585.54
548.481	54151.37
548.681	54696.13
548.881	54988.98
549.081	54491.33
549.28	54333.63
549.48	54577.34
549.68	54493.38
549.88	55255.22
550.08	54370.5
550.28	54782.14
550.48	54237.38
550.68	54847.68
550.88	54163.65
551.08	54397.12
551.279	54364.35
551.479	54530.24
551.679	54425.79
551.879	54446.27
552.079	54800.57
552.278	54552.77
552.478	54491.33
552.678	54413.51
552.878	54583.49
553.077	54419.65
553.277	54040.78
553.477	54790.33
553.676	53924.04
553.876	54446.27
554.076	54096.07
554.275	53903.56
554.475	53465.3
554.674	54182.09
554.874	53543.12
555.074	53852.36
555.273	53934.28
555.473	53962.95
555.672	53477.58
555.872	54259.91
556.071	53586.13
556.271	53938.38
556.47	53811.4
556.67	53063.89
556.869	53340.37
557.068	53453.01
557.268	53104.85
557.467	53506.26
557.667	53475.54
557.866	53276.88
558.065	53100.76
558.265	53215.44
558.464	52953.3
558.663	53506.26
558.863	52822.23
559.062	53553.36
559.261	52732.12
559.461	52981.98
559.66	52437.22
559.859	53133.53
560.058	52490.46
560.258	52932.82
560.457	52275.43
560.656	52730.08
560.855	52740.32
561.054	51964.14
561.253	52066.53
561.453	52465.89
561.652	52211.94
561.851	52127.97
562.05	52248.8
562.249	52109.54
562.448	52226.28
562.647	52365.54
562.846	52152.55
563.045	51980.52
563.244	51472.62
563.443	51947.75
563.642	51456.24
563.841	51738.86
564.04	51337.46
564.239	52465.89
564.438	51063.03
564.637	51611.88
564.836	51802.35
565.035	50827.51
565.234	51667.18
565.432	51058.93
565.631	51013.88
565.83	51142.9
566.029	50780.41
566.228	50729.21
566.427	50489.6
566.625	50690.3
566.824	50063.62
567.023	50671.87
567.222	49934.6
567.42	50774.27
567.619	50327.81
567.818	50075.91
568.016	49993.99
568.215	50157.83
568.414	49963.27
568.612	50247.94
568.811	49955.08
569.01	50047.24
569.208	49248.53
569.407	49778.95
569.605	49185.04
569.804	49776.9
570.002	49316.11
570.201	49379.6
570.4	48718.1
570.598	49271.06
570.797	48892.18
570.995	48800.02
571.193	48277.79
571.392	49045.78
571.59	48285.98
571.789	48550.17
571.987	48212.26
572.186	48392.48
572.384	47984.93
572.582	48075.04
572.781	48165.15
572.979	47769.9
573.177	47896.87
573.376	47950.12
573.574	47350.06
573.772	47272.24
573.971	47022.39
574.169	46803.25
574.367	46645.56
574.565	47063.35
574.763	46825.78
574.962	46969.14
575.16	46059.84
575.358	46707
575.556	45922.63
575.754	46805.3
575.952	45764.93
576.151	46514.49
576.349	45498.7
576.547	45664.58
576.745	45683.01
576.943	45738.31
577.141	45216.08
577.339	45642.06
577.537	45218.13
577.735	45218.13
577.933	44958.03
578.131	45035.86
578.329	44810.58
578.527	44728.66
578.725	44728.66
578.923	44286.3
579.121	44482.91
579.319	44149.09
579.516	44556.63
579.714	44065.12
579.912	43874.66
580.11	44073.31
580.308	43544.94
580.506	43762.02
580.704	42994.03
580.901	43286.89
581.099	43856.23
581.297	42836.34
581.495	43100.53
581.692	43508.07
581.89	42393.98
582.088	42979.7
582.285	42203.52
582.483	42725.75
582.681	42561.91
582.878	42527.1
583.076	41709.96
583.274	42424.7
583.471	41775.49
583.669	41728.39
583.866	41157
584.064	41820.55
584.262	41415.05
584.459	42180.99
584.657	40950.16
584.854	41777.54
585.052	40718.74
585.249	41152.91
585.447	41396.62
585.644	40597.91
585.841	40747.41
586.039	40509.85
586.236	40311.19
586.434	40071.58
586.631	40223.13
586.828	40022.43
587.026	40296.86
587.223	40350.1
587.42	39547.3
587.618	39950.75
587.815	39240.11
588.012	39203.24
588.21	39074.22
588.407	39852.45
588.604	39094.7
588.801	38906.29
588.999	38838.7
589.196	38519.22
589.393	38787.5
589.59	38674.87
589.787	38339
589.984	38605.23
590.182	37913.02
590.379	38668.72
590.576	37513.67
590.773	38007.23
590.97	37595.59
591.167	37925.31
591.364	37431.75
591.561	37550.53
591.758	37241.29
591.955	37444.04
592.152	37757.38
592.349	36940.24
592.546	37112.27
592.743	37198.28
592.94	36809.17
593.137	36843.98
593.334	36893.13
593.531	36100.57
593.727	36499.92
593.924	36551.12
594.121	36407.76
594.318	36331.99
594.515	35774.94
594.712	36364.76
594.908	35500.51
595.105	36106.71
595.302	35594.72
595.499	35936.73
595.696	35643.87
595.892	34994.67
596.089	35832.29
596.286	35471.84
596.482	35043.82
596.679	34992.62
596.876	35172.84
597.072	34972.14
597.269	34875.88
597.466	34300.4
597.662	34558.45
597.859	34626.03
598.055	34482.67
598.252	34351.6
598.448	34476.53
598.645	34144.76
598.841	33927.67
599.038	34075.13
599.234	33982.97
599.431	33696.25
599.627	33554.94
599.824	33870.33
600.02	33255.94
600.217	33434.11
600.413	33407.49
600.609	33094.15
600.806	32793.1
601.002	32784.91
601.198	32956.94
601.395	32533.01
601.591	32465.42
601.787	32602.64
601.984	32399.89
602.18	32403.99
602.376	32469.52
602.572	32285.2
602.769	32219.67
602.965	31789.59
603.161	31937.05
603.357	31662.62
603.553	31494.69
603.75	31738.4
603.946	31506.98
604.142	31554.08
604.338	31175.2
604.534	30954.02
604.73	30986.79
604.926	31040.04
605.122	30921.26
605.318	30618.16
605.514	30640.68
605.71	30487.09
605.906	30341.68
606.102	30315.06
606.298	30036.53
606.494	30274.1
606.69	29983.29
606.886	30153.27
607.082	29821.5
607.278	30042.68
607.474	29284.93
607.67	29815.35
607.866	29313.6
608.062	29762.11
608.257	29299.26
608.453	29073.99
608.649	29432.38
608.845	29094.47
609.041	29002.31
609.236	29067.84
609.432	29137.48
609.628	29067.84
609.824	28695.11
610.019	28357.2
610.215	28543.56
610.411	28697.16
610.606	28287.57
610.802	28531.28
610.998	28213.84
611.193	28097.11
611.389	27935.32
611.584	28142.16
611.78	27617.88
611.976	28013.14
612.171	28004.95
612.367	27734.62
612.562	27759.19
612.758	27142.75
612.953	27331.17
613.149	27576.92
613.344	27134.56
613.539	27677.27
613.735	27320.93
613.93	27322.98
614.126	26858.09
614.321	27196
614.517	27056.74
614.712	27198.05
614.907	26602.09
615.103	26868.33
615.298	26610.28
615.493	27060.84
615.688	26243.7
615.884	26774.12
616.079	26210.93
616.274	26595.95
616.47	26391.15
616.665	26243.7
616.86	26143.35
617.055	26030.71
617.25	26012.28
617.445	26020.47
617.641	25539.19
617.836	25916.02
618.031	25678.46
618.226	25627.26
618.421	25326.21
618.616	25639.54
618.811	24949.38
619.006	25350.78
619.201	24859.27
619.396	25119.36
619.591	24459.91
619.786	25002.63
619.981	24283.79
620.176	24769.16
620.371	24351.37
620.566	24289.93
620.761	24240.78
620.956	24285.84
621.151	23491.23
621.346	24078.99
621.541	23349.92
621.735	23706.26
621.93	23446.17
622.125	23548.57
622.32	23102.11
622.515	23069.34
622.709	23065.25
622.904	22997.67
623.099	22956.71
623.294	22821.54
623.488	22573.74
623.683	22760.1
623.878	21965.49
624.072	22553.26
624.267	22432.43
624.462	22102.7
624.656	21646.01
624.851	21723.83
625.046	21664.44
625.24	21666.49
625.435	21068.48
625.629	21310.14
625.824	21015.23
626.018	21033.66
626.213	21066.43
626.407	20949.7
626.602	20331.21
626.796	20699.84
626.991	20507.34
627.185	20460.23
627.38	20310.73
627.574	20001.49
627.768	19843.79
627.963	20194
628.157	19811.03
628.352	19847.89
628.546	19507.93
628.74	19811.03
628.935	19573.46
629.129	19450.58
629.323	19116.76
629.517	19206.87
629.712	19204.83
629.906	19202.78
630.1	18744.03
630.294	18664.16
630.489	18715.36
630.683	18866.91
630.877	18500.33
631.071	18256.62
631.265	18393.83
631.459	18154.22
631.653	18060.01
631.848	18092.78
632.042	17949.42
632.236	18023.15
632.43	17885.94
632.624	17732.34
632.818	17767.15
633.012	17382.13
633.206	17648.37
633.4	17523.44
633.594	17273.59
633.788	17048.32
633.982	17163
634.176	16847.61
634.369	16956.16
634.563	16861.95
634.757	16612.1
634.951	16745.22
635.145	16845.57
635.339	16573.19
635.533	16300.81
635.726	16589.57
635.92	16231.18
636.114	16046.86
636.308	16053
636.501	16001.8
636.695	16026.38
636.889	15682.32
637.083	15670.03
637.276	15934.22
637.47	15631.12
637.664	15590.16
637.857	15618.83
638.051	15381.27
638.244	15254.3
638.438	15340.31
638.632	15155.99
638.825	15176.47
639.019	14983.96
639.212	14940.96
639.406	15016.73
639.599	14879.52
639.793	14492.45
639.986	14447.4
640.18	14682.91
640.373	14650.14
640.567	14144.3
640.76	14398.24
640.954	14072.62
641.147	14072.62
641.34	13978.41
641.534	14078.76
641.727	14187.3
641.92	13800.24
642.114	13769.52
642.307	14029.61
642.5	13703.98
642.694	13538.1
642.887	13595.44
643.08	13400.88
643.273	13275.96
643.467	13134.65
643.66	13220.66
643.853	13189.94
644.046	13005.63
644.239	12884.8
644.432	12786.49
644.626	12872.51
644.819	12690.24
645.012	12761.92
645.205	12763.97
645.398	12628.8
645.591	12436.29
645.784	12352.32
645.977	12198.73
646.17	12262.21
646.363	12208.97
646.556	12075.85
646.749	12120.9
646.942	12092.23
647.135	11821.9
647.328	11785.04
647.521	11629.39
647.714	11651.92
647.907	11653.97
648.099	11711.31
648.292	11473.74
648.485	11479.89
648.678	11176.79
648.871	11223.89
649.064	11080.53
649.256	11266.9
649.449	11021.14
649.642	11105.11
649.835	10967.9
650.027	11021.14
650.22	10670.94
650.413	10601.31
650.605	10707.8
650.798	10777.44
650.991	10466.14
651.183	10388.32
651.376	10363.75
651.568	10261.35
651.761	10498.91
651.954	10253.16
652.146	10124.13
652.339	10068.84
652.531	9880.43
652.724	9968.49
652.916	9753.45
653.109	9622.38
653.301	9829.23
653.494	9636.72
653.686	9354.1
653.879	9454.45
654.071	9515.89
654.263	9464.69
654.456	9343.86
654.648	9329.52
654.84	9003.89
655.033	9223.03
655.225	9155.44
655.417	9120.63
655.61	9079.67
655.802	9065.33
655.994	8901.5
656.186	9010.04
656.379	8801.15
656.571	8651.64
656.763	8622.97
656.955	8565.63
657.148	8559.49
657.34	8405.89
657.532	8643.45
657.724	8188.8
657.916	8323.97
658.108	8272.77
658.3	8229.76
658.492	8360.83
658.684	8254.34
658.876	7957.38
659.068	7795.59
659.26	7867.27
659.452	7914.38
659.644	7857.03
659.836	7668.62
660.028	7932.81
660.22	7793.55
660.412	7543.69
660.604	7388.05
660.796	7533.45
660.988	7484.3
661.18	7426.96
661.372	7441.29
661.563	7209.87
661.755	7119.76
661.947	7154.58
662.139	7191.44
662.331	7238.55
662.522	6931.35
662.714	7052.18
662.906	6994.84
663.097	6849.43
663.289	6863.77
663.481	6755.22
663.673	6742.94
663.864	6701.98
664.056	6654.87
664.247	6532
664.439	6405.02
664.631	6597.53
664.822	6583.2
665.014	6368.16
665.205	6398.88
665.397	6308.77
665.588	6101.92
665.78	6280.1
665.971	6181.79
666.163	6222.75
666.354	6063.01
666.546	6251.42
666.737	5938.09
666.929	6071.2
667.12	5977
667.311	6026.15
667.503	5804.97
667.694	5903.27
667.885	5862.31
668.077	5813.16
668.268	5743.53
668.459	5663.66
668.651	5739.43
668.842	5600.17
669.033	5616.55
669.224	5575.59
669.416	5616.55
669.607	5465
669.798	5434.29
669.989	5331.89
670.18	5399.47
670.371	5471.15
670.563	5307.31
670.754	5192.62
670.945	5266.35
671.136	5270.45
671.327	5305.26
671.518	5143.47
671.709	5100.47
671.9	5239.73
672.091	5190.58
672.282	5190.58
672.473	5082.03
672.664	5084.08
672.855	4914.1
673.046	4957.11
673.237	5104.56
673.428	4991.92
673.619	4932.53
673.809	4670.39
674	4801.46
674.191	4887.48
674.382	4905.91
674.573	4789.17
674.764	4762.55
674.954	4850.61
675.145	4711.35
675.336	4758.46
675.527	4903.86
675.717	4848.57
675.908	4709.3
676.099	4823.99
676.289	4584.38
676.48	4506.56
676.671	4473.79
676.861	4594.62
677.052	4625.34
677.243	4567.99
677.433	4529.08
677.624	4615.1
677.814	4416.44
678.005	4617.15
678.195	4447.16
678.386	4430.78
678.576	4318.14
678.767	4459.45
678.957	4479.93
679.148	4383.68
679.338	4355.01
679.529	4359.1
679.719	4291.52
679.909	4293.57
680.1	4297.66
680.29	4297.66
680.481	4346.81
680.671	4230.08
680.861	4152.26
681.052	4158.4
681.242	4223.94
681.432	4158.4
681.622	4127.68
681.813	4268.99
682.003	4004.8
682.193	4264.89
682.383	4209.6
682.573	4142.02
682.764	4086.72
682.954	3939.27
683.144	4103.11
683.334	4060.1
683.524	4033.47
683.714	4123.59
683.904	4109.25
684.094	4051.91
684.284	3992.52
684.474	4109.25
684.664	4070.34
684.854	3914.69
685.044	3945.41
685.234	3855.3
685.424	3963.84
685.614	4043.71
685.804	3912.64
685.994	3828.68
686.184	4002.75
686.374	3914.69
686.564	3881.92
686.753	3922.88
686.943	3994.56
687.133	3826.63
687.323	3779.53
687.513	3945.41
687.702	3791.81
687.892	3738.57
688.082	3832.77
688.272	3785.67
688.461	3822.53
688.651	4021.19
688.841	3748.81
689.03	3783.62
689.22	3781.57
689.41	3898.31
689.599	3797.96
689.789	3812.29
689.979	3877.83
690.168	3898.31
690.358	3855.3
690.547	3724.23
690.737	3779.53
690.926	3800.01
691.116	3689.42
691.305	3853.25
691.495	3759.05
691.684	3718.09
691.874	3791.81
692.063	3742.66
692.252	3855.3
692.442	3771.33
692.631	3765.19
692.82	3697.61
693.01	3703.75
693.199	3800.01
693.388	3693.51
693.578	3695.56
693.767	3752.9
693.956	3728.33
694.146	3673.03
694.335	3623.88
694.524	3634.12
694.713	3720.14
694.902	3820.49
695.092	3648.46
695.281	3634.12
695.47	3640.26
695.659	3562.44
695.848	3638.22
696.037	3623.88
696.226	3617.74
696.415	3640.26
696.604	3728.33
696.793	3591.11
696.982	3646.41
697.171	3636.17
697.36	3627.98
697.549	3552.2
697.738	3613.64
697.927	3355.6
698.116	3597.26
698.305	3529.67
698.494	3689.42
698.683	3609.54
698.872	3494.86
699.061	3527.63
699.25	3458
699.438	3582.92
699.627	3513.29
699.816	3587.02
700.005	3570.63
700.193	3566.54
700.382	3419.08
700.571	3593.16
700.76	3285.97
700.948	3365.84
701.137	3462.09
701.326	3511.24
701.514	3402.7
701.703	3382.22
701.892	3251.15
702.08	3388.36
702.269	3371.98
702.457	3396.56
702.646	3281.87
702.834	3277.77
703.023	3288.01
703.212	3406.8
703.4	3320.78
703.589	3298.25
703.777	3349.45
703.965	3255.25
704.154	3365.84
704.342	3333.07
704.531	3302.35
704.719	3224.53
704.907	3281.87
705.096	3269.58
705.284	3171.28
705.472	3202
705.661	3167.18
705.849	3206.1
706.037	3277.77
706.226	3179.47
706.414	3115.98
706.602	3105.74
706.79	3075.03
706.979	3064.79
707.167	3136.46
707.355	3068.88
707.543	3066.83
707.731	3097.55
707.919	2999.25
708.107	3003.35
708.296	3017.68
708.484	2978.77
708.672	2991.06
708.86	2948.05
709.048	2853.84
709.236	2888.66
709.424	3036.11
709.612	2816.98
709.8	2851.8
709.988	2851.8
710.176	2841.56
710.364	2892.76
710.551	2806.74
710.739	2825.17
710.927	2845.65
711.115	2792.41
711.303	2773.97
711.491	2761.69
711.679	2763.73
711.866	2825.17
712.054	2853.84
712.242	2780.12
712.43	2687.96
712.617	2751.45
712.805	2589.66
712.993	2720.73
713.181	2599.9
713.368	2694.1
713.556	2696.15
713.744	2534.36
713.931	2669.53
714.119	2642.9
714.306	2634.71
714.494	2552.79
714.682	2593.75
714.869	2505.69
715.057	2509.79
715.244	2565.08
715.432	2554.84
715.619	2528.22
715.807	2436.06
715.994	2462.68
716.182	2419.68
716.369	2450.39
716.556	2388.96
716.744	2438.11
716.931	2388.96
717.119	2360.28
717.306	2341.85
717.493	2210.78
717.681	2323.42
717.868	2415.58
718.055	2411.48
718.242	2198.49
718.43	2253.79
718.617	2393.05
718.804	2458.59
718.991	2227.17
719.179	2327.52
719.366	2290.65
719.553	2350.04
719.74	2309.08
719.927	2200.54
720.114	2214.88
720.301	2153.44
720.488	2159.58
720.676	2253.79
720.863	2149.34
721.05	2132.96
721.237	2218.97
721.424	2221.02
721.611	2135.01
721.798	2137.06
721.985	2010.08
722.172	1938.4
722.358	2057.18
722.545	2126.82
722.732	1979.36
722.919	2046.94
723.106	1977.31
723.293	1874.92
723.48	2104.29
723.667	2057.18
723.853	1917.92
724.04	2065.38
724.227	1936.35
724.414	1965.03
724.6	2063.33
724.787	2020.32
724.974	2032.61
725.161	1956.83
725.347	1858.53
725.534	1962.98
725.72	1913.83
725.907	1860.58
726.094	1840.1
726.28	1899.49
726.467	1803.24
726.653	1764.33
726.84	1836
727.027	1772.52
727.213	1846.24
727.4	1831.91
727.586	1797.09
727.773	1768.42
727.959	1883.11
728.145	1803.24
728.332	1770.47
728.518	1743.85
728.705	1833.96
728.891	1743.85
729.077	1678.31
729.264	1698.79
729.45	1655.78
729.636	1694.69
729.823	1782.76
730.009	1733.61
730.195	1627.11
730.382	1637.35
730.568	1717.22
730.754	1604.58
730.94	1586.15
731.126	1596.39
731.313	1588.2
731.499	1569.77
731.685	1659.88
731.871	1641.45
732.057	1629.16
732.243	1559.53
732.429	1528.81
732.615	1510.38
732.801	1629.16
732.987	1553.38
733.173	1592.3
733.359	1496.04
733.545	1432.55
733.731	1594.34
733.917	1610.73
734.103	1537
734.289	1551.34
734.475	1506.28
734.661	1623.02
734.847	1430.51
735.033	1463.27
735.219	1496.04
735.404	1512.42
735.59	1442.79
735.776	1334.25
735.962	1426.41
736.148	1586.15
736.333	1428.46
736.519	1416.17
736.705	1414.12
736.89	1301.48
737.076	1307.63
737.262	1442.79
737.447	1401.83
737.633	1401.83
737.819	1358.83
738.004	1340.4
738.19	1364.97
738.375	1287.15
738.561	1356.78
738.747	1242.09
738.932	1240.05
739.118	1375.21
739.303	1297.39
739.489	1389.55
739.674	1293.29
739.859	1324.01
740.045	1266.67
740.23	1285.1
740.416	1221.61
740.601	1221.61
740.786	1254.38
740.972	1266.67
741.157	1348.59
741.342	1276.91
741.528	1248.24
741.713	1168.37
741.898	1184.75
742.084	1250.28
742.269	1149.93
742.454	1190.89
742.639	1209.33
742.824	1233.9
743.01	1188.85
743.195	1258.48
743.38	1176.56
743.565	1186.8
743.75	1174.51
743.935	1106.93
744.12	1178.61
744.305	1166.32
744.49	1098.74
744.675	1127.41
744.86	1045.49
745.045	1129.45
745.23	1119.21
745.415	1180.65
745.6	1076.21
745.785	1076.21
745.97	1039.34
746.155	1022.96
746.34	1135.6
746.525	994.29
746.71	1055.73
746.895	979.95
747.079	1004.53
747.264	1029.1
747.449	1033.2
747.634	1053.68
747.819	996.34
748.003	963.57
748.188	1045.49
748.373	1070.06
748.557	955.38
748.742	994.29
748.927	996.34
749.111	1041.39
749.296	953.33
749.481	1041.39
749.665	971.76
749.85	961.52
750.034	920.56
750.219	926.71
750.404	842.74
750.588	926.71
750.773	906.23
750.957	873.46
751.141	959.47
751.326	922.61
751.51	863.22
751.695	869.36
751.879	889.84
752.064	971.76
752.248	842.74
752.432	922.61
752.617	859.12
752.801	838.64
752.985	898.03
753.17	846.84
753.354	867.31
753.538	805.88
753.722	787.44
753.907	760.82
754.091	777.2
754.275	777.2
754.459	828.4
754.643	850.93
754.828	797.68
755.012	785.4
755.196	824.31
755.38	857.07
755.564	750.58
755.748	639.99
755.932	719.86
756.116	734.2
756.3	748.53
756.484	789.49
756.668	820.21
756.852	840.69
757.036	685.05
757.22	732.15
757.404	703.48
757.588	689.14
757.772	732.15
757.956	660.47
758.14	728.05
758.323	705.53
758.507	711.67
758.691	680.95
758.875	779.25
759.059	668.66
759.242	615.41
759.426	639.99
759.61	680.95
759.794	674.81
759.977	672.76
760.161	652.28
760.345	627.7
760.528	629.75
760.712	617.46
760.895	672.76
761.079	672.76
761.263	627.7
761.446	637.94
761.63	697.33
761.813	666.61
761.997	709.62
762.18	662.52
762.364	596.98
762.547	627.7
762.731	646.13
762.914	668.66
763.098	621.56
763.281	660.47
763.464	683
763.648	496.63
763.831	584.7
764.015	578.55
764.198	599.03
764.381	668.66
764.564	545.78
764.748	644.09
764.931	564.22
765.114	609.27
765.297	603.13
765.481	656.37
765.664	586.74
765.847	521.21
766.03	547.83
766.213	556.02
766.397	486.39
766.58	562.17
766.763	558.07
766.946	549.88
767.129	605.17
767.312	592.89
767.495	672.76
767.678	578.55
767.861	584.7
768.044	517.11
768.227	631.8
768.41	586.74
768.593	521.21
768.776	574.46
768.959	560.12
769.142	570.36
769.324	582.65
769.507	551.93
769.69	562.17
769.873	547.83
770.056	515.06
770.239	490.49
770.421	582.65
770.604	513.02
770.787	545.78
770.97	545.78
771.152	560.12
771.335	551.93
771.518	451.58
771.7	537.59
771.883	549.88
772.066	533.5
772.248	443.39
772.431	541.69
772.613	517.11
772.796	486.39
772.978	474.1
773.161	455.67
773.343	500.73
773.526	492.54
773.708	519.16
773.891	492.54
774.073	533.5
774.256	398.33
774.438	498.68
774.621	455.67
774.803	453.63
774.985	414.71
775.168	547.83
775.35	480.25
775.532	457.72
775.715	388.09
775.897	470.01
776.079	457.72
776.261	513.02
776.444	474.1
776.626	488.44
776.808	470.01
776.99	470.01
777.173	533.5
777.355	412.67
777.537	422.91
777.719	410.62
777.901	418.81
778.083	433.15
778.265	379.9
778.447	416.76
778.629	424.95
778.811	381.95
778.993	402.43
779.175	424.95
779.357	357.37
779.539	392.19
779.721	312.32
779.903	383.99
780.085	383.99
780.267	371.71
780.449	392.19
780.631	406.52
780.812	381.95
780.994	414.71
781.176	349.18
781.358	441.34
781.54	361.47
781.721	404.47
781.903	340.99
782.085	316.41
782.267	328.7
782.448	357.37
782.63	367.61
782.812	367.61
782.993	340.99
783.175	316.41
783.357	379.9
783.538	375.8
783.72	353.27
783.901	361.47
784.083	390.14
784.264	340.99
784.446	371.71
784.627	381.95
784.809	386.04
784.99	293.88
785.172	285.69
785.353	353.27
785.535	328.7
785.716	252.92
785.897	265.21
786.079	293.88
786.26	273.4
786.441	293.88
786.623	289.79
786.804	324.6
786.985	228.35
787.167	259.07
787.348	267.26
787.529	289.79
787.71	340.99
787.891	345.08
788.073	349.18
788.254	277.5
788.435	300.03
788.616	265.21
788.797	193.53
788.978	332.79
789.159	289.79
789.34	300.03
789.522	283.64
789.703	248.83
789.884	259.07
790.065	320.51
790.246	199.68
790.427	252.92
790.607	254.97
790.788	300.03
790.969	275.45
791.15	220.16
791.331	304.12
791.512	246.78
791.693	193.53
791.874	300.03
792.054	234.49
792.235	201.72
792.416	203.77
792.597	316.41
792.778	201.72
792.958	248.83
793.139	203.77
793.32	128
793.5	220.16
793.681	179.2
793.862	302.08
794.042	205.82
794.223	275.45
794.404	240.64
794.584	205.82
794.765	211.96
794.945	205.82
795.126	226.3
795.306	201.72
795.487	263.16
795.667	209.92
795.848	257.02
796.028	203.77
796.209	195.58
796.389	211.96
796.57	201.72
796.75	171.01
796.93	220.16
797.111	154.62
797.291	275.45
797.471	168.96
797.652	168.96
797.832	166.91
798.012	175.1
798.192	207.87
798.373	220.16
798.553	123.9
798.733	201.72
798.913	97.28
799.093	197.63
799.274	136.19
799.454	162.81
799.634	220.16
799.814	250.88
799.994	162.81
800.174	189.44
800.354	144.38
800.534	140.29
800.714	199.68
800.894	171.01
801.074	201.72
801.254	257.02
801.434	164.86
801.614	197.63
801.794	193.53
801.974	402.43
802.154	166.91
802.334	252.92
802.514	205.82
802.693	168.96
802.873	160.77
803.053	123.9
803.233	140.29
803.413	105.47
803.592	193.53
803.772	128
803.952	105.47
804.131	103.42
804.311	168.96
804.491	150.53
804.67	107.52
804.85	115.71
805.03	111.61
805.209	160.77
805.389	111.61
805.568	113.66
805.748	185.34
805.928	117.76
806.107	158.72
806.287	58.37
806.466	117.76
806.646	130.05
806.825	193.53
807.004	181.25
807.184	246.78
807.363	146.43
807.543	142.33
807.722	183.29
807.901	156.67
808.081	87.04
808.26	99.33
808.439	130.05
808.619	76.8
808.798	150.53
808.977	101.37
809.156	95.23
809.336	144.38
809.515	154.62
809.694	121.85
809.873	95.23
810.052	175.1
810.231	150.53
810.411	177.15
810.59	107.52
810.769	130.05
810.948	140.29
811.127	158.72
811.306	168.96
811.485	99.33
811.664	168.96
811.843	140.29
812.022	101.37
812.201	132.09
812.38	105.47
812.559	121.85
812.737	93.18
812.916	95.23
813.095	105.47
813.274	142.33
813.453	107.52
813.632	144.38
813.811	148.48
813.989	95.23
814.168	158.72
814.347	82.94
814.526	82.94
814.704	87.04
814.883	134.14
815.062	125.95
815.24	168.96
815.419	74.75
815.598	91.13
815.776	99.33
815.955	113.66
816.133	93.18
816.312	119.81
816.49	93.18
816.669	23.55
816.847	134.14
817.026	156.67
817.204	113.66
817.383	58.37
817.561	46.08
817.74	35.84
817.918	164.86
818.097	144.38
818.275	140.29
818.453	166.91
818.632	97.28
818.81	144.38
818.988	70.65
819.167	119.81
819.345	109.57
819.523	39.94
819.701	132.09
819.879	91.13
820.058	199.68
820.236	171.01
820.414	107.52
820.592	46.08
820.77	44.03
820.948	62.46
821.127	130.05
821.305	130.05
821.483	54.27
821.661	115.71
821.839	17.41
822.017	111.61
822.195	62.46
822.373	72.7
822.551	80.89
822.729	99.33
822.907	44.03
823.085	119.81
823.262	87.04
823.44	103.42
823.618	46.08
823.796	54.27
823.974	130.05
824.152	109.57
824.329	-15.36
824.507	48.13
824.685	62.46
824.863	48.13
825.04	162.81
825.218	123.9
825.396	95.23
825.574	48.13
825.751	109.57
825.929	109.57
826.107	64.51
826.284	107.52
826.462	128
826.639	123.9
826.817	72.7
826.994	87.04
827.172	37.89
827.349	78.85
827.527	78.85
827.704	84.99
827.882	74.75
828.059	101.37
828.237	1.02
828.414	87.04
828.591	29.7
828.769	68.61
828.946	109.57
829.124	103.42
829.301	52.22
829.478	62.46
829.655	56.32
829.833	54.27
830.01	29.7
830.187	31.74
830.364	121.85
830.542	44.03
830.719	50.18
830.896	76.8
831.073	119.81
831.25	78.85
831.427	46.08
831.604	76.8
831.782	121.85
831.959	50.18
832.136	74.75
832.313	113.66
832.49	74.75
832.667	89.09
832.844	97.28
833.021	70.65
833.198	128
833.374	35.84
833.551	70.65
833.728	50.18
833.905	87.04
834.082	50.18
834.259	87.04
834.436	91.13
834.612	60.42
834.789	7.17
834.966	91.13
835.143	41.98
835.319	70.65
835.496	74.75
835.673	62.46
835.85	25.6
836.026	70.65
836.203	39.94
836.38	74.75
836.556	52.22
836.733	31.74
836.909	48.13
837.086	66.56
837.262	99.33
837.439	7.17
837.616	95.23
837.792	54.27
837.968	82.94
838.145	62.46
838.321	7.17
838.498	33.79
838.674	107.52
838.851	31.74
839.027	93.18
839.203	101.37
839.38	91.13
839.556	-58.37
839.732	64.51
839.909	-7.17
840.085	29.7
840.261	41.98
840.437	97.28
840.614	11.26
840.79	111.61
840.966	150.53
841.142	89.09
841.318	80.89
841.494	136.19
841.671	132.09
841.847	23.55
842.023	66.56
842.199	27.65
842.375	27.65
842.551	74.75
842.727	37.89
842.903	70.65
843.079	52.22
843.255	72.7
843.431	72.7
843.607	78.85
843.783	-5.12
843.959	54.27
844.134	23.55
844.31	46.08
844.486	44.03
844.662	44.03
844.838	-11.26
845.013	46.08
845.189	25.6
845.365	78.85
845.541	84.99
845.716	33.79
845.892	74.75
846.068	44.03
846.244	105.47
846.419	15.36
846.595	11.26
846.77	50.18
846.946	103.42
847.122	56.32
847.297	21.5
847.473	31.74
847.648	31.74
847.824	33.79
847.999	-1.02
848.175	78.85
848.35	70.65
848.526	13.31
848.701	7.17
848.876	54.27
849.052	82.94
849.227	39.94
849.403	1.02
849.578	97.28
849.753	-56.32
849.929	54.27
850.104	121.85
850.279	46.08
850.454	-7.17
850.63	50.18
850.805	64.51
850.98	39.94
851.155	-3.07
851.33	60.42
851.505	-13.31
851.681	46.08
851.856	37.89
852.031	9.22
852.206	76.8
852.381	68.61
852.556	19.46
852.731	11.26
852.906	41.98
853.081	64.51
853.256	23.55
853.431	41.98
853.606	37.89
853.781	64.51
853.956	93.18
854.131	89.09
854.305	93.18
854.48	48.13
854.655	13.31
854.83	62.46
855.005	46.08
855.18	39.94
855.354	31.74
855.529	56.32
855.704	41.98
855.879	60.42
856.053	82.94
856.228	11.26
856.403	-44.03
856.577	70.65
856.752	-19.46
856.926	17.41
857.101	62.46
857.276	9.22
857.45	54.27
857.625	23.55
857.799	66.56
857.974	72.7
858.148	70.65
858.323	58.37
858.497	3.07
858.672	-3.07
858.846	21.5
859.02	5.12
859.195	54.27
859.369	33.79
859.543	17.41
859.718	-48.13
859.892	33.79
860.066	-3.07
860.241	5.12
860.415	54.27
860.589	44.03
860.763	9.22
860.938	46.08
861.112	46.08
861.286	-15.36
861.46	48.13
861.634	-3.07
861.808	62.46
861.982	17.41
862.157	-5.12
862.331	-19.46
862.505	82.94
862.679	-48.13
862.853	-27.65
863.027	1.02
863.201	70.65
863.375	89.09
863.549	15.36
863.722	39.94
863.896	70.65
864.07	-1.02
864.244	46.08
864.418	-33.79
864.592	27.65
864.766	78.85
864.939	44.03
865.113	58.37
865.287	78.85
865.461	17.41
865.634	80.89
865.808	-7.17
865.982	35.84
866.156	25.6
866.329	-27.65
866.503	-48.13
866.676	1.02
866.85	33.79
867.024	23.55
867.197	-35.84
867.371	-7.17
867.544	72.7
867.718	33.79
867.891	-11.26
868.065	41.98
868.238	15.36
868.412	11.26
868.585	-3.07
868.759	17.41
868.932	-11.26
869.105	84.99
869.279	54.27
869.452	87.04
869.625	-9.22
869.799	76.8
869.972	21.5
870.145	5.12
870.319	23.55
870.492	23.55
870.665	-64.51
870.838	1.02
871.011	35.84
871.185	78.85
871.358	7.17
871.531	21.5
871.704	58.37
871.877	50.18
872.05	-17.41
872.223	-7.17
872.396	95.23
872.569	13.31
872.742	-19.46
872.915	-9.22
873.088	7.17
873.261	23.55
873.434	66.56
873.607	5.12
873.78	-44.03
873.953	78.85
874.126	27.65
874.299	109.57
874.471	19.46
874.644	-39.94
874.817	-48.13
874.99	82.94
875.163	3.07
875.335	54.27
875.508	21.5
875.681	29.7
875.853	58.37
876.026	33.79
876.199	21.5
876.371	17.41
876.544	-1.02
876.717	23.55
876.889	17.41
877.062	93.18
877.234	-11.26
877.407	19.46
877.579	46.08
877.752	21.5
877.924	-13.31
878.097	33.79
878.269	29.7
878.442	62.46
878.614	37.89
878.786	17.41
878.959	-48.13
879.131	39.94
879.303	37.89
879.476	-50.18
879.648	72.7
879.82	1.02
879.993	31.74
880.165	82.94
880.337	-17.41
880.509	3.07
880.681	-7.17
880.854	52.22
881.026	9.22
881.198	37.89
881.37	52.22
881.542	56.32
881.714	35.84
881.886	-3.07
882.058	21.5
882.23	7.17
882.402	-44.03
882.574	62.46
882.746	70.65
882.918	82.94
883.09	44.03
883.262	-11.26
883.434	13.31
883.606	50.18
883.778	-15.36
883.95	37.89
884.122	25.6
884.293	68.61
884.465	80.89
884.637	19.46
884.809	-1.02
884.98	31.74
885.152	66.56
885.324	156.67
885.496	44.03
885.667	39.94
885.839	68.61
886.011	37.89
886.182	111.61
886.354	70.65
886.525	23.55
886.697	44.03
886.869	56.32
887.04	68.61
887.212	29.7
887.383	7.17
887.555	9.22
887.726	37.89
887.897	17.41
888.069	7.17
888.24	33.79
888.412	-27.65
888.583	52.22
888.754	-54.27
888.926	46.08
889.097	54.27
889.268	-37.89
889.44	33.79
889.611	-17.41
889.782	-68.61
889.953	37.89
890.125	31.74
890.296	-19.46
890.467	-58.37
890.638	33.79
890.809	54.27
890.98	-19.46
891.151	95.23
891.323	52.22
891.494	23.55
891.665	41.98
891.836	5.12
892.007	15.36
892.178	35.84
892.349	-7.17
892.52	37.89
892.691	70.65
892.862	5.12
893.032	-11.26
893.203	-31.74
893.374	13.31
893.545	23.55
893.716	29.7
893.887	25.6
894.057	-31.74
894.228	33.79
894.399	7.17
894.57	25.6
894.74	-13.31
894.911	-44.03
895.082	119.81
895.253	-15.36
895.423	9.22
895.594	1.02
895.764	-15.36
895.935	33.79
896.106	-13.31
896.276	-5.12
896.447	-48.13
896.617	-11.26
896.788	-35.84
896.958	46.08
897.129	35.84
897.299	-19.46
897.47	68.61
897.64	48.13
897.81	5.12
897.981	70.65
898.151	-54.27
898.322	-9.22
898.492	-9.22
898.662	35.84
898.832	44.03
899.003	3.07
899.173	-3.07
899.343	41.98
899.513	9.22
