Data from USB4F104151__119__13-55-02-986.txt Node

Date: Thu Mar 13 13:55:02 EDT 2025
User: louis
Spectrometer: USB4F10415
Trigger mode: 4
Integration Time (sec): 1.000000E-2
Scans to average: 1
Electric dark correction enabled: true
Nonlinearity correction enabled: false
Boxcar width: 0
XAxis mode: Wavelengths
Number of Pixels in Spectrum: 3648
>>>>>Begin Spectral Data<<<<<
178.204	-9.9
178.424	-9.9
178.644	-9.9
178.864	-77.48
179.084	-18.09
179.304	-46.76
179.524	-11.95
179.744	47.44
179.964	2.39
180.184	-9.9
180.404	26.96
180.624	14.68
180.844	24.92
181.064	-59.05
181.283	-40.62
181.503	20.82
181.723	31.06
181.943	6.49
182.163	49.49
182.383	-18.09
182.602	94.55
182.822	16.73
183.042	14.68
183.262	61.78
183.482	37.2
183.701	18.77
183.921	45.4
184.141	20.82
184.361	43.35
184.58	-54.95
184.8	65.88
185.02	24.92
185.239	-3.75
185.459	29.01
185.679	24.92
185.898	10.58
186.118	12.63
186.338	53.59
186.557	78.16
186.777	106.84
186.997	74.07
187.216	57.68
187.436	63.83
187.655	43.35
187.875	67.92
188.095	-16.04
188.314	59.73
188.534	69.97
188.753	6.49
188.973	84.31
189.192	65.88
189.412	98.64
189.631	74.07
189.851	4.44
190.07	100.69
190.29	12.63
190.509	16.73
190.729	31.06
190.948	2.39
191.168	67.92
191.387	55.64
191.607	6.49
191.826	39.25
192.045	74.07
192.265	33.11
192.484	35.16
192.704	24.92
192.923	-50.86
193.142	82.26
193.362	51.54
193.581	39.25
193.8	92.5
194.02	59.73
194.239	35.16
194.458	-1.71
194.678	37.2
194.897	49.49
195.116	35.16
195.335	63.83
195.555	51.54
195.774	72.02
195.993	41.3
196.212	74.07
196.432	106.84
196.651	24.92
196.87	69.97
197.089	80.21
197.308	53.59
197.528	72.02
197.747	55.64
197.966	2.39
198.185	55.64
198.404	78.16
198.623	69.97
198.842	39.25
199.062	43.35
199.281	43.35
199.5	22.87
199.719	127.32
199.938	2.39
200.157	-3.75
200.376	6.49
200.595	47.44
200.814	18.77
201.033	80.21
201.252	92.5
201.471	37.2
201.69	55.64
201.909	43.35
202.128	-7.85
202.347	0.34
202.566	14.68
202.785	33.11
203.004	51.54
203.223	78.16
203.442	35.16
203.661	63.83
203.879	69.97
204.098	104.79
204.317	-28.33
204.536	98.64
204.755	37.2
204.974	49.49
205.193	12.63
205.411	74.07
205.63	49.49
205.849	-1.71
206.068	47.44
206.287	67.92
206.505	51.54
206.724	82.26
206.943	-3.75
207.162	43.35
207.381	31.06
207.599	2.39
207.818	-32.43
208.037	69.97
208.255	10.58
208.474	-3.75
208.693	57.68
208.911	26.96
209.13	41.3
209.349	22.87
209.567	35.16
209.786	41.3
210.005	72.02
210.223	-13.99
210.442	51.54
210.661	63.83
210.879	96.6
211.098	31.06
211.316	-9.9
211.535	76.12
211.753	55.64
211.972	90.45
212.191	53.59
212.409	6.49
212.628	-5.8
212.846	-30.38
213.065	67.92
213.283	82.26
213.502	72.02
213.72	33.11
213.938	-36.52
214.157	39.25
214.375	47.44
214.594	4.44
214.812	67.92
215.031	86.36
215.249	-9.9
215.467	24.92
215.686	-1.71
215.904	76.12
216.122	63.83
216.341	92.5
216.559	-1.71
216.778	69.97
216.996	18.77
217.214	102.74
217.432	41.3
217.651	55.64
217.869	51.54
218.087	49.49
218.306	82.26
218.524	78.16
218.742	8.53
218.96	53.59
219.179	110.93
219.397	35.16
219.615	53.59
219.833	29.01
220.051	69.97
220.27	92.5
220.488	100.69
220.706	41.3
220.924	10.58
221.142	22.87
221.36	59.73
221.578	90.45
221.796	84.31
222.015	86.36
222.233	0.34
222.451	-30.38
222.669	26.96
222.887	10.58
223.105	12.63
223.323	72.02
223.541	45.4
223.759	100.69
223.977	45.4
224.195	35.16
224.413	6.49
224.631	96.6
224.849	6.49
225.067	59.73
225.285	80.21
225.503	0.34
225.721	10.58
225.939	63.83
226.157	98.64
226.375	47.44
226.592	49.49
226.81	49.49
227.028	-24.23
227.246	26.96
227.464	57.68
227.682	86.36
227.9	45.4
228.117	35.16
228.335	-61.1
228.553	61.78
228.771	57.68
228.989	39.25
229.206	8.53
229.424	78.16
229.642	-30.38
229.86	-24.23
230.077	88.4
230.295	129.36
230.513	16.73
230.731	43.35
230.948	55.64
231.166	24.92
231.384	108.88
231.601	4.44
231.819	98.64
232.037	41.3
232.254	67.92
232.472	80.21
232.689	45.4
232.907	12.63
233.125	-5.8
233.342	22.87
233.56	6.49
233.777	26.96
233.995	26.96
234.213	-18.09
234.43	39.25
234.648	67.92
234.865	47.44
235.083	90.45
235.3	-34.47
235.518	69.97
235.735	86.36
235.953	86.36
236.17	-26.28
236.388	53.59
236.605	69.97
236.822	67.92
237.04	63.83
237.257	74.07
237.475	100.69
237.692	-7.85
237.909	84.31
238.127	84.31
238.344	12.63
238.562	108.88
238.779	33.11
238.996	74.07
239.214	59.73
239.431	0.34
239.648	39.25
239.865	51.54
240.083	61.78
240.3	69.97
240.517	86.36
240.735	49.49
240.952	106.84
241.169	26.96
241.386	147.8
241.603	133.46
241.821	43.35
242.038	33.11
242.255	98.64
242.472	67.92
242.689	65.88
242.907	51.54
243.124	86.36
243.341	41.3
243.558	92.5
243.775	37.2
243.992	8.53
244.209	102.74
244.426	37.2
244.643	67.92
244.86	18.77
245.078	104.79
245.295	123.22
245.512	55.64
245.729	0.34
245.946	63.83
246.163	-5.8
246.38	31.06
246.597	106.84
246.814	24.92
247.031	92.5
247.248	151.89
247.464	61.78
247.681	63.83
247.898	-5.8
248.115	69.97
248.332	-28.33
248.549	61.78
248.766	22.87
248.983	24.92
249.2	47.44
249.417	49.49
249.633	39.25
249.85	65.88
250.067	43.35
250.284	35.16
250.501	43.35
250.717	22.87
250.934	61.78
251.151	110.93
251.368	49.49
251.585	6.49
251.801	98.64
252.018	-63.15
252.235	112.98
252.451	47.44
252.668	29.01
252.885	10.58
253.102	45.4
253.318	43.35
253.535	18.77
253.752	106.84
253.968	0.34
254.185	33.11
254.401	78.16
254.618	29.01
254.835	41.3
255.051	53.59
255.268	86.36
255.484	67.92
255.701	51.54
255.917	88.4
256.134	112.98
256.351	-5.8
256.567	53.59
256.784	45.4
257	53.59
257.217	-13.99
257.433	153.94
257.65	74.07
257.866	41.3
258.082	61.78
258.299	102.74
258.515	24.92
258.732	20.82
258.948	45.4
259.165	26.96
259.381	33.11
259.597	78.16
259.814	47.44
260.03	2.39
260.246	18.77
260.463	86.36
260.679	45.4
260.895	10.58
261.112	10.58
261.328	49.49
261.544	80.21
261.761	45.4
261.977	43.35
262.193	59.73
262.409	106.84
262.626	33.11
262.842	57.68
263.058	16.73
263.274	96.6
263.49	4.44
263.707	57.68
263.923	29.01
264.139	6.49
264.355	104.79
264.571	110.93
264.787	88.4
265.004	31.06
265.22	31.06
265.436	26.96
265.652	51.54
265.868	55.64
266.084	57.68
266.3	37.2
266.516	31.06
266.732	45.4
266.948	55.64
267.164	57.68
267.38	82.26
267.596	45.4
267.812	-9.9
268.028	57.68
268.244	0.34
268.46	149.84
268.676	2.39
268.892	115.03
269.108	29.01
269.324	78.16
269.54	39.25
269.756	84.31
269.972	57.68
270.188	20.82
270.403	22.87
270.619	18.77
270.835	35.16
271.051	125.27
271.267	22.87
271.483	-11.95
271.698	29.01
271.914	100.69
272.13	20.82
272.346	37.2
272.562	10.58
272.777	-3.75
272.993	-26.28
273.209	49.49
273.425	72.02
273.64	47.44
273.856	24.92
274.072	33.11
274.287	53.59
274.503	6.49
274.719	84.31
274.934	26.96
275.15	26.96
275.366	115.03
275.581	43.35
275.797	55.64
276.012	33.11
276.228	39.25
276.444	78.16
276.659	16.73
276.875	49.49
277.09	8.53
277.306	-22.19
277.521	106.84
277.737	88.4
277.952	94.55
278.168	104.79
278.383	65.88
278.599	16.73
278.814	35.16
279.03	31.06
279.245	108.88
279.461	76.12
279.676	115.03
279.892	57.68
280.107	65.88
280.322	6.49
280.538	24.92
280.753	104.79
280.969	53.59
281.184	53.59
281.399	-5.8
281.615	53.59
281.83	10.58
282.045	43.35
282.26	31.06
282.476	49.49
282.691	139.6
282.906	-3.75
283.122	37.2
283.337	-1.71
283.552	18.77
283.767	72.02
283.983	94.55
284.198	37.2
284.413	47.44
284.628	88.4
284.843	-7.85
285.058	61.78
285.274	35.16
285.489	61.78
285.704	14.68
285.919	100.69
286.134	20.82
286.349	119.12
286.564	4.44
286.779	41.3
286.995	14.68
287.21	72.02
287.425	102.74
287.64	37.2
287.855	53.59
288.07	45.4
288.285	33.11
288.5	0.34
288.715	94.55
288.93	24.92
289.145	59.73
289.36	61.78
289.575	47.44
289.79	-3.75
290.004	-13.99
290.219	82.26
290.434	-13.99
290.649	-34.47
290.864	8.53
291.079	41.3
291.294	20.82
291.509	84.31
291.724	26.96
291.938	14.68
292.153	90.45
292.368	31.06
292.583	67.92
292.798	100.69
293.012	-5.8
293.227	10.58
293.442	121.17
293.657	18.77
293.871	72.02
294.086	43.35
294.301	59.73
294.516	51.54
294.73	31.06
294.945	-7.85
295.16	33.11
295.374	45.4
295.589	121.17
295.804	112.98
296.018	35.16
296.233	82.26
296.447	-9.9
296.662	86.36
296.877	106.84
297.091	37.2
297.306	57.68
297.52	55.64
297.735	72.02
297.949	8.53
298.164	20.82
298.378	14.68
298.593	10.58
298.807	86.36
299.022	-28.33
299.236	61.78
299.451	39.25
299.665	92.5
299.88	12.63
300.094	110.93
300.309	8.53
300.523	24.92
300.737	102.74
300.952	72.02
301.166	2.39
301.381	47.44
301.595	35.16
301.809	-16.04
302.024	43.35
302.238	35.16
302.452	80.21
302.667	82.26
302.881	129.36
303.095	0.34
303.309	22.87
303.524	115.03
303.738	65.88
303.952	8.53
304.166	41.3
304.381	51.54
304.595	45.4
304.809	33.11
305.023	57.68
305.237	74.07
305.452	115.03
305.666	53.59
305.88	-1.71
306.094	69.97
306.308	47.44
306.522	20.82
306.736	96.6
306.95	41.3
307.164	26.96
307.379	37.2
307.593	10.58
307.807	55.64
308.021	92.5
308.235	78.16
308.449	63.83
308.663	26.96
308.877	129.36
309.091	78.16
309.305	125.27
309.519	-63.15
309.733	49.49
309.947	29.01
310.161	41.3
310.374	-26.28
310.588	86.36
310.802	139.6
311.016	65.88
311.23	-1.71
311.444	4.44
311.658	-26.28
311.872	74.07
312.085	90.45
312.299	102.74
312.513	43.35
312.727	115.03
312.941	65.88
313.154	106.84
313.368	131.41
313.582	24.92
313.796	20.82
314.009	47.44
314.223	90.45
314.437	35.16
314.651	74.07
314.864	26.96
315.078	65.88
315.292	61.78
315.505	33.11
315.719	74.07
315.933	29.01
316.146	121.17
316.36	22.87
316.573	86.36
316.787	39.25
317.001	37.2
317.214	69.97
317.428	20.82
317.641	39.25
317.855	129.36
318.068	2.39
318.282	137.56
318.495	55.64
318.709	22.87
318.922	90.45
319.136	80.21
319.349	69.97
319.563	80.21
319.776	33.11
319.99	80.21
320.203	22.87
320.417	12.63
320.63	115.03
320.843	53.59
321.057	53.59
321.27	35.16
321.483	65.88
321.697	78.16
321.91	65.88
322.124	82.26
322.337	24.92
322.55	39.25
322.763	112.98
322.977	49.49
323.19	-18.09
323.403	65.88
323.617	96.6
323.83	82.26
324.043	-48.81
324.256	123.22
324.469	55.64
324.683	65.88
324.896	59.73
325.109	29.01
325.322	57.68
325.535	-1.71
325.748	84.31
325.962	96.6
326.175	76.12
326.388	39.25
326.601	88.4
326.814	90.45
327.027	86.36
327.24	53.59
327.453	43.35
327.666	61.78
327.879	43.35
328.092	119.12
328.305	65.88
328.518	51.54
328.731	63.83
328.944	90.45
329.157	78.16
329.37	22.87
329.583	0.34
329.796	78.16
330.009	63.83
330.222	51.54
330.435	49.49
330.648	78.16
330.861	80.21
331.073	47.44
331.286	121.17
331.499	37.2
331.712	24.92
331.925	96.6
332.138	108.88
332.35	63.83
332.563	47.44
332.776	39.25
332.989	61.78
333.202	123.22
333.414	39.25
333.627	110.93
333.84	67.92
334.053	119.12
334.265	0.34
334.478	61.78
334.691	26.96
334.903	164.18
335.116	35.16
335.329	90.45
335.541	65.88
335.754	90.45
335.966	22.87
336.179	121.17
336.392	82.26
336.604	43.35
336.817	98.64
337.029	-7.85
337.242	35.16
337.454	76.12
337.667	100.69
337.88	47.44
338.092	65.88
338.305	6.49
338.517	110.93
338.729	49.49
338.942	74.07
339.154	88.4
339.367	47.44
339.579	67.92
339.792	82.26
340.004	-11.95
340.217	65.88
340.429	51.54
340.641	84.31
340.854	82.26
341.066	88.4
341.278	24.92
341.491	14.68
341.703	94.55
341.915	-7.85
342.128	61.78
342.34	18.77
342.552	65.88
342.764	74.07
342.977	82.26
343.189	108.88
343.401	112.98
343.613	63.83
343.826	92.5
344.038	51.54
344.25	90.45
344.462	65.88
344.674	53.59
344.886	112.98
345.099	125.27
345.311	-22.19
345.523	72.02
345.735	43.35
345.947	74.07
346.159	94.55
346.371	43.35
346.583	112.98
346.795	51.54
347.007	102.74
347.219	82.26
347.431	29.01
347.643	90.45
347.855	78.16
348.067	-7.85
348.279	121.17
348.491	86.36
348.703	53.59
348.915	108.88
349.127	24.92
349.339	82.26
349.551	41.3
349.763	33.11
349.975	29.01
350.187	31.06
350.399	90.45
350.61	84.31
350.822	51.54
351.034	18.77
351.246	67.92
351.458	14.68
351.669	29.01
351.881	188.75
352.093	84.31
352.305	18.77
352.517	12.63
352.728	55.64
352.94	69.97
353.152	84.31
353.363	86.36
353.575	98.64
353.787	104.79
353.999	31.06
354.21	43.35
354.422	63.83
354.633	100.69
354.845	63.83
355.057	47.44
355.268	22.87
355.48	119.12
355.692	63.83
355.903	63.83
356.115	59.73
356.326	35.16
356.538	106.84
356.749	63.83
356.961	117.08
357.172	112.98
357.384	47.44
357.595	84.31
357.807	24.92
358.018	72.02
358.23	6.49
358.441	112.98
358.653	108.88
358.864	129.36
359.075	29.01
359.287	135.51
359.498	65.88
359.709	51.54
359.921	112.98
360.132	65.88
360.344	106.84
360.555	100.69
360.766	-42.67
360.977	72.02
361.189	84.31
361.4	49.49
361.611	45.4
361.823	106.84
362.034	41.3
362.245	47.44
362.456	65.88
362.667	43.35
362.879	100.69
363.09	74.07
363.301	67.92
363.512	-18.09
363.723	18.77
363.935	26.96
364.146	86.36
364.357	49.49
364.568	90.45
364.779	26.96
364.99	55.64
365.201	69.97
365.412	96.6
365.623	35.16
365.834	65.88
366.045	-16.04
366.256	39.25
366.467	90.45
366.678	74.07
366.889	41.3
367.1	137.56
367.311	86.36
367.522	53.59
367.733	98.64
367.944	53.59
368.155	90.45
368.366	74.07
368.577	117.08
368.788	63.83
368.999	45.4
369.209	8.53
369.42	125.27
369.631	90.45
369.842	100.69
370.053	139.6
370.264	108.88
370.474	65.88
370.685	92.5
370.896	51.54
371.107	96.6
371.317	12.63
371.528	82.26
371.739	65.88
371.95	61.78
372.16	119.12
372.371	67.92
372.582	96.6
372.792	82.26
373.003	6.49
373.214	80.21
373.424	74.07
373.635	86.36
373.846	80.21
374.056	115.03
374.267	84.31
374.477	43.35
374.688	112.98
374.898	-1.71
375.109	41.3
375.319	143.7
375.53	96.6
375.74	24.92
375.951	69.97
376.161	55.64
376.372	76.12
376.582	16.73
376.793	84.31
377.003	106.84
377.214	72.02
377.424	6.49
377.635	43.35
377.845	14.68
378.055	55.64
378.266	61.78
378.476	119.12
378.686	137.56
378.897	115.03
379.107	16.73
379.317	33.11
379.528	90.45
379.738	123.22
379.948	67.92
380.158	74.07
380.369	35.16
380.579	67.92
380.789	8.53
380.999	41.3
381.21	69.97
381.42	14.68
381.63	162.13
381.84	57.68
382.05	55.64
382.261	131.41
382.471	2.39
382.681	43.35
382.891	92.5
383.101	53.59
383.311	110.93
383.521	67.92
383.731	112.98
383.941	59.73
384.151	57.68
384.361	119.12
384.571	90.45
384.781	96.6
384.991	131.41
385.201	78.16
385.411	119.12
385.621	117.08
385.831	100.69
386.041	80.21
386.251	37.2
386.461	145.75
386.671	37.2
386.881	4.44
387.091	39.25
387.301	49.49
387.511	90.45
387.72	63.83
387.93	135.51
388.14	57.68
388.35	88.4
388.56	49.49
388.769	123.22
388.979	96.6
389.189	41.3
389.399	186.71
389.609	119.12
389.818	100.69
390.028	59.73
390.238	98.64
390.447	90.45
390.657	117.08
390.867	74.07
391.076	72.02
391.286	92.5
391.496	170.32
391.705	102.74
391.915	98.64
392.125	100.69
392.334	149.84
392.544	98.64
392.753	102.74
392.963	131.41
393.172	119.12
393.382	151.89
393.591	137.56
393.801	47.44
394.01	141.65
394.22	110.93
394.429	110.93
394.639	76.12
394.848	139.6
395.058	84.31
395.267	112.98
395.477	112.98
395.686	143.7
395.895	117.08
396.105	80.21
396.314	31.06
396.524	90.45
396.733	110.93
396.942	112.98
397.152	158.03
397.361	133.46
397.57	102.74
397.78	84.31
397.989	100.69
398.198	151.89
398.407	121.17
398.617	147.8
398.826	88.4
399.035	78.16
399.244	104.79
399.453	151.89
399.663	47.44
399.872	131.41
400.081	125.27
400.29	80.21
400.499	123.22
400.708	59.73
400.917	198.99
401.127	141.65
401.336	92.5
401.545	160.08
401.754	147.8
401.963	86.36
402.172	188.75
402.381	63.83
402.59	162.13
402.799	117.08
403.008	88.4
403.217	131.41
403.426	160.08
403.635	133.46
403.844	147.8
404.053	162.13
404.262	151.89
404.471	231.76
404.68	190.8
404.888	168.27
405.097	184.66
405.306	184.66
405.515	225.62
405.724	213.33
405.933	147.8
406.142	219.47
406.35	176.47
406.559	297.3
406.768	184.66
406.977	194.9
407.185	196.95
407.394	258.39
407.603	196.95
407.812	186.71
408.02	338.26
408.229	254.29
408.438	194.9
408.646	313.68
408.855	266.58
409.064	325.97
409.272	231.76
409.481	307.54
409.69	287.06
409.898	268.63
410.107	323.92
410.315	354.64
410.524	309.58
410.733	409.94
410.941	373.07
411.15	334.16
411.358	399.7
411.567	448.85
411.775	397.65
411.984	420.17
412.192	446.8
412.401	516.43
412.609	485.71
412.818	512.33
413.026	528.72
413.234	491.85
413.443	522.57
413.651	557.39
413.86	600.4
414.068	635.21
414.276	657.74
414.485	614.73
414.693	700.75
414.901	725.32
415.11	704.84
415.318	680.27
415.526	792.91
415.734	811.34
415.943	844.1
416.151	923.98
416.359	797
416.567	928.07
416.776	901.45
416.984	913.74
417.192	1018.18
417.4	1005.89
417.608	1081.67
417.817	1081.67
418.025	1050.95
418.233	1151.3
418.441	1157.44
418.649	1306.95
418.857	1323.33
419.065	1370.43
419.273	1354.05
419.481	1427.78
419.689	1487.17
419.897	1470.78
420.105	1505.6
420.313	1581.37
420.521	1630.52
420.729	1577.28
420.937	1849.66
421.145	1796.41
421.353	1882.42
421.561	1970.49
421.769	2187.57
421.977	2083.13
422.185	2036.02
422.393	2259.25
422.601	2296.11
422.809	2279.73
423.017	2228.53
423.224	2380.08
423.432	2414.9
423.64	2447.66
423.848	2836.78
424.056	2734.38
424.263	2957.61
424.471	2877.74
424.679	3094.82
424.887	3172.64
425.094	3217.7
425.302	3119.4
425.51	3281.19
425.718	3430.69
425.925	3404.07
426.133	3563.81
426.341	3782.94
426.548	4081.94
426.756	3995.93
426.964	4014.36
427.171	4178.2
427.379	4413.71
427.586	4438.29
427.794	4618.51
428.001	4696.33
428.209	5118.22
428.417	4931.85
428.624	5351.68
428.832	5427.46
429.039	5177.61
429.247	5255.43
429.454	5703.93
429.662	6154.49
429.869	5718.27
430.076	6004.99
430.284	5898.49
430.491	6258.93
430.699	6459.63
430.906	6310.13
431.114	6797.55
431.321	6641.9
431.528	6973.67
431.736	7387.36
431.943	7657.7
432.15	7430.37
432.358	7633.12
432.565	8071.39
432.772	8198.36
432.979	8446.16
433.187	8614.1
433.394	8573.14
433.601	9167.05
433.808	9191.63
434.016	9146.57
434.223	9621.7
434.43	10121.4
434.637	9840.83
434.844	10475.7
435.052	10811.57
435.259	10660.02
435.466	10795.18
435.673	10762.42
435.88	11432.1
436.087	12107.93
436.294	11901.09
436.501	11671.72
436.708	12083.36
436.915	12316.83
437.122	13072.53
437.329	13041.81
437.537	13269.13
437.743	13746.31
437.95	13430.92
438.157	14129.28
438.364	14497.91
438.571	14596.21
438.778	14657.65
438.985	15908.96
439.192	15161.45
439.399	15835.24
439.606	15562.86
439.813	16361.56
440.02	17537.1
440.227	16978
440.433	16584.79
440.64	17369.16
440.847	17297.49
441.054	17625.16
441.261	18806.84
441.467	18870.33
441.674	19177.52
441.881	19734.57
442.088	19769.38
442.294	19441.71
442.501	19841.06
442.708	20195.36
442.914	21063.7
443.121	21915.65
443.328	21401.61
443.534	22970.36
443.741	22388.74
443.948	21823.5
444.154	23558.13
444.361	23246.83
444.568	23724.01
444.774	23726.06
444.981	23982.06
445.187	24704.99
445.394	25978.82
445.6	25333.71
445.807	27776.94
446.013	26558.4
446.22	26957.75
446.426	28190.63
446.633	28370.85
446.839	29530
447.046	27881.39
447.252	29853.58
447.459	29781.9
447.665	29538.19
447.871	30828.41
448.078	31860.59
448.284	30246.79
448.491	31299.45
448.697	32382.82
448.903	33052.51
449.11	33478.49
449.316	32741.22
449.522	33271.64
449.728	33961.81
449.935	34293.58
450.141	34537.29
450.347	35067.71
450.553	33990.48
450.76	34572.1
450.966	35909.43
451.172	35309.37
451.378	35917.62
451.584	35495.74
451.791	35895.09
451.997	36218.67
452.203	36831.01
452.409	36394.79
452.615	36650.79
452.821	35325.75
453.027	34785.09
453.233	36368.17
453.44	35084.09
453.646	35491.64
453.852	35411.77
454.058	35936.05
454.264	34897.73
454.47	35782.45
454.676	34537.29
454.882	36003.63
455.088	33304.41
455.294	33687.38
455.5	33824.59
455.705	34441.03
455.911	32972.64
456.117	32286.57
456.323	31797.1
456.529	30154.63
456.735	31397.75
456.941	30717.82
457.147	30089.1
457.352	29161.37
457.558	29044.63
457.764	29144.98
457.97	28604.32
458.176	27942.83
458.381	27830.19
458.587	26451.91
458.793	26752.96
458.999	25309.14
459.204	27068.34
459.41	26081.22
459.616	24285.15
459.821	24426.46
460.027	24369.12
460.233	23930.86
460.438	22677.5
460.644	23060.47
460.85	21903.37
461.055	21655.56
461.261	21491.73
461.466	19961.89
461.672	19318.83
461.878	20789.27
462.083	19398.7
462.289	19066.93
462.494	18841.65
462.7	18038.85
462.905	17870.92
463.111	18094.15
463.316	18225.22
463.522	17881.16
463.727	17739.85
463.932	17610.82
464.138	17516.62
464.343	17612.87
464.549	17236.05
464.754	17817.67
464.959	17625.16
465.165	17223.76
465.37	16898.13
465.575	16132.19
465.781	16980.05
465.986	17049.68
466.191	16308.32
466.397	16199.77
466.602	15650.92
466.807	15921.25
467.012	15839.33
467.218	15790.18
467.423	15657.06
467.628	15695.97
467.833	16244.83
468.038	15781.99
468.244	15304.81
468.449	15831.14
468.654	15429.74
468.859	15251.56
469.064	15335.53
469.269	14528.63
469.474	14549.11
469.679	14973.04
469.885	14731.38
470.09	14946.42
470.295	14604.41
470.5	14170.24
470.705	14491.77
470.91	14059.65
471.115	14024.83
471.32	14270.59
471.525	14024.83
471.73	13676.68
471.935	13727.88
472.139	13133.96
472.344	13160.59
472.549	13349
472.754	13045.9
472.959	12740.75
473.164	12527.77
473.369	12664.98
473.574	12988.56
473.778	12540.05
473.983	12445.85
474.188	12257.43
474.393	11978.91
474.598	11858.08
474.802	11983.01
475.007	11712.67
475.212	11835.55
475.417	11647.14
475.621	11591.84
475.826	11450.53
476.031	11305.13
476.235	11137.2
476.44	11010.22
476.645	10881.2
476.849	11079.85
477.054	10776.75
477.259	10807.47
477.463	10809.52
477.668	10389.69
477.872	10459.32
478.077	10264.76
478.282	10076.35
478.486	10043.58
478.691	9953.47
478.895	10014.91
479.1	9822.4
479.304	9664.71
479.509	9662.66
479.713	9513.16
479.918	9640.13
480.122	9545.92
480.326	9468.1
480.531	9640.13
480.735	9523.4
480.94	9099.47
481.144	9703.62
481.348	9289.93
481.553	9324.74
481.757	9128.14
481.961	9226.44
482.166	9371.85
482.37	9201.86
482.574	8954.06
482.778	9228.49
482.983	9302.22
483.187	9054.41
483.391	9201.86
483.595	9046.22
483.8	8917.2
484.004	9160.91
484.208	9177.29
484.412	8976.59
484.616	9216.2
484.821	9220.3
485.025	8960.2
485.229	9144.52
485.433	9140.43
485.637	9072.84
485.841	8986.83
486.045	9113.8
486.249	9068.75
486.453	9115.85
486.657	9314.5
486.861	9339.08
487.065	8831.18
487.269	8982.73
487.473	8933.58
487.677	9001.16
487.881	9185.48
488.085	9091.27
488.289	9255.11
488.493	8990.92
488.697	9242.82
488.901	9306.31
489.105	9169.1
489.309	9015.5
489.512	9191.63
489.716	9253.06
489.92	9193.67
490.124	9255.11
490.328	9412.81
490.531	9226.44
490.735	9314.5
490.939	9363.65
491.143	9265.35
491.346	9390.28
491.55	9550.02
491.754	9308.36
491.958	9437.38
492.161	9652.42
492.365	9605.31
492.569	9556.16
492.772	9765.06
492.976	9668.8
493.18	9801.92
493.383	9894.08
493.587	9959.61
493.79	10127.55
493.994	9994.43
494.197	9836.74
494.401	10197.18
494.605	10117.31
494.808	10375.35
495.012	10254.52
495.215	10334.39
495.419	10401.97
495.622	10520.76
495.825	10490.04
496.029	10645.68
496.232	10879.15
496.436	10815.66
496.639	10971.31
496.843	11079.85
497.046	10907.82
497.249	11319.46
497.453	11417.77
497.656	11407.53
497.859	11520.17
498.063	11604.13
498.266	12071.07
498.469	11677.86
498.673	12116.12
498.876	12245.15
499.079	12329.11
499.282	12134.56
499.485	12609.68
499.689	12683.41
499.892	12822.67
500.095	12646.55
500.298	13146.25
500.501	13209.74
500.705	13490.31
500.908	13535.37
501.111	13914.24
501.314	13875.33
501.517	13967.49
501.72	14223.48
501.923	14000.26
502.126	14454.9
502.329	14784.63
502.532	14768.24
502.735	14731.38
502.938	15122.54
503.141	15165.55
503.344	15548.52
503.547	15407.21
503.75	15585.38
503.953	15888.48
504.156	16218.21
504.359	16359.52
504.562	16429.15
504.765	16664.66
504.968	16939.09
505.17	17088.59
505.373	17131.6
505.576	17559.63
505.779	17651.78
505.982	17754.18
506.185	18151.49
506.387	18108.48
506.59	18579.51
506.793	18794.55
506.996	18706.49
507.198	19148.85
507.401	19200.05
507.604	19351.6
507.807	19832.87
508.009	20236.32
508.212	20295.71
508.415	20377.63
508.617	20508.7
508.82	20664.35
509.022	20742.17
509.225	20965.4
509.428	21395.47
509.63	21747.72
509.833	21485.58
510.035	22548.48
510.238	22167.56
510.44	22599.68
510.643	22865.91
510.845	22919.16
511.048	22765.56
511.25	23617.52
511.453	23537.65
511.655	24539.1
511.858	24543.2
512.06	24262.63
512.262	24528.86
512.465	24840.15
512.667	25350.1
512.87	25475.02
513.072	25247.7
513.274	25851.85
513.477	26474.43
513.679	26695.61
513.881	26820.54
514.084	27006.91
514.286	27137.98
514.488	27410.36
514.69	28338.08
514.893	28258.21
515.095	28354.47
515.297	28817.31
515.499	29101.98
515.701	29849.49
515.904	29579.15
516.106	30242.7
516.308	30535.56
516.51	30498.69
516.712	30535.56
516.914	30982.01
517.116	31760.24
517.318	31537.01
517.52	31782.77
517.722	31881.07
517.925	32542.56
518.127	32816.99
518.329	33070.94
518.531	32978.78
518.733	33812.31
518.935	34021.2
519.136	33687.38
519.338	34535.24
519.54	34864.96
519.742	34885.44
519.944	34975.55
520.146	35682.1
520.348	35895.09
520.55	36476.71
520.752	36462.38
520.954	36962.08
521.155	37029.66
521.357	37140.25
521.559	37740.31
521.761	38315.79
521.963	38070.03
522.164	38291.21
522.366	38233.87
522.568	38752.01
522.77	39395.07
522.971	39816.95
523.173	39698.17
523.375	39995.12
523.576	40029.94
523.778	40326.89
523.98	40652.52
524.181	41029.35
524.383	41193.18
524.584	41475.8
524.786	41428.7
524.988	41361.12
525.189	42059.48
525.391	42258.13
525.592	42151.63
525.794	42585.8
525.995	42430.16
526.197	43062.98
526.398	42876.62
526.6	43284.16
526.801	43249.35
527.003	43712.19
527.204	44019.38
527.406	44250.8
527.607	43916.98
527.808	44320.43
528.01	43476.67
528.211	44029.62
528.412	45004.45
528.614	44787.37
528.815	44576.43
529.016	45149.86
529.218	45123.24
529.419	45223.59
529.62	45526.69
529.822	45364.9
530.023	45481.63
530.224	45457.06
530.425	45651.61
530.626	45299.36
530.828	45633.18
531.029	46382.74
531.23	46044.82
531.431	45897.37
531.632	46073.49
531.833	46069.4
532.035	46149.27
532.236	46071.45
532.437	46440.08
532.638	46053.01
532.839	46868.11
533.04	46532.24
533.241	46100.12
533.442	47279.75
533.643	46990.98
533.844	46454.42
534.045	46868.11
534.246	46020.25
534.447	47015.56
534.648	46710.41
534.849	46921.35
535.05	46380.69
535.251	46558.86
535.451	46823.05
535.652	46665.36
535.853	46837.39
536.054	47085.19
536.255	47085.19
536.456	46423.7
536.657	47642.24
536.857	46444.18
537.058	46321.3
537.259	47136.39
537.46	46902.92
537.66	46837.39
537.861	47189.64
538.062	47038.09
538.263	46743.18
538.463	46886.54
538.664	46728.84
538.865	47249.03
539.065	47046.28
539.266	47089.29
539.466	47642.24
539.667	46605.97
539.868	47249.03
540.068	47015.56
540.269	46632.59
540.469	47064.71
540.67	46392.98
540.87	46628.49
541.071	46671.5
541.271	46806.67
541.472	47007.37
541.672	46487.18
541.873	46638.73
542.073	46333.59
542.274	47218.31
542.474	46814.86
542.675	46470.8
542.875	47103.62
543.075	46921.35
543.276	46489.23
543.476	46956.17
543.676	46790.28
543.877	47068.81
544.077	47031.94
544.277	46847.63
544.478	46812.81
544.678	46859.91
544.878	46835.34
545.078	46661.26
545.279	46569.1
545.479	46786.19
545.679	46761.61
545.879	46433.94
546.079	46915.21
546.28	46904.97
546.48	46114.45
546.68	47029.9
546.88	46814.86
547.08	46683.79
547.28	46638.73
547.48	46550.67
547.68	46661.26
547.88	46263.96
548.081	47003.27
548.281	46558.86
548.481	46331.54
548.681	46780.04
548.881	46808.72
549.081	46427.79
549.28	46249.62
549.48	46917.26
549.68	46259.86
549.88	46601.87
550.08	46296.72
550.28	46810.76
550.48	46380.69
550.68	46431.89
550.88	46159.51
551.08	46507.66
551.279	46352.02
551.479	46266
551.679	46577.29
551.879	46163.6
552.079	46462.61
552.278	46161.56
552.478	45840.03
552.678	46472.85
552.878	46288.53
553.077	46149.27
553.277	45745.82
553.477	46407.31
553.676	45579.93
553.876	46223
554.076	46003.86
554.275	45739.68
554.475	45553.31
554.674	45977.24
554.874	46182.04
555.074	45788.83
555.273	46128.79
555.473	46042.77
555.672	45565.6
555.872	46014.1
556.071	45639.32
556.271	46028.44
556.47	45723.29
556.67	45342.37
556.869	45184.68
557.068	45547.17
557.268	45264.55
557.467	45514.4
557.667	45426.34
557.866	45342.37
558.065	45475.49
558.265	45049.51
558.464	44553.9
558.663	45571.74
558.863	44582.57
559.062	44873.38
559.261	44373.68
559.461	44986.02
559.66	44641.96
559.859	44641.96
560.058	44770.99
560.258	44865.19
560.457	44433.07
560.656	44979.88
560.855	44283.57
561.054	44385.97
561.253	44105.4
561.453	44127.92
561.652	44267.19
561.851	44164.79
562.05	44121.78
562.249	43677.37
562.448	43980.47
562.647	44162.74
562.846	43515.58
563.045	43783.87
563.244	43374.27
563.443	44187.32
563.642	43339.46
563.841	43437.76
564.04	43585.21
564.239	43491.01
564.438	43581.12
564.637	43898.55
564.836	43540.16
565.035	42649.29
565.234	43165.38
565.432	42796.74
565.631	43083.46
565.83	42655.43
566.029	42829.51
566.228	42622.67
566.427	42276.56
566.625	42747.59
566.824	41993.94
567.023	42538.7
567.222	41912.02
567.42	42323.66
567.619	42172.11
567.818	42196.69
568.016	41615.07
568.215	42413.77
568.414	41871.06
568.612	42305.23
568.811	41250.53
569.01	41662.17
569.208	41234.14
569.407	41543.39
569.605	40900.33
569.804	41389.79
570.002	40855.27
570.201	41244.38
570.4	40343.28
570.598	40773.35
570.797	40652.52
570.995	40546.03
571.193	40310.51
571.392	41082.59
571.59	40230.64
571.789	40505.07
571.987	40447.72
572.186	39876.34
572.384	39909.11
572.582	40148.72
572.781	40066.8
572.979	39143.17
573.177	39366.4
573.376	39737.08
573.574	38993.67
573.772	39395.07
573.971	39309.05
574.169	38758.15
574.367	38747.91
574.565	39065.35
574.763	38670.09
574.962	38516.49
575.16	38156.05
575.358	38844.16
575.556	37981.97
575.754	38479.63
575.952	38147.86
576.151	38453
576.349	37644.05
576.547	37928.72
576.745	37842.71
576.943	37658.39
577.141	37713.69
577.339	37680.92
577.537	37465.88
577.735	37287.71
577.933	37168.93
578.131	37459.74
578.329	36857.63
578.527	36484.9
578.725	37078.82
578.923	36980.51
579.121	36656.93
579.319	36341.55
579.516	36720.42
579.714	36124.46
579.912	35831.6
580.11	36267.82
580.308	36423.47
580.506	35718.96
580.704	35561.27
580.901	36126.51
581.099	36050.74
581.297	35735.35
581.495	35450.68
581.692	35489.59
581.89	35102.53
582.088	35514.17
582.285	34899.78
582.483	35520.31
582.681	34987.84
582.878	34490.18
583.076	34643.78
583.274	34787.14
583.471	34355.02
583.669	34549.57
583.866	34266.95
584.064	34506.57
584.262	34053.97
584.459	34422.6
584.657	33771.35
584.854	34033.49
585.052	33640.28
585.249	33539.93
585.447	33824.59
585.644	33083.23
585.841	33458.01
586.039	33685.33
586.236	32839.52
586.434	33179.48
586.631	32868.19
586.828	33533.78
587.026	32929.63
587.223	32759.65
587.42	32642.92
587.618	32681.83
587.815	32497.51
588.012	32395.11
588.21	32120.68
588.407	32692.07
588.604	32083.82
588.801	32139.11
588.999	32096.11
589.196	31842.16
589.393	31661.94
589.59	32046.96
589.787	31397.75
589.984	31358.84
590.182	31393.65
590.379	31737.71
590.576	31242.1
590.773	30922.62
590.97	30826.37
591.167	31051.64
591.364	30693.25
591.561	30953.34
591.758	30865.28
591.955	30545.8
592.152	30787.46
592.349	30365.57
592.546	30883.71
592.743	30558.08
592.94	29691.79
593.137	30291.85
593.334	30508.93
593.531	29904.78
593.727	30007.18
593.924	29898.64
594.121	29683.6
594.318	29648.78
594.515	29319.06
594.712	29783.95
594.908	29540.24
595.105	29437.84
595.302	29259.67
595.499	29276.05
595.696	29144.98
595.892	28880.8
596.089	29022.11
596.286	29136.79
596.482	28647.33
596.679	28442.53
596.876	28866.46
597.072	28567.46
597.269	28491.68
597.466	27934.64
597.662	28127.14
597.859	28053.42
598.055	28053.42
598.252	27885.48
598.448	28164.01
598.645	27637.68
598.841	27697.07
599.038	27740.08
599.234	27611.06
599.431	27477.94
599.627	27469.75
599.824	27305.91
600.02	27262.9
600.217	27080.63
600.413	26929.08
600.609	26625.98
600.806	26888.12
601.002	26849.21
601.198	26707.9
601.395	26449.86
601.591	26695.61
601.787	26617.79
601.984	26036.17
602.18	26365.89
602.376	26226.63
602.572	26243.01
602.769	26050.5
602.965	25845.71
603.161	25907.15
603.357	25886.67
603.553	25905.1
603.75	25792.46
603.946	25569.23
604.142	26015.69
604.338	25079.77
604.534	25153.49
604.73	24983.51
604.926	25278.42
605.122	25047
605.318	25196.5
605.514	24799.19
605.71	24731.61
605.906	24616.93
606.102	24610.78
606.298	24592.35
606.494	24600.54
606.69	24311.78
606.886	24344.55
607.082	24305.63
607.278	24272.87
607.474	24027.11
607.67	24383.46
607.866	23826.41
608.062	23937
608.257	23965.67
608.453	24004.58
608.649	23902.18
608.845	23666.67
609.041	23498.73
609.236	23449.58
609.432	23386.1
609.628	23455.73
609.824	23191.54
610.019	23410.67
610.215	23207.92
610.411	23236.59
610.606	23097.33
610.802	23070.71
610.998	23218.16
611.193	23152.63
611.389	22984.69
611.584	22808.57
611.78	22898.68
611.976	22620.16
612.171	22575.1
612.367	22757.37
612.562	22452.22
612.758	22294.53
612.953	22702.07
613.149	22564.86
613.344	22417.41
613.539	22634.49
613.735	22269.95
613.93	22380.54
614.126	21909.51
614.321	22059.01
614.517	21829.64
614.712	21800.97
614.907	21706.76
615.103	21932.04
615.298	21717
615.493	21639.18
615.688	21751.82
615.884	22018.05
616.079	21336.08
616.274	21708.81
616.47	21669.9
616.665	21377.04
616.86	21315.6
617.055	21352.46
617.25	21168.15
617.445	21356.56
617.641	20703.26
617.836	21245.97
618.031	20729.88
618.226	21250.07
618.421	20570.14
618.616	20944.92
618.811	20449.31
619.006	20824.09
619.201	20461.6
619.396	20463.65
619.591	20045.86
619.786	20447.26
619.981	20164.64
620.176	20178.98
620.371	20047.91
620.566	19793.96
620.761	19585.07
620.956	20000.8
621.151	19664.94
621.346	19781.67
621.541	19337.26
621.735	19599.4
621.93	19163.18
622.125	19261.49
622.32	18790.45
622.515	19114.03
622.709	18982.96
622.904	19081.27
623.099	18858.04
623.294	18688.06
623.488	18376.76
623.683	18737.21
623.878	18423.87
624.072	18423.87
624.267	18124.86
624.462	18079.81
624.656	18157.63
624.851	17918.02
625.046	17829.96
625.24	17848.39
625.435	17662.02
625.629	17344.59
625.824	17436.75
626.018	17455.18
626.213	16701.53
626.407	17236.05
626.602	16932.95
626.796	17006.67
626.991	16994.39
627.185	16922.71
627.38	16533.59
627.574	16623.7
627.768	16400.48
627.963	16240.73
628.157	16228.45
628.352	16439.39
628.546	15882.34
628.74	16119.9
628.935	15933.54
629.129	16060.51
629.323	15579.24
629.517	15566.95
629.712	15689.83
629.906	15800.42
630.1	15476.84
630.294	15327.34
630.489	15108.21
630.683	15495.27
630.877	14983.28
631.071	15024.24
631.265	15014
631.459	15124.59
631.653	14815.35
631.848	15018.1
632.042	14588.02
632.236	14565.5
632.43	14446.71
632.624	14618.74
632.818	14489.72
633.012	14188.67
633.206	14233.72
633.4	14516.34
633.594	14223.48
633.788	14143.61
633.982	14082.17
634.176	14076.03
634.369	13799.55
634.563	13750.4
634.757	13781.12
634.951	13783.17
635.145	13529.22
635.339	13535.37
635.533	13486.22
635.726	13637.77
635.92	13291.66
636.114	13193.36
636.308	13179.02
636.501	13207.69
636.695	13191.31
636.889	12871.82
637.083	12963.98
637.276	12638.36
637.47	12603.54
637.664	12710.04
637.857	12683.41
638.051	12511.38
638.244	12435.61
638.438	12361.88
638.632	12337.31
638.825	12255.39
639.019	12288.15
639.212	12204.19
639.406	12159.13
639.599	12069.02
639.793	12155.04
639.986	11919.52
640.18	11862.18
640.373	11583.65
640.567	11626.66
640.76	11518.12
640.954	11538.6
641.147	11434.15
641.34	11262.12
641.534	11421.86
641.727	11403.43
641.92	11335.85
642.114	11065.52
642.307	11153.58
642.5	11159.72
642.694	11053.23
642.887	10959.02
643.08	11147.44
643.273	10905.77
643.467	10881.2
643.66	10637.49
643.853	10793.14
644.046	10410.17
644.239	10555.57
644.432	10399.93
644.626	10383.54
644.819	10303.67
645.012	10229.95
645.205	10217.66
645.398	10240.19
645.591	10002.62
645.784	10180.79
645.977	9803.97
646.17	9894.08
646.363	9566.4
646.556	9865.41
646.749	9849.02
646.942	9918.65
647.135	9562.31
647.328	9605.31
647.521	9392.33
647.714	9316.55
647.907	9539.78
648.099	9535.68
648.292	9265.35
648.485	9304.26
648.678	9119.95
648.871	9144.52
649.064	9046.22
649.256	9203.91
649.449	9154.76
649.642	9089.23
649.835	8911.05
650.027	8773.84
650.22	8691.92
650.413	8796.37
650.605	8730.83
650.798	8693.97
650.991	8550.61
651.183	8573.14
651.376	8364.25
651.568	8536.28
651.761	8292.57
651.954	8280.28
652.146	8429.78
652.339	8208.6
652.531	8145.11
652.724	8098.01
652.916	7973.08
653.109	8065.24
653.301	8079.58
653.494	7913.69
653.686	7790.81
653.879	8048.86
654.071	7936.22
654.263	7688.42
654.456	7663.84
654.648	7762.14
654.84	7565.54
655.033	7504.1
655.225	7641.31
655.417	7723.23
655.61	7696.61
655.802	7401.7
655.994	7397.6
656.186	7352.55
656.379	7330.02
656.571	7321.83
656.763	7176.42
656.955	7141.61
657.148	7129.32
657.34	7110.89
657.532	7053.55
657.724	6799.6
657.916	7043.31
658.108	7022.83
658.3	6856.94
658.492	6791.41
658.684	6738.16
658.876	6775.02
659.068	6748.4
659.26	6390
659.452	6543.6
659.644	6562.03
659.836	6533.36
660.028	6666.48
660.22	6449.39
660.412	6451.44
660.604	6308.09
660.796	6414.58
660.988	6394.1
661.18	6355.19
661.372	6260.98
661.563	6172.92
661.755	6115.58
661.947	6273.27
662.139	6174.97
662.331	6119.67
662.522	6015.23
662.714	5871.87
662.906	6039.8
663.097	5855.48
663.289	6025.47
663.481	5835
663.673	5792
663.864	5730.56
664.056	5638.4
664.247	5796.09
664.439	5587.2
664.631	5662.97
664.822	5708.03
665.014	5634.3
665.205	5593.34
665.397	5495.04
665.588	5437.7
665.78	5509.38
665.971	5417.22
666.163	5460.23
666.354	5372.16
666.546	5409.03
666.737	5386.5
666.929	5349.64
667.12	5249.29
667.311	5325.06
667.503	5120.26
667.694	5218.57
667.885	5134.6
668.077	5081.35
668.268	4978.95
668.459	5077.26
668.651	4839.69
668.842	4907.27
669.033	4981
669.224	4968.71
669.416	4962.57
669.607	4962.57
669.798	4854.03
669.989	4813.07
670.18	4880.65
670.371	4774.16
670.563	4792.59
670.754	4712.72
670.945	4733.2
671.136	4655.37
671.327	4702.48
671.518	4821.26
671.709	4657.42
671.9	4587.79
672.091	4628.75
672.282	4626.7
672.473	4608.27
672.664	4616.46
672.855	4616.46
673.046	4387.09
673.237	4571.41
673.428	4569.36
673.619	4512.02
673.809	4397.33
674	4307.22
674.191	4469.01
674.382	4253.97
674.573	4421.91
674.764	4192.53
674.954	4391.19
675.145	4362.51
675.336	4325.65
675.527	4200.73
675.717	4192.53
675.908	4131.09
676.099	4303.12
676.289	4053.27
676.48	4151.57
676.671	4180.25
676.861	4151.57
677.052	4073.75
677.243	3985.69
677.433	3985.69
677.624	4110.61
677.814	4045.08
678.005	3907.87
678.195	4167.96
678.386	3877.15
678.576	3946.78
678.767	4038.94
678.957	3946.78
679.148	3967.26
679.338	3852.57
679.529	3844.38
679.719	3922.2
679.909	3852.57
680.1	3903.77
680.29	3844.38
680.481	3838.23
680.671	3787.04
680.861	3766.56
681.052	3901.72
681.242	3647.77
681.432	3723.55
681.622	3619.1
681.813	3817.76
682.003	3739.93
682.193	3731.74
682.383	3780.89
682.573	3721.5
682.764	3619.1
682.954	3522.85
683.144	3606.81
683.334	3784.99
683.524	3608.86
683.714	3672.35
683.904	3602.72
684.094	3543.33
684.284	3719.45
684.474	3701.02
684.664	3612.96
684.854	3582.24
685.044	3574.05
685.234	3467.55
685.424	3522.85
685.614	3492.13
685.804	3354.91
685.994	3524.9
686.184	3485.98
686.374	3406.11
686.564	3502.37
686.753	3492.13
686.943	3426.59
687.133	3393.83
687.323	3430.69
687.513	3348.77
687.702	3318.05
687.892	3434.78
688.082	3338.53
688.272	3293.48
688.461	3270.95
688.651	3338.53
688.841	3338.53
689.03	3356.96
689.22	3371.3
689.41	3375.39
689.599	3402.02
689.789	3338.53
689.979	3201.32
690.168	3201.32
690.358	3268.9
690.547	3146.02
690.737	3262.76
690.926	3250.47
691.116	3184.93
691.305	3154.21
691.495	3213.6
691.684	3295.52
691.874	3086.63
692.063	3197.22
692.252	3217.7
692.442	3182.88
692.631	3090.73
692.82	3158.31
693.01	3119.4
693.199	3037.48
693.388	3225.89
693.578	3205.41
693.767	3162.41
693.956	3127.59
694.146	3068.2
694.335	3244.32
694.524	3207.46
694.713	3141.93
694.902	3105.06
695.092	2930.98
695.281	3047.72
695.47	3123.49
695.659	3045.67
695.848	3098.92
696.037	3092.77
696.226	3148.07
696.415	3076.39
696.604	2971.94
696.793	3019.05
696.982	3021.1
697.171	3047.72
697.36	3221.8
697.549	3027.24
697.738	2910.5
697.927	3143.97
698.116	3072.29
698.305	2918.7
698.494	3017
698.683	3008.81
698.872	3129.64
699.061	3004.71
699.25	3002.66
699.438	2986.28
699.627	3047.72
699.816	3004.71
700.005	3100.97
700.193	2971.94
700.382	2939.18
700.571	2992.42
700.76	2904.36
700.948	2867.5
701.137	2912.55
701.326	2857.26
701.514	2982.18
701.703	2930.98
701.892	2853.16
702.08	2898.22
702.269	2875.69
702.457	2918.7
702.646	2890.03
702.834	2877.74
703.023	2943.27
703.212	2804.01
703.4	2904.36
703.589	2840.87
703.777	2867.5
703.965	2935.08
704.154	2689.32
704.342	2935.08
704.531	2801.96
704.719	2654.51
704.907	2746.67
705.096	2705.71
705.284	2769.2
705.472	2701.61
705.661	2810.15
705.849	2681.13
706.037	2793.77
706.226	2621.74
706.414	2910.5
706.602	2775.34
706.79	2619.69
706.979	2726.19
707.167	2742.57
707.355	2810.15
707.543	2732.33
707.731	2664.75
707.919	2715.95
708.107	2636.08
708.296	2666.8
708.484	2642.22
708.672	2629.93
708.86	2580.78
709.048	2568.49
709.236	2726.19
709.424	2623.79
709.612	2615.6
709.8	2588.97
709.988	2543.92
710.176	2634.03
710.364	2527.53
710.551	2580.78
710.739	2453.81
710.927	2464.05
711.115	2513.2
711.303	2427.18
711.491	2576.69
711.679	2437.42
711.866	2525.49
712.054	2447.66
712.242	2537.77
712.43	2408.75
712.617	2386.22
712.805	2550.06
712.993	2410.8
713.181	2394.42
713.368	2414.9
713.556	2384.18
713.744	2490.67
713.931	2425.14
714.119	2369.84
714.306	2289.97
714.494	2265.39
714.682	2337.07
714.869	2373.94
715.057	2335.03
715.244	2326.83
715.432	2388.27
715.619	2244.92
715.807	2335.03
715.994	2314.55
716.182	2138.42
716.369	2228.53
716.556	2173.24
716.744	2189.62
716.931	2165.04
717.119	2115.89
717.306	2232.63
717.493	2259.25
717.681	2189.62
717.868	2240.82
718.055	2128.18
718.242	2193.72
718.43	2197.81
718.617	2156.85
718.804	2054.45
718.991	2138.42
719.179	2054.45
719.366	2122.04
719.553	2025.78
719.74	2183.48
719.927	2054.45
720.114	2046.26
720.301	2095.41
720.488	2058.55
720.676	2048.31
720.863	2011.45
721.05	2007.35
721.237	2103.61
721.424	1947.96
721.611	2003.25
721.798	1929.53
721.985	1993.01
722.172	2021.69
722.358	1962.3
722.545	2009.4
722.732	1890.62
722.919	1956.15
723.106	1894.71
723.293	1892.66
723.48	1927.48
723.667	1958.2
723.853	1861.94
724.04	1859.9
724.227	1872.18
724.414	1954.1
724.6	1831.23
724.787	1839.42
724.974	2013.49
725.161	1937.72
725.347	1835.32
725.534	1845.56
725.72	1927.48
725.907	1859.9
726.094	1882.42
726.28	1837.37
726.467	1851.71
726.653	1790.27
726.84	1773.88
727.027	1853.75
727.213	1710.4
727.4	1679.68
727.586	1790.27
727.773	1722.68
727.959	1831.23
728.145	1706.3
728.332	1734.97
728.518	1775.93
728.705	1661.24
728.891	1691.96
729.077	1745.21
729.264	1689.92
729.45	1734.97
729.636	1767.74
729.823	1759.55
730.009	1612.09
730.195	1659.2
730.382	1683.77
730.568	1573.18
730.754	1646.91
730.94	1712.44
731.126	1546.56
731.313	1706.3
731.499	1515.84
731.685	1655.1
731.871	1591.61
732.057	1579.33
732.243	1640.76
732.429	1644.86
732.615	1644.86
732.801	1702.2
732.987	1521.98
733.173	1655.1
733.359	1575.23
733.545	1538.37
733.731	1485.12
733.917	1554.75
734.103	1620.28
734.289	1478.97
734.475	1558.85
734.661	1499.45
734.847	1581.37
735.033	1481.02
735.219	1476.93
735.404	1587.52
735.59	1413.44
735.776	1591.61
735.962	1450.3
736.148	1554.75
736.333	1521.98
736.519	1605.95
736.705	1474.88
736.89	1546.56
737.076	1339.71
737.262	1466.69
737.447	1409.34
737.633	1511.74
737.819	1472.83
738.004	1435.97
738.19	1442.11
738.375	1450.3
738.561	1444.16
738.747	1470.78
738.932	1413.44
739.118	1368.38
739.303	1431.87
739.489	1497.41
739.674	1354.05
739.859	1407.3
740.045	1315.14
740.23	1423.68
740.416	1311.04
740.601	1296.71
740.786	1343.81
740.972	1354.05
741.157	1274.18
741.342	1308.99
741.528	1298.75
741.713	1263.94
741.898	1243.46
742.084	1255.75
742.269	1296.71
742.454	1395.01
742.639	1270.08
742.824	1315.14
743.01	1333.57
743.195	1390.91
743.38	1245.51
743.565	1325.38
743.75	1194.31
743.935	1239.36
744.12	1177.92
744.305	1251.65
744.49	1325.38
744.675	1198.4
744.86	1214.79
745.045	1186.12
745.23	1208.64
745.415	1276.23
745.6	1214.79
745.785	1155.4
745.97	1167.68
746.155	1130.82
746.34	1182.02
746.525	1173.83
746.71	1132.87
746.895	1024.33
747.079	1132.87
747.264	1194.31
747.449	1130.82
747.634	1093.96
747.819	1159.49
748.003	1132.87
748.188	1020.23
748.373	987.46
748.557	993.61
748.742	1032.52
748.927	962.89
749.111	1071.43
749.296	1132.87
749.481	1028.42
749.665	936.26
749.85	1077.57
750.034	1018.18
750.219	1014.09
750.404	936.26
750.588	1018.18
750.773	985.41
750.957	1057.09
751.141	1079.62
751.326	971.08
751.51	1016.13
751.695	913.74
751.879	936.26
752.064	913.74
752.248	1018.18
752.432	983.37
752.617	909.64
752.801	946.5
752.985	942.41
753.17	899.4
753.354	934.22
753.538	893.26
753.722	895.3
753.907	913.74
754.091	852.3
754.275	883.02
754.459	835.91
754.643	887.11
754.828	919.88
755.012	864.58
755.196	880.97
755.38	885.06
755.564	973.13
755.748	880.97
755.932	985.41
756.116	917.83
756.3	788.81
756.484	842.06
756.668	813.38
756.852	772.43
757.036	864.58
757.22	903.5
757.404	753.99
757.588	751.95
757.772	735.56
757.956	815.43
758.14	833.86
758.323	794.95
758.507	719.18
758.691	747.85
758.875	756.04
759.059	805.19
759.242	815.43
759.426	725.32
759.61	704.84
759.794	735.56
759.977	678.22
760.161	739.66
760.345	751.95
760.528	772.43
760.712	780.62
760.895	674.12
761.079	653.64
761.263	635.21
761.446	751.95
761.63	772.43
761.813	772.43
761.997	719.18
762.18	680.27
762.364	645.45
762.547	663.88
762.731	727.37
762.914	737.61
763.098	684.36
763.281	700.75
763.464	690.51
763.648	649.55
763.831	721.23
764.015	627.02
764.198	665.93
764.381	663.88
764.564	612.68
764.748	608.59
764.931	663.88
765.114	680.27
765.297	608.59
765.481	473.42
765.664	717.13
765.847	631.12
766.03	682.31
766.213	682.31
766.397	690.51
766.58	624.97
766.763	659.79
766.946	661.84
767.129	696.65
767.312	624.97
767.495	667.98
767.678	627.02
767.861	543.05
768.044	618.83
768.227	641.36
768.41	600.4
768.593	602.44
768.776	563.53
768.959	545.1
769.142	577.87
769.324	590.16
769.507	631.12
769.69	600.4
769.873	643.4
770.056	627.02
770.239	678.22
770.421	594.25
770.604	608.59
770.787	545.1
770.97	594.25
771.152	541.01
771.335	500.05
771.518	555.34
771.7	557.39
771.883	581.96
772.066	549.2
772.248	592.2
772.431	440.65
772.613	543.05
772.796	563.53
772.978	553.29
773.161	516.43
773.343	592.2
773.526	577.87
773.708	500.05
773.891	606.54
774.073	559.44
774.256	541.01
774.438	534.86
774.621	524.62
774.803	514.38
774.985	502.09
775.168	483.66
775.35	541.01
775.532	473.42
775.715	411.98
775.897	512.33
776.079	454.99
776.261	532.81
776.444	471.37
776.626	461.13
776.808	467.28
776.99	536.91
777.173	459.09
777.355	485.71
777.537	457.04
777.719	414.03
777.901	487.76
778.083	477.52
778.265	467.28
778.447	471.37
778.629	403.79
778.811	485.71
778.993	436.56
779.175	411.98
779.357	405.84
779.539	459.09
779.721	426.32
779.903	475.47
780.085	475.47
780.267	450.89
780.449	438.61
780.631	442.7
780.812	457.04
780.994	368.98
781.176	387.41
781.358	328.02
781.54	379.22
781.721	420.17
781.903	411.98
782.085	383.31
782.267	319.82
782.448	440.65
782.63	379.22
782.812	438.61
782.993	330.06
783.175	428.37
783.357	397.65
783.538	293.2
783.72	420.17
783.901	336.21
784.083	295.25
784.264	364.88
784.446	313.68
784.627	295.25
784.809	336.21
784.99	264.53
785.172	295.25
785.353	321.87
785.535	317.78
785.716	362.83
785.897	346.45
786.079	346.45
786.26	321.87
786.441	330.06
786.623	229.71
786.804	282.96
786.985	276.82
787.167	242
787.348	336.21
787.529	272.72
787.71	321.87
787.891	280.91
788.073	289.1
788.254	268.63
788.435	289.1
788.616	260.43
788.797	264.53
788.978	313.68
789.159	334.16
789.34	315.73
789.522	280.91
789.703	231.76
789.884	303.44
790.065	325.97
790.246	256.34
790.427	246.1
790.607	315.73
790.788	321.87
790.969	264.53
791.15	332.11
791.331	244.05
791.512	225.62
791.693	188.75
791.874	272.72
792.054	282.96
792.235	252.24
792.416	248.15
792.597	287.06
792.778	311.63
792.958	190.8
793.139	186.71
793.32	252.24
793.5	164.18
793.681	276.82
793.862	170.32
794.042	297.3
794.223	260.43
794.404	229.71
794.584	221.52
794.765	192.85
794.945	194.9
795.126	205.14
795.306	264.53
795.487	207.19
795.667	192.85
795.848	219.47
796.028	258.39
796.209	280.91
796.389	260.43
796.57	233.81
796.75	217.43
796.93	211.28
797.111	174.42
797.291	225.62
797.471	221.52
797.652	125.27
797.832	190.8
798.012	172.37
798.192	231.76
798.373	164.18
798.553	147.8
798.733	196.95
798.913	182.61
799.093	162.13
799.274	141.65
799.454	137.56
799.634	239.95
799.814	170.32
799.994	278.87
800.174	190.8
800.354	291.15
800.534	221.52
800.714	176.47
800.894	137.56
801.074	153.94
801.254	158.03
801.434	155.99
801.614	205.14
801.794	215.38
801.974	463.18
802.154	162.13
802.334	188.75
802.514	151.89
802.693	201.04
802.873	125.27
803.053	188.75
803.233	188.75
803.413	182.61
803.592	186.71
803.772	168.27
803.952	153.94
804.131	184.66
804.311	164.18
804.491	225.62
804.67	155.99
804.85	151.89
805.03	131.41
805.209	168.27
805.389	106.84
805.568	182.61
805.748	131.41
805.928	164.18
806.107	172.37
806.287	135.51
806.466	170.32
806.646	131.41
806.825	100.69
807.004	178.51
807.184	112.98
807.363	127.32
807.543	162.13
807.722	145.75
807.901	258.39
808.081	192.85
808.26	96.6
808.439	153.94
808.619	139.6
808.798	149.84
808.977	61.78
809.156	162.13
809.336	119.12
809.515	196.95
809.694	84.31
809.873	129.36
810.052	162.13
810.231	203.09
810.411	137.56
810.59	112.98
810.769	151.89
810.948	166.23
811.127	160.08
811.306	119.12
811.485	213.33
811.664	127.32
811.843	57.68
812.022	53.59
812.201	119.12
812.38	158.03
812.559	137.56
812.737	149.84
812.916	155.99
813.095	119.12
813.274	147.8
813.453	237.91
813.632	112.98
813.811	186.71
813.989	129.36
814.168	184.66
814.347	94.55
814.526	162.13
814.704	96.6
814.883	112.98
815.062	108.88
815.24	110.93
815.419	127.32
815.598	254.29
815.776	65.88
815.955	133.46
816.133	108.88
816.312	151.89
816.49	119.12
816.669	104.79
816.847	123.22
817.026	194.9
817.204	145.75
817.383	112.98
817.561	82.26
817.74	82.26
817.918	90.45
818.097	106.84
818.275	129.36
818.453	115.03
818.632	121.17
818.81	96.6
818.988	145.75
819.167	57.68
819.345	153.94
819.523	121.17
819.701	121.17
819.879	33.11
820.058	131.41
820.236	94.55
820.414	108.88
820.592	145.75
820.77	127.32
820.948	55.64
821.127	139.6
821.305	119.12
821.483	37.2
821.661	153.94
821.839	151.89
822.017	155.99
822.195	104.79
822.373	133.46
822.551	92.5
822.729	151.89
822.907	94.55
823.085	90.45
823.262	90.45
823.44	94.55
823.618	137.56
823.796	26.96
823.974	57.68
824.152	155.99
824.329	94.55
824.507	164.18
824.685	69.97
824.863	90.45
825.04	104.79
825.218	112.98
825.396	76.12
825.574	117.08
825.751	145.75
825.929	166.23
826.107	31.06
826.284	155.99
826.462	92.5
826.639	84.31
826.817	78.16
826.994	100.69
827.172	43.35
827.349	47.44
827.527	90.45
827.704	96.6
827.882	63.83
828.059	96.6
828.237	67.92
828.414	90.45
828.591	106.84
828.769	133.46
828.946	125.27
829.124	67.92
829.301	139.6
829.478	45.4
829.655	90.45
829.833	106.84
830.01	88.4
830.187	82.26
830.364	88.4
830.542	127.32
830.719	149.84
830.896	178.51
831.073	39.25
831.25	119.12
831.427	65.88
831.604	92.5
831.782	84.31
831.959	92.5
832.136	63.83
832.313	90.45
832.49	57.68
832.667	84.31
832.844	-11.95
833.021	43.35
833.198	106.84
833.374	110.93
833.551	72.02
833.728	88.4
833.905	61.78
834.082	137.56
834.259	0.34
834.436	69.97
834.612	149.84
834.789	121.17
834.966	84.31
835.143	24.92
835.319	72.02
835.496	108.88
835.673	90.45
835.85	63.83
836.026	39.25
836.203	82.26
836.38	86.36
836.556	117.08
836.733	55.64
836.909	90.45
837.086	72.02
837.262	61.78
837.439	53.59
837.616	37.2
837.792	16.73
837.968	55.64
838.145	74.07
838.321	80.21
838.498	84.31
838.674	76.12
838.851	6.49
839.027	43.35
839.203	115.03
839.38	-11.95
839.556	98.64
839.732	67.92
839.909	102.74
840.085	16.73
840.261	49.49
840.437	63.83
840.614	49.49
840.79	63.83
840.966	76.12
841.142	47.44
841.318	41.3
841.494	106.84
841.671	49.49
841.847	51.54
842.023	29.01
842.199	33.11
842.375	82.26
842.551	74.07
842.727	55.64
842.903	106.84
843.079	29.01
843.255	106.84
843.431	35.16
843.607	63.83
843.783	78.16
843.959	47.44
844.134	72.02
844.31	74.07
844.486	-5.8
844.662	110.93
844.838	6.49
845.013	115.03
845.189	67.92
845.365	90.45
845.541	-11.95
845.716	86.36
845.892	100.69
846.068	2.39
846.244	2.39
846.419	0.34
846.595	55.64
846.77	12.63
846.946	78.16
847.122	94.55
847.297	67.92
847.473	131.41
847.648	67.92
847.824	145.75
847.999	22.87
848.175	78.16
848.35	4.44
848.526	121.17
848.701	98.64
848.876	149.84
849.052	67.92
849.227	35.16
849.403	-9.9
849.578	84.31
849.753	-24.23
849.929	84.31
850.104	104.79
850.279	29.01
850.454	29.01
850.63	22.87
850.805	16.73
850.98	94.55
851.155	69.97
851.33	31.06
851.505	39.25
851.681	59.73
851.856	49.49
852.031	94.55
852.206	82.26
852.381	63.83
852.556	84.31
852.731	74.07
852.906	125.27
853.081	59.73
853.256	29.01
853.431	86.36
853.606	125.27
853.781	76.12
853.956	43.35
854.131	90.45
854.305	45.4
854.48	26.96
854.655	29.01
854.83	65.88
855.005	59.73
855.18	82.26
855.354	33.11
855.529	-11.95
855.704	55.64
855.879	20.82
856.053	41.3
856.228	123.22
856.403	24.92
856.577	94.55
856.752	37.2
856.926	119.12
857.101	49.49
857.276	78.16
857.45	74.07
857.625	72.02
857.799	39.25
857.974	49.49
858.148	14.68
858.323	33.11
858.497	-7.85
858.672	100.69
858.846	10.58
859.02	65.88
859.195	-3.75
859.369	65.88
859.543	133.46
859.718	39.25
859.892	37.2
860.066	49.49
860.241	18.77
860.415	67.92
860.589	53.59
860.763	53.59
860.938	26.96
861.112	92.5
861.286	41.3
861.46	69.97
861.634	-30.38
861.808	51.54
861.982	-36.52
862.157	72.02
862.331	-57
862.505	8.53
862.679	8.53
862.853	98.64
863.027	65.88
863.201	76.12
863.375	-20.14
863.549	31.06
863.722	35.16
863.896	49.49
864.07	41.3
864.244	104.79
864.418	76.12
864.592	20.82
864.766	49.49
864.939	-24.23
865.113	100.69
865.287	78.16
865.461	63.83
865.634	53.59
865.808	41.3
865.982	12.63
866.156	41.3
866.329	61.78
866.503	-13.99
866.676	-24.23
866.85	51.54
867.024	90.45
867.197	123.22
867.371	-38.57
867.544	22.87
867.718	57.68
867.891	-26.28
868.065	80.21
868.238	-48.81
868.412	129.36
868.585	74.07
868.759	59.73
868.932	29.01
869.105	18.77
869.279	2.39
869.452	47.44
869.625	147.8
869.799	90.45
869.972	57.68
870.145	31.06
870.319	39.25
870.492	35.16
870.665	22.87
870.838	-5.8
871.011	80.21
871.185	88.4
871.358	-26.28
871.531	37.2
871.704	14.68
871.877	-24.23
872.05	6.49
872.223	33.11
872.396	57.68
872.569	49.49
872.742	6.49
872.915	41.3
873.088	67.92
873.261	39.25
873.434	55.64
873.607	72.02
873.78	29.01
873.953	76.12
874.126	10.58
874.299	55.64
874.471	123.22
874.644	80.21
874.817	67.92
874.99	31.06
875.163	72.02
875.335	49.49
875.508	14.68
875.681	57.68
875.853	59.73
876.026	-20.14
876.199	94.55
876.371	35.16
876.544	45.4
876.717	-5.8
876.889	-26.28
877.062	65.88
877.234	-18.09
877.407	90.45
877.579	24.92
877.752	37.2
877.924	43.35
878.097	63.83
878.269	41.3
878.442	24.92
878.614	51.54
878.786	12.63
878.959	47.44
879.131	174.42
879.303	-44.71
879.476	35.16
879.648	65.88
879.82	115.03
879.993	29.01
880.165	-22.19
880.337	33.11
880.509	61.78
880.681	35.16
880.854	55.64
881.026	26.96
881.198	45.4
881.37	57.68
881.542	63.83
881.714	8.53
881.886	24.92
882.058	57.68
882.23	39.25
882.402	39.25
882.574	78.16
882.746	53.59
882.918	22.87
883.09	65.88
883.262	57.68
883.434	115.03
883.606	2.39
883.778	84.31
883.95	102.74
884.122	14.68
884.293	67.92
884.465	37.2
884.637	49.49
884.809	45.4
884.98	29.01
885.152	-9.9
885.324	-13.99
885.496	2.39
885.667	33.11
885.839	-30.38
886.011	35.16
886.182	43.35
886.354	74.07
886.525	26.96
886.697	86.36
886.869	20.82
887.04	37.2
887.212	10.58
887.383	108.88
887.555	-13.99
887.726	67.92
887.897	72.02
888.069	22.87
888.24	31.06
888.412	-7.85
888.583	82.26
888.754	-1.71
888.926	-28.33
889.097	74.07
889.268	-7.85
889.44	65.88
889.611	104.79
889.782	72.02
889.953	-1.71
890.125	-11.95
890.296	10.58
890.467	24.92
890.638	45.4
890.809	131.41
890.98	2.39
891.151	102.74
891.323	-20.14
891.494	4.44
891.665	-11.95
891.836	47.44
892.007	57.68
892.178	47.44
892.349	104.79
892.52	63.83
892.691	39.25
892.862	57.68
893.032	35.16
893.203	92.5
893.374	33.11
893.545	10.58
893.716	-22.19
893.887	0.34
894.057	39.25
894.228	41.3
894.399	-7.85
894.57	-18.09
894.74	82.26
894.911	43.35
895.082	-9.9
895.253	47.44
895.423	20.82
895.594	69.97
895.764	37.2
895.935	55.64
896.106	22.87
896.276	6.49
896.447	-26.28
896.617	22.87
896.788	-7.85
896.958	10.58
897.129	82.26
897.299	57.68
897.47	-11.95
897.64	74.07
897.81	16.73
897.981	-32.43
898.151	-11.95
898.322	61.78
898.492	24.92
898.662	47.44
898.832	29.01
899.003	20.82
899.173	14.68
899.343	49.49
899.513	-1.71
