Data from USB4F104151__253__14-01-35-804.txt Node

Date: Thu Mar 13 14:01:35 EDT 2025
User: louis
Spectrometer: USB4F10415
Trigger mode: 4
Integration Time (sec): 1.000000E-2
Scans to average: 1
Electric dark correction enabled: true
Nonlinearity correction enabled: false
Boxcar width: 0
XAxis mode: Wavelengths
Number of Pixels in Spectrum: 3648
>>>>>Begin Spectral Data<<<<<
178.204	-64.51
178.424	-64.51
178.644	-64.51
178.864	-7.17
179.084	-101.37
179.304	-15.36
179.524	-15.36
179.744	35.84
179.964	44.03
180.184	-46.08
180.404	15.36
180.624	29.7
180.844	-21.5
181.064	-52.22
181.283	25.6
181.503	17.41
181.723	-17.41
181.943	-17.41
182.163	50.18
182.383	48.13
182.602	-11.26
182.822	-52.22
183.042	54.27
183.262	-19.46
183.482	7.17
183.701	11.26
183.921	-31.74
184.141	109.57
184.361	-5.12
184.58	87.04
184.8	-76.8
185.02	66.56
185.239	-23.55
185.459	-37.89
185.679	54.27
185.898	-48.13
186.118	3.07
186.338	-23.55
186.557	44.03
186.777	-17.41
186.997	35.84
187.216	17.41
187.436	-7.17
187.655	60.42
187.875	23.55
188.095	-5.12
188.314	52.22
188.534	15.36
188.753	-19.46
188.973	7.17
189.192	35.84
189.412	19.46
189.631	-3.07
189.851	17.41
190.07	39.94
190.29	-25.6
190.509	41.98
190.729	17.41
190.948	50.18
191.168	62.46
191.387	37.89
191.607	17.41
191.826	41.98
192.045	-7.17
192.265	89.09
192.484	13.31
192.704	13.31
192.923	-37.89
193.142	41.98
193.362	44.03
193.581	44.03
193.8	44.03
194.02	-15.36
194.239	19.46
194.458	54.27
194.678	-58.37
194.897	13.31
195.116	13.31
195.335	-46.08
195.555	-23.55
195.774	25.6
195.993	82.94
196.212	9.22
196.432	33.79
196.651	23.55
196.87	31.74
197.089	44.03
197.308	23.55
197.528	25.6
197.747	-80.89
197.966	1.02
198.185	-5.12
198.404	87.04
198.623	27.65
198.842	1.02
199.062	41.98
199.281	58.37
199.5	-21.5
199.719	44.03
199.938	-5.12
200.157	37.89
200.376	46.08
200.595	35.84
200.814	82.94
201.033	27.65
201.252	13.31
201.471	15.36
201.69	41.98
201.909	21.5
202.128	25.6
202.347	37.89
202.566	13.31
202.785	39.94
203.004	-31.74
203.223	-11.26
203.442	13.31
203.661	3.07
203.879	-25.6
204.098	-23.55
204.317	-19.46
204.536	82.94
204.755	60.42
204.974	3.07
205.193	-5.12
205.411	33.79
205.63	23.55
205.849	-48.13
206.068	58.37
206.287	68.61
206.505	74.75
206.724	19.46
206.943	9.22
207.162	62.46
207.381	1.02
207.599	33.79
207.818	44.03
208.037	1.02
208.255	19.46
208.474	13.31
208.693	58.37
208.911	27.65
209.13	21.5
209.349	27.65
209.567	-19.46
209.786	21.5
210.005	76.8
210.223	33.79
210.442	87.04
210.661	9.22
210.879	29.7
211.098	-19.46
211.316	5.12
211.535	-1.02
211.753	48.13
211.972	109.57
212.191	-13.31
212.409	-44.03
212.628	17.41
212.846	17.41
213.065	-3.07
213.283	119.81
213.502	-33.79
213.72	70.65
213.938	48.13
214.157	9.22
214.375	3.07
214.594	-1.02
214.812	21.5
215.031	1.02
215.249	7.17
215.467	35.84
215.686	-17.41
215.904	70.65
216.122	-21.5
216.341	72.7
216.559	-31.74
216.778	48.13
216.996	29.7
217.214	39.94
217.432	60.42
217.651	-17.41
217.869	9.22
218.087	-21.5
218.306	-3.07
218.524	-13.31
218.742	-7.17
218.96	74.75
219.179	-17.41
219.397	11.26
219.615	17.41
219.833	13.31
220.051	-37.89
220.27	25.6
220.488	1.02
220.706	3.07
220.924	31.74
221.142	23.55
221.36	-33.79
221.578	31.74
221.796	9.22
222.015	15.36
222.233	-13.31
222.451	56.32
222.669	68.61
222.887	-15.36
223.105	11.26
223.323	-56.32
223.541	33.79
223.759	37.89
223.977	-52.22
224.195	82.94
224.413	15.36
224.631	27.65
224.849	33.79
225.067	64.51
225.285	9.22
225.503	17.41
225.721	-21.5
225.939	1.02
226.157	48.13
226.375	-48.13
226.592	101.37
226.81	76.8
227.028	17.41
227.246	66.56
227.464	7.17
227.682	33.79
227.9	91.13
228.117	-23.55
228.335	48.13
228.553	101.37
228.771	37.89
228.989	-23.55
229.206	-15.36
229.424	-7.17
229.642	-56.32
229.86	1.02
230.077	64.51
230.295	17.41
230.513	-11.26
230.731	54.27
230.948	25.6
231.166	3.07
231.384	3.07
231.601	5.12
231.819	-3.07
232.037	48.13
232.254	66.56
232.472	17.41
232.689	-29.7
232.907	46.08
233.125	21.5
233.342	66.56
233.56	-3.07
233.777	21.5
233.995	1.02
234.213	29.7
234.43	27.65
234.648	-1.02
234.865	74.75
235.083	37.89
235.3	-17.41
235.518	1.02
235.735	46.08
235.953	41.98
236.17	33.79
236.388	5.12
236.605	25.6
236.822	35.84
237.04	19.46
237.257	-19.46
237.475	25.6
237.692	13.31
237.909	62.46
238.127	-44.03
238.344	70.65
238.562	11.26
238.779	-58.37
238.996	44.03
239.214	-44.03
239.431	41.98
239.648	66.56
239.865	5.12
240.083	48.13
240.3	29.7
240.517	37.89
240.735	-7.17
240.952	50.18
241.169	-56.32
241.386	76.8
241.603	41.98
241.821	27.65
242.038	54.27
242.255	5.12
242.472	37.89
242.689	5.12
242.907	60.42
243.124	11.26
243.341	7.17
243.558	-3.07
243.775	7.17
243.992	-33.79
244.209	95.23
244.426	-23.55
244.643	93.18
244.86	-7.17
245.078	-23.55
245.295	-27.65
245.512	74.75
245.729	5.12
245.946	35.84
246.163	11.26
246.38	11.26
246.597	13.31
246.814	60.42
247.031	-19.46
247.248	91.13
247.464	119.81
247.681	-37.89
247.898	15.36
248.115	1.02
248.332	3.07
248.549	15.36
248.766	44.03
248.983	78.85
249.2	11.26
249.417	56.32
249.633	33.79
249.85	-21.5
250.067	9.22
250.284	13.31
250.501	44.03
250.717	46.08
250.934	-21.5
251.151	1.02
251.368	31.74
251.585	-39.94
251.801	41.98
252.018	17.41
252.235	9.22
252.451	25.6
252.668	-39.94
252.885	37.89
253.102	15.36
253.318	-9.22
253.535	25.6
253.752	17.41
253.968	-23.55
254.185	-11.26
254.401	-29.7
254.618	-46.08
254.835	7.17
255.051	-21.5
255.268	-13.31
255.484	78.85
255.701	25.6
255.917	54.27
256.134	-27.65
256.351	46.08
256.567	46.08
256.784	52.22
257	1.02
257.217	5.12
257.433	27.65
257.65	35.84
257.866	-27.65
258.082	-23.55
258.299	15.36
258.515	1.02
258.732	-15.36
258.948	-3.07
259.165	-21.5
259.381	23.55
259.597	21.5
259.814	80.89
260.03	50.18
260.246	13.31
260.463	66.56
260.679	72.7
260.895	89.09
261.112	-64.51
261.328	35.84
261.544	-23.55
261.761	-17.41
261.977	58.37
262.193	5.12
262.409	66.56
262.626	58.37
262.842	9.22
263.058	48.13
263.274	101.37
263.49	17.41
263.707	-25.6
263.923	44.03
264.139	1.02
264.355	-21.5
264.571	11.26
264.787	1.02
265.004	70.65
265.22	-31.74
265.436	50.18
265.652	17.41
265.868	33.79
266.084	-80.89
266.3	44.03
266.516	3.07
266.732	-9.22
266.948	48.13
267.164	35.84
267.38	-1.02
267.596	23.55
267.812	23.55
268.028	3.07
268.244	-19.46
268.46	-37.89
268.676	-5.12
268.892	68.61
269.108	-3.07
269.324	-29.7
269.54	1.02
269.756	119.81
269.972	-62.46
270.188	-7.17
270.403	-46.08
270.619	54.27
270.835	-25.6
271.051	-23.55
271.267	62.46
271.483	1.02
271.698	19.46
271.914	15.36
272.13	35.84
272.346	9.22
272.562	-7.17
272.777	33.79
272.993	44.03
273.209	-41.98
273.425	15.36
273.64	-27.65
273.856	66.56
274.072	-44.03
274.287	-19.46
274.503	23.55
274.719	23.55
274.934	17.41
275.15	31.74
275.366	19.46
275.581	-37.89
275.797	5.12
276.012	68.61
276.228	13.31
276.444	19.46
276.659	29.7
276.875	9.22
277.09	-13.31
277.306	-33.79
277.521	39.94
277.737	11.26
277.952	27.65
278.168	5.12
278.383	-23.55
278.599	21.5
278.814	35.84
279.03	-29.7
279.245	52.22
279.461	-21.5
279.676	3.07
279.892	-19.46
280.107	25.6
280.322	-3.07
280.538	29.7
280.753	11.26
280.969	74.75
281.184	44.03
281.399	-1.02
281.615	46.08
281.83	35.84
282.045	13.31
282.26	74.75
282.476	5.12
282.691	31.74
282.906	48.13
283.122	-7.17
283.337	1.02
283.552	50.18
283.767	-1.02
283.983	1.02
284.198	25.6
284.413	23.55
284.628	68.61
284.843	37.89
285.058	3.07
285.274	-13.31
285.489	-37.89
285.704	3.07
285.919	46.08
286.134	3.07
286.349	21.5
286.564	25.6
286.779	44.03
286.995	13.31
287.21	-76.8
287.425	1.02
287.64	-17.41
287.855	39.94
288.07	5.12
288.285	-3.07
288.5	-27.65
288.715	58.37
288.93	-29.7
289.145	-15.36
289.36	72.7
289.575	27.65
289.79	-21.5
290.004	50.18
290.219	1.02
290.434	31.74
290.649	54.27
290.864	-7.17
291.079	5.12
291.294	-19.46
291.509	17.41
291.724	-7.17
291.938	-35.84
292.153	44.03
292.368	23.55
292.583	97.28
292.798	17.41
293.012	-25.6
293.227	31.74
293.442	9.22
293.657	41.98
293.871	44.03
294.086	-19.46
294.301	-3.07
294.516	56.32
294.73	-7.17
294.945	-23.55
295.16	17.41
295.374	50.18
295.589	70.65
295.804	37.89
296.018	27.65
296.233	25.6
296.447	54.27
296.662	37.89
296.877	80.89
297.091	52.22
297.306	46.08
297.52	107.52
297.735	-19.46
297.949	5.12
298.164	21.5
298.378	-39.94
298.593	68.61
298.807	9.22
299.022	39.94
299.236	41.98
299.451	89.09
299.665	27.65
299.88	19.46
300.094	-11.26
300.309	-5.12
300.523	44.03
300.737	-29.7
300.952	56.32
301.166	21.5
301.381	-25.6
301.595	5.12
301.809	9.22
302.024	-27.65
302.238	11.26
302.452	52.22
302.667	58.37
302.881	44.03
303.095	-7.17
303.309	-17.41
303.524	-5.12
303.738	11.26
303.952	-9.22
304.166	33.79
304.381	27.65
304.595	72.7
304.809	25.6
305.023	56.32
305.237	3.07
305.452	19.46
305.666	62.46
305.88	25.6
306.094	66.56
306.308	101.37
306.522	-9.22
306.736	58.37
306.95	64.51
307.164	23.55
307.379	25.6
307.593	13.31
307.807	74.75
308.021	31.74
308.235	33.79
308.449	41.98
308.663	13.31
308.877	-19.46
309.091	50.18
309.305	-87.04
309.519	17.41
309.733	80.89
309.947	5.12
310.161	66.56
310.374	13.31
310.588	62.46
310.802	50.18
311.016	21.5
311.23	-44.03
311.444	17.41
311.658	-27.65
311.872	35.84
312.085	93.18
312.299	-17.41
312.513	-35.84
312.727	1.02
312.941	7.17
313.154	35.84
313.368	29.7
313.582	23.55
313.796	46.08
314.009	74.75
314.223	21.5
314.437	-23.55
314.651	17.41
314.864	37.89
315.078	-23.55
315.292	-11.26
315.505	29.7
315.719	33.79
315.933	-13.31
316.146	-35.84
316.36	-3.07
316.573	66.56
316.787	-7.17
317.001	-5.12
317.214	19.46
317.428	9.22
317.641	46.08
317.855	17.41
318.068	41.98
318.282	5.12
318.495	41.98
318.709	62.46
318.922	48.13
319.136	-9.22
319.349	31.74
319.563	9.22
319.776	29.7
319.99	-13.31
320.203	54.27
320.417	70.65
320.63	41.98
320.843	-13.31
321.057	-3.07
321.27	84.99
321.483	21.5
321.697	66.56
321.91	-31.74
322.124	19.46
322.337	58.37
322.55	23.55
322.763	-11.26
322.977	56.32
323.19	33.79
323.403	46.08
323.617	-41.98
323.83	5.12
324.043	-64.51
324.256	25.6
324.469	37.89
324.683	25.6
324.896	17.41
325.109	-13.31
325.322	-9.22
325.535	3.07
325.748	-13.31
325.962	-29.7
326.175	82.94
326.388	17.41
326.601	-9.22
326.814	25.6
327.027	87.04
327.24	37.89
327.453	66.56
327.666	103.42
327.879	97.28
328.092	72.7
328.305	56.32
328.518	15.36
328.731	-52.22
328.944	19.46
329.157	46.08
329.37	3.07
329.583	11.26
329.796	17.41
330.009	46.08
330.222	62.46
330.435	56.32
330.648	54.27
330.861	68.61
331.073	11.26
331.286	-15.36
331.499	68.61
331.712	-1.02
331.925	41.98
332.138	11.26
332.35	82.94
332.563	11.26
332.776	48.13
332.989	21.5
333.202	-48.13
333.414	93.18
333.627	23.55
333.84	-25.6
334.053	-15.36
334.265	-60.42
334.478	68.61
334.691	27.65
334.903	-7.17
335.116	39.94
335.329	-15.36
335.541	78.85
335.754	62.46
335.966	48.13
336.179	95.23
336.392	-48.13
336.604	41.98
336.817	29.7
337.029	39.94
337.242	74.75
337.454	58.37
337.667	19.46
337.88	-9.22
338.092	58.37
338.305	99.33
338.517	-7.17
338.729	87.04
338.942	17.41
339.154	7.17
339.367	23.55
339.579	37.89
339.792	-31.74
340.004	1.02
340.217	31.74
340.429	64.51
340.641	-46.08
340.854	52.22
341.066	60.42
341.278	29.7
341.491	-21.5
341.703	76.8
341.915	17.41
342.128	46.08
342.34	25.6
342.552	52.22
342.764	80.89
342.977	-37.89
343.189	64.51
343.401	115.71
343.613	-15.36
343.826	27.65
344.038	3.07
344.25	-9.22
344.462	91.13
344.674	17.41
344.886	-3.07
345.099	9.22
345.311	-19.46
345.523	19.46
345.735	15.36
345.947	-25.6
346.159	-17.41
346.371	15.36
346.583	3.07
346.795	25.6
347.007	-64.51
347.219	13.31
347.431	15.36
347.643	7.17
347.855	1.02
348.067	11.26
348.279	13.31
348.491	-3.07
348.703	-23.55
348.915	-35.84
349.127	33.79
349.339	78.85
349.551	-27.65
349.763	-39.94
349.975	17.41
350.187	39.94
350.399	-35.84
350.61	64.51
350.822	-11.26
351.034	-5.12
351.246	44.03
351.458	11.26
351.669	44.03
351.881	33.79
352.093	37.89
352.305	41.98
352.517	17.41
352.728	3.07
352.94	33.79
353.152	33.79
353.363	23.55
353.575	-37.89
353.787	41.98
353.999	23.55
354.21	54.27
354.422	9.22
354.633	-11.26
354.845	35.84
355.057	17.41
355.268	29.7
355.48	5.12
355.692	-3.07
355.903	29.7
356.115	54.27
356.326	44.03
356.538	62.46
356.749	68.61
356.961	66.56
357.172	-25.6
357.384	101.37
357.595	17.41
357.807	-5.12
358.018	29.7
358.23	11.26
358.441	-23.55
358.653	-7.17
358.864	-5.12
359.075	-31.74
359.287	-5.12
359.498	21.5
359.709	33.79
359.921	-23.55
360.132	46.08
360.344	66.56
360.555	-52.22
360.766	46.08
360.977	-15.36
361.189	-21.5
361.4	25.6
361.611	46.08
361.823	11.26
362.034	35.84
362.245	11.26
362.456	13.31
362.667	-7.17
362.879	-5.12
363.09	17.41
363.301	15.36
363.512	39.94
363.723	-5.12
363.935	37.89
364.146	33.79
364.357	27.65
364.568	39.94
364.779	64.51
364.99	64.51
365.201	-35.84
365.412	48.13
365.623	-27.65
365.834	-13.31
366.045	29.7
366.256	99.33
366.467	74.75
366.678	60.42
366.889	9.22
367.1	50.18
367.311	-23.55
367.522	29.7
367.733	68.61
367.944	-3.07
368.155	-46.08
368.366	107.52
368.577	1.02
368.788	-1.02
368.999	-23.55
369.209	7.17
369.42	-25.6
369.631	27.65
369.842	48.13
370.053	-9.22
370.264	33.79
370.474	-35.84
370.685	29.7
370.896	72.7
371.107	105.47
371.317	19.46
371.528	-13.31
371.739	11.26
371.95	7.17
372.16	64.51
372.371	19.46
372.582	29.7
372.792	41.98
373.003	66.56
373.214	41.98
373.424	9.22
373.635	17.41
373.846	13.31
374.056	-13.31
374.267	27.65
374.477	33.79
374.688	9.22
374.898	-33.79
375.109	33.79
375.319	33.79
375.53	9.22
375.74	13.31
375.951	-25.6
376.161	-35.84
376.372	-5.12
376.582	50.18
376.793	160.77
377.003	9.22
377.214	56.32
377.424	11.26
377.635	-7.17
377.845	33.79
378.055	-5.12
378.266	15.36
378.476	41.98
378.686	41.98
378.897	1.02
379.107	50.18
379.317	39.94
379.528	60.42
379.738	44.03
379.948	-52.22
380.158	1.02
380.369	48.13
380.579	109.57
380.789	107.52
380.999	54.27
381.21	29.7
381.42	41.98
381.63	33.79
381.84	1.02
382.05	76.8
382.261	41.98
382.471	-15.36
382.681	9.22
382.891	-1.02
383.101	93.18
383.311	68.61
383.521	-7.17
383.731	41.98
383.941	62.46
384.151	44.03
384.361	-23.55
384.571	-27.65
384.781	33.79
384.991	60.42
385.201	70.65
385.411	58.37
385.621	87.04
385.831	56.32
386.041	-27.65
386.251	33.79
386.461	9.22
386.671	-25.6
386.881	60.42
387.091	74.75
387.301	72.7
387.511	70.65
387.72	44.03
387.93	17.41
388.14	19.46
388.35	97.28
388.56	76.8
388.769	15.36
388.979	21.5
389.189	-60.42
389.399	9.22
389.609	70.65
389.818	101.37
390.028	70.65
390.238	19.46
390.447	5.12
390.657	5.12
390.867	25.6
391.076	72.7
391.286	-31.74
391.496	82.94
391.705	-23.55
391.915	50.18
392.125	27.65
392.334	17.41
392.544	17.41
392.753	17.41
392.963	62.46
393.172	50.18
393.382	25.6
393.591	46.08
393.801	82.94
394.01	-5.12
394.22	41.98
394.429	25.6
394.639	50.18
394.848	-23.55
395.058	84.99
395.267	84.99
395.477	52.22
395.686	80.89
395.895	95.23
396.105	58.37
396.314	70.65
396.524	3.07
396.733	44.03
396.942	58.37
397.152	15.36
397.361	70.65
397.57	52.22
397.78	60.42
397.989	-37.89
398.198	19.46
398.407	-23.55
398.617	91.13
398.826	56.32
399.035	-11.26
399.244	5.12
399.453	23.55
399.663	60.42
399.872	21.5
400.081	44.03
400.29	17.41
400.499	130.05
400.708	80.89
400.917	64.51
401.127	-5.12
401.336	52.22
401.545	89.09
401.754	99.33
401.963	37.89
402.172	74.75
402.381	-11.26
402.59	19.46
402.799	136.19
403.008	44.03
403.217	23.55
403.426	9.22
403.635	70.65
403.844	37.89
404.053	87.04
404.262	101.37
404.471	93.18
404.68	66.56
404.888	199.68
405.097	39.94
405.306	125.95
405.515	5.12
405.724	78.85
405.933	101.37
406.142	107.52
406.35	66.56
406.559	101.37
406.768	39.94
406.977	46.08
407.185	72.7
407.394	101.37
407.603	148.48
407.812	119.81
408.02	105.47
408.229	78.85
408.438	70.65
408.646	76.8
408.855	78.85
409.064	37.89
409.272	70.65
409.481	144.38
409.69	117.76
409.898	58.37
410.107	134.14
410.315	140.29
410.524	117.76
410.733	109.57
410.941	89.09
411.15	177.15
411.358	142.33
411.567	214.01
411.775	140.29
411.984	197.63
412.192	140.29
412.401	183.29
412.609	179.2
412.818	207.87
413.026	168.96
413.234	222.2
413.443	220.16
413.651	201.72
413.86	207.87
414.068	257.02
414.276	150.53
414.485	211.96
414.693	318.46
414.901	275.45
415.11	250.88
415.318	236.54
415.526	345.08
415.734	353.27
415.943	308.22
416.151	340.99
416.359	306.17
416.567	310.27
416.776	361.47
416.984	248.83
417.192	402.43
417.4	351.23
417.608	445.43
417.817	422.91
418.025	418.81
418.233	472.06
418.441	400.38
418.649	476.15
418.857	510.97
419.065	451.58
419.273	508.92
419.481	623.61
419.689	672.76
419.897	541.69
420.105	508.92
420.313	592.89
420.521	617.46
420.729	621.56
420.937	648.18
421.145	676.85
421.353	740.34
421.561	697.33
421.769	771.06
421.977	861.17
422.185	691.19
422.393	861.17
422.601	852.98
422.809	887.79
423.017	836.6
423.224	871.41
423.432	934.9
423.64	982
423.848	1035.25
424.056	1043.44
424.263	1057.78
424.471	1108.98
424.679	1057.78
424.887	1149.93
425.094	1215.47
425.302	1158.13
425.51	1301.48
425.718	1285.1
425.925	1313.77
426.133	1262.57
426.341	1442.79
426.548	1450.99
426.756	1496.04
426.964	1532.9
427.171	1491.95
427.379	1586.15
427.586	1659.88
427.794	1719.27
428.001	1749.99
428.209	1903.59
428.417	1737.7
428.624	1999.84
428.832	1952.74
429.039	1997.79
429.247	1846.24
429.454	2059.23
429.662	2237.41
429.869	2180.06
430.076	2153.44
430.284	2206.69
430.491	2239.45
430.699	2448.35
430.906	2452.44
431.114	2464.73
431.321	2485.21
431.528	2747.35
431.736	2675.67
431.943	2937.81
432.15	2767.83
432.358	2943.96
432.565	3052.5
432.772	2937.81
432.979	3156.94
433.187	3216.33
433.394	3187.66
433.601	3326.93
433.808	3486.67
434.016	3326.93
434.223	3544.01
434.43	3810.25
434.637	3693.51
434.844	3961.8
435.052	3978.18
435.259	3931.08
435.466	3967.94
435.673	4074.43
435.88	4271.04
436.087	4410.3
436.294	4443.07
436.501	4301.76
436.708	4328.38
436.915	4461.5
437.122	4647.87
437.329	4592.57
437.537	4875.19
437.743	4903.86
437.95	4903.86
438.157	5170.1
438.364	5407.66
438.571	5374.89
438.778	5415.85
438.985	5735.34
439.192	5677.99
439.399	5702.57
439.606	5686.19
439.813	5950.37
440.02	6165.41
440.227	6374.3
440.433	6265.76
440.64	6511.52
440.847	6454.17
441.054	6568.86
441.261	6857.62
441.467	6933.4
441.674	7021.46
441.881	7426.96
442.088	7005.08
442.294	7058.32
442.501	7164.82
442.708	7447.44
442.914	7652.24
443.121	7998.34
443.328	7859.08
443.534	8561.53
443.741	8196.99
443.948	8147.84
444.154	8803.19
444.361	8670.08
444.568	8577.92
444.774	8508.29
444.981	8811.39
445.187	8797.05
445.394	9325.43
445.6	9311.09
445.807	10146.66
446.013	9909.1
446.22	9890.67
446.426	10267.49
446.633	10292.07
446.839	10750.81
447.046	10378.08
447.252	10693.47
447.459	10847.07
447.665	10826.59
447.871	11348.82
448.078	11905.87
448.284	11152.21
448.491	11590.48
448.697	11901.77
448.903	12165.96
449.11	12059.46
449.316	12053.32
449.522	12219.21
449.728	12630.85
449.935	12612.42
450.141	12649.28
450.347	12886.84
450.553	12440.39
450.76	12567.36
450.966	13042.49
451.172	12743.49
451.378	12987.19
451.584	12895.04
451.791	13384.5
451.997	13128.5
452.203	13368.12
452.409	13400.88
452.615	13239.09
452.821	12903.23
453.027	12577.6
453.233	13220.66
453.44	12688.19
453.646	13042.49
453.852	12970.81
454.058	13101.88
454.264	12956.47
454.47	12968.76
454.676	12632.9
454.882	13288.25
455.088	12116.81
455.294	12159.81
455.5	12643.14
455.705	12362.56
455.911	11936.59
456.117	11772.75
456.323	11739.98
456.529	11082.58
456.735	11570
456.941	11193.17
457.147	11053.91
457.352	10654.56
457.558	10281.83
457.764	10441.57
457.97	10335.07
458.176	10066.79
458.381	10087.27
458.587	9710.44
458.793	9558.89
458.999	9153.4
459.204	9649
459.41	9452.4
459.616	8790.91
459.821	8711.04
460.027	8950.65
460.233	8512.38
460.438	8455.04
460.644	8272.77
460.85	7973.77
461.055	7908.23
461.261	7875.46
461.466	7285.65
461.672	7195.54
461.878	7416.72
462.083	7084.95
462.289	6896.53
462.494	6798.23
462.7	6495.13
462.905	6329.25
463.111	6761.37
463.316	6663.07
463.522	6400.93
463.727	6540.19
463.932	6482.85
464.138	6276
464.343	6327.2
464.549	6415.26
464.754	6591.39
464.959	6237.09
465.165	6302.62
465.37	6106.02
465.575	5856.17
465.781	6300.58
465.986	6163.36
466.191	5966.76
466.397	5940.13
466.602	5475.24
466.807	5839.78
467.012	5800.87
467.218	5813.16
467.423	5608.36
467.628	5696.43
467.833	6005.67
468.038	5872.55
468.244	5587.88
468.449	5829.54
468.654	5675.95
468.859	5524.4
469.064	5606.31
469.269	5204.91
469.474	5391.28
469.679	5524.4
469.885	5383.09
470.09	5434.29
470.295	5465
470.5	5186.48
470.705	5297.07
470.91	5157.81
471.115	5065.65
471.32	5211.06
471.525	5258.16
471.73	4973.49
471.935	4991.92
472.139	4942.77
472.344	4967.35
472.549	4920.24
472.754	4604.86
472.959	4668.34
473.164	4645.82
473.369	4586.43
473.574	4764.6
473.778	4694.97
473.983	4615.1
474.188	4682.68
474.393	4424.64
474.598	4522.94
474.802	4242.37
475.007	4289.47
475.212	4252.61
475.417	4262.85
475.621	4309.95
475.826	4236.22
476.031	4115.39
476.235	4031.43
476.44	4105.15
476.645	3894.21
476.849	4015.04
477.054	3912.64
477.259	4060.1
477.463	3892.16
477.668	3744.71
477.872	3920.84
478.077	3834.82
478.282	3681.22
478.486	3716.04
478.691	3767.24
478.895	3572.68
479.1	3763.14
479.304	3754.95
479.509	3474.38
479.713	3572.68
479.918	3564.49
480.122	3310.54
480.326	3505.1
480.531	3638.22
480.735	3462.09
480.94	3388.36
481.144	3580.87
481.348	3351.5
481.553	3523.53
481.757	3441.61
481.961	3288.01
482.166	3423.18
482.37	3349.45
482.574	3380.17
482.778	3460.04
482.983	3523.53
483.187	3466.19
483.391	3462.09
483.595	3320.78
483.8	3371.98
484.004	3384.27
484.208	3488.71
484.412	3433.42
484.616	3529.67
484.821	3425.23
485.025	3492.81
485.229	3468.24
485.433	3406.8
485.637	3427.28
485.841	3331.02
486.045	3271.63
486.249	3275.73
486.453	3220.43
486.657	3337.17
486.861	3552.2
487.065	3255.25
487.269	3435.47
487.473	3328.97
487.677	3349.45
487.881	3398.6
488.085	3294.16
488.289	3460.04
488.493	3369.93
488.697	3429.32
488.901	3492.81
489.105	3490.76
489.309	3271.63
489.512	3417.04
489.716	3544.01
489.92	3488.71
490.124	3490.76
490.328	3515.34
490.531	3552.2
490.735	3601.35
490.939	3539.91
491.143	3460.04
491.346	3517.39
491.55	3498.95
491.754	3490.76
491.958	3511.24
492.161	3556.3
492.365	3630.02
492.569	3501
492.772	3621.83
492.976	3554.25
493.18	3728.33
493.383	3828.68
493.587	3785.67
493.79	3734.47
493.994	3722.18
494.197	3793.86
494.401	3750.85
494.605	3634.12
494.808	3769.29
495.012	3857.35
495.215	3908.55
495.419	3978.18
495.622	3912.64
495.825	4029.38
496.029	4012.99
496.232	4019.14
496.436	4035.52
496.639	4127.68
496.843	4041.67
497.046	4176.83
497.249	4326.33
497.453	4215.74
497.656	4410.3
497.859	4338.62
498.063	4590.52
498.266	4410.3
498.469	4547.51
498.673	4543.42
498.876	4436.92
499.079	4596.67
499.282	4705.21
499.485	4723.64
499.689	4834.23
499.892	4867
500.095	4803.51
500.298	5039.03
500.501	5129.14
500.705	5004.21
500.908	5213.1
501.111	5182.38
501.314	5317.55
501.517	5368.75
501.72	5376.94
501.923	5483.44
502.126	5723.05
502.329	5733.29
502.532	5612.46
502.735	5530.54
502.938	5831.59
503.141	5901.22
503.344	6013.86
503.547	5968.8
503.75	5856.17
503.953	6220.71
504.156	6216.61
504.359	6276
504.562	6286.24
504.765	6409.12
504.968	6460.32
505.17	6495.13
505.373	6544.28
505.576	6710.17
505.779	6849.43
505.982	6876.06
506.185	6923.16
506.387	6982.55
506.59	7189.39
506.793	7164.82
506.996	7218.07
507.198	7510.93
507.401	7400.34
507.604	7537.55
507.807	7785.35
508.009	7779.21
508.212	7693.19
508.415	8004.49
508.617	7994.25
508.82	8166.28
509.022	8080.26
509.225	8221.57
509.428	8330.11
509.63	8541.05
509.833	8686.46
510.035	8694.65
510.238	8614.78
510.44	8860.54
510.643	9173.88
510.845	9249.65
511.048	9077.62
511.25	9280.37
511.453	9165.68
511.655	9708.4
511.858	9644.91
512.06	9565.04
512.262	9945.96
512.465	9759.6
512.667	10095.46
512.87	10142.57
513.072	10345.31
513.274	10353.51
513.477	10408.8
513.679	10724.19
513.881	10634.08
514.084	11045.72
514.286	10949.46
514.488	10912.6
514.69	11342.67
514.893	11383.63
515.095	11377.49
515.297	11715.41
515.499	11457.36
515.701	11924.3
515.904	11891.53
516.106	12100.42
516.308	12264.26
516.51	12438.34
516.712	12602.18
516.914	12698.43
517.116	12911.42
517.318	12919.61
517.52	13122.36
517.722	13230.9
517.925	13456.18
518.127	13527.86
518.329	13718.32
518.531	13683.5
518.733	13972.27
518.935	13914.92
519.136	14349.09
519.338	14525.22
519.54	14779.17
519.742	14664.48
519.944	14795.55
520.146	14963.48
520.348	15248.15
520.55	15160.09
520.752	15442.71
520.954	15616.79
521.155	15514.39
521.357	15700.75
521.559	15975.18
521.761	16100.11
521.963	16282.38
522.164	16565
522.366	16349.96
522.568	16603.91
522.77	17212.15
522.971	17165.05
523.173	17011.45
523.375	16917.25
523.576	17060.6
523.778	17226.49
523.98	17498.87
524.181	17689.33
524.383	17730.29
524.584	18062.06
524.786	18260.71
524.988	17988.33
525.189	18307.82
525.391	18307.82
525.592	18500.33
525.794	18612.96
525.995	18547.43
526.197	18752.23
526.398	18832.1
526.6	18815.71
526.801	18957.02
527.003	19139.29
527.204	19354.33
527.406	19112.67
527.607	19528.41
527.808	19552.98
528.01	19006.17
528.211	19620.56
528.412	19585.75
528.614	19696.34
528.815	19673.81
529.016	19856.08
529.218	19804.88
529.419	19915.47
529.62	19976.91
529.822	19911.38
530.023	19843.79
530.224	20204.24
530.425	20372.17
530.626	19919.57
530.828	19962.58
531.029	20523.72
531.23	20095.69
531.431	20513.48
531.632	20370.12
531.833	20540.1
532.035	20769.48
532.236	20591.3
532.437	20746.95
532.638	20372.17
532.839	20409.03
533.04	20929.22
533.241	20574.92
533.442	21035.71
533.643	20927.17
533.844	20837.06
534.045	20918.98
534.246	20435.66
534.447	20933.31
534.648	20759.24
534.849	20724.42
535.05	20775.62
535.251	20792
535.451	20830.91
535.652	20953.79
535.853	20697.8
536.054	21029.57
536.255	21318.33
536.456	20841.15
536.657	21033.66
536.857	20830.91
537.058	20884.16
537.259	21226.17
537.46	21068.48
537.66	20959.94
537.861	21265.08
538.062	21062.33
538.263	21205.69
538.463	20929.22
538.664	20990.66
538.865	21080.77
539.065	21250.75
539.266	20896.45
539.466	21328.57
539.667	20558.53
539.868	21185.21
540.068	20857.54
540.269	21191.36
540.469	21357.24
540.67	20845.25
540.87	20941.5
541.071	20867.78
541.271	21375.67
541.472	21103.29
541.672	21174.97
541.873	20824.77
542.073	20882.11
542.274	21279.42
542.474	20699.84
542.675	20589.25
542.875	21207.74
543.075	20878.02
543.276	20964.03
543.476	21101.25
543.676	21201.6
543.877	21303.99
544.077	21099.2
544.277	21082.81
544.478	21076.67
544.678	21267.13
544.878	21136.06
545.078	21324.47
545.279	20890.31
545.479	20918.98
545.679	20884.16
545.879	21037.76
546.079	20970.18
546.28	21080.77
546.48	20890.31
546.68	21117.63
546.88	20914.88
547.08	21072.57
547.28	21007.04
547.48	20751.04
547.68	21117.63
547.88	20910.78
548.081	21095.1
548.281	21285.56
548.481	21146.3
548.681	21187.26
548.881	21084.86
549.081	21238.46
549.28	20511.43
549.48	20976.32
549.68	20918.98
549.88	21424.83
550.08	20837.06
550.28	21193.4
550.48	20884.16
550.68	20951.74
550.88	20611.78
551.08	20945.6
551.279	21205.69
551.479	20654.79
551.679	21236.41
551.879	20921.02
552.079	20927.17
552.278	21056.19
552.478	21009.09
552.678	20878.02
552.878	20998.85
553.077	20781.76
553.277	20538.05
553.477	21199.55
553.676	20687.56
553.876	20982.46
554.076	20751.04
554.275	20667.08
554.475	20792
554.674	20681.41
554.874	20714.18
555.074	20677.32
555.273	21105.34
555.473	21002.94
555.672	20708.04
555.872	20765.38
556.071	20863.68
556.271	20648.64
556.47	20419.27
556.67	20331.21
556.869	20544.2
557.068	20845.25
557.268	20595.4
557.467	20587.21
557.667	20689.6
557.866	20652.74
558.065	20464.33
558.265	20421.32
558.464	20153.04
558.663	20572.87
558.863	20083.41
559.062	20495.05
559.261	20114.13
559.461	20595.4
559.66	20081.36
559.859	20206.28
560.058	19727.06
560.258	19815.12
560.457	19878.61
560.656	20175.56
560.855	19632.85
561.054	20130.51
561.253	19786.45
561.453	20007.63
561.652	19831.51
561.851	19966.67
562.05	19512.02
562.249	19368.66
562.448	19745.49
562.647	19815.12
562.846	19477.21
563.045	19608.28
563.244	19444.44
563.443	19727.06
563.642	19378.9
563.841	19520.21
564.04	19229.4
564.239	19679.96
564.438	19280.6
564.637	19354.33
564.836	19409.62
565.035	19086.04
565.234	19137.24
565.432	18901.73
565.631	18985.69
565.83	19071.71
566.029	18895.58
566.228	18744.03
566.427	18887.39
566.625	19184.35
566.824	18717.41
567.023	19006.17
567.222	18522.85
567.42	18772.71
567.619	18787.04
567.818	18492.13
568.016	18596.58
568.215	18498.28
568.414	18496.23
568.612	18735.84
568.811	18430.69
569.01	18416.36
569.208	18219.75
569.407	18488.04
569.605	17781.49
569.804	18189.03
570.002	17935.09
570.201	18174.7
570.4	18078.44
570.598	17930.99
570.797	17918.7
570.995	17894.13
571.193	17720.05
571.392	17844.98
571.59	17439.48
571.789	17552.12
571.987	17672.95
572.186	17556.21
572.384	17580.79
572.582	17226.49
572.781	17621.75
572.979	17457.91
573.177	17031.93
573.376	17472.25
573.574	17042.17
573.772	17111.8
573.971	16976.64
574.169	16929.53
574.367	16810.75
574.565	17019.64
574.763	16755.46
574.962	16812.8
575.16	16489.22
575.358	16794.37
575.556	16691.97
575.754	16737.02
575.952	16302.86
576.151	16610.05
576.349	16126.73
576.547	16225.03
576.745	16417.54
576.943	16397.06
577.141	15964.94
577.339	16188.17
577.537	15995.66
577.735	15997.71
577.933	15940.36
578.131	16020.24
578.329	15883.02
578.527	15737.62
578.725	15956.75
578.923	15672.08
579.121	15801.1
579.319	15778.58
579.516	15643.41
579.714	15584.02
579.912	15411.99
580.11	15418.13
580.308	15528.72
580.506	15323.93
580.704	15237.91
580.901	15381.27
581.099	15495.96
581.297	15088.41
581.495	15022.87
581.692	15389.46
581.89	14807.84
582.088	15155.99
582.285	14961.44
582.483	15041.31
582.681	14873.37
582.878	14766.88
583.076	14938.91
583.274	14797.6
583.471	14605.09
583.669	14383.91
583.866	14611.23
584.064	14566.18
584.262	14560.03
584.459	14545.7
584.657	14222.12
584.854	14252.84
585.052	14105.38
585.249	14357.28
585.447	14342.95
585.644	14056.23
585.841	14125.86
586.039	14242.6
586.236	13839.15
586.434	14023.47
586.631	14035.75
586.828	14023.47
587.026	13822.77
587.223	13775.66
587.42	13706.03
587.618	13851.44
587.815	13708.08
588.012	13673.26
588.21	13396.79
588.407	13828.91
588.604	13505.33
588.801	13716.27
588.999	13534
589.196	13431.6
589.393	13374.26
589.59	13308.72
589.787	13331.25
589.984	13278.01
590.182	13314.87
590.379	13476.66
590.576	13220.66
590.773	13124.41
590.97	12886.84
591.167	13079.35
591.364	12723.01
591.561	12933.95
591.758	12825.4
591.955	12911.42
592.152	12938.04
592.349	12739.39
592.546	12718.91
592.743	12665.66
592.94	12354.37
593.137	12725.05
593.334	12538.69
593.531	12546.88
593.727	12487.49
593.924	12456.77
594.121	12315.46
594.318	12469.06
594.515	12282.69
594.712	12378.95
594.908	12202.82
595.105	12348.23
595.302	12141.38
595.499	12407.62
595.696	12208.97
595.892	12079.94
596.089	12313.41
596.286	12028.74
596.482	12153.67
596.679	12024.65
596.876	11916.11
597.072	12059.46
597.269	11963.21
597.466	11889.48
597.662	11756.36
597.859	11715.41
598.055	11754.32
598.252	11834.19
598.448	11789.13
598.645	11406.16
598.841	11723.6
599.038	11537.23
599.234	11676.49
599.431	11608.91
599.627	11404.11
599.824	11617.1
600.02	11281.24
600.217	11590.48
600.413	11309.91
600.609	11193.17
600.806	11242.32
601.002	11107.16
601.198	11133.78
601.395	10906.46
601.591	10922.84
601.787	11195.22
601.984	10955.61
602.18	10998.62
602.376	11008.86
602.572	10922.84
602.769	10963.8
602.965	10777.44
603.161	10924.89
603.357	10744.67
603.553	10888.03
603.75	10556.25
603.946	10609.5
604.142	10685.28
604.338	10404.71
604.534	10672.99
604.73	10513.25
604.926	10468.19
605.122	10425.18
605.318	10570.59
605.514	10486.62
605.71	10181.48
605.906	10312.55
606.102	10238.82
606.298	10347.36
606.494	10236.77
606.69	10077.03
606.886	10052.45
607.082	10062.69
607.278	10117.99
607.474	9966.44
607.67	10103.65
607.866	9900.9
608.062	10089.32
608.257	9941.86
608.453	9986.92
608.649	10171.24
608.845	9728.88
609.041	9808.75
609.236	9855.85
609.432	9788.27
609.628	9743.21
609.824	9821.03
610.019	9481.07
610.215	9581.42
610.411	9618.29
610.606	9444.21
610.802	9765.74
610.998	9438.06
611.193	9651.05
611.389	9442.16
611.584	9505.65
611.78	9536.37
611.976	9423.73
612.171	9282.42
612.367	9241.46
612.562	9159.54
612.758	9253.75
612.953	9302.9
613.149	9200.5
613.344	9132.92
613.539	9286.51
613.735	9180.02
613.93	9149.3
614.126	9104.25
614.321	9229.17
614.517	9124.72
614.712	8960.89
614.907	9065.33
615.103	9016.18
615.298	8797.05
615.493	8895.35
615.688	8878.97
615.884	8979.32
616.079	8950.65
616.274	8840.06
616.47	8766.33
616.665	8866.68
616.86	8700.8
617.055	8534.91
617.25	8872.82
617.445	8651.64
617.641	8430.46
617.836	8694.65
618.031	8530.81
618.226	8530.81
618.421	8354.69
618.616	8512.38
618.811	8459.13
619.006	8551.29
619.201	8311.68
619.396	8321.92
619.591	8125.32
619.786	8326.02
619.981	8217.47
620.176	8354.69
620.371	7971.72
620.566	8106.88
620.761	8121.22
620.956	8270.72
621.151	8006.53
621.346	8053.64
621.541	7912.33
621.735	8016.77
621.93	7877.51
622.125	7895.94
622.32	7758.73
622.515	7691.15
622.709	7717.77
622.904	7484.3
623.099	7662.48
623.294	7611.28
623.488	7510.93
623.683	7586.7
623.878	7332.75
624.072	7480.21
624.267	7455.63
624.462	7410.57
624.656	7291.79
624.851	7175.06
625.046	7228.31
625.24	7136.15
625.435	7041.94
625.629	7197.59
625.824	7046.04
626.018	7041.94
626.213	6773.66
626.407	6949.78
626.602	6826.9
626.796	7140.24
626.991	6964.12
627.185	6925.21
627.38	6833.05
627.574	6783.9
627.768	6624.15
627.963	6685.59
628.157	6491.04
628.352	6564.76
628.546	6482.85
628.74	6488.99
628.935	6359.97
629.129	6677.4
629.323	6382.49
629.517	6286.24
629.712	6517.66
629.906	6337.44
630.1	6177.7
630.294	6362.01
630.489	6103.97
630.683	6226.85
630.877	6112.16
631.071	6220.71
631.265	6157.22
631.459	5944.23
631.653	6077.35
631.848	5940.13
632.042	5821.35
632.236	5936.04
632.43	5899.17
632.624	5860.26
632.818	5825.45
633.012	5794.73
633.206	5802.92
633.4	5931.94
633.594	5759.91
633.788	5643.18
633.982	5761.96
634.176	5790.63
634.369	5696.43
634.563	5694.38
634.757	5729.19
634.951	5739.43
635.145	5548.97
635.339	5520.3
635.533	5419.95
635.726	5391.28
635.92	5456.81
636.114	5495.72
636.308	5288.88
636.501	5405.61
636.695	5292.98
636.889	5272.5
637.083	5172.15
637.276	5166
637.47	5063.6
637.664	5028.79
637.857	5211.06
638.051	5039.03
638.244	4897.72
638.438	5049.27
638.632	4860.85
638.825	4891.57
639.019	4893.62
639.212	4920.24
639.406	5053.36
639.599	4916.15
639.793	4754.36
639.986	4760.5
640.18	4793.27
640.373	4727.74
640.567	4627.39
640.76	4606.91
640.954	4658.1
641.147	4570.04
641.34	4565.95
641.534	4496.32
641.727	4586.43
641.92	4506.56
642.114	4551.61
642.307	4508.6
642.5	4484.03
642.694	4223.94
642.887	4422.59
643.08	4490.17
643.273	4389.82
643.467	4324.29
643.66	4260.8
643.853	4158.4
644.046	4307.9
644.239	4182.98
644.432	4252.61
644.626	4187.07
644.819	4154.3
645.012	4154.3
645.205	4160.45
645.398	4012.99
645.591	3926.98
645.784	3933.12
645.977	4072.39
646.17	3945.41
646.363	3894.21
646.556	3855.3
646.749	3953.6
646.942	3869.64
647.135	4035.52
647.328	3908.55
647.521	3898.31
647.714	3748.81
647.907	3873.73
648.099	3713.99
648.292	3802.05
648.485	3734.47
648.678	3752.9
648.871	3566.54
649.064	3640.26
649.256	3689.42
649.449	3625.93
649.642	3548.11
649.835	3535.82
650.027	3503.05
650.22	3441.61
650.413	3523.53
650.605	3476.43
650.798	3388.36
650.991	3335.12
651.183	3337.17
651.376	3361.74
651.568	3394.51
651.761	3417.04
651.954	3419.08
652.146	3261.39
652.339	3339.21
652.531	3228.62
652.724	3199.95
652.916	3206.1
653.109	3306.45
653.301	3242.96
653.494	3156.94
653.686	3050.45
653.879	3175.38
654.071	3056.59
654.263	3066.83
654.456	3193.81
654.648	3130.32
654.84	2976.72
655.033	3015.63
655.225	3064.79
655.417	2870.23
655.61	2986.96
655.802	2941.91
655.994	2941.91
656.186	2937.81
656.379	2843.6
656.571	2855.89
656.763	2894.8
656.955	2827.22
657.148	2909.14
657.34	2857.94
657.532	2812.89
657.724	2737.11
657.916	2868.18
658.108	2874.32
658.3	2765.78
658.492	2761.69
658.684	2679.77
658.876	2667.48
659.068	2642.9
659.26	2620.38
659.452	2667.48
659.644	2665.43
659.836	2534.36
660.028	2522.07
660.22	2704.34
660.412	2642.9
660.604	2499.55
660.796	2487.26
660.988	2507.74
661.18	2552.79
661.372	2466.78
661.563	2436.06
661.755	2474.97
661.947	2440.15
662.139	2464.73
662.331	2417.63
662.522	2425.82
662.714	2444.25
662.906	2354.14
663.097	2403.29
663.289	2337.76
663.481	2261.98
663.673	2425.82
663.864	2311.13
664.056	2278.37
664.247	2438.11
664.439	2053.09
664.631	2280.41
664.822	2077.66
665.014	2198.49
665.205	2229.21
665.397	2169.82
665.588	2130.91
665.78	2276.32
665.971	2270.17
666.163	2190.3
666.354	2192.35
666.546	2044.9
666.737	2110.43
666.929	2130.91
667.12	2104.29
667.311	2137.06
667.503	2126.82
667.694	2106.34
667.885	2124.77
668.077	2032.61
668.268	2055.14
668.459	1987.55
668.651	1991.65
668.842	1969.12
669.033	2053.09
669.224	1981.41
669.416	2059.23
669.607	1895.4
669.798	1915.87
669.989	2003.94
670.18	1868.77
670.371	2046.94
670.563	1821.67
670.754	1950.69
670.945	2044.9
671.136	1874.92
671.327	1811.43
671.518	1950.69
671.709	1862.63
671.9	1905.63
672.091	1840.1
672.282	1852.39
672.473	1758.18
672.664	1950.69
672.855	1780.71
673.046	1700.84
673.237	1844.2
673.428	1823.72
673.619	1786.85
673.809	1932.26
674	1774.56
674.191	1813.48
674.382	1762.28
674.573	1803.24
674.764	1790.95
674.954	1852.39
675.145	1813.48
675.336	1760.23
675.527	1737.7
675.717	1786.85
675.908	1838.05
676.099	1809.38
676.289	1803.24
676.48	1719.27
676.671	1762.28
676.861	1805.28
677.052	1713.13
677.243	1694.69
677.433	1717.22
677.624	1647.59
677.814	1737.7
678.005	1739.75
678.195	1709.03
678.386	1741.8
678.576	1627.11
678.767	1694.69
678.957	1688.55
679.148	1729.51
679.338	1657.83
679.529	1696.74
679.719	1672.17
679.909	1694.69
680.1	1616.87
680.29	1651.69
680.481	1663.97
680.671	1684.45
680.861	1686.5
681.052	1676.26
681.242	1676.26
681.432	1739.75
681.622	1645.54
681.813	1561.58
682.003	1627.11
682.193	1666.02
682.383	1588.2
682.573	1663.97
682.764	1680.36
682.954	1696.74
683.144	1639.4
683.334	1684.45
683.524	1661.93
683.714	1610.73
683.904	1582.06
684.094	1647.59
684.284	1668.07
684.474	1643.49
684.664	1631.21
684.854	1475.56
685.044	1631.21
685.234	1551.34
685.424	1549.29
685.614	1567.72
685.804	1504.23
685.994	1614.82
686.184	1598.44
686.374	1602.54
686.564	1633.26
686.753	1571.82
686.943	1508.33
687.133	1461.23
687.323	1450.99
687.513	1610.73
687.702	1498.09
687.892	1559.53
688.082	1580.01
688.272	1549.29
688.461	1565.67
688.651	1549.29
688.841	1567.72
689.03	1561.58
689.22	1442.79
689.41	1526.76
689.599	1530.86
689.789	1414.12
689.979	1600.49
690.168	1498.09
690.358	1563.62
690.547	1491.95
690.737	1465.32
690.926	1534.95
691.116	1434.6
691.305	1479.66
691.495	1479.66
691.684	1522.66
691.874	1604.58
692.063	1496.04
692.252	1559.53
692.442	1588.2
692.631	1520.62
692.82	1502.19
693.01	1436.65
693.199	1508.33
693.388	1483.75
693.578	1545.19
693.767	1602.54
693.956	1551.34
694.146	1444.84
694.335	1424.36
694.524	1534.95
694.713	1483.75
694.902	1448.94
695.092	1520.62
695.281	1450.99
695.47	1561.58
695.659	1620.97
695.848	1479.66
696.037	1594.34
696.226	1573.86
696.415	1500.14
696.604	1577.96
696.793	1477.61
696.982	1512.42
697.171	1586.15
697.36	1477.61
697.549	1463.27
697.738	1518.57
697.927	1467.37
698.116	1567.72
698.305	1479.66
698.494	1545.19
698.683	1508.33
698.872	1475.56
699.061	1514.47
699.25	1539.05
699.438	1541.1
699.627	1623.02
699.816	1469.42
700.005	1522.66
700.193	1448.94
700.382	1618.92
700.571	1469.42
700.76	1498.09
700.948	1567.72
701.137	1448.94
701.326	1481.71
701.514	1526.76
701.703	1461.23
701.892	1500.14
702.08	1502.19
702.269	1537
702.457	1532.9
702.646	1393.64
702.834	1477.61
703.023	1459.18
703.212	1569.77
703.4	1459.18
703.589	1410.03
703.777	1522.66
703.965	1434.6
704.154	1537
704.342	1457.13
704.531	1465.32
704.719	1444.84
704.907	1518.57
705.096	1448.94
705.284	1436.65
705.472	1450.99
705.661	1528.81
705.849	1436.65
706.037	1405.93
706.226	1397.74
706.414	1461.23
706.602	1461.23
706.79	1410.03
706.979	1385.45
707.167	1418.22
707.355	1430.51
707.543	1442.79
707.731	1448.94
707.919	1442.79
708.107	1270.76
708.296	1465.32
708.484	1459.18
708.672	1373.16
708.86	1393.64
709.048	1319.92
709.236	1385.45
709.424	1356.78
709.612	1401.83
709.8	1391.59
709.988	1389.55
710.176	1387.5
710.364	1375.21
710.551	1319.92
710.739	1369.07
710.927	1403.88
711.115	1426.41
711.303	1393.64
711.491	1336.3
711.679	1278.96
711.866	1387.5
712.054	1401.83
712.242	1289.2
712.43	1475.56
712.617	1315.82
712.805	1297.39
712.993	1319.92
713.181	1266.67
713.368	1250.28
713.556	1272.81
713.744	1264.62
713.931	1367.02
714.119	1287.15
714.306	1229.81
714.494	1229.81
714.682	1246.19
714.869	1258.48
715.057	1395.69
715.244	1319.92
715.432	1303.53
715.619	1233.9
715.807	1186.8
715.994	1235.95
716.182	1276.91
716.369	1336.3
716.556	1285.1
716.744	1227.76
716.931	1338.35
717.119	1242.09
717.306	1213.42
717.493	1178.61
717.681	1221.61
717.868	1205.23
718.055	1254.38
718.242	1250.28
718.43	1207.28
718.617	1268.72
718.804	1182.7
718.991	1260.52
719.179	1221.61
719.366	1217.52
719.553	1166.32
719.74	1227.76
719.927	1170.41
720.114	1149.93
720.301	1174.51
720.488	1205.23
720.676	1154.03
720.863	1070.06
721.05	1162.22
721.237	1127.41
721.424	1115.12
721.611	1168.37
721.798	1031.15
721.985	1117.17
722.172	1199.09
722.358	1025.01
722.545	1143.79
722.732	1141.74
722.919	1115.12
723.106	1147.89
723.293	1131.5
723.48	1188.85
723.667	1047.54
723.853	1168.37
724.04	1090.54
724.227	1086.45
724.414	1063.92
724.6	1076.21
724.787	1098.74
724.974	1151.98
725.161	1086.45
725.347	1094.64
725.534	967.67
725.72	1076.21
725.907	1076.21
726.094	1115.12
726.28	941.04
726.467	1053.68
726.653	1074.16
726.84	1090.54
727.027	1129.45
727.213	943.09
727.4	1063.92
727.586	1074.16
727.773	1010.67
727.959	1014.77
728.145	1002.48
728.332	1055.73
728.518	889.84
728.705	1027.06
728.891	1002.48
729.077	953.33
729.264	887.79
729.45	1033.2
729.636	969.71
729.823	998.38
730.009	990.19
730.195	928.75
730.382	1051.63
730.568	1041.39
730.754	992.24
730.94	992.24
731.126	945.14
731.313	1022.96
731.499	1016.82
731.685	994.29
731.871	975.86
732.057	975.86
732.243	1014.77
732.429	996.34
732.615	959.47
732.801	1027.06
732.987	930.8
733.173	1000.43
733.359	943.09
733.545	930.8
733.731	924.66
733.917	945.14
734.103	961.52
734.289	961.52
734.475	930.8
734.661	887.79
734.847	918.51
735.033	859.12
735.219	861.17
735.404	959.47
735.59	891.89
735.776	953.33
735.962	885.75
736.148	951.28
736.333	869.36
736.519	945.14
736.705	877.55
736.89	912.37
737.076	906.23
737.262	893.94
737.447	912.37
737.633	918.51
737.819	895.99
738.004	826.36
738.19	922.61
738.375	812.02
738.561	959.47
738.747	885.75
738.932	945.14
739.118	816.12
739.303	832.5
739.489	918.51
739.674	865.27
739.859	777.2
740.045	793.59
740.23	920.56
740.416	762.87
740.601	885.75
740.786	748.53
740.972	910.32
741.157	791.54
741.342	830.45
741.528	848.88
741.713	828.4
741.898	916.47
742.084	818.16
742.269	795.64
742.454	777.2
742.639	820.21
742.824	824.31
743.01	875.51
743.195	746.48
743.38	713.72
743.565	820.21
743.75	797.68
743.935	793.59
744.12	779.25
744.305	771.06
744.49	822.26
744.675	762.87
744.86	746.48
745.045	766.96
745.23	719.86
745.415	746.48
745.6	787.44
745.785	744.44
745.97	752.63
746.155	773.11
746.34	762.87
746.525	703.48
746.71	707.57
746.895	711.67
747.079	617.46
747.264	721.91
747.449	754.68
747.634	695.29
747.819	740.34
748.003	732.15
748.188	664.57
748.373	701.43
748.557	683
748.742	627.7
748.927	631.8
749.111	658.42
749.296	582.65
749.481	676.85
749.665	670.71
749.85	672.76
750.034	644.09
750.219	633.85
750.404	668.66
750.588	566.26
750.773	590.84
750.957	666.61
751.141	662.52
751.326	603.13
751.51	633.85
751.695	619.51
751.879	562.17
752.064	549.88
752.248	615.41
752.432	611.32
752.617	617.46
752.801	599.03
752.985	637.94
753.17	615.41
753.354	531.45
753.538	513.02
753.722	539.64
753.907	480.25
754.091	617.46
754.275	541.69
754.459	553.98
754.643	529.4
754.828	586.74
755.012	537.59
755.196	578.55
755.38	594.93
755.564	486.39
755.748	510.97
755.932	510.97
756.116	500.73
756.3	541.69
756.484	547.83
756.668	656.37
756.852	441.34
757.036	435.19
757.22	539.64
757.404	461.82
757.588	476.15
757.772	568.31
757.956	533.5
758.14	453.63
758.323	519.16
758.507	414.71
758.691	476.15
758.875	441.34
759.059	443.39
759.242	453.63
759.426	441.34
759.61	406.52
759.794	420.86
759.977	490.49
760.161	519.16
760.345	422.91
760.528	470.01
760.712	424.95
760.895	461.82
761.079	470.01
761.263	429.05
761.446	408.57
761.63	402.43
761.813	441.34
761.997	365.56
762.18	386.04
762.364	431.1
762.547	371.71
762.731	439.29
762.914	369.66
763.098	414.71
763.281	357.37
763.464	320.51
763.648	381.95
763.831	420.86
764.015	377.85
764.198	443.39
764.381	381.95
764.564	388.09
764.748	443.39
764.931	424.95
765.114	291.84
765.297	363.51
765.481	414.71
765.664	422.91
765.847	379.9
766.03	488.44
766.213	427
766.397	328.7
766.58	377.85
766.763	377.85
766.946	347.13
767.129	336.89
767.312	371.71
767.495	408.57
767.678	398.33
767.861	375.8
768.044	361.47
768.227	420.86
768.41	347.13
768.593	402.43
768.776	332.79
768.959	375.8
769.142	402.43
769.324	381.95
769.507	375.8
769.69	297.98
769.873	353.27
770.056	295.93
770.239	402.43
770.421	379.9
770.604	318.46
770.787	306.17
770.97	402.43
771.152	324.6
771.335	279.55
771.518	381.95
771.7	304.12
771.883	347.13
772.066	316.41
772.248	330.75
772.431	275.45
772.613	308.22
772.796	283.64
772.978	312.32
773.161	345.08
773.343	306.17
773.526	312.32
773.708	300.03
773.891	340.99
774.073	345.08
774.256	252.92
774.438	318.46
774.621	332.79
774.803	345.08
774.985	334.84
775.168	236.54
775.35	271.36
775.532	291.84
775.715	291.84
775.897	271.36
776.079	332.79
776.261	304.12
776.444	302.08
776.626	312.32
776.808	291.84
776.99	295.93
777.173	312.32
777.355	310.27
777.537	195.58
777.719	259.07
777.901	252.92
778.083	271.36
778.265	250.88
778.447	273.4
778.629	289.79
778.811	320.51
778.993	332.79
779.175	248.83
779.357	287.74
779.539	252.92
779.721	244.73
779.903	269.31
780.085	254.97
780.267	189.44
780.449	228.35
780.631	236.54
780.812	254.97
780.994	287.74
781.176	277.5
781.358	265.21
781.54	316.41
781.721	320.51
781.903	224.25
782.085	191.49
782.267	285.69
782.448	259.07
782.63	265.21
782.812	293.88
782.993	257.02
783.175	203.77
783.357	175.1
783.538	246.78
783.72	310.27
783.901	207.87
784.083	201.72
784.264	242.68
784.446	171.01
784.627	214.01
784.809	150.53
784.99	193.53
785.172	203.77
785.353	271.36
785.535	171.01
785.716	242.68
785.897	181.25
786.079	156.67
786.26	257.02
786.441	177.15
786.623	191.49
786.804	158.72
786.985	238.59
787.167	177.15
787.348	156.67
787.529	222.2
787.71	175.1
787.891	205.82
788.073	183.29
788.254	197.63
788.435	132.09
788.616	193.53
788.797	140.29
788.978	197.63
789.159	177.15
789.34	185.34
789.522	148.48
789.703	125.95
789.884	158.72
790.065	248.83
790.246	179.2
790.427	173.05
790.607	173.05
790.788	191.49
790.969	185.34
791.15	117.76
791.331	130.05
791.512	177.15
791.693	117.76
791.874	173.05
792.054	183.29
792.235	185.34
792.416	156.67
792.597	136.19
792.778	142.33
792.958	113.66
793.139	150.53
793.32	134.14
793.5	119.81
793.681	216.06
793.862	107.52
794.042	105.47
794.223	164.86
794.404	125.95
794.584	35.84
794.765	142.33
794.945	76.8
795.126	199.68
795.306	138.24
795.487	117.76
795.667	89.09
795.848	195.58
796.028	60.42
796.209	164.86
796.389	158.72
796.57	136.19
796.75	125.95
796.93	164.86
797.111	97.28
797.291	101.37
797.471	125.95
797.652	115.71
797.832	150.53
798.012	132.09
798.192	105.47
798.373	82.94
798.553	111.61
798.733	74.75
798.913	54.27
799.093	138.24
799.274	111.61
799.454	199.68
799.634	87.04
799.814	136.19
799.994	70.65
800.174	70.65
800.354	164.86
800.534	80.89
800.714	93.18
800.894	99.33
801.074	117.76
801.254	64.51
801.434	103.42
801.614	117.76
801.794	48.13
801.974	318.46
802.154	58.37
802.334	60.42
802.514	97.28
802.693	44.03
802.873	39.94
803.053	117.76
803.233	91.13
803.413	78.85
803.592	46.08
803.772	109.57
803.952	130.05
804.131	111.61
804.311	64.51
804.491	109.57
804.67	101.37
804.85	80.89
805.03	101.37
805.209	109.57
805.389	74.75
805.568	27.65
805.748	54.27
805.928	173.05
806.107	95.23
806.287	41.98
806.466	78.85
806.646	121.85
806.825	117.76
807.004	44.03
807.184	99.33
807.363	44.03
807.543	74.75
807.722	87.04
807.901	72.7
808.081	1.02
808.26	3.07
808.439	70.65
808.619	78.85
808.798	91.13
808.977	80.89
809.156	62.46
809.336	91.13
809.515	123.9
809.694	44.03
809.873	95.23
810.052	82.94
810.231	146.43
810.411	70.65
810.59	72.7
810.769	107.52
810.948	107.52
811.127	25.6
811.306	54.27
811.485	93.18
811.664	140.29
811.843	62.46
812.022	93.18
812.201	80.89
812.38	117.76
812.559	62.46
812.737	84.99
812.916	17.41
813.095	66.56
813.274	50.18
813.453	46.08
813.632	82.94
813.811	111.61
813.989	74.75
814.168	87.04
814.347	9.22
814.526	91.13
814.704	76.8
814.883	93.18
815.062	60.42
815.24	76.8
815.419	56.32
815.598	1.02
815.776	84.99
815.955	33.79
816.133	23.55
816.312	9.22
816.49	-1.02
816.669	74.75
816.847	64.51
817.026	111.61
817.204	111.61
817.383	15.36
817.561	37.89
817.74	84.99
817.918	27.65
818.097	21.5
818.275	21.5
818.453	41.98
818.632	74.75
818.81	64.51
818.988	66.56
819.167	-25.6
819.345	99.33
819.523	80.89
819.701	60.42
819.879	31.74
820.058	97.28
820.236	33.79
820.414	44.03
820.592	87.04
820.77	76.8
820.948	60.42
821.127	60.42
821.305	99.33
821.483	7.17
821.661	21.5
821.839	25.6
822.017	9.22
822.195	-3.07
822.373	35.84
822.551	64.51
822.729	25.6
822.907	84.99
823.085	44.03
823.262	50.18
823.44	82.94
823.618	46.08
823.796	-3.07
823.974	64.51
824.152	68.61
824.329	80.89
824.507	64.51
824.685	33.79
824.863	33.79
825.04	19.46
825.218	87.04
825.396	13.31
825.574	29.7
825.751	62.46
825.929	5.12
826.107	37.89
826.284	-5.12
826.462	-3.07
826.639	46.08
826.817	9.22
826.994	123.9
827.172	21.5
827.349	58.37
827.527	-11.26
827.704	37.89
827.882	87.04
828.059	115.71
828.237	-7.17
828.414	60.42
828.591	-29.7
828.769	62.46
828.946	44.03
829.124	89.09
829.301	35.84
829.478	41.98
829.655	95.23
829.833	82.94
830.01	46.08
830.187	146.43
830.364	11.26
830.542	37.89
830.719	15.36
830.896	37.89
831.073	62.46
831.25	89.09
831.427	80.89
831.604	80.89
831.782	46.08
831.959	78.85
832.136	33.79
832.313	11.26
832.49	52.22
832.667	70.65
832.844	-39.94
833.021	89.09
833.198	64.51
833.374	11.26
833.551	-41.98
833.728	19.46
833.905	89.09
834.082	60.42
834.259	35.84
834.436	107.52
834.612	-13.31
834.789	44.03
834.966	33.79
835.143	-35.84
835.319	68.61
835.496	33.79
835.673	70.65
835.85	58.37
836.026	-21.5
836.203	64.51
836.38	11.26
836.556	17.41
836.733	7.17
836.909	74.75
837.086	9.22
837.262	39.94
837.439	-1.02
837.616	50.18
837.792	74.75
837.968	3.07
838.145	9.22
838.321	44.03
838.498	-70.65
838.674	80.89
838.851	-13.31
839.027	25.6
839.203	44.03
839.38	-9.22
839.556	80.89
839.732	35.84
839.909	19.46
840.085	82.94
840.261	13.31
840.437	78.85
840.614	62.46
840.79	11.26
840.966	68.61
841.142	140.29
841.318	17.41
841.494	11.26
841.671	37.89
841.847	33.79
842.023	29.7
842.199	35.84
842.375	19.46
842.551	13.31
842.727	-13.31
842.903	87.04
843.079	5.12
843.255	9.22
843.431	95.23
843.607	-13.31
843.783	-3.07
843.959	58.37
844.134	15.36
844.31	5.12
844.486	-3.07
844.662	31.74
844.838	-64.51
845.013	44.03
845.189	-13.31
845.365	-48.13
845.541	1.02
845.716	39.94
845.892	33.79
846.068	-29.7
846.244	-60.42
846.419	-3.07
846.595	9.22
846.77	3.07
846.946	-1.02
847.122	29.7
847.297	33.79
847.473	52.22
847.648	1.02
847.824	25.6
847.999	-33.79
848.175	58.37
848.35	-23.55
848.526	66.56
848.701	66.56
848.876	87.04
849.052	44.03
849.227	99.33
849.403	29.7
849.578	11.26
849.753	-37.89
849.929	66.56
850.104	35.84
850.279	27.65
850.454	-9.22
850.63	50.18
850.805	11.26
850.98	-5.12
851.155	9.22
851.33	17.41
851.505	29.7
851.681	80.89
851.856	-41.98
852.031	91.13
852.206	-7.17
852.381	-23.55
852.556	82.94
852.731	50.18
852.906	27.65
853.081	-13.31
853.256	93.18
853.431	101.37
853.606	48.13
853.781	60.42
853.956	33.79
854.131	-5.12
854.305	-7.17
854.48	101.37
854.655	-44.03
854.83	58.37
855.005	11.26
855.18	91.13
855.354	-39.94
855.529	41.98
855.704	23.55
855.879	-44.03
856.053	17.41
856.228	68.61
856.403	-44.03
856.577	-29.7
856.752	-48.13
856.926	21.5
857.101	-11.26
857.276	21.5
857.45	-21.5
857.625	17.41
857.799	25.6
857.974	-1.02
858.148	35.84
858.323	5.12
858.497	-21.5
858.672	-31.74
858.846	50.18
859.02	68.61
859.195	11.26
859.369	13.31
859.543	41.98
859.718	72.7
859.892	-56.32
860.066	1.02
860.241	1.02
860.415	-31.74
860.589	-3.07
860.763	1.02
860.938	-39.94
861.112	13.31
861.286	-9.22
861.46	21.5
861.634	35.84
861.808	-13.31
861.982	21.5
862.157	1.02
862.331	-9.22
862.505	44.03
862.679	-21.5
862.853	89.09
863.027	-19.46
863.201	-5.12
863.375	25.6
863.549	25.6
863.722	-74.75
863.896	33.79
864.07	33.79
864.244	3.07
864.418	-15.36
864.592	1.02
864.766	-5.12
864.939	5.12
865.113	-87.04
865.287	9.22
865.461	41.98
865.634	46.08
865.808	-33.79
865.982	48.13
866.156	-15.36
866.329	-58.37
866.503	17.41
866.676	37.89
866.85	91.13
867.024	-9.22
867.197	-23.55
867.371	39.94
867.544	-13.31
867.718	-9.22
867.891	17.41
868.065	23.55
868.238	-21.5
868.412	33.79
868.585	46.08
868.759	-21.5
868.932	50.18
869.105	60.42
869.279	3.07
869.452	-58.37
869.625	11.26
869.799	19.46
869.972	21.5
870.145	25.6
870.319	21.5
870.492	1.02
870.665	-31.74
870.838	5.12
871.011	11.26
871.185	5.12
871.358	23.55
871.531	37.89
871.704	-48.13
871.877	17.41
872.05	-13.31
872.223	-3.07
872.396	76.8
872.569	5.12
872.742	-25.6
872.915	5.12
873.088	-50.18
873.261	5.12
873.434	-1.02
873.607	-54.27
873.78	33.79
873.953	50.18
874.126	105.47
874.299	17.41
874.471	58.37
874.644	3.07
874.817	-9.22
874.99	-3.07
875.163	19.46
875.335	23.55
875.508	39.94
875.681	130.05
875.853	-91.13
876.026	41.98
876.199	-29.7
876.371	62.46
876.544	-35.84
876.717	15.36
876.889	68.61
877.062	-11.26
877.234	1.02
877.407	39.94
877.579	46.08
877.752	13.31
877.924	37.89
878.097	25.6
878.269	1.02
878.442	1.02
878.614	-1.02
878.786	-13.31
878.959	-78.85
879.131	-23.55
879.303	74.75
879.476	58.37
879.648	35.84
879.82	37.89
879.993	54.27
880.165	1.02
880.337	-29.7
880.509	13.31
880.681	82.94
880.854	-23.55
881.026	62.46
881.198	-1.02
881.37	-7.17
881.542	25.6
881.714	3.07
881.886	70.65
882.058	-31.74
882.23	13.31
882.402	-7.17
882.574	-7.17
882.746	37.89
882.918	46.08
883.09	-33.79
883.262	27.65
883.434	-31.74
883.606	-31.74
883.778	-23.55
883.95	-15.36
884.122	35.84
884.293	68.61
884.465	54.27
884.637	52.22
884.809	25.6
884.98	-15.36
885.152	-58.37
885.324	-15.36
885.496	9.22
885.667	-5.12
885.839	-17.41
886.011	-3.07
886.182	-56.32
886.354	-3.07
886.525	-7.17
886.697	11.26
886.869	-82.94
887.04	11.26
887.212	52.22
887.383	27.65
887.555	-13.31
887.726	31.74
887.897	-52.22
888.069	68.61
888.24	25.6
888.412	29.7
888.583	-15.36
888.754	48.13
888.926	-44.03
889.097	-5.12
889.268	-62.46
889.44	35.84
889.611	-23.55
889.782	-72.7
889.953	29.7
890.125	3.07
890.296	-17.41
890.467	-64.51
890.638	19.46
890.809	9.22
890.98	-52.22
891.151	82.94
891.323	35.84
891.494	3.07
891.665	25.6
891.836	9.22
892.007	19.46
892.178	60.42
892.349	68.61
892.52	41.98
892.691	-15.36
892.862	-29.7
893.032	13.31
893.203	54.27
893.374	66.56
893.545	52.22
893.716	-29.7
893.887	89.09
894.057	19.46
894.228	1.02
894.399	-27.65
894.57	60.42
894.74	13.31
894.911	23.55
895.082	35.84
895.253	-7.17
895.423	-29.7
895.594	52.22
895.764	-17.41
895.935	-35.84
896.106	15.36
896.276	-19.46
896.447	31.74
896.617	54.27
896.788	15.36
896.958	68.61
897.129	52.22
897.299	17.41
897.47	25.6
897.64	11.26
897.81	-17.41
897.981	-48.13
898.151	-52.22
898.322	-31.74
898.492	9.22
898.662	58.37
898.832	27.65
899.003	17.41
899.173	23.55
899.343	15.36
899.513	-7.17
