Data from USB4F104151__282__14-02-29-638.txt Node

Date: Thu Mar 13 14:02:29 EDT 2025
User: louis
Spectrometer: USB4F10415
Trigger mode: 4
Integration Time (sec): 1.000000E-2
Scans to average: 1
Electric dark correction enabled: true
Nonlinearity correction enabled: false
Boxcar width: 0
XAxis mode: Wavelengths
Number of Pixels in Spectrum: 3648
>>>>>Begin Spectral Data<<<<<
178.204	-55.47
178.424	-55.47
178.644	-55.47
178.864	-39.08
179.084	-16.55
179.304	5.97
179.524	42.84
179.744	-43.18
179.964	12.12
180.184	8.02
180.404	8.02
180.624	-0.17
180.844	-2.22
181.064	-4.27
181.283	14.17
181.503	-10.41
181.723	-30.89
181.943	-49.32
182.163	-18.6
182.383	-18.6
182.602	-0.17
182.822	5.97
183.042	-22.7
183.262	24.4
183.482	28.5
183.701	55.12
183.921	20.31
184.141	26.45
184.361	-16.55
184.58	-37.03
184.8	34.64
185.02	-80.04
185.239	73.56
185.459	-18.6
185.679	132.95
185.898	73.56
186.118	40.79
186.338	34.64
186.557	-24.75
186.777	12.12
186.997	3.93
187.216	26.45
187.436	-14.51
187.655	75.6
187.875	-12.46
188.095	1.88
188.314	10.07
188.534	-26.79
188.753	14.17
188.973	34.64
189.192	5.97
189.412	63.32
189.631	3.93
189.851	-6.31
190.07	8.02
190.29	-34.99
190.509	24.4
190.729	16.21
190.948	108.37
191.168	87.89
191.387	79.7
191.607	8.02
191.826	1.88
192.045	-43.18
192.265	10.07
192.484	40.79
192.704	20.31
192.923	63.32
193.142	-12.46
193.362	16.21
193.581	10.07
193.8	20.31
194.02	-16.55
194.239	38.74
194.458	126.8
194.678	110.42
194.897	26.45
195.116	20.31
195.335	-16.55
195.555	51.03
195.774	51.03
195.993	-24.75
196.212	94.04
196.432	10.07
196.651	38.74
196.87	51.03
197.089	51.03
197.308	42.84
197.528	36.69
197.747	-55.47
197.966	32.6
198.185	57.17
198.404	46.93
198.623	42.84
198.842	24.4
199.062	55.12
199.281	59.22
199.5	18.26
199.719	-28.84
199.938	34.64
200.157	-0.17
200.376	26.45
200.595	-43.18
200.814	32.6
201.033	26.45
201.252	-14.51
201.471	-6.31
201.69	42.84
201.909	20.31
202.128	28.5
202.347	14.17
202.566	28.5
202.785	14.17
203.004	-6.31
203.223	98.13
203.442	-26.79
203.661	-18.6
203.879	38.74
204.098	46.93
204.317	57.17
204.536	77.65
204.755	77.65
204.974	83.8
205.193	1.88
205.411	-2.22
205.63	5.97
205.849	36.69
206.068	55.12
206.287	-28.84
206.505	75.6
206.724	18.26
206.943	-0.17
207.162	-22.7
207.381	85.84
207.599	46.93
207.818	16.21
208.037	34.64
208.255	3.93
208.474	26.45
208.693	20.31
208.911	59.22
209.13	34.64
209.349	10.07
209.567	14.17
209.786	59.22
210.005	-2.22
210.223	100.18
210.442	57.17
210.661	12.12
210.879	61.27
211.098	42.84
211.316	34.64
211.535	81.75
211.753	18.26
211.972	12.12
212.191	20.31
212.409	108.37
212.628	85.84
212.846	26.45
213.065	12.12
213.283	26.45
213.502	3.93
213.72	40.79
213.938	38.74
214.157	67.41
214.375	26.45
214.594	10.07
214.812	51.03
215.031	63.32
215.249	-28.84
215.467	42.84
215.686	14.17
215.904	12.12
216.122	79.7
216.341	30.55
216.559	100.18
216.778	-14.51
216.996	53.08
217.214	38.74
217.432	-47.27
217.651	79.7
217.869	30.55
218.087	-2.22
218.306	38.74
218.524	22.36
218.742	-41.13
218.96	73.56
219.179	83.8
219.397	57.17
219.615	-4.27
219.833	-22.7
220.051	-53.42
220.27	38.74
220.488	69.46
220.706	59.22
220.924	16.21
221.142	10.07
221.36	26.45
221.578	-24.75
221.796	55.12
222.015	-20.65
222.233	75.6
222.451	18.26
222.669	75.6
222.887	34.64
223.105	26.45
223.323	32.6
223.541	5.97
223.759	42.84
223.977	-28.84
224.195	67.41
224.413	83.8
224.631	75.6
224.849	30.55
225.067	-2.22
225.285	28.5
225.503	79.7
225.721	14.17
225.939	96.08
226.157	18.26
226.375	83.8
226.592	-8.36
226.81	-49.32
227.028	34.64
227.246	83.8
227.464	-14.51
227.682	10.07
227.9	3.93
228.117	18.26
228.335	20.31
228.553	1.88
228.771	-75.95
228.989	67.41
229.206	26.45
229.424	-43.18
229.642	-26.79
229.86	-4.27
230.077	34.64
230.295	-12.46
230.513	69.46
230.731	59.22
230.948	26.45
231.166	116.56
231.384	18.26
231.601	-63.66
231.819	59.22
232.037	83.8
232.254	-16.55
232.472	1.88
232.689	-34.99
232.907	75.6
233.125	-2.22
233.342	-4.27
233.56	-22.7
233.777	1.88
233.995	10.07
234.213	-6.31
234.43	18.26
234.648	10.07
234.865	3.93
235.083	34.64
235.3	102.23
235.518	61.27
235.735	-14.51
235.953	75.6
236.17	-16.55
236.388	42.84
236.605	3.93
236.822	73.56
237.04	30.55
237.257	61.27
237.475	22.36
237.692	-22.7
237.909	24.4
238.127	24.4
238.344	-67.75
238.562	30.55
238.779	22.36
238.996	55.12
239.214	-16.55
239.431	79.7
239.648	44.88
239.865	-22.7
240.083	24.4
240.3	-14.51
240.517	48.98
240.735	3.93
240.952	10.07
241.169	59.22
241.386	3.93
241.603	-26.79
241.821	5.97
242.038	42.84
242.255	46.93
242.472	5.97
242.689	71.51
242.907	28.5
243.124	1.88
243.341	-69.8
243.558	30.55
243.775	42.84
243.992	59.22
244.209	-10.41
244.426	53.08
244.643	65.36
244.86	69.46
245.078	48.98
245.295	26.45
245.512	12.12
245.729	-14.51
245.946	104.28
246.163	55.12
246.38	46.93
246.597	44.88
246.814	-2.22
247.031	12.12
247.248	114.52
247.464	-47.27
247.681	46.93
247.898	3.93
248.115	46.93
248.332	44.88
248.549	122.71
248.766	14.17
248.983	32.6
249.2	106.32
249.417	22.36
249.633	-47.27
249.85	71.51
250.067	-12.46
250.284	30.55
250.501	8.02
250.717	124.76
250.934	10.07
251.151	51.03
251.368	-8.36
251.585	28.5
251.801	26.45
252.018	-2.22
252.235	81.75
252.451	14.17
252.668	8.02
252.885	-18.6
253.102	44.88
253.318	42.84
253.535	108.37
253.752	53.08
253.968	-24.75
254.185	-4.27
254.401	63.32
254.618	65.36
254.835	5.97
255.051	-0.17
255.268	22.36
255.484	12.12
255.701	36.69
255.917	3.93
256.134	-20.65
256.351	-20.65
256.567	18.26
256.784	5.97
257	3.93
257.217	26.45
257.433	-0.17
257.65	71.51
257.866	55.12
258.082	-45.23
258.299	63.32
258.515	81.75
258.732	3.93
258.948	69.46
259.165	-16.55
259.381	46.93
259.597	14.17
259.814	51.03
260.03	-16.55
260.246	14.17
260.463	63.32
260.679	8.02
260.895	12.12
261.112	36.69
261.328	34.64
261.544	8.02
261.761	-43.18
261.977	-47.27
262.193	-14.51
262.409	61.27
262.626	40.79
262.842	18.26
263.058	67.41
263.274	83.8
263.49	55.12
263.707	36.69
263.923	73.56
264.139	-30.89
264.355	-18.6
264.571	75.6
264.787	75.6
265.004	104.28
265.22	63.32
265.436	73.56
265.652	-20.65
265.868	-2.22
266.084	48.98
266.3	77.65
266.516	-2.22
266.732	14.17
266.948	10.07
267.164	79.7
267.38	59.22
267.596	16.21
267.812	51.03
268.028	28.5
268.244	42.84
268.46	77.65
268.676	24.4
268.892	3.93
269.108	-37.03
269.324	81.75
269.54	-20.65
269.756	55.12
269.972	18.26
270.188	-2.22
270.403	-14.51
270.619	18.26
270.835	-6.31
271.051	-12.46
271.267	65.36
271.483	59.22
271.698	38.74
271.914	51.03
272.13	61.27
272.346	30.55
272.562	59.22
272.777	112.47
272.993	-4.27
273.209	-14.51
273.425	102.23
273.64	-4.27
273.856	14.17
274.072	-12.46
274.287	44.88
274.503	-16.55
274.719	51.03
274.934	34.64
275.15	-24.75
275.366	-2.22
275.581	1.88
275.797	46.93
276.012	34.64
276.228	-20.65
276.444	40.79
276.659	75.6
276.875	18.26
277.09	-28.84
277.306	-32.94
277.521	10.07
277.737	-12.46
277.952	81.75
278.168	-28.84
278.383	53.08
278.599	-69.8
278.814	18.26
279.03	87.89
279.245	65.36
279.461	65.36
279.676	53.08
279.892	12.12
280.107	-8.36
280.322	10.07
280.538	46.93
280.753	-10.41
280.969	36.69
281.184	26.45
281.399	26.45
281.615	22.36
281.83	89.94
282.045	3.93
282.26	77.65
282.476	-43.18
282.691	26.45
282.906	18.26
283.122	36.69
283.337	-6.31
283.552	-6.31
283.767	67.41
283.983	65.36
284.198	18.26
284.413	28.5
284.628	36.69
284.843	-8.36
285.058	30.55
285.274	20.31
285.489	24.4
285.704	53.08
285.919	28.5
286.134	34.64
286.349	36.69
286.564	-2.22
286.779	48.98
286.995	36.69
287.21	69.46
287.425	106.32
287.64	-55.47
287.855	42.84
288.07	-22.7
288.285	65.36
288.5	-20.65
288.715	118.61
288.93	-4.27
289.145	59.22
289.36	28.5
289.575	-20.65
289.79	83.8
290.004	51.03
290.219	40.79
290.434	53.08
290.649	36.69
290.864	55.12
291.079	30.55
291.294	42.84
291.509	94.04
291.724	-39.08
291.938	51.03
292.153	46.93
292.368	1.88
292.583	83.8
292.798	38.74
293.012	63.32
293.227	5.97
293.442	20.31
293.657	114.52
293.871	57.17
294.086	-14.51
294.301	61.27
294.516	57.17
294.73	26.45
294.945	26.45
295.16	87.89
295.374	53.08
295.589	42.84
295.804	8.02
296.018	22.36
296.233	59.22
296.447	30.55
296.662	-26.79
296.877	-0.17
297.091	-26.79
297.306	30.55
297.52	53.08
297.735	51.03
297.949	118.61
298.164	89.94
298.378	-43.18
298.593	71.51
298.807	55.12
299.022	46.93
299.236	38.74
299.451	51.03
299.665	-4.27
299.88	75.6
300.094	34.64
300.309	48.98
300.523	46.93
300.737	22.36
300.952	-0.17
301.166	75.6
301.381	-49.32
301.595	59.22
301.809	-10.41
302.024	38.74
302.238	10.07
302.452	20.31
302.667	-16.55
302.881	1.88
303.095	96.08
303.309	40.79
303.524	51.03
303.738	-0.17
303.952	67.41
304.166	38.74
304.381	1.88
304.595	75.6
304.809	3.93
305.023	38.74
305.237	59.22
305.452	87.89
305.666	16.21
305.88	34.64
306.094	-6.31
306.308	26.45
306.522	30.55
306.736	77.65
306.95	10.07
307.164	-43.18
307.379	67.41
307.593	53.08
307.807	-10.41
308.021	10.07
308.235	75.6
308.449	36.69
308.663	-39.08
308.877	1.88
309.091	75.6
309.305	26.45
309.519	-18.6
309.733	69.46
309.947	24.4
310.161	63.32
310.374	-6.31
310.588	100.18
310.802	42.84
311.016	65.36
311.23	-8.36
311.444	36.69
311.658	51.03
311.872	-4.27
312.085	-4.27
312.299	57.17
312.513	65.36
312.727	89.94
312.941	18.26
313.154	12.12
313.368	18.26
313.582	24.4
313.796	51.03
314.009	24.4
314.223	26.45
314.437	59.22
314.651	94.04
314.864	-10.41
315.078	34.64
315.292	-0.17
315.505	42.84
315.719	-22.7
315.933	28.5
316.146	38.74
316.36	77.65
316.573	87.89
316.787	20.31
317.001	73.56
317.214	-41.13
317.428	-10.41
317.641	18.26
317.855	87.89
318.068	8.02
318.282	79.7
318.495	32.6
318.709	48.98
318.922	-12.46
319.136	100.18
319.349	75.6
319.563	71.51
319.776	51.03
319.99	10.07
320.203	-34.99
320.417	67.41
320.63	-10.41
320.843	38.74
321.057	87.89
321.27	55.12
321.483	-6.31
321.697	-0.17
321.91	36.69
322.124	59.22
322.337	18.26
322.55	-2.22
322.763	3.93
322.977	81.75
323.19	44.88
323.403	26.45
323.617	118.61
323.83	59.22
324.043	1.88
324.256	51.03
324.469	34.64
324.683	55.12
324.896	24.4
325.109	61.27
325.322	63.32
325.535	28.5
325.748	10.07
325.962	32.6
326.175	69.46
326.388	85.84
326.601	12.12
326.814	5.97
327.027	-4.27
327.24	59.22
327.453	83.8
327.666	139.09
327.879	16.21
328.092	67.41
328.305	38.74
328.518	3.93
328.731	67.41
328.944	55.12
329.157	1.88
329.37	5.97
329.583	118.61
329.796	34.64
330.009	-47.27
330.222	-18.6
330.435	100.18
330.648	-22.7
330.861	59.22
331.073	30.55
331.286	81.75
331.499	16.21
331.712	5.97
331.925	108.37
332.138	5.97
332.35	53.08
332.563	48.98
332.776	51.03
332.989	16.21
333.202	26.45
333.414	14.17
333.627	69.46
333.84	8.02
334.053	28.5
334.265	8.02
334.478	59.22
334.691	55.12
334.903	55.12
335.116	75.6
335.329	51.03
335.541	-22.7
335.754	30.55
335.966	-28.84
336.179	61.27
336.392	46.93
336.604	-10.41
336.817	24.4
337.029	34.64
337.242	-67.75
337.454	28.5
337.667	96.08
337.88	26.45
338.092	77.65
338.305	73.56
338.517	26.45
338.729	16.21
338.942	30.55
339.154	12.12
339.367	108.37
339.579	42.84
339.792	75.6
340.004	59.22
340.217	30.55
340.429	91.99
340.641	61.27
340.854	34.64
341.066	28.5
341.278	69.46
341.491	42.84
341.703	-2.22
341.915	36.69
342.128	100.18
342.34	-37.03
342.552	91.99
342.764	18.26
342.977	48.98
343.189	67.41
343.401	69.46
343.613	-30.89
343.826	53.08
344.038	-12.46
344.25	57.17
344.462	28.5
344.674	-6.31
344.886	-2.22
345.099	46.93
345.311	42.84
345.523	-22.7
345.735	26.45
345.947	59.22
346.159	83.8
346.371	77.65
346.583	20.31
346.795	-39.08
347.007	69.46
347.219	34.64
347.431	-2.22
347.643	91.99
347.855	30.55
348.067	48.98
348.279	-18.6
348.491	-2.22
348.703	48.98
348.915	59.22
349.127	57.17
349.339	149.33
349.551	-30.89
349.763	18.26
349.975	3.93
350.187	63.32
350.399	61.27
350.61	53.08
350.822	-6.31
351.034	53.08
351.246	40.79
351.458	59.22
351.669	85.84
351.881	36.69
352.093	55.12
352.305	87.89
352.517	85.84
352.728	53.08
352.94	-0.17
353.152	96.08
353.363	71.51
353.575	-10.41
353.787	1.88
353.999	67.41
354.21	51.03
354.422	46.93
354.633	118.61
354.845	53.08
355.057	22.36
355.268	108.37
355.48	20.31
355.692	34.64
355.903	71.51
356.115	28.5
356.326	-30.89
356.538	124.76
356.749	59.22
356.961	24.4
357.172	34.64
357.384	34.64
357.595	-24.75
357.807	81.75
358.018	75.6
358.23	12.12
358.441	44.88
358.653	67.41
358.864	51.03
359.075	28.5
359.287	18.26
359.498	61.27
359.709	32.6
359.921	63.32
360.132	48.98
360.344	85.84
360.555	59.22
360.766	42.84
360.977	28.5
361.189	106.32
361.4	59.22
361.611	16.21
361.823	26.45
362.034	5.97
362.245	-2.22
362.456	-32.94
362.667	100.18
362.879	59.22
363.09	44.88
363.301	75.6
363.512	38.74
363.723	44.88
363.935	-0.17
364.146	94.04
364.357	12.12
364.568	34.64
364.779	-24.75
364.99	30.55
365.201	38.74
365.412	30.55
365.623	75.6
365.834	85.84
366.045	-20.65
366.256	59.22
366.467	30.55
366.678	42.84
366.889	12.12
367.1	81.75
367.311	91.99
367.522	34.64
367.733	63.32
367.944	63.32
368.155	-8.36
368.366	36.69
368.577	71.51
368.788	71.51
368.999	5.97
369.209	8.02
369.42	98.13
369.631	141.14
369.842	30.55
370.053	30.55
370.264	141.14
370.474	38.74
370.685	34.64
370.896	1.88
371.107	42.84
371.317	116.56
371.528	12.12
371.739	96.08
371.95	22.36
372.16	42.84
372.371	51.03
372.582	75.6
372.792	91.99
373.003	67.41
373.214	71.51
373.424	34.64
373.635	34.64
373.846	1.88
374.056	96.08
374.267	34.64
374.477	87.89
374.688	83.8
374.898	59.22
375.109	173.91
375.319	46.93
375.53	10.07
375.74	112.47
375.951	36.69
376.161	40.79
376.372	32.6
376.582	83.8
376.793	91.99
377.003	71.51
377.214	24.4
377.424	40.79
377.635	85.84
377.845	71.51
378.055	102.23
378.266	24.4
378.476	104.28
378.686	59.22
378.897	59.22
379.107	12.12
379.317	48.98
379.528	55.12
379.738	38.74
379.948	59.22
380.158	40.79
380.369	65.36
380.579	91.99
380.789	40.79
380.999	75.6
381.21	32.6
381.42	83.8
381.63	75.6
381.84	51.03
382.05	79.7
382.261	42.84
382.471	18.26
382.681	87.89
382.891	102.23
383.101	-28.84
383.311	-32.94
383.521	28.5
383.731	1.88
383.941	85.84
384.151	102.23
384.361	26.45
384.571	87.89
384.781	98.13
384.991	53.08
385.201	79.7
385.411	12.12
385.621	36.69
385.831	32.6
386.041	10.07
386.251	83.8
386.461	75.6
386.671	85.84
386.881	65.36
387.091	53.08
387.301	114.52
387.511	20.31
387.72	-8.36
387.93	34.64
388.14	18.26
388.35	63.32
388.56	59.22
388.769	106.32
388.979	26.45
389.189	42.84
389.399	104.28
389.609	32.6
389.818	59.22
390.028	46.93
390.238	110.42
390.447	106.32
390.657	143.19
390.867	44.88
391.076	83.8
391.286	75.6
391.496	36.69
391.705	116.56
391.915	100.18
392.125	18.26
392.334	63.32
392.544	91.99
392.753	73.56
392.963	83.8
393.172	59.22
393.382	91.99
393.591	94.04
393.801	59.22
394.01	94.04
394.22	53.08
394.429	69.46
394.639	53.08
394.848	132.95
395.058	81.75
395.267	137.04
395.477	87.89
395.686	77.65
395.895	139.09
396.105	28.5
396.314	135
396.524	48.98
396.733	143.19
396.942	169.81
397.152	71.51
397.361	145.24
397.57	118.61
397.78	42.84
397.989	73.56
398.198	120.66
398.407	98.13
398.617	89.94
398.826	77.65
399.035	96.08
399.244	20.31
399.453	112.47
399.663	122.71
399.872	77.65
400.081	112.47
400.29	169.81
400.499	85.84
400.708	118.61
400.917	116.56
401.127	124.76
401.336	100.18
401.545	108.37
401.754	106.32
401.963	63.32
402.172	161.62
402.381	89.94
402.59	202.58
402.799	116.56
403.008	126.8
403.217	190.29
403.426	182.1
403.635	163.67
403.844	147.28
404.053	159.57
404.262	126.8
404.471	104.28
404.68	128.85
404.888	194.39
405.097	126.8
405.306	159.57
405.515	149.33
405.724	165.71
405.933	206.67
406.142	190.29
406.35	190.29
406.559	239.44
406.768	190.29
406.977	282.45
407.185	94.04
407.394	225.11
407.603	149.33
407.812	221.01
408.02	223.06
408.229	212.82
408.438	227.15
408.646	337.74
408.855	274.26
409.064	266.07
409.272	321.36
409.481	317.26
409.69	341.84
409.898	321.36
410.107	358.22
410.315	300.88
410.524	397.14
410.733	378.7
410.941	395.09
411.15	376.66
411.358	405.33
411.567	382.8
411.775	409.42
411.984	409.42
412.192	452.43
412.401	434
412.609	528.21
412.818	452.43
413.026	485.2
413.234	528.21
413.443	575.31
413.651	587.6
413.86	589.64
414.068	659.28
414.276	671.56
414.485	689.99
414.693	692.04
414.901	622.41
415.11	653.13
415.318	741.19
415.526	792.39
415.734	866.12
415.943	847.69
416.151	829.26
416.359	835.4
416.567	952.13
416.776	970.57
416.984	1005.38
417.192	1029.96
417.4	1048.39
417.608	1081.16
417.817	1036.1
418.025	1181.51
418.233	1363.78
418.441	1224.51
418.649	1244.99
418.857	1306.43
419.065	1417.02
419.273	1345.34
419.481	1509.18
419.689	1607.48
419.897	1550.14
420.105	1634.11
420.313	1716.03
420.521	1648.44
420.729	1664.83
420.937	1787.71
421.145	1918.78
421.353	1939.26
421.561	2000.69
421.769	1992.5
421.977	2168.63
422.185	2144.05
422.393	2309.94
422.601	2371.38
422.809	2457.39
423.017	2463.54
423.224	2402.1
423.432	2672.43
423.64	2666.28
423.848	2793.26
424.056	2909.99
424.263	2969.38
424.471	3122.98
424.679	3084.07
424.887	3188.52
425.094	3301.15
425.302	3454.75
425.51	3395.36
425.718	3622.69
425.925	3573.53
426.133	3833.63
426.341	3995.42
426.548	4245.27
426.756	4204.31
426.964	4224.79
427.171	4558.61
427.379	4640.53
427.586	4687.63
427.794	4777.74
428.001	4787.98
428.209	5234.44
428.417	5140.23
428.624	5533.44
428.832	5529.34
429.039	5404.42
429.247	5451.52
429.454	5971.71
429.662	6297.33
429.869	5977.85
430.076	6459.12
430.284	6225.65
430.491	6612.72
430.699	6872.81
430.906	6872.81
431.114	6907.63
431.321	7231.21
431.528	7345.89
431.736	7765.73
431.943	7923.42
432.15	7788.25
432.358	7872.22
432.565	8404.69
432.772	8369.88
432.979	8771.28
433.187	8799.95
433.394	9187.02
433.601	9602.75
433.808	9586.37
434.016	9606.85
434.223	10047.16
434.43	10536.63
434.637	10360.5
434.844	10968.75
435.052	11187.88
435.259	11093.68
435.466	11169.45
435.673	11116.2
435.88	11871.9
436.087	12420.76
436.294	12691.09
436.501	12326.55
436.708	12168.86
436.915	12881.55
437.122	13563.53
437.329	13323.91
437.537	13549.19
437.743	13983.36
437.95	13782.66
438.157	14741.11
438.364	15066.74
438.571	15052.4
438.778	15218.29
438.985	16610.9
439.192	16088.67
439.399	16447.07
439.606	16176.73
439.813	16957.01
440.02	18325.05
440.227	17847.88
440.433	17409.61
440.64	18058.82
440.847	18284.09
441.054	18566.71
441.261	19549.74
441.467	19672.62
441.674	19705.38
441.881	20174.37
442.088	20602.39
442.294	20448.8
442.501	20948.5
442.708	21073.43
442.914	22275.59
443.121	22935.03
443.328	22314.5
443.534	23733.74
443.741	23199.22
443.948	23031.29
444.154	24714.72
444.361	24460.77
444.568	24507.87
444.774	24708.57
444.981	24786.4
445.187	25486.8
445.394	26635.71
445.6	26547.65
445.807	28763.55
446.013	27540.91
446.22	28229.03
446.426	28820.89
446.633	29425.04
446.839	30522.76
447.046	29453.72
447.252	31114.62
447.459	31100.28
447.665	30442.88
447.871	32101.74
448.078	33289.56
448.284	32159.08
448.491	32320.87
448.697	33891.66
448.903	34540.87
449.11	34800.96
449.316	34192.72
449.522	34657.6
449.728	35511.61
449.935	35878.19
450.141	35478.84
450.347	36416.81
450.553	35128.64
450.76	35732.79
450.966	37117.21
451.172	36697.38
451.378	37541.14
451.584	36746.53
451.791	37653.78
451.997	37489.95
452.203	38364.43
452.409	38204.69
452.615	37700.89
452.821	36748.58
453.027	35802.42
453.233	37973.27
453.44	36631.85
453.646	36807.97
453.852	37051.68
454.058	37874.96
454.264	36287.79
454.47	37291.29
454.676	36461.86
454.882	37545.24
455.088	34411.85
455.294	35128.64
455.5	35491.13
455.705	35589.43
455.911	34422.09
456.117	33688.92
456.323	33248.6
456.529	31448.44
456.735	32939.36
456.941	31839.6
457.147	31452.53
457.352	30436.74
457.558	30344.58
457.764	30401.93
457.97	29660.56
458.176	29005.21
458.381	29181.34
458.587	27594.16
458.793	27854.25
458.999	26553.79
459.204	28388.77
459.41	27190.71
459.616	25591.25
459.821	25660.88
460.027	25376.21
460.233	25015.77
460.438	23645.68
460.644	24243.68
460.85	22992.37
461.055	22656.51
461.261	22361.6
461.466	20966.93
461.672	20327.97
461.878	21665.29
462.083	20166.18
462.289	19918.37
462.494	19785.26
462.7	19011.12
462.905	18290.24
463.111	18863.67
463.316	19054.13
463.522	18681.4
463.727	18560.57
463.932	18660.92
464.138	18148.93
464.343	18396.73
464.549	17897.03
464.754	18427.45
464.959	18187.84
465.165	18130.5
465.37	17331.79
465.575	17038.93
465.781	17751.62
465.986	17565.26
466.191	17151.57
466.397	16655.96
466.602	15818.34
466.807	16647.77
467.012	16649.82
467.218	16393.82
467.423	16254.56
467.628	16262.75
467.833	16782.93
468.038	16432.73
468.244	16117.34
468.449	16615
468.654	15971.94
468.859	15740.52
469.064	15840.87
469.269	15171.18
469.474	15451.75
469.679	15488.62
469.885	15091.31
470.09	15548.01
470.295	15355.5
470.5	14890.61
470.705	15279.72
470.91	14556.79
471.115	14605.94
471.32	14630.52
471.525	14562.94
471.73	14374.52
471.935	14130.81
472.139	13608.58
472.344	13901.44
472.549	13717.12
472.754	13465.22
472.959	13362.83
473.164	12924.56
473.369	12895.89
473.574	13381.26
473.778	13289.1
473.983	13178.51
474.188	13051.53
474.393	12398.23
474.598	12428.95
474.802	12527.25
475.007	12383.9
475.212	12379.8
475.417	12011.17
475.621	11941.54
475.826	11832.99
476.031	11759.27
476.235	11466.41
476.44	11783.84
476.645	11587.24
476.849	11503.27
477.054	11425.45
477.259	11120.3
477.463	11185.83
477.668	10749.62
477.872	11048.62
478.077	10749.62
478.282	10618.55
478.486	10403.51
478.691	10561.2
478.895	10575.54
479.1	10356.41
479.304	10626.74
479.509	9981.63
479.713	10260.15
479.918	9916.09
480.122	9789.12
480.326	9842.37
480.531	9873.09
480.735	9918.14
480.94	9823.94
481.144	10247.86
481.348	9658.05
481.553	9623.23
481.757	9531.08
481.961	9594.56
482.166	9989.82
482.37	9647.81
482.574	9400.01
482.778	9547.46
482.983	9707.2
483.187	9561.8
483.391	9782.98
483.595	9539.27
483.8	9479.88
484.004	9504.45
484.208	9592.51
484.412	9522.88
484.616	9699.01
484.821	9696.96
485.025	9498.31
485.229	9496.26
485.433	9455.3
485.637	9586.37
485.841	9508.55
486.045	9365.19
486.249	9658.05
486.453	9602.75
486.657	9619.14
486.861	9404.1
487.065	9182.92
487.269	9412.29
487.473	9434.82
487.677	9631.43
487.881	9623.23
488.085	9414.34
488.289	9516.74
488.493	9471.68
488.697	9514.69
488.901	9582.28
489.105	9600.71
489.309	9604.8
489.512	9832.13
489.716	9684.67
489.92	9733.82
490.124	9791.17
490.328	9729.73
490.531	9490.12
490.735	9674.43
490.939	9805.5
491.143	9766.59
491.346	9604.8
491.55	9799.36
491.754	9701.06
491.958	9852.61
492.161	9860.8
492.365	10026.68
492.569	9946.81
492.772	9998.01
492.976	10159.8
493.18	10165.95
493.383	10364.6
493.587	10436.28
493.79	10358.46
493.994	10434.23
494.197	10505.91
494.401	10841.78
494.605	10489.53
494.808	10919.6
495.012	10743.47
495.215	10872.5
495.419	11255.47
495.622	10958.51
495.825	11200.17
496.029	11005.61
496.232	11308.71
496.436	11388.58
496.639	11603.62
496.843	11515.56
497.046	11716.26
497.249	11736.74
497.453	11781.79
497.656	12068.51
497.859	12045.98
498.063	12054.17
498.266	12613.27
498.469	12527.25
498.673	12719.76
498.876	12687
499.079	12906.13
499.282	12947.09
499.485	13233.8
499.689	13368.97
499.892	13481.61
500.095	13393.54
500.298	13938.3
500.501	13715.08
500.705	14065.28
500.908	14141.05
501.111	14409.34
501.314	14653.05
501.517	14761.59
501.72	14958.19
501.923	14788.21
502.126	15181.42
502.329	15494.76
502.532	15582.82
502.735	15578.73
502.938	15865.44
503.141	15847.01
503.344	16096.86
503.547	16080.48
503.75	16768.6
503.953	16946.77
504.156	16819.8
504.359	17186.38
504.562	17098.32
504.765	17581.64
504.968	17800.77
505.17	17954.37
505.373	18003.52
505.576	18396.73
505.779	18673.21
505.982	18474.56
506.185	19140.15
506.387	19330.61
506.59	19336.75
506.793	19883.56
506.996	19756.58
507.198	20325.92
507.401	20049.44
507.604	20364.83
507.807	20934.17
508.009	20956.69
508.212	20975.13
508.415	21138.96
508.617	21726.73
508.82	21736.97
509.022	21884.42
509.225	22412.8
509.428	22728.19
509.63	22689.28
509.833	22726.14
510.035	23346.67
510.238	23381.49
510.44	23711.21
510.643	24167.91
510.845	24194.53
511.048	24165.86
511.25	24843.74
511.453	24675.8
511.655	25759.18
511.858	25630.16
512.06	25808.33
512.262	26011.08
512.465	26101.19
512.667	26860.99
512.87	26990.01
513.072	26805.69
513.274	27442.61
513.477	27745.71
513.679	27923.88
513.881	28329.38
514.084	28540.32
514.286	28689.82
514.488	28855.71
514.69	29808.01
514.893	29619.6
515.095	30010.76
515.297	30004.62
515.499	30332.29
515.701	31090.04
515.904	31364.47
516.106	31491.44
516.308	31837.55
516.51	32288.1
516.712	32281.96
516.914	32922.97
517.116	33310.04
517.318	33375.58
517.52	33713.49
517.722	33715.54
517.925	34041.17
518.127	34272.59
518.329	35118.4
518.531	34549.06
518.733	35501.37
518.935	35544.37
519.136	36103.47
519.338	36250.92
519.54	36496.68
519.742	37000.48
519.944	37057.82
520.146	37696.79
520.348	37756.18
520.55	38053.14
520.752	38184.21
520.954	39019.78
521.155	38681.86
521.357	39331.07
521.559	39720.18
521.761	40330.48
521.963	40121.59
522.164	40406.25
522.366	40697.06
522.568	40989.92
522.77	41118.95
522.971	41882.84
523.173	41649.37
523.375	42038.48
523.576	42251.47
523.778	42761.42
523.98	43021.51
524.181	43078.85
524.383	43218.11
524.584	43662.52
524.786	43895.99
524.988	43254.98
525.189	44297.39
525.391	44412.08
525.592	44496.05
525.794	45106.34
525.995	45069.48
526.197	45114.53
526.398	45462.69
526.6	45550.75
526.801	45894.81
527.003	45759.64
527.204	45827.23
527.406	46333.07
527.607	46711.95
527.808	46558.35
528.01	45995.16
528.211	46550.16
528.412	47322.24
528.614	46961.8
528.815	47185.03
529.016	47594.62
529.218	47422.59
529.419	47522.94
529.62	47606.91
529.822	47221.89
530.023	47821.95
530.224	47774.84
530.425	48036.98
530.626	47484.03
530.828	47803.52
531.029	48563.31
531.23	48180.34
531.431	48096.38
531.632	48354.42
531.833	48680.05
532.035	48247.93
532.236	48811.12
532.437	48473.2
532.638	48473.2
532.839	48591.98
533.04	48845.93
533.241	48280.69
533.442	49433.7
533.643	49099.88
533.844	48882.8
534.045	49355.88
534.246	48553.07
534.447	48940.14
534.648	49001.58
534.849	49003.63
535.05	48624.75
535.251	48807.02
535.451	49020.01
535.652	49081.45
535.853	48983.15
536.054	49101.93
536.255	49306.72
536.456	48503.92
536.657	49263.72
536.857	48829.55
537.058	49081.45
537.259	49570.91
537.46	49343.59
537.66	48839.79
537.861	49370.21
538.062	49038.44
538.263	49167.46
538.463	49020.01
538.664	49259.62
538.865	49411.17
539.065	49308.77
539.266	48927.85
539.466	49286.25
539.667	48520.3
539.868	49548.39
540.068	48931.95
540.269	48974.95
540.469	49179.75
540.67	48634.99
540.87	49212.52
541.071	48938.09
541.271	49347.68
541.472	49128.55
541.672	48927.85
541.873	48714.86
542.073	48618.61
542.274	49394.79
542.474	49255.53
542.675	48811.12
542.875	48952.43
543.075	49411.17
543.276	48553.07
543.476	49269.86
543.676	48747.63
543.877	49534.05
544.077	48653.42
544.277	48637.04
544.478	48817.26
544.678	48895.08
544.878	48972.91
545.078	48847.98
545.279	48837.74
545.479	48467.06
545.679	48684.14
545.879	49214.57
546.079	48888.94
546.28	48485.49
546.48	48628.85
546.68	48852.08
546.88	49290.34
547.08	48475.25
547.28	48929.9
547.48	48184.44
547.68	48946.28
547.88	48204.92
548.081	48993.39
548.281	48374.9
548.481	48610.42
548.681	49036.39
548.881	48727.15
549.081	48626.8
549.28	48415.86
549.48	48596.08
549.68	48362.61
549.88	48903.28
550.08	48276.6
550.28	48690.29
550.48	48407.67
550.68	48643.18
550.88	48206.97
551.08	48665.71
551.279	48581.74
551.479	47953.02
551.679	48579.7
551.879	48215.16
552.079	49015.91
552.278	48141.43
552.478	48211.06
552.678	48370.8
552.878	48301.17
553.077	48036.98
553.277	48010.36
553.477	48960.62
553.676	48123
553.876	48077.94
554.076	48030.84
554.275	48053.37
554.475	47412.35
554.674	48219.25
554.874	48184.44
555.074	48012.41
555.273	47875.19
555.473	47914.11
555.672	47918.2
555.872	47713.41
556.071	48032.89
556.271	48143.48
556.47	47844.48
556.67	47600.77
556.869	47742.08
557.068	47840.38
557.268	47111.3
557.467	47656.06
557.667	47275.14
557.866	47289.48
558.065	47568
558.265	46972.04
558.464	47006.86
558.663	48174.2
558.863	46613.65
559.062	47584.38
559.261	46371.99
559.461	47127.69
559.66	46593.17
559.859	46832.78
560.058	46406.8
560.258	47238.28
560.457	46425.23
560.656	46883.98
560.855	46118.04
561.054	46804.11
561.253	46347.41
561.453	46310.55
561.652	46120.09
561.851	46810.25
562.05	46216.34
562.249	45921.43
562.448	45952.15
562.647	46070.93
562.846	46042.26
563.045	46245.01
563.244	45438.11
563.443	46314.64
563.642	45171.88
563.841	45466.78
564.04	45339.81
564.239	45814.94
564.438	45384.86
564.637	45399.2
564.836	45292.71
565.035	44831.91
565.234	45659.29
565.432	44801.19
565.631	44819.63
565.83	45221.03
566.029	45014.18
566.228	44371.12
566.427	44577.97
566.625	44518.57
566.824	43953.33
567.023	44813.48
567.222	43797.69
567.42	44676.27
567.619	44074.16
567.818	43969.72
568.016	43836.6
568.215	44184.76
568.414	43553.98
568.612	44072.12
568.811	43439.29
569.01	43687.1
569.208	43205.83
569.407	43291.84
569.605	42822.86
569.804	43971.77
570.002	42814.66
570.201	43336.9
570.4	42691.79
570.598	42448.08
570.797	42466.51
570.995	42724.55
571.193	42198.23
571.392	42558.67
571.59	42216.66
571.789	42587.34
571.987	42224.85
572.186	41956.57
572.384	41442.52
572.582	41993.43
572.781	41962.71
572.979	41010.4
573.177	41669.85
573.376	41805.02
573.574	41110.75
573.772	41569.5
573.971	41112.8
574.169	40791.27
574.367	40600.81
574.565	40586.47
574.763	40373.49
574.962	39980.28
575.16	40344.81
575.358	40353.01
575.556	40150.26
575.754	40756.46
575.952	39668.98
576.151	40316.14
576.349	39038.21
576.547	39423.23
576.745	39752.95
576.943	39652.6
577.141	39382.27
577.339	39261.44
577.537	38989.06
577.735	38886.66
577.933	38667.53
578.131	39015.68
578.329	38665.48
578.527	38550.79
578.725	38466.83
578.923	38841.6
579.121	38378.76
579.319	38475.02
579.516	38276.37
579.714	38081.81
579.912	38219.02
580.11	37899.54
580.308	37750.04
580.506	37600.54
580.704	37125.41
580.901	37473.56
581.099	37569.82
581.297	37076.26
581.495	37080.35
581.692	37221.66
581.89	36973.86
582.088	37305.63
582.285	36666.66
582.483	36818.21
582.681	36637.99
582.878	36525.35
583.076	36298.03
583.274	36472.1
583.471	35923.25
583.669	36044.08
583.866	35814.71
584.064	35837.23
584.262	35808.56
584.459	36175.15
584.657	36082.99
584.854	35597.62
585.052	35013.95
585.249	35149.12
585.447	35151.16
585.644	34993.47
585.841	35001.66
586.039	35489.08
586.236	34766.15
586.434	34993.47
586.631	34342.22
586.828	34977.09
587.026	34983.23
587.223	34727.24
587.42	34407.75
587.618	33871.18
587.815	33662.29
588.012	33514.84
588.21	34069.84
588.407	34110.8
588.604	33373.53
588.801	33621.33
588.999	33654.1
589.196	33713.49
589.393	33248.6
589.59	32927.07
589.787	33232.22
589.984	32906.59
590.182	32507.24
590.379	33125.72
590.576	32335.21
590.773	32476.52
590.97	32361.83
591.167	32458.09
591.364	32281.96
591.561	32474.47
591.758	31749.49
591.955	31698.29
592.152	32005.48
592.349	31896.94
592.546	32050.54
592.743	31671.67
592.94	31384.95
593.137	31577.46
593.334	31667.57
593.531	31315.32
593.727	31333.75
593.924	31466.87
594.121	30844.29
594.318	31186.3
594.515	31182.2
594.712	30782.85
594.908	30502.28
595.105	30840.19
595.302	30571.91
595.499	30434.69
595.696	30430.6
595.892	30225.8
596.089	30215.56
596.286	30164.36
596.482	30152.07
596.679	29877.65
596.876	29982.09
597.072	29765.01
597.269	29975.95
597.466	29535.63
597.662	29361.56
597.859	29425.04
598.055	29246.87
598.252	29126.04
598.448	29314.45
598.645	29128.09
598.841	28835.23
599.038	28900.76
599.234	28941.72
599.431	28601.76
599.627	28687.78
599.824	28571.04
600.02	28243.37
600.217	28661.15
600.413	28218.79
600.609	28636.58
600.806	28075.43
601.002	28196.26
601.198	27991.47
601.395	27968.94
601.591	27782.57
601.787	28188.07
601.984	27532.72
602.18	27839.92
602.376	27389.36
602.572	27481.52
602.769	27340.21
602.965	27016.63
603.161	27207.09
603.357	27071.93
603.553	27133.37
603.75	27162.04
603.946	26815.93
604.142	26981.82
604.338	26729.92
604.534	26533.31
604.73	26156.49
604.926	26402.24
605.122	26541.5
605.318	25777.61
605.514	26027.46
605.71	25978.31
605.906	25607.63
606.102	25621.97
606.298	25861.58
606.494	25955.79
606.69	25693.65
606.886	25581.01
607.082	25306.58
607.278	25630.16
607.474	25306.58
607.67	25396.69
607.866	24913.37
608.062	25277.91
608.257	25026.01
608.453	25134.55
608.649	24860.12
608.845	24837.59
609.041	24731.1
609.236	25222.61
609.432	24767.96
609.628	24677.85
609.824	24333.79
610.019	24655.33
610.215	24540.64
610.411	24313.31
610.606	24051.17
610.802	24333.79
610.998	24301.03
611.193	24206.82
611.389	23870.95
611.584	23881.19
611.78	23981.54
611.976	23965.16
612.171	23954.92
612.367	23903.72
612.562	23629.29
612.758	23576.05
612.953	23375.34
613.149	23664.11
613.344	23137.78
613.539	23809.51
613.735	23201.27
613.93	23469.55
614.126	23115.25
614.321	23467.5
614.517	23293.43
614.712	22910.46
614.907	23115.25
615.103	23014.9
615.298	22947.32
615.493	23021.05
615.688	22652.41
615.884	23000.57
616.079	22488.57
616.274	23090.68
616.47	22945.27
616.665	22683.13
616.86	22205.95
617.055	22578.68
617.25	22238.72
617.445	22347.26
617.641	22095.36
617.836	22197.76
618.031	21915.14
618.226	21923.33
618.421	21732.87
618.616	22144.52
618.811	21612.04
619.006	21990.92
619.201	21335.57
619.396	21820.94
619.591	21401.1
619.786	21493.26
619.981	20819.48
620.176	21163.54
620.371	20885.01
620.566	21022.23
620.761	20723.23
620.956	20794.9
621.151	20524.57
621.346	20692.51
621.541	20338.21
621.735	20952.6
621.93	20205.09
622.125	20168.23
622.32	20123.17
622.515	20209.18
622.709	19869.22
622.904	19785.26
623.099	19682.86
623.294	19748.39
623.488	19504.68
623.683	19535.4
623.878	19090.99
624.072	19320.37
624.267	18949.68
624.462	19076.66
624.656	18873.91
624.851	18853.43
625.046	18548.28
625.24	18607.67
625.435	18525.75
625.629	18312.77
625.824	18447.93
626.018	18239.04
626.213	17845.83
626.407	18089.54
626.602	17894.98
626.796	18017.86
626.991	17886.79
627.185	17600.07
627.38	17401.42
627.574	17333.84
627.768	17196.62
627.963	17272.4
628.157	17049.17
628.352	17038.93
628.546	16617.05
628.74	17149.52
628.935	17032.79
629.129	16918.1
629.323	16655.96
629.517	16561.75
629.712	16492.12
629.906	16363.1
630.1	15965.79
630.294	16154.21
630.489	16053.86
630.683	16391.77
630.877	15849.06
631.071	15730.28
631.265	15875.68
631.459	15715.94
631.653	15509.1
631.848	15570.54
632.042	15332.97
632.236	15386.22
632.43	15513.19
632.624	15281.77
632.818	15140.46
633.012	15087.22
633.206	14886.51
633.4	15128.17
633.594	14820.98
633.788	14794.36
633.982	14685.81
634.176	14665.33
634.369	14526.07
634.563	14419.58
634.757	14347.9
634.951	14438.01
635.145	14458.49
635.339	14401.15
635.533	14247.55
635.726	13975.17
635.92	13973.12
636.114	13905.54
636.308	13782.66
636.501	13641.35
636.695	13530.76
636.889	13717.12
637.083	13745.8
637.276	13459.08
637.47	13301.39
637.664	13397.64
637.857	13248.14
638.051	13065.87
638.244	13080.21
638.438	13121.17
638.632	12928.66
638.825	12910.22
639.019	12658.32
639.212	12693.14
639.406	12744.34
639.599	12723.86
639.793	12603.03
639.986	12455.58
640.18	12652.18
640.373	12465.82
640.567	12203.68
640.76	12166.81
640.954	11888.29
641.147	12045.98
641.34	12207.77
641.534	11724.45
641.727	11923.1
641.92	11843.23
642.114	11677.35
642.307	11701.92
642.5	11511.46
642.694	11394.73
642.887	11437.73
643.08	11497.13
643.273	11368.1
643.467	11312.81
643.66	11048.62
643.853	11247.27
644.046	11028.14
644.239	11087.53
644.432	10882.74
644.626	10966.7
644.819	10901.17
645.012	11077.29
645.205	10845.87
645.398	10667.7
645.591	10751.67
645.784	10663.6
645.977	10596.02
646.17	10501.81
646.363	10380.98
646.556	10088.12
646.749	10266.3
646.942	10157.75
647.135	10317.5
647.328	10170.04
647.521	9946.81
647.714	10034.88
647.907	9862.85
648.099	9844.42
648.292	9856.7
648.485	9674.43
648.678	9529.03
648.871	9520.84
649.064	9348.81
649.256	9561.8
649.449	9387.72
649.642	9262.79
649.835	9389.77
650.027	9363.14
650.22	9066.19
650.413	9035.47
650.605	9103.05
650.798	9101
650.991	8812.24
651.183	8838.86
651.376	8832.72
651.568	8765.14
651.761	8595.15
651.954	8701.65
652.146	8656.59
652.339	8558.29
652.531	8611.54
652.724	8607.44
652.916	8365.78
653.109	8451.8
653.301	8257.24
653.494	8431.32
653.686	8406.74
653.879	8306.39
654.071	8163.03
654.263	8105.69
654.456	8048.35
654.648	8210.14
654.84	7958.24
655.033	7878.37
655.225	7763.68
655.417	7870.17
655.61	7948
655.802	7810.78
655.994	7663.33
656.186	7839.45
656.379	7692
656.571	7818.97
656.763	7448.29
656.955	7433.96
657.148	7544.55
657.34	7386.85
657.532	7165.67
657.724	7421.67
657.916	7380.71
658.108	7184.1
658.3	7190.25
658.492	7116.52
658.684	7161.58
658.876	6979.31
659.068	7005.93
659.26	6887.15
659.452	6911.72
659.644	6948.59
659.836	6940.4
660.028	6926.06
660.22	6823.66
660.412	6784.75
660.604	6711.02
660.796	6592.24
660.988	6713.07
661.18	6432.5
661.372	6483.7
661.563	6407.92
661.755	6379.25
661.947	6332.15
662.139	6428.4
662.331	6444.79
662.522	6184.69
662.714	6125.3
662.906	6164.22
663.097	6303.48
663.289	6147.83
663.481	5963.51
663.673	6135.54
663.864	6135.54
664.056	5818.11
664.247	5938.94
664.439	5983.99
664.631	5908.22
664.822	5859.07
665.014	6006.52
665.205	5949.18
665.397	5803.77
665.588	5758.72
665.78	5744.38
665.971	5656.32
666.163	5644.03
666.354	5699.33
666.546	5629.7
666.737	5648.13
666.929	5404.42
667.12	5510.91
667.311	5457.67
667.503	5576.45
667.694	5439.23
667.885	5345.03
668.077	5371.65
668.268	5461.76
668.459	5347.08
668.651	5181.19
668.842	5197.57
669.033	5183.24
669.224	5146.37
669.416	5140.23
669.607	5097.22
669.798	5076.74
669.989	5041.93
670.18	4919.05
670.371	4908.81
670.563	5046.02
670.754	4945.67
670.945	4898.57
671.136	4869.9
671.327	4867.85
671.518	4910.86
671.709	4843.28
671.9	4900.62
672.091	4830.99
672.282	4755.21
672.473	4663.05
672.664	4759.31
672.855	4646.67
673.046	4671.25
673.237	4714.25
673.428	4677.39
673.619	4601.62
673.809	4671.25
674	4493.07
674.191	4540.18
674.382	4574.99
674.573	4511.5
674.764	4534.03
674.954	4480.78
675.145	4597.52
675.336	4433.68
675.527	4384.53
675.717	4351.76
675.908	4300.56
676.099	4427.54
676.289	4331.28
676.48	4294.42
676.671	4310.8
676.861	4235.03
677.052	4218.64
677.243	4243.22
677.433	4230.93
677.624	4304.66
677.814	4015.9
678.005	4122.39
678.195	4112.15
678.386	4149.01
678.576	4345.62
678.767	3956.5
678.957	4189.97
679.148	4022.04
679.338	4001.56
679.529	4091.67
679.719	4065.05
679.909	4155.16
680.1	4093.72
680.29	3915.55
680.481	4007.7
680.671	4024.09
680.861	3997.46
681.052	3917.59
681.242	4028.18
681.432	3968.79
681.622	3946.27
681.813	3893.02
682.003	3837.72
682.193	3917.59
682.383	3876.63
682.573	3876.63
682.764	3884.83
682.954	3919.64
683.144	3755.8
683.334	3856.15
683.524	3794.72
683.714	3757.85
683.904	3833.63
684.094	3778.33
684.284	3759.9
684.474	3825.43
684.664	3710.75
684.854	3745.56
685.044	3768.09
685.234	3632.93
685.424	3723.04
685.614	3563.29
685.804	3704.6
685.994	3716.89
686.184	3616.54
686.374	3772.19
686.564	3704.6
686.753	3692.32
686.943	3553.06
687.133	3591.97
687.323	3614.49
687.513	3602.21
687.702	3598.11
687.892	3501.86
688.082	3508
688.272	3448.61
688.461	3467.04
688.651	3378.98
688.841	3421.99
689.03	3487.52
689.22	3448.61
689.41	3450.66
689.599	3503.9
689.789	3540.77
689.979	3438.37
690.168	3442.46
690.358	3376.93
690.547	3497.76
690.737	3483.42
690.926	3493.66
691.116	3413.79
691.305	3469.09
691.495	3307.3
691.684	3401.51
691.874	3485.47
692.063	3323.68
692.252	3346.21
692.442	3450.66
692.631	3280.68
692.82	3462.94
693.01	3297.06
693.199	3372.83
693.388	3331.87
693.578	3327.78
693.767	3467.04
693.956	3378.98
694.146	3233.57
694.335	3229.48
694.524	3344.16
694.713	3262.24
694.902	3295.01
695.092	3295.01
695.281	3209
695.47	3192.61
695.659	3354.4
695.848	3159.85
696.037	3254.05
696.226	3219.24
696.415	3344.16
696.604	3206.95
696.793	3327.78
696.982	3258.15
697.171	3190.56
697.36	3391.27
697.549	3147.56
697.738	3125.03
697.927	3335.97
698.116	3286.82
698.305	3217.19
698.494	3247.91
698.683	3223.33
698.872	3258.15
699.061	3239.72
699.25	3102.5
699.438	3243.81
699.627	3131.17
699.816	3262.24
700.005	3151.65
700.193	3172.13
700.382	3249.96
700.571	3043.11
700.76	3270.44
700.948	3122.98
701.137	3252
701.326	3047.21
701.514	3051.3
701.703	3194.66
701.892	3092.26
702.08	3143.46
702.269	3086.12
702.457	3088.17
702.646	3122.98
702.834	3049.25
703.023	3036.97
703.212	2973.48
703.4	3084.07
703.589	2987.82
703.777	3020.58
703.965	2924.33
704.154	2914.09
704.342	3106.6
704.531	3082.02
704.719	2932.52
704.907	3014.44
705.096	2830.12
705.284	2848.55
705.472	2932.52
705.661	2963.24
705.849	3036.97
706.037	2916.14
706.226	3002.15
706.414	2838.31
706.602	2918.18
706.79	2938.66
706.979	2885.42
707.167	2889.51
707.355	2909.99
707.543	2942.76
707.731	2842.41
707.919	2832.17
708.107	2928.42
708.296	2795.31
708.484	2838.31
708.672	2787.11
708.86	2758.44
709.048	2770.73
709.236	2692.91
709.424	2717.48
709.612	2785.07
709.8	2713.39
709.988	2772.78
710.176	2686.76
710.364	2674.48
710.551	2688.81
710.739	2756.4
710.927	2721.58
711.115	2654
711.303	2672.43
711.491	2586.41
711.679	2533.17
711.866	2686.76
712.054	2676.52
712.242	2627.37
712.43	2635.57
712.617	2559.79
712.805	2627.37
712.993	2651.95
713.181	2494.26
713.368	2606.89
713.556	2500.4
713.744	2524.97
713.931	2451.25
714.119	2465.58
714.306	2545.45
714.494	2430.77
714.682	2441.01
714.869	2488.11
715.057	2383.66
715.244	2225.97
715.432	2393.9
715.619	2504.5
715.807	2305.84
715.994	2365.23
716.182	2416.43
716.369	2408.24
716.556	2412.34
716.744	2488.11
716.931	2330.42
717.119	2316.08
717.306	2369.33
717.493	2391.86
717.681	2402.1
717.868	2326.32
718.055	2213.68
718.242	2303.79
718.43	2193.2
718.617	2316.08
718.804	2115.38
718.991	2311.99
719.179	2275.12
719.366	2164.53
719.553	2256.69
719.74	2207.54
719.927	2291.51
720.114	2137.91
720.301	2170.68
720.488	2168.63
720.676	2203.44
720.863	2252.59
721.05	2127.67
721.237	2199.35
721.424	2180.92
721.611	2211.64
721.798	2201.4
721.985	2037.56
722.172	2029.37
722.358	2129.72
722.545	2142
722.732	2078.52
722.919	2068.28
723.106	1967.93
723.293	2078.52
723.48	2039.61
723.667	1988.41
723.853	1879.86
724.04	2064.18
724.227	1982.26
724.414	2006.84
724.6	2037.56
724.787	1992.5
724.974	2066.23
725.161	2092.85
725.347	2031.41
725.534	2008.89
725.72	1857.34
725.907	1910.58
726.094	2000.69
726.28	1890.1
726.467	1892.15
726.653	1996.6
726.84	1908.54
727.027	1816.38
727.213	1886.01
727.4	1875.77
727.586	1863.48
727.773	1836.86
727.959	1922.87
728.145	1845.05
728.332	1877.82
728.518	1840.95
728.705	1875.77
728.891	1750.84
729.077	1795.9
729.264	1789.75
729.45	1705.79
729.636	1750.84
729.823	1795.9
730.009	1767.23
730.195	1902.39
730.382	1777.47
730.568	1816.38
730.754	1713.98
730.94	1765.18
731.126	1744.7
731.313	1818.43
731.499	1713.98
731.685	1675.07
731.871	1656.64
732.057	1777.47
732.243	1613.63
732.429	1673.02
732.615	1632.06
732.801	1691.45
732.987	1699.64
733.173	1673.02
733.359	1728.31
733.545	1726.27
733.731	1691.45
733.917	1695.55
734.103	1683.26
734.289	1578.81
734.475	1664.83
734.661	1558.33
734.847	1707.84
735.033	1574.72
735.219	1646.4
735.404	1705.79
735.59	1650.49
735.776	1697.6
735.962	1703.74
736.148	1580.86
736.333	1666.88
736.519	1591.1
736.705	1570.62
736.89	1396.54
737.076	1515.33
737.262	1539.9
737.447	1515.33
737.633	1584.96
737.819	1617.72
738.004	1523.52
738.19	1554.24
738.375	1503.04
738.561	1523.52
738.747	1560.38
738.932	1509.18
739.118	1513.28
739.303	1453.89
739.489	1476.41
739.674	1408.83
739.859	1601.34
740.045	1435.46
740.23	1427.26
740.416	1476.41
740.601	1380.16
740.786	1396.54
740.972	1410.88
741.157	1419.07
741.342	1443.65
741.528	1333.06
741.713	1410.88
741.898	1355.58
742.084	1460.03
742.269	1453.89
742.454	1388.35
742.639	1386.3
742.824	1388.35
743.01	1185.6
743.195	1251.14
743.38	1339.2
743.565	1331.01
743.75	1347.39
743.935	1292.1
744.12	1318.72
744.305	1347.39
744.49	1324.87
744.675	1386.3
744.86	1273.67
745.045	1365.82
745.23	1261.38
745.415	1279.81
745.6	1197.89
745.785	1201.99
745.97	1242.95
746.155	1201.99
746.34	1144.64
746.525	1273.67
746.71	1187.65
746.895	1263.43
747.079	1206.08
747.264	1247.04
747.449	1265.47
747.634	1163.08
747.819	1275.71
748.003	1146.69
748.188	1070.92
748.373	1175.36
748.557	1201.99
748.742	1107.78
748.927	1142.6
749.111	1124.16
749.296	1167.17
749.481	1208.13
749.665	1075.01
749.85	1036.1
750.034	1195.84
750.219	1214.27
750.404	1126.21
750.588	1075.01
750.773	1025.86
750.957	1140.55
751.141	1083.2
751.326	1044.29
751.51	1001.29
751.695	1085.25
751.879	954.18
752.064	1013.57
752.248	982.85
752.432	1058.63
752.617	1075.01
752.801	1107.78
752.985	935.75
753.17	939.85
753.354	972.61
753.538	986.95
753.722	960.33
753.907	972.61
754.091	933.7
754.275	880.46
754.459	806.73
754.643	978.76
754.828	954.18
755.012	837.45
755.196	911.18
755.38	954.18
755.564	864.07
755.748	905.03
755.932	962.37
756.116	888.65
756.3	915.27
756.484	829.26
756.668	847.69
756.852	816.97
757.036	862.02
757.22	790.35
757.404	810.82
757.588	870.22
757.772	847.69
757.956	831.3
758.14	810.82
758.323	804.68
758.507	796.49
758.691	855.88
758.875	767.82
759.059	814.92
759.242	765.77
759.426	798.54
759.61	765.77
759.794	870.22
759.977	853.83
760.161	771.91
760.345	765.77
760.528	798.54
760.712	722.76
760.895	675.66
761.079	724.81
761.263	726.86
761.446	776.01
761.63	753.48
761.813	749.39
761.997	618.32
762.18	730.95
762.364	733
762.547	724.81
762.731	718.67
762.914	698.19
763.098	735.05
763.281	761.67
763.464	675.66
763.648	683.85
763.831	751.43
764.015	657.23
764.198	673.61
764.381	718.67
764.564	659.28
764.748	722.76
764.931	710.47
765.114	655.18
765.297	698.19
765.481	651.08
765.664	659.28
765.847	595.79
766.03	659.28
766.213	782.15
766.397	653.13
766.58	638.8
766.763	673.61
766.946	681.8
767.129	634.7
767.312	571.21
767.495	778.06
767.678	601.93
767.861	677.71
768.044	667.47
768.227	665.42
768.41	679.75
768.593	624.46
768.776	571.21
768.959	657.23
769.142	616.27
769.324	649.04
769.507	616.27
769.69	708.43
769.873	612.17
770.056	599.88
770.239	710.47
770.421	567.12
770.604	624.46
770.787	581.45
770.97	603.98
771.152	595.79
771.335	515.92
771.518	577.36
771.7	687.95
771.883	618.32
772.066	571.21
772.248	542.54
772.431	534.35
772.613	591.69
772.796	534.35
772.978	599.88
773.161	608.08
773.343	468.81
773.526	538.45
773.708	556.88
773.891	495.44
774.073	464.72
774.256	538.45
774.438	587.6
774.621	538.45
774.803	606.03
774.985	464.72
775.168	620.36
775.35	485.2
775.532	483.15
775.715	468.81
775.897	522.06
776.079	423.76
776.261	444.24
776.444	466.77
776.626	485.2
776.808	509.77
776.99	542.54
777.173	614.22
777.355	489.29
777.537	495.44
777.719	530.25
777.901	436.05
778.083	452.43
778.265	450.38
778.447	468.81
778.629	448.33
778.811	468.81
778.993	454.48
779.175	485.2
779.357	456.53
779.539	423.76
779.721	446.29
779.903	452.43
780.085	325.46
780.267	438.09
780.449	397.14
780.631	438.09
780.812	368.46
780.994	376.66
781.176	364.37
781.358	421.71
781.54	390.99
781.721	395.09
781.903	409.42
782.085	366.42
782.267	347.98
782.448	429.9
782.63	446.29
782.812	378.7
782.993	325.46
783.175	370.51
783.357	345.94
783.538	397.14
783.72	304.98
783.901	339.79
784.083	390.99
784.264	331.6
784.446	311.12
784.627	372.56
784.809	282.45
784.99	393.04
785.172	296.78
785.353	358.22
785.535	368.46
785.716	345.94
785.897	313.17
786.079	364.37
786.26	288.59
786.441	325.46
786.623	319.31
786.804	266.07
786.985	290.64
787.167	304.98
787.348	319.31
787.529	360.27
787.71	362.32
787.891	341.84
788.073	302.93
788.254	356.18
788.435	307.02
788.616	337.74
788.797	321.36
788.978	321.36
789.159	315.22
789.34	264.02
789.522	243.54
789.703	274.26
789.884	253.78
790.065	270.16
790.246	245.59
790.427	292.69
790.607	274.26
790.788	288.59
790.969	225.11
791.15	266.07
791.331	208.72
791.512	243.54
791.693	253.78
791.874	276.31
792.054	276.31
792.235	290.64
792.416	233.3
792.597	280.4
792.778	190.29
792.958	268.11
793.139	257.87
793.32	362.32
793.5	276.31
793.681	280.4
793.862	339.79
794.042	286.54
794.223	218.96
794.404	196.43
794.584	251.73
794.765	171.86
794.945	227.15
795.126	231.25
795.306	182.1
795.487	239.44
795.667	182.1
795.848	247.63
796.028	239.44
796.209	202.58
796.389	204.63
796.57	200.53
796.75	223.06
796.93	200.53
797.111	190.29
797.291	233.3
797.471	206.67
797.652	231.25
797.832	214.87
798.012	296.78
798.192	194.39
798.373	239.44
798.553	225.11
798.733	206.67
798.913	149.33
799.093	264.02
799.274	221.01
799.454	200.53
799.634	218.96
799.814	173.91
799.994	253.78
800.174	153.43
800.354	210.77
800.534	157.52
800.714	124.76
800.894	147.28
801.074	132.95
801.254	182.1
801.434	149.33
801.614	132.95
801.794	210.77
801.974	472.91
802.154	167.76
802.334	145.24
802.514	175.95
802.693	167.76
802.873	235.35
803.053	264.02
803.233	204.63
803.413	173.91
803.592	108.37
803.772	149.33
803.952	196.43
804.131	165.71
804.311	149.33
804.491	231.25
804.67	147.28
804.85	132.95
805.03	110.42
805.209	89.94
805.389	100.18
805.568	153.43
805.748	192.34
805.928	194.39
806.107	69.46
806.287	110.42
806.466	122.71
806.646	128.85
806.825	147.28
807.004	167.76
807.184	145.24
807.363	143.19
807.543	96.08
807.722	155.47
807.901	145.24
808.081	139.09
808.26	204.63
808.439	135
808.619	106.32
808.798	194.39
808.977	161.62
809.156	167.76
809.336	145.24
809.515	149.33
809.694	132.95
809.873	188.24
810.052	98.13
810.231	91.99
810.411	114.52
810.59	151.38
810.769	108.37
810.948	163.67
811.127	83.8
811.306	149.33
811.485	108.37
811.664	145.24
811.843	71.51
812.022	149.33
812.201	51.03
812.38	137.04
812.559	67.41
812.737	118.61
812.916	128.85
813.095	153.43
813.274	137.04
813.453	79.7
813.632	141.14
813.811	69.46
813.989	118.61
814.168	124.76
814.347	128.85
814.526	100.18
814.704	137.04
814.883	118.61
815.062	69.46
815.24	218.96
815.419	153.43
815.598	91.99
815.776	51.03
815.955	75.6
816.133	149.33
816.312	186.19
816.49	83.8
816.669	114.52
816.847	98.13
817.026	104.28
817.204	55.12
817.383	216.91
817.561	81.75
817.74	94.04
817.918	91.99
818.097	69.46
818.275	108.37
818.453	114.52
818.632	36.69
818.81	75.6
818.988	132.95
819.167	112.47
819.345	59.22
819.523	91.99
819.701	100.18
819.879	87.89
820.058	75.6
820.236	137.04
820.414	22.36
820.592	77.65
820.77	120.66
820.948	87.89
821.127	135
821.305	112.47
821.483	98.13
821.661	59.22
821.839	114.52
822.017	59.22
822.195	102.23
822.373	94.04
822.551	51.03
822.729	100.18
822.907	69.46
823.085	57.17
823.262	75.6
823.44	94.04
823.618	159.57
823.796	81.75
823.974	116.56
824.152	96.08
824.329	104.28
824.507	108.37
824.685	79.7
824.863	132.95
825.04	141.14
825.218	42.84
825.396	57.17
825.574	135
825.751	102.23
825.929	104.28
826.107	34.64
826.284	91.99
826.462	135
826.639	67.41
826.817	81.75
826.994	130.9
827.172	96.08
827.349	120.66
827.527	83.8
827.704	44.88
827.882	61.27
828.059	79.7
828.237	14.17
828.414	96.08
828.591	98.13
828.769	71.51
828.946	65.36
829.124	59.22
829.301	38.74
829.478	83.8
829.655	20.31
829.833	38.74
830.01	118.61
830.187	59.22
830.364	18.26
830.542	51.03
830.719	61.27
830.896	141.14
831.073	104.28
831.25	34.64
831.427	75.6
831.604	16.21
831.782	108.37
831.959	38.74
832.136	8.02
832.313	128.85
832.49	20.31
832.667	120.66
832.844	61.27
833.021	96.08
833.198	83.8
833.374	98.13
833.551	75.6
833.728	61.27
833.905	100.18
834.082	-14.51
834.259	53.08
834.436	100.18
834.612	77.65
834.789	46.93
834.966	98.13
835.143	102.23
835.319	44.88
835.496	20.31
835.673	46.93
835.85	77.65
836.026	63.32
836.203	22.36
836.38	48.98
836.556	5.97
836.733	42.84
836.909	48.98
837.086	87.89
837.262	108.37
837.439	114.52
837.616	38.74
837.792	14.17
837.968	61.27
838.145	18.26
838.321	26.45
838.498	75.6
838.674	53.08
838.851	34.64
839.027	61.27
839.203	83.8
839.38	102.23
839.556	10.07
839.732	81.75
839.909	28.5
840.085	51.03
840.261	10.07
840.437	75.6
840.614	67.41
840.79	36.69
840.966	63.32
841.142	24.4
841.318	1.88
841.494	44.88
841.671	57.17
841.847	59.22
842.023	-12.46
842.199	26.45
842.375	57.17
842.551	-18.6
842.727	51.03
842.903	46.93
843.079	69.46
843.255	114.52
843.431	26.45
843.607	69.46
843.783	59.22
843.959	34.64
844.134	63.32
844.31	18.26
844.486	61.27
844.662	71.51
844.838	16.21
845.013	3.93
845.189	34.64
845.365	75.6
845.541	42.84
845.716	75.6
845.892	65.36
846.068	10.07
846.244	-14.51
846.419	87.89
846.595	-2.22
846.77	-4.27
846.946	10.07
847.122	34.64
847.297	51.03
847.473	59.22
847.648	34.64
847.824	-12.46
847.999	20.31
848.175	46.93
848.35	63.32
848.526	79.7
848.701	-12.46
848.876	94.04
849.052	51.03
849.227	65.36
849.403	10.07
849.578	-39.08
849.753	1.88
849.929	87.89
850.104	69.46
850.279	51.03
850.454	-84.14
850.63	67.41
850.805	75.6
850.98	61.27
851.155	51.03
851.33	48.98
851.505	44.88
851.681	61.27
851.856	1.88
852.031	85.84
852.206	18.26
852.381	3.93
852.556	38.74
852.731	112.47
852.906	100.18
853.081	10.07
853.256	38.74
853.431	1.88
853.606	-16.55
853.781	65.36
853.956	61.27
854.131	18.26
854.305	-8.36
854.48	32.6
854.655	20.31
854.83	112.47
855.005	1.88
855.18	-55.47
855.354	3.93
855.529	14.17
855.704	8.02
855.879	30.55
856.053	-10.41
856.228	16.21
856.403	61.27
856.577	61.27
856.752	-6.31
856.926	-10.41
857.101	59.22
857.276	-71.85
857.45	55.12
857.625	-30.89
857.799	12.12
857.974	3.93
858.148	61.27
858.323	-6.31
858.497	-39.08
858.672	12.12
858.846	83.8
859.02	1.88
859.195	-61.61
859.369	-4.27
859.543	-14.51
859.718	135
859.892	-0.17
860.066	-41.13
860.241	24.4
860.415	44.88
860.589	57.17
860.763	40.79
860.938	10.07
861.112	18.26
861.286	-0.17
861.46	34.64
861.634	42.84
861.808	79.7
861.982	71.51
862.157	-14.51
862.331	-34.99
862.505	46.93
862.679	-2.22
862.853	-2.22
863.027	-14.51
863.201	81.75
863.375	46.93
863.549	-0.17
863.722	1.88
863.896	77.65
864.07	14.17
864.244	51.03
864.418	81.75
864.592	63.32
864.766	14.17
864.939	55.12
865.113	-37.03
865.287	42.84
865.461	81.75
865.634	36.69
865.808	-16.55
865.982	-24.75
866.156	-14.51
866.329	-0.17
866.503	10.07
866.676	-14.51
866.85	10.07
867.024	18.26
867.197	75.6
867.371	-8.36
867.544	20.31
867.718	87.89
867.891	24.4
868.065	44.88
868.238	-6.31
868.412	94.04
868.585	1.88
868.759	42.84
868.932	-16.55
869.105	67.41
869.279	28.5
869.452	-18.6
869.625	30.55
869.799	53.08
869.972	-37.03
870.145	18.26
870.319	73.56
870.492	3.93
870.665	51.03
870.838	-30.89
871.011	-28.84
871.185	10.07
871.358	-2.22
871.531	-45.23
871.704	-2.22
871.877	-14.51
872.05	-4.27
872.223	30.55
872.396	73.56
872.569	42.84
872.742	12.12
872.915	28.5
873.088	32.6
873.261	69.46
873.434	57.17
873.607	44.88
873.78	-2.22
873.953	-26.79
874.126	-55.47
874.299	59.22
874.471	-8.36
874.644	34.64
874.817	36.69
874.99	-14.51
875.163	-34.99
875.335	-0.17
875.508	-63.66
875.681	36.69
875.853	16.21
876.026	-2.22
876.199	20.31
876.371	53.08
876.544	65.36
876.717	20.31
876.889	34.64
877.062	-61.61
877.234	-6.31
877.407	-71.85
877.579	-43.18
877.752	-30.89
877.924	32.6
878.097	30.55
878.269	59.22
878.442	1.88
878.614	-18.6
878.786	79.7
878.959	5.97
879.131	51.03
879.303	8.02
879.476	-47.27
879.648	26.45
879.82	48.98
879.993	1.88
880.165	36.69
880.337	-39.08
880.509	42.84
880.681	14.17
880.854	32.6
881.026	-26.79
881.198	44.88
881.37	38.74
881.542	53.08
881.714	-123.05
881.886	-12.46
882.058	-28.84
882.23	18.26
882.402	3.93
882.574	20.31
882.746	12.12
882.918	1.88
883.09	42.84
883.262	51.03
883.434	3.93
883.606	-6.31
883.778	38.74
883.95	3.93
884.122	102.23
884.293	12.12
884.465	-4.27
884.637	30.55
884.809	40.79
884.98	48.98
885.152	-4.27
885.324	-28.84
885.496	22.36
885.667	-20.65
885.839	-4.27
886.011	51.03
886.182	3.93
886.354	38.74
886.525	8.02
886.697	10.07
886.869	-22.7
887.04	18.26
887.212	28.5
887.383	16.21
887.555	28.5
887.726	14.17
887.897	36.69
888.069	24.4
888.24	53.08
888.412	69.46
888.583	-4.27
888.754	69.46
888.926	34.64
889.097	-24.75
889.268	-4.27
889.44	20.31
889.611	-2.22
889.782	-18.6
889.953	-28.84
890.125	44.88
890.296	-63.66
890.467	32.6
890.638	-51.37
890.809	63.32
890.98	34.64
891.151	-18.6
891.323	57.17
891.494	-0.17
891.665	48.98
891.836	44.88
892.007	32.6
892.178	30.55
892.349	-24.75
892.52	14.17
892.691	-0.17
892.862	22.36
893.032	-39.08
893.203	55.12
893.374	8.02
893.545	59.22
893.716	32.6
893.887	20.31
894.057	1.88
894.228	-30.89
894.399	42.84
894.57	30.55
894.74	-14.51
894.911	59.22
895.082	-47.27
895.253	-16.55
895.423	-39.08
895.594	-0.17
895.764	8.02
895.935	-8.36
896.106	-10.41
896.276	36.69
896.447	-34.99
896.617	1.88
896.788	55.12
896.958	5.97
897.129	-28.84
897.299	38.74
897.47	69.46
897.64	36.69
897.81	53.08
897.981	-53.42
898.151	-32.94
898.322	12.12
898.492	10.07
898.662	-63.66
898.832	40.79
899.003	-47.27
899.173	32.6
899.343	-55.47
899.513	1.88
