Data from USB4F104151__256__14-01-37-224.txt Node

Date: Thu Mar 13 14:01:37 EDT 2025
User: louis
Spectrometer: USB4F10415
Trigger mode: 4
Integration Time (sec): 1.000000E-2
Scans to average: 1
Electric dark correction enabled: true
Nonlinearity correction enabled: false
Boxcar width: 0
XAxis mode: Wavelengths
Number of Pixels in Spectrum: 3648
>>>>>Begin Spectral Data<<<<<
178.204	19.97
178.424	19.97
178.644	19.97
178.864	-41.47
179.084	-20.99
179.304	26.11
179.524	5.63
179.744	-37.38
179.964	30.21
180.184	-41.47
180.404	7.68
180.624	-6.66
180.844	-8.7
181.064	-12.8
181.283	-14.85
181.503	-10.75
181.723	62.98
181.943	30.21
182.163	-0.51
182.383	-0.51
182.602	17.92
182.822	38.4
183.042	24.06
183.262	26.11
183.482	11.78
183.701	26.11
183.921	34.3
184.141	-43.52
184.361	22.02
184.58	-27.14
184.8	38.4
185.02	71.17
185.239	32.26
185.459	83.45
185.679	-6.66
185.898	-51.71
186.118	48.64
186.338	32.26
186.557	62.98
186.777	40.45
186.997	-43.52
187.216	50.69
187.436	13.82
187.655	65.02
187.875	17.92
188.095	-8.7
188.314	38.4
188.534	24.06
188.753	40.45
188.973	-2.56
189.192	13.82
189.412	44.54
189.631	-23.04
189.851	67.07
190.07	22.02
190.29	-29.18
190.509	34.3
190.729	9.73
190.948	38.4
191.168	58.88
191.387	1.54
191.607	-51.71
191.826	91.65
192.045	-10.75
192.265	38.4
192.484	-25.09
192.704	-6.66
192.923	-80.38
193.142	3.58
193.362	-6.66
193.581	26.11
193.8	-78.33
194.02	30.21
194.239	62.98
194.458	22.02
194.678	11.78
194.897	67.07
195.116	108.03
195.335	-6.66
195.555	17.92
195.774	22.02
195.993	-37.38
196.212	30.21
196.432	-2.56
196.651	19.97
196.87	62.98
197.089	36.35
197.308	-10.75
197.528	50.69
197.747	54.78
197.966	15.87
198.185	-55.81
198.404	-43.52
198.623	38.4
198.842	-18.94
199.062	-55.81
199.281	-16.9
199.5	-0.51
199.719	-8.7
199.938	-25.09
200.157	52.74
200.376	67.07
200.595	105.98
200.814	11.78
201.033	22.02
201.252	-23.04
201.471	-23.04
201.69	120.32
201.909	73.21
202.128	42.5
202.347	54.78
202.566	-4.61
202.785	28.16
203.004	38.4
203.223	-55.81
203.442	-51.71
203.661	69.12
203.879	11.78
204.098	40.45
204.317	15.87
204.536	30.21
204.755	38.4
204.974	-10.75
205.193	30.21
205.411	-10.75
205.63	75.26
205.849	30.21
206.068	-27.14
206.287	-27.14
206.505	62.98
206.724	58.88
206.943	3.58
207.162	17.92
207.381	7.68
207.599	-33.28
207.818	128.51
208.037	-0.51
208.255	105.98
208.474	5.63
208.693	79.36
208.911	62.98
209.13	46.59
209.349	-10.75
209.567	81.41
209.786	46.59
210.005	85.5
210.223	24.06
210.442	-0.51
210.661	26.11
210.879	-49.66
211.098	5.63
211.316	11.78
211.535	22.02
211.753	-20.99
211.972	-59.9
212.191	71.17
212.409	38.4
212.628	-14.85
212.846	9.73
213.065	-55.81
213.283	-10.75
213.502	42.5
213.72	-18.94
213.938	65.02
214.157	15.87
214.375	46.59
214.594	-12.8
214.812	54.78
215.031	1.54
215.249	-61.95
215.467	22.02
215.686	34.3
215.904	75.26
216.122	54.78
216.341	85.5
216.559	15.87
216.778	-0.51
216.996	46.59
217.214	5.63
217.432	38.4
217.651	28.16
217.869	50.69
218.087	-10.75
218.306	56.83
218.524	7.68
218.742	-0.51
218.96	26.11
219.179	38.4
219.397	-37.38
219.615	9.73
219.833	83.45
220.051	-45.57
220.27	52.74
220.488	97.79
220.706	9.73
220.924	24.06
221.142	58.88
221.36	-10.75
221.578	71.17
221.796	103.93
222.015	-37.38
222.233	46.59
222.451	-14.85
222.669	-10.75
222.887	11.78
223.105	-20.99
223.323	7.68
223.541	40.45
223.759	54.78
223.977	-45.57
224.195	73.21
224.413	42.5
224.631	46.59
224.849	-35.33
225.067	79.36
225.285	-16.9
225.503	-0.51
225.721	7.68
225.939	60.93
226.157	103.93
226.375	69.12
226.592	75.26
226.81	22.02
227.028	60.93
227.246	34.3
227.464	-51.71
227.682	1.54
227.9	-4.61
228.117	52.74
228.335	46.59
228.553	44.54
228.771	9.73
228.989	5.63
229.206	5.63
229.424	26.11
229.642	36.35
229.86	17.92
230.077	-12.8
230.295	-2.56
230.513	36.35
230.731	-0.51
230.948	85.5
231.166	48.64
231.384	-20.99
231.601	79.36
231.819	48.64
232.037	24.06
232.254	-12.8
232.472	38.4
232.689	24.06
232.907	83.45
233.125	5.63
233.342	81.41
233.56	9.73
233.777	15.87
233.995	11.78
234.213	24.06
234.43	17.92
234.648	-31.23
234.865	-33.28
235.083	30.21
235.3	-76.29
235.518	50.69
235.735	7.68
235.953	17.92
236.17	-23.04
236.388	52.74
236.605	-8.7
236.822	36.35
237.04	17.92
237.257	50.69
237.475	11.78
237.692	-0.51
237.909	44.54
238.127	-8.7
238.344	-4.61
238.562	-2.56
238.779	9.73
238.996	44.54
239.214	-2.56
239.431	15.87
239.648	-41.47
239.865	5.63
240.083	56.83
240.3	46.59
240.517	24.06
240.735	54.78
240.952	38.4
241.169	1.54
241.386	-12.8
241.603	3.58
241.821	3.58
242.038	26.11
242.255	-25.09
242.472	-2.56
242.689	48.64
242.907	79.36
243.124	13.82
243.341	-23.04
243.558	-20.99
243.775	13.82
243.992	-8.7
244.209	-10.75
244.426	-10.75
244.643	30.21
244.86	30.21
245.078	13.82
245.295	32.26
245.512	-8.7
245.729	34.3
245.946	28.16
246.163	17.92
246.38	-18.94
246.597	69.12
246.814	26.11
247.031	-41.47
247.248	40.45
247.464	22.02
247.681	-49.66
247.898	24.06
248.115	26.11
248.332	-2.56
248.549	28.16
248.766	69.12
248.983	-16.9
249.2	50.69
249.417	-25.09
249.633	5.63
249.85	-4.61
250.067	9.73
250.284	62.98
250.501	15.87
250.717	-43.52
250.934	-49.66
251.151	73.21
251.368	3.58
251.585	65.02
251.801	28.16
252.018	46.59
252.235	-23.04
252.451	-27.14
252.668	22.02
252.885	15.87
253.102	46.59
253.318	46.59
253.535	22.02
253.752	15.87
253.968	26.11
254.185	60.93
254.401	-31.23
254.618	73.21
254.835	-0.51
255.051	-2.56
255.268	9.73
255.484	-14.85
255.701	9.73
255.917	-8.7
256.134	38.4
256.351	13.82
256.567	71.17
256.784	91.65
257	38.4
257.217	5.63
257.433	-8.7
257.65	65.02
257.866	7.68
258.082	-29.18
258.299	15.87
258.515	71.17
258.732	-53.76
258.948	1.54
259.165	99.84
259.381	17.92
259.597	34.3
259.814	24.06
260.03	73.21
260.246	-0.51
260.463	54.78
260.679	30.21
260.895	-43.52
261.112	56.83
261.328	17.92
261.544	85.5
261.761	108.03
261.977	-61.95
262.193	-18.94
262.409	75.26
262.626	5.63
262.842	-68.09
263.058	22.02
263.274	-2.56
263.49	-12.8
263.707	38.4
263.923	36.35
264.139	1.54
264.355	56.83
264.571	30.21
264.787	3.58
265.004	-0.51
265.22	22.02
265.436	-18.94
265.652	-23.04
265.868	32.26
266.084	99.84
266.3	62.98
266.516	30.21
266.732	22.02
266.948	22.02
267.164	7.68
267.38	-39.42
267.596	-49.66
267.812	30.21
268.028	48.64
268.244	-10.75
268.46	-29.18
268.676	26.11
268.892	50.69
269.108	-61.95
269.324	22.02
269.54	13.82
269.756	-57.86
269.972	54.78
270.188	46.59
270.403	-57.86
270.619	-10.75
270.835	62.98
271.051	52.74
271.267	-68.09
271.483	-2.56
271.698	-49.66
271.914	13.82
272.13	-2.56
272.346	7.68
272.562	15.87
272.777	58.88
272.993	17.92
273.209	81.41
273.425	1.54
273.64	5.63
273.856	62.98
274.072	17.92
274.287	-64
274.503	-0.51
274.719	3.58
274.934	50.69
275.15	-31.23
275.366	1.54
275.581	28.16
275.797	-0.51
276.012	19.97
276.228	38.4
276.444	-12.8
276.659	44.54
276.875	-43.52
277.09	-27.14
277.306	-14.85
277.521	77.31
277.737	32.26
277.952	-0.51
278.168	79.36
278.383	5.63
278.599	34.3
278.814	-0.51
279.03	3.58
279.245	-45.57
279.461	-10.75
279.676	17.92
279.892	32.26
280.107	13.82
280.322	-6.66
280.538	-2.56
280.753	3.58
280.969	32.26
281.184	24.06
281.399	32.26
281.615	17.92
281.83	46.59
282.045	-14.85
282.26	28.16
282.476	30.21
282.691	30.21
282.906	42.5
283.122	22.02
283.337	26.11
283.552	56.83
283.767	30.21
283.983	-43.52
284.198	-51.71
284.413	54.78
284.628	15.87
284.843	40.45
285.058	1.54
285.274	5.63
285.489	-33.28
285.704	71.17
285.919	9.73
286.134	26.11
286.349	71.17
286.564	38.4
286.779	26.11
286.995	30.21
287.21	-18.94
287.425	13.82
287.64	28.16
287.855	44.54
288.07	105.98
288.285	32.26
288.5	50.69
288.715	-35.33
288.93	22.02
289.145	65.02
289.36	22.02
289.575	15.87
289.79	38.4
290.004	5.63
290.219	62.98
290.434	34.3
290.649	32.26
290.864	71.17
291.079	26.11
291.294	62.98
291.509	30.21
291.724	62.98
291.938	19.97
292.153	3.58
292.368	-8.7
292.583	15.87
292.798	19.97
293.012	38.4
293.227	62.98
293.442	32.26
293.657	24.06
293.871	60.93
294.086	3.58
294.301	30.21
294.516	28.16
294.73	-6.66
294.945	91.65
295.16	-10.75
295.374	28.16
295.589	-2.56
295.804	-55.81
296.018	62.98
296.233	-23.04
296.447	91.65
296.662	65.02
296.877	56.83
297.091	7.68
297.306	38.4
297.52	65.02
297.735	-37.38
297.949	48.64
298.164	-0.51
298.378	62.98
298.593	13.82
298.807	24.06
299.022	30.21
299.236	1.54
299.451	38.4
299.665	3.58
299.88	15.87
300.094	24.06
300.309	-12.8
300.523	46.59
300.737	15.87
300.952	28.16
301.166	-6.66
301.381	26.11
301.595	77.31
301.809	118.27
302.024	13.82
302.238	62.98
302.452	46.59
302.667	-43.52
302.881	3.58
303.095	-10.75
303.309	44.54
303.524	-2.56
303.738	24.06
303.952	15.87
304.166	75.26
304.381	5.63
304.595	-10.75
304.809	44.54
305.023	93.69
305.237	-27.14
305.452	34.3
305.666	40.45
305.88	36.35
306.094	24.06
306.308	-35.33
306.522	28.16
306.736	11.78
306.95	56.83
307.164	38.4
307.379	110.08
307.593	36.35
307.807	42.5
308.021	7.68
308.235	-2.56
308.449	-16.9
308.663	-2.56
308.877	15.87
309.091	79.36
309.305	42.5
309.519	-45.57
309.733	62.98
309.947	13.82
310.161	-6.66
310.374	-31.23
310.588	54.78
310.802	52.74
311.016	-2.56
311.23	26.11
311.444	62.98
311.658	-2.56
311.872	67.07
312.085	1.54
312.299	48.64
312.513	-10.75
312.727	62.98
312.941	-6.66
313.154	22.02
313.368	81.41
313.582	-64
313.796	9.73
314.009	15.87
314.223	62.98
314.437	73.21
314.651	30.21
314.864	15.87
315.078	13.82
315.292	5.63
315.505	13.82
315.719	15.87
315.933	1.54
316.146	11.78
316.36	-0.51
316.573	65.02
316.787	91.65
317.001	54.78
317.214	-43.52
317.428	1.54
317.641	22.02
317.855	-12.8
318.068	87.55
318.282	32.26
318.495	42.5
318.709	77.31
318.922	24.06
319.136	97.79
319.349	30.21
319.563	-18.94
319.776	114.17
319.99	34.3
320.203	50.69
320.417	52.74
320.63	34.3
320.843	44.54
321.057	38.4
321.27	60.93
321.483	-10.75
321.697	-6.66
321.91	62.98
322.124	46.59
322.337	-20.99
322.55	56.83
322.763	48.64
322.977	67.07
323.19	75.26
323.403	34.3
323.617	71.17
323.83	48.64
324.043	22.02
324.256	-10.75
324.469	56.83
324.683	-6.66
324.896	36.35
325.109	-6.66
325.322	-12.8
325.535	38.4
325.748	-43.52
325.962	32.26
326.175	-2.56
326.388	79.36
326.601	-0.51
326.814	7.68
327.027	26.11
327.24	105.98
327.453	-6.66
327.666	36.35
327.879	40.45
328.092	62.98
328.305	48.64
328.518	71.17
328.731	79.36
328.944	28.16
329.157	-16.9
329.37	-47.62
329.583	24.06
329.796	28.16
330.009	24.06
330.222	5.63
330.435	42.5
330.648	62.98
330.861	19.97
331.073	38.4
331.286	52.74
331.499	69.12
331.712	1.54
331.925	-14.85
332.138	-29.18
332.35	-49.66
332.563	-25.09
332.776	30.21
332.989	-39.42
333.202	38.4
333.414	22.02
333.627	-18.94
333.84	79.36
334.053	81.41
334.265	-12.8
334.478	75.26
334.691	15.87
334.903	-6.66
335.116	24.06
335.329	30.21
335.541	1.54
335.754	56.83
335.966	73.21
336.179	13.82
336.392	5.63
336.604	24.06
336.817	1.54
337.029	48.64
337.242	3.58
337.454	58.88
337.667	22.02
337.88	65.02
338.092	58.88
338.305	17.92
338.517	30.21
338.729	-41.47
338.942	54.78
339.154	-23.04
339.367	-25.09
339.579	42.5
339.792	-6.66
340.004	87.55
340.217	48.64
340.429	15.87
340.641	26.11
340.854	32.26
341.066	-31.23
341.278	17.92
341.491	-0.51
341.703	13.82
341.915	19.97
342.128	17.92
342.34	48.64
342.552	24.06
342.764	48.64
342.977	54.78
343.189	48.64
343.401	40.45
343.613	58.88
343.826	-27.14
344.038	-31.23
344.25	36.35
344.462	62.98
344.674	28.16
344.886	50.69
345.099	19.97
345.311	9.73
345.523	-10.75
345.735	28.16
345.947	34.3
346.159	15.87
346.371	40.45
346.583	42.5
346.795	67.07
347.007	32.26
347.219	34.3
347.431	24.06
347.643	71.17
347.855	58.88
348.067	24.06
348.279	54.78
348.491	-12.8
348.703	87.55
348.915	22.02
349.127	-27.14
349.339	62.98
349.551	28.16
349.763	77.31
349.975	9.73
350.187	-2.56
350.399	34.3
350.61	1.54
350.822	15.87
351.034	67.07
351.246	79.36
351.458	24.06
351.669	130.56
351.881	13.82
352.093	-10.75
352.305	48.64
352.517	65.02
352.728	36.35
352.94	26.11
353.152	65.02
353.363	-51.71
353.575	89.6
353.787	48.64
353.999	30.21
354.21	52.74
354.422	110.08
354.633	-25.09
354.845	-27.14
355.057	-14.85
355.268	60.93
355.48	-10.75
355.692	26.11
355.903	-8.7
356.115	75.26
356.326	-76.29
356.538	-25.09
356.749	34.3
356.961	-8.7
357.172	32.26
357.384	-10.75
357.595	112.13
357.807	11.78
358.018	46.59
358.23	54.78
358.441	56.83
358.653	56.83
358.864	26.11
359.075	28.16
359.287	52.74
359.498	75.26
359.709	-18.94
359.921	69.12
360.132	-39.42
360.344	-49.66
360.555	30.21
360.766	-29.18
360.977	-43.52
361.189	54.78
361.4	32.26
361.611	22.02
361.823	46.59
362.034	120.32
362.245	28.16
362.456	28.16
362.667	7.68
362.879	-8.7
363.09	46.59
363.301	40.45
363.512	13.82
363.723	-27.14
363.935	50.69
364.146	42.5
364.357	-20.99
364.568	112.13
364.779	24.06
364.99	-0.51
365.201	26.11
365.412	-0.51
365.623	-86.53
365.834	-10.75
366.045	7.68
366.256	-2.56
366.467	38.4
366.678	40.45
366.889	30.21
367.1	30.21
367.311	-25.09
367.522	-23.04
367.733	19.97
367.944	34.3
368.155	-12.8
368.366	13.82
368.577	30.21
368.788	34.3
368.999	-18.94
369.209	-70.14
369.42	46.59
369.631	95.74
369.842	58.88
370.053	24.06
370.264	-6.66
370.474	7.68
370.685	38.4
370.896	50.69
371.107	19.97
371.317	99.84
371.528	42.5
371.739	114.17
371.95	-0.51
372.16	60.93
372.371	128.51
372.582	30.21
372.792	36.35
373.003	138.75
373.214	40.45
373.424	87.55
373.635	34.3
373.846	13.82
374.056	-20.99
374.267	-6.66
374.477	75.26
374.688	22.02
374.898	56.83
375.109	-70.14
375.319	38.4
375.53	58.88
375.74	-25.09
375.951	58.88
376.161	-14.85
376.372	38.4
376.582	77.31
376.793	32.26
377.003	62.98
377.214	-2.56
377.424	52.74
377.635	24.06
377.845	-0.51
378.055	56.83
378.266	-27.14
378.476	93.69
378.686	73.21
378.897	54.78
379.107	38.4
379.317	13.82
379.528	38.4
379.738	73.21
379.948	32.26
380.158	-41.47
380.369	3.58
380.579	1.54
380.789	-0.51
380.999	-18.94
381.21	52.74
381.42	54.78
381.63	13.82
381.84	30.21
382.05	-6.66
382.261	87.55
382.471	30.21
382.681	67.07
382.891	30.21
383.101	58.88
383.311	5.63
383.521	19.97
383.731	30.21
383.941	32.26
384.151	46.59
384.361	50.69
384.571	-4.61
384.781	71.17
384.991	22.02
385.201	38.4
385.411	46.59
385.621	83.45
385.831	17.92
386.041	36.35
386.251	54.78
386.461	-10.75
386.671	-64
386.881	89.6
387.091	73.21
387.301	32.26
387.511	-2.56
387.72	22.02
387.93	79.36
388.14	30.21
388.35	15.87
388.56	83.45
388.769	71.17
388.979	71.17
389.189	15.87
389.399	1.54
389.609	83.45
389.818	89.6
390.028	-18.94
390.238	15.87
390.447	91.65
390.657	103.93
390.867	62.98
391.076	1.54
391.286	56.83
391.496	22.02
391.705	56.83
391.915	108.03
392.125	32.26
392.334	71.17
392.544	79.36
392.753	1.54
392.963	28.16
393.172	83.45
393.382	-20.99
393.591	7.68
393.801	11.78
394.01	91.65
394.22	42.5
394.429	-6.66
394.639	24.06
394.848	-25.09
395.058	95.74
395.267	56.83
395.477	13.82
395.686	46.59
395.895	62.98
396.105	114.17
396.314	34.3
396.524	58.88
396.733	58.88
396.942	-2.56
397.152	42.5
397.361	83.45
397.57	48.64
397.78	38.4
397.989	30.21
398.198	79.36
398.407	34.3
398.617	22.02
398.826	54.78
399.035	108.03
399.244	40.45
399.453	50.69
399.663	114.17
399.872	83.45
400.081	65.02
400.29	42.5
400.499	-4.61
400.708	67.07
400.917	50.69
401.127	73.21
401.336	77.31
401.545	48.64
401.754	24.06
401.963	114.17
402.172	-2.56
402.381	30.21
402.59	52.74
402.799	40.45
403.008	83.45
403.217	120.32
403.426	58.88
403.635	28.16
403.844	50.69
404.053	62.98
404.262	65.02
404.471	118.27
404.68	124.41
404.888	56.83
405.097	120.32
405.306	87.55
405.515	73.21
405.724	65.02
405.933	85.5
406.142	112.13
406.35	91.65
406.559	120.32
406.768	83.45
406.977	62.98
407.185	79.36
407.394	105.98
407.603	52.74
407.812	65.02
408.02	122.37
408.229	146.94
408.438	140.8
408.646	128.51
408.855	75.26
409.064	220.67
409.272	103.93
409.481	136.7
409.69	122.37
409.898	56.83
410.107	144.89
410.315	91.65
410.524	163.33
410.733	189.95
410.941	155.13
411.15	120.32
411.358	185.85
411.567	224.76
411.775	187.9
411.984	42.5
412.192	189.95
412.401	210.43
412.609	169.47
412.818	278.01
413.026	235
413.234	210.43
413.443	171.52
413.651	208.38
413.86	253.44
414.068	194.05
414.276	321.02
414.485	183.81
414.693	312.83
414.901	314.88
415.11	278.01
415.318	288.25
415.526	368.12
415.734	263.68
415.943	269.82
416.151	374.27
416.359	392.7
416.567	368.12
416.776	333.31
416.984	368.12
417.192	353.79
417.4	431.61
417.608	407.03
417.817	435.71
418.025	398.84
418.233	466.42
418.441	464.38
418.649	521.72
418.857	501.24
419.065	468.47
419.273	456.19
419.481	466.42
419.689	511.48
419.897	663.03
420.105	527.86
420.313	656.89
420.521	585.21
420.729	597.49
420.937	583.16
421.145	667.13
421.353	677.37
421.561	738.8
421.769	826.87
421.977	794.1
422.185	767.48
422.393	902.64
422.601	900.59
422.809	943.6
423.017	876.02
423.224	959.99
423.432	994.8
423.64	933.36
423.848	1033.71
424.056	1048.05
424.263	1013.23
424.471	1080.82
424.679	1099.25
424.887	1168.88
425.094	1185.26
425.302	1215.98
425.51	1308.14
425.718	1285.61
425.925	1326.57
426.133	1299.95
426.341	1437.16
426.548	1353.2
426.756	1517.03
426.964	1557.99
427.171	1637.86
427.379	1547.75
427.586	1601
427.794	1734.12
428.001	1691.11
428.209	1758.69
428.417	1746.41
428.624	1932.77
428.832	1926.63
429.039	1910.24
429.247	1963.49
429.454	2168.29
429.662	2301.4
429.869	2110.94
430.076	2299.36
430.284	2176.48
430.491	2350.56
430.699	2448.86
430.906	2465.24
431.114	2512.35
431.321	2434.52
431.528	2602.46
431.736	2772.44
431.943	2913.75
432.15	2760.15
432.358	2919.89
432.565	3030.48
432.772	2932.18
432.979	3132.88
433.187	3126.74
433.394	3323.34
433.601	3470.8
433.808	3374.54
434.016	3392.97
434.223	3487.18
434.43	3777.99
434.637	3601.87
434.844	3898.82
435.052	3884.48
435.259	4072.9
435.466	3866.05
435.673	3960.26
435.88	4148.67
436.087	4398.52
436.294	4306.37
436.501	4328.89
436.708	4449.72
436.915	4634.04
437.122	4697.53
437.329	4806.07
437.537	5025.2
437.743	4976.05
437.95	4937.14
438.157	5332.4
438.364	5324.21
438.571	5197.23
438.778	5455.28
438.985	5830.06
439.192	5512.62
439.399	5889.45
439.606	5643.69
439.813	5957.03
440.02	6317.47
440.227	6196.64
440.433	6030.76
440.64	6258.08
440.847	6344.1
441.054	6538.65
441.261	6821.27
441.467	6782.36
441.674	6886.81
441.881	7343.5
442.088	7286.16
442.294	7001.49
442.501	7376.27
442.708	7478.67
442.914	7732.62
443.121	8015.24
443.328	7771.53
443.534	8412.54
443.741	8121.73
443.948	8131.97
444.154	8508.8
444.361	8521.09
444.568	8519.04
444.774	8594.81
444.981	9053.56
445.187	9012.6
445.394	9227.64
445.6	9221.49
445.807	10028.39
446.013	9678.19
446.22	9880.94
446.426	10364.26
446.633	10290.53
446.839	10728.8
447.046	10435.94
447.252	10886.49
447.459	10708.32
447.665	10886.49
447.871	11212.12
448.078	11842.89
448.284	11269.46
448.491	11400.53
448.697	12078.41
448.903	12051.78
449.11	12219.72
449.316	12043.59
449.522	12125.51
449.728	12531.01
449.935	12715.33
450.141	12600.64
450.347	12866.88
450.553	12416.32
450.76	12744
450.966	13045.05
451.172	12698.94
451.378	13223.22
451.584	13022.52
451.791	13278.52
451.997	13112.63
452.203	13317.43
452.409	13473.07
452.615	13327.67
452.821	12752.19
453.027	12506.43
453.233	13387.06
453.44	12893.5
453.646	12913.98
453.852	12909.88
454.058	13325.62
454.264	12860.73
454.47	12981.56
454.676	12782.91
454.882	13157.69
455.088	12047.69
455.294	12195.14
455.5	12186.95
455.705	12320.07
455.911	11982.15
456.117	11623.76
456.323	11646.29
456.529	10939.74
456.735	11400.53
456.941	10990.94
457.147	10982.74
457.352	10612.06
457.558	10427.74
457.764	10491.23
457.97	10167.65
458.176	10304.87
458.381	10304.87
458.587	9272.69
458.793	9663.85
458.999	9100.66
459.204	9870.7
459.41	9495.92
459.616	8746.36
459.821	8828.28
460.027	8910.2
460.233	8641.92
460.438	8238.47
460.644	8494.46
460.85	7789.96
461.055	7673.23
461.261	7736.71
461.466	7349.65
461.672	7003.54
461.878	7499.15
462.083	6845.85
462.289	6927.77
462.494	6829.46
462.7	6626.71
462.905	6538.65
463.111	6626.71
463.316	6602.14
463.522	6540.7
463.727	6677.91
463.932	6485.41
464.138	6350.24
464.343	6444.45
464.549	6210.98
464.754	6618.52
464.959	6321.57
465.165	6378.91
465.37	6108.58
465.575	5932.45
465.781	6073.76
465.986	6184.35
466.191	6022.56
466.397	5875.11
466.602	5590.44
466.807	5760.42
467.012	5895.59
467.218	5780.9
467.423	5664.17
467.628	5715.37
467.833	6059.43
468.038	5823.91
468.244	5572.01
468.449	5916.07
468.654	5559.72
468.859	5739.94
469.064	5610.92
469.269	5289.39
469.474	5404.08
469.679	5461.42
469.885	5180.85
470.09	5447.08
470.295	5285.3
470.5	5166.51
470.705	5377.45
470.91	5180.85
471.115	5227.95
471.32	5209.52
471.525	5264.82
471.73	4957.62
471.935	5115.31
472.139	4931
472.344	4988.34
472.549	4965.81
472.754	4920.76
472.959	4711.86
473.164	4556.22
473.369	4611.51
473.574	4687.29
473.778	4623.8
473.983	4652.47
474.188	4576.7
474.393	4330.94
474.598	4406.72
474.802	4402.62
475.007	4302.27
475.212	4335.04
475.417	4259.26
475.621	4261.31
475.826	4277.69
476.031	4152.77
476.235	4048.32
476.44	4079.04
476.645	3964.36
476.849	4117.95
477.054	4021.7
477.259	3888.58
477.463	3933.64
477.668	3880.39
477.872	3888.58
478.077	3876.29
478.282	3716.55
478.486	3812.81
478.691	3628.49
478.895	3747.27
479.1	3642.82
479.304	3761.61
479.509	3507.66
479.713	3618.25
479.918	3558.86
480.122	3474.89
480.326	3526.09
480.531	3612.1
480.735	3419.6
480.94	3491.27
481.144	3521.99
481.348	3362.25
481.553	3397.07
481.757	3397.07
481.961	3388.88
482.166	3507.66
482.37	3468.75
482.574	3390.92
482.778	3392.97
482.983	3438.03
483.187	3466.7
483.391	3382.73
483.595	3444.17
483.8	3345.87
484.004	3460.56
484.208	3349.96
484.412	3413.45
484.616	3401.16
484.821	3319.25
485.025	3325.39
485.229	3448.27
485.433	3446.22
485.637	3438.03
485.841	3374.54
486.045	3341.77
486.249	3284.43
486.453	3442.12
486.657	3321.29
486.861	3339.73
487.065	3333.58
487.269	3458.51
487.473	3339.73
487.677	3382.73
487.881	3376.59
488.085	3372.49
488.289	3429.84
488.493	3376.59
488.697	3421.64
488.901	3354.06
489.105	3417.55
489.309	3386.83
489.512	3413.45
489.716	3382.73
489.92	3456.46
490.124	3532.23
490.328	3495.37
490.531	3505.61
490.735	3366.35
490.939	3560.91
491.143	3489.23
491.346	3513.8
491.55	3552.71
491.754	3655.11
491.958	3601.87
492.161	3614.15
492.365	3542.47
492.569	3562.95
492.772	3542.47
492.976	3593.67
493.18	3661.26
493.383	3724.74
493.587	3782.09
493.79	3730.89
493.994	3767.75
494.197	3841.48
494.401	3732.94
494.605	3769.8
494.808	3841.48
495.012	3804.61
495.215	3952.07
495.419	4048.32
495.622	3911.11
495.825	3976.64
496.029	3941.83
496.232	4074.95
496.436	4070.85
496.639	4169.15
496.843	4191.68
497.046	4283.84
497.249	4228.54
497.453	4253.12
497.656	4386.24
497.859	4265.41
498.063	4396.48
498.266	4548.03
498.469	4421.05
498.673	4519.36
498.876	4666.81
499.079	4724.15
499.282	4636.09
499.485	4804.02
499.689	4844.98
499.892	4844.98
500.095	4816.31
500.298	5090.74
500.501	4986.29
500.705	5143.99
500.908	5246.38
501.111	5291.44
501.314	5338.54
501.517	5297.58
501.72	5428.65
501.923	5375.41
502.126	5508.52
502.329	5651.88
502.532	5637.55
502.735	5844.39
502.938	5850.53
503.141	5768.62
503.344	5774.76
503.547	5903.78
503.75	6053.28
503.953	6100.39
504.156	6141.35
504.359	6301.09
504.562	6362.53
504.765	6528.41
504.968	6665.63
505.17	6661.53
505.373	6600.09
505.576	6690.2
505.779	6831.51
505.982	7007.64
506.185	7009.69
506.387	7087.51
506.59	7116.18
506.793	7175.57
506.996	7345.55
507.198	7568.78
507.401	7413.13
507.604	7445.9
507.807	7699.85
508.009	7886.22
508.212	7828.87
508.415	7964.04
508.617	7835.02
508.82	8162.69
509.022	8076.68
509.225	8420.74
509.428	8367.49
509.63	8402.3
509.833	8525.18
510.035	8770.94
510.238	8721.79
510.44	8942.97
510.643	9094.52
510.845	9180.53
511.048	9119.09
511.25	9184.63
511.453	9405.81
511.655	9749.87
511.858	9606.51
512.06	9790.83
512.262	9911.66
512.465	9915.75
512.667	9950.57
512.87	10130.79
513.072	10196.32
513.274	10378.59
513.477	10765.66
513.679	10913.11
513.881	10868.06
514.084	10982.74
514.286	11154.77
514.488	10943.83
514.69	11322.71
514.893	11357.52
515.095	11570.51
515.297	11681.1
515.499	11984.2
515.701	11906.38
515.904	12100.94
516.106	12340.55
516.308	12369.22
516.51	12430.66
516.712	12473.67
516.914	12561.73
517.116	12959.03
517.318	13004.09
517.52	13073.72
517.722	13219.13
517.925	13303.09
518.127	13391.16
518.329	13833.52
518.531	13403.44
518.733	14122.28
518.935	14087.47
519.136	14165.29
519.338	14527.78
519.54	14517.54
519.742	14781.73
519.944	14603.55
520.146	15062.3
520.348	15103.26
520.55	15043.87
520.752	15451.41
520.954	15625.49
521.155	15746.32
521.357	15795.47
521.559	15906.06
521.761	16278.79
521.963	16217.35
522.164	16704.77
522.366	16366.85
522.568	16764.16
522.77	16727.3
522.971	17255.67
523.173	16999.68
523.375	17239.29
523.576	17227
523.778	17286.39
523.98	17749.23
524.181	17599.73
524.383	17806.58
524.584	18019.57
524.786	17951.98
524.988	18046.19
525.189	18083.05
525.391	18078.96
525.592	18638.05
525.794	18636
525.995	18791.65
526.197	18734.31
526.398	18842.85
526.6	18924.77
526.801	19045.6
527.003	19164.38
527.204	19281.11
527.406	19528.92
527.607	19549.4
527.808	19498.2
528.01	19082.46
528.211	19539.16
528.412	19762.39
528.614	19838.16
528.815	19852.5
529.016	20051.15
529.218	19686.61
529.419	19938.51
529.62	19950.8
529.822	19999.95
530.023	20214.99
530.224	19897.55
530.425	20174.03
530.626	20161.74
530.828	20036.81
531.029	20180.17
531.23	20245.71
531.431	20214.99
531.632	20493.51
531.833	20765.89
532.035	20233.42
532.236	20331.72
532.437	20681.92
532.638	20464.84
532.839	20763.84
533.04	20632.77
533.241	20790.47
533.442	20788.42
533.643	21023.94
533.844	20683.97
534.045	20663.49
534.246	20675.78
534.447	20698.31
534.648	20954.3
534.849	20663.49
535.05	20774.08
535.251	21021.89
535.451	20833.47
535.652	20874.43
535.853	20862.15
536.054	20866.24
536.255	21214.4
536.456	20903.11
536.657	21396.67
536.857	20952.26
537.058	21118.14
537.259	21015.74
537.46	21331.13
537.66	21077.18
537.861	20890.82
538.062	20946.11
538.263	21226.68
538.463	21060.8
538.664	20982.98
538.865	21107.9
539.065	21202.11
539.266	21044.41
539.466	21066.94
539.667	20776.13
539.868	21245.12
540.068	21017.79
540.269	20925.63
540.469	21271.74
540.67	21150.91
540.87	21087.42
541.071	20989.12
541.271	21150.91
541.472	20872.39
541.672	20935.87
541.873	20964.54
542.073	20878.53
542.274	20925.63
542.474	20694.21
542.675	21064.89
542.875	20954.3
543.075	21097.66
543.276	20679.88
543.476	21112
543.676	20993.22
543.877	21046.46
544.077	21109.95
544.277	21021.89
544.478	20937.92
544.678	21271.74
544.878	20970.69
545.078	21068.99
545.279	20991.17
545.479	20845.76
545.679	20905.15
545.879	20657.35
546.079	21243.07
546.28	21120.19
546.48	20808.9
546.68	21333.18
546.88	20896.96
547.08	20790.47
547.28	20780.23
547.48	20821.19
547.68	21032.13
547.88	20915.39
548.081	21030.08
548.281	20726.98
548.481	21023.94
548.681	21220.54
548.881	21068.99
549.081	21122.24
549.28	20915.39
549.48	21062.85
549.68	20989.12
549.88	20890.82
550.08	21128.38
550.28	20954.3
550.48	20827.33
550.68	21187.77
550.88	20911.3
551.08	21011.65
551.279	21232.83
551.479	20847.81
551.679	21019.84
551.879	21320.89
552.079	21200.06
552.278	21101.76
552.478	21042.37
552.678	21009.6
552.878	20833.47
553.077	20956.35
553.277	20690.12
553.477	21318.84
553.676	20806.85
553.876	20987.07
554.076	20716.74
554.275	20800.71
554.475	20487.37
554.674	20559.05
554.874	21034.18
555.074	20710.6
555.273	20896.96
555.473	20690.12
555.672	20520.13
555.872	20933.82
556.071	20753.6
556.271	20655.3
556.47	20624.58
556.67	20501.7
556.869	20649.16
557.068	20466.89
557.268	20210.89
557.467	20239.56
557.667	20307.15
557.866	20409.54
558.065	20370.63
558.265	20503.75
558.464	20301
558.663	20468.94
558.863	20329.67
559.062	20579.53
559.261	20149.45
559.461	20493.51
559.66	19889.36
559.859	20124.88
560.058	19977.42
560.258	20028.62
560.457	19899.6
560.656	20034.77
560.855	19936.46
561.054	19940.56
561.253	19856.59
561.453	19793.11
561.652	19983.57
561.851	20055.25
562.05	19725.52
562.249	19727.57
562.448	19829.97
562.647	19825.87
562.846	19735.76
563.045	19723.48
563.244	19473.62
563.443	19524.82
563.642	19631.32
563.841	19334.36
564.04	19283.16
564.239	19461.34
564.438	19145.95
564.637	19576.02
564.836	19295.45
565.035	19068.13
565.234	19070.17
565.432	19375.32
565.631	19164.38
565.83	19264.73
566.029	18996.45
566.228	19084.51
566.427	18996.45
566.625	18547.94
566.824	18906.34
567.023	19139.8
567.222	18603.24
567.42	18900.19
567.619	18523.37
567.818	18799.84
568.016	18326.76
568.215	18683.11
568.414	18388.2
568.612	18511.08
568.811	18173.16
569.01	18470.12
569.208	18275.56
569.407	18250.99
569.605	17859.82
569.804	18087.15
570.002	18031.85
570.201	18388.2
570.4	17974.51
570.598	17741.04
570.797	17841.39
570.995	17976.56
571.193	17790.19
571.392	17700.08
571.59	17626.36
571.789	17616.12
571.987	17536.24
572.186	17476.85
572.384	17564.92
572.582	17495.29
572.781	17448.18
572.979	17337.59
573.177	17245.43
573.376	17298.68
573.574	17020.16
573.772	17196.28
573.971	17079.55
574.169	16635.14
574.367	16839.94
574.565	16981.24
574.763	16708.87
574.962	16643.33
575.16	16585.99
575.358	16618.75
575.556	16401.67
575.754	16604.42
575.952	16354.57
576.151	16637.19
576.349	16010.51
576.547	16360.71
576.745	16442.63
576.943	16125.19
577.141	16256.26
577.339	16047.37
577.537	15865.1
577.735	16055.56
577.933	15805.71
578.131	15852.81
578.329	15990.03
578.527	15809.81
578.725	15813.9
578.923	15701.26
579.121	15731.98
579.319	15455.51
579.516	15654.16
579.714	15727.89
579.912	15394.07
580.11	15344.92
580.308	15324.44
580.506	15277.33
580.704	14923.04
580.901	15394.07
581.099	15127.83
581.297	15142.17
581.495	15000.86
581.692	15226.14
581.89	15078.68
582.088	15041.82
582.285	14980.38
582.483	14931.23
582.681	14945.56
582.878	14912.8
583.076	14529.83
583.274	14660.9
583.471	14728.48
583.669	14785.82
583.866	14630.18
584.064	14746.91
584.262	14419.24
584.459	14490.91
584.657	14449.96
584.854	14417.19
585.052	14064.94
585.249	14292.26
585.447	14404.9
585.644	14181.67
585.841	14144.81
586.039	13923.63
586.236	13952.3
586.434	13954.35
586.631	13915.44
586.828	13813.04
587.026	14046.51
587.223	13628.72
587.42	13872.43
587.618	13759.79
587.815	13444.4
588.012	13767.98
588.21	13579.57
588.407	13688.11
588.604	13309.24
588.801	13452.59
588.999	13452.59
589.196	13589.81
589.393	13354.29
589.59	13344.05
589.787	13350.2
589.984	13233.46
590.182	13204.79
590.379	13200.69
590.576	13049.14
590.773	13108.54
590.97	12924.22
591.167	13075.77
591.364	12870.97
591.561	13086.01
591.758	12930.36
591.955	12846.4
592.152	12873.02
592.349	12950.84
592.546	12543.3
592.743	12737.85
592.94	12567.87
593.137	12645.7
593.334	12639.55
593.531	12365.12
593.727	12373.32
593.924	12416.32
594.121	12459.33
594.318	12565.82
594.515	12354.88
594.712	12651.84
594.908	12467.52
595.105	12358.98
595.302	12283.2
595.499	12170.57
595.696	12289.35
595.892	12252.49
596.089	12322.12
596.286	12062.02
596.482	11994.44
596.679	12082.5
596.876	12172.61
597.072	11984.2
597.269	11820.36
597.466	11828.56
597.662	11724.11
597.859	11859.28
598.055	11760.97
598.252	11699.53
598.448	11859.28
598.645	11629.9
598.841	11550.03
599.038	11791.69
599.234	11777.36
599.431	11285.84
599.627	11511.12
599.824	11613.52
600.02	11351.38
600.217	11662.67
600.413	11371.86
600.609	11406.67
600.806	11214.16
601.002	11291.99
601.198	11138.39
601.395	11199.83
601.591	11081.05
601.787	11093.33
601.984	10837.34
602.18	11048.28
602.376	11011.42
602.572	11011.42
602.769	11089.24
602.965	10829.15
603.161	10771.8
603.357	10716.51
603.553	10669.41
603.75	10642.78
603.946	10614.11
604.142	10749.28
604.338	10472.8
604.534	10780
604.73	10493.28
604.926	10554.72
605.122	10472.8
605.318	10419.55
605.514	10255.72
605.71	10415.46
605.906	10296.67
606.102	10335.59
606.298	10177.89
606.494	10093.93
606.69	10376.55
606.886	10372.45
607.082	10186.08
607.278	10124.65
607.474	9942.38
607.67	10030.44
607.866	9946.47
608.062	10112.36
608.257	9782.63
608.453	10028.39
608.649	9885.03
608.845	10081.64
609.041	9721.2
609.236	9837.93
609.432	9500.02
609.628	9823.59
609.824	9811.31
610.019	9686.38
610.215	9778.54
610.411	9626.99
610.606	9383.28
610.802	9629.04
610.998	9489.78
611.193	9674.09
611.389	9426.29
611.584	9348.47
611.78	9430.38
611.976	9559.41
612.171	9278.83
612.367	9358.71
612.562	9264.5
612.758	9215.35
612.953	9182.58
613.149	9340.27
613.344	9311.6
613.539	9354.61
613.735	9295.22
613.93	9235.83
614.126	8963.45
614.321	9043.32
614.517	9057.65
614.712	8899.96
614.907	8912.25
615.103	9026.93
615.298	9053.56
615.493	8914.3
615.688	8881.53
615.884	9207.16
616.079	8738.17
616.274	8908.15
616.47	8560
616.665	8729.98
616.86	8961.4
617.055	8953.21
617.25	8678.78
617.445	8664.44
617.641	8566.14
617.836	8797.56
618.031	8506.75
618.226	8570.24
618.421	8510.85
618.616	8490.37
618.811	8304
619.006	8660.35
619.201	8164.74
619.396	8439.17
619.591	8267.14
619.786	8404.35
619.981	8021.38
620.176	8240.51
620.371	8119.68
620.566	8275.33
620.761	8150.4
620.956	8187.27
621.151	7847.3
621.346	8005
621.541	8027.53
621.735	8013.19
621.93	7875.98
622.125	7806.34
622.32	7859.59
622.515	7675.27
622.709	7873.93
622.904	7527.82
623.099	7480.72
623.294	7636.36
623.488	7572.88
623.683	7480.72
623.878	7513.49
624.072	7585.16
624.267	7327.12
624.462	7411.09
624.656	7222.67
624.851	7431.57
625.046	7306.64
625.24	7402.9
625.435	7099.8
625.629	7216.53
625.824	6995.35
626.018	7126.42
626.213	6880.66
626.407	6958.49
626.602	6708.63
626.796	7050.64
626.991	6880.66
627.185	6712.73
627.38	6710.68
627.574	6671.77
627.768	6780.31
627.963	6778.26
628.157	6518.17
628.352	6768.02
628.546	6526.36
628.74	6641.05
628.935	6495.64
629.129	6577.56
629.323	6460.83
629.517	6618.52
629.712	6393.25
629.906	6426.01
630.1	6426.01
630.294	6348.19
630.489	6020.52
630.683	6098.34
630.877	6116.77
631.071	6217.12
631.265	6038.95
631.459	6100.39
631.653	6061.48
631.848	5830.06
632.042	5942.69
632.236	5965.22
632.43	5821.86
632.624	6026.66
632.818	5873.06
633.012	5864.87
633.206	5838.25
633.4	5727.66
633.594	5799.34
633.788	5801.38
633.982	5662.12
634.176	5666.22
634.369	5660.07
634.563	5594.54
634.757	5420.46
634.951	5553.58
635.145	5592.49
635.339	5524.91
635.533	5518.76
635.726	5451.18
635.92	5346.73
636.114	5481.9
636.308	5365.17
636.501	5297.58
636.695	5346.73
636.889	5236.14
637.083	5318.06
637.276	5209.52
637.47	5205.42
637.664	5170.61
637.857	5139.89
638.051	5176.75
638.244	4986.29
638.438	5088.69
638.632	5043.64
638.825	4828.6
639.019	4961.72
639.212	4804.02
639.406	4750.78
639.599	4875.7
639.793	4847.03
639.986	4763.06
640.18	4922.8
640.373	4652.47
640.567	4658.62
640.76	4660.66
640.954	4740.54
641.147	4898.23
641.34	4820.41
641.534	4419
641.727	4586.94
641.92	4701.62
642.114	4584.89
642.307	4593.08
642.5	4431.29
642.694	4382.14
642.887	4390.33
643.08	4410.81
643.273	4457.92
643.467	4353.47
643.66	4292.03
643.853	4238.78
644.046	4208.06
644.239	4259.26
644.432	4189.63
644.626	4226.5
644.819	3978.69
645.012	4148.67
645.205	4105.67
645.398	4031.94
645.591	4052.42
645.784	4025.79
645.977	3939.78
646.17	3909.06
646.363	4113.86
646.556	3997.12
646.749	3806.66
646.942	3980.74
647.135	3751.37
647.328	3855.81
647.521	3929.54
647.714	3749.32
647.907	3827.14
648.099	3708.36
648.292	3661.26
648.485	3726.79
648.678	3691.98
648.871	3730.89
649.064	3667.4
649.256	3618.25
649.449	3706.31
649.642	3696.07
649.835	3421.64
650.027	3519.95
650.22	3497.42
650.413	3554.76
650.605	3507.66
650.798	3478.99
650.991	3331.53
651.183	3411.4
651.376	3399.12
651.568	3362.25
651.761	3446.22
651.954	3411.4
652.146	3372.49
652.339	3309.01
652.531	3300.81
652.724	3268.05
652.916	3319.25
653.109	3102.16
653.301	3239.37
653.494	3331.53
653.686	3104.21
653.879	3218.89
654.071	2956.75
654.263	3171.79
654.456	3032.53
654.648	3198.42
654.84	3147.22
655.033	2997.71
655.225	3046.87
655.417	3024.34
655.61	3012.05
655.802	2856.4
655.994	2846.16
656.186	2932.18
656.379	2921.94
656.571	2883.03
656.763	2815.45
656.955	2866.64
657.148	2776.53
657.34	2770.39
657.532	2786.77
657.724	2819.54
657.916	2876.88
658.108	2729.43
658.3	2827.73
658.492	2694.61
658.684	2708.95
658.876	2741.72
659.068	2692.57
659.26	2653.66
659.452	2618.84
659.644	2725.33
659.836	2571.74
660.028	2682.33
660.22	2518.49
660.412	2534.87
660.604	2506.2
660.796	2571.74
660.988	2418.14
661.18	2563.54
661.372	2463.19
661.563	2528.73
661.755	2352.6
661.947	2495.96
662.139	2448.86
662.331	2473.43
662.522	2438.62
662.714	2450.91
662.906	2377.18
663.097	2352.6
663.289	2332.12
663.481	2274.78
663.673	2405.85
663.864	2336.22
664.056	2233.82
664.247	2110.94
664.439	2315.74
664.631	2260.45
664.822	2227.68
665.014	2258.4
665.205	2231.77
665.397	2223.58
665.588	2209.25
665.78	2201.05
665.971	2258.4
666.163	2182.62
666.354	2096.61
666.546	2112.99
666.737	2143.71
666.929	2084.32
667.12	2174.43
667.311	2088.42
667.503	2053.6
667.694	2065.89
667.885	2078.18
668.077	2022.88
668.268	2115.04
668.459	2055.65
668.651	2086.37
668.842	1951.2
669.033	2047.46
669.224	1873.38
669.416	1957.35
669.607	1947.11
669.798	1957.35
669.989	1998.31
670.18	1891.81
670.371	1922.53
670.563	1891.81
670.754	1932.77
670.945	1994.21
671.136	1930.72
671.327	1867.24
671.518	1924.58
671.709	1992.16
671.9	1854.95
672.091	1891.81
672.282	1908.19
672.473	1846.76
672.664	1824.23
672.855	1764.84
673.046	1781.22
673.237	1836.52
673.428	1914.34
673.619	1783.27
673.809	1705.45
674	1848.8
674.191	1938.91
674.382	1818.08
674.573	1738.21
674.764	1760.74
674.954	1723.88
675.145	1861.09
675.336	1807.84
675.527	1732.07
675.717	1713.64
675.908	1822.18
676.099	1824.23
676.289	1744.36
676.48	1807.84
676.671	1746.41
676.861	1803.75
677.052	1750.5
677.243	1725.93
677.433	1818.08
677.624	1703.4
677.814	1668.58
678.005	1848.8
678.195	1811.94
678.386	1693.16
678.576	1703.4
678.767	1736.17
678.957	1678.82
679.148	1660.39
679.338	1650.15
679.529	1695.21
679.719	1703.4
679.909	1697.25
680.1	1603.05
680.29	1748.45
680.481	1652.2
680.671	1543.66
680.861	1611.24
681.052	1601
681.242	1709.54
681.432	1697.25
681.622	1562.09
681.813	1672.68
682.003	1641.96
682.193	1572.33
682.383	1545.7
682.573	1621.48
682.764	1564.14
682.954	1697.25
683.144	1627.62
683.334	1537.51
683.524	1609.19
683.714	1564.14
683.904	1555.94
684.094	1578.47
684.284	1510.89
684.474	1553.9
684.664	1496.55
684.854	1545.7
685.044	1523.18
685.234	1453.55
685.424	1621.48
685.614	1693.16
685.804	1523.18
685.994	1566.18
686.184	1553.9
686.374	1689.06
686.564	1537.51
686.753	1541.61
686.943	1529.32
687.133	1553.9
687.323	1687.01
687.513	1549.8
687.702	1471.98
687.892	1502.7
688.082	1504.75
688.272	1664.49
688.461	1557.99
688.651	1428.97
688.841	1570.28
689.03	1535.46
689.22	1471.98
689.41	1521.13
689.599	1637.86
689.789	1601
689.979	1551.85
690.168	1453.55
690.358	1537.51
690.547	1512.94
690.737	1525.22
690.926	1529.32
691.116	1482.22
691.305	1527.27
691.495	1537.51
691.684	1484.27
691.874	1582.57
692.063	1525.22
692.252	1474.03
692.442	1693.16
692.631	1533.42
692.82	1584.62
693.01	1441.26
693.199	1525.22
693.388	1531.37
693.578	1553.9
693.767	1517.03
693.956	1426.92
694.146	1459.69
694.335	1414.63
694.524	1474.03
694.713	1480.17
694.902	1435.11
695.092	1572.33
695.281	1431.02
695.47	1451.5
695.659	1500.65
695.848	1576.42
696.037	1539.56
696.226	1482.22
696.415	1564.14
696.604	1557.99
696.793	1447.4
696.982	1570.28
697.171	1512.94
697.36	1590.76
697.549	1560.04
697.738	1498.6
697.927	1525.22
698.116	1557.99
698.305	1504.75
698.494	1629.67
698.683	1551.85
698.872	1492.46
699.061	1588.71
699.25	1517.03
699.438	1441.26
699.627	1500.65
699.816	1514.98
700.005	1537.51
700.193	1570.28
700.382	1680.87
700.571	1408.49
700.76	1455.59
700.948	1512.94
701.137	1506.79
701.326	1467.88
701.514	1490.41
701.703	1523.18
701.892	1441.26
702.08	1502.7
702.269	1545.7
702.457	1484.27
702.646	1517.03
702.834	1512.94
703.023	1465.83
703.212	1527.27
703.4	1476.07
703.589	1506.79
703.777	1471.98
703.965	1467.88
704.154	1480.17
704.342	1457.64
704.531	1447.4
704.719	1424.87
704.907	1484.27
705.096	1484.27
705.284	1416.68
705.472	1404.39
705.661	1529.32
705.849	1439.21
706.037	1445.35
706.226	1496.55
706.414	1476.07
706.602	1523.18
706.79	1517.03
706.979	1545.7
707.167	1514.98
707.355	1500.65
707.543	1463.79
707.731	1410.54
707.919	1363.44
708.107	1408.49
708.296	1369.58
708.484	1441.26
708.672	1373.68
708.86	1353.2
709.048	1388.01
709.236	1373.68
709.424	1375.72
709.612	1445.35
709.8	1375.72
709.988	1439.21
710.176	1424.87
710.364	1365.48
710.551	1422.83
710.739	1383.91
710.927	1433.07
711.115	1447.4
711.303	1357.29
711.491	1308.14
711.679	1322.48
711.866	1398.25
712.054	1377.77
712.242	1371.63
712.43	1369.58
712.617	1381.87
712.805	1256.94
712.993	1312.24
713.181	1293.8
713.368	1369.58
713.556	1367.53
713.744	1211.89
713.931	1324.52
714.119	1336.81
714.306	1291.76
714.494	1271.28
714.682	1310.19
714.869	1289.71
715.057	1353.2
715.244	1291.76
715.432	1375.72
715.619	1332.72
715.807	1287.66
715.994	1377.77
716.182	1220.08
716.369	1187.31
716.556	1318.38
716.744	1168.88
716.931	1273.32
717.119	1244.65
717.306	1187.31
717.493	1246.7
717.681	1285.61
717.868	1347.05
718.055	1132.01
718.242	1254.89
718.43	1244.65
718.617	1187.31
718.804	1209.84
718.991	1183.21
719.179	1144.3
719.366	1144.3
719.553	1207.79
719.74	1160.69
719.927	1256.94
720.114	1222.13
720.301	1191.41
720.488	1191.41
720.676	1156.59
720.863	1218.03
721.05	1129.97
721.237	1138.16
721.424	1154.54
721.611	1138.16
721.798	1134.06
721.985	1121.77
722.172	1064.43
722.358	1144.3
722.545	1209.84
722.732	1078.77
722.919	1123.82
723.106	1134.06
723.293	1123.82
723.48	1136.11
723.667	1025.52
723.853	1086.96
724.04	1119.73
724.227	1138.16
724.414	1089.01
724.6	1048.05
724.787	1093.1
724.974	1054.19
725.161	1086.96
725.347	1011.18
725.534	1164.78
725.72	1072.62
725.907	1054.19
726.094	1113.58
726.28	1005.04
726.467	1113.58
726.653	1177.07
726.84	1037.81
727.027	1154.54
727.213	1097.2
727.4	1027.57
727.586	1099.25
727.773	988.66
727.959	1064.43
728.145	1056.24
728.332	1070.58
728.518	1009.14
728.705	1054.19
728.891	941.55
729.077	1015.28
729.264	1021.42
729.45	972.27
729.636	1039.86
729.823	949.75
730.009	982.51
730.195	990.7
730.382	978.42
730.568	890.35
730.754	968.18
730.94	925.17
731.126	992.75
731.313	964.08
731.499	990.7
731.685	996.85
731.871	919.03
732.057	968.18
732.243	992.75
732.429	1031.66
732.615	982.51
732.801	1031.66
732.987	959.99
733.173	962.03
733.359	988.66
733.545	988.66
733.731	1007.09
733.917	968.18
734.103	970.23
734.289	900.59
734.475	947.7
734.661	943.6
734.847	898.55
735.033	933.36
735.219	882.16
735.404	906.74
735.59	945.65
735.776	878.07
735.962	914.93
736.148	1052.14
736.333	845.3
736.519	896.5
736.705	830.96
736.89	992.75
737.076	849.4
737.262	925.17
737.447	876.02
737.633	880.11
737.819	910.83
738.004	921.07
738.19	853.49
738.375	853.49
738.561	925.17
738.747	931.31
738.932	951.79
739.118	873.97
739.303	945.65
739.489	859.63
739.674	876.02
739.859	855.54
740.045	962.03
740.23	859.63
740.416	796.15
740.601	810.48
740.786	820.72
740.972	890.35
741.157	761.33
741.342	824.82
741.528	828.92
741.713	777.72
741.898	771.57
742.084	902.64
742.269	763.38
742.454	878.07
742.639	841.2
742.824	816.63
743.01	857.59
743.195	794.1
743.38	790
743.565	802.29
743.75	869.87
743.935	794.1
744.12	808.44
744.305	724.47
744.49	773.62
744.675	742.9
744.86	796.15
745.045	775.67
745.23	828.92
745.415	648.69
745.6	816.63
745.785	761.33
745.97	804.34
746.155	759.28
746.34	814.58
746.525	765.43
746.71	785.91
746.895	660.98
747.079	708.09
747.264	691.7
747.449	636.41
747.634	724.47
747.819	777.72
748.003	663.03
748.188	660.98
748.373	605.69
748.557	699.89
748.742	716.28
748.927	673.27
749.111	681.46
749.296	671.22
749.481	654.84
749.665	646.65
749.85	638.45
750.034	722.42
750.219	644.6
750.404	669.17
750.588	652.79
750.773	558.58
750.957	660.98
751.141	669.17
751.326	654.84
751.51	589.3
751.695	611.83
751.879	620.02
752.064	583.16
752.248	632.31
752.432	626.17
752.617	542.2
752.801	572.92
752.985	544.25
753.17	683.51
753.354	611.83
753.538	525.82
753.722	581.11
753.907	581.11
754.091	529.91
754.275	589.3
754.459	536.06
754.643	599.54
754.828	507.38
755.012	548.34
755.196	507.38
755.38	531.96
755.564	525.82
755.748	480.76
755.932	597.49
756.116	558.58
756.3	521.72
756.484	601.59
756.668	513.53
756.852	466.42
757.036	407.03
757.22	402.94
757.404	484.86
757.588	466.42
757.772	560.63
757.956	488.95
758.14	482.81
758.323	480.76
758.507	501.24
758.691	568.82
758.875	484.86
759.059	529.91
759.242	458.23
759.426	521.72
759.61	484.86
759.794	439.8
759.977	456.19
760.161	503.29
760.345	400.89
760.528	570.87
760.712	398.84
760.895	441.85
761.079	402.94
761.263	437.75
761.446	394.75
761.63	366.07
761.813	480.76
761.997	423.42
762.18	443.9
762.364	472.57
762.547	382.46
762.731	435.71
762.914	409.08
763.098	374.27
763.281	398.84
763.464	404.99
763.648	415.23
763.831	376.31
764.015	398.84
764.198	474.62
764.381	488.95
764.564	398.84
764.748	433.66
764.931	382.46
765.114	423.42
765.297	400.89
765.481	353.79
765.664	443.9
765.847	355.83
766.03	409.08
766.213	435.71
766.397	384.51
766.58	335.35
766.763	310.78
766.946	368.12
767.129	386.55
767.312	386.55
767.495	378.36
767.678	402.94
767.861	259.58
768.044	404.99
768.227	333.31
768.41	421.37
768.593	310.78
768.776	415.23
768.959	372.22
769.142	368.12
769.324	400.89
769.507	409.08
769.69	417.27
769.873	382.46
770.056	368.12
770.239	288.25
770.421	302.59
770.604	325.12
770.787	392.7
770.97	333.31
771.152	296.44
771.335	413.18
771.518	376.31
771.7	374.27
771.883	437.75
772.066	335.35
772.248	312.83
772.431	306.68
772.613	300.54
772.796	382.46
772.978	284.16
773.161	308.73
773.343	302.59
773.526	370.17
773.708	331.26
773.891	312.83
774.073	316.92
774.256	374.27
774.438	402.94
774.621	343.55
774.803	349.69
774.985	353.79
775.168	321.02
775.35	251.39
775.532	335.35
775.715	228.86
775.897	253.44
776.079	343.55
776.261	341.5
776.444	304.64
776.626	300.54
776.808	351.74
776.99	294.4
777.173	355.83
777.355	304.64
777.537	220.67
777.719	288.25
777.901	278.01
778.083	251.39
778.265	278.01
778.447	261.63
778.629	206.33
778.811	300.54
778.993	255.48
779.175	308.73
779.357	214.52
779.539	220.67
779.721	296.44
779.903	325.12
780.085	206.33
780.267	243.2
780.449	214.52
780.631	220.67
780.812	292.35
780.994	265.72
781.176	247.29
781.358	267.77
781.54	261.63
781.721	155.13
781.903	185.85
782.085	255.48
782.267	169.47
782.448	206.33
782.63	269.82
782.812	146.94
782.993	232.96
783.175	265.72
783.357	212.48
783.538	298.49
783.72	216.57
783.901	210.43
784.083	167.42
784.264	206.33
784.446	206.33
784.627	206.33
784.809	140.8
784.99	189.95
785.172	230.91
785.353	235
785.535	192
785.716	179.71
785.897	251.39
786.079	218.62
786.26	130.56
786.441	247.29
786.623	241.15
786.804	198.14
786.985	155.13
787.167	177.66
787.348	251.39
787.529	194.05
787.71	140.8
787.891	165.37
788.073	159.23
788.254	251.39
788.435	157.18
788.616	169.47
788.797	142.85
788.978	214.52
789.159	169.47
789.34	167.42
789.522	144.89
789.703	130.56
789.884	110.08
790.065	171.52
790.246	144.89
790.427	155.13
790.607	206.33
790.788	206.33
790.969	130.56
791.15	196.09
791.331	112.13
791.512	177.66
791.693	177.66
791.874	148.99
792.054	165.37
792.235	105.98
792.416	89.6
792.597	62.98
792.778	101.89
792.958	153.09
793.139	148.99
793.32	183.81
793.5	198.14
793.681	122.37
793.862	112.13
794.042	138.75
794.223	118.27
794.404	103.93
794.584	122.37
794.765	138.75
794.945	75.26
795.126	179.71
795.306	169.47
795.487	138.75
795.667	155.13
795.848	198.14
796.028	122.37
796.209	196.09
796.389	91.65
796.57	116.22
796.75	183.81
796.93	93.69
797.111	83.45
797.291	163.33
797.471	177.66
797.652	95.74
797.832	95.74
798.012	144.89
798.192	54.78
798.373	101.89
798.553	87.55
798.733	142.85
798.913	81.41
799.093	62.98
799.274	134.65
799.454	126.46
799.634	130.56
799.814	112.13
799.994	91.65
800.174	128.51
800.354	120.32
800.534	128.51
800.714	105.98
800.894	67.07
801.074	112.13
801.254	48.64
801.434	163.33
801.614	187.9
801.794	161.28
801.974	335.35
802.154	97.79
802.334	87.55
802.514	175.61
802.693	28.16
802.873	136.7
803.053	124.41
803.233	67.07
803.413	89.6
803.592	62.98
803.772	62.98
803.952	60.93
804.131	103.93
804.311	89.6
804.491	99.84
804.67	118.27
804.85	89.6
805.03	103.93
805.209	105.98
805.389	105.98
805.568	87.55
805.748	93.69
805.928	60.93
806.107	81.41
806.287	81.41
806.466	89.6
806.646	79.36
806.825	56.83
807.004	126.46
807.184	124.41
807.363	134.65
807.543	36.35
807.722	110.08
807.901	58.88
808.081	13.82
808.26	89.6
808.439	60.93
808.619	73.21
808.798	79.36
808.977	95.74
809.156	87.55
809.336	58.88
809.515	71.17
809.694	89.6
809.873	118.27
810.052	79.36
810.231	93.69
810.411	30.21
810.59	77.31
810.769	65.02
810.948	108.03
811.127	89.6
811.306	110.08
811.485	5.63
811.664	54.78
811.843	83.45
812.022	114.17
812.201	91.65
812.38	48.64
812.559	73.21
812.737	46.59
812.916	62.98
813.095	138.75
813.274	71.17
813.453	48.64
813.632	42.5
813.811	122.37
813.989	126.46
814.168	103.93
814.347	108.03
814.526	73.21
814.704	30.21
814.883	87.55
815.062	83.45
815.24	9.73
815.419	17.92
815.598	85.5
815.776	44.54
815.955	58.88
816.133	34.3
816.312	73.21
816.49	93.69
816.669	38.4
816.847	30.21
817.026	101.89
817.204	114.17
817.383	13.82
817.561	62.98
817.74	142.85
817.918	91.65
818.097	128.51
818.275	54.78
818.453	48.64
818.632	52.74
818.81	105.98
818.988	-4.61
819.167	71.17
819.345	46.59
819.523	11.78
819.701	5.63
819.879	105.98
820.058	103.93
820.236	62.98
820.414	60.93
820.592	128.51
820.77	79.36
820.948	36.35
821.127	38.4
821.305	89.6
821.483	67.07
821.661	34.3
821.839	114.17
822.017	48.64
822.195	50.69
822.373	146.94
822.551	81.41
822.729	30.21
822.907	42.5
823.085	142.85
823.262	50.69
823.44	38.4
823.618	67.07
823.796	91.65
823.974	67.07
824.152	13.82
824.329	-4.61
824.507	60.93
824.685	-14.85
824.863	79.36
825.04	67.07
825.218	79.36
825.396	42.5
825.574	28.16
825.751	81.41
825.929	42.5
826.107	-20.99
826.284	54.78
826.462	97.79
826.639	-23.04
826.817	-23.04
826.994	73.21
827.172	7.68
827.349	73.21
827.527	85.5
827.704	124.41
827.882	40.45
828.059	-82.43
828.237	40.45
828.414	81.41
828.591	34.3
828.769	83.45
828.946	-6.66
829.124	-23.04
829.301	5.63
829.478	38.4
829.655	91.65
829.833	58.88
830.01	28.16
830.187	38.4
830.364	69.12
830.542	108.03
830.719	71.17
830.896	58.88
831.073	75.26
831.25	11.78
831.427	40.45
831.604	54.78
831.782	60.93
831.959	40.45
832.136	46.59
832.313	22.02
832.49	54.78
832.667	13.82
832.844	5.63
833.021	24.06
833.198	101.89
833.374	36.35
833.551	1.54
833.728	-18.94
833.905	58.88
834.082	32.26
834.259	1.54
834.436	-0.51
834.612	-2.56
834.789	-12.8
834.966	34.3
835.143	120.32
835.319	19.97
835.496	103.93
835.673	81.41
835.85	3.58
836.026	77.31
836.203	95.74
836.38	38.4
836.556	-14.85
836.733	32.26
836.909	79.36
837.086	-14.85
837.262	-18.94
837.439	46.59
837.616	-57.86
837.792	62.98
837.968	83.45
838.145	-33.28
838.321	13.82
838.498	5.63
838.674	40.45
838.851	22.02
839.027	24.06
839.203	-6.66
839.38	54.78
839.556	13.82
839.732	28.16
839.909	87.55
840.085	7.68
840.261	13.82
840.437	-25.09
840.614	-25.09
840.79	38.4
840.966	-10.75
841.142	24.06
841.318	30.21
841.494	42.5
841.671	-31.23
841.847	15.87
842.023	65.02
842.199	50.69
842.375	-25.09
842.551	-70.14
842.727	50.69
842.903	48.64
843.079	-2.56
843.255	-4.61
843.431	-12.8
843.607	9.73
843.783	28.16
843.959	26.11
844.134	1.54
844.31	83.45
844.486	46.59
844.662	11.78
844.838	-51.71
845.013	34.3
845.189	87.55
845.365	9.73
845.541	-23.04
845.716	15.87
845.892	24.06
846.068	3.58
846.244	26.11
846.419	40.45
846.595	58.88
846.77	13.82
846.946	77.31
847.122	44.54
847.297	-6.66
847.473	17.92
847.648	62.98
847.824	89.6
847.999	34.3
848.175	89.6
848.35	30.21
848.526	56.83
848.701	9.73
848.876	60.93
849.052	13.82
849.227	-10.75
849.403	28.16
849.578	81.41
849.753	32.26
849.929	22.02
850.104	42.5
850.279	50.69
850.454	62.98
850.63	-4.61
850.805	42.5
850.98	-8.7
851.155	36.35
851.33	54.78
851.505	54.78
851.681	32.26
851.856	22.02
852.031	15.87
852.206	62.98
852.381	1.54
852.556	56.83
852.731	26.11
852.906	46.59
853.081	42.5
853.256	19.97
853.431	54.78
853.606	22.02
853.781	-20.99
853.956	24.06
854.131	40.45
854.305	50.69
854.48	44.54
854.655	13.82
854.83	17.92
855.005	-70.14
855.18	-31.23
855.354	38.4
855.529	38.4
855.704	-84.48
855.879	-12.8
856.053	30.21
856.228	46.59
856.403	-98.81
856.577	-66.05
856.752	54.78
856.926	83.45
857.101	30.21
857.276	-23.04
857.45	75.26
857.625	5.63
857.799	-10.75
857.974	24.06
858.148	9.73
858.323	1.54
858.497	22.02
858.672	42.5
858.846	30.21
859.02	30.21
859.195	1.54
859.369	56.83
859.543	42.5
859.718	48.64
859.892	28.16
860.066	30.21
860.241	-35.33
860.415	-43.52
860.589	42.5
860.763	1.54
860.938	-0.51
861.112	46.59
861.286	46.59
861.46	103.93
861.634	-47.62
861.808	11.78
861.982	60.93
862.157	69.12
862.331	50.69
862.505	19.97
862.679	48.64
862.853	-8.7
863.027	48.64
863.201	-14.85
863.375	46.59
863.549	30.21
863.722	13.82
863.896	-0.51
864.07	3.58
864.244	22.02
864.418	50.69
864.592	75.26
864.766	36.35
864.939	15.87
865.113	28.16
865.287	-41.47
865.461	48.64
865.634	28.16
865.808	42.5
865.982	5.63
866.156	50.69
866.329	-29.18
866.503	-4.61
866.676	48.64
866.85	67.07
867.024	-31.23
867.197	52.74
867.371	42.5
867.544	-14.85
867.718	13.82
867.891	-0.51
868.065	-10.75
868.238	19.97
868.412	-41.47
868.585	130.56
868.759	30.21
868.932	-0.51
869.105	17.92
869.279	-6.66
869.452	22.02
869.625	89.6
869.799	-2.56
869.972	-25.09
870.145	5.63
870.319	30.21
870.492	22.02
870.665	22.02
870.838	38.4
871.011	26.11
871.185	7.68
871.358	32.26
871.531	9.73
871.704	34.3
871.877	38.4
872.05	1.54
872.223	-41.47
872.396	-35.33
872.569	5.63
872.742	-29.18
872.915	22.02
873.088	9.73
873.261	-31.23
873.434	-49.66
873.607	-25.09
873.78	13.82
873.953	5.63
874.126	22.02
874.299	5.63
874.471	17.92
874.644	-2.56
874.817	-2.56
874.99	75.26
875.163	-23.04
875.335	-2.56
875.508	-16.9
875.681	38.4
875.853	24.06
876.026	17.92
876.199	-23.04
876.371	81.41
876.544	-53.76
876.717	46.59
876.889	-51.71
877.062	38.4
877.234	-18.94
877.407	-8.7
877.579	9.73
877.752	40.45
877.924	28.16
878.097	-10.75
878.269	17.92
878.442	46.59
878.614	62.98
878.786	13.82
878.959	-2.56
879.131	26.11
879.303	-57.86
879.476	-0.51
879.648	-74.24
879.82	71.17
879.993	54.78
880.165	-49.66
880.337	50.69
880.509	1.54
880.681	32.26
880.854	1.54
881.026	54.78
881.198	17.92
881.37	-4.61
881.542	-0.51
881.714	13.82
881.886	83.45
882.058	42.5
882.23	-12.8
882.402	1.54
882.574	13.82
882.746	-33.28
882.918	58.88
883.09	1.54
883.262	54.78
883.434	19.97
883.606	7.68
883.778	-14.85
883.95	5.63
884.122	-4.61
884.293	22.02
884.465	-37.38
884.637	5.63
884.809	-2.56
884.98	26.11
885.152	-51.71
885.324	15.87
885.496	30.21
885.667	48.64
885.839	-31.23
886.011	-2.56
886.182	58.88
886.354	-14.85
886.525	-10.75
886.697	-6.66
886.869	22.02
887.04	5.63
887.212	28.16
887.383	46.59
887.555	3.58
887.726	24.06
887.897	24.06
888.069	77.31
888.24	38.4
888.412	3.58
888.583	15.87
888.754	5.63
888.926	-10.75
889.097	13.82
889.268	-27.14
889.44	-27.14
889.611	22.02
889.782	-47.62
889.953	-14.85
890.125	85.5
890.296	-37.38
890.467	71.17
890.638	24.06
890.809	13.82
890.98	62.98
891.151	-20.99
891.323	34.3
891.494	40.45
891.665	38.4
891.836	62.98
892.007	50.69
892.178	-4.61
892.349	15.87
892.52	13.82
892.691	34.3
892.862	-6.66
893.032	26.11
893.203	11.78
893.374	62.98
893.545	1.54
893.716	1.54
893.887	5.63
894.057	34.3
894.228	5.63
894.399	-20.99
894.57	126.46
894.74	26.11
894.911	-76.29
895.082	19.97
895.253	15.87
895.423	28.16
895.594	50.69
895.764	5.63
895.935	24.06
896.106	-31.23
896.276	85.5
896.447	50.69
896.617	-18.94
896.788	50.69
896.958	56.83
897.129	50.69
897.299	28.16
897.47	95.74
897.64	52.74
897.81	40.45
897.981	-0.51
898.151	19.97
898.322	67.07
898.492	9.73
898.662	-27.14
898.832	-27.14
899.003	28.16
899.173	-16.9
899.343	40.45
899.513	-10.75
