Data from USB4F104151__166__13-58-50-352.txt Node

Date: Thu Mar 13 13:58:50 EDT 2025
User: louis
Spectrometer: USB4F10415
Trigger mode: 4
Integration Time (sec): 1.000000E-2
Scans to average: 1
Electric dark correction enabled: true
Nonlinearity correction enabled: false
Boxcar width: 0
XAxis mode: Wavelengths
Number of Pixels in Spectrum: 3648
>>>>>Begin Spectral Data<<<<<
178.204	-97.96
178.424	-97.96
178.644	-97.96
178.864	-52.91
179.084	-102.06
179.304	4.44
179.524	6.49
179.744	16.73
179.964	-28.33
180.184	-32.43
180.404	-73.39
180.624	26.96
180.844	74.07
181.064	-48.81
181.283	53.59
181.503	-3.75
181.723	4.44
181.943	-22.19
182.163	0.34
182.383	-24.23
182.602	-11.95
182.822	18.77
183.042	-3.75
183.262	-16.04
183.482	-7.85
183.701	37.2
183.921	18.77
184.141	-59.05
184.361	2.39
184.58	-54.95
184.8	0.34
185.02	-13.99
185.239	-48.81
185.459	22.87
185.679	53.59
185.898	-30.38
186.118	-32.43
186.338	-5.8
186.557	20.82
186.777	-11.95
186.997	-46.76
187.216	-26.28
187.436	8.53
187.655	-1.71
187.875	8.53
188.095	-26.28
188.314	-42.67
188.534	-28.33
188.753	8.53
188.973	-30.38
189.192	-32.43
189.412	-42.67
189.631	37.2
189.851	-22.19
190.07	-18.09
190.29	29.01
190.509	-16.04
190.729	-38.57
190.948	-71.34
191.168	-24.23
191.387	0.34
191.607	-13.99
191.826	-20.14
192.045	-46.76
192.265	74.07
192.484	-22.19
192.704	-11.95
192.923	-40.62
193.142	-38.57
193.362	29.01
193.581	-11.95
193.8	-32.43
194.02	-1.71
194.239	-38.57
194.458	31.06
194.678	-69.29
194.897	-5.8
195.116	-24.23
195.335	63.83
195.555	6.49
195.774	-52.91
195.993	-13.99
196.212	59.73
196.432	-38.57
196.651	-32.43
196.87	-1.71
197.089	14.68
197.308	8.53
197.528	-11.95
197.747	-46.76
197.966	14.68
198.185	-61.1
198.404	-50.86
198.623	-16.04
198.842	-32.43
199.062	29.01
199.281	67.92
199.5	-48.81
199.719	-13.99
199.938	0.34
200.157	55.64
200.376	16.73
200.595	14.68
200.814	4.44
201.033	-52.91
201.252	90.45
201.471	-9.9
201.69	-54.95
201.909	-18.09
202.128	39.25
202.347	-69.29
202.566	-13.99
202.785	-30.38
203.004	-57
203.223	-42.67
203.442	86.36
203.661	-5.8
203.879	26.96
204.098	0.34
204.317	-22.19
204.536	24.92
204.755	-46.76
204.974	-26.28
205.193	-3.75
205.411	-36.52
205.63	-44.71
205.849	-28.33
206.068	12.63
206.287	-89.77
206.505	8.53
206.724	6.49
206.943	-67.24
207.162	-11.95
207.381	-32.43
207.599	67.92
207.818	-46.76
208.037	16.73
208.255	22.87
208.474	0.34
208.693	59.73
208.911	37.2
209.13	-16.04
209.349	-1.71
209.567	-7.85
209.786	0.34
210.005	-22.19
210.223	-40.62
210.442	-3.75
210.661	49.49
210.879	-11.95
211.098	-13.99
211.316	0.34
211.535	-3.75
211.753	-46.76
211.972	-9.9
212.191	24.92
212.409	-40.62
212.628	-42.67
212.846	-32.43
213.065	-77.48
213.283	-52.91
213.502	-44.71
213.72	-3.75
213.938	-52.91
214.157	10.58
214.375	20.82
214.594	-28.33
214.812	-57
215.031	-61.1
215.249	12.63
215.467	35.16
215.686	-77.48
215.904	-38.57
216.122	22.87
216.341	43.35
216.559	12.63
216.778	8.53
216.996	16.73
217.214	-9.9
217.432	57.68
217.651	-24.23
217.869	-65.19
218.087	-34.47
218.306	57.68
218.524	2.39
218.742	33.11
218.96	-52.91
219.179	-65.19
219.397	-7.85
219.615	37.2
219.833	-48.81
220.051	-16.04
220.27	35.16
220.488	-65.19
220.706	-34.47
220.924	16.73
221.142	-44.71
221.36	90.45
221.578	6.49
221.796	80.21
222.015	-1.71
222.233	-16.04
222.451	-30.38
222.669	37.2
222.887	43.35
223.105	16.73
223.323	53.59
223.541	-61.1
223.759	-18.09
223.977	-22.19
224.195	-69.29
224.413	6.49
224.631	55.64
224.849	22.87
225.067	8.53
225.285	-13.99
225.503	-24.23
225.721	-32.43
225.939	29.01
226.157	-16.04
226.375	76.12
226.592	-3.75
226.81	49.49
227.028	-26.28
227.246	-54.95
227.464	22.87
227.682	-44.71
227.9	-63.15
228.117	-22.19
228.335	-20.14
228.553	-40.62
228.771	-40.62
228.989	57.68
229.206	-3.75
229.424	-44.71
229.642	2.39
229.86	-22.19
230.077	-16.04
230.295	16.73
230.513	-24.23
230.731	-22.19
230.948	-44.71
231.166	88.4
231.384	-9.9
231.601	-5.8
231.819	39.25
232.037	35.16
232.254	-89.77
232.472	49.49
232.689	-104.11
232.907	0.34
233.125	-48.81
233.342	-7.85
233.56	-52.91
233.777	-13.99
233.995	-28.33
234.213	16.73
234.43	-85.67
234.648	-36.52
234.865	-54.95
235.083	41.3
235.3	-34.47
235.518	-44.71
235.735	-48.81
235.953	-5.8
236.17	43.35
236.388	6.49
236.605	8.53
236.822	12.63
237.04	-18.09
237.257	37.2
237.475	-9.9
237.692	-26.28
237.909	-9.9
238.127	18.77
238.344	-3.75
238.562	-13.99
238.779	8.53
238.996	-26.28
239.214	47.44
239.431	2.39
239.648	-9.9
239.865	26.96
240.083	-34.47
240.3	29.01
240.517	4.44
240.735	-30.38
240.952	-22.19
241.169	20.82
241.386	14.68
241.603	-22.19
241.821	-3.75
242.038	24.92
242.255	31.06
242.472	-7.85
242.689	-61.1
242.907	49.49
243.124	-44.71
243.341	-73.39
243.558	-34.47
243.775	-44.71
243.992	6.49
244.209	-65.19
244.426	-11.95
244.643	22.87
244.86	-26.28
245.078	-26.28
245.295	61.78
245.512	-34.47
245.729	-3.75
245.946	-54.95
246.163	-26.28
246.38	-61.1
246.597	0.34
246.814	-38.57
247.031	-9.9
247.248	49.49
247.464	-106.15
247.681	2.39
247.898	69.97
248.115	-44.71
248.332	61.78
248.549	12.63
248.766	8.53
248.983	-40.62
249.2	12.63
249.417	57.68
249.633	12.63
249.85	-24.23
250.067	-16.04
250.284	-48.81
250.501	-38.57
250.717	-11.95
250.934	-5.8
251.151	24.92
251.368	14.68
251.585	16.73
251.801	-11.95
252.018	-63.15
252.235	-30.38
252.451	-24.23
252.668	10.58
252.885	43.35
253.102	24.92
253.318	-5.8
253.535	-5.8
253.752	-3.75
253.968	6.49
254.185	26.96
254.401	-5.8
254.618	18.77
254.835	63.83
255.051	0.34
255.268	2.39
255.484	98.64
255.701	-71.34
255.917	94.55
256.134	16.73
256.351	-1.71
256.567	-18.09
256.784	12.63
257	2.39
257.217	53.59
257.433	10.58
257.65	-20.14
257.866	8.53
258.082	33.11
258.299	-32.43
258.515	2.39
258.732	14.68
258.948	61.78
259.165	-54.95
259.381	-16.04
259.597	-22.19
259.814	2.39
260.03	16.73
260.246	-16.04
260.463	-46.76
260.679	45.4
260.895	-61.1
261.112	24.92
261.328	-32.43
261.544	-24.23
261.761	-9.9
261.977	37.2
262.193	-40.62
262.409	18.77
262.626	-34.47
262.842	-52.91
263.058	-52.91
263.274	-59.05
263.49	-75.43
263.707	-40.62
263.923	57.68
264.139	-46.76
264.355	-32.43
264.571	8.53
264.787	-46.76
265.004	-22.19
265.22	47.44
265.436	4.44
265.652	20.82
265.868	0.34
266.084	33.11
266.3	-16.04
266.516	-54.95
266.732	18.77
266.948	-7.85
267.164	-30.38
267.38	37.2
267.596	10.58
267.812	-22.19
268.028	-32.43
268.244	-48.81
268.46	16.73
268.676	4.44
268.892	-48.81
269.108	2.39
269.324	-13.99
269.54	-22.19
269.756	8.53
269.972	-16.04
270.188	-5.8
270.403	-71.34
270.619	31.06
270.835	51.54
271.051	-26.28
271.267	-7.85
271.483	-13.99
271.698	51.54
271.914	-7.85
272.13	16.73
272.346	10.58
272.562	16.73
272.777	-32.43
272.993	-11.95
273.209	14.68
273.425	-81.58
273.64	-18.09
273.856	-61.1
274.072	-16.04
274.287	10.58
274.503	-1.71
274.719	12.63
274.934	-81.58
275.15	-59.05
275.366	4.44
275.581	-9.9
275.797	-11.95
276.012	-48.81
276.228	-24.23
276.444	-42.67
276.659	100.69
276.875	-20.14
277.09	-32.43
277.306	-11.95
277.521	31.06
277.737	12.63
277.952	-16.04
278.168	-26.28
278.383	49.49
278.599	43.35
278.814	-5.8
279.03	-24.23
279.245	61.78
279.461	-32.43
279.676	-38.57
279.892	8.53
280.107	0.34
280.322	10.58
280.538	-3.75
280.753	53.59
280.969	18.77
281.184	-42.67
281.399	-13.99
281.615	-52.91
281.83	29.01
282.045	-3.75
282.26	24.92
282.476	-32.43
282.691	33.11
282.906	-63.15
283.122	0.34
283.337	-22.19
283.552	51.54
283.767	-11.95
283.983	-71.34
284.198	2.39
284.413	49.49
284.628	-9.9
284.843	-30.38
285.058	24.92
285.274	-46.76
285.489	-9.9
285.704	2.39
285.919	59.73
286.134	-1.71
286.349	31.06
286.564	20.82
286.779	20.82
286.995	63.83
287.21	-13.99
287.425	82.26
287.64	-59.05
287.855	-54.95
288.07	-87.72
288.285	29.01
288.5	49.49
288.715	-34.47
288.93	-9.9
289.145	-3.75
289.36	14.68
289.575	76.12
289.79	49.49
290.004	-44.71
290.219	43.35
290.434	-57
290.649	12.63
290.864	10.58
291.079	-44.71
291.294	133.46
291.509	45.4
291.724	35.16
291.938	-28.33
292.153	31.06
292.368	-38.57
292.583	-13.99
292.798	90.45
293.012	-9.9
293.227	-22.19
293.442	16.73
293.657	-38.57
293.871	16.73
294.086	0.34
294.301	-11.95
294.516	39.25
294.73	16.73
294.945	12.63
295.16	-32.43
295.374	-9.9
295.589	4.44
295.804	55.64
296.018	-3.75
296.233	-20.14
296.447	16.73
296.662	2.39
296.877	37.2
297.091	-26.28
297.306	31.06
297.52	-18.09
297.735	-30.38
297.949	-48.81
298.164	-11.95
298.378	-7.85
298.593	-11.95
298.807	-40.62
299.022	-22.19
299.236	8.53
299.451	-24.23
299.665	0.34
299.88	-48.81
300.094	53.59
300.309	82.26
300.523	53.59
300.737	-38.57
300.952	-20.14
301.166	53.59
301.381	-65.19
301.595	18.77
301.809	20.82
302.024	-28.33
302.238	-5.8
302.452	-24.23
302.667	-48.81
302.881	37.2
303.095	14.68
303.309	-18.09
303.524	-7.85
303.738	37.2
303.952	-65.19
304.166	-44.71
304.381	-38.57
304.595	35.16
304.809	-16.04
305.023	-11.95
305.237	20.82
305.452	-36.52
305.666	-22.19
305.88	37.2
306.094	106.84
306.308	12.63
306.522	-40.62
306.736	-3.75
306.95	-65.19
307.164	-38.57
307.379	-26.28
307.593	43.35
307.807	45.4
308.021	29.01
308.235	47.44
308.449	-3.75
308.663	-44.71
308.877	16.73
309.091	43.35
309.305	-24.23
309.519	-28.33
309.733	-40.62
309.947	-7.85
310.161	49.49
310.374	-42.67
310.588	-7.85
310.802	-73.39
311.016	-5.8
311.23	29.01
311.444	-40.62
311.658	-30.38
311.872	10.58
312.085	-5.8
312.299	74.07
312.513	-61.1
312.727	8.53
312.941	35.16
313.154	-1.71
313.368	6.49
313.582	-89.77
313.796	8.53
314.009	2.39
314.223	4.44
314.437	0.34
314.651	-30.38
314.864	43.35
315.078	16.73
315.292	22.87
315.505	-5.8
315.719	39.25
315.933	-46.76
316.146	-28.33
316.36	-85.67
316.573	55.64
316.787	18.77
317.001	-16.04
317.214	-16.04
317.428	-46.76
317.641	-5.8
317.855	24.92
318.068	14.68
318.282	-22.19
318.495	-34.47
318.709	0.34
318.922	10.58
319.136	24.92
319.349	-38.57
319.563	29.01
319.776	6.49
319.99	-34.47
320.203	55.64
320.417	-24.23
320.63	22.87
320.843	47.44
321.057	4.44
321.27	-40.62
321.483	-38.57
321.697	-20.14
321.91	45.4
322.124	41.3
322.337	14.68
322.55	8.53
322.763	39.25
322.977	26.96
323.19	-81.58
323.403	6.49
323.617	31.06
323.83	29.01
324.043	-3.75
324.256	37.2
324.469	-3.75
324.683	0.34
324.896	33.11
325.109	8.53
325.322	-40.62
325.535	-3.75
325.748	43.35
325.962	4.44
326.175	10.58
326.388	16.73
326.601	31.06
326.814	49.49
327.027	-3.75
327.24	8.53
327.453	53.59
327.666	-5.8
327.879	45.4
328.092	-32.43
328.305	-16.04
328.518	41.3
328.731	-54.95
328.944	-26.28
329.157	82.26
329.37	39.25
329.583	18.77
329.796	16.73
330.009	24.92
330.222	12.63
330.435	69.97
330.648	78.16
330.861	-9.9
331.073	-42.67
331.286	-5.8
331.499	16.73
331.712	-85.67
331.925	92.5
332.138	-5.8
332.35	-16.04
332.563	8.53
332.776	63.83
332.989	-30.38
333.202	39.25
333.414	29.01
333.627	-26.28
333.84	-73.39
334.053	53.59
334.265	51.54
334.478	-13.99
334.691	4.44
334.903	41.3
335.116	8.53
335.329	57.68
335.541	8.53
335.754	82.26
335.966	10.58
336.179	-28.33
336.392	41.3
336.604	59.73
336.817	47.44
337.029	-38.57
337.242	24.92
337.454	37.2
337.667	-5.8
337.88	14.68
338.092	20.82
338.305	-13.99
338.517	-38.57
338.729	10.58
338.942	18.77
339.154	14.68
339.367	-46.76
339.579	67.92
339.792	82.26
340.004	-5.8
340.217	16.73
340.429	53.59
340.641	-5.8
340.854	57.68
341.066	8.53
341.278	-42.67
341.491	67.92
341.703	69.97
341.915	2.39
342.128	43.35
342.34	-38.57
342.552	-3.75
342.764	8.53
342.977	-11.95
343.189	-40.62
343.401	-52.91
343.613	0.34
343.826	86.36
344.038	0.34
344.25	16.73
344.462	-9.9
344.674	12.63
344.886	65.88
345.099	4.44
345.311	0.34
345.523	-7.85
345.735	-32.43
345.947	8.53
346.159	-3.75
346.371	80.21
346.583	33.11
346.795	35.16
347.007	-11.95
347.219	-9.9
347.431	-3.75
347.643	22.87
347.855	-3.75
348.067	0.34
348.279	10.58
348.491	22.87
348.703	26.96
348.915	-16.04
349.127	-71.34
349.339	14.68
349.551	-40.62
349.763	-11.95
349.975	-22.19
350.187	92.5
350.399	-22.19
350.61	6.49
350.822	-32.43
351.034	49.49
351.246	18.77
351.458	31.06
351.669	74.07
351.881	65.88
352.093	-24.23
352.305	22.87
352.517	-73.39
352.728	6.49
352.94	-48.81
353.152	-46.76
353.363	-7.85
353.575	2.39
353.787	22.87
353.999	41.3
354.21	-36.52
354.422	78.16
354.633	6.49
354.845	86.36
355.057	41.3
355.268	-67.24
355.48	-24.23
355.692	55.64
355.903	-16.04
356.115	18.77
356.326	-11.95
356.538	33.11
356.749	45.4
356.961	-11.95
357.172	-5.8
357.384	51.54
357.595	22.87
357.807	67.92
358.018	63.83
358.23	37.2
358.441	53.59
358.653	-18.09
358.864	-26.28
359.075	-24.23
359.287	-11.95
359.498	8.53
359.709	10.58
359.921	33.11
360.132	20.82
360.344	29.01
360.555	-3.75
360.766	39.25
360.977	-3.75
361.189	78.16
361.4	-44.71
361.611	76.12
361.823	29.01
362.034	2.39
362.245	-40.62
362.456	41.3
362.667	-20.14
362.879	37.2
363.09	-28.33
363.301	-5.8
363.512	6.49
363.723	8.53
363.935	-52.91
364.146	55.64
364.357	-5.8
364.568	-26.28
364.779	-57
364.99	-9.9
365.201	2.39
365.412	20.82
365.623	-1.71
365.834	4.44
366.045	45.4
366.256	6.49
366.467	-32.43
366.678	-34.47
366.889	-18.09
367.1	-22.19
367.311	-44.71
367.522	51.54
367.733	0.34
367.944	-3.75
368.155	-16.04
368.366	43.35
368.577	20.82
368.788	49.49
368.999	-38.57
369.209	-5.8
369.42	41.3
369.631	74.07
369.842	45.4
370.053	26.96
370.264	24.92
370.474	37.2
370.685	43.35
370.896	-5.8
371.107	18.77
371.317	49.49
371.528	-3.75
371.739	61.78
371.95	49.49
372.16	-32.43
372.371	-13.99
372.582	-22.19
372.792	14.68
373.003	-3.75
373.214	35.16
373.424	100.69
373.635	-11.95
373.846	26.96
374.056	-7.85
374.267	-11.95
374.477	35.16
374.688	10.58
374.898	-48.81
375.109	-16.04
375.319	43.35
375.53	-16.04
375.74	127.32
375.951	16.73
376.161	-61.1
376.372	20.82
376.582	-48.81
376.793	-48.81
377.003	82.26
377.214	8.53
377.424	49.49
377.635	-7.85
377.845	-120.49
378.055	72.02
378.266	-7.85
378.476	-5.8
378.686	-36.52
378.897	41.3
379.107	-34.47
379.317	61.78
379.528	-16.04
379.738	51.54
379.948	16.73
380.158	-36.52
380.369	33.11
380.579	90.45
380.789	-24.23
380.999	-59.05
381.21	6.49
381.42	6.49
381.63	76.12
381.84	-34.47
382.05	-32.43
382.261	121.17
382.471	-28.33
382.681	47.44
382.891	-26.28
383.101	18.77
383.311	4.44
383.521	12.63
383.731	16.73
383.941	8.53
384.151	65.88
384.361	-7.85
384.571	51.54
384.781	86.36
384.991	31.06
385.201	39.25
385.411	94.55
385.621	16.73
385.831	2.39
386.041	16.73
386.251	24.92
386.461	98.64
386.671	-38.57
386.881	14.68
387.091	76.12
387.301	80.21
387.511	29.01
387.72	18.77
387.93	10.58
388.14	4.44
388.35	8.53
388.56	-38.57
388.769	92.5
388.979	67.92
389.189	-61.1
389.399	76.12
389.609	-9.9
389.818	29.01
390.028	20.82
390.238	20.82
390.447	49.49
390.657	72.02
390.867	-36.52
391.076	65.88
391.286	12.63
391.496	47.44
391.705	57.68
391.915	10.58
392.125	-34.47
392.334	8.53
392.544	2.39
392.753	67.92
392.963	29.01
393.172	61.78
393.382	24.92
393.591	6.49
393.801	117.08
394.01	49.49
394.22	6.49
394.429	8.53
394.639	-38.57
394.848	49.49
395.058	86.36
395.267	74.07
395.477	51.54
395.686	100.69
395.895	45.4
396.105	6.49
396.314	0.34
396.524	31.06
396.733	10.58
396.942	115.03
397.152	22.87
397.361	26.96
397.57	18.77
397.78	49.49
397.989	22.87
398.198	51.54
398.407	80.21
398.617	59.73
398.826	45.4
399.035	26.96
399.244	76.12
399.453	45.4
399.663	37.2
399.872	49.49
400.081	72.02
400.29	53.59
400.499	51.54
400.708	98.64
400.917	78.16
401.127	100.69
401.336	-44.71
401.545	121.17
401.754	51.54
401.963	88.4
402.172	29.01
402.381	110.93
402.59	57.68
402.799	57.68
403.008	24.92
403.217	80.21
403.426	65.88
403.635	74.07
403.844	57.68
404.053	49.49
404.262	72.02
404.471	90.45
404.68	43.35
404.888	67.92
405.097	57.68
405.306	37.2
405.515	115.03
405.724	90.45
405.933	88.4
406.142	84.31
406.35	139.6
406.559	127.32
406.768	117.08
406.977	125.27
407.185	166.23
407.394	112.98
407.603	96.6
407.812	92.5
408.02	194.9
408.229	166.23
408.438	80.21
408.646	155.99
408.855	108.88
409.064	145.75
409.272	164.18
409.481	112.98
409.69	121.17
409.898	198.99
410.107	231.76
410.315	223.57
410.524	264.53
410.733	256.34
410.941	201.04
411.15	233.81
411.358	252.24
411.567	242
411.775	246.1
411.984	268.63
412.192	223.57
412.401	270.67
412.609	317.78
412.818	278.87
413.026	383.31
413.234	280.91
413.443	301.39
413.651	282.96
413.86	307.54
414.068	428.37
414.276	368.98
414.485	436.56
414.693	434.51
414.901	387.41
415.11	454.99
415.318	358.74
415.526	438.61
415.734	579.92
415.943	516.43
416.151	520.53
416.359	465.23
416.567	598.35
416.776	522.57
416.984	532.81
417.192	571.72
417.4	610.64
417.608	600.4
417.817	600.4
418.025	657.74
418.233	663.88
418.441	723.27
418.649	770.38
418.857	799.05
419.065	799.05
419.273	792.91
419.481	891.21
419.689	934.22
419.897	938.31
420.105	1024.33
420.313	1034.57
420.521	989.51
420.729	1040.71
420.937	1091.91
421.145	1110.34
421.353	1253.7
421.561	1184.07
421.769	1276.23
421.977	1288.51
422.185	1302.85
422.393	1382.72
422.601	1497.41
422.809	1446.21
423.017	1425.73
423.224	1487.17
423.432	1626.43
423.64	1673.53
423.848	1655.1
424.056	1632.57
424.263	1798.46
424.471	1818.94
424.679	1880.38
424.887	1937.72
425.094	2023.73
425.302	2113.85
425.51	2066.74
425.718	2158.9
425.925	2269.49
426.133	2396.46
426.341	2369.84
426.548	2568.49
426.756	2410.8
426.964	2498.86
427.171	2623.79
427.379	2771.24
427.586	2736.43
427.794	2779.43
428.001	2978.09
428.209	3082.53
428.417	3123.49
428.624	3299.62
428.832	3293.48
429.039	3268.9
429.247	3311.91
429.454	3721.5
429.662	3989.78
429.869	3545.38
430.076	3846.43
430.284	3719.45
430.491	3973.4
430.699	3961.11
430.906	4104.47
431.114	4088.09
431.321	4415.76
431.528	4317.46
431.736	4587.79
431.943	4825.36
432.15	4684.05
432.358	4866.32
432.565	5110.02
432.772	4935.95
432.979	5142.79
433.187	5486.85
433.394	5462.27
433.601	5835
433.808	5806.33
434.016	5810.43
434.223	5968.12
434.43	6299.89
434.637	6379.76
434.844	6709.49
435.052	6703.34
435.259	6662.38
435.466	6861.04
435.673	6756.59
435.88	7207.14
436.087	7600.35
436.294	7602.4
436.501	7452.9
436.708	7588.07
436.915	7796.96
437.122	7870.69
437.329	7973.08
437.537	8329.43
437.743	8403.16
437.95	8511.7
438.157	8947.92
438.364	9302.22
438.571	9253.06
438.778	9261.26
438.985	10059.96
439.192	9699.52
439.399	9978.05
439.606	9691.33
439.813	10328.25
440.02	10922.16
440.227	10590.39
440.433	10459.32
440.64	11026.61
440.847	10852.53
441.054	11157.68
441.261	11819.17
441.467	11602.08
441.674	11690.15
441.881	12314.78
442.088	12196
442.294	12091.55
442.501	12431.51
442.708	12861.59
442.914	13254.8
443.121	13994.11
443.328	13457.54
443.534	14428.28
443.741	14125.18
443.948	13963.39
444.154	14784.63
444.361	14665.85
444.568	14876.79
444.774	14950.51
444.981	14938.23
445.187	15442.03
445.394	16132.19
445.6	15988.83
445.807	17223.76
446.013	16754.77
446.22	17027.15
446.426	17637.45
446.633	17741.89
446.839	18638.9
447.046	17489.99
447.252	18569.27
447.459	18706.49
447.665	18415.68
447.871	19320.88
448.078	20164.64
448.284	19247.15
448.491	19796.01
448.697	20629.53
448.903	21006.36
449.11	20748.31
449.316	20883.48
449.522	21104.66
449.728	21401.61
449.935	21753.87
450.141	21886.98
450.347	21995.53
450.553	21573.64
450.76	21719.05
450.966	22779.9
451.172	22177.79
451.378	22941.69
451.584	22462.46
451.791	22880.25
451.997	22947.83
452.203	23169.01
452.409	23345.14
452.615	23248.88
452.821	22521.85
453.027	22196.23
453.233	23025.65
453.44	22259.71
453.646	22530.05
453.852	22601.72
454.058	22800.38
454.264	22341.63
454.47	22859.77
454.676	22343.68
454.882	22865.91
455.088	21209.11
455.294	21518.35
455.5	21389.33
455.705	21684.23
455.911	20774.94
456.117	20551.71
456.323	20275.23
456.529	19384.37
456.735	20029.48
456.941	19404.85
457.147	19245.1
457.352	18389.05
457.558	18268.22
457.764	18700.34
457.97	18059.33
458.176	17756.23
458.381	17616.97
458.587	16930.9
458.793	16904.28
458.999	15972.45
459.204	17031.25
459.41	16576.6
459.616	15446.12
459.821	15650.92
460.027	15673.45
460.233	14964.85
460.438	14311.55
460.644	14598.26
460.85	13850.75
461.055	13803.65
461.261	13666.44
461.466	12947.6
461.672	12406.94
461.878	13172.88
462.083	12507.29
462.289	12083.36
462.494	12015.77
462.7	11544.74
462.905	11282.6
463.111	11567.27
463.316	11696.29
463.522	11182.25
463.727	11610.28
463.932	11612.32
464.138	11192.49
464.343	11491.49
464.549	11010.22
464.754	11458.73
464.959	11176.11
465.165	11010.22
465.37	10700.98
465.575	10475.7
465.781	10926.25
465.986	10797.23
466.191	10623.16
466.397	10381.49
466.602	9726.14
466.807	10117.31
467.012	10215.61
467.218	9883.84
467.423	10111.16
467.628	10066.11
467.833	10547.38
468.038	10191.03
468.244	9963.71
468.449	10150.07
468.654	9986.24
468.859	9887.93
469.064	9982.14
469.269	9400.52
469.474	9568.45
469.679	9615.55
469.885	9441.48
470.09	9279.69
470.295	9316.55
470.5	9193.67
470.705	9464
470.91	8956.11
471.115	8886.48
471.32	8970.44
471.525	9109.71
471.73	9056.46
471.935	8732.88
472.139	8429.78
472.344	8505.56
472.549	8566.99
472.754	8480.98
472.959	8419.54
473.164	7952.6
473.369	8020.19
473.574	8358.1
473.778	8222.94
473.983	8067.29
474.188	8141.02
474.393	7620.83
474.598	7805.15
474.802	7704.8
475.007	7784.67
475.212	7659.74
475.417	7495.91
475.621	7411.94
475.826	7530.72
476.031	7280.87
476.235	7104.74
476.44	7225.58
476.645	7086.31
476.849	7057.64
477.054	6996.2
477.259	7043.31
477.463	6920.43
477.668	6777.07
477.872	6842.6
478.077	6934.76
478.282	6557.94
478.486	6390
478.691	6578.42
478.895	6461.68
479.1	6478.07
479.304	6310.13
479.509	6254.84
479.713	6392.05
479.918	6082.81
480.122	6045.95
480.326	6367.48
480.531	6174.97
480.735	6185.21
480.94	5990.65
481.144	6258.93
481.348	6009.08
481.553	5978.36
481.757	5855.48
481.961	5959.93
482.166	6115.58
482.37	6041.85
482.574	5826.81
482.778	6009.08
482.983	6138.1
483.187	5902.59
483.391	6281.46
483.595	5890.3
483.8	5798.14
484.004	5902.59
484.208	6203.64
484.412	5906.68
484.616	6023.42
484.821	6078.71
485.025	5802.24
485.229	6004.99
485.433	5959.93
485.637	5908.73
485.841	5859.58
486.045	5873.92
486.249	6068.47
486.453	5935.35
486.657	6019.32
486.861	5931.26
487.065	5994.75
487.269	5892.35
487.473	5890.3
487.677	5988.6
487.881	6121.72
488.085	5910.78
488.289	6168.82
488.493	6179.06
488.697	5941.5
488.901	5966.07
489.105	5953.79
489.309	6189.3
489.512	6082.81
489.716	6093.05
489.92	6136.06
490.124	6091
490.328	6267.13
490.531	6060.28
490.735	6252.79
490.939	6232.31
491.143	6336.76
491.346	6209.78
491.55	6287.61
491.754	6373.62
491.958	6312.18
492.161	6390
492.365	6523.12
492.569	6428.92
492.772	6478.07
492.976	6635.76
493.18	6572.27
493.383	6680.82
493.587	6652.14
493.79	6541.55
493.994	6697.2
494.197	6701.3
494.401	6736.11
494.605	6742.25
494.808	6908.14
495.012	6887.66
495.215	6924.52
495.419	7039.21
495.622	7045.35
495.825	7106.79
496.029	7389.41
496.232	7440.61
496.436	7119.08
496.639	7569.63
496.843	7483.62
497.046	7573.73
497.249	7725.28
497.453	7825.63
497.656	7839.97
497.859	7870.69
498.063	8030.43
498.266	8061.15
498.469	8048.86
498.673	8181.98
498.876	8448.21
499.079	8409.3
499.282	8489.17
499.485	8521.94
499.689	8605.91
499.892	8919.25
500.095	8949.96
500.298	8997.07
500.501	9138.38
500.705	9351.37
500.908	9480.39
501.111	9384.13
501.314	9629.89
501.517	9658.56
501.72	9836.74
501.923	9945.28
502.126	10057.92
502.329	10223.8
502.532	10522.8
502.735	10420.41
502.938	10635.44
503.141	10739.89
503.344	10819.76
503.547	10795.18
503.75	10870.96
503.953	11354.28
504.156	11317.42
504.359	11468.97
504.562	11477.16
504.765	11927.71
504.968	12075.17
505.17	12179.61
505.373	11864.22
505.576	12591.25
505.779	12585.11
505.982	12495
506.185	12892.3
506.387	12980.37
506.59	13213.84
506.793	13549.7
506.996	13615.24
507.198	13795.46
507.401	13678.72
507.604	14090.37
507.807	14225.53
508.009	14559.35
508.212	14520.44
508.415	14874.74
508.617	14647.41
508.82	14874.74
509.022	14815.35
509.225	15722.6
509.428	15571.05
509.63	15685.73
509.833	16015.46
510.035	16453.72
510.238	16080.99
510.44	16498.78
510.643	16693.33
510.845	16980.05
511.048	16904.28
511.25	17098.83
511.453	17449.04
511.655	18161.73
511.858	17860.68
512.06	18235.46
512.262	18536.51
512.465	18495.55
512.667	18735.16
512.87	18948.15
513.072	19390.51
513.274	19611.69
513.477	19820.58
513.679	19982.37
513.881	20432.93
514.084	20525.08
514.286	20422.69
514.488	20723.74
514.69	21383.18
514.893	21366.8
515.095	21354.51
515.297	21973
515.499	22300.67
515.701	22554.62
515.904	22646.78
516.106	23099.38
516.308	22945.78
516.51	23486.45
516.712	23646.19
516.914	23752.68
517.116	24207.33
517.318	24045.54
517.52	24426.46
517.722	24389.6
517.925	25122.77
518.127	25380.82
518.329	25542.61
518.531	25722.83
518.733	26105.8
518.935	26312.64
519.136	26361.8
519.338	26886.08
519.54	27144.12
519.742	27396.02
519.944	27367.35
520.146	27627.44
520.348	28276.65
520.55	28301.22
520.752	28446.63
520.954	28817.31
521.155	28716.96
521.357	29374.36
521.559	29499.28
521.761	29912.97
521.963	30207.88
522.164	30287.75
522.366	30449.54
522.568	30627.71
522.77	31000.44
522.971	31455.09
523.173	31178.62
523.375	31532.92
523.576	31821.68
523.778	31993.71
523.98	32448.36
524.181	32800.61
524.383	32348.01
524.584	32919.39
524.786	32761.7
524.988	33046.37
525.189	33685.33
525.391	33449.81
525.592	33711.95
525.794	33828.69
525.995	33974.09
526.197	34008.91
526.398	34002.77
526.6	34209.61
526.801	34844.48
527.003	34881.35
527.204	34928.45
527.406	35317.56
527.607	35413.82
527.808	35669.81
528.01	35118.91
528.211	35508.02
528.412	36024.11
528.614	35890.99
528.815	35807.03
529.016	36265.77
529.218	35792.69
529.419	36396.84
529.62	36077.36
529.822	36333.35
530.023	36435.75
530.224	36445.99
530.425	36349.74
530.626	36364.07
530.828	36413.23
531.029	37162.78
531.23	37066.53
531.431	36656.93
531.632	37013.28
531.833	36677.41
532.035	37310.24
532.236	37248.8
532.437	37543.7
532.638	37060.38
532.839	37125.92
533.04	37680.92
533.241	37334.81
533.442	38086.42
533.643	37695.25
533.844	37734.17
534.045	38016.79
534.246	37574.42
534.447	37865.24
534.648	37832.47
534.849	38008.59
535.05	37426.97
535.251	38139.66
535.451	37742.36
535.652	37900.05
535.853	37705.49
536.054	37820.18
536.255	38084.37
536.456	37685.01
536.657	38285.07
536.857	38086.42
537.058	37900.05
537.259	38149.9
537.46	38424.33
537.66	37889.81
537.861	38027.03
538.062	38063.89
538.263	38154
538.463	37682.97
538.664	38311.69
538.865	38131.47
539.065	38323.98
539.266	37543.7
539.466	38065.94
539.667	37392.15
539.868	38545.16
540.068	38143.76
540.269	38010.64
540.469	38407.95
540.67	37760.79
540.87	38194.96
541.071	37943.06
541.271	38289.17
541.472	37893.91
541.672	37781.27
541.873	38147.86
542.073	37594.9
542.274	38313.74
542.474	37603.1
542.675	37498.65
542.875	37932.82
543.075	37807.89
543.276	37377.82
543.476	38053.65
543.676	37981.97
543.877	38053.65
544.077	37857.04
544.277	37906.19
544.478	37695.25
544.678	37857.04
544.878	38117.14
545.078	38190.86
545.279	37797.65
545.479	37834.52
545.679	38086.42
545.879	38231.82
546.079	37654.29
546.28	38027.03
546.48	37465.88
546.68	38024.98
546.88	37900.05
547.08	37654.29
547.28	37771.03
547.48	37816.08
547.68	37777.17
547.88	37349.15
548.081	38412.04
548.281	37871.38
548.481	37691.16
548.681	37994.26
548.881	38199.05
549.081	38098.7
549.28	37846.8
549.48	38020.88
549.68	37670.68
549.88	38235.92
550.08	37910.29
550.28	37953.3
550.48	37814.04
550.68	38213.39
550.88	37705.49
551.08	37889.81
551.279	37879.57
551.479	37754.65
551.679	38242.06
551.879	37187.36
552.079	38311.69
552.278	37543.7
552.478	38272.78
552.678	37410.59
552.878	37900.05
553.077	37549.85
553.277	37197.6
553.477	37830.42
553.676	37777.17
553.876	37515.03
554.076	37768.98
554.275	37173.02
554.475	37130.01
554.674	37267.23
554.874	37478.17
555.074	37320.48
555.273	37484.31
555.473	37580.57
555.672	37465.88
555.872	37482.27
556.071	37449.5
556.271	37685.01
556.47	37117.73
556.67	37068.58
556.869	37383.96
557.068	37386.01
557.268	36751.14
557.467	37101.34
557.667	36929.31
557.866	37005.09
558.065	36894.5
558.265	36994.85
558.464	36794.15
558.663	37066.53
558.863	36368.17
559.062	37119.77
559.261	36683.56
559.461	36896.55
559.66	35966.77
559.859	36460.33
560.058	36198.19
560.258	36450.09
560.457	36153.13
560.656	36396.84
560.855	35778.36
561.054	36376.36
561.253	35483.45
561.453	36093.74
561.652	36060.98
561.851	36505.38
562.05	36103.98
562.249	35718.96
562.448	36337.45
562.647	35761.97
562.846	35598.13
563.045	35706.68
563.244	35721.01
563.443	36210.48
563.642	35180.35
563.841	35610.42
564.04	35245.88
564.239	35882.8
564.438	35309.37
564.637	35581.75
564.836	35567.41
565.035	35268.41
565.234	35176.25
565.432	35209.02
565.631	35163.96
565.83	35030.85
566.029	35286.84
566.228	34899.78
566.427	34545.48
566.625	34668.36
566.824	34262.86
567.023	35258.17
567.222	34561.86
567.42	34772.8
567.619	34502.47
567.818	34070.35
568.016	34504.52
568.215	34514.76
568.414	33863.5
568.612	34371.4
568.811	34277.19
569.01	34049.87
569.208	33445.72
569.407	34115.4
569.605	33255.26
569.804	34238.28
570.002	33668.95
570.201	33646.42
570.4	33357.66
570.598	33228.63
570.797	33116
570.995	33531.73
571.193	32847.71
571.392	33023.84
571.59	33062.75
571.789	32921.44
571.987	33089.37
572.186	32880.48
572.384	32558.95
572.582	32706.4
572.781	32595.81
572.979	31813.49
573.177	32362.34
573.376	32517.99
573.574	32018.28
573.772	32071.53
573.971	32071.53
574.169	31528.82
574.367	31520.63
574.565	31666.03
574.763	31311.74
574.962	31473.53
575.16	31397.75
575.358	31350.65
575.556	30818.18
575.754	31549.3
575.952	30771.07
576.151	31270.78
576.349	30734.21
576.547	30588.8
576.745	30873.47
576.943	30693.25
577.141	30564.23
577.339	30793.6
577.537	30394.25
577.735	30424.97
577.933	30228.36
578.131	30388.1
578.329	30048.14
578.527	29751.18
578.725	29949.84
578.923	30173.06
579.121	29675.41
579.319	29443.99
579.516	29800.33
579.714	29826.96
579.912	29138.84
580.11	29327.25
580.308	29292.44
580.506	29130.65
580.704	28813.21
580.901	29026.2
581.099	29075.35
581.297	28905.37
581.495	28792.73
581.692	28917.66
581.89	28540.83
582.088	28684.19
582.285	28581.79
582.483	28563.36
582.681	28635.04
582.878	28161.96
583.076	28118.95
583.274	28321.7
583.471	27756.46
583.669	27778.99
583.866	27674.54
584.064	27955.11
584.262	27486.13
584.459	27742.13
584.657	27527.09
584.854	27838.38
585.052	26802.11
585.249	27525.04
585.447	27203.51
585.644	26712
585.841	26994.62
586.039	27084.73
586.236	26951.61
586.434	26777.53
586.631	26564.54
586.828	26802.11
587.026	26802.11
587.223	27011
587.42	26259.4
587.618	26464.19
587.815	26292.16
588.012	26007.5
588.21	26277.83
588.407	26664.89
588.604	26009.54
588.801	25679.82
588.999	25913.29
589.196	25778.12
589.393	25679.82
589.59	25417.68
589.787	25317.33
589.984	25374.67
590.182	25479.12
590.379	25182.17
590.576	25028.57
590.773	25329.62
590.97	24946.65
591.167	25042.9
591.364	24623.07
591.561	24791
591.758	24903.64
591.955	24696.8
592.152	24780.76
592.349	24594.4
592.546	24807.39
592.743	24586.21
592.94	24410.08
593.137	24655.84
593.334	24467.42
593.531	23685.1
593.727	24111.08
593.924	23924.71
594.121	23875.56
594.318	24473.57
594.515	23789.55
594.712	23939.05
594.908	23687.15
595.105	23844.84
595.302	23382
595.499	23375.86
595.696	23611.37
595.892	23171.06
596.089	23398.38
596.286	23207.92
596.482	22937.59
596.679	23021.56
596.876	23205.88
597.072	22978.55
597.269	22880.25
597.466	22456.32
597.662	22700.03
597.859	22945.78
598.055	22779.9
598.252	22521.85
598.448	22947.83
598.645	22671.36
598.841	22478.85
599.038	22339.58
599.234	22231.04
599.431	22159.36
599.627	22063.11
599.824	22224.9
600.02	21837.83
600.217	21889.03
600.413	21913.61
600.609	21755.91
600.806	21555.21
601.002	21690.38
601.198	21413.9
601.395	21655.56
601.591	21604.36
601.787	21295.12
601.984	21352.46
602.18	21454.86
602.376	21250.07
602.572	21112.85
602.769	21200.91
602.965	20869.14
603.161	21006.36
603.357	20787.22
603.553	20602.91
603.75	20674.59
603.946	20496.41
604.142	20578.33
604.338	20408.35
604.534	20656.15
604.73	20162.59
604.926	20367.39
605.122	20602.91
605.318	20168.74
605.514	19988.52
605.71	20029.48
605.906	20029.48
606.102	19863.59
606.298	19875.88
606.494	19767.34
606.69	19738.66
606.886	19490.86
607.082	19607.59
607.278	19714.09
607.474	19296.3
607.67	19447.85
607.866	19355.69
608.062	19324.97
608.257	19191.86
608.453	19025.97
608.649	19191.86
608.845	18987.06
609.041	18948.15
609.236	18944.05
609.432	18618.43
609.628	18620.47
609.824	18806.84
610.019	18423.87
610.215	18671.67
610.411	18753.59
610.606	18497.6
610.802	18620.47
610.998	18526.27
611.193	18468.92
611.389	18434.11
611.584	18286.65
611.78	18284.61
611.976	17940.55
612.171	18210.88
612.367	17942.6
612.562	17735.75
612.758	17750.09
612.953	17676.36
613.149	18098.24
613.344	17432.65
613.539	18057.28
613.735	17754.18
613.93	17729.61
614.126	17434.7
614.321	17739.85
614.517	17387.6
614.712	17393.74
614.907	17381.45
615.103	17365.07
615.298	17305.68
615.493	17303.63
615.688	16951.38
615.884	17213.52
616.079	16978
616.274	17096.78
616.47	16939.09
616.665	17156.18
616.86	16771.16
617.055	16900.18
617.25	16765.01
617.445	16875.6
617.641	16521.31
617.836	16986.19
618.031	16681.05
618.226	16752.73
618.421	16547.93
618.616	16797.78
618.811	16296.03
619.006	16289.88
619.201	16177.25
619.396	16498.78
619.591	15794.28
619.786	16042.08
619.981	15861.86
620.176	15845.48
620.371	15712.36
620.566	15818.85
620.761	15466.6
620.956	15736.93
621.151	15689.83
621.346	15603.82
621.541	15188.08
621.735	15470.7
621.93	15358.06
622.125	15270
622.32	15161.45
622.515	14925.94
622.709	14782.58
622.904	14889.07
623.099	14766.2
623.294	14805.11
623.488	14370.94
623.683	14665.85
623.878	14387.32
624.072	14233.72
624.267	14506.1
624.462	14297.21
624.656	14024.83
624.851	14166.14
625.046	14125.18
625.24	14020.74
625.435	13512.84
625.629	13736.07
625.824	13713.54
626.018	13518.98
626.213	13394.06
626.407	13457.54
626.602	13131.92
626.796	13224.08
626.991	13353.1
627.185	13359.24
627.38	13125.77
627.574	13109.39
627.768	12828.82
627.963	12900.5
628.157	12791.95
628.352	12970.13
628.546	12523.67
628.74	12685.46
628.935	12306.59
629.129	12611.73
629.323	12236.95
629.517	12404.89
629.712	12335.26
629.906	12109.98
630.1	11993.25
630.294	12144.8
630.489	11983.01
630.683	11880.61
630.877	11712.67
631.071	11516.07
631.265	11712.67
631.459	11747.49
631.653	11681.96
631.848	11450.53
632.042	11602.08
632.236	11620.52
632.43	11540.65
632.624	11262.12
632.818	11499.69
633.012	11086
633.206	11235.5
633.4	11542.69
633.594	10993.84
633.788	11057.32
633.982	10942.64
634.176	10825.9
634.369	10774.7
634.563	10987.69
634.757	10645.68
634.951	10897.58
635.145	10735.79
635.339	10778.8
635.533	10709.17
635.726	10516.66
635.92	10383.54
636.114	10627.25
636.308	10283.19
636.501	10260.66
636.695	10201.27
636.889	10184.89
637.083	10152.12
637.276	10166.46
637.47	9773.25
637.664	10008.76
637.857	10129.59
638.051	9830.59
638.244	9732.29
638.438	9799.87
638.632	9670.85
638.825	9590.98
639.019	9664.71
639.212	9584.84
639.406	9472.2
639.599	9390.28
639.793	9566.4
639.986	9375.94
640.18	9345.22
640.373	9281.74
640.567	9050.32
640.76	9029.84
640.954	9038.03
641.147	9048.27
641.34	8956.11
641.534	8876.24
641.727	9015.5
641.92	8915.15
642.114	8890.57
642.307	8808.65
642.5	8636.63
642.694	8530.13
642.887	8478.93
643.08	8597.71
643.273	8456.4
643.467	8218.84
643.66	8376.53
643.853	8331.48
644.046	8431.83
644.239	8222.94
644.432	8175.83
644.626	8044.76
644.819	8136.92
645.012	8003.8
645.205	7983.32
645.398	8102.11
645.591	7825.63
645.784	7835.87
645.977	7608.55
646.17	7682.27
646.363	7624.93
646.556	7629.02
646.749	7864.54
646.942	7512.29
647.135	7463.14
647.328	7522.53
647.521	7289.06
647.714	7332.07
647.907	7289.06
648.099	7227.62
648.292	7317.73
648.485	7342.31
648.678	7307.49
648.871	7084.27
649.064	7071.98
649.256	7000.3
649.449	6889.71
649.642	6873.32
649.835	6789.36
650.027	6781.17
650.22	6963.44
650.413	6699.25
650.605	6635.76
650.798	6592.75
650.991	6537.46
651.183	6648.05
651.376	6516.98
651.568	6555.89
651.761	6390
651.954	6490.35
652.146	6392.05
652.339	6279.41
652.531	6330.61
652.724	6316.28
652.916	6193.4
653.109	6080.76
653.301	6144.25
653.494	5978.36
653.686	5880.06
653.879	6193.4
654.071	6058.23
654.263	5986.55
654.456	5994.75
654.648	5902.59
654.84	5804.28
655.033	5671.17
655.225	5781.76
655.417	5814.52
655.61	5669.12
655.802	5753.09
655.994	5527.81
656.186	5636.35
656.379	5492.99
656.571	5427.46
656.763	5441.79
656.955	5382.4
657.148	5464.32
657.34	5554.43
657.532	5257.48
657.724	5323.01
657.916	5171.46
658.108	5183.75
658.3	5169.41
658.492	5234.95
658.684	5071.11
658.876	5097.74
659.068	5243.14
659.26	4907.27
659.452	4907.27
659.644	4966.67
659.836	4743.44
660.028	4868.36
660.22	4743.44
660.412	4729.1
660.604	4751.63
660.796	4761.87
660.988	4667.66
661.18	4636.94
661.372	4522.26
661.563	4649.23
661.755	4497.68
661.947	4571.41
662.139	4471.06
662.331	4405.52
662.522	4401.43
662.714	4415.76
662.906	4319.51
663.097	4237.59
663.289	4303.12
663.481	4086.04
663.673	4241.68
663.864	4045.08
664.056	4217.11
664.247	4137.24
664.439	3885.34
664.631	4004.12
664.822	3871
665.014	3981.59
665.205	4096.28
665.397	3961.11
665.588	3909.91
665.78	3854.62
665.971	3877.15
666.163	3801.37
666.354	3760.41
666.546	3909.91
666.737	3741.98
666.929	3875.1
667.12	3731.74
667.311	3838.23
667.503	3696.92
667.694	3774.75
667.885	3682.59
668.077	3764.51
668.268	3586.33
668.459	3551.52
668.651	3662.11
668.842	3522.85
669.033	3602.72
669.224	3399.97
669.416	3502.37
669.607	3549.47
669.798	3463.46
669.989	3561.76
670.18	3498.27
670.371	3344.67
670.563	3346.72
670.754	3359.01
670.945	3293.48
671.136	3369.25
671.327	3430.69
671.518	3256.61
671.709	3293.48
671.9	3311.91
672.091	3266.85
672.282	3311.91
672.473	3156.26
672.664	3143.97
672.855	3135.78
673.046	3277.09
673.237	3293.48
673.428	3115.3
673.619	3127.59
673.809	3025.19
674	3096.87
674.191	3264.8
674.382	3062.05
674.573	3146.02
674.764	3053.86
674.954	3148.07
675.145	2947.37
675.336	2980.14
675.527	3107.11
675.717	2988.33
675.908	2982.18
676.099	3039.53
676.289	2955.56
676.48	2816.3
676.671	2937.13
676.861	2959.66
677.052	2904.36
677.243	2965.8
677.433	2904.36
677.624	2881.83
677.814	2818.35
678.005	2900.27
678.195	2787.63
678.386	2834.73
678.576	2859.31
678.767	2756.91
678.957	2822.44
679.148	2773.29
679.338	2693.42
679.529	2685.23
679.719	2769.2
679.909	2840.87
680.1	2826.54
680.29	2666.8
680.481	2705.71
680.671	2748.72
680.861	2722.09
681.052	2730.28
681.242	2634.03
681.432	2666.8
681.622	2646.32
681.813	2646.32
682.003	2775.34
682.193	2646.32
682.383	2625.84
682.573	2588.97
682.764	2570.54
682.954	2605.36
683.144	2656.56
683.334	2509.1
683.524	2695.47
683.714	2658.6
683.904	2654.51
684.094	2601.26
684.284	2578.73
684.474	2554.16
684.664	2599.21
684.854	2607.41
685.044	2605.36
685.234	2474.29
685.424	2642.22
685.614	2554.16
685.804	2552.11
685.994	2451.76
686.184	2554.16
686.374	2580.78
686.564	2595.12
686.753	2529.58
686.943	2474.29
687.133	2576.69
687.323	2435.38
687.513	2597.17
687.702	2488.62
687.892	2574.64
688.082	2507.06
688.272	2574.64
688.461	2462
688.651	2517.29
688.841	2449.71
689.03	2490.67
689.22	2601.26
689.41	2541.87
689.599	2435.38
689.789	2445.62
689.979	2638.13
690.168	2646.32
690.358	2511.15
690.547	2511.15
690.737	2386.22
690.926	2586.93
691.116	2468.14
691.305	2539.82
691.495	2554.16
691.684	2400.56
691.874	2533.68
692.063	2515.25
692.252	2455.86
692.442	2582.83
692.631	2457.9
692.82	2545.97
693.01	2480.43
693.199	2521.39
693.388	2474.29
693.578	2500.91
693.767	2468.14
693.956	2541.87
694.146	2611.5
694.335	2441.52
694.524	2494.77
694.713	2418.99
694.902	2529.58
695.092	2541.87
695.281	2478.38
695.47	2468.14
695.659	2554.16
695.848	2416.94
696.037	2527.53
696.226	2488.62
696.415	2474.29
696.604	2564.4
696.793	2529.58
696.982	2517.29
697.171	2556.21
697.36	2576.69
697.549	2416.94
697.738	2402.61
697.927	2423.09
698.116	2513.2
698.305	2396.46
698.494	2406.7
698.683	2416.94
698.872	2486.58
699.061	2468.14
699.25	2349.36
699.438	2418.99
699.627	2367.79
699.816	2474.29
700.005	2345.27
700.193	2341.17
700.382	2437.42
700.571	2468.14
700.76	2459.95
700.948	2449.71
701.137	2343.22
701.326	2386.22
701.514	2443.57
701.703	2375.99
701.892	2472.24
702.08	2330.93
702.269	2396.46
702.457	2398.51
702.646	2431.28
702.834	2380.08
703.023	2275.63
703.212	2380.08
703.4	2273.59
703.589	2289.97
703.777	2275.63
703.965	2228.53
704.154	2308.4
704.342	2304.31
704.531	2255.15
704.719	2296.11
704.907	2459.95
705.096	2285.87
705.284	2289.97
705.472	2349.36
705.661	2238.77
705.849	2287.92
706.037	2298.16
706.226	2232.63
706.414	2261.3
706.602	2173.24
706.79	2244.92
706.979	2242.87
707.167	2220.34
707.355	2142.52
707.543	2181.43
707.731	2167.09
707.919	2136.37
708.107	2208.05
708.296	2152.76
708.484	2107.7
708.672	2085.17
708.86	2109.75
709.048	2083.13
709.236	2117.94
709.424	2025.78
709.612	2111.8
709.8	2058.55
709.988	2040.12
710.176	2056.5
710.364	1976.63
710.551	2179.38
710.739	2099.51
710.927	2021.69
711.115	1882.42
711.303	2025.78
711.491	1937.72
711.679	1974.58
711.866	1999.16
712.054	1952.06
712.242	2007.35
712.43	1886.52
712.617	1937.72
712.805	1970.49
712.993	1919.29
713.181	1886.52
713.368	1931.58
713.556	2003.25
713.744	1847.61
713.931	1870.14
714.119	1816.89
714.306	1831.23
714.494	1845.56
714.682	1892.66
714.869	1863.99
715.057	1888.57
715.244	1782.07
715.432	1861.94
715.619	1837.37
715.807	1835.32
715.994	1745.21
716.182	1777.98
716.369	1763.64
716.556	1743.16
716.744	1716.54
716.931	1753.4
717.119	1657.15
717.306	1780.03
717.493	1704.25
717.681	1675.58
717.868	1866.04
718.055	1739.07
718.242	1638.72
718.43	1665.34
718.617	1679.68
718.804	1622.33
718.991	1665.34
719.179	1618.24
719.366	1581.37
719.553	1749.31
719.74	1694.01
719.927	1675.58
720.114	1610.04
720.301	1638.72
720.488	1671.48
720.676	1573.18
720.863	1544.51
721.05	1597.76
721.237	1585.47
721.424	1542.46
721.611	1515.84
721.798	1489.21
721.985	1499.45
722.172	1495.36
722.358	1425.73
722.545	1497.41
722.732	1497.41
722.919	1501.5
723.106	1478.97
723.293	1640.76
723.48	1532.22
723.667	1515.84
723.853	1499.45
724.04	1407.3
724.227	1399.1
724.414	1417.54
724.6	1302.85
724.787	1521.98
724.974	1327.43
725.161	1372.48
725.347	1341.76
725.534	1343.81
725.72	1368.38
725.907	1429.82
726.094	1380.67
726.28	1270.08
726.467	1319.23
726.653	1341.76
726.84	1483.07
727.027	1364.29
727.213	1286.47
727.4	1331.52
727.586	1302.85
727.773	1395.01
727.959	1343.81
728.145	1364.29
728.332	1337.66
728.518	1231.17
728.705	1304.9
728.891	1212.74
729.077	1302.85
729.264	1319.23
729.45	1290.56
729.636	1257.79
729.823	1216.83
730.009	1157.44
730.195	1286.47
730.382	1190.21
730.568	1251.65
730.754	1243.46
730.94	1280.32
731.126	1198.4
731.313	1247.55
731.499	1278.27
731.685	1253.7
731.871	1204.55
732.057	1149.25
732.243	1136.96
732.429	1247.55
732.615	1173.83
732.801	1251.65
732.987	1087.81
733.173	1100.1
733.359	1231.17
733.545	1104.2
733.731	1106.24
733.917	1247.55
734.103	1167.68
734.289	1182.02
734.475	1157.44
734.661	1225.03
734.847	1102.15
735.033	1040.71
735.219	1075.52
735.404	1159.49
735.59	1089.86
735.776	1161.54
735.962	1061.19
736.148	1040.71
736.333	1055.05
736.519	1106.24
736.705	1093.96
736.89	940.36
737.076	985.41
737.262	1175.88
737.447	1063.24
737.633	1030.47
737.819	1061.19
738.004	1130.82
738.19	1009.99
738.375	1036.61
738.561	1024.33
738.747	1009.99
738.932	1020.23
739.118	1028.42
739.303	969.03
739.489	962.89
739.674	893.26
739.859	995.65
740.045	895.3
740.23	964.93
740.416	926.02
740.601	971.08
740.786	919.88
740.972	966.98
741.157	934.22
741.342	915.78
741.528	946.5
741.713	985.41
741.898	944.45
742.084	799.05
742.269	893.26
742.454	940.36
742.639	932.17
742.824	880.97
743.01	856.39
743.195	917.83
743.38	788.81
743.565	897.35
743.75	950.6
743.935	858.44
744.12	864.58
744.305	803.15
744.49	901.45
744.675	903.5
744.86	784.71
745.045	893.26
745.23	960.84
745.415	846.15
745.6	772.43
745.785	803.15
745.97	803.15
746.155	885.06
746.34	868.68
746.525	835.91
746.71	788.81
746.895	852.3
747.079	874.82
747.264	776.52
747.449	739.66
747.634	817.48
747.819	766.28
748.003	719.18
748.188	794.95
748.373	811.34
748.557	768.33
748.742	788.81
748.927	811.34
749.111	696.65
749.296	766.28
749.481	694.6
749.665	670.03
749.85	713.03
750.034	729.42
750.219	721.23
750.404	657.74
750.588	723.27
750.773	708.94
750.957	686.41
751.141	731.47
751.326	645.45
751.51	680.27
751.695	641.36
751.879	676.17
752.064	661.84
752.248	653.64
752.432	670.03
752.617	538.96
752.801	678.22
752.985	696.65
753.17	614.73
753.354	635.21
753.538	543.05
753.722	641.36
753.907	629.07
754.091	614.73
754.275	672.08
754.459	559.44
754.643	584.01
754.828	618.83
755.012	565.58
755.196	584.01
755.38	610.64
755.564	594.25
755.748	532.81
755.932	561.48
756.116	545.1
756.3	518.48
756.484	606.54
756.668	606.54
756.852	502.09
757.036	665.93
757.22	565.58
757.404	532.81
757.588	602.44
757.772	524.62
757.956	518.48
758.14	483.66
758.323	559.44
758.507	592.2
758.691	543.05
758.875	536.91
759.059	502.09
759.242	575.82
759.426	498
759.61	538.96
759.794	518.48
759.977	512.33
760.161	532.81
760.345	549.2
760.528	444.75
760.712	491.85
760.895	409.94
761.079	450.89
761.263	500.05
761.446	446.8
761.63	502.09
761.813	549.2
761.997	508.24
762.18	438.61
762.364	430.41
762.547	467.28
762.731	459.09
762.914	436.56
763.098	483.66
763.281	387.41
763.464	442.7
763.648	403.79
763.831	467.28
764.015	518.48
764.198	475.47
764.381	440.65
764.564	434.51
764.748	387.41
764.931	411.98
765.114	381.26
765.297	403.79
765.481	387.41
765.664	393.55
765.847	452.94
766.03	422.22
766.213	450.89
766.397	414.03
766.58	452.94
766.763	430.41
766.946	502.09
767.129	405.84
767.312	375.12
767.495	403.79
767.678	444.75
767.861	418.13
768.044	381.26
768.227	430.41
768.41	418.13
768.593	389.46
768.776	493.9
768.959	354.64
769.142	422.22
769.324	471.37
769.507	434.51
769.69	418.13
769.873	389.46
770.056	403.79
770.239	356.69
770.421	430.41
770.604	381.26
770.787	397.65
770.97	368.98
771.152	434.51
771.335	295.25
771.518	414.03
771.7	393.55
771.883	422.22
772.066	430.41
772.248	434.51
772.431	371.02
772.613	397.65
772.796	381.26
772.978	428.37
773.161	323.92
773.343	360.78
773.526	428.37
773.708	411.98
773.891	397.65
774.073	297.3
774.256	332.11
774.438	305.49
774.621	371.02
774.803	332.11
774.985	330.06
775.168	334.16
775.35	352.59
775.532	346.45
775.715	315.73
775.897	399.7
776.079	287.06
776.261	332.11
776.444	346.45
776.626	321.87
776.808	282.96
776.99	364.88
777.173	373.07
777.355	391.5
777.537	274.77
777.719	315.73
777.901	280.91
778.083	305.49
778.265	332.11
778.447	317.78
778.629	319.82
778.811	213.33
778.993	313.68
779.175	313.68
779.357	332.11
779.539	254.29
779.721	342.35
779.903	303.44
780.085	264.53
780.267	336.21
780.449	221.52
780.631	248.15
780.812	264.53
780.994	276.82
781.176	190.8
781.358	209.23
781.54	282.96
781.721	315.73
781.903	201.04
782.085	215.38
782.267	256.34
782.448	278.87
782.63	256.34
782.812	233.81
782.993	190.8
783.175	196.95
783.357	209.23
783.538	244.05
783.72	190.8
783.901	223.57
784.083	237.91
784.264	153.94
784.446	207.19
784.627	233.81
784.809	217.43
784.99	209.23
785.172	295.25
785.353	168.27
785.535	233.81
785.716	242
785.897	147.8
786.079	244.05
786.26	209.23
786.441	237.91
786.623	155.99
786.804	158.03
786.985	168.27
787.167	215.38
787.348	217.43
787.529	194.9
787.71	127.32
787.891	242
788.073	164.18
788.254	135.51
788.435	303.44
788.616	158.03
788.797	192.85
788.978	168.27
789.159	180.56
789.34	233.81
789.522	184.66
789.703	180.56
789.884	237.91
790.065	235.86
790.246	188.75
790.427	139.6
790.607	203.09
790.788	188.75
790.969	172.37
791.15	186.71
791.331	196.95
791.512	219.47
791.693	143.7
791.874	131.41
792.054	86.36
792.235	158.03
792.416	131.41
792.597	151.89
792.778	82.26
792.958	147.8
793.139	168.27
793.32	127.32
793.5	67.92
793.681	301.39
793.862	115.03
794.042	106.84
794.223	127.32
794.404	143.7
794.584	133.46
794.765	135.51
794.945	149.84
795.126	90.45
795.306	125.27
795.487	108.88
795.667	94.55
795.848	90.45
796.028	147.8
796.209	158.03
796.389	100.69
796.57	137.56
796.75	133.46
796.93	139.6
797.111	119.12
797.291	145.75
797.471	149.84
797.652	59.73
797.832	108.88
798.012	110.93
798.192	104.79
798.373	106.84
798.553	108.88
798.733	90.45
798.913	82.26
799.093	80.21
799.274	117.08
799.454	69.97
799.634	135.51
799.814	86.36
799.994	131.41
800.174	133.46
800.354	121.17
800.534	108.88
800.714	110.93
800.894	112.98
801.074	135.51
801.254	133.46
801.434	61.78
801.614	78.16
801.794	127.32
801.974	278.87
802.154	49.49
802.334	84.31
802.514	160.08
802.693	143.7
802.873	121.17
803.053	127.32
803.233	100.69
803.413	26.96
803.592	119.12
803.772	84.31
803.952	72.02
804.131	151.89
804.311	90.45
804.491	102.74
804.67	86.36
804.85	127.32
805.03	104.79
805.209	51.54
805.389	88.4
805.568	94.55
805.748	127.32
805.928	74.07
806.107	94.55
806.287	63.83
806.466	92.5
806.646	49.49
806.825	57.68
807.004	86.36
807.184	35.16
807.363	53.59
807.543	106.84
807.722	67.92
807.901	94.55
808.081	100.69
808.26	12.63
808.439	55.64
808.619	31.06
808.798	74.07
808.977	125.27
809.156	115.03
809.336	82.26
809.515	115.03
809.694	102.74
809.873	84.31
810.052	61.78
810.231	92.5
810.411	16.73
810.59	72.02
810.769	90.45
810.948	86.36
811.127	22.87
811.306	100.69
811.485	108.88
811.664	55.64
811.843	115.03
812.022	53.59
812.201	43.35
812.38	8.53
812.559	47.44
812.737	63.83
812.916	16.73
813.095	22.87
813.274	106.84
813.453	119.12
813.632	115.03
813.811	67.92
813.989	106.84
814.168	72.02
814.347	16.73
814.526	-18.09
814.704	37.2
814.883	86.36
815.062	-9.9
815.24	92.5
815.419	29.01
815.598	82.26
815.776	18.77
815.955	53.59
816.133	16.73
816.312	63.83
816.49	57.68
816.669	-16.04
816.847	12.63
817.026	33.11
817.204	47.44
817.383	53.59
817.561	8.53
817.74	49.49
817.918	53.59
818.097	67.92
818.275	59.73
818.453	18.77
818.632	20.82
818.81	-54.95
818.988	67.92
819.167	35.16
819.345	31.06
819.523	59.73
819.701	80.21
819.879	22.87
820.058	45.4
820.236	18.77
820.414	29.01
820.592	18.77
820.77	74.07
820.948	10.58
821.127	39.25
821.305	108.88
821.483	35.16
821.661	43.35
821.839	-26.28
822.017	22.87
822.195	16.73
822.373	43.35
822.551	127.32
822.729	41.3
822.907	0.34
823.085	29.01
823.262	8.53
823.44	33.11
823.618	106.84
823.796	24.92
823.974	2.39
824.152	31.06
824.329	33.11
824.507	43.35
824.685	20.82
824.863	47.44
825.04	84.31
825.218	61.78
825.396	16.73
825.574	65.88
825.751	16.73
825.929	-13.99
826.107	45.4
826.284	16.73
826.462	67.92
826.639	6.49
826.817	-52.91
826.994	45.4
827.172	67.92
827.349	-7.85
827.527	41.3
827.704	-11.95
827.882	-3.75
828.059	-38.57
828.237	4.44
828.414	76.12
828.591	10.58
828.769	20.82
828.946	39.25
829.124	20.82
829.301	31.06
829.478	123.22
829.655	-9.9
829.833	18.77
830.01	-34.47
830.187	-5.8
830.364	47.44
830.542	61.78
830.719	45.4
830.896	72.02
831.073	8.53
831.25	0.34
831.427	51.54
831.604	-22.19
831.782	-22.19
831.959	16.73
832.136	45.4
832.313	67.92
832.49	-5.8
832.667	61.78
832.844	-32.43
833.021	47.44
833.198	86.36
833.374	-9.9
833.551	90.45
833.728	43.35
833.905	24.92
834.082	33.11
834.259	41.3
834.436	57.68
834.612	69.97
834.789	35.16
834.966	33.11
835.143	-13.99
835.319	-54.95
835.496	24.92
835.673	-5.8
835.85	57.68
836.026	57.68
836.203	67.92
836.38	20.82
836.556	63.83
836.733	24.92
836.909	20.82
837.086	41.3
837.262	33.11
837.439	4.44
837.616	12.63
837.792	35.16
837.968	76.12
838.145	10.58
838.321	-24.23
838.498	12.63
838.674	43.35
838.851	-11.95
839.027	69.97
839.203	-7.85
839.38	-11.95
839.556	-18.09
839.732	10.58
839.909	-26.28
840.085	-5.8
840.261	10.58
840.437	35.16
840.614	-32.43
840.79	-24.23
840.966	41.3
841.142	-5.8
841.318	-20.14
841.494	35.16
841.671	33.11
841.847	37.2
842.023	-13.99
842.199	8.53
842.375	45.4
842.551	16.73
842.727	0.34
842.903	-7.85
843.079	-32.43
843.255	-26.28
843.431	-18.09
843.607	37.2
843.783	-24.23
843.959	61.78
844.134	20.82
844.31	67.92
844.486	-34.47
844.662	2.39
844.838	-28.33
845.013	82.26
845.189	-7.85
845.365	-50.86
845.541	-34.47
845.716	-11.95
845.892	10.58
846.068	12.63
846.244	-69.29
846.419	10.58
846.595	-1.71
846.77	-30.38
846.946	0.34
847.122	-7.85
847.297	-44.71
847.473	69.97
847.648	26.96
847.824	-1.71
847.999	-46.76
848.175	20.82
848.35	-36.52
848.526	18.77
848.701	53.59
848.876	2.39
849.052	49.49
849.227	-7.85
849.403	-48.81
849.578	-38.57
849.753	-30.38
849.929	24.92
850.104	-26.28
850.279	-65.19
850.454	24.92
850.63	20.82
850.805	-1.71
850.98	-57
851.155	-22.19
851.33	12.63
851.505	-73.39
851.681	-22.19
851.856	-18.09
852.031	6.49
852.206	-81.58
852.381	-9.9
852.556	0.34
852.731	24.92
852.906	-26.28
853.081	-5.8
853.256	22.87
853.431	-13.99
853.606	-30.38
853.781	-24.23
853.956	-48.81
854.131	61.78
854.305	-34.47
854.48	16.73
854.655	-18.09
854.83	29.01
855.005	14.68
855.18	16.73
855.354	-104.11
855.529	-38.57
855.704	-11.95
855.879	-24.23
856.053	-20.14
856.228	-24.23
856.403	43.35
856.577	10.58
856.752	-44.71
856.926	108.88
857.101	20.82
857.276	-18.09
857.45	-20.14
857.625	26.96
857.799	-34.47
857.974	10.58
858.148	-5.8
858.323	-5.8
858.497	-71.34
858.672	-20.14
858.846	6.49
859.02	35.16
859.195	-16.04
859.369	-9.9
859.543	-36.52
859.718	-48.81
859.892	-3.75
860.066	41.3
860.241	35.16
860.415	-5.8
860.589	-3.75
860.763	-9.9
860.938	-3.75
861.112	-36.52
861.286	-52.91
861.46	-1.71
861.634	-77.48
861.808	-9.9
861.982	-32.43
862.157	24.92
862.331	-40.62
862.505	-28.33
862.679	26.96
862.853	-32.43
863.027	0.34
863.201	-20.14
863.375	37.2
863.549	2.39
863.722	-13.99
863.896	8.53
864.07	-7.85
864.244	26.96
864.418	-57
864.592	31.06
864.766	-61.1
864.939	-20.14
865.113	-52.91
865.287	-26.28
865.461	-73.39
865.634	41.3
865.808	-126.63
865.982	-24.23
866.156	-85.67
866.329	16.73
866.503	29.01
866.676	45.4
866.85	-83.63
867.024	51.54
867.197	-22.19
867.371	-16.04
867.544	-1.71
867.718	-57
867.891	-61.1
868.065	-18.09
868.238	-26.28
868.412	8.53
868.585	-46.76
868.759	26.96
868.932	26.96
869.105	10.58
869.279	16.73
869.452	-44.71
869.625	33.11
869.799	-22.19
869.972	-5.8
870.145	10.58
870.319	10.58
870.492	-24.23
870.665	-24.23
870.838	2.39
871.011	-26.28
871.185	-20.14
871.358	-1.71
871.531	-44.71
871.704	-38.57
871.877	-11.95
872.05	-52.91
872.223	-71.34
872.396	-36.52
872.569	-57
872.742	6.49
872.915	-30.38
873.088	-38.57
873.261	18.77
873.434	-24.23
873.607	59.73
873.78	4.44
873.953	-5.8
874.126	20.82
874.299	-7.85
874.471	-50.86
874.644	22.87
874.817	-42.67
874.99	-3.75
875.163	-61.1
875.335	41.3
875.508	-13.99
875.681	-7.85
875.853	6.49
876.026	-7.85
876.199	-38.57
876.371	0.34
876.544	29.01
876.717	-69.29
876.889	-18.09
877.062	51.54
877.234	24.92
877.407	18.77
877.579	12.63
877.752	-18.09
877.924	-7.85
878.097	-16.04
878.269	16.73
878.442	-11.95
878.614	6.49
878.786	43.35
878.959	-69.29
879.131	29.01
879.303	-28.33
879.476	-26.28
879.648	43.35
879.82	14.68
879.993	2.39
880.165	-11.95
880.337	-50.86
880.509	4.44
880.681	16.73
880.854	-18.09
881.026	-7.85
881.198	-30.38
881.37	-1.71
881.542	-57
881.714	-38.57
881.886	-32.43
882.058	-3.75
882.23	8.53
882.402	-38.57
882.574	-20.14
882.746	-16.04
882.918	53.59
883.09	-63.15
883.262	-34.47
883.434	-11.95
883.606	-48.81
883.778	-9.9
883.95	37.2
884.122	-93.87
884.293	4.44
884.465	8.53
884.637	-30.38
884.809	-5.8
884.98	-22.19
885.152	-81.58
885.324	10.58
885.496	-57
885.667	-32.43
885.839	-16.04
886.011	39.25
886.182	-24.23
886.354	8.53
886.525	-9.9
886.697	-5.8
886.869	-48.81
887.04	-11.95
887.212	-77.48
887.383	-40.62
887.555	22.87
887.726	20.82
887.897	-54.95
888.069	-44.71
888.24	-32.43
888.412	-32.43
888.583	-13.99
888.754	-16.04
888.926	-44.71
889.097	29.01
889.268	57.68
889.44	-87.72
889.611	-5.8
889.782	2.39
889.953	-46.76
890.125	-24.23
890.296	18.77
890.467	-3.75
890.638	-28.33
890.809	-50.86
890.98	-44.71
891.151	29.01
891.323	-48.81
891.494	-13.99
891.665	-24.23
891.836	-11.95
892.007	16.73
892.178	-30.38
892.349	-65.19
892.52	35.16
892.691	-11.95
892.862	29.01
893.032	-18.09
893.203	-40.62
893.374	-22.19
893.545	8.53
893.716	2.39
893.887	0.34
894.057	-42.67
894.228	-13.99
894.399	-3.75
894.57	-57
894.74	-40.62
894.911	63.83
895.082	-44.71
895.253	35.16
895.423	51.54
895.594	-24.23
895.764	-28.33
895.935	0.34
896.106	-5.8
896.276	12.63
896.447	-24.23
896.617	-7.85
896.788	26.96
896.958	-52.91
897.129	-22.19
897.299	-3.75
897.47	18.77
897.64	8.53
897.81	-52.91
897.981	8.53
898.151	-34.47
898.322	-3.75
898.492	0.34
898.662	4.44
898.832	6.49
899.003	31.06
899.173	-69.29
899.343	-24.23
899.513	-36.52
