Data from USB4F104151__217__14-00-10-483.txt Node

Date: Thu Mar 13 14:00:10 EDT 2025
User: louis
Spectrometer: USB4F10415
Trigger mode: 4
Integration Time (sec): 1.000000E-2
Scans to average: 1
Electric dark correction enabled: true
Nonlinearity correction enabled: false
Boxcar width: 0
XAxis mode: Wavelengths
Number of Pixels in Spectrum: 3648
>>>>>Begin Spectral Data<<<<<
178.204	-79.36
178.424	-79.36
178.644	-79.36
178.864	-22.02
179.084	-17.92
179.304	31.23
179.524	-17.92
179.744	39.42
179.964	66.05
180.184	-99.84
180.404	6.66
180.624	8.7
180.844	-24.06
181.064	12.8
181.283	-7.68
181.503	14.85
181.723	-30.21
181.943	20.99
182.163	10.75
182.383	72.19
182.602	78.33
182.822	23.04
183.042	47.62
183.262	33.28
183.482	33.28
183.701	-5.63
183.921	39.42
184.141	-9.73
184.361	68.09
184.58	70.14
184.8	47.62
185.02	6.66
185.239	92.67
185.459	-11.78
185.679	16.9
185.898	2.56
186.118	84.48
186.338	10.75
186.557	4.61
186.777	-11.78
186.997	-40.45
187.216	14.85
187.436	84.48
187.655	51.71
187.875	107.01
188.095	14.85
188.314	123.39
188.534	14.85
188.753	43.52
188.973	45.57
189.192	6.66
189.412	10.75
189.631	0.51
189.851	96.77
190.07	92.67
190.29	-42.5
190.509	76.29
190.729	53.76
190.948	-15.87
191.168	133.63
191.387	20.99
191.607	31.23
191.826	57.86
192.045	104.96
192.265	115.2
192.484	64
192.704	-9.73
192.923	66.05
193.142	-13.82
193.362	14.85
193.581	0.51
193.8	-1.54
194.02	20.99
194.239	10.75
194.458	-9.73
194.678	64
194.897	107.01
195.116	80.38
195.335	25.09
195.555	57.86
195.774	31.23
195.993	-30.21
196.212	0.51
196.432	0.51
196.651	31.23
196.87	92.67
197.089	39.42
197.308	25.09
197.528	-11.78
197.747	18.94
197.966	57.86
198.185	64
198.404	0.51
198.623	29.18
198.842	47.62
199.062	-89.6
199.281	72.19
199.5	90.62
199.719	55.81
199.938	37.38
200.157	25.09
200.376	64
200.595	88.57
200.814	61.95
201.033	45.57
201.252	37.38
201.471	51.71
201.69	78.33
201.909	64
202.128	-17.92
202.347	18.94
202.566	51.71
202.785	8.7
203.004	-17.92
203.223	23.04
203.442	20.99
203.661	31.23
203.879	47.62
204.098	37.38
204.317	78.33
204.536	16.9
204.755	64
204.974	76.29
205.193	23.04
205.411	80.38
205.63	41.47
205.849	100.86
206.068	-1.54
206.287	53.76
206.505	92.67
206.724	64
206.943	51.71
207.162	18.94
207.381	-19.97
207.599	47.62
207.818	23.04
208.037	29.18
208.255	72.19
208.474	70.14
208.693	12.8
208.911	72.19
209.13	4.61
209.349	23.04
209.567	27.14
209.786	-1.54
210.005	27.14
210.223	23.04
210.442	39.42
210.661	94.72
210.879	37.38
211.098	41.47
211.316	55.81
211.535	82.43
211.753	-3.58
211.972	33.28
212.191	59.9
212.409	20.99
212.628	49.66
212.846	37.38
213.065	14.85
213.283	76.29
213.502	23.04
213.72	35.33
213.938	27.14
214.157	61.95
214.375	51.71
214.594	59.9
214.812	8.7
215.031	66.05
215.249	4.61
215.467	96.77
215.686	-46.59
215.904	123.39
216.122	31.23
216.341	-1.54
216.559	51.71
216.778	61.95
216.996	-17.92
217.214	47.62
217.432	33.28
217.651	68.09
217.869	0.51
218.087	90.62
218.306	23.04
218.524	31.23
218.742	57.86
218.96	35.33
219.179	47.62
219.397	127.49
219.615	80.38
219.833	94.72
220.051	72.19
220.27	88.57
220.488	61.95
220.706	55.81
220.924	45.57
221.142	64
221.36	64
221.578	39.42
221.796	-83.45
222.015	33.28
222.233	-28.16
222.451	86.53
222.669	88.57
222.887	39.42
223.105	59.9
223.323	-1.54
223.541	29.18
223.759	-17.92
223.977	47.62
224.195	31.23
224.413	90.62
224.631	78.33
224.849	27.14
225.067	121.34
225.285	-7.68
225.503	41.47
225.721	-26.11
225.939	90.62
226.157	16.9
226.375	107.01
226.592	64
226.81	23.04
227.028	18.94
227.246	139.77
227.464	61.95
227.682	72.19
227.9	4.61
228.117	84.48
228.335	37.38
228.553	35.33
228.771	-34.3
228.989	31.23
229.206	57.86
229.424	92.67
229.642	76.29
229.86	25.09
230.077	113.15
230.295	23.04
230.513	82.43
230.731	-40.45
230.948	39.42
231.166	86.53
231.384	51.71
231.601	47.62
231.819	86.53
232.037	-17.92
232.254	66.05
232.472	35.33
232.689	39.42
232.907	27.14
233.125	29.18
233.342	25.09
233.56	47.62
233.777	25.09
233.995	39.42
234.213	-19.97
234.43	37.38
234.648	96.77
234.865	41.47
235.083	41.47
235.3	49.66
235.518	41.47
235.735	27.14
235.953	18.94
236.17	14.85
236.388	51.71
236.605	4.61
236.822	64
237.04	41.47
237.257	74.24
237.475	-62.98
237.692	68.09
237.909	92.67
238.127	43.52
238.344	74.24
238.562	66.05
238.779	49.66
238.996	90.62
239.214	64
239.431	2.56
239.648	35.33
239.865	107.01
240.083	59.9
240.3	2.56
240.517	84.48
240.735	100.86
240.952	14.85
241.169	51.71
241.386	41.47
241.603	10.75
241.821	59.9
242.038	68.09
242.255	84.48
242.472	37.38
242.689	33.28
242.907	61.95
243.124	47.62
243.341	64
243.558	18.94
243.775	-24.06
243.992	10.75
244.209	90.62
244.426	-1.54
244.643	-5.63
244.86	49.66
245.078	43.52
245.295	-46.59
245.512	80.38
245.729	41.47
245.946	6.66
246.163	27.14
246.38	68.09
246.597	51.71
246.814	18.94
247.031	47.62
247.248	55.81
247.464	12.8
247.681	41.47
247.898	16.9
248.115	72.19
248.332	64
248.549	76.29
248.766	55.81
248.983	6.66
249.2	-11.78
249.417	86.53
249.633	-1.54
249.85	100.86
250.067	8.7
250.284	74.24
250.501	-9.73
250.717	74.24
250.934	80.38
251.151	41.47
251.368	64
251.585	43.52
251.801	59.9
252.018	68.09
252.235	72.19
252.451	-17.92
252.668	16.9
252.885	51.71
253.102	18.94
253.318	35.33
253.535	76.29
253.752	0.51
253.968	47.62
254.185	18.94
254.401	39.42
254.618	47.62
254.835	131.58
255.051	39.42
255.268	53.76
255.484	0.51
255.701	16.9
255.917	55.81
256.134	41.47
256.351	66.05
256.567	49.66
256.784	66.05
257	18.94
257.217	49.66
257.433	94.72
257.65	39.42
257.866	64
258.082	84.48
258.299	49.66
258.515	84.48
258.732	49.66
258.948	29.18
259.165	47.62
259.381	84.48
259.597	27.14
259.814	35.33
260.03	57.86
260.246	55.81
260.463	49.66
260.679	86.53
260.895	25.09
261.112	43.52
261.328	31.23
261.544	37.38
261.761	70.14
261.977	-7.68
262.193	25.09
262.409	90.62
262.626	64
262.842	92.67
263.058	8.7
263.274	72.19
263.49	41.47
263.707	53.76
263.923	23.04
264.139	102.91
264.355	92.67
264.571	74.24
264.787	0.51
265.004	53.76
265.22	45.57
265.436	107.01
265.652	31.23
265.868	16.9
266.084	64
266.3	8.7
266.516	74.24
266.732	57.86
266.948	53.76
267.164	53.76
267.38	25.09
267.596	90.62
267.812	133.63
268.028	-85.5
268.244	104.96
268.46	61.95
268.676	76.29
268.892	18.94
269.108	14.85
269.324	66.05
269.54	86.53
269.756	16.9
269.972	82.43
270.188	47.62
270.403	76.29
270.619	47.62
270.835	12.8
271.051	45.57
271.267	14.85
271.483	49.66
271.698	59.9
271.914	16.9
272.13	51.71
272.346	23.04
272.562	49.66
272.777	86.53
272.993	45.57
273.209	35.33
273.425	139.77
273.64	6.66
273.856	6.66
274.072	8.7
274.287	84.48
274.503	88.57
274.719	-15.87
274.934	90.62
275.15	-5.63
275.366	23.04
275.581	57.86
275.797	6.66
276.012	80.38
276.228	72.19
276.444	55.81
276.659	6.66
276.875	31.23
277.09	80.38
277.306	12.8
277.521	57.86
277.737	35.33
277.952	25.09
278.168	113.15
278.383	72.19
278.599	20.99
278.814	72.19
279.03	29.18
279.245	80.38
279.461	18.94
279.676	47.62
279.892	76.29
280.107	90.62
280.322	27.14
280.538	66.05
280.753	41.47
280.969	27.14
281.184	33.28
281.399	37.38
281.615	74.24
281.83	43.52
282.045	41.47
282.26	76.29
282.476	43.52
282.691	98.81
282.906	80.38
283.122	96.77
283.337	49.66
283.552	51.71
283.767	78.33
283.983	41.47
284.198	-36.35
284.413	10.75
284.628	27.14
284.843	16.9
285.058	27.14
285.274	102.91
285.489	39.42
285.704	39.42
285.919	4.61
286.134	64
286.349	55.81
286.564	23.04
286.779	61.95
286.995	96.77
287.21	33.28
287.425	104.96
287.64	12.8
287.855	14.85
288.07	-5.63
288.285	53.76
288.5	76.29
288.715	104.96
288.93	104.96
289.145	18.94
289.36	55.81
289.575	76.29
289.79	92.67
290.004	14.85
290.219	41.47
290.434	20.99
290.649	53.76
290.864	20.99
291.079	78.33
291.294	74.24
291.509	29.18
291.724	23.04
291.938	35.33
292.153	55.81
292.368	-1.54
292.583	-9.73
292.798	78.33
293.012	49.66
293.227	57.86
293.442	68.09
293.657	49.66
293.871	82.43
294.086	47.62
294.301	109.05
294.516	31.23
294.73	49.66
294.945	49.66
295.16	98.81
295.374	76.29
295.589	51.71
295.804	64
296.018	-17.92
296.233	59.9
296.447	72.19
296.662	27.14
296.877	27.14
297.091	35.33
297.306	80.38
297.52	51.71
297.735	27.14
297.949	35.33
298.164	51.71
298.378	27.14
298.593	18.94
298.807	86.53
299.022	119.29
299.236	43.52
299.451	80.38
299.665	43.52
299.88	59.9
300.094	61.95
300.309	80.38
300.523	45.57
300.737	0.51
300.952	74.24
301.166	113.15
301.381	137.73
301.595	70.14
301.809	23.04
302.024	66.05
302.238	-5.63
302.452	129.53
302.667	55.81
302.881	113.15
303.095	162.3
303.309	74.24
303.524	8.7
303.738	88.57
303.952	55.81
304.166	115.2
304.381	47.62
304.595	35.33
304.809	92.67
305.023	31.23
305.237	55.81
305.452	33.28
305.666	43.52
305.88	107.01
306.094	10.75
306.308	31.23
306.522	84.48
306.736	59.9
306.95	72.19
307.164	59.9
307.379	16.9
307.593	49.66
307.807	59.9
308.021	74.24
308.235	2.56
308.449	66.05
308.663	72.19
308.877	72.19
309.091	23.04
309.305	66.05
309.519	59.9
309.733	49.66
309.947	59.9
310.161	80.38
310.374	98.81
310.588	64
310.802	31.23
311.016	14.85
311.23	74.24
311.444	88.57
311.658	90.62
311.872	96.77
312.085	107.01
312.299	88.57
312.513	55.81
312.727	92.67
312.941	-15.87
313.154	23.04
313.368	41.47
313.582	59.9
313.796	70.14
314.009	76.29
314.223	39.42
314.437	107.01
314.651	31.23
314.864	47.62
315.078	47.62
315.292	-5.63
315.505	139.77
315.719	10.75
315.933	80.38
316.146	51.71
316.36	4.61
316.573	113.15
316.787	10.75
317.001	47.62
317.214	55.81
317.428	31.23
317.641	-34.3
317.855	59.9
318.068	-11.78
318.282	82.43
318.495	39.42
318.709	72.19
318.922	43.52
319.136	12.8
319.349	57.86
319.563	51.71
319.776	41.47
319.99	64
320.203	4.61
320.417	4.61
320.63	10.75
320.843	84.48
321.057	41.47
321.27	51.71
321.483	12.8
321.697	86.53
321.91	53.76
322.124	6.66
322.337	84.48
322.55	88.57
322.763	16.9
322.977	154.11
323.19	49.66
323.403	86.53
323.617	70.14
323.83	70.14
324.043	133.63
324.256	72.19
324.469	64
324.683	100.86
324.896	35.33
325.109	-3.58
325.322	47.62
325.535	104.96
325.748	61.95
325.962	2.56
326.175	14.85
326.388	57.86
326.601	8.7
326.814	33.28
327.027	127.49
327.24	131.58
327.453	98.81
327.666	55.81
327.879	98.81
328.092	66.05
328.305	104.96
328.518	27.14
328.731	39.42
328.944	107.01
329.157	66.05
329.37	94.72
329.583	92.67
329.796	84.48
330.009	35.33
330.222	8.7
330.435	57.86
330.648	53.76
330.861	55.81
331.073	72.19
331.286	84.48
331.499	115.2
331.712	51.71
331.925	25.09
332.138	96.77
332.35	109.05
332.563	98.81
332.776	59.9
332.989	14.85
333.202	64
333.414	47.62
333.627	25.09
333.84	31.23
334.053	59.9
334.265	47.62
334.478	68.09
334.691	68.09
334.903	61.95
335.116	76.29
335.329	70.14
335.541	8.7
335.754	96.77
335.966	25.09
336.179	55.81
336.392	53.76
336.604	66.05
336.817	98.81
337.029	64
337.242	72.19
337.454	59.9
337.667	121.34
337.88	33.28
338.092	47.62
338.305	84.48
338.517	94.72
338.729	121.34
338.942	70.14
339.154	66.05
339.367	55.81
339.579	72.19
339.792	20.99
340.004	94.72
340.217	80.38
340.429	43.52
340.641	107.01
340.854	64
341.066	98.81
341.278	49.66
341.491	55.81
341.703	104.96
341.915	47.62
342.128	51.71
342.34	76.29
342.552	41.47
342.764	61.95
342.977	98.81
343.189	82.43
343.401	16.9
343.613	57.86
343.826	25.09
344.038	111.1
344.25	31.23
344.462	72.19
344.674	86.53
344.886	-30.21
345.099	74.24
345.311	18.94
345.523	33.28
345.735	59.9
345.947	70.14
346.159	53.76
346.371	115.2
346.583	51.71
346.795	100.86
347.007	88.57
347.219	41.47
347.431	20.99
347.643	43.52
347.855	23.04
348.067	139.77
348.279	74.24
348.491	145.92
348.703	74.24
348.915	41.47
349.127	55.81
349.339	162.3
349.551	29.18
349.763	78.33
349.975	37.38
350.187	104.96
350.399	92.67
350.61	104.96
350.822	90.62
351.034	-13.82
351.246	94.72
351.458	92.67
351.669	57.86
351.881	12.8
352.093	107.01
352.305	31.23
352.517	49.66
352.728	72.19
352.94	90.62
353.152	117.25
353.363	-32.26
353.575	100.86
353.787	76.29
353.999	119.29
354.21	76.29
354.422	25.09
354.633	41.47
354.845	74.24
355.057	68.09
355.268	70.14
355.48	47.62
355.692	76.29
355.903	76.29
356.115	68.09
356.326	25.09
356.538	70.14
356.749	57.86
356.961	129.53
357.172	14.85
357.384	64
357.595	53.76
357.807	107.01
358.018	51.71
358.23	43.52
358.441	84.48
358.653	82.43
358.864	41.47
359.075	78.33
359.287	82.43
359.498	53.76
359.709	45.57
359.921	162.3
360.132	80.38
360.344	88.57
360.555	41.47
360.766	104.96
360.977	31.23
361.189	23.04
361.4	123.39
361.611	125.44
361.823	139.77
362.034	98.81
362.245	35.33
362.456	70.14
362.667	35.33
362.879	82.43
363.09	53.76
363.301	100.86
363.512	82.43
363.723	-13.82
363.935	14.85
364.146	109.05
364.357	57.86
364.568	90.62
364.779	37.38
364.99	47.62
365.201	121.34
365.412	102.91
365.623	47.62
365.834	102.91
366.045	45.57
366.256	68.09
366.467	90.62
366.678	88.57
366.889	23.04
367.1	90.62
367.311	-1.54
367.522	76.29
367.733	33.28
367.944	45.57
368.155	18.94
368.366	72.19
368.577	14.85
368.788	129.53
368.999	35.33
369.209	88.57
369.42	55.81
369.631	123.39
369.842	98.81
370.053	57.86
370.264	129.53
370.474	78.33
370.685	96.77
370.896	55.81
371.107	74.24
371.317	158.21
371.528	47.62
371.739	72.19
371.95	96.77
372.16	76.29
372.371	96.77
372.582	57.86
372.792	119.29
373.003	90.62
373.214	59.9
373.424	96.77
373.635	113.15
373.846	158.21
374.056	20.99
374.267	33.28
374.477	139.77
374.688	55.81
374.898	96.77
375.109	133.63
375.319	115.2
375.53	92.67
375.74	74.24
375.951	68.09
376.161	64
376.372	98.81
376.582	76.29
376.793	64
377.003	23.04
377.214	74.24
377.424	51.71
377.635	59.9
377.845	-42.5
378.055	90.62
378.266	74.24
378.476	43.52
378.686	47.62
378.897	51.71
379.107	104.96
379.317	39.42
379.528	82.43
379.738	61.95
379.948	35.33
380.158	41.47
380.369	-50.69
380.579	82.43
380.789	98.81
380.999	41.47
381.21	68.09
381.42	53.76
381.63	84.48
381.84	80.38
382.05	18.94
382.261	33.28
382.471	121.34
382.681	43.52
382.891	113.15
383.101	131.58
383.311	37.38
383.521	92.67
383.731	115.2
383.941	39.42
384.151	113.15
384.361	78.33
384.571	66.05
384.781	96.77
384.991	84.48
385.201	2.56
385.411	20.99
385.621	131.58
385.831	53.76
386.041	117.25
386.251	61.95
386.461	68.09
386.671	18.94
386.881	98.81
387.091	88.57
387.301	129.53
387.511	47.62
387.72	92.67
387.93	27.14
388.14	96.77
388.35	104.96
388.56	141.82
388.769	117.25
388.979	33.28
389.189	76.29
389.399	80.38
389.609	96.77
389.818	96.77
390.028	102.91
390.238	184.83
390.447	59.9
390.657	133.63
390.867	117.25
391.076	61.95
391.286	96.77
391.496	66.05
391.705	66.05
391.915	129.53
392.125	102.91
392.334	64
392.544	133.63
392.753	98.81
392.963	-22.02
393.172	39.42
393.382	84.48
393.591	125.44
393.801	72.19
394.01	121.34
394.22	41.47
394.429	127.49
394.639	172.54
394.848	82.43
395.058	104.96
395.267	98.81
395.477	129.53
395.686	88.57
395.895	66.05
396.105	129.53
396.314	174.59
396.524	123.39
396.733	47.62
396.942	125.44
397.152	154.11
397.361	147.97
397.57	117.25
397.78	88.57
397.989	139.77
398.198	78.33
398.407	139.77
398.617	154.11
398.826	78.33
399.035	90.62
399.244	61.95
399.453	107.01
399.663	150.01
399.872	39.42
400.081	143.87
400.29	174.59
400.499	86.53
400.708	182.78
400.917	180.73
401.127	145.92
401.336	145.92
401.545	125.44
401.754	166.4
401.963	160.25
402.172	156.16
402.381	137.73
402.59	141.82
402.799	139.77
403.008	156.16
403.217	164.35
403.426	160.25
403.635	178.69
403.844	123.39
404.053	211.45
404.262	166.4
404.471	145.92
404.68	162.3
404.888	211.45
405.097	154.11
405.306	145.92
405.515	170.49
405.724	227.84
405.933	156.16
406.142	254.46
406.35	231.93
406.559	166.4
406.768	195.07
406.977	252.41
407.185	231.93
407.394	205.31
407.603	152.06
407.812	238.08
408.02	311.8
408.229	209.4
408.438	188.93
408.646	246.27
408.855	221.69
409.064	324.09
409.272	279.04
409.481	272.89
409.69	297.47
409.898	352.76
410.107	383.48
410.315	340.47
410.524	338.43
410.733	354.81
410.941	330.23
411.15	375.29
411.358	401.91
411.567	444.92
411.775	408.06
411.984	522.74
412.192	475.64
412.401	455.16
412.609	449.02
412.818	549.37
413.026	489.98
413.234	530.94
413.443	569.85
413.651	512.5
413.86	575.99
414.068	631.29
414.276	674.29
414.485	709.11
414.693	696.82
414.901	645.62
415.11	754.16
415.318	721.4
415.526	760.31
415.734	768.5
415.943	829.94
416.151	901.62
416.359	874.99
416.567	825.84
416.776	958.96
416.984	989.68
417.192	940.53
417.4	993.78
417.608	889.33
417.817	1094.13
418.025	1083.89
418.233	1108.46
418.441	1247.72
418.649	1167.85
418.857	1247.72
419.065	1247.72
419.273	1212.91
419.481	1417.71
419.689	1466.86
419.897	1483.24
420.105	1507.82
420.313	1513.96
420.521	1563.11
420.729	1546.73
420.937	1712.61
421.145	1767.91
421.353	1806.82
421.561	1956.32
421.769	1903.07
421.977	2009.57
422.185	1972.71
422.393	2136.54
422.601	2259.42
422.809	2243.04
423.017	2240.99
423.224	2327
423.432	2441.69
423.64	2570.71
423.848	2644.44
424.056	2552.28
424.263	2849.24
424.471	2824.66
424.679	2894.29
424.887	3029.46
425.094	3164.62
425.302	3160.53
425.51	3238.35
425.718	3254.73
425.925	3467.72
426.133	3467.72
426.341	3568.07
426.548	3926.47
426.756	3895.75
426.964	3848.65
427.171	4037.06
427.379	4315.58
427.586	4405.69
427.794	4352.45
428.001	4524.47
428.209	4751.8
428.417	4612.54
428.624	5077.43
428.832	4999.6
429.039	5196.21
429.247	5155.25
429.454	5667.24
429.662	5921.19
429.869	5509.55
430.076	5976.48
430.284	5661.1
430.491	5984.68
430.699	6320.54
430.906	6179.23
431.114	6560.16
431.321	6687.13
431.528	6756.76
431.736	7319.95
431.943	7575.95
432.15	7270.8
432.358	7440.78
432.565	7815.56
432.772	7819.66
432.979	8223.11
433.187	8382.85
433.394	8417.66
433.601	8995.19
433.808	8857.98
434.016	8659.32
434.223	9210.23
434.43	9660.78
434.637	9613.68
434.844	10238.31
435.052	10250.6
435.259	10248.55
435.466	10201.44
435.673	10242.4
435.88	11123.03
436.087	11348.31
436.294	11645.26
436.501	11293.01
436.708	11561.3
436.915	12017.99
437.122	12458.31
437.329	12407.11
437.537	12874.04
437.743	12992.83
437.95	13072.7
438.157	13357.36
438.364	14027.05
438.571	14145.83
438.778	14207.27
438.985	15380.76
439.192	14541.09
439.399	15468.82
439.606	14899.48
439.813	15933.71
440.02	16679.17
440.227	16261.38
440.433	16081.16
440.64	16636.16
440.847	16554.24
441.054	17377.53
441.261	18462.95
441.467	18276.59
441.674	18528.49
441.881	18903.26
442.088	19124.44
442.294	18655.46
442.501	19443.93
442.708	19648.72
442.914	20476.1
443.121	21416.12
443.328	20590.79
443.534	22122.67
443.741	21434.55
443.948	21360.83
444.154	22692.01
444.361	22681.77
444.568	22567.08
444.774	22608.04
444.981	23128.22
445.187	23779.48
445.394	24744.07
445.6	24303.76
445.807	26802.28
446.013	25659.51
446.22	26077.3
446.426	27295.84
446.633	27641.95
446.839	28239.95
447.046	27072.61
447.252	28741.71
447.459	28514.38
447.665	28559.44
447.871	29855.8
448.078	30699.56
448.284	29593.66
448.491	30310.45
448.697	31660.06
448.903	31887.39
449.11	32032.79
449.316	31633.44
449.522	32315.41
449.728	33134.6
449.935	33267.72
450.141	33200.13
450.347	34093.05
450.553	32659.47
450.76	33527.81
450.966	34322.42
451.172	33951.74
451.378	34871.28
451.584	34377.72
451.791	34908.14
451.997	35287.01
452.203	35418.08
452.409	35500
452.615	35153.9
452.821	33826.81
453.027	33572.86
453.233	35432.42
453.44	33830.91
453.646	34498.55
453.852	34359.28
454.058	34963.43
454.264	33742.85
454.47	34598.9
454.676	33931.26
454.882	35153.9
455.088	31987.74
455.294	32471.06
455.5	32991.24
455.705	33361.92
455.911	31729.69
456.117	31295.52
456.323	31053.86
456.529	29255.75
456.735	30507.05
456.941	29921.34
457.147	29374.53
457.352	28262.48
457.558	28190.8
457.764	28239.95
457.97	27611.23
458.176	27041.89
458.381	27142.24
458.587	25481.34
458.793	25860.21
458.999	24395.92
459.204	26210.42
459.41	25491.58
459.616	23861.4
459.821	23648.41
460.027	23937.17
460.233	23242.91
460.438	21971.12
460.644	22354.09
460.85	21461.18
461.055	21172.41
461.261	21199.04
461.466	19347.67
461.672	18925.79
461.878	20359.37
462.083	18643.17
462.289	18477.29
462.494	18610.4
462.7	17637.62
462.905	16984.32
463.111	17910
463.316	17830.13
463.522	17281.27
463.727	17234.17
463.932	17359.1
464.138	17135.87
464.343	17355
464.549	16705.79
464.754	17285.37
464.959	17201.4
465.165	17215.74
465.37	16503.04
465.575	16095.5
465.781	16736.51
465.986	16822.53
466.191	15974.67
466.397	15874.32
466.602	14965.02
466.807	15683.86
467.012	15698.19
467.218	15331.61
467.423	15356.18
467.628	15393.05
467.833	15925.52
468.038	15167.77
468.244	15071.51
468.449	15638.8
468.654	14977.31
468.859	15022.36
469.064	14907.68
469.269	14358.82
469.474	14608.67
469.679	14817.57
469.885	14438.69
470.09	14424.36
470.295	14395.68
470.5	14029.1
470.705	14235.94
470.91	14012.71
471.115	13820.21
471.32	13809.97
471.525	13662.51
471.73	13558.07
471.935	13377.84
472.139	13254.97
472.344	13383.99
472.549	13119.8
472.754	12861.76
472.959	12646.72
473.164	12392.77
473.369	12321.09
473.574	12558.66
473.778	12446.02
473.983	12550.46
474.188	12241.22
474.393	11839.82
474.598	11876.68
474.802	11774.28
475.007	11639.12
475.212	11690.32
475.417	11209.04
475.621	11264.34
475.826	11512.14
476.031	11002.2
476.235	10991.96
476.44	11131.22
476.645	10752.35
476.849	10791.26
477.054	10654.05
477.259	10615.13
477.463	10613.09
477.668	10324.32
477.872	10473.82
478.077	10131.81
478.282	10000.74
478.486	9814.38
478.691	9894.25
478.895	9632.11
479.1	9773.42
479.304	9826.67
479.509	9492.85
479.713	9806.19
479.918	9496.94
480.122	9329.01
480.326	9415.02
480.531	9484.66
480.735	9333.11
480.94	9146.74
481.144	9447.79
481.348	8997.24
481.553	9187.7
481.757	9036.15
481.961	9249.14
482.166	9357.68
482.37	9308.53
482.574	9128.31
482.778	9109.88
482.983	9011.57
483.187	9058.68
483.391	9017.72
483.595	9165.17
483.8	8855.93
484.004	8878.46
484.208	9181.56
484.412	9099.64
484.616	9087.35
484.821	8989.05
485.025	8995.19
485.229	9163.12
485.433	8995.19
485.637	9003.38
485.841	8937.85
486.045	9042.29
486.249	9107.83
486.453	9040.25
486.657	9116.02
486.861	8991.09
487.065	9044.34
487.269	9175.41
487.473	8745.34
487.677	9073.01
487.881	9251.19
488.085	9081.21
488.289	9073.01
488.493	8882.55
488.697	9132.4
488.901	9212.28
489.105	9005.43
489.309	9230.71
489.512	9314.67
489.716	9351.54
489.92	9066.87
490.124	9249.14
490.328	9175.41
490.531	9003.38
490.735	9361.78
490.939	9496.94
491.143	9255.28
491.346	9343.35
491.55	9392.5
491.754	9619.82
491.958	9527.66
492.161	9519.47
492.365	9675.12
492.569	9705.84
492.772	9535.85
492.976	9757.04
493.18	9750.89
493.383	9884.01
493.587	9912.68
493.79	10015.08
493.994	9804.14
494.197	10094.95
494.401	10086.76
494.605	10111.33
494.808	10400.1
495.012	10391.91
495.215	10385.76
495.419	10520.93
495.622	10594.65
495.825	10672.48
496.029	10565.98
496.232	10912.09
496.436	10623.33
496.639	11182.42
496.843	11061.59
497.046	11411.79
497.249	11409.75
497.453	11278.68
497.656	11628.88
497.859	11737.42
498.063	11655.5
498.266	11981.13
498.469	11831.63
498.673	12054.86
498.876	12239.17
499.079	12398.91
499.282	12357.96
499.485	12732.73
499.689	12499.27
499.892	12974.39
500.095	13201.72
500.298	13365.56
500.501	13220.15
500.705	13685.04
500.908	13934.89
501.111	13848.88
501.314	13867.31
501.517	14160.17
501.72	14393.64
501.923	14477.6
502.126	14866.72
502.329	14909.72
502.532	15046.94
502.735	15323.41
502.938	15276.31
503.141	15683.86
503.344	15825.17
503.547	15843.6
503.75	16062.73
503.953	16228.62
504.156	16478.47
504.359	16886.01
504.562	16615.68
504.765	17346.81
504.968	17334.52
505.17	17473.78
505.373	17834.22
505.576	18133.23
505.779	18249.96
505.982	18467.05
506.185	18741.47
506.387	18698.47
506.59	19030.24
506.793	19409.11
506.996	19546.33
507.198	19792.08
507.401	19871.95
507.604	20084.94
507.807	20373.71
508.009	20689.09
508.212	20943.04
508.415	20990.14
508.617	21588.15
508.82	21864.63
509.022	21590.2
509.225	22112.43
509.428	22282.41
509.63	22436.01
509.833	22747.3
510.035	23384.22
510.238	23322.78
510.44	23713.94
510.643	23937.17
510.845	24295.57
511.048	24195.21
511.25	24406.16
511.453	24582.28
511.655	25829.49
511.858	25327.74
512.06	25784.44
512.262	26173.55
512.465	26310.77
512.667	26597.48
512.87	26880.1
513.072	26970.21
513.274	27519.07
513.477	27637.85
513.679	28125.27
513.881	28524.62
514.084	29061.19
514.286	28606.54
514.488	29106.24
514.69	30183.48
514.893	29993.01
515.095	29982.77
515.297	30521.39
515.499	30599.21
515.701	30933.03
515.904	31483.94
516.106	31920.15
516.308	32397.33
516.51	32692.24
516.712	32661.52
516.914	33128.45
517.116	33730.56
517.318	33773.56
517.52	33945.59
517.722	34082.81
517.925	34656.24
518.127	35176.42
518.329	35424.23
518.531	35403.75
518.733	36128.73
518.935	36263.89
519.136	36591.57
519.338	37015.5
519.54	37367.75
519.742	38057.92
519.944	37879.74
520.146	38873.01
520.348	38545.33
520.55	38586.29
520.752	39212.97
520.954	39862.18
521.155	39565.22
521.357	40480.66
521.559	40560.53
521.761	40867.73
521.963	41115.53
522.164	41625.48
522.366	41707.4
522.568	42139.52
522.77	42125.18
522.971	42901.36
523.173	42831.73
523.375	43298.67
523.576	43220.84
523.778	43597.67
523.98	44087.14
524.181	44164.96
524.383	44199.77
524.584	45096.78
524.786	45123.41
524.988	45080.4
525.189	45389.64
525.391	45393.74
525.592	46253.89
525.794	46139.2
525.995	46040.9
526.197	46405.44
526.398	46450.49
526.6	47089.46
526.801	46901.04
527.003	47712.04
527.204	47607.59
527.406	47755.05
527.607	47574.83
527.808	48144.16
528.01	47335.21
528.211	47955.75
528.412	48566.04
528.614	48645.91
528.815	48703.26
529.016	49405.71
529.218	48627.48
529.419	48658.2
529.62	48631.58
529.822	49166.1
530.023	49317.65
530.224	48977.68
530.425	49102.61
530.626	49188.63
530.828	49227.54
531.029	50198.27
531.23	49514.25
531.431	49825.54
531.632	49647.37
531.833	50056.96
532.035	49907.46
532.236	49878.79
532.437	50392.83
532.638	49805.06
532.839	50507.52
533.04	50824.95
533.241	49948.42
533.442	50935.54
533.643	50341.63
533.844	50151.17
534.045	50583.29
534.246	50097.92
534.447	50673.4
534.648	50210.56
534.849	50704.12
535.05	50298.62
535.251	50415.36
535.451	50634.49
535.652	50392.83
535.853	50525.95
536.054	50996.98
536.255	50779.9
536.456	50335.49
536.657	51242.74
536.857	50566.91
537.058	50458.37
537.259	50855.67
537.46	51140.34
537.66	50581.24
537.861	51019.51
538.062	50919.16
538.263	50941.69
538.463	50761.47
538.664	50923.25
538.865	51425.01
539.065	50827
539.266	50646.78
539.466	50775.8
539.667	50087.68
539.868	50855.67
540.068	50925.3
540.269	50663.16
540.469	50898.68
540.67	50294.53
540.87	50904.82
541.071	50734.84
541.271	51207.92
541.472	50505.47
541.672	50272
541.873	50341.63
542.073	50013.96
542.274	51029.75
542.474	50546.43
542.675	50220.8
542.875	50818.81
543.075	50571
543.276	49917.7
543.476	50837.24
543.676	50462.46
543.877	50415.36
544.077	50261.76
544.277	50462.46
544.478	50812.66
544.678	50872.06
544.878	50212.61
545.078	50902.78
545.279	50110.21
545.479	50454.27
545.679	50081.54
545.879	50949.88
546.079	50468.61
546.28	50777.85
546.48	50413.31
546.68	50464.51
546.88	50501.37
547.08	50980.6
547.28	50284.29
547.48	49805.06
547.68	50392.83
547.88	50507.52
548.081	50220.8
548.281	50505.47
548.481	50630.4
548.681	50509.57
548.881	50441.98
549.081	50482.94
549.28	50427.65
549.48	50685.69
549.68	50593.53
549.88	50839.29
550.08	50323.2
550.28	50546.43
550.48	50390.78
550.68	50943.73
550.88	50390.78
551.08	50306.82
551.279	50571
551.479	50140.93
551.679	50245.38
551.879	49936.13
552.079	50222.85
552.278	50300.67
552.478	50263.81
552.678	50214.66
552.878	50337.54
553.077	49743.62
553.277	49661.71
553.477	50310.91
553.676	50065.16
553.876	50339.58
554.076	49946.37
554.275	49690.38
554.475	49577.74
554.674	50126.6
554.874	49547.02
555.074	49815.3
555.273	49735.43
555.473	49876.74
555.672	49532.68
555.872	49915.65
556.071	49923.85
556.271	49741.58
556.47	49245.97
556.67	49141.52
556.869	49917.7
557.068	49454.86
557.268	49385.23
557.467	49372.94
557.667	49344.27
557.866	48965.4
558.065	48895.77
558.265	48791.32
558.464	48887.57
558.663	49542.92
558.863	48187.17
559.062	49082.13
559.261	48822.04
559.461	49067.8
559.66	48402.21
559.859	48416.54
560.058	48197.41
560.258	48701.21
560.457	48293.66
560.656	48998.16
560.855	47996.71
561.054	48590.62
561.253	47759.14
561.453	48279.33
561.652	48062.24
561.851	48183.07
562.05	47918.88
562.249	47865.64
562.448	48035.62
562.647	48158.5
562.846	47869.73
563.045	48185.12
563.244	47228.72
563.443	47879.97
563.642	47089.46
563.841	47437.61
564.04	46892.85
564.239	47742.76
564.438	46991.15
564.637	47423.28
564.836	47546.15
565.035	46903.09
565.234	47281.97
565.432	46790.45
565.631	46952.24
565.83	47200.05
566.029	46505.79
566.228	46933.81
566.427	46270.27
566.625	46288.7
566.824	46384.96
567.023	46485.31
567.222	45940.55
567.42	46106.43
567.619	46071.62
567.818	46237.5
568.016	45768.52
568.215	46270.27
568.414	45948.74
568.612	46190.4
568.811	45825.86
569.01	45645.64
569.208	45354.83
569.407	45315.92
569.605	44775.25
569.804	45713.22
570.002	45008.72
570.201	45240.14
570.4	45297.48
570.598	44791.64
570.797	44363.61
570.995	44592.98
571.193	43964.26
571.392	44484.44
571.59	44267.36
571.789	44332.89
571.987	44031.84
572.186	43898.72
572.384	43794.28
572.582	44228.45
572.781	43894.63
572.979	43374.44
573.177	43632.49
573.376	43622.25
573.574	43446.12
573.772	43331.43
573.971	43102.06
574.169	43140.97
574.367	42710.9
574.565	42942.32
574.763	42592.12
574.962	42522.49
575.16	41856.9
575.358	42272.63
575.556	41858.95
575.754	42770.29
575.952	41883.52
576.151	42258.3
576.349	41379.72
576.547	41699.2
576.745	41748.35
576.943	41813.89
577.141	41336.71
577.339	41461.64
577.537	41021.33
577.735	41162.64
577.933	40624.02
578.131	40802.19
578.329	40914.83
578.527	40253.34
578.725	40400.79
578.923	40839.06
579.121	40144.8
579.319	40189.85
579.516	39997.34
579.714	40069.02
579.912	40148.89
580.11	39774.11
580.308	39763.87
580.506	39389.09
580.704	39219.11
580.901	39853.98
581.099	39620.52
581.297	39266.22
581.495	39284.65
581.692	39663.52
581.89	38969.26
582.088	38975.41
582.285	38864.81
582.483	38973.36
582.681	38784.94
582.878	38494.13
583.076	37898.17
583.274	38713.27
583.471	38125.5
583.669	37969.85
583.866	37930.94
584.064	38164.41
584.262	37461.96
584.459	37425.09
584.657	37648.32
584.854	37707.71
585.052	37226.44
585.249	37382.09
585.447	37191.62
585.644	36831.18
585.841	36943.82
586.039	37185.48
586.236	36968.4
586.434	36825.04
586.631	36630.48
586.828	36294.61
587.026	36272.09
587.223	36214.74
587.42	36083.67
587.618	35850.2
587.815	35454.95
588.012	35739.61
588.21	35846.11
588.407	36169.69
588.604	35373.03
588.801	35190.76
588.999	35100.65
589.196	35203.05
589.393	35297.25
589.59	34801.64
589.787	34635.76
589.984	34820.08
590.182	34387.96
590.379	34772.97
590.576	34678.77
590.773	34375.67
590.97	34103.29
591.167	34136.06
591.364	34076.66
591.561	34007.03
591.758	34033.66
591.955	33824.76
592.152	33755.13
592.349	33640.45
592.546	33513.47
592.743	33495.04
592.94	32981
593.137	33253.38
593.334	33015.82
593.531	33284.1
593.727	33167.37
593.924	32958.47
594.121	32682
594.318	32856.07
594.515	32219.16
594.712	32899.08
594.908	32313.36
595.105	32626.7
595.302	32241.68
595.499	32423.95
595.696	32102.42
595.892	31709.21
596.089	32243.73
596.286	32102.42
596.482	31961.11
596.679	31899.67
596.876	31698.97
597.072	31623.2
597.269	31352.87
597.466	31154.21
597.662	31426.59
597.859	31037.48
598.055	31299.62
598.252	30933.03
598.448	30832.68
598.645	30910.5
598.841	30322.74
599.038	30580.78
599.234	30748.71
599.431	29960.25
599.627	30447.66
599.824	30470.19
600.02	30138.42
600.217	30199.86
600.413	29843.51
600.609	29655.1
600.806	29974.58
601.002	30046.26
601.198	29943.86
601.395	29487.17
601.591	29202.5
601.787	29468.73
601.984	29136.96
602.18	29421.63
602.376	29335.62
602.572	28862.54
602.769	29007.94
602.965	28438.61
603.161	28966.98
603.357	28682.31
603.553	28420.17
603.75	28672.07
603.946	28584.01
604.142	28407.89
604.338	27975.77
604.534	28067.92
604.73	27682.91
604.926	28123.22
605.122	27904.09
605.318	27582.56
605.514	27498.59
605.71	27465.82
605.906	27445.34
606.102	27349.09
606.298	27457.63
606.494	27195.49
606.69	27316.32
606.886	27129.95
607.082	26736.74
607.278	27193.44
607.474	26482.8
607.67	26679.4
607.866	26359.92
608.062	26595.43
608.257	26306.67
608.453	26185.84
608.649	26275.95
608.845	26009.72
609.041	26392.69
609.236	25749.62
609.432	26069.11
609.628	25706.62
609.824	25841.78
610.019	25821.3
610.215	25557.11
610.411	25790.58
610.606	25389.18
610.802	25548.92
610.998	25598.07
611.193	25561.21
611.389	25436.28
611.584	25335.93
611.78	25307.26
611.976	25229.44
612.171	24909.96
612.367	25036.93
612.562	24526.99
612.758	24379.53
612.953	24758.41
613.149	24748.17
613.344	24584.33
613.539	24756.36
613.735	24408.2
613.93	24557.71
614.126	24230.03
614.321	24774.79
614.517	24113.3
614.712	24260.75
614.907	24135.82
615.103	24017.04
615.298	23715.99
615.493	24066.19
615.688	23572.63
615.884	24197.26
616.079	23568.54
616.274	23859.35
616.47	23814.29
616.665	23533.72
616.86	23263.39
617.055	23117.98
617.25	23310.49
617.445	23326.88
617.641	23134.37
617.836	23416.99
618.031	23009.44
618.226	23113.89
618.421	22730.92
618.616	23089.31
618.811	22702.25
619.006	22825.12
619.201	22450.35
619.396	22409.39
619.591	22110.38
619.786	22272.17
619.981	22061.23
620.176	22585.51
620.371	22059.18
620.566	22001.84
620.761	21975.22
620.956	21868.72
621.151	21682.36
621.346	21518.52
621.541	21360.83
621.735	21524.66
621.93	21113.02
622.125	21422.27
622.32	20725.96
622.515	21004.48
622.709	20580.55
622.904	20773.06
623.099	20467.91
623.294	20525.25
623.488	19912.91
623.683	20461.77
623.878	19974.35
624.072	20078.8
624.267	19921.1
624.462	19808.47
624.656	19681.49
624.851	19673.3
625.046	19609.81
625.24	19275.99
625.435	19292.38
625.629	19265.75
625.824	19106.01
626.018	18995.42
626.213	18649.32
626.407	18677.99
626.602	18526.44
626.796	18702.56
626.991	18522.34
627.185	18311.4
627.38	18090.22
627.574	18045.16
627.768	17916.14
627.963	18204.91
628.157	17869.04
628.352	17926.38
628.546	17639.67
628.74	17770.74
628.935	17395.96
629.129	17197.31
629.323	17205.5
629.517	17268.98
629.712	17293.56
629.906	16972.03
630.1	16722.18
630.294	16810.24
630.489	16634.11
630.683	16906.49
630.877	16537.86
631.071	16412.93
631.265	16537.86
631.459	16437.51
631.653	16267.53
631.848	16453.89
632.042	16265.48
632.236	16154.89
632.43	15900.94
632.624	16206.09
632.818	15765.78
633.012	15612.18
633.206	15628.56
633.4	15778.06
633.594	15509.78
633.788	15573.27
633.982	15517.97
634.176	15483.16
634.369	15401.24
634.563	14989.6
634.757	15194.39
634.951	15171.86
635.145	14981.4
635.339	15032.6
635.533	14719.26
635.726	14795.04
635.92	14518.56
636.114	14532.9
636.308	14610.72
636.501	14450.98
636.695	14461.22
636.889	14516.51
637.083	14233.89
637.276	14031.15
637.47	13842.73
637.664	13795.63
637.857	14041.39
638.051	13803.82
638.244	13891.88
638.438	13771.05
638.632	13642.03
638.825	13334.84
639.019	13277.49
639.212	13336.88
639.406	13523.25
639.599	13232.44
639.793	13234.49
639.986	13021.5
640.18	12960.06
640.373	12972.35
640.567	12747.07
640.76	12671.29
640.954	12642.62
641.147	12448.07
641.34	12433.73
641.534	12656.96
641.727	12392.77
641.92	12458.31
642.114	12374.34
642.307	11917.64
642.5	12210.5
642.694	12179.78
642.887	11952.46
643.08	12187.97
643.273	12089.67
643.467	11864.39
643.66	11876.68
643.853	11573.58
644.046	11542.86
644.239	11632.97
644.432	11704.65
644.626	11512.14
644.819	11166.04
645.012	11473.23
645.205	11237.72
645.398	11223.38
645.591	11200.85
645.784	11178.33
645.977	11129.17
646.17	10922.33
646.363	10885.47
646.556	10846.55
646.749	10684.76
646.942	10856.79
647.135	10723.68
647.328	10621.28
647.521	10666.33
647.714	10172.77
647.907	10385.76
648.099	10328.42
648.292	10154.34
648.485	10203.49
648.678	9972.07
648.871	9959.78
649.064	10039.65
649.256	10058.09
649.449	10086.76
649.642	9871.72
649.835	9562.48
650.027	9845.1
650.22	9580.91
650.413	9507.18
650.605	9451.89
650.798	9488.75
650.991	9206.13
651.183	9527.66
651.376	9177.46
651.568	9136.5
651.761	9034.1
651.954	9130.36
652.146	8943.99
652.339	8921.46
652.531	8962.42
652.724	8886.65
652.916	8823.16
653.109	8767.87
653.301	8540.54
653.494	8681.85
653.686	8593.79
653.879	8491.39
654.071	8290.69
654.263	8415.62
654.456	8405.38
654.648	8440.19
654.84	8243.59
655.033	8194.43
655.225	8120.71
655.417	8249.73
655.61	8133
655.802	8071.56
655.994	8092.04
656.186	7958.92
656.379	7872.9
656.571	7950.73
656.763	7666.06
656.955	7684.49
657.148	7688.59
657.34	7645.58
657.532	7547.28
657.724	7528.85
657.916	7438.73
658.108	7412.11
658.3	7469.45
658.492	7301.52
658.684	7035.28
658.876	7229.84
659.068	7215.51
659.26	7223.7
659.452	7285.14
659.644	7115.16
659.836	6863.26
660.028	6820.25
660.22	6867.35
660.412	6769.05
660.604	6840.73
660.796	6597.02
660.988	6525.34
661.18	6603.16
661.372	6480.29
661.563	6769.05
661.755	6535.58
661.947	6560.16
662.139	6351.26
662.331	6406.56
662.522	6381.98
662.714	6279.58
662.906	6177.19
663.097	6095.27
663.289	6119.84
663.481	6115.75
663.673	6085.03
663.864	5996.96
664.056	5884.33
664.247	5992.87
664.439	5929.38
664.631	5900.71
664.822	6005.16
665.014	5751.21
665.205	5833.13
665.397	5792.17
665.588	5714.34
665.78	5693.87
665.971	5583.27
666.163	5491.12
666.354	5446.06
666.546	5484.97
666.737	5505.45
666.929	5398.96
667.12	5378.48
667.311	5601.71
667.503	5194.16
667.694	5378.48
667.885	5218.74
668.077	5243.31
668.268	5337.52
668.459	5247.41
668.651	5185.97
668.842	5147.06
669.033	5224.88
669.224	5145.01
669.416	5061.04
669.607	4958.64
669.798	5063.09
669.989	4925.88
670.18	4972.98
670.371	4970.93
670.563	4905.4
670.754	4856.25
670.945	4807.09
671.136	4731.32
671.327	4702.65
671.518	4829.62
671.709	4723.13
671.9	4686.26
672.091	4686.26
672.282	4633.02
672.473	4641.21
672.664	4645.31
672.855	4751.8
673.046	4626.87
673.237	4678.07
673.428	4479.42
673.619	4397.5
673.809	4596.15
674	4381.12
674.191	4557.24
674.382	4430.27
674.573	4301.25
674.764	4291.01
674.954	4391.36
675.145	4184.51
675.336	4385.21
675.527	4385.21
675.717	4311.49
675.908	4215.23
676.099	4434.36
676.289	4231.62
676.48	4276.67
676.671	4217.28
676.861	4342.21
677.052	4245.95
677.243	4217.28
677.433	3987.91
677.624	4071.87
677.814	4037.06
678.005	4049.35
678.195	4135.36
678.386	4071.87
678.576	4092.35
678.767	3908.04
678.957	3953.09
679.148	4000.19
679.338	4037.06
679.529	3889.6
679.719	4088.26
679.909	4039.11
680.1	3973.57
680.29	3809.73
680.481	3867.08
680.671	3949
680.861	3885.51
681.052	3885.51
681.242	3832.26
681.432	3830.21
681.622	3754.44
681.813	3774.92
682.003	3723.72
682.193	3668.42
682.383	3754.44
682.573	3746.25
682.764	3723.72
682.954	3764.68
683.144	3660.23
683.334	3795.4
683.524	3684.81
683.714	3570.12
683.904	3647.94
684.094	3742.15
684.284	3609.03
684.474	3619.27
684.664	3594.7
684.854	3666.38
685.044	3570.12
685.234	3680.71
685.424	3629.51
685.614	3643.85
685.804	3557.83
685.994	3471.82
686.184	3680.71
686.374	3520.97
686.564	3389.9
686.753	3570.12
686.943	3463.63
687.133	3570.12
687.323	3643.85
687.513	3545.55
687.702	3387.85
687.892	3514.83
688.082	3461.58
688.272	3547.59
688.461	3520.97
688.651	3486.15
688.841	3504.59
689.03	3467.72
689.22	3400.14
689.41	3467.72
689.599	3531.21
689.789	3574.22
689.979	3482.06
690.168	3459.53
690.358	3424.72
690.547	3473.87
690.737	3367.37
690.926	3371.47
691.116	3303.89
691.305	3314.13
691.495	3428.81
691.684	3410.38
691.874	3299.79
692.063	3416.52
692.252	3430.86
692.442	3416.52
692.631	3396.04
692.82	3451.34
693.01	3463.63
693.199	3465.68
693.388	3262.93
693.578	3416.52
693.767	3410.38
693.956	3463.63
694.146	3350.99
694.335	3365.32
694.524	3455.44
694.713	3224.01
694.902	3252.69
695.092	3408.33
695.281	3363.28
695.47	3244.49
695.659	3232.21
695.848	3375.56
696.037	3336.65
696.226	3367.37
696.415	3348.94
696.604	3287.5
696.793	3344.84
696.982	3367.37
697.171	3437
697.36	3269.07
697.549	3232.21
697.738	3287.5
697.927	3267.02
698.116	3195.34
698.305	3303.89
698.494	3250.64
698.683	3269.07
698.872	3187.15
699.061	3226.06
699.25	3293.65
699.438	3244.49
699.627	3344.84
699.816	3217.87
700.005	3162.58
700.193	3172.82
700.382	3252.69
700.571	3152.34
700.76	3105.23
700.948	3199.44
701.137	3176.91
701.326	3209.68
701.514	3135.95
701.703	3191.25
701.892	3006.93
702.08	3142.1
702.269	3183.06
702.457	3105.23
702.646	3178.96
702.834	3027.41
703.023	3064.27
703.212	3006.93
703.4	3092.94
703.589	2906.58
703.777	2951.63
703.965	3021.27
704.154	3105.23
704.342	3021.27
704.531	2894.29
704.719	2994.64
704.907	3029.46
705.096	2941.4
705.284	2978.26
705.472	2906.58
705.661	2955.73
705.849	2984.4
706.037	2791.89
706.226	2984.4
706.414	3064.27
706.602	2859.48
706.79	2791.89
706.979	2800.09
707.167	2863.57
707.355	2816.47
707.543	2875.86
707.731	2886.1
707.919	2783.7
708.107	2849.24
708.296	2746.84
708.484	2669.02
708.672	2865.62
708.86	2738.65
709.048	2738.65
709.236	2742.74
709.424	2857.43
709.612	2783.7
709.8	2748.89
709.988	2777.56
710.176	2621.91
710.364	2732.5
710.551	2562.52
710.739	2730.45
710.927	2697.69
711.115	2603.48
711.303	2662.87
711.491	2632.15
711.679	2558.42
711.866	2488.79
712.054	2638.3
712.242	2476.51
712.43	2660.82
712.617	2464.22
712.805	2585.05
712.993	2546.14
713.181	2415.07
713.368	2521.56
713.556	2531.8
713.744	2521.56
713.931	2413.02
714.119	2365.92
714.306	2406.88
714.494	2302.43
714.682	2337.24
714.869	2259.42
715.057	2419.16
715.244	2312.67
715.432	2456.03
715.619	2363.87
715.807	2357.72
715.994	2341.34
716.182	2343.39
716.369	2212.32
716.556	2279.9
716.744	2322.91
716.931	2304.48
717.119	2218.46
717.306	2234.85
717.493	2226.65
717.681	2183.65
717.868	2243.04
718.055	2179.55
718.242	2114.02
718.43	2165.21
718.617	2236.89
718.804	2095.58
718.991	2089.44
719.179	2157.02
719.366	2081.25
719.553	2202.08
719.74	2040.29
719.927	2081.25
720.114	2105.82
720.301	2005.47
720.488	2038.24
720.676	2032.1
720.863	2177.5
721.05	2025.95
721.237	1907.17
721.424	1923.55
721.611	1909.22
721.798	1987.04
721.985	2079.2
722.172	1909.22
722.358	1941.99
722.545	1972.71
722.732	1878.5
722.919	1866.21
723.106	1870.31
723.293	1726.95
723.48	1776.1
723.667	1843.68
723.853	1892.84
724.04	1817.06
724.227	1710.57
724.414	1855.97
724.6	1759.72
724.787	1763.81
724.974	1864.16
725.161	1735.14
725.347	1839.59
725.534	1874.4
725.72	1882.6
725.907	1806.82
726.094	1761.77
726.28	1679.85
726.467	1706.47
726.653	1763.81
726.84	1706.47
727.027	1802.72
727.213	1714.66
727.4	1688.04
727.586	1724.9
727.773	1632.74
727.959	1696.23
728.145	1622.5
728.332	1696.23
728.518	1655.27
728.705	1597.93
728.891	1735.14
729.077	1632.74
729.264	1731.05
729.45	1673.7
729.636	1632.74
729.823	1653.22
730.009	1542.63
730.195	1595.88
730.382	1661.41
730.568	1604.07
730.754	1632.74
730.94	1522.15
731.126	1602.02
731.313	1571.3
731.499	1448.43
731.685	1374.7
731.871	1466.86
732.057	1573.35
732.243	1556.97
732.429	1481.19
732.615	1546.73
732.801	1534.44
732.987	1386.99
733.173	1509.86
733.359	1509.86
733.545	1507.82
733.731	1403.37
733.917	1511.91
734.103	1411.56
734.289	1444.33
734.475	1516.01
734.661	1509.86
734.847	1436.14
735.033	1368.56
735.219	1456.62
735.404	1356.27
735.59	1382.89
735.776	1378.79
735.962	1436.14
736.148	1313.26
736.333	1423.85
736.519	1386.99
736.705	1411.56
736.89	1399.27
737.076	1341.93
737.262	1333.74
737.447	1350.12
737.633	1253.87
737.819	1284.59
738.004	1294.83
738.19	1217.01
738.375	1309.16
738.561	1382.89
738.747	1286.64
738.932	1337.84
739.118	1274.35
739.303	1276.4
739.489	1292.78
739.674	1227.25
739.859	1272.3
740.045	1327.6
740.23	1221.1
740.416	1210.86
740.601	1249.77
740.786	1161.71
740.972	1169.9
741.157	1288.68
741.342	1180.14
741.528	1192.43
741.713	1210.86
741.898	1276.4
742.084	1196.53
742.269	1202.67
742.454	1161.71
742.639	1141.23
742.824	1198.57
743.01	1092.08
743.195	1057.26
743.38	1155.57
743.565	1194.48
743.75	1157.61
743.935	1153.52
744.12	1100.27
744.305	1120.75
744.49	1090.03
744.675	1063.41
744.86	1079.79
745.045	1206.77
745.23	1087.98
745.415	1190.38
745.6	1047.02
745.785	1081.84
745.97	1049.07
746.155	1071.6
746.34	1116.65
746.525	1040.88
746.71	954.87
746.895	985.58
747.079	985.58
747.264	983.54
747.449	973.3
747.634	1022.45
747.819	1059.31
748.003	1032.69
748.188	934.39
748.373	924.15
748.557	922.1
748.742	920.05
748.927	977.39
749.111	983.54
749.296	1024.5
749.481	854.51
749.665	987.63
749.85	897.52
750.034	889.33
750.219	952.82
750.404	891.38
750.588	948.72
750.773	881.14
750.957	952.82
751.141	879.09
751.326	948.72
751.51	860.66
751.695	823.8
751.879	801.27
752.064	897.52
752.248	887.28
752.432	817.65
752.617	791.03
752.801	899.57
752.985	795.12
753.17	807.41
753.354	786.93
753.538	852.47
753.722	821.75
753.907	801.27
754.091	831.99
754.275	797.17
754.459	750.07
754.643	793.08
754.828	762.36
755.012	756.21
755.196	760.31
755.38	768.5
755.564	705.01
755.748	731.64
755.932	793.08
756.116	711.16
756.3	705.01
756.484	723.44
756.668	745.97
756.852	764.4
757.036	778.74
757.22	762.36
757.404	702.97
757.588	686.58
757.772	719.35
757.956	752.12
758.14	690.68
758.323	664.05
758.507	743.92
758.691	698.87
758.875	629.24
759.059	694.77
759.242	670.2
759.426	643.57
759.61	684.53
759.794	645.62
759.977	668.15
760.161	653.81
760.345	625.14
760.528	641.53
760.712	639.48
760.895	672.25
761.079	647.67
761.263	578.04
761.446	567.8
761.63	588.28
761.813	655.86
761.997	557.56
762.18	555.51
762.364	614.9
762.547	604.66
762.731	625.14
762.914	621.05
763.098	614.9
763.281	621.05
763.464	586.23
763.648	584.18
763.831	643.57
764.015	532.98
764.198	614.9
764.381	559.61
764.564	565.75
764.748	575.99
764.931	508.41
765.114	481.78
765.297	573.94
765.481	578.04
765.664	612.85
765.847	545.27
766.03	633.33
766.213	567.8
766.397	516.6
766.58	565.75
766.763	530.94
766.946	571.9
767.129	518.65
767.312	514.55
767.495	596.47
767.678	608.76
767.861	541.18
768.044	502.26
768.227	553.46
768.41	532.98
768.593	547.32
768.776	557.56
768.959	543.22
769.142	465.4
769.324	598.52
769.507	500.22
769.69	578.04
769.873	463.35
770.056	532.98
770.239	604.66
770.421	606.71
770.604	430.59
770.787	573.94
770.97	575.99
771.152	500.22
771.335	442.87
771.518	537.08
771.7	518.65
771.883	467.45
772.066	483.83
772.248	475.64
772.431	549.37
772.613	477.69
772.796	496.12
772.978	449.02
773.161	532.98
773.343	510.46
773.526	471.54
773.708	475.64
773.891	453.11
774.073	582.14
774.256	453.11
774.438	483.83
774.621	502.26
774.803	457.21
774.985	496.12
775.168	434.68
775.35	391.67
775.532	489.98
775.715	426.49
775.897	494.07
776.079	424.44
776.261	553.46
776.444	469.5
776.626	512.5
776.808	422.39
776.99	428.54
777.173	399.87
777.355	442.87
777.537	459.26
777.719	477.69
777.901	436.73
778.083	346.62
778.265	426.49
778.447	436.73
778.629	397.82
778.811	412.15
778.993	399.87
779.175	293.37
779.357	449.02
779.539	391.67
779.721	408.06
779.903	367.1
780.085	346.62
780.267	373.24
780.449	348.67
780.631	354.81
780.812	377.34
780.994	412.15
781.176	391.67
781.358	342.52
781.54	326.14
781.721	338.43
781.903	358.91
782.085	401.91
782.267	383.48
782.448	426.49
782.63	383.48
782.812	401.91
782.993	391.67
783.175	281.08
783.357	369.15
783.538	268.8
783.72	299.52
783.901	254.46
784.083	313.85
784.264	322.04
784.446	301.56
784.627	336.38
784.809	334.33
784.99	256.51
785.172	246.27
785.353	303.61
785.535	295.42
785.716	350.71
785.897	203.26
786.079	238.08
786.26	260.6
786.441	322.04
786.623	254.46
786.804	272.89
786.985	303.61
787.167	244.22
787.348	367.1
787.529	315.9
787.71	340.47
787.891	276.99
788.073	217.6
788.254	295.42
788.435	336.38
788.616	231.93
788.797	233.98
788.978	297.47
789.159	279.04
789.34	301.56
789.522	260.6
789.703	283.13
789.884	219.64
790.065	354.81
790.246	268.8
790.427	309.76
790.607	281.08
790.788	311.8
790.969	233.98
791.15	260.6
791.331	219.64
791.512	252.41
791.693	244.22
791.874	320
792.054	268.8
792.235	229.88
792.416	199.16
792.597	203.26
792.778	215.55
792.958	229.88
793.139	293.37
793.32	180.73
793.5	287.23
793.681	244.22
793.862	231.93
794.042	158.21
794.223	274.94
794.404	145.92
794.584	176.64
794.765	252.41
794.945	197.12
795.126	223.74
795.306	315.9
795.487	229.88
795.667	199.16
795.848	195.07
796.028	127.49
796.209	207.36
796.389	186.88
796.57	260.6
796.75	231.93
796.93	211.45
797.111	197.12
797.291	156.16
797.471	227.84
797.652	252.41
797.832	154.11
798.012	213.5
798.192	174.59
798.373	143.87
798.553	190.97
798.733	172.54
798.913	176.64
799.093	193.02
799.274	225.79
799.454	209.4
799.634	193.02
799.814	254.46
799.994	197.12
800.174	190.97
800.354	193.02
800.534	225.79
800.714	197.12
800.894	129.53
801.074	190.97
801.254	219.64
801.434	227.84
801.614	256.51
801.794	117.25
801.974	463.35
802.154	139.77
802.334	229.88
802.514	186.88
802.693	178.69
802.873	150.01
803.053	219.64
803.233	143.87
803.413	182.78
803.592	162.3
803.772	219.64
803.952	178.69
804.131	166.4
804.311	96.77
804.491	219.64
804.67	156.16
804.85	113.15
805.03	178.69
805.209	162.3
805.389	55.81
805.568	131.58
805.748	258.56
805.928	147.97
806.107	115.2
806.287	121.34
806.466	123.39
806.646	170.49
806.825	172.54
807.004	188.93
807.184	166.4
807.363	25.09
807.543	119.29
807.722	166.4
807.901	174.59
808.081	145.92
808.26	107.01
808.439	102.91
808.619	76.29
808.798	137.73
808.977	125.44
809.156	133.63
809.336	129.53
809.515	182.78
809.694	84.48
809.873	121.34
810.052	109.05
810.231	180.73
810.411	98.81
810.59	172.54
810.769	98.81
810.948	150.01
811.127	143.87
811.306	147.97
811.485	59.9
811.664	102.91
811.843	160.25
812.022	139.77
812.201	104.96
812.38	129.53
812.559	145.92
812.737	152.06
812.916	150.01
813.095	131.58
813.274	133.63
813.453	94.72
813.632	102.91
813.811	107.01
813.989	113.15
814.168	123.39
814.347	150.01
814.526	125.44
814.704	35.33
814.883	156.16
815.062	109.05
815.24	102.91
815.419	68.09
815.598	190.97
815.776	129.53
815.955	86.53
816.133	80.38
816.312	88.57
816.49	68.09
816.669	107.01
816.847	59.9
817.026	178.69
817.204	37.38
817.383	143.87
817.561	55.81
817.74	55.81
817.918	170.49
818.097	90.62
818.275	64
818.453	143.87
818.632	104.96
818.81	57.86
818.988	158.21
819.167	154.11
819.345	250.36
819.523	188.93
819.701	55.81
819.879	47.62
820.058	100.86
820.236	133.63
820.414	78.33
820.592	123.39
820.77	107.01
820.948	86.53
821.127	115.2
821.305	92.67
821.483	80.38
821.661	193.02
821.839	51.71
822.017	193.02
822.195	39.42
822.373	92.67
822.551	18.94
822.729	72.19
822.907	96.77
823.085	94.72
823.262	100.86
823.44	94.72
823.618	20.99
823.796	141.82
823.974	76.29
824.152	55.81
824.329	51.71
824.507	92.67
824.685	80.38
824.863	-9.73
825.04	57.86
825.218	102.91
825.396	70.14
825.574	90.62
825.751	119.29
825.929	64
826.107	49.66
826.284	35.33
826.462	59.9
826.639	111.1
826.817	31.23
826.994	45.57
827.172	66.05
827.349	80.38
827.527	61.95
827.704	41.47
827.882	55.81
828.059	59.9
828.237	43.52
828.414	152.06
828.591	27.14
828.769	41.47
828.946	25.09
829.124	72.19
829.301	113.15
829.478	68.09
829.655	59.9
829.833	80.38
830.01	90.62
830.187	123.39
830.364	76.29
830.542	86.53
830.719	61.95
830.896	104.96
831.073	74.24
831.25	135.68
831.427	133.63
831.604	88.57
831.782	94.72
831.959	137.73
832.136	35.33
832.313	104.96
832.49	74.24
832.667	80.38
832.844	107.01
833.021	45.57
833.198	45.57
833.374	51.71
833.551	78.33
833.728	104.96
833.905	72.19
834.082	78.33
834.259	94.72
834.436	113.15
834.612	4.61
834.789	145.92
834.966	49.66
835.143	37.38
835.319	90.62
835.496	74.24
835.673	55.81
835.85	119.29
836.026	68.09
836.203	100.86
836.38	107.01
836.556	80.38
836.733	107.01
836.909	100.86
837.086	35.33
837.262	27.14
837.439	29.18
837.616	88.57
837.792	39.42
837.968	35.33
838.145	6.66
838.321	68.09
838.498	4.61
838.674	33.28
838.851	111.1
839.027	35.33
839.203	8.7
839.38	49.66
839.556	68.09
839.732	74.24
839.909	113.15
840.085	96.77
840.261	98.81
840.437	131.58
840.614	25.09
840.79	86.53
840.966	98.81
841.142	-24.06
841.318	57.86
841.494	88.57
841.671	137.73
841.847	4.61
842.023	53.76
842.199	127.49
842.375	70.14
842.551	25.09
842.727	43.52
842.903	57.86
843.079	31.23
843.255	152.06
843.431	70.14
843.607	6.66
843.783	-15.87
843.959	23.04
844.134	41.47
844.31	31.23
844.486	64
844.662	96.77
844.838	20.99
845.013	111.1
845.189	68.09
845.365	121.34
845.541	14.85
845.716	23.04
845.892	96.77
846.068	43.52
846.244	78.33
846.419	43.52
846.595	47.62
846.77	-40.45
846.946	72.19
847.122	33.28
847.297	45.57
847.473	23.04
847.648	27.14
847.824	96.77
847.999	49.66
848.175	39.42
848.35	53.76
848.526	72.19
848.701	82.43
848.876	76.29
849.052	70.14
849.227	2.56
849.403	96.77
849.578	6.66
849.753	104.96
849.929	41.47
850.104	-15.87
850.279	86.53
850.454	4.61
850.63	37.38
850.805	23.04
850.98	47.62
851.155	25.09
851.33	59.9
851.505	-79.36
851.681	25.09
851.856	72.19
852.031	109.05
852.206	68.09
852.381	61.95
852.556	35.33
852.731	51.71
852.906	0.51
853.081	16.9
853.256	43.52
853.431	-24.06
853.606	98.81
853.781	96.77
853.956	86.53
854.131	14.85
854.305	35.33
854.48	39.42
854.655	-11.78
854.83	37.38
855.005	33.28
855.18	61.95
855.354	0.51
855.529	88.57
855.704	76.29
855.879	72.19
856.053	76.29
856.228	6.66
856.403	76.29
856.577	-24.06
856.752	37.38
856.926	18.94
857.101	64
857.276	25.09
857.45	66.05
857.625	53.76
857.799	-15.87
857.974	-5.63
858.148	47.62
858.323	49.66
858.497	51.71
858.672	14.85
858.846	31.23
859.02	74.24
859.195	39.42
859.369	23.04
859.543	59.9
859.718	72.19
859.892	-11.78
860.066	66.05
860.241	10.75
860.415	49.66
860.589	-46.59
860.763	47.62
860.938	2.56
861.112	72.19
861.286	-28.16
861.46	-7.68
861.634	55.81
861.808	29.18
861.982	25.09
862.157	64
862.331	53.76
862.505	41.47
862.679	64
862.853	-34.3
863.027	55.81
863.201	57.86
863.375	76.29
863.549	14.85
863.722	64
863.896	51.71
864.07	2.56
864.244	31.23
864.418	23.04
864.592	-44.54
864.766	20.99
864.939	72.19
865.113	41.47
865.287	55.81
865.461	-46.59
865.634	61.95
865.808	12.8
865.982	23.04
866.156	-1.54
866.329	23.04
866.503	18.94
866.676	68.09
866.85	-9.73
867.024	88.57
867.197	10.75
867.371	-34.3
867.544	4.61
867.718	2.56
867.891	104.96
868.065	43.52
868.238	49.66
868.412	18.94
868.585	45.57
868.759	12.8
868.932	37.38
869.105	18.94
869.279	49.66
869.452	49.66
869.625	41.47
869.799	82.43
869.972	12.8
870.145	41.47
870.319	31.23
870.492	-13.82
870.665	-38.4
870.838	-17.92
871.011	-30.21
871.185	61.95
871.358	-17.92
871.531	47.62
871.704	59.9
871.877	61.95
872.05	12.8
872.223	6.66
872.396	72.19
872.569	-13.82
872.742	-48.64
872.915	-1.54
873.088	100.86
873.261	41.47
873.434	0.51
873.607	-7.68
873.78	66.05
873.953	64
874.126	29.18
874.299	57.86
874.471	41.47
874.644	6.66
874.817	25.09
874.99	29.18
875.163	-46.59
875.335	0.51
875.508	23.04
875.681	84.48
875.853	-3.58
876.026	80.38
876.199	27.14
876.371	33.28
876.544	18.94
876.717	10.75
876.889	-50.69
877.062	64
877.234	6.66
877.407	41.47
877.579	55.81
877.752	12.8
877.924	55.81
878.097	55.81
878.269	-1.54
878.442	59.9
878.614	41.47
878.786	74.24
878.959	-9.73
879.131	6.66
879.303	-17.92
879.476	47.62
879.648	59.9
879.82	51.71
879.993	-34.3
880.165	84.48
880.337	-13.82
880.509	-5.63
880.681	-9.73
880.854	66.05
881.026	61.95
881.198	-17.92
881.37	25.09
881.542	12.8
881.714	29.18
881.886	-56.83
882.058	31.23
882.23	59.9
882.402	6.66
882.574	64
882.746	88.57
882.918	131.58
883.09	47.62
883.262	-32.26
883.434	-17.92
883.606	35.33
883.778	25.09
883.95	92.67
884.122	84.48
884.293	111.1
884.465	49.66
884.637	39.42
884.809	88.57
884.98	35.33
885.152	2.56
885.324	47.62
885.496	18.94
885.667	31.23
885.839	29.18
886.011	51.71
886.182	18.94
886.354	45.57
886.525	20.99
886.697	88.57
886.869	31.23
887.04	-3.58
887.212	90.62
887.383	76.29
887.555	82.43
887.726	-1.54
887.897	20.99
888.069	-9.73
888.24	23.04
888.412	74.24
888.583	10.75
888.754	43.52
888.926	84.48
889.097	-9.73
889.268	4.61
889.44	-24.06
889.611	82.43
889.782	0.51
889.953	51.71
890.125	47.62
890.296	39.42
890.467	64
890.638	31.23
890.809	23.04
890.98	141.82
891.151	98.81
891.323	84.48
891.494	47.62
891.665	68.09
891.836	10.75
892.007	53.76
892.178	-17.92
892.349	64
892.52	51.71
892.691	33.28
892.862	74.24
893.032	14.85
893.203	16.9
893.374	57.86
893.545	72.19
893.716	41.47
893.887	-7.68
894.057	39.42
894.228	64
894.399	74.24
894.57	88.57
894.74	-34.3
894.911	10.75
895.082	-5.63
895.253	57.86
895.423	-1.54
895.594	29.18
895.764	-1.54
895.935	-5.63
896.106	96.77
896.276	31.23
896.447	2.56
896.617	70.14
896.788	-26.11
896.958	25.09
897.129	-24.06
897.299	-81.41
897.47	-3.58
897.64	-1.54
897.81	88.57
897.981	29.18
898.151	23.04
898.322	39.42
898.492	16.9
898.662	2.56
898.832	104.96
899.003	-17.92
899.173	14.85
899.343	12.8
899.513	23.04
