Data from USB4F104151__160__13-58-42-353.txt Node

Date: Thu Mar 13 13:58:42 EDT 2025
User: louis
Spectrometer: USB4F10415
Trigger mode: 4
Integration Time (sec): 1.000000E-2
Scans to average: 1
Electric dark correction enabled: true
Nonlinearity correction enabled: false
Boxcar width: 0
XAxis mode: Wavelengths
Number of Pixels in Spectrum: 3648
>>>>>Begin Spectral Data<<<<<
178.204	-14.17
178.424	-14.17
178.644	-14.17
178.864	-55.12
179.084	-24.4
179.304	8.36
179.524	-14.17
179.744	-55.12
179.964	37.03
180.184	-28.5
180.404	55.47
180.624	12.46
180.844	-12.12
181.064	59.56
181.283	-28.5
181.503	-38.74
181.723	4.27
181.943	-42.84
182.163	57.51
182.383	-20.31
182.602	57.51
182.822	8.36
183.042	-12.12
183.262	37.03
183.482	16.55
183.701	4.27
183.921	0.17
184.141	6.31
184.361	61.61
184.58	6.31
184.8	45.23
185.02	-26.45
185.239	-1.88
185.459	12.46
185.679	-26.45
185.898	6.31
186.118	4.27
186.338	-8.02
186.557	28.84
186.777	-63.32
186.997	16.55
187.216	65.71
187.436	20.65
187.655	16.55
187.875	-1.88
188.095	37.03
188.314	14.51
188.534	57.51
188.753	-3.93
188.973	-16.21
189.192	20.65
189.412	8.36
189.631	-48.98
189.851	28.84
190.07	-1.88
190.29	0.17
190.509	10.41
190.729	28.84
190.948	67.75
191.168	-57.17
191.387	39.08
191.607	-28.5
191.826	45.23
192.045	14.51
192.265	0.17
192.484	20.65
192.704	4.27
192.923	59.56
193.142	18.6
193.362	-26.45
193.581	82.09
193.8	94.38
194.02	121
194.239	-48.98
194.458	43.18
194.678	-42.84
194.897	69.8
195.116	102.57
195.335	-3.93
195.555	34.99
195.774	86.19
195.993	-26.45
196.212	69.8
196.432	-16.21
196.651	-20.31
196.87	-20.31
197.089	86.19
197.308	77.99
197.528	-12.12
197.747	-59.22
197.966	6.31
198.185	-5.97
198.404	63.66
198.623	32.94
198.842	-28.5
199.062	4.27
199.281	-18.26
199.5	0.17
199.719	-12.12
199.938	-14.17
200.157	53.42
200.376	37.03
200.595	-81.75
200.814	32.94
201.033	41.13
201.252	-5.97
201.471	16.55
201.69	-63.32
201.909	20.65
202.128	-71.51
202.347	45.23
202.566	30.89
202.785	-71.51
203.004	16.55
203.223	75.95
203.442	-24.4
203.661	-3.93
203.879	-10.07
204.098	-28.5
204.317	-22.36
204.536	12.46
204.755	-46.93
204.974	67.75
205.193	-59.22
205.411	75.95
205.63	57.51
205.849	18.6
206.068	45.23
206.287	116.9
206.505	92.33
206.724	37.03
206.943	39.08
207.162	-36.69
207.381	10.41
207.599	6.31
207.818	39.08
208.037	-24.4
208.255	16.55
208.474	-20.31
208.693	-14.17
208.911	-10.07
209.13	0.17
209.349	2.22
209.567	110.76
209.786	39.08
210.005	-20.31
210.223	16.55
210.442	55.47
210.661	-14.17
210.879	28.84
211.098	-5.97
211.316	8.36
211.535	45.23
211.753	49.32
211.972	-16.21
212.191	37.03
212.409	45.23
212.628	24.75
212.846	-34.64
213.065	-30.55
213.283	73.9
213.502	-12.12
213.72	28.84
213.938	-20.31
214.157	53.42
214.375	14.51
214.594	51.37
214.812	4.27
215.031	-10.07
215.249	24.75
215.467	2.22
215.686	-48.98
215.904	32.94
216.122	4.27
216.341	-14.17
216.559	63.66
216.778	51.37
216.996	30.89
217.214	34.99
217.432	55.47
217.651	14.51
217.869	24.75
218.087	-14.17
218.306	59.56
218.524	20.65
218.742	4.27
218.96	61.61
219.179	-42.84
219.397	45.23
219.615	-8.02
219.833	84.14
220.051	10.41
220.27	30.89
220.488	-77.65
220.706	-38.74
220.924	26.79
221.142	-16.21
221.36	20.65
221.578	37.03
221.796	4.27
222.015	8.36
222.233	-10.07
222.451	45.23
222.669	-10.07
222.887	39.08
223.105	51.37
223.323	41.13
223.541	12.46
223.759	4.27
223.977	26.79
224.195	55.47
224.413	-14.17
224.631	14.51
224.849	-51.03
225.067	47.27
225.285	22.7
225.503	43.18
225.721	16.55
225.939	-30.55
226.157	10.41
226.375	67.75
226.592	8.36
226.81	24.75
227.028	-5.97
227.246	24.75
227.464	-22.36
227.682	12.46
227.9	-48.98
228.117	4.27
228.335	22.7
228.553	71.85
228.771	108.71
228.989	77.99
229.206	67.75
229.424	14.51
229.642	16.55
229.86	43.18
230.077	6.31
230.295	-8.02
230.513	6.31
230.731	112.81
230.948	55.47
231.166	108.71
231.384	10.41
231.601	45.23
231.819	14.51
232.037	108.71
232.254	-59.22
232.472	71.85
232.689	12.46
232.907	41.13
233.125	24.75
233.342	-1.88
233.56	28.84
233.777	55.47
233.995	49.32
234.213	-10.07
234.43	0.17
234.648	28.84
234.865	-20.31
235.083	49.32
235.3	-59.22
235.518	6.31
235.735	14.51
235.953	61.61
236.17	0.17
236.388	-10.07
236.605	4.27
236.822	73.9
237.04	77.99
237.257	-18.26
237.475	69.8
237.692	20.65
237.909	-36.69
238.127	-24.4
238.344	53.42
238.562	37.03
238.779	-30.55
238.996	77.99
239.214	-20.31
239.431	28.84
239.648	30.89
239.865	49.32
240.083	4.27
240.3	10.41
240.517	24.75
240.735	-40.79
240.952	-12.12
241.169	69.8
241.386	69.8
241.603	77.99
241.821	14.51
242.038	49.32
242.255	30.89
242.472	20.65
242.689	43.18
242.907	45.23
243.124	45.23
243.341	-12.12
243.558	-38.74
243.775	14.51
243.992	20.65
244.209	-12.12
244.426	-1.88
244.643	67.75
244.86	28.84
245.078	65.71
245.295	-61.27
245.512	65.71
245.729	57.51
245.946	-32.6
246.163	-5.97
246.38	90.28
246.597	-26.45
246.814	30.89
247.031	12.46
247.248	-38.74
247.464	16.55
247.681	45.23
247.898	8.36
248.115	69.8
248.332	4.27
248.549	69.8
248.766	-40.79
248.983	16.55
249.2	-12.12
249.417	24.75
249.633	8.36
249.85	94.38
250.067	41.13
250.284	32.94
250.501	30.89
250.717	20.65
250.934	-22.36
251.151	73.9
251.368	57.51
251.585	28.84
251.801	-12.12
252.018	-20.31
252.235	4.27
252.451	-18.26
252.668	-32.6
252.885	12.46
253.102	-10.07
253.318	28.84
253.535	-14.17
253.752	0.17
253.968	4.27
254.185	32.94
254.401	22.7
254.618	-24.4
254.835	-3.93
255.051	34.99
255.268	24.75
255.484	102.57
255.701	57.51
255.917	-40.79
256.134	55.47
256.351	2.22
256.567	-71.51
256.784	-28.5
257	-12.12
257.217	-1.88
257.433	-18.26
257.65	0.17
257.866	30.89
258.082	20.65
258.299	-40.79
258.515	-24.4
258.732	0.17
258.948	2.22
259.165	4.27
259.381	12.46
259.597	34.99
259.814	80.04
260.03	-28.5
260.246	45.23
260.463	12.46
260.679	49.32
260.895	4.27
261.112	8.36
261.328	45.23
261.544	24.75
261.761	8.36
261.977	43.18
262.193	41.13
262.409	-20.31
262.626	16.55
262.842	24.75
263.058	61.61
263.274	32.94
263.49	82.09
263.707	20.65
263.923	14.51
264.139	86.19
264.355	-61.27
264.571	-28.5
264.787	6.31
265.004	22.7
265.22	-8.02
265.436	77.99
265.652	47.27
265.868	39.08
266.084	2.22
266.3	-26.45
266.516	39.08
266.732	69.8
266.948	-20.31
267.164	65.71
267.38	-1.88
267.596	37.03
267.812	-10.07
268.028	-22.36
268.244	47.27
268.46	63.66
268.676	-30.55
268.892	-53.08
269.108	-65.36
269.324	32.94
269.54	-12.12
269.756	12.46
269.972	-53.08
270.188	41.13
270.403	63.66
270.619	16.55
270.835	2.22
271.051	18.6
271.267	20.65
271.483	24.75
271.698	32.94
271.914	22.7
272.13	10.41
272.346	18.6
272.562	-24.4
272.777	80.04
272.993	8.36
273.209	-5.97
273.425	-26.45
273.64	32.94
273.856	0.17
274.072	10.41
274.287	-24.4
274.503	30.89
274.719	12.46
274.934	37.03
275.15	20.65
275.366	-30.55
275.581	28.84
275.797	-36.69
276.012	37.03
276.228	26.79
276.444	0.17
276.659	-16.21
276.875	-22.36
277.09	22.7
277.306	-12.12
277.521	69.8
277.737	-30.55
277.952	-1.88
278.168	-20.31
278.383	57.51
278.599	45.23
278.814	49.32
279.03	-5.97
279.245	-12.12
279.461	-5.97
279.676	20.65
279.892	-10.07
280.107	10.41
280.322	-59.22
280.538	41.13
280.753	24.75
280.969	-3.93
281.184	39.08
281.399	28.84
281.615	-22.36
281.83	-5.97
282.045	-34.64
282.26	-38.74
282.476	-5.97
282.691	18.6
282.906	0.17
283.122	26.79
283.337	-20.31
283.552	69.8
283.767	-3.93
283.983	116.9
284.198	-8.02
284.413	69.8
284.628	22.7
284.843	75.95
285.058	-3.93
285.274	45.23
285.489	-22.36
285.704	28.84
285.919	-20.31
286.134	-42.84
286.349	-20.31
286.564	-26.45
286.779	32.94
286.995	-12.12
287.21	24.75
287.425	-20.31
287.64	-12.12
287.855	55.47
288.07	-14.17
288.285	92.33
288.5	-3.93
288.715	-100.18
288.93	6.31
289.145	-12.12
289.36	57.51
289.575	-42.84
289.79	57.51
290.004	4.27
290.219	37.03
290.434	106.67
290.649	47.27
290.864	-5.97
291.079	8.36
291.294	12.46
291.509	8.36
291.724	0.17
291.938	-59.22
292.153	55.47
292.368	-44.88
292.583	24.75
292.798	4.27
293.012	14.51
293.227	-32.6
293.442	10.41
293.657	12.46
293.871	-22.36
294.086	4.27
294.301	14.51
294.516	0.17
294.73	47.27
294.945	-38.74
295.16	37.03
295.374	69.8
295.589	69.8
295.804	43.18
296.018	-20.31
296.233	53.42
296.447	10.41
296.662	43.18
296.877	-18.26
297.091	4.27
297.306	-8.02
297.52	20.65
297.735	77.99
297.949	22.7
298.164	12.46
298.378	6.31
298.593	-22.36
298.807	-8.02
299.022	20.65
299.236	6.31
299.451	61.61
299.665	32.94
299.88	-10.07
300.094	2.22
300.309	14.51
300.523	-53.08
300.737	-3.93
300.952	37.03
301.166	37.03
301.381	43.18
301.595	51.37
301.809	-10.07
302.024	-53.08
302.238	-26.45
302.452	69.8
302.667	16.55
302.881	26.79
303.095	110.76
303.309	2.22
303.524	-8.02
303.738	-24.4
303.952	-1.88
304.166	41.13
304.381	-1.88
304.595	14.51
304.809	-42.84
305.023	45.23
305.237	-28.5
305.452	-26.45
305.666	-28.5
305.88	14.51
306.094	12.46
306.308	63.66
306.522	73.9
306.736	86.19
306.95	20.65
307.164	14.51
307.379	-30.55
307.593	22.7
307.807	2.22
308.021	77.99
308.235	80.04
308.449	69.8
308.663	20.65
308.877	98.47
309.091	-44.88
309.305	10.41
309.519	43.18
309.733	47.27
309.947	14.51
310.161	71.85
310.374	14.51
310.588	4.27
310.802	43.18
311.016	6.31
311.23	-16.21
311.444	-22.36
311.658	-3.93
311.872	24.75
312.085	53.42
312.299	53.42
312.513	-1.88
312.727	8.36
312.941	-18.26
313.154	-1.88
313.368	-51.03
313.582	-3.93
313.796	12.46
314.009	-40.79
314.223	88.23
314.437	-10.07
314.651	20.65
314.864	-44.88
315.078	45.23
315.292	47.27
315.505	24.75
315.719	39.08
315.933	-30.55
316.146	41.13
316.36	-20.31
316.573	77.99
316.787	75.95
317.001	53.42
317.214	4.27
317.428	-12.12
317.641	34.99
317.855	4.27
318.068	14.51
318.282	26.79
318.495	47.27
318.709	-18.26
318.922	4.27
319.136	32.94
319.349	10.41
319.563	-30.55
319.776	43.18
319.99	-32.6
320.203	69.8
320.417	51.37
320.63	-46.93
320.843	86.19
321.057	34.99
321.27	43.18
321.483	80.04
321.697	57.51
321.91	75.95
322.124	41.13
322.337	24.75
322.55	53.42
322.763	69.8
322.977	4.27
323.19	2.22
323.403	16.55
323.617	45.23
323.83	12.46
324.043	43.18
324.256	14.51
324.469	8.36
324.683	28.84
324.896	-14.17
325.109	45.23
325.322	18.6
325.535	43.18
325.748	24.75
325.962	28.84
326.175	73.9
326.388	-42.84
326.601	30.89
326.814	80.04
327.027	-34.64
327.24	37.03
327.453	37.03
327.666	28.84
327.879	14.51
328.092	39.08
328.305	53.42
328.518	110.76
328.731	6.31
328.944	2.22
329.157	57.51
329.37	45.23
329.583	4.27
329.796	84.14
330.009	-10.07
330.222	90.28
330.435	-3.93
330.648	49.32
330.861	39.08
331.073	20.65
331.286	65.71
331.499	-3.93
331.712	8.36
331.925	6.31
332.138	110.76
332.35	-42.84
332.563	28.84
332.776	63.66
332.989	49.32
333.202	-26.45
333.414	57.51
333.627	34.99
333.84	-24.4
334.053	32.94
334.265	8.36
334.478	28.84
334.691	34.99
334.903	12.46
335.116	77.99
335.329	71.85
335.541	14.51
335.754	-36.69
335.966	0.17
336.179	20.65
336.392	2.22
336.604	39.08
336.817	-28.5
337.029	2.22
337.242	-40.79
337.454	67.75
337.667	24.75
337.88	45.23
338.092	-24.4
338.305	20.65
338.517	-69.46
338.729	20.65
338.942	53.42
339.154	45.23
339.367	-1.88
339.579	88.23
339.792	-26.45
340.004	28.84
340.217	2.22
340.429	-53.08
340.641	-20.31
340.854	37.03
341.066	4.27
341.278	30.89
341.491	32.94
341.703	2.22
341.915	16.55
342.128	-1.88
342.34	-46.93
342.552	41.13
342.764	-18.26
342.977	57.51
343.189	59.56
343.401	43.18
343.613	63.66
343.826	80.04
344.038	37.03
344.25	57.51
344.462	-51.03
344.674	20.65
344.886	-20.31
345.099	34.99
345.311	16.55
345.523	22.7
345.735	30.89
345.947	37.03
346.159	37.03
346.371	53.42
346.583	129.19
346.795	75.95
347.007	-24.4
347.219	88.23
347.431	-28.5
347.643	32.94
347.855	-77.65
348.067	84.14
348.279	-10.07
348.491	-1.88
348.703	30.89
348.915	49.32
349.127	39.08
349.339	32.94
349.551	67.75
349.763	20.65
349.975	-10.07
350.187	16.55
350.399	-32.6
350.61	127.14
350.822	45.23
351.034	37.03
351.246	24.75
351.458	69.8
351.669	90.28
351.881	2.22
352.093	51.37
352.305	53.42
352.517	30.89
352.728	24.75
352.94	90.28
353.152	77.99
353.363	6.31
353.575	24.75
353.787	28.84
353.999	37.03
354.21	65.71
354.422	14.51
354.633	22.7
354.845	30.89
355.057	14.51
355.268	10.41
355.48	6.31
355.692	61.61
355.903	45.23
356.115	-65.36
356.326	75.95
356.538	28.84
356.749	96.43
356.961	-10.07
357.172	37.03
357.384	-26.45
357.595	14.51
357.807	14.51
358.018	-57.17
358.23	2.22
358.441	75.95
358.653	30.89
358.864	-10.07
359.075	-10.07
359.287	34.99
359.498	41.13
359.709	86.19
359.921	96.43
360.132	28.84
360.344	37.03
360.555	4.27
360.766	55.47
360.977	16.55
361.189	63.66
361.4	-46.93
361.611	47.27
361.823	86.19
362.034	55.47
362.245	41.13
362.456	55.47
362.667	57.51
362.879	86.19
363.09	37.03
363.301	-32.6
363.512	47.27
363.723	47.27
363.935	22.7
364.146	37.03
364.357	-26.45
364.568	28.84
364.779	45.23
364.99	69.8
365.201	4.27
365.412	4.27
365.623	53.42
365.834	45.23
366.045	-48.98
366.256	12.46
366.467	55.47
366.678	12.46
366.889	39.08
367.1	59.56
367.311	-10.07
367.522	65.71
367.733	61.61
367.944	80.04
368.155	28.84
368.366	12.46
368.577	61.61
368.788	69.8
368.999	-36.69
369.209	-14.17
369.42	28.84
369.631	-30.55
369.842	16.55
370.053	-8.02
370.264	6.31
370.474	26.79
370.685	34.99
370.896	39.08
371.107	47.27
371.317	55.47
371.528	8.36
371.739	12.46
371.95	108.71
372.16	-36.69
372.371	8.36
372.582	77.99
372.792	0.17
373.003	16.55
373.214	67.75
373.424	75.95
373.635	-42.84
373.846	53.42
374.056	43.18
374.267	47.27
374.477	49.32
374.688	22.7
374.898	77.99
375.109	-55.12
375.319	16.55
375.53	20.65
375.74	73.9
375.951	47.27
376.161	80.04
376.372	32.94
376.582	77.99
376.793	43.18
377.003	49.32
377.214	80.04
377.424	16.55
377.635	90.28
377.845	-8.02
378.055	45.23
378.266	55.47
378.476	53.42
378.686	61.61
378.897	18.6
379.107	20.65
379.317	118.95
379.528	4.27
379.738	63.66
379.948	39.08
380.158	39.08
380.369	43.18
380.579	45.23
380.789	67.75
380.999	30.89
381.21	-1.88
381.42	69.8
381.63	16.55
381.84	90.28
382.05	53.42
382.261	-20.31
382.471	75.95
382.681	71.85
382.891	6.31
383.101	61.61
383.311	80.04
383.521	-51.03
383.731	63.66
383.941	45.23
384.151	129.19
384.361	12.46
384.571	-1.88
384.781	73.9
384.991	24.75
385.201	24.75
385.411	37.03
385.621	2.22
385.831	37.03
386.041	41.13
386.251	73.9
386.461	8.36
386.671	110.76
386.881	6.31
387.091	2.22
387.301	57.51
387.511	30.89
387.72	41.13
387.93	57.51
388.14	80.04
388.35	14.51
388.56	57.51
388.769	80.04
388.979	28.84
389.189	-20.31
389.399	80.04
389.609	14.51
389.818	-1.88
390.028	18.6
390.238	37.03
390.447	6.31
390.657	43.18
390.867	80.04
391.076	-20.31
391.286	6.31
391.496	108.71
391.705	88.23
391.915	37.03
392.125	41.13
392.334	55.47
392.544	55.47
392.753	110.76
392.963	28.84
393.172	34.99
393.382	43.18
393.591	164.01
393.801	53.42
394.01	86.19
394.22	12.46
394.429	26.79
394.639	75.95
394.848	53.42
395.058	4.27
395.267	-18.26
395.477	116.9
395.686	45.23
395.895	63.66
396.105	88.23
396.314	65.71
396.524	69.8
396.733	28.84
396.942	-3.93
397.152	20.65
397.361	106.67
397.57	69.8
397.78	53.42
397.989	26.79
398.198	102.57
398.407	94.38
398.617	28.84
398.826	14.51
399.035	55.47
399.244	16.55
399.453	137.38
399.663	69.8
399.872	88.23
400.081	37.03
400.29	86.19
400.499	59.56
400.708	80.04
400.917	63.66
401.127	98.47
401.336	96.43
401.545	77.99
401.754	100.52
401.963	32.94
402.172	90.28
402.381	59.56
402.59	88.23
402.799	121
403.008	86.19
403.217	131.24
403.426	67.75
403.635	94.38
403.844	61.61
404.053	129.19
404.262	121
404.471	63.66
404.68	127.14
404.888	45.23
405.097	98.47
405.306	114.86
405.515	37.03
405.724	194.73
405.933	86.19
406.142	168.1
406.35	82.09
406.559	110.76
406.768	135.34
406.977	92.33
407.185	110.76
407.394	168.1
407.603	166.06
407.812	247.97
408.02	157.86
408.229	174.25
408.438	141.48
408.646	194.73
408.855	174.25
409.064	166.06
409.272	282.79
409.481	198.82
409.69	155.82
409.898	164.01
410.107	176.3
410.315	274.6
410.524	239.78
410.733	198.82
410.941	290.98
411.15	309.41
411.358	241.83
411.567	243.88
411.775	284.84
411.984	270.5
412.192	342.18
412.401	348.33
412.609	268.45
412.818	348.33
413.026	377
413.234	426.15
413.443	397.48
413.651	356.52
413.86	467.11
414.068	381.09
414.276	518.31
414.485	469.16
414.693	503.97
414.901	506.02
415.11	495.78
415.318	553.12
415.526	508.07
415.734	643.23
415.943	526.5
416.151	651.42
416.359	540.83
416.567	587.94
416.776	669.86
416.984	719.01
417.192	780.45
417.4	694.43
417.608	655.52
417.817	768.16
418.025	825.5
418.233	874.65
418.441	782.49
418.649	843.93
418.857	962.72
419.065	1009.82
419.273	954.52
419.481	944.28
419.689	1116.31
419.897	1101.98
420.105	1128.6
420.313	1104.03
420.521	1175.7
420.729	1194.14
420.937	1290.39
421.145	1296.53
421.353	1396.89
421.561	1384.6
421.769	1495.19
421.977	1511.57
422.185	1431.7
422.393	1478.8
422.601	1630.35
422.809	1593.49
423.017	1622.16
423.224	1814.67
423.432	1761.42
423.64	1771.66
423.848	1935.5
424.056	2011.28
424.263	2056.33
424.471	2056.33
424.679	2097.29
424.887	2314.38
425.094	2271.37
425.302	2326.66
425.51	2359.43
425.718	2496.64
425.925	2441.35
426.133	2666.63
426.341	2771.07
426.548	2863.23
426.756	2891.9
426.964	2910.33
427.171	3125.37
427.379	3059.84
427.586	3180.67
427.794	3250.3
428.001	3479.67
428.209	3698.8
428.417	3516.53
428.624	3852.4
428.832	3706.99
429.039	3690.61
429.247	3823.73
429.454	4024.43
429.662	4298.86
429.869	4042.86
430.076	4274.28
430.284	4255.85
430.491	4497.51
430.699	4802.66
430.906	4587.62
431.114	4757.6
431.321	4837.47
431.528	5099.61
431.736	5392.47
431.943	5613.65
432.15	5462.1
432.358	5539.93
432.565	5783.63
432.772	5855.31
432.979	6021.2
433.187	6264.91
433.394	6107.21
433.601	6662.21
433.808	6584.39
434.016	6537.29
434.223	6836.29
434.43	7311.42
434.637	7120.96
434.844	7583.8
435.052	7899.19
435.259	7641.14
435.466	7774.26
435.673	7845.94
435.88	8194.09
436.087	8489
436.294	8671.27
436.501	8507.43
436.708	8427.56
436.915	8796.2
437.122	9113.63
437.329	9300
437.537	9564.18
437.743	9678.87
437.95	9664.54
438.157	10047.51
438.364	10250.25
438.571	10366.99
438.778	10620.94
438.985	11194.37
439.192	10999.81
439.399	11313.15
439.606	11012.1
439.813	11606.01
440.02	12410.86
440.227	12113.91
440.433	12046.32
440.64	12468.2
440.847	12396.53
441.054	12709.86
441.261	13404.13
441.467	13365.21
441.674	13733.85
441.881	14137.3
442.088	14157.78
442.294	14133.2
442.501	14077.91
442.708	14596.04
442.914	15085.51
443.121	15947.7
443.328	15263.68
443.534	16508.85
443.741	16068.53
443.948	15775.67
444.154	16961.45
444.361	16922.54
444.568	16889.77
444.774	16789.42
444.981	17414.05
445.187	17682.33
445.394	18071.45
445.6	18175.89
445.807	19838.84
446.013	19044.23
446.22	19425.15
446.426	19976.06
446.633	20074.36
446.839	20946.8
447.046	20143.99
447.252	21274.47
447.459	21258.09
447.665	21149.54
447.871	22153.05
448.078	23170.89
448.284	21811.04
448.491	22429.52
448.697	23273.29
448.903	23715.65
449.11	23961.41
449.316	23668.55
449.522	23873.34
449.728	24753.97
449.935	24747.83
450.141	25044.78
450.347	25190.19
450.553	24317.75
450.76	24805.17
450.966	25532.2
451.172	25290.54
451.378	25743.14
451.584	25358.12
451.791	25693.99
451.997	25775.91
452.203	26365.72
452.409	26595.09
452.615	26181.4
452.821	25048.88
453.027	24811.31
453.233	26134.3
453.44	25231.15
453.646	25333.54
453.852	25603.88
454.058	25968.41
454.264	25100.08
454.47	25683.75
454.676	25116.46
454.882	25646.88
455.088	23678.79
455.294	24059.71
455.5	24536.88
455.705	24461.11
455.911	23486.28
456.117	23301.96
456.323	22916.94
456.529	21503.84
456.735	22589.27
456.941	21817.18
457.147	21413.73
457.352	21034.86
457.558	20563.82
457.764	20875.12
457.97	20680.56
458.176	19806.08
458.381	19863.42
458.587	18835.34
458.793	18812.81
458.999	18073.49
459.204	19193.73
459.41	18718.61
459.616	17432.48
459.821	17575.84
460.027	17508.26
460.233	16957.35
460.438	16390.06
460.644	16293.81
460.85	15476.67
461.055	15484.86
461.261	15251.39
461.466	14184.4
461.672	13785.05
461.878	14942.15
462.083	13582.3
462.289	13432.8
462.494	13512.67
462.7	12691.43
462.905	12392.43
463.111	13000.68
463.316	13127.65
463.522	12670.95
463.727	12781.54
463.932	12777.45
464.138	12716.01
464.343	12736.49
464.549	12351.47
464.754	12873.7
464.959	12658.67
465.165	12662.76
465.37	12021.75
465.575	11847.67
465.781	12257.26
465.986	12296.18
466.191	11917.3
466.397	11681.78
466.602	11032.58
466.807	11612.15
467.012	11503.61
467.218	11345.92
467.423	11327.49
467.628	11335.68
467.833	11999.22
468.038	11503.61
468.244	10878.98
468.449	11479.04
468.654	10999.81
468.859	11141.12
469.064	11169.79
469.269	10508.3
469.474	10756.1
469.679	10981.38
469.885	10485.77
470.09	10663.94
470.295	10799.11
470.5	10477.58
470.705	10465.29
470.91	10272.78
471.115	10113.04
471.32	10207.25
471.525	10080.27
471.73	10082.32
471.935	10006.55
472.139	9574.42
472.344	9564.18
472.549	9654.3
472.754	9586.71
472.959	9291.8
473.164	9125.92
473.369	9134.11
473.574	9381.92
473.778	9224.22
473.983	9046.05
474.188	9099.3
474.393	8589.35
474.598	8683.56
474.802	8581.16
475.007	8896.55
475.212	8503.34
475.417	8378.41
475.621	8384.55
475.826	8435.75
476.031	8159.28
476.235	7936.05
476.44	8101.94
476.645	7755.83
476.849	7946.29
477.054	7823.41
477.259	7766.07
477.463	7649.33
477.668	7573.56
477.872	7725.11
478.077	7505.98
478.282	7360.57
478.486	7372.86
478.691	7227.45
478.895	7264.32
479.1	7135.29
479.304	7350.33
479.509	6973.5
479.713	7209.02
479.918	7002.18
480.122	6975.55
480.326	7108.67
480.531	7065.66
480.735	6881.35
480.94	7006.27
481.144	7014.46
481.348	6758.47
481.553	6783.04
481.757	6758.47
481.961	6776.9
482.166	6867.01
482.37	6811.71
482.574	6664.26
482.778	6604.87
482.983	6811.71
483.187	6770.76
483.391	6733.89
483.595	6559.81
483.8	6525
484.004	6748.23
484.208	6776.9
484.412	6608.97
484.616	6664.26
484.821	6795.33
485.025	6770.76
485.229	6651.97
485.433	6619.21
485.637	6766.66
485.841	6670.4
486.045	6631.49
486.249	6713.41
486.453	6676.55
486.657	6680.64
486.861	6737.99
487.065	6643.78
487.269	6832.19
487.473	6557.77
487.677	6854.72
487.881	6768.71
488.085	6735.94
488.289	6803.52
488.493	6742.08
488.697	6762.56
488.901	6844.48
489.105	6924.35
489.309	6742.08
489.512	6727.75
489.716	6832.19
489.92	6848.58
490.124	6762.56
490.328	6797.38
490.531	6885.44
490.735	6707.27
490.939	7002.18
491.143	7014.46
491.346	6795.33
491.55	6924.35
491.754	6903.87
491.958	7088.19
492.161	7204.92
492.365	7006.27
492.569	7018.56
492.772	7204.92
492.976	7071.81
493.18	7358.52
493.383	7403.58
493.587	7518.26
493.79	7497.78
493.994	7528.5
494.197	7536.7
494.401	7454.78
494.605	7270.46
494.808	7721.01
495.012	7747.64
495.215	7628.85
495.419	7843.89
495.622	7837.75
495.825	7964.72
496.029	7950.39
496.232	8146.99
496.436	8003.63
496.639	8241.2
496.843	8325.16
497.046	8482.86
497.249	8507.43
497.453	8652.84
497.656	8683.56
497.859	8650.79
498.063	8929.31
498.266	9115.68
498.469	8992.8
498.673	9191.45
498.876	9015.33
499.079	9330.72
499.282	9132.06
499.485	9431.07
499.689	9543.71
499.892	9609.24
500.095	9781.27
500.298	10084.37
500.501	9838.61
500.705	10260.49
500.908	10221.58
501.111	10469.39
501.314	10661.9
501.517	10790.92
501.72	10799.11
501.923	10586.12
502.126	11141.12
502.329	11327.49
502.532	11317.25
502.735	11358.21
502.938	11460.6
503.141	11749.37
503.344	12079.09
503.547	11984.88
503.75	12046.32
503.953	12113.91
504.156	12316.65
504.359	12330.99
504.562	12693.48
504.765	13015.01
504.968	13135.84
505.17	13385.69
505.373	13131.75
505.576	13795.29
505.779	13801.43
505.982	13713.37
506.185	13826.01
506.387	13909.97
506.59	14342.1
506.793	14626.76
506.996	14387.15
507.198	14991.3
507.401	14823.37
507.604	14974.92
507.807	15228.87
508.009	15632.32
508.212	15781.82
508.415	15777.72
508.617	16048.05
508.82	16252.85
509.022	16084.92
509.225	16627.63
509.428	16764.84
509.63	16938.92
509.833	16842.67
510.035	17659.81
510.238	17610.65
510.44	17668
510.643	18007.96
510.845	18190.23
511.048	18036.63
511.25	18419.6
511.453	18896.78
511.655	19593.09
511.858	19003.27
512.06	19599.23
512.262	19666.81
512.465	19543.94
512.667	19769.21
512.87	20162.42
513.072	20459.38
513.274	20592.5
513.477	21262.18
513.679	21249.89
513.881	21620.58
514.084	21653.34
514.286	21710.69
514.488	22044.51
514.69	22839.12
514.893	22703.95
515.095	22828.88
515.297	22863.69
515.499	23433.03
515.701	23387.97
515.904	23684.93
516.106	23785.28
516.308	24358.71
516.51	24473.4
516.712	24491.83
516.914	24653.62
517.116	25370.41
517.318	25677.6
517.52	25524.01
517.722	25794.34
517.925	26402.58
518.127	26599.19
518.329	26935.06
518.531	26582.81
518.733	27440.9
518.935	27438.86
519.136	27873.03
519.338	28196.6
519.54	27932.42
519.742	28407.55
519.944	28511.99
520.146	29097.71
520.348	29482.73
520.55	29409
520.752	29673.19
520.954	30097.12
521.155	30359.26
521.357	30428.89
521.559	30676.69
521.761	31375.05
521.963	31383.24
522.164	31286.99
522.366	31436.49
522.568	31874.76
522.77	31850.18
522.971	32079.55
523.173	32448.19
523.375	32470.72
523.576	32470.72
523.778	32779.96
523.98	33541.8
524.181	33461.93
524.383	33365.68
524.584	33793.7
524.786	34131.62
524.988	33693.35
525.189	34287.26
525.391	34741.91
525.592	34797.21
525.794	35002
525.995	34881.17
526.197	35253.9
526.398	35245.71
526.6	35718.79
526.801	35503.76
527.003	35612.3
527.204	35671.69
527.406	36425.34
527.607	36159.11
527.808	36140.68
528.01	35802.76
528.211	36177.54
528.412	37043.83
528.614	36871.8
528.815	36753.02
529.016	37381.74
529.218	36517.5
529.419	36955.77
529.62	37080.69
529.822	37269.11
530.023	37029.49
530.224	37135.99
530.425	37185.14
530.626	36681.34
530.828	37260.91
531.029	37777
531.23	37420.66
531.431	37602.92
531.632	37875.3
531.833	37889.64
532.035	37949.03
532.236	37662.32
532.437	38168.16
532.638	37799.53
532.839	37832.3
533.04	38288.99
533.241	37658.22
533.442	38635.1
533.643	38327.91
533.844	37740.14
534.045	38071.91
534.246	37789.29
534.447	38313.57
534.648	38028.9
534.849	38411.87
535.05	38426.21
535.251	38272.61
535.451	38356.58
535.652	38465.12
535.853	38461.02
536.054	38653.53
536.255	38346.34
536.456	38127.2
536.657	38930.01
536.857	38055.53
537.058	38215.27
537.259	38405.73
537.46	38475.36
537.66	38180.45
537.861	38522.46
538.062	38395.49
538.263	38508.13
538.463	38133.35
538.664	38178.4
538.865	38370.91
539.065	38518.37
539.266	38082.15
539.466	38811.23
539.667	38358.63
539.868	38800.99
540.068	38229.6
540.269	38487.65
540.469	38590.05
540.67	38125.16
540.87	38418.02
541.071	38559.33
541.271	38680.16
541.472	38291.04
541.672	38622.81
541.873	38547.04
542.073	38131.3
542.274	38782.55
542.474	38422.11
542.675	38530.65
542.875	38395.49
543.075	38325.86
543.276	38127.2
543.476	38544.99
543.676	38178.4
543.877	38557.28
544.077	38362.72
544.277	38368.87
544.478	38422.11
544.678	38508.13
544.878	38542.94
545.078	38454.88
545.279	37854.83
545.479	38329.95
545.679	38800.99
545.879	38282.85
546.079	38506.08
546.28	38321.76
546.48	38022.76
546.68	38815.32
546.88	38524.51
547.08	38288.99
547.28	37987.94
547.48	37858.92
547.68	38553.18
547.88	37981.8
548.081	38510.18
548.281	38391.39
548.481	37854.83
548.681	38614.62
548.881	38223.46
549.081	38588
549.28	37805.67
549.48	38418.02
549.68	38266.47
549.88	38860.38
550.08	38065.77
550.28	38551.13
550.48	38266.47
550.68	38493.79
550.88	38260.32
551.08	38059.62
551.279	38348.39
551.479	38243.94
551.679	38202.98
551.879	38086.25
552.079	38141.54
552.278	38272.61
552.478	38411.87
552.678	38090.34
552.878	38196.84
553.077	38344.29
553.277	37848.68
553.477	38237.8
553.676	38336.1
553.876	38073.96
554.076	37787.24
554.275	37766.76
554.475	37916.26
554.674	37891.69
554.874	37637.74
555.074	38233.7
555.273	37838.44
555.473	37820.01
555.672	37514.86
555.872	38159.97
556.071	37498.48
556.271	37994.09
556.47	37525.1
556.67	37308.02
556.869	37568.11
557.068	37645.93
557.268	37328.5
557.467	37506.67
557.667	37316.21
557.866	37512.81
558.065	37062.26
558.265	37541.49
558.464	36925.05
558.663	37088.88
558.863	37004.92
559.062	37135.99
559.261	36640.38
559.461	37348.98
559.66	36562.56
559.859	37021.3
560.058	37142.13
560.258	36972.15
560.457	36990.58
560.656	36920.95
560.855	36427.39
561.054	36540.03
561.253	36415.1
561.453	36318.85
561.652	36490.88
561.851	36435.58
562.05	36167.3
562.249	36032.13
562.448	36718.2
562.647	36013.7
562.846	36445.82
563.045	36081.28
563.244	35821.19
563.443	36499.07
563.642	35798.66
563.841	36030.08
564.04	35544.72
564.239	36429.44
564.438	35438.22
564.637	35985.03
564.836	35626.64
565.035	35227.28
565.234	35825.29
565.432	35565.2
565.631	34852.5
565.83	35618.44
566.029	35563.15
566.228	35157.65
566.427	35470.99
566.625	35192.47
566.824	34725.53
567.023	35155.6
567.222	34938.52
567.42	35284.62
567.619	35171.99
567.818	34836.12
568.016	34754.2
568.215	35026.58
568.414	34700.95
568.612	34887.32
568.811	34363.04
569.01	34594.46
569.208	34014.88
569.407	34303.65
569.605	33939.11
569.804	34311.84
570.002	33783.46
570.201	34121.38
570.4	33773.22
570.598	34203.3
570.797	33752.74
570.995	33627.82
571.193	33367.73
571.392	34037.41
571.59	33345.2
571.789	33365.68
571.987	33218.22
572.186	33322.67
572.384	33261.23
572.582	33240.75
572.781	33121.97
572.979	32618.17
573.177	33203.89
573.376	32710.33
573.574	32845.49
573.772	32839.35
573.971	32636.6
574.169	32292.54
574.367	32487.1
574.565	32761.53
574.763	31893.19
574.962	32536.25
575.16	31960.77
575.358	31868.61
575.556	31575.75
575.754	32112.32
575.952	31499.98
576.151	31581.9
576.349	31282.89
576.547	31592.14
576.745	31637.19
576.943	31424.2
577.141	30977.75
577.339	31135.44
577.537	31295.18
577.735	31051.47
577.933	30723.8
578.131	30541.53
578.329	30564.06
578.527	30695.13
578.725	30633.69
578.923	30777.05
579.121	30277.34
579.319	30461.66
579.516	30363.36
579.714	30140.13
579.912	30318.3
580.11	30007.01
580.308	30066.4
580.506	29791.97
580.704	29578.98
580.901	29820.64
581.099	30095.07
581.297	29335.28
581.495	29355.75
581.692	29619.94
581.89	28882.67
582.088	29353.71
582.285	29200.11
582.483	29259.5
582.681	29161.2
582.878	28874.48
583.076	28659.45
583.274	28960.5
583.471	28264.19
583.669	28915.44
583.866	28335.87
584.064	28602.1
584.262	28026.62
584.459	28278.52
584.657	28217.08
584.854	28278.52
585.052	27877.12
585.249	28169.98
585.447	28172.03
585.644	27414.28
585.841	27928.32
586.039	28045.05
586.236	27422.47
586.434	27361.03
586.631	27490.06
586.828	27277.07
587.026	27381.51
587.223	27082.51
587.42	26984.21
587.618	27281.16
587.815	26545.94
588.012	26857.23
588.21	26951.44
588.407	27090.7
588.604	26605.33
588.801	26740.5
588.999	26433.3
589.196	26539.8
589.393	26214.17
589.59	26205.98
589.787	25839.39
589.984	26287.9
590.182	25833.25
590.379	25929.5
590.576	26103.58
590.773	25612.07
590.97	25917.22
591.167	25630.5
591.364	25444.13
591.561	25794.34
591.758	25245.48
591.955	25151.27
592.152	25354.02
592.349	25270.06
592.546	25036.59
592.743	25147.18
592.94	24547.12
593.137	25052.97
593.334	24969.01
593.531	24700.72
593.727	24868.66
593.924	24741.68
594.121	24198.97
594.318	24952.62
594.515	24368.95
594.712	24375.09
594.908	24182.59
595.105	24676.15
595.302	24211.26
595.499	24274.74
595.696	24170.3
595.892	24037.18
596.089	23994.17
596.286	23891.77
596.482	24051.52
596.679	23914.3
596.876	23744.32
597.072	23433.03
597.269	23420.74
597.466	23330.63
597.662	23043.92
597.859	23330.63
598.055	23412.55
598.252	22998.86
598.448	23234.38
598.645	23099.21
598.841	23041.87
599.038	22931.28
599.234	23140.17
599.431	22712.14
599.627	22771.54
599.824	23039.82
600.02	22472.53
600.217	22802.25
600.413	22546.26
600.609	22515.54
600.806	22417.24
601.002	22527.83
601.198	22028.12
601.395	21968.73
601.591	22064.99
601.787	22202.2
601.984	21938.01
602.18	21905.24
602.376	21735.26
602.572	21940.06
602.769	21872.48
602.965	21411.68
603.161	21774.17
603.357	20944.75
603.553	21294.95
603.75	21217.13
603.946	21426.02
604.142	21231.46
604.338	20928.36
604.534	21131.11
604.73	20930.41
604.926	20936.56
605.122	20889.45
605.318	20785.01
605.514	20133.75
605.71	20715.37
605.906	20637.55
606.102	20518.77
606.298	20549.49
606.494	20408.18
606.69	20328.31
606.886	20121.46
607.082	20250.49
607.278	20301.68
607.474	19711.87
607.67	20033.4
607.866	19738.49
608.062	20154.23
608.257	19933.05
608.453	19773.31
608.649	19672.96
608.845	19863.42
609.041	19582.85
609.236	19683.2
609.432	19562.37
609.628	19357.57
609.824	19474.31
610.019	19163.01
610.215	19287.94
610.411	19310.47
610.606	19113.86
610.802	19324.8
610.998	19240.84
611.193	19257.22
611.389	19091.34
611.584	18732.94
611.78	18872.2
611.976	18978.7
612.171	18608.01
612.367	18737.04
612.562	18538.38
612.758	18466.7
612.953	18624.4
613.149	18696.08
613.344	18270.1
613.539	18620.3
613.735	18495.38
613.93	18708.37
614.126	18259.86
614.321	18319.25
614.517	18190.23
614.712	18016.15
614.907	17842.07
615.103	18225.04
615.298	17926.04
615.493	18196.37
615.688	17911.71
615.884	18061.21
616.079	17684.38
616.274	17911.71
616.47	17455.01
616.665	17518.5
616.86	17612.7
617.055	17418.14
617.25	17356.71
617.445	17684.38
617.641	17239.97
617.836	17452.96
618.031	17258.4
618.226	17350.56
618.421	17102.76
618.616	17332.13
618.811	17020.84
619.006	17455.01
619.201	16682.92
619.396	16781.23
619.591	16543.66
619.786	16779.18
619.981	16598.96
620.176	16506.8
620.371	16459.7
620.566	16455.6
620.761	16187.32
620.956	16459.7
621.151	16396.21
621.346	16158.64
621.541	15927.22
621.735	16162.74
621.93	15806.39
622.125	15769.53
622.32	15562.69
622.515	15951.8
622.709	15384.51
622.904	15597.5
623.099	15708.09
623.294	15417.28
623.488	15259.59
623.683	15157.19
623.878	15189.95
624.072	14913.48
624.267	14823.37
624.462	14921.67
624.656	14616.52
624.851	14825.42
625.046	14510.03
625.24	14659.53
625.435	14288.85
625.629	14311.38
625.824	14348.24
626.018	14507.98
626.213	14217.17
626.407	14122.96
626.602	13871.06
626.796	14088.15
626.991	13998.04
627.185	13610.97
627.38	13791.19
627.574	13563.87
627.768	13316.06
627.963	13764.57
628.157	13445.09
628.352	13281.25
628.546	13111.27
628.74	13395.93
628.935	13148.13
629.129	13191.14
629.323	12965.86
629.517	12752.87
629.712	12787.69
629.906	12687.34
630.1	12709.86
630.294	12566.51
630.489	12726.25
630.683	12517.36
630.877	12439.53
631.071	12277.74
631.265	12443.63
631.459	12136.43
631.653	12206.06
631.848	12208.11
632.042	11911.16
632.236	12247.02
632.43	11974.64
632.624	11956.21
632.818	12031.99
633.012	11761.66
633.206	11790.33
633.4	11618.3
633.594	11618.3
633.788	11657.21
633.982	11470.84
634.176	11368.45
634.369	11364.35
634.563	11270.14
634.757	11311.1
634.951	11319.29
635.145	11100.16
635.339	10942.47
635.533	11229.18
635.726	11075.59
635.92	10901.51
636.114	10813.45
636.308	10842.12
636.501	10680.33
636.695	10727.43
636.889	10424.33
637.083	10342.41
637.276	10436.62
637.47	10512.39
637.664	10350.6
637.857	10436.62
638.051	10432.52
638.244	10147.86
638.438	10250.25
638.632	9885.72
638.825	10022.93
639.019	9986.07
639.212	9998.35
639.406	9914.39
639.599	10209.29
639.793	10041.36
639.986	9775.13
640.18	9558.04
640.373	9828.37
640.567	9465.88
640.76	9629.72
640.954	9566.23
641.147	9373.72
641.34	9474.07
641.534	9455.64
641.727	9156.64
641.92	9318.43
642.114	9316.38
642.307	9242.65
642.5	9097.25
642.694	9031.71
642.887	8939.55
643.08	8937.51
643.273	8912.93
643.467	9023.52
643.66	8753.19
643.853	8734.76
644.046	8575.02
644.239	8677.41
644.432	8566.82
644.626	8560.68
644.819	8523.82
645.012	8554.54
645.205	8550.44
645.398	8290.35
645.591	8167.47
645.784	8273.96
645.977	7866.42
646.17	8095.79
646.363	8052.78
646.556	8132.65
646.749	8028.21
646.942	7960.63
647.135	7780.4
647.328	7962.67
647.521	7761.97
647.714	7665.72
647.907	7669.81
648.099	7759.92
648.292	7645.24
648.485	7465.02
648.678	7372.86
648.871	7452.73
649.064	7376.95
649.256	7450.68
649.449	7391.29
649.642	7258.17
649.835	7127.1
650.027	7110.72
650.22	7082.05
650.413	7045.18
650.605	7090.24
650.798	7008.32
650.991	6891.59
651.183	7018.56
651.376	6789.19
651.568	6785.09
651.761	6770.76
651.954	6760.52
652.146	6887.49
652.339	6672.45
652.531	6582.34
652.724	6764.61
652.916	6490.18
653.109	6578.25
653.301	6510.66
653.494	6498.38
653.686	6297.67
653.879	6352.97
654.071	6285.39
654.263	6129.74
654.456	6508.62
654.648	6383.69
654.84	6213.71
655.033	6088.78
655.225	6238.28
655.417	6238.28
655.61	6021.2
655.802	5994.58
655.994	5800.02
656.186	6072.4
656.379	5955.66
656.571	5875.79
656.763	5617.75
656.955	5666.9
657.148	5675.09
657.34	5662.8
657.532	5660.76
657.724	5615.7
657.916	5722.2
658.108	5589.08
658.3	5441.62
658.492	5472.34
658.684	5341.27
658.876	5218.4
659.068	5431.38
659.26	5175.39
659.452	5267.55
659.644	5134.43
659.836	5101.66
660.028	5314.65
660.22	5165.15
660.412	5095.52
660.604	5066.85
660.796	5015.65
660.988	5019.74
661.18	4946.02
661.372	4929.63
661.563	4964.45
661.755	4794.47
661.947	4853.86
662.139	4730.98
662.331	4653.16
662.522	4728.93
662.714	4722.79
662.906	4622.44
663.097	4692.07
663.289	4509.8
663.481	4665.44
663.673	4575.33
663.864	4546.66
664.056	4538.47
664.247	4429.93
664.439	4413.54
664.631	4376.68
664.822	4339.82
665.014	4448.36
665.205	4378.73
665.397	4286.57
665.588	4278.38
665.78	4221.03
665.971	4259.95
666.163	4368.49
666.354	4190.31
666.546	4180.07
666.737	3981.42
666.929	4239.47
667.12	4024.43
667.311	3977.33
667.503	3932.27
667.694	3938.41
667.885	4001.9
668.077	4018.29
668.268	3973.23
668.459	3932.27
668.651	3911.79
668.842	3805.3
669.033	3907.7
669.224	3928.17
669.416	3821.68
669.607	3747.95
669.798	3649.65
669.989	3778.67
670.18	3766.39
670.371	3676.27
670.563	3676.27
670.754	3680.37
670.945	3684.47
671.136	3666.03
671.327	3565.68
671.518	3461.24
671.709	3643.51
671.9	3580.02
672.091	3504.25
672.282	3567.73
672.473	3582.07
672.664	3561.59
672.855	3553.4
673.046	3477.62
673.237	3510.39
673.428	3401.85
673.619	3362.94
673.809	3352.7
674	3364.98
674.191	3391.61
674.382	3371.13
674.573	3328.12
674.764	3395.7
674.954	3358.84
675.145	3246.2
675.336	3256.44
675.527	3278.97
675.717	3305.59
675.908	3278.97
676.099	3252.35
676.289	3250.3
676.48	3156.09
676.671	3154.04
676.861	3242.11
677.052	3158.14
677.243	3186.81
677.433	3002.49
677.624	3281.02
677.814	3151.99
678.005	3221.63
678.195	3006.59
678.386	3123.32
678.576	3086.46
678.767	3074.17
678.957	3037.31
679.148	3057.79
679.338	3092.6
679.529	3004.54
679.719	3020.92
679.909	3049.6
680.1	3063.93
680.29	2979.97
680.481	2959.49
680.671	3008.64
680.861	3020.92
681.052	2850.94
681.242	2859.14
681.432	2998.4
681.622	2930.81
681.813	2846.85
682.003	2865.28
682.193	2953.34
682.383	2916.48
682.573	2814.08
682.764	2844.8
682.954	2818.18
683.144	2769.02
683.334	2867.33
683.524	2822.27
683.714	2904.19
683.904	2842.75
684.094	2769.02
684.284	2799.74
684.474	2803.84
684.664	2822.27
684.854	2711.68
685.044	2832.51
685.234	2812.03
685.424	2742.4
685.614	2930.81
685.804	2781.31
685.994	2760.83
686.184	2732.16
686.374	2709.63
686.564	2748.54
686.753	2713.73
686.943	2699.39
687.133	2617.47
687.323	2807.94
687.513	2766.98
687.702	2701.44
687.892	2697.35
688.082	2797.7
688.272	2699.39
688.461	2734.21
688.651	2687.11
688.841	2695.3
689.03	2693.25
689.22	2668.67
689.41	2625.67
689.599	2623.62
689.789	2640
689.979	2537.6
690.168	2713.73
690.358	2570.37
690.547	2572.42
690.737	2605.19
690.926	2613.38
691.116	2549.89
691.305	2719.87
691.495	2588.8
691.684	2623.62
691.874	2683.01
692.063	2521.22
692.252	2650.24
692.442	2613.38
692.631	2562.18
692.82	2625.67
693.01	2674.82
693.199	2656.39
693.388	2588.8
693.578	2597
693.767	2576.52
693.956	2506.88
694.146	2560.13
694.335	2562.18
694.524	2629.76
694.713	2625.67
694.902	2578.56
695.092	2594.95
695.281	2513.03
695.47	2590.85
695.659	2525.32
695.848	2580.61
696.037	2510.98
696.226	2510.98
696.415	2527.36
696.604	2449.54
696.793	2498.69
696.982	2621.57
697.171	2586.76
697.36	2699.39
697.549	2478.21
697.738	2551.94
697.927	2545.8
698.116	2576.52
698.305	2513.03
698.494	2525.32
698.683	2504.84
698.872	2486.4
699.061	2521.22
699.25	2521.22
699.438	2455.69
699.627	2556.04
699.816	2457.73
700.005	2435.21
700.193	2521.22
700.382	2465.93
700.571	2461.83
700.76	2506.88
700.948	2525.32
701.137	2427.01
701.326	2386.05
701.514	2396.29
701.703	2416.77
701.892	2443.4
702.08	2373.77
702.269	2386.05
702.457	2289.8
702.646	2404.49
702.834	2455.69
703.023	2324.62
703.212	2314.38
703.4	2420.87
703.589	2297.99
703.777	2345.09
703.965	2316.42
704.154	2367.62
704.342	2263.18
704.531	2371.72
704.719	2269.32
704.907	2287.75
705.096	2201.74
705.284	2152.59
705.472	2207.88
705.661	2328.71
705.849	2283.66
706.037	2236.55
706.226	2259.08
706.414	2199.69
706.602	2211.98
706.79	2158.73
706.979	2197.64
707.167	2146.44
707.355	2257.03
707.543	2134.15
707.731	2197.64
707.919	2138.25
708.107	2175.11
708.296	2134.15
708.484	2150.54
708.672	2156.68
708.86	2046.09
709.048	2109.58
709.236	2222.22
709.424	2056.33
709.612	2095.24
709.8	2097.29
709.988	2068.62
710.176	2109.58
710.364	2070.67
710.551	2058.38
710.739	2035.85
710.927	2130.06
711.115	1988.75
711.303	2042
711.491	1978.51
711.679	1966.22
711.866	2003.08
712.054	2027.66
712.242	1970.32
712.43	1915.02
712.617	2003.08
712.805	1960.08
712.993	1986.7
713.181	1904.78
713.368	1941.65
713.556	1917.07
713.744	1849.49
713.931	1892.49
714.119	1826.96
714.306	1906.83
714.494	1921.17
714.682	1863.82
714.869	1728.66
715.057	1861.77
715.244	1812.62
715.432	1804.43
715.619	1820.81
715.807	1779.86
715.994	1833.1
716.182	1824.91
716.369	1829.01
716.556	1728.66
716.744	1792.14
716.931	1685.65
717.119	1777.81
717.306	1732.75
717.493	1724.56
717.681	1800.34
717.868	1685.65
718.055	1759.38
718.242	1638.55
718.43	1648.79
718.617	1661.07
718.804	1681.55
718.991	1626.26
719.179	1712.27
719.366	1661.07
719.553	1626.26
719.74	1659.03
719.927	1476.76
720.114	1581.2
720.301	1620.11
720.488	1554.58
720.676	1530
720.863	1642.64
721.05	1587.35
721.237	1587.35
721.424	1562.77
721.611	1562.77
721.798	1446.04
721.985	1636.5
722.172	1484.95
722.358	1530
722.545	1499.28
722.732	1431.7
722.919	1472.66
723.106	1507.48
723.293	1507.48
723.48	1532.05
723.667	1478.8
723.853	1460.37
724.04	1464.47
724.227	1390.74
724.414	1443.99
724.6	1470.61
724.787	1437.84
724.974	1425.56
725.161	1503.38
725.347	1405.08
725.534	1396.89
725.72	1429.65
725.907	1368.21
726.094	1435.8
726.28	1405.08
726.467	1339.54
726.653	1314.97
726.84	1368.21
727.027	1425.56
727.213	1357.97
727.4	1407.13
727.586	1366.17
727.773	1329.3
727.959	1306.77
728.145	1333.4
728.332	1292.44
728.518	1325.21
728.705	1226.9
728.891	1267.86
729.077	1353.88
729.264	1171.61
729.45	1284.25
729.636	1265.82
729.823	1286.3
730.009	1210.52
730.195	1192.09
730.382	1206.42
730.568	1280.15
730.754	1190.04
730.94	1140.89
731.126	1265.82
731.313	1235.1
731.499	1151.13
731.685	1216.66
731.871	1235.1
732.057	1212.57
732.243	1185.94
732.429	1208.47
732.615	1224.86
732.801	1192.09
732.987	1167.51
733.173	1171.61
733.359	1155.23
733.545	1192.09
733.731	1190.04
733.917	1169.56
734.103	1052.83
734.289	1151.13
734.475	1067.16
734.661	1276.06
734.847	1181.85
735.033	1153.18
735.219	1138.84
735.404	1202.33
735.59	1132.7
735.776	999.58
735.962	1116.31
736.148	1177.75
736.333	1104.03
736.519	1161.37
736.705	1011.87
736.89	1042.59
737.076	1099.93
737.262	1112.22
737.447	1104.03
737.633	1067.16
737.819	1087.64
738.004	1077.4
738.19	1034.39
738.375	1013.92
738.561	987.29
738.747	995.48
738.932	913.56
739.118	977.05
739.303	1097.88
739.489	1015.96
739.674	1007.77
739.859	1013.92
740.045	934.04
740.23	1011.87
740.416	962.72
740.601	1001.63
740.786	936.09
740.972	1005.72
741.157	876.7
741.342	882.85
741.528	929.95
741.713	975
741.898	905.37
742.084	915.61
742.269	942.24
742.454	1007.77
742.639	975
742.824	921.76
743.01	934.04
743.195	925.85
743.38	893.09
743.565	934.04
743.75	891.04
743.935	800.93
744.12	886.94
744.305	841.89
744.49	891.04
744.675	811.17
744.86	770.21
745.045	837.79
745.23	848.03
745.415	841.89
745.6	762.02
745.785	901.28
745.97	833.69
746.155	852.13
746.34	809.12
746.525	800.93
746.71	825.5
746.895	856.22
747.079	796.83
747.264	749.73
747.449	843.93
747.634	745.63
747.819	823.45
748.003	798.88
748.188	743.58
748.373	778.4
748.557	790.69
748.742	745.63
748.927	733.34
749.111	702.62
749.296	729.25
749.481	725.15
749.665	702.62
749.85	727.2
750.034	739.49
750.219	706.72
750.404	837.79
750.588	712.86
750.773	624.8
750.957	690.34
751.141	751.78
751.326	669.86
751.51	700.58
751.695	692.38
751.879	637.09
752.064	755.87
752.248	663.71
752.432	702.62
752.617	594.08
752.801	567.46
752.985	598.18
753.17	598.18
753.354	698.53
753.538	661.66
753.722	659.62
753.907	610.47
754.091	665.76
754.275	647.33
754.459	598.18
754.643	581.79
754.828	581.79
755.012	491.68
755.196	604.32
755.38	567.46
755.564	526.5
755.748	620.71
755.932	600.23
756.116	579.75
756.3	499.88
756.484	645.28
756.668	467.11
756.852	610.47
757.036	534.69
757.22	544.93
757.404	698.53
757.588	561.31
757.772	538.79
757.956	567.46
758.14	520.35
758.323	514.21
758.507	655.52
758.691	501.92
758.875	534.69
759.059	565.41
759.242	530.59
759.426	536.74
759.61	520.35
759.794	499.88
759.977	516.26
760.161	540.83
760.345	469.16
760.528	528.55
760.712	473.25
760.895	491.68
761.079	583.84
761.263	456.87
761.446	430.24
761.63	415.91
761.813	491.68
761.997	510.11
762.18	501.92
762.364	534.69
762.547	438.44
762.731	440.48
762.914	422.05
763.098	487.59
763.281	422.05
763.464	485.54
763.648	585.89
763.831	456.87
764.015	424.1
764.198	501.92
764.381	499.88
764.564	520.35
764.748	407.72
764.931	424.1
765.114	516.26
765.297	430.24
765.481	458.92
765.664	426.15
765.847	315.56
766.03	546.98
766.213	389.28
766.397	407.72
766.58	438.44
766.763	506.02
766.946	401.57
767.129	428.2
767.312	428.2
767.495	487.59
767.678	420
767.861	512.16
768.044	444.58
768.227	434.34
768.41	479.4
768.593	432.29
768.776	377
768.959	385.19
769.142	417.96
769.324	356.52
769.507	407.72
769.69	432.29
769.873	399.52
770.056	430.24
770.239	446.63
770.421	432.29
770.604	387.24
770.787	346.28
770.97	430.24
771.152	399.52
771.335	489.64
771.518	383.14
771.7	368.81
771.883	364.71
772.066	426.15
772.248	352.42
772.431	393.38
772.613	403.62
772.796	401.57
772.978	313.51
773.161	395.43
773.343	389.28
773.526	391.33
773.708	440.48
773.891	372.9
774.073	420
774.256	331.94
774.438	374.95
774.621	358.57
774.803	282.79
774.985	327.85
775.168	407.72
775.35	327.85
775.532	397.48
775.715	262.31
775.897	426.15
776.079	362.66
776.261	307.37
776.444	307.37
776.626	331.94
776.808	340.13
776.99	293.03
777.173	260.26
777.355	325.8
777.537	286.89
777.719	360.61
777.901	350.37
778.083	336.04
778.265	243.88
778.447	295.08
778.629	262.31
778.811	350.37
778.993	299.17
779.175	364.71
779.357	290.98
779.539	233.64
779.721	258.21
779.903	307.37
780.085	290.98
780.267	333.99
780.449	331.94
780.631	282.79
780.812	268.45
780.994	338.09
781.176	319.65
781.358	258.21
781.54	227.5
781.721	358.57
781.903	192.68
782.085	274.6
782.267	204.97
782.448	293.03
782.63	241.83
782.812	280.74
782.993	211.11
783.175	237.74
783.357	254.12
783.538	241.83
783.72	196.78
783.901	235.69
784.083	239.78
784.264	227.5
784.446	247.97
784.627	211.11
784.809	164.01
784.99	266.41
785.172	204.97
785.353	194.73
785.535	118.95
785.716	290.98
785.897	225.45
786.079	192.68
786.26	135.34
786.441	176.3
786.623	221.35
786.804	176.3
786.985	157.86
787.167	182.44
787.348	174.25
787.529	217.26
787.71	215.21
787.891	256.17
788.073	346.28
788.254	280.74
788.435	147.62
788.616	227.5
788.797	266.41
788.978	274.6
789.159	227.5
789.34	211.11
789.522	192.68
789.703	161.96
789.884	192.68
790.065	159.91
790.246	178.34
790.427	129.19
790.607	250.02
790.788	227.5
790.969	125.1
791.15	135.34
791.331	170.15
791.512	209.06
791.693	137.38
791.874	147.62
792.054	178.34
792.235	80.04
792.416	133.29
792.597	168.1
792.778	123.05
792.958	252.07
793.139	235.69
793.32	149.67
793.5	155.82
793.681	211.11
793.862	131.24
794.042	98.47
794.223	184.49
794.404	182.44
794.584	104.62
794.765	194.73
794.945	129.19
795.126	110.76
795.306	133.29
795.487	114.86
795.667	53.42
795.848	159.91
796.028	241.83
796.209	168.1
796.389	143.53
796.57	131.24
796.75	102.57
796.93	168.1
797.111	186.54
797.291	116.9
797.471	192.68
797.652	129.19
797.832	71.85
798.012	123.05
798.192	141.48
798.373	166.06
798.553	153.77
798.733	118.95
798.913	67.75
799.093	157.86
799.274	157.86
799.454	143.53
799.634	170.15
799.814	194.73
799.994	114.86
800.174	118.95
800.354	108.71
800.534	94.38
800.714	153.77
800.894	127.14
801.074	55.47
801.254	121
801.434	80.04
801.614	121
801.794	168.1
801.974	372.9
802.154	121
802.334	178.34
802.514	90.28
802.693	77.99
802.873	102.57
803.053	77.99
803.233	188.58
803.413	92.33
803.592	143.53
803.772	139.43
803.952	127.14
804.131	145.58
804.311	63.66
804.491	110.76
804.67	37.03
804.85	86.19
805.03	102.57
805.209	135.34
805.389	88.23
805.568	94.38
805.748	192.68
805.928	110.76
806.107	118.95
806.287	80.04
806.466	84.14
806.646	51.37
806.825	133.29
807.004	106.67
807.184	84.14
807.363	139.43
807.543	51.37
807.722	90.28
807.901	92.33
808.081	82.09
808.26	88.23
808.439	45.23
808.619	73.9
808.798	88.23
808.977	90.28
809.156	104.62
809.336	88.23
809.515	129.19
809.694	67.75
809.873	77.99
810.052	84.14
810.231	86.19
810.411	18.6
810.59	45.23
810.769	-18.26
810.948	61.61
811.127	77.99
811.306	123.05
811.485	18.6
811.664	104.62
811.843	37.03
812.022	65.71
812.201	22.7
812.38	88.23
812.559	84.14
812.737	37.03
812.916	41.13
813.095	84.14
813.274	100.52
813.453	47.27
813.632	114.86
813.811	96.43
813.989	63.66
814.168	51.37
814.347	96.43
814.526	84.14
814.704	147.62
814.883	102.57
815.062	12.46
815.24	80.04
815.419	30.89
815.598	16.55
815.776	71.85
815.955	86.19
816.133	37.03
816.312	118.95
816.49	86.19
816.669	47.27
816.847	63.66
817.026	69.8
817.204	57.51
817.383	90.28
817.561	-14.17
817.74	69.8
817.918	51.37
818.097	75.95
818.275	55.47
818.453	16.55
818.632	135.34
818.81	-32.6
818.988	53.42
819.167	112.81
819.345	45.23
819.523	20.65
819.701	112.81
819.879	61.61
820.058	98.47
820.236	30.89
820.414	45.23
820.592	73.9
820.77	80.04
820.948	98.47
821.127	49.32
821.305	8.36
821.483	30.89
821.661	39.08
821.839	10.41
822.017	98.47
822.195	63.66
822.373	63.66
822.551	59.56
822.729	24.75
822.907	-20.31
823.085	57.51
823.262	-16.21
823.44	102.57
823.618	34.99
823.796	96.43
823.974	22.7
824.152	39.08
824.329	-1.88
824.507	82.09
824.685	39.08
824.863	4.27
825.04	53.42
825.218	45.23
825.396	63.66
825.574	53.42
825.751	92.33
825.929	28.84
826.107	100.52
826.284	94.38
826.462	86.19
826.639	67.75
826.817	-3.93
826.994	-59.22
827.172	24.75
827.349	106.67
827.527	123.05
827.704	84.14
827.882	71.85
828.059	88.23
828.237	61.61
828.414	37.03
828.591	12.46
828.769	100.52
828.946	57.51
829.124	47.27
829.301	-36.69
829.478	45.23
829.655	28.84
829.833	22.7
830.01	59.56
830.187	77.99
830.364	28.84
830.542	-20.31
830.719	6.31
830.896	77.99
831.073	12.46
831.25	0.17
831.427	-18.26
831.604	69.8
831.782	30.89
831.959	-18.26
832.136	30.89
832.313	61.61
832.49	71.85
832.667	-12.12
832.844	22.7
833.021	-14.17
833.198	16.55
833.374	98.47
833.551	-16.21
833.728	37.03
833.905	39.08
834.082	-5.97
834.259	69.8
834.436	69.8
834.612	71.85
834.789	-18.26
834.966	-24.4
835.143	37.03
835.319	100.52
835.496	16.55
835.673	39.08
835.85	65.71
836.026	49.32
836.203	4.27
836.38	4.27
836.556	49.32
836.733	114.86
836.909	51.37
837.086	-32.6
837.262	73.9
837.439	14.51
837.616	-5.97
837.792	69.8
837.968	65.71
838.145	45.23
838.321	4.27
838.498	108.71
838.674	6.31
838.851	67.75
839.027	18.6
839.203	30.89
839.38	86.19
839.556	16.55
839.732	16.55
839.909	-34.64
840.085	73.9
840.261	59.56
840.437	22.7
840.614	22.7
840.79	55.47
840.966	8.36
841.142	77.99
841.318	86.19
841.494	77.99
841.671	-1.88
841.847	32.94
842.023	-8.02
842.199	55.47
842.375	53.42
842.551	28.84
842.727	57.51
842.903	37.03
843.079	-18.26
843.255	71.85
843.431	-3.93
843.607	-8.02
843.783	34.99
843.959	0.17
844.134	82.09
844.31	-24.4
844.486	-8.02
844.662	28.84
844.838	16.55
845.013	118.95
845.189	43.18
845.365	-10.07
845.541	22.7
845.716	22.7
845.892	12.46
846.068	8.36
846.244	-14.17
846.419	14.51
846.595	2.22
846.77	-55.12
846.946	43.18
847.122	30.89
847.297	57.51
847.473	20.65
847.648	-36.69
847.824	63.66
847.999	-48.98
848.175	-46.93
848.35	32.94
848.526	4.27
848.701	67.75
848.876	26.79
849.052	12.46
849.227	20.65
849.403	-5.97
849.578	61.61
849.753	24.75
849.929	94.38
850.104	-16.21
850.279	47.27
850.454	-24.4
850.63	53.42
850.805	-30.55
850.98	12.46
851.155	32.94
851.33	69.8
851.505	37.03
851.681	26.79
851.856	28.84
852.031	22.7
852.206	16.55
852.381	43.18
852.556	45.23
852.731	-10.07
852.906	37.03
853.081	63.66
853.256	6.31
853.431	45.23
853.606	-12.12
853.781	-16.21
853.956	57.51
854.131	6.31
854.305	49.32
854.48	30.89
854.655	-26.45
854.83	4.27
855.005	28.84
855.18	22.7
855.354	-63.32
855.529	39.08
855.704	0.17
855.879	2.22
856.053	112.81
856.228	28.84
856.403	-28.5
856.577	45.23
856.752	12.46
856.926	37.03
857.101	32.94
857.276	-24.4
857.45	49.32
857.625	14.51
857.799	59.56
857.974	-34.64
858.148	-71.51
858.323	12.46
858.497	65.71
858.672	24.75
858.846	-24.4
859.02	55.47
859.195	12.46
859.369	28.84
859.543	-42.84
859.718	55.47
859.892	-30.55
860.066	61.61
860.241	18.6
860.415	-16.21
860.589	47.27
860.763	22.7
860.938	43.18
861.112	24.75
861.286	47.27
861.46	-5.97
861.634	-10.07
861.808	37.03
861.982	49.32
862.157	45.23
862.331	-8.02
862.505	6.31
862.679	6.31
862.853	-10.07
863.027	18.6
863.201	55.47
863.375	-28.5
863.549	55.47
863.722	-10.07
863.896	12.46
864.07	-10.07
864.244	28.84
864.418	0.17
864.592	57.51
864.766	-57.17
864.939	84.14
865.113	12.46
865.287	-12.12
865.461	2.22
865.634	-5.97
865.808	4.27
865.982	61.61
866.156	-10.07
866.329	28.84
866.503	8.36
866.676	73.9
866.85	-34.64
867.024	65.71
867.197	-14.17
867.371	-5.97
867.544	-8.02
867.718	4.27
867.891	-28.5
868.065	20.65
868.238	41.13
868.412	-10.07
868.585	2.22
868.759	-5.97
868.932	-3.93
869.105	-12.12
869.279	-96.08
869.452	20.65
869.625	30.89
869.799	39.08
869.972	14.51
870.145	20.65
870.319	86.19
870.492	-65.36
870.665	-38.74
870.838	24.75
871.011	-59.22
871.185	-3.93
871.358	10.41
871.531	-32.6
871.704	20.65
871.877	-40.79
872.05	28.84
872.223	-3.93
872.396	45.23
872.569	-36.69
872.742	-57.17
872.915	45.23
873.088	-1.88
873.261	-3.93
873.434	-3.93
873.607	-83.8
873.78	-14.17
873.953	53.42
874.126	0.17
874.299	65.71
874.471	47.27
874.644	-65.36
874.817	8.36
874.99	-10.07
875.163	8.36
875.335	-42.84
875.508	6.31
875.681	-61.27
875.853	-73.56
876.026	8.36
876.199	-14.17
876.371	2.22
876.544	-12.12
876.717	20.65
876.889	-1.88
877.062	80.04
877.234	8.36
877.407	-18.26
877.579	-55.12
877.752	18.6
877.924	34.99
878.097	30.89
878.269	55.47
878.442	-28.5
878.614	-55.12
878.786	-3.93
878.959	-32.6
879.131	-30.55
879.303	-42.84
879.476	37.03
879.648	12.46
879.82	-18.26
879.993	47.27
880.165	-44.88
880.337	14.51
880.509	12.46
880.681	-24.4
880.854	-16.21
881.026	41.13
881.198	-28.5
881.37	20.65
881.542	61.61
881.714	53.42
881.886	26.79
882.058	-1.88
882.23	-18.26
882.402	6.31
882.574	-53.08
882.746	24.75
882.918	20.65
883.09	-3.93
883.262	-16.21
883.434	22.7
883.606	65.71
883.778	-34.64
883.95	16.55
884.122	41.13
884.293	-3.93
884.465	45.23
884.637	-20.31
884.809	-36.69
884.98	41.13
885.152	-42.84
885.324	4.27
885.496	-28.5
885.667	4.27
885.839	24.75
886.011	37.03
886.182	55.47
886.354	-3.93
886.525	-8.02
886.697	-1.88
886.869	28.84
887.04	45.23
887.212	-81.75
887.383	14.51
887.555	106.67
887.726	4.27
887.897	-24.4
888.069	-67.41
888.24	22.7
888.412	26.79
888.583	-26.45
888.754	80.04
888.926	-44.88
889.097	-1.88
889.268	43.18
889.44	24.75
889.611	-32.6
889.782	80.04
889.953	6.31
890.125	-61.27
890.296	-18.26
890.467	-8.02
890.638	-44.88
890.809	8.36
890.98	4.27
891.151	90.28
891.323	14.51
891.494	32.94
891.665	-26.45
891.836	67.75
892.007	20.65
892.178	45.23
892.349	82.09
892.52	-44.88
892.691	-5.97
892.862	-8.02
893.032	8.36
893.203	-36.69
893.374	37.03
893.545	-8.02
893.716	-14.17
893.887	8.36
894.057	41.13
894.228	-10.07
894.399	47.27
894.57	-8.02
894.74	-3.93
894.911	20.65
895.082	-40.79
895.253	14.51
895.423	45.23
895.594	-1.88
895.764	45.23
895.935	-22.36
896.106	12.46
896.276	55.47
896.447	-10.07
896.617	-55.12
896.788	-26.45
896.958	-16.21
897.129	-28.5
897.299	18.6
897.47	-69.46
897.64	49.32
897.81	-36.69
897.981	-26.45
898.151	8.36
898.322	47.27
898.492	18.6
898.662	-26.45
898.832	-1.88
899.003	-67.41
899.173	41.13
899.343	-48.98
899.513	8.36
