Data from USB4F104151__289__14-02-44-096.txt Node

Date: Thu Mar 13 14:02:44 EDT 2025
User: louis
Spectrometer: USB4F10415
Trigger mode: 4
Integration Time (sec): 1.000000E-2
Scans to average: 1
Electric dark correction enabled: true
Nonlinearity correction enabled: false
Boxcar width: 0
XAxis mode: Wavelengths
Number of Pixels in Spectrum: 3648
>>>>>Begin Spectral Data<<<<<
178.204	-57.17
178.424	-57.17
178.644	-57.17
178.864	-36.69
179.084	-16.21
179.304	-32.6
179.524	65.71
179.744	14.51
179.964	0.17
180.184	16.55
180.404	-12.12
180.624	-40.79
180.844	65.71
181.064	-24.4
181.283	-14.17
181.503	-24.4
181.723	-14.17
181.943	-26.45
182.163	0.17
182.383	-24.4
182.602	-57.17
182.822	18.6
183.042	-30.55
183.262	-5.97
183.482	-57.17
183.701	57.51
183.921	-22.36
184.141	4.27
184.361	-3.93
184.58	0.17
184.8	-12.12
185.02	-8.02
185.239	57.51
185.459	-44.88
185.679	-63.32
185.898	-20.31
186.118	28.84
186.338	0.17
186.557	8.36
186.777	-28.5
186.997	49.32
187.216	-18.26
187.436	-40.79
187.655	34.99
187.875	-3.93
188.095	-32.6
188.314	14.51
188.534	-5.97
188.753	-46.93
188.973	-32.6
189.192	0.17
189.412	-59.22
189.631	-26.45
189.851	-36.69
190.07	-10.07
190.29	-79.7
190.509	18.6
190.729	108.71
190.948	63.66
191.168	34.99
191.387	-16.21
191.607	-44.88
191.826	43.18
192.045	8.36
192.265	-59.22
192.484	-10.07
192.704	53.42
192.923	-106.32
193.142	47.27
193.362	43.18
193.581	16.55
193.8	-8.02
194.02	-1.88
194.239	4.27
194.458	16.55
194.678	-10.07
194.897	4.27
195.116	0.17
195.335	59.56
195.555	0.17
195.774	73.9
195.993	61.61
196.212	-8.02
196.432	2.22
196.651	32.94
196.87	4.27
197.089	-16.21
197.308	-32.6
197.528	26.79
197.747	6.31
197.966	-24.4
198.185	8.36
198.404	-59.22
198.623	47.27
198.842	-32.6
199.062	8.36
199.281	77.99
199.5	12.46
199.719	0.17
199.938	41.13
200.157	106.67
200.376	51.37
200.595	-8.02
200.814	26.79
201.033	-16.21
201.252	18.6
201.471	34.99
201.69	34.99
201.909	2.22
202.128	2.22
202.347	59.56
202.566	0.17
202.785	-38.74
203.004	-57.17
203.223	6.31
203.442	10.41
203.661	-22.36
203.879	-8.02
204.098	-3.93
204.317	16.55
204.536	49.32
204.755	12.46
204.974	43.18
205.193	-42.84
205.411	98.47
205.63	41.13
205.849	-14.17
206.068	-38.74
206.287	49.32
206.505	10.41
206.724	-10.07
206.943	8.36
207.162	0.17
207.381	-10.07
207.599	2.22
207.818	106.67
208.037	28.84
208.255	45.23
208.474	26.79
208.693	-46.93
208.911	4.27
209.13	16.55
209.349	98.47
209.567	-34.64
209.786	18.6
210.005	26.79
210.223	-36.69
210.442	-51.03
210.661	-16.21
210.879	-10.07
211.098	-10.07
211.316	39.08
211.535	57.51
211.753	-40.79
211.972	34.99
212.191	49.32
212.409	-36.69
212.628	-8.02
212.846	24.75
213.065	-16.21
213.283	-28.5
213.502	-24.4
213.72	49.32
213.938	49.32
214.157	-3.93
214.375	28.84
214.594	24.75
214.812	96.43
215.031	-34.64
215.249	-8.02
215.467	-42.84
215.686	-81.75
215.904	53.42
216.122	-18.26
216.341	32.94
216.559	12.46
216.778	34.99
216.996	-16.21
217.214	155.82
217.432	12.46
217.651	-89.94
217.869	26.79
218.087	34.99
218.306	-12.12
218.524	90.28
218.742	75.95
218.96	-24.4
219.179	-32.6
219.397	20.65
219.615	18.6
219.833	73.9
220.051	2.22
220.27	39.08
220.488	0.17
220.706	34.99
220.924	-1.88
221.142	26.79
221.36	2.22
221.578	-1.88
221.796	34.99
222.015	-20.31
222.233	4.27
222.451	-65.36
222.669	-14.17
222.887	18.6
223.105	-22.36
223.323	88.23
223.541	20.65
223.759	-24.4
223.977	53.42
224.195	32.94
224.413	-8.02
224.631	4.27
224.849	12.46
225.067	0.17
225.285	-8.02
225.503	61.61
225.721	-61.27
225.939	43.18
226.157	61.61
226.375	34.99
226.592	75.95
226.81	37.03
227.028	6.31
227.246	-5.97
227.464	39.08
227.682	0.17
227.9	-48.98
228.117	32.94
228.335	-8.02
228.553	4.27
228.771	20.65
228.989	65.71
229.206	57.51
229.424	24.75
229.642	-16.21
229.86	53.42
230.077	55.47
230.295	-16.21
230.513	-28.5
230.731	-10.07
230.948	12.46
231.166	98.47
231.384	12.46
231.601	10.41
231.819	47.27
232.037	18.6
232.254	49.32
232.472	-8.02
232.689	-8.02
232.907	2.22
233.125	4.27
233.342	-38.74
233.56	-38.74
233.777	-44.88
233.995	-8.02
234.213	-12.12
234.43	59.56
234.648	-10.07
234.865	-14.17
235.083	24.75
235.3	4.27
235.518	24.75
235.735	18.6
235.953	-3.93
236.17	-48.98
236.388	-3.93
236.605	65.71
236.822	10.41
237.04	14.51
237.257	18.6
237.475	57.51
237.692	47.27
237.909	-10.07
238.127	80.04
238.344	-44.88
238.562	-12.12
238.779	-5.97
238.996	-1.88
239.214	16.55
239.431	32.94
239.648	-20.31
239.865	37.03
240.083	14.51
240.3	-28.5
240.517	8.36
240.735	8.36
240.952	37.03
241.169	-3.93
241.386	34.99
241.603	-10.07
241.821	0.17
242.038	32.94
242.255	41.13
242.472	59.56
242.689	20.65
242.907	49.32
243.124	16.55
243.341	47.27
243.558	37.03
243.775	-18.26
243.992	-14.17
244.209	-16.21
244.426	14.51
244.643	49.32
244.86	-34.64
245.078	-46.93
245.295	88.23
245.512	-3.93
245.729	-30.55
245.946	55.47
246.163	14.51
246.38	-30.55
246.597	37.03
246.814	16.55
247.031	-8.02
247.248	-40.79
247.464	-65.36
247.681	69.8
247.898	2.22
248.115	20.65
248.332	8.36
248.549	-16.21
248.766	24.75
248.983	0.17
249.2	18.6
249.417	86.19
249.633	-30.55
249.85	-30.55
250.067	73.9
250.284	71.85
250.501	22.7
250.717	-14.17
250.934	2.22
251.151	49.32
251.368	12.46
251.585	59.56
251.801	65.71
252.018	-5.97
252.235	77.99
252.451	-46.93
252.668	22.7
252.885	20.65
253.102	-28.5
253.318	41.13
253.535	-46.93
253.752	-12.12
253.968	69.8
254.185	41.13
254.401	14.51
254.618	16.55
254.835	34.99
255.051	26.79
255.268	59.56
255.484	77.99
255.701	-24.4
255.917	-22.36
256.134	8.36
256.351	26.79
256.567	30.89
256.784	49.32
257	6.31
257.217	-79.7
257.433	-46.93
257.65	-24.4
257.866	71.85
258.082	28.84
258.299	-38.74
258.515	18.6
258.732	20.65
258.948	4.27
259.165	20.65
259.381	26.79
259.597	10.41
259.814	43.18
260.03	-16.21
260.246	26.79
260.463	49.32
260.679	-48.98
260.895	41.13
261.112	2.22
261.328	0.17
261.544	-24.4
261.761	34.99
261.977	75.95
262.193	-32.6
262.409	34.99
262.626	92.33
262.842	26.79
263.058	24.75
263.274	51.37
263.49	-1.88
263.707	-28.5
263.923	45.23
264.139	49.32
264.355	2.22
264.571	-24.4
264.787	2.22
265.004	47.27
265.22	-44.88
265.436	-14.17
265.652	-12.12
265.868	43.18
266.084	30.89
266.3	-18.26
266.516	14.51
266.732	24.75
266.948	-8.02
267.164	18.6
267.38	-55.12
267.596	-34.64
267.812	26.79
268.028	0.17
268.244	14.51
268.46	4.27
268.676	28.84
268.892	41.13
269.108	51.37
269.324	16.55
269.54	-40.79
269.756	6.31
269.972	-28.5
270.188	49.32
270.403	22.7
270.619	4.27
270.835	-20.31
271.051	43.18
271.267	73.9
271.483	116.9
271.698	59.56
271.914	20.65
272.13	75.95
272.346	-18.26
272.562	32.94
272.777	22.7
272.993	20.65
273.209	0.17
273.425	10.41
273.64	8.36
273.856	12.46
274.072	-38.74
274.287	10.41
274.503	26.79
274.719	24.75
274.934	22.7
275.15	-55.12
275.366	4.27
275.581	67.75
275.797	16.55
276.012	45.23
276.228	28.84
276.444	-36.69
276.659	67.75
276.875	34.99
277.09	-8.02
277.306	88.23
277.521	32.94
277.737	20.65
277.952	57.51
278.168	49.32
278.383	34.99
278.599	20.65
278.814	2.22
279.03	22.7
279.245	18.6
279.461	65.71
279.676	102.57
279.892	-24.4
280.107	-79.7
280.322	82.09
280.538	34.99
280.753	32.94
280.969	43.18
281.184	32.94
281.399	-30.55
281.615	32.94
281.83	-20.31
282.045	67.75
282.26	-14.17
282.476	4.27
282.691	6.31
282.906	43.18
283.122	82.09
283.337	100.52
283.552	10.41
283.767	0.17
283.983	75.95
284.198	2.22
284.413	88.23
284.628	-1.88
284.843	24.75
285.058	41.13
285.274	-40.79
285.489	69.8
285.704	-42.84
285.919	53.42
286.134	92.33
286.349	0.17
286.564	6.31
286.779	90.28
286.995	41.13
287.21	-5.97
287.425	41.13
287.64	-22.36
287.855	-16.21
288.07	24.75
288.285	45.23
288.5	55.47
288.715	-28.5
288.93	14.51
289.145	61.61
289.36	71.85
289.575	75.95
289.79	77.99
290.004	51.37
290.219	18.6
290.434	-1.88
290.649	47.27
290.864	-18.26
291.079	41.13
291.294	-5.97
291.509	-16.21
291.724	49.32
291.938	61.61
292.153	98.47
292.368	10.41
292.583	20.65
292.798	61.61
293.012	-12.12
293.227	30.89
293.442	-8.02
293.657	12.46
293.871	-16.21
294.086	28.84
294.301	104.62
294.516	41.13
294.73	-24.4
294.945	-1.88
295.16	71.85
295.374	-16.21
295.589	59.56
295.804	20.65
296.018	-12.12
296.233	26.79
296.447	22.7
296.662	14.51
296.877	8.36
297.091	39.08
297.306	0.17
297.52	55.47
297.735	-1.88
297.949	20.65
298.164	47.27
298.378	4.27
298.593	14.51
298.807	-22.36
299.022	0.17
299.236	65.71
299.451	94.38
299.665	26.79
299.88	-18.26
300.094	-44.88
300.309	24.75
300.523	-38.74
300.737	32.94
300.952	49.32
301.166	-55.12
301.381	-1.88
301.595	18.6
301.809	8.36
302.024	16.55
302.238	-5.97
302.452	53.42
302.667	45.23
302.881	24.75
303.095	43.18
303.309	-1.88
303.524	0.17
303.738	39.08
303.952	-5.97
304.166	-1.88
304.381	-1.88
304.595	86.19
304.809	32.94
305.023	-96.08
305.237	20.65
305.452	16.55
305.666	-5.97
305.88	18.6
306.094	4.27
306.308	14.51
306.522	-5.97
306.736	22.7
306.95	24.75
307.164	18.6
307.379	-8.02
307.593	73.9
307.807	45.23
308.021	39.08
308.235	28.84
308.449	6.31
308.663	37.03
308.877	71.85
309.091	-8.02
309.305	86.19
309.519	32.94
309.733	12.46
309.947	20.65
310.161	96.43
310.374	80.04
310.588	67.75
310.802	20.65
311.016	53.42
311.23	-16.21
311.444	-44.88
311.658	24.75
311.872	6.31
312.085	49.32
312.299	28.84
312.513	24.75
312.727	69.8
312.941	45.23
313.154	-55.12
313.368	77.99
313.582	65.71
313.796	80.04
314.009	18.6
314.223	8.36
314.437	-53.08
314.651	-16.21
314.864	32.94
315.078	118.95
315.292	-32.6
315.505	24.75
315.719	24.75
315.933	20.65
316.146	10.41
316.36	10.41
316.573	0.17
316.787	-32.6
317.001	-30.55
317.214	-22.36
317.428	47.27
317.641	39.08
317.855	-30.55
318.068	77.99
318.282	-5.97
318.495	32.94
318.709	47.27
318.922	10.41
319.136	47.27
319.349	-32.6
319.563	75.95
319.776	20.65
319.99	47.27
320.203	41.13
320.417	65.71
320.63	34.99
320.843	-40.79
321.057	59.56
321.27	45.23
321.483	8.36
321.697	-16.21
321.91	34.99
322.124	24.75
322.337	28.84
322.55	-5.97
322.763	24.75
322.977	-48.98
323.19	61.61
323.403	12.46
323.617	22.7
323.83	30.89
324.043	20.65
324.256	10.41
324.469	45.23
324.683	-91.99
324.896	55.47
325.109	18.6
325.322	61.61
325.535	82.09
325.748	8.36
325.962	-22.36
326.175	92.33
326.388	49.32
326.601	-18.26
326.814	82.09
327.027	49.32
327.24	-16.21
327.453	10.41
327.666	-20.31
327.879	18.6
328.092	143.53
328.305	-1.88
328.518	-69.46
328.731	73.9
328.944	24.75
329.157	-10.07
329.37	-53.08
329.583	30.89
329.796	51.37
330.009	-61.27
330.222	53.42
330.435	121
330.648	65.71
330.861	-38.74
331.073	121
331.286	49.32
331.499	6.31
331.712	73.9
331.925	49.32
332.138	37.03
332.35	55.47
332.563	6.31
332.776	41.13
332.989	30.89
333.202	-22.36
333.414	0.17
333.627	-1.88
333.84	0.17
334.053	-38.74
334.265	-48.98
334.478	16.55
334.691	18.6
334.903	-44.88
335.116	-1.88
335.329	34.99
335.541	-3.93
335.754	16.55
335.966	108.71
336.179	86.19
336.392	-87.89
336.604	-3.93
336.817	43.18
337.029	77.99
337.242	59.56
337.454	41.13
337.667	-30.55
337.88	90.28
338.092	26.79
338.305	47.27
338.517	22.7
338.729	75.95
338.942	-67.41
339.154	-12.12
339.367	-20.31
339.579	30.89
339.792	-5.97
340.004	45.23
340.217	51.37
340.429	49.32
340.641	77.99
340.854	2.22
341.066	32.94
341.278	55.47
341.491	-14.17
341.703	37.03
341.915	28.84
342.128	-24.4
342.34	84.14
342.552	53.42
342.764	-46.93
342.977	65.71
343.189	71.85
343.401	4.27
343.613	-10.07
343.826	24.75
344.038	47.27
344.25	41.13
344.462	30.89
344.674	16.55
344.886	82.09
345.099	32.94
345.311	121
345.523	-8.02
345.735	-28.5
345.947	18.6
346.159	65.71
346.371	22.7
346.583	45.23
346.795	6.31
347.007	2.22
347.219	37.03
347.431	37.03
347.643	4.27
347.855	6.31
348.067	18.6
348.279	2.22
348.491	75.95
348.703	18.6
348.915	94.38
349.127	-30.55
349.339	82.09
349.551	-32.6
349.763	41.13
349.975	61.61
350.187	51.37
350.399	26.79
350.61	67.75
350.822	14.51
351.034	-8.02
351.246	-22.36
351.458	80.04
351.669	41.13
351.881	14.51
352.093	12.46
352.305	0.17
352.517	26.79
352.728	0.17
352.94	16.55
353.152	8.36
353.363	57.51
353.575	-5.97
353.787	73.9
353.999	59.56
354.21	24.75
354.422	12.46
354.633	32.94
354.845	-57.17
355.057	45.23
355.268	73.9
355.48	123.05
355.692	-8.02
355.903	59.56
356.115	16.55
356.326	49.32
356.538	47.27
356.749	63.66
356.961	47.27
357.172	32.94
357.384	12.46
357.595	77.99
357.807	18.6
358.018	-14.17
358.23	30.89
358.441	4.27
358.653	-24.4
358.864	41.13
359.075	-5.97
359.287	32.94
359.498	73.9
359.709	73.9
359.921	16.55
360.132	30.89
360.344	90.28
360.555	37.03
360.766	82.09
360.977	-3.93
361.189	-20.31
361.4	12.46
361.611	-1.88
361.823	34.99
362.034	-10.07
362.245	26.79
362.456	63.66
362.667	26.79
362.879	24.75
363.09	49.32
363.301	6.31
363.512	28.84
363.723	63.66
363.935	59.56
364.146	16.55
364.357	28.84
364.568	51.37
364.779	41.13
364.99	-10.07
365.201	-24.4
365.412	12.46
365.623	80.04
365.834	114.86
366.045	34.99
366.256	59.56
366.467	67.75
366.678	67.75
366.889	22.7
367.1	-16.21
367.311	75.95
367.522	98.47
367.733	0.17
367.944	45.23
368.155	45.23
368.366	71.85
368.577	53.42
368.788	2.22
368.999	24.75
369.209	53.42
369.42	82.09
369.631	47.27
369.842	-10.07
370.053	67.75
370.264	45.23
370.474	45.23
370.685	26.79
370.896	6.31
371.107	82.09
371.317	65.71
371.528	41.13
371.739	26.79
371.95	110.76
372.16	45.23
372.371	41.13
372.582	-14.17
372.792	18.6
373.003	32.94
373.214	-8.02
373.424	32.94
373.635	16.55
373.846	10.41
374.056	10.41
374.267	51.37
374.477	49.32
374.688	55.47
374.898	51.37
375.109	16.55
375.319	45.23
375.53	92.33
375.74	45.23
375.951	88.23
376.161	-14.17
376.372	-3.93
376.582	47.27
376.793	0.17
377.003	-8.02
377.214	39.08
377.424	-24.4
377.635	49.32
377.845	47.27
378.055	96.43
378.266	49.32
378.476	82.09
378.686	69.8
378.897	57.51
379.107	0.17
379.317	43.18
379.528	49.32
379.738	45.23
379.948	12.46
380.158	-16.21
380.369	57.51
380.579	-1.88
380.789	45.23
380.999	26.79
381.21	94.38
381.42	75.95
381.63	32.94
381.84	51.37
382.05	57.51
382.261	86.19
382.471	24.75
382.681	51.37
382.891	45.23
383.101	4.27
383.311	43.18
383.521	49.32
383.731	8.36
383.941	65.71
384.151	18.6
384.361	24.75
384.571	116.9
384.781	77.99
384.991	12.46
385.201	86.19
385.411	106.67
385.621	32.94
385.831	-20.31
386.041	20.65
386.251	77.99
386.461	0.17
386.671	16.55
386.881	55.47
387.091	-20.31
387.301	41.13
387.511	-22.36
387.72	51.37
387.93	32.94
388.14	84.14
388.35	10.41
388.56	65.71
388.769	16.55
388.979	18.6
389.189	8.36
389.399	51.37
389.609	65.71
389.818	57.51
390.028	2.22
390.238	18.6
390.447	65.71
390.657	65.71
390.867	8.36
391.076	51.37
391.286	49.32
391.496	28.84
391.705	-14.17
391.915	125.1
392.125	88.23
392.334	49.32
392.544	84.14
392.753	71.85
392.963	65.71
393.172	47.27
393.382	18.6
393.591	61.61
393.801	2.22
394.01	65.71
394.22	94.38
394.429	123.05
394.639	18.6
394.848	131.24
395.058	100.52
395.267	100.52
395.477	59.56
395.686	143.53
395.895	139.43
396.105	37.03
396.314	168.1
396.524	34.99
396.733	125.1
396.942	51.37
397.152	61.61
397.361	100.52
397.57	6.31
397.78	100.52
397.989	57.51
398.198	73.9
398.407	110.76
398.617	104.62
398.826	100.52
399.035	16.55
399.244	125.1
399.453	141.48
399.663	125.1
399.872	55.47
400.081	131.24
400.29	174.25
400.499	53.42
400.708	116.9
400.917	24.75
401.127	133.29
401.336	34.99
401.545	53.42
401.754	106.67
401.963	43.18
402.172	65.71
402.381	141.48
402.59	37.03
402.799	157.86
403.008	73.9
403.217	135.34
403.426	100.52
403.635	125.1
403.844	90.28
404.053	61.61
404.262	143.53
404.471	159.91
404.68	114.86
404.888	151.72
405.097	75.95
405.306	145.58
405.515	28.84
405.724	196.78
405.933	127.14
406.142	180.39
406.35	166.06
406.559	166.06
406.768	47.27
406.977	217.26
407.185	188.58
407.394	192.68
407.603	168.1
407.812	184.49
408.02	225.45
408.229	200.87
408.438	180.39
408.646	274.6
408.855	243.88
409.064	323.75
409.272	196.78
409.481	321.7
409.69	286.89
409.898	266.41
410.107	313.51
410.315	233.64
410.524	290.98
410.733	333.99
410.941	344.23
411.15	436.39
411.358	352.42
411.567	407.72
411.775	336.04
411.984	358.57
412.192	424.1
412.401	442.53
412.609	405.67
412.818	387.24
413.026	491.68
413.234	483.49
413.443	524.45
413.651	510.11
413.86	532.64
414.068	530.59
414.276	542.88
414.485	610.47
414.693	602.27
414.901	632.99
415.11	606.37
415.318	635.04
415.526	651.42
415.734	692.38
415.943	770.21
416.151	678.05
416.359	733.34
416.567	868.51
416.776	821.41
416.984	845.98
417.192	921.76
417.4	876.7
417.608	852.13
417.817	932
418.025	946.33
418.233	1024.16
418.441	1081.5
418.649	1083.55
418.857	1069.21
419.065	1138.84
419.273	1274.01
419.481	1265.82
419.689	1382.55
419.897	1388.69
420.105	1421.46
420.313	1515.67
420.521	1530
420.729	1499.28
420.937	1618.07
421.145	1681.55
421.353	1757.33
421.561	1796.24
421.769	1874.06
421.977	1953.93
422.185	1886.35
422.393	2125.96
422.601	2068.62
422.809	1982.6
423.017	2132.11
423.224	2156.68
423.432	2277.51
423.64	2265.22
423.848	2439.3
424.056	2427.01
424.263	2693.25
424.471	2705.54
424.679	2730.11
424.887	2834.56
425.094	3000.44
425.302	2826.37
425.51	2957.44
425.718	3147.9
425.925	3119.23
426.133	3375.22
426.341	3479.67
426.548	3631.22
426.756	3676.27
426.964	3549.3
427.171	3842.16
427.379	3915.89
427.586	4141.16
427.794	4294.76
428.001	4360.3
428.209	4532.33
428.417	4632.68
428.624	4796.51
428.832	4739.17
429.039	4759.65
429.247	4595.81
429.454	5159
429.662	5691.48
429.869	5191.77
430.076	5519.45
430.284	5400.66
430.491	5699.67
430.699	5875.79
430.906	5980.24
431.114	5961.81
431.321	6182.99
431.528	6500.42
431.736	6737.99
431.943	6998.08
432.15	6817.86
432.358	6934.59
432.565	7309.37
432.772	7231.55
432.979	7725.11
433.187	7630.9
433.394	7757.88
433.601	8284.2
433.808	8394.79
434.016	8228.91
434.223	8581.16
434.43	9240.61
434.637	9142.3
434.844	9631.77
435.052	9850.9
435.259	9742.36
435.466	9840.66
435.673	9652.25
435.88	10338.32
436.087	10807.3
436.294	10856.45
436.501	10743.81
436.708	10766.34
436.915	10969.09
437.122	11909.11
437.329	11765.75
437.537	12173.3
437.743	12107.76
437.95	12232.69
438.157	12802.02
438.364	13135.84
438.571	13268.96
438.778	13266.91
438.985	14622.67
439.192	13963.22
439.399	14516.17
439.606	14196.69
439.813	14682.06
440.02	15812.54
440.227	15536.06
440.433	15212.48
440.64	15900.6
440.847	15726.52
441.054	16238.51
441.261	17035.17
441.467	16631.72
441.674	17338.27
441.881	18081.69
442.088	17999.77
442.294	17420.19
442.501	18091.93
442.708	18571.15
442.914	19285.89
443.121	20043.64
443.328	19574.66
443.534	20803.44
443.741	20387.7
443.948	20057.98
444.154	21585.76
444.361	21290.85
444.568	21606.24
444.774	21602.15
444.981	21837.66
445.187	22130.52
445.394	23529.28
445.6	23150.41
445.807	25343.78
446.013	24352.57
446.22	24551.22
446.426	25730.85
446.633	25792.29
446.839	26543.89
447.046	25427.75
447.252	26894.1
447.459	27010.83
447.665	26838.8
447.871	28276.48
448.078	28940.02
448.284	27746.05
448.491	28593.91
448.697	29503.21
448.903	30439.13
449.11	30461.66
449.316	29789.92
449.522	30160.61
449.728	31235.79
449.935	31723.21
450.141	31532.75
450.347	32296.64
450.553	31192.78
450.76	31631.05
450.966	32712.38
451.172	32364.22
451.378	33160.88
451.584	32200.38
451.791	33023.67
451.997	32779.96
452.203	33564.33
452.409	33410.73
452.615	33242.8
452.821	32095.94
453.027	31571.66
453.233	33455.79
453.44	32116.42
453.646	32345.79
453.852	32489.15
454.058	33076.91
454.264	31960.77
454.47	32825.01
454.676	31942.34
454.882	33199.79
455.088	30445.27
455.294	30496.47
455.5	31088.34
455.705	31153.87
455.911	30164.7
456.117	29708.01
456.323	29200.11
456.529	27569.93
456.735	28548.86
456.941	28057.34
457.147	27973.38
457.352	26683.16
457.558	26490.65
457.764	26279.71
457.97	26353.43
458.176	25634.6
458.381	25470.76
458.587	24190.78
458.793	24284.98
458.999	23261
459.204	24379.19
459.41	24104.76
459.616	22107.99
459.821	22527.83
460.027	22478.68
460.233	21858.14
460.438	20707.18
460.644	20954.99
460.85	19955.58
461.055	19545.98
461.261	19914.62
461.466	18239.38
461.672	17608.61
461.878	19107.72
462.083	17813.4
462.289	17532.83
462.494	17084.33
462.7	16478.13
462.905	16013.24
463.111	16809.9
463.316	16768.94
463.522	16187.32
463.727	16332.72
463.932	16349.11
464.138	16158.64
464.343	16293.81
464.549	15732.67
464.754	15984.57
464.959	16132.02
465.165	16138.16
465.37	15413.18
465.575	14856.14
465.781	15626.17
465.986	15753.15
466.191	14909.38
466.397	14933.96
466.602	13955.03
466.807	14321.62
467.012	14399.44
467.218	14499.79
467.423	14387.15
467.628	14458.83
467.833	14923.72
468.038	14555.08
468.244	14106.58
468.449	14501.84
468.654	14241.75
468.859	13977.56
469.064	13805.53
469.269	13279.2
469.474	13359.07
469.679	13594.59
469.885	13232.1
470.09	13713.37
470.295	13496.28
470.5	12941.29
470.705	13232.1
470.91	12976.1
471.115	12845.03
471.32	13000.68
471.525	12795.88
471.73	12443.63
471.935	12675.05
472.139	12038.13
472.344	12181.49
472.549	12283.89
472.754	12054.51
472.959	11665.4
473.164	11472.89
473.369	11431.93
473.574	11902.97
473.778	11835.38
473.983	11546.62
474.188	11497.47
474.393	11018.24
474.598	11272.19
474.802	10952.71
475.007	10993.67
475.212	10850.31
475.417	10582.03
475.621	10584.07
475.826	10555.4
476.031	10463.24
476.235	10184.72
476.44	10346.51
476.645	10135.57
476.849	10237.97
477.054	10027.03
477.259	9666.58
477.463	9697.3
477.668	9699.35
477.872	9639.96
478.077	9805.85
478.282	9177.12
478.486	9226.27
478.691	9170.97
478.895	9173.02
479.1	9109.54
479.304	9322.52
479.509	8874.02
479.713	9076.77
479.918	8763.43
480.122	8521.77
480.326	8812.58
480.531	8921.12
480.735	8845.35
480.94	8501.29
481.144	8867.88
481.348	8372.27
481.553	8599.59
481.757	8491.05
481.961	8636.45
482.166	8587.3
482.37	8366.12
482.574	8261.68
482.778	8460.33
482.983	8699.94
483.187	8384.55
483.391	8503.34
483.595	8417.32
483.8	8214.57
484.004	8364.08
484.208	8654.89
484.412	8542.25
484.616	8486.95
484.821	8325.16
485.025	8384.55
485.229	8532.01
485.433	8445.99
485.637	8615.98
485.841	8407.08
486.045	8286.25
486.249	8353.84
486.453	8065.07
486.657	8333.36
486.861	8427.56
487.065	8413.23
487.269	8306.73
487.473	8187.95
487.677	8628.26
487.881	8495.15
488.085	8333.36
488.289	8556.58
488.493	8491.05
488.697	8339.5
488.901	8540.2
489.105	8476.71
489.309	8464.43
489.512	8521.77
489.716	8405.03
489.92	8390.7
490.124	8441.9
490.328	8597.54
490.531	8687.65
490.735	8810.53
490.939	8724.52
491.143	8652.84
491.346	8783.91
491.55	8675.37
491.754	8871.97
491.958	8683.56
492.161	8867.88
492.365	9027.62
492.569	8822.82
492.772	8757.29
492.976	8894.5
493.18	9119.78
493.383	9187.36
493.587	9232.41
493.79	9295.9
493.994	9138.21
494.197	9267.23
494.401	9355.29
494.605	9383.96
494.808	9660.44
495.012	9515.03
495.215	9605.14
495.419	9689.11
495.622	9701.4
495.825	9775.13
496.029	9801.75
496.232	10160.14
496.436	10158.1
496.639	10346.51
496.843	10450.96
497.046	10694.66
497.249	10645.51
497.453	10586.12
497.656	10805.25
497.859	10930.18
498.063	10897.41
498.266	11094.02
498.469	11169.79
498.673	11245.57
498.876	11528.19
499.079	11610.11
499.282	11636.73
499.485	11685.88
499.689	11665.4
499.892	12050.42
500.095	12042.23
500.298	12445.68
500.501	12156.91
500.705	12486.64
500.908	12722.15
501.111	12795.88
501.314	13076.45
501.517	13170.66
501.72	13148.13
501.923	13197.28
502.126	13752.28
502.329	13688.79
502.532	13844.44
502.735	13983.7
502.938	14469.07
503.141	13979.61
503.344	14460.88
503.547	14585.8
503.75	14870.47
503.953	15052.74
504.156	15224.77
504.359	15292.35
504.562	15392.7
504.765	15724.47
504.968	15867.83
505.17	15833.02
505.373	16258.99
505.576	16514.99
505.779	16744.36
505.982	16601.01
506.185	17123.24
506.387	16943.02
506.59	17209.25
506.793	17596.32
506.996	17733.53
507.198	18214.8
507.401	18075.54
507.604	18376.59
507.807	18730.89
508.009	18818.96
508.212	18982.79
508.415	19335.04
508.617	19867.52
508.82	19449.73
509.022	19521.41
509.225	20221.81
509.428	20348.79
509.63	20346.74
509.833	20453.23
510.035	21006.19
510.238	21251.94
510.44	21305.19
510.643	22079.32
510.845	21720.93
511.048	21890.91
511.25	22443.86
511.453	22652.75
511.655	23074.63
511.858	23312.2
512.06	23201.61
512.262	23371.59
512.465	23596.87
512.667	23852.86
512.87	23977.79
513.072	24184.63
513.274	24760.11
513.477	24887.09
513.679	25495.33
513.881	25304.87
514.084	25859.87
514.286	26124.06
514.488	26054.43
514.69	26996.49
514.893	26820.37
515.095	27195.15
515.297	27455.24
515.499	27260.68
515.701	27836.16
515.904	28538.62
516.106	28483.32
516.308	28765.94
516.51	29335.28
516.712	29189.87
516.914	29693.67
517.116	29959.91
517.318	30258.91
517.52	30172.89
517.722	30519
517.925	31258.32
518.127	31354.57
518.329	31508.17
518.531	31899.33
518.733	32177.86
518.935	32399.04
519.136	32632.5
519.338	32868.02
519.54	33304.24
519.742	33572.52
519.944	34041.51
520.146	34322.08
520.348	34508.44
520.55	34778.78
520.752	35333.78
520.954	35503.76
521.155	35559.05
521.357	36075.14
521.559	36429.44
521.761	36654.72
521.963	36580.99
522.164	36638.33
522.366	36804.22
522.568	37478
522.77	37832.3
522.971	38364.77
523.173	37951.08
523.375	38514.27
523.576	38340.19
523.778	39048.79
523.98	39196.24
524.181	39624.27
524.383	39169.62
524.584	40087.11
524.786	40242.76
524.988	39583.31
525.189	40459.84
525.391	40887.87
525.592	40967.74
525.794	41018.94
525.995	41125.43
526.197	41190.97
526.398	41107
526.6	41692.72
526.801	41791.02
527.003	42182.18
527.204	42329.64
527.406	42489.38
527.607	42382.88
527.808	42698.27
528.01	42245.67
528.211	42819.1
528.412	43374.1
528.614	43093.53
528.815	43193.88
529.016	43527.7
529.218	43640.34
529.419	43824.65
529.62	43163.16
529.822	43361.81
530.023	43935.24
530.224	44051.98
530.425	44045.83
530.626	43759.12
530.828	43666.96
531.029	44946.94
531.23	44060.17
531.431	44371.46
531.632	44613.12
531.833	44692.99
532.035	44273.16
532.236	44576.26
532.437	44576.26
532.638	44574.21
532.839	44705.28
533.04	44828.16
533.241	44291.59
533.442	45422.07
533.643	44652.03
533.844	44908.03
534.045	45045.24
534.246	44910.08
534.447	45170.17
534.648	45149.69
534.849	44969.47
535.05	44776.96
535.251	45075.96
535.451	45032.96
535.652	45510.13
535.853	44791.3
536.054	45217.27
536.255	45250.04
536.456	44586.5
536.657	45334.01
536.857	45012.48
537.058	44707.33
537.259	45399.54
537.46	45065.72
537.66	44850.69
537.861	45065.72
538.062	45243.9
538.263	45624.82
538.463	45114.87
538.664	45164.03
538.865	45553.14
539.065	45430.26
539.266	44955.13
539.466	45600.24
539.667	45254.14
539.868	45342.2
540.068	45239.8
540.269	44961.28
540.469	45446.65
540.67	45145.59
540.87	45297.14
541.071	45389.3
541.271	45161.98
541.472	44736
541.672	45202.94
541.873	44996.09
542.073	44731.9
542.274	45229.56
542.474	45014.52
542.675	44533.25
542.875	45596.15
543.075	45184.51
543.276	44629.51
543.476	45460.98
543.676	45065.72
543.877	44938.75
544.077	45098.49
544.277	45127.16
544.478	44623.36
544.678	44981.76
544.878	44885.5
545.078	45270.52
545.279	44760.58
545.479	44682.75
545.679	44746.24
545.879	45440.5
546.079	45159.93
546.28	44860.93
546.48	44635.65
546.68	44731.9
546.88	44998.14
547.08	45043.2
547.28	44588.55
547.48	44758.53
547.68	44883.45
547.88	44801.54
548.081	44809.73
548.281	44779.01
548.481	44754.43
548.681	45334.01
548.881	44930.56
549.081	44963.32
549.28	44518.92
549.48	44932.61
549.68	44977.66
549.88	45168.12
550.08	44629.51
550.28	44776.96
550.48	44811.77
550.68	44887.55
550.88	44576.26
551.08	44779.01
551.279	44799.49
551.479	44260.87
551.679	44590.59
551.879	44434.95
552.079	44908.03
552.278	44852.73
552.478	44856.83
552.678	44537.35
552.878	45090.3
553.077	44566.02
553.277	44144.14
553.477	45026.81
553.676	44852.73
553.876	44486.15
554.076	44015.12
554.275	44146.19
554.475	44346.89
554.674	44619.27
554.874	44002.83
555.074	43927.05
555.273	44170.76
555.473	44350.98
555.672	43615.76
555.872	43892.24
556.071	44092.94
556.271	44451.33
556.47	43961.87
556.67	43777.55
556.869	43660.82
557.068	43730.45
557.268	43554.32
557.467	43798.03
557.667	43357.72
557.866	43785.74
558.065	43142.68
558.265	43359.77
558.464	43273.75
558.663	43785.74
558.863	43064.86
559.062	43564.56
559.261	43032.09
559.461	43693.58
559.66	42782.24
559.859	43251.22
560.058	42933.79
560.258	43060.76
560.457	42602.02
560.656	42565.15
560.855	42786.33
561.054	42790.43
561.253	42413.6
561.453	42739.23
561.652	42839.58
561.851	42841.63
562.05	42825.25
562.249	42575.39
562.448	42909.21
562.647	42677.79
562.846	42257.96
563.045	42159.66
563.244	41983.53
563.443	42446.37
563.642	41481.78
563.841	42104.36
564.04	41594.42
564.239	42180.14
564.438	41780.78
564.637	41639.47
564.836	41721.39
565.035	41393.72
565.234	41719.34
565.432	41227.83
565.631	41406
565.83	41381.43
566.029	41537.07
566.228	40863.29
566.427	40652.35
566.625	40908.35
566.824	40488.51
567.023	40414.79
567.222	40179.27
567.42	40885.82
567.619	40816.19
567.818	40611.39
568.016	40463.94
568.215	40298.05
568.414	40064.58
568.612	40646.21
568.811	39790.16
569.01	40187.46
569.208	39546.45
569.407	39853.64
569.605	39302.74
569.804	39876.17
570.002	39317.07
570.201	39689.81
570.4	39243.35
570.598	38846.04
570.797	39063.13
570.995	39224.92
571.193	38405.73
571.392	39093.85
571.59	39052.89
571.789	38747.74
571.987	38889.05
572.186	38626.91
572.384	38397.54
572.582	38563.42
572.781	38309.47
572.979	37754.47
573.177	37932.65
573.376	38069.86
573.574	37815.91
573.772	38239.84
573.971	37996.13
574.169	37621.36
574.367	37521.01
574.565	37453.42
574.763	37006.97
574.962	37006.97
575.16	36683.39
575.358	37031.54
575.556	36599.42
575.754	37152.37
575.952	36494.97
576.151	36656.76
576.349	36540.03
576.547	36646.52
576.745	36331.14
576.943	36277.89
577.141	36359.81
577.339	36013.7
577.537	35987.08
577.735	35831.43
577.933	35481.23
578.131	35491.47
578.329	35565.2
578.527	35315.34
578.725	35264.14
578.923	35319.44
579.121	34926.23
579.319	35061.4
579.516	35094.16
579.714	35022.48
579.912	34872.98
580.11	34555.55
580.308	34932.37
580.506	34528.92
580.704	34049.7
580.901	34373.28
581.099	34221.73
581.297	33607.34
581.495	33916.58
581.692	34356.89
581.89	33633.96
582.088	34068.13
582.285	33781.42
582.483	33570.47
582.681	33318.57
582.878	33660.59
583.076	33320.62
583.274	33541.8
583.471	32865.97
583.669	33064.63
583.866	32728.76
584.064	33130.16
584.262	32333.5
584.459	32833.21
584.657	32636.6
584.854	32693.94
585.052	31841.99
585.249	32612.03
585.447	32519.87
585.644	31852.23
585.841	32231.1
586.039	32345.79
586.236	31960.77
586.434	31844.04
586.631	31555.27
586.828	31934.15
587.026	31461.07
587.223	31579.85
587.42	31110.86
587.618	31461.07
587.815	30998.23
588.012	30787.28
588.21	30879.44
588.407	30944.98
588.604	30600.92
588.801	30779.09
588.999	30764.76
589.196	30678.74
589.393	30301.92
589.59	30162.65
589.787	30422.75
589.984	30054.11
590.182	30039.78
590.379	30394.07
590.576	29587.18
590.773	29677.29
590.97	29585.13
591.167	29918.95
591.364	29042.42
591.561	29845.22
591.758	29198.06
591.955	29429.48
592.152	29335.28
592.349	29101.81
592.546	29099.76
592.743	29069.04
592.94	28573.43
593.137	29343.47
593.334	29038.32
593.531	28806.9
593.727	28706.55
593.924	28409.59
594.121	28456.7
594.318	28393.21
594.515	28034.81
594.712	28489.46
594.908	28114.69
595.105	28067.58
595.302	27801.35
595.499	27895.55
595.696	27870.98
595.892	27508.49
596.089	27746.05
596.286	27830.02
596.482	27227.92
596.679	27473.67
596.876	27320.07
597.072	27141.9
597.269	27303.69
597.466	27051.79
597.662	26906.38
597.859	26953.49
598.055	27066.13
598.252	26775.31
598.448	26636.05
598.645	26521.37
598.841	26234.65
599.038	26545.94
599.234	26607.38
599.431	26296.09
599.627	26029.85
599.824	26421.02
600.02	26021.66
600.217	26183.45
600.413	26097.44
600.609	25952.03
600.806	26027.81
601.002	26150.68
601.198	25321.26
601.395	25397.03
601.591	25282.34
601.787	25478.95
601.984	25233.19
602.18	25300.78
602.376	25261.87
602.572	24948.53
602.769	24815.41
602.965	25110.32
603.161	25114.41
603.357	24721.2
603.553	24815.41
603.75	24858.42
603.946	24557.36
604.142	24463.16
604.338	24131.39
604.534	24201.02
604.73	24110.91
604.926	23881.53
605.122	23826.24
605.318	23904.06
605.514	23549.76
605.71	23766.85
605.906	23863.1
606.102	23795.52
606.298	23476.04
606.494	23512.9
606.69	23459.65
606.886	23371.59
607.082	23136.07
607.278	23592.77
607.474	22947.66
607.67	23304.01
607.866	23013.2
608.062	23349.06
608.257	23002.96
608.453	22812.49
608.649	22855.5
608.845	22724.43
609.041	22904.65
609.236	22531.92
609.432	22372.18
609.628	22591.31
609.824	22355.8
610.019	22409.04
610.215	22345.56
610.411	22323.03
610.606	22120.28
610.802	22396.76
610.998	22368.09
611.193	22144.86
611.389	21956.44
611.584	21911.39
611.78	21780.32
611.976	21839.71
612.171	21831.52
612.367	21923.68
612.562	21679.97
612.758	21329.77
612.953	21342.05
613.149	21639.01
613.344	21380.96
613.539	21561.19
613.735	21350.24
613.93	21184.36
614.126	21143.4
614.321	21479.27
614.517	21157.74
614.712	21149.54
614.907	20834.16
615.103	21038.95
615.298	20885.36
615.493	21161.83
615.688	20692.85
615.884	21297
616.079	20352.88
616.274	20604.78
616.47	20668.27
616.665	20725.61
616.86	20584.3
617.055	20324.21
617.25	20561.78
617.445	20502.39
617.641	19881.85
617.836	20399.99
618.031	20316.02
618.226	20090.74
618.421	20017.02
618.616	20275.06
618.811	19668.86
619.006	20092.79
619.201	19599.23
619.396	19871.61
619.591	19398.53
619.786	19750.78
619.981	19328.9
620.176	19490.69
620.371	19222.41
620.566	19386.24
620.761	18980.75
620.956	19058.57
621.151	18466.7
621.346	18732.94
621.541	18663.31
621.735	18825.1
621.93	18405.27
622.125	18614.16
622.32	18089.88
622.515	18329.49
622.709	17997.72
622.904	18159.51
623.099	18161.56
623.294	17991.58
623.488	17745.82
623.683	17825.69
623.878	17412
624.072	17420.19
624.267	17455.01
624.462	17407.91
624.656	17121.19
624.851	17182.63
625.046	17041.32
625.24	16836.52
625.435	16813.99
625.629	16592.81
625.824	16834.47
626.018	16580.53
626.213	16156.6
626.407	16177.08
626.602	16035.77
626.796	16213.94
626.991	16224.18
627.185	16269.23
627.38	15957.94
627.574	15916.98
627.768	15861.69
627.963	15892.41
628.157	15464.38
628.352	15806.39
628.546	15441.86
628.74	15552.45
628.935	15167.43
629.129	15493.05
629.323	15050.69
629.517	14938.05
629.712	15079.36
629.906	14770.12
630.1	14833.61
630.294	14835.66
630.489	14561.23
630.683	14956.49
630.877	14266.32
631.071	14065.62
631.265	14669.77
631.459	14079.96
631.653	14268.37
631.848	14102.48
632.042	14098.39
632.236	14208.98
632.43	14002.13
632.624	13883.35
632.818	13690.84
633.012	13610.97
633.206	13832.15
633.4	13633.5
633.594	13486.04
633.788	13533.15
633.982	13567.96
634.176	13271.01
634.369	13305.82
634.563	13051.88
634.757	13127.65
634.951	13078.5
635.145	13023.2
635.339	13041.64
635.533	13006.82
635.726	13021.16
635.92	12775.4
636.114	12697.58
636.308	12642.28
636.501	12507.12
636.695	12650.47
636.889	12539.88
637.083	12330.99
637.276	12398.57
637.47	12345.33
637.664	12224.5
637.857	11993.08
638.051	11986.93
638.244	12095.47
638.438	11943.92
638.632	11728.89
638.825	11739.13
639.019	11534.33
639.212	11743.22
639.406	11626.49
639.599	11603.96
639.793	11495.42
639.986	11337.73
640.18	11532.28
640.373	11282.43
640.567	11100.16
640.76	10997.76
640.954	11061.25
641.147	10903.56
641.34	10700.81
641.534	10962.95
641.727	10749.96
641.92	10756.1
642.114	10625.03
642.307	10741.77
642.5	10651.66
642.694	10330.13
642.887	10354.7
643.08	10504.2
643.273	10305.55
643.467	10395.66
643.66	10151.95
643.853	10283.02
644.046	10065.94
644.239	10188.82
644.432	9938.96
644.626	10041.36
644.819	9871.38
645.012	9803.8
645.205	9615.38
645.398	9885.72
645.591	9596.95
645.784	9613.34
645.977	9529.37
646.17	9510.94
646.363	9488.41
646.556	9263.13
646.749	9168.93
646.942	9330.72
647.135	9275.42
647.328	9248.8
647.521	9119.78
647.714	8998.95
647.907	8894.5
648.099	8900.64
648.292	8951.84
648.485	8796.2
648.678	8740.9
648.871	8820.77
649.064	8769.57
649.256	8759.33
649.449	8409.13
649.642	8495.15
649.835	8366.12
650.027	8374.31
650.22	8255.53
650.413	8177.71
650.605	8222.77
650.798	7970.87
650.991	8181.81
651.183	8169.52
651.376	7860.27
651.568	8067.12
651.761	7938.1
651.954	7940.15
652.146	7868.47
652.339	7858.23
652.531	7741.49
652.724	7792.69
652.916	7768.12
653.109	7669.81
653.301	7704.63
653.494	7708.73
653.686	7399.48
653.879	7493.69
654.071	7520.31
654.263	7479.35
654.456	7292.99
654.648	7358.52
654.84	7170.11
655.033	7137.34
655.225	7094.33
655.417	7159.87
655.61	7143.49
655.802	7186.49
655.994	6803.52
656.186	7000.13
656.379	6916.16
656.571	6996.03
656.763	6676.55
656.955	6891.59
657.148	6883.39
657.34	6781
657.532	6584.39
657.724	6584.39
657.916	6664.26
658.108	6574.15
658.3	6520.9
658.492	6531.14
658.684	6408.26
658.876	6455.37
659.068	6490.18
659.26	6271.05
659.452	6295.63
659.644	6236.24
659.836	6123.6
660.028	6332.49
660.22	6086.73
660.412	6023.25
660.604	6015.05
660.796	6047.82
660.988	6187.08
661.18	5943.38
661.372	6119.5
661.563	5955.66
661.755	5783.63
661.947	5830.74
662.139	5779.54
662.331	5673.04
662.522	5806.16
662.714	5654.61
662.906	5711.96
663.097	5726.29
663.289	5568.6
663.481	5544.02
663.673	5433.43
663.864	5406.81
664.056	5292.12
664.247	5349.47
664.439	5474.39
664.631	5431.38
664.822	5232.73
665.014	5347.42
665.205	5267.55
665.397	5212.25
665.588	5136.48
665.78	5259.35
665.971	5040.22
666.163	5109.85
666.354	5136.48
666.546	5171.29
666.737	5072.99
666.929	5034.08
667.12	4999.26
667.311	5009.5
667.503	4915.3
667.694	4839.52
667.885	4872.29
668.077	4849.76
668.268	4823.14
668.459	4798.56
668.651	4816.99
668.842	4812.9
669.033	4724.83
669.224	4649.06
669.416	4692.07
669.607	4575.33
669.798	4620.39
669.989	4790.37
670.18	4520.04
670.371	4597.86
670.563	4546.66
670.754	4554.85
670.945	4626.53
671.136	4462.69
671.327	4431.98
671.518	4440.17
671.709	4397.16
671.9	4497.51
672.091	4325.48
672.282	4335.72
672.473	4229.23
672.664	4352.1
672.855	4329.58
673.046	4307.05
673.237	4171.88
673.428	4225.13
673.619	4270.19
673.809	4116.59
674	4214.89
674.191	4169.84
674.382	4028.53
674.573	4128.88
674.764	4016.24
674.954	4040.81
675.145	3973.23
675.336	4085.87
675.527	4016.24
675.717	4147.31
675.908	3911.79
676.099	3936.37
676.289	4008.05
676.48	3887.22
676.671	3893.36
676.861	3928.17
677.052	3850.35
677.243	3848.3
677.433	3895.41
677.624	3879.02
677.814	3760.24
678.005	3821.68
678.195	3831.92
678.386	3858.54
678.576	3838.06
678.767	3915.89
678.957	3821.68
679.148	3756.15
679.338	3733.62
679.529	3586.16
679.719	3760.24
679.909	3801.2
680.1	3649.65
680.29	3618.93
680.481	3661.94
680.671	3733.62
680.861	3733.62
681.052	3700.85
681.242	3711.09
681.432	3711.09
681.622	3612.79
681.813	3528.82
682.003	3620.98
682.193	3614.84
682.383	3702.9
682.573	3573.88
682.764	3584.12
682.954	3584.12
683.144	3537.01
683.334	3485.81
683.524	3580.02
683.714	3422.33
683.904	3528.82
684.094	3537.01
684.284	3500.15
684.474	3436.66
684.664	3489.91
684.854	3391.61
685.044	3465.33
685.234	3367.03
685.424	3383.42
685.614	3356.79
685.804	3405.94
685.994	3256.44
686.184	3461.24
686.374	3219.58
686.564	3352.7
686.753	3317.88
686.943	3262.58
687.133	3317.88
687.323	3252.35
687.513	3354.74
687.702	3317.88
687.892	3227.77
688.082	3246.2
688.272	3326.07
688.461	3432.57
688.651	3195
688.841	3221.63
689.03	3233.91
689.22	3139.71
689.41	3170.43
689.599	3319.93
689.789	3117.18
689.979	3260.54
690.168	3129.47
690.358	3235.96
690.547	3104.89
690.737	3180.67
690.926	3018.88
691.116	3192.95
691.305	3246.2
691.495	3090.56
691.684	3131.51
691.874	3221.63
692.063	3260.54
692.252	3025.02
692.442	3197.05
692.631	3088.51
692.82	3055.74
693.01	2969.73
693.199	3186.81
693.388	3043.45
693.578	3002.49
693.767	3088.51
693.956	3080.32
694.146	3133.56
694.335	3149.95
694.524	3004.54
694.713	3082.36
694.902	3203.19
695.092	3119.23
695.281	3129.47
695.47	3094.65
695.659	3059.84
695.848	3051.64
696.037	3000.44
696.226	3033.21
696.415	3035.26
696.604	3070.08
696.793	3020.92
696.982	3084.41
697.171	3174.52
697.36	2947.2
697.549	3082.36
697.738	2912.38
697.927	2975.87
698.116	3092.6
698.305	2951.29
698.494	3068.03
698.683	2975.87
698.872	3063.93
699.061	2910.33
699.25	2879.61
699.438	2902.14
699.627	3016.83
699.816	2891.9
700.005	3045.5
700.193	2990.21
700.382	3055.74
700.571	2949.25
700.76	2918.53
700.948	2887.81
701.137	2885.76
701.326	2996.35
701.514	2852.99
701.703	2951.29
701.892	2904.19
702.08	2898.05
702.269	2971.77
702.457	2967.68
702.646	2932.86
702.834	2910.33
703.023	2883.71
703.212	2939.01
703.4	2738.3
703.589	2916.48
703.777	2742.4
703.965	2738.3
704.154	2865.28
704.342	2830.46
704.531	2736.26
704.719	2691.2
704.907	2809.98
705.096	2723.97
705.284	2769.02
705.472	2705.54
705.661	2850.94
705.849	2687.11
706.037	2754.69
706.226	2732.16
706.414	2824.32
706.602	2705.54
706.79	2629.76
706.979	2635.91
707.167	2754.69
707.355	2728.07
707.543	2674.82
707.731	2801.79
707.919	2672.77
708.107	2734.21
708.296	2719.87
708.484	2588.8
708.672	2564.23
708.86	2621.57
709.048	2695.3
709.236	2646.15
709.424	2678.91
709.612	2689.15
709.8	2609.28
709.988	2654.34
710.176	2590.85
710.364	2500.74
710.551	2594.95
710.739	2508.93
710.927	2420.87
711.115	2416.77
711.303	2582.66
711.491	2594.95
711.679	2412.68
711.866	2414.73
712.054	2443.4
712.242	2394.25
712.43	2498.69
712.617	2334.86
712.805	2334.86
712.993	2390.15
713.181	2345.09
713.368	2371.72
713.556	2439.3
713.744	2410.63
713.931	2359.43
714.119	2390.15
714.306	2457.73
714.494	2312.33
714.682	2400.39
714.869	2396.29
715.057	2369.67
715.244	2326.66
715.432	2236.55
715.619	2384.01
715.807	2173.07
715.994	2214.02
716.182	2191.5
716.369	2261.13
716.556	2214.02
716.744	2181.26
716.931	2261.13
717.119	2302.09
717.306	2246.79
717.493	2121.87
717.681	2224.26
717.868	2105.48
718.055	2234.5
718.242	2252.94
718.43	2150.54
718.617	2113.67
718.804	2117.77
718.991	2105.48
719.179	2197.64
719.366	2076.81
719.553	2179.21
719.74	2117.77
719.927	2074.76
720.114	2099.34
720.301	2117.77
720.488	2082.95
720.676	2029.71
720.863	2252.94
721.05	2093.19
721.237	2099.34
721.424	2115.72
721.611	1964.17
721.798	2019.47
721.985	1910.93
722.172	1964.17
722.358	1878.16
722.545	1945.74
722.732	1915.02
722.919	2033.8
723.106	1878.16
723.293	2007.18
723.48	1941.65
723.667	1917.07
723.853	1843.34
724.04	1982.6
724.227	1968.27
724.414	1958.03
724.6	1904.78
724.787	1833.1
724.974	1929.36
725.161	2007.18
725.347	1902.73
725.534	1781.9
725.72	1802.38
725.907	1894.54
726.094	1745.04
726.28	1843.34
726.467	1859.73
726.653	1935.5
726.84	1755.28
727.027	1890.45
727.213	1704.08
727.4	1857.68
727.586	1826.96
727.773	1718.42
727.959	1745.04
728.145	1757.33
728.332	1749.14
728.518	1781.9
728.705	1788.05
728.891	1673.36
729.077	1779.86
729.264	1663.12
729.45	1689.74
729.636	1732.75
729.823	1659.03
730.009	1681.55
730.195	1728.66
730.382	1747.09
730.568	1616.02
730.754	1613.97
730.94	1697.94
731.126	1640.59
731.313	1689.74
731.499	1718.42
731.685	1679.51
731.871	1667.22
732.057	1624.21
732.243	1622.16
732.429	1513.62
732.615	1689.74
732.801	1628.31
732.987	1581.2
733.173	1552.53
733.359	1609.87
733.545	1536.15
733.731	1616.02
733.917	1480.85
734.103	1507.48
734.289	1583.25
734.475	1560.72
734.661	1570.96
734.847	1573.01
735.033	1527.96
735.219	1491.09
735.404	1548.44
735.59	1532.05
735.776	1501.33
735.962	1587.35
736.148	1628.31
736.333	1511.57
736.519	1527.96
736.705	1474.71
736.89	1464.47
737.076	1409.17
737.262	1454.23
737.447	1464.47
737.633	1413.27
737.819	1505.43
738.004	1530
738.19	1532.05
738.375	1400.98
738.561	1460.37
738.747	1443.99
738.932	1382.55
739.118	1405.08
739.303	1380.5
739.489	1450.13
739.674	1331.35
739.859	1400.98
740.045	1349.78
740.23	1435.8
740.416	1372.31
740.601	1368.21
740.786	1460.37
740.972	1286.3
741.157	1360.02
741.342	1376.41
741.528	1292.44
741.713	1382.55
741.898	1364.12
742.084	1388.69
742.269	1335.45
742.454	1302.68
742.639	1323.16
742.824	1335.45
743.01	1290.39
743.195	1224.86
743.38	1255.58
743.565	1204.38
743.75	1220.76
743.935	1220.76
744.12	1245.34
744.305	1228.95
744.49	1312.92
744.675	1290.39
744.86	1202.33
745.045	1249.43
745.23	1181.85
745.415	1212.57
745.6	1190.04
745.785	1114.27
745.97	1278.1
746.155	1171.61
746.34	1157.27
746.525	1171.61
746.71	1171.61
746.895	1198.23
747.079	1140.89
747.264	1085.59
747.449	1120.41
747.634	1118.36
747.819	1073.31
748.003	1069.21
748.188	1183.9
748.373	1140.89
748.557	1056.92
748.742	1091.74
748.927	1075.35
749.111	1042.59
749.296	991.39
749.481	1101.98
749.665	1015.96
749.85	997.53
750.034	977.05
750.219	1108.12
750.404	1085.59
750.588	1022.11
750.773	1056.92
750.957	1022.11
751.141	1063.07
751.326	1028.25
751.51	970.91
751.695	966.81
751.879	1044.63
752.064	1022.11
752.248	1030.3
752.432	938.14
752.617	837.79
752.801	1034.39
752.985	946.33
753.17	927.9
753.354	938.14
753.538	811.17
753.722	975
753.907	929.95
754.091	841.89
754.275	907.42
754.459	929.95
754.643	874.65
754.828	882.85
755.012	852.13
755.196	884.89
755.38	868.51
755.564	901.28
755.748	802.97
755.932	872.61
756.116	831.65
756.3	833.69
756.484	843.93
756.668	835.74
756.852	790.69
757.036	800.93
757.22	839.84
757.404	704.67
757.588	725.15
757.772	721.06
757.956	737.44
758.14	770.21
758.323	831.65
758.507	772.25
758.691	737.44
758.875	725.15
759.059	766.11
759.242	743.58
759.426	727.2
759.61	723.1
759.794	762.02
759.977	739.49
760.161	667.81
760.345	757.92
760.528	741.54
760.712	725.15
760.895	630.95
761.079	669.86
761.263	729.25
761.446	684.19
761.63	653.47
761.813	661.66
761.997	686.24
762.18	663.71
762.364	725.15
762.547	671.9
762.731	606.37
762.914	719.01
763.098	729.25
763.281	553.12
763.464	673.95
763.648	686.24
763.831	602.27
764.015	649.38
764.198	581.79
764.381	665.76
764.564	647.33
764.748	651.42
764.931	698.53
765.114	620.71
765.297	671.9
765.481	594.08
765.664	598.18
765.847	641.18
766.03	719.01
766.213	575.65
766.397	616.61
766.58	620.71
766.763	592.03
766.946	577.7
767.129	616.61
767.312	618.66
767.495	622.75
767.678	526.5
767.861	569.51
768.044	583.84
768.227	598.18
768.41	561.31
768.593	618.66
768.776	536.74
768.959	608.42
769.142	600.23
769.324	530.59
769.507	520.35
769.69	495.78
769.873	551.07
770.056	577.7
770.239	538.79
770.421	647.33
770.604	520.35
770.787	680.1
770.97	592.03
771.152	540.83
771.335	456.87
771.518	573.6
771.7	544.93
771.883	491.68
772.066	549.03
772.248	499.88
772.431	612.51
772.613	542.88
772.796	477.35
772.978	508.07
773.161	579.75
773.343	553.12
773.526	594.08
773.708	524.45
773.891	491.68
774.073	546.98
774.256	487.59
774.438	469.16
774.621	508.07
774.803	510.11
774.985	483.49
775.168	536.74
775.35	485.54
775.532	446.63
775.715	520.35
775.897	458.92
776.079	409.76
776.261	501.92
776.444	397.48
776.626	450.72
776.808	491.68
776.99	426.15
777.173	442.53
777.355	493.73
777.537	426.15
777.719	385.19
777.901	485.54
778.083	340.13
778.265	411.81
778.447	415.91
778.629	420
778.811	473.25
778.993	413.86
779.175	391.33
779.357	411.81
779.539	403.62
779.721	417.96
779.903	397.48
780.085	383.14
780.267	467.11
780.449	387.24
780.631	436.39
780.812	389.28
780.994	333.99
781.176	409.76
781.358	403.62
781.54	379.04
781.721	331.94
781.903	348.33
782.085	465.06
782.267	450.72
782.448	360.61
782.63	401.57
782.812	426.15
782.993	354.47
783.175	368.81
783.357	342.18
783.538	354.47
783.72	377
783.901	278.69
784.083	358.57
784.264	274.6
784.446	377
784.627	346.28
784.809	333.99
784.99	329.89
785.172	352.42
785.353	442.53
785.535	319.65
785.716	295.08
785.897	342.18
786.079	293.03
786.26	350.37
786.441	299.17
786.623	247.97
786.804	288.93
786.985	254.12
787.167	307.37
787.348	190.63
787.529	290.98
787.71	360.61
787.891	303.27
788.073	313.51
788.254	303.27
788.435	229.54
788.616	245.93
788.797	268.45
788.978	221.35
789.159	272.55
789.34	282.79
789.522	217.26
789.703	172.2
789.884	180.39
790.065	237.74
790.246	301.22
790.427	282.79
790.607	247.97
790.788	280.74
790.969	264.36
791.15	276.65
791.331	207.02
791.512	252.07
791.693	176.3
791.874	204.97
792.054	284.84
792.235	272.55
792.416	207.02
792.597	147.62
792.778	278.69
792.958	274.6
793.139	147.62
793.32	280.74
793.5	262.31
793.681	147.62
793.862	290.98
794.042	159.91
794.223	217.26
794.404	118.95
794.584	155.82
794.765	280.74
794.945	192.68
795.126	180.39
795.306	245.93
795.487	209.06
795.667	186.54
795.848	223.4
796.028	157.86
796.209	204.97
796.389	231.59
796.57	200.87
796.75	239.78
796.93	164.01
797.111	217.26
797.291	243.88
797.471	198.82
797.652	196.78
797.832	139.43
798.012	213.16
798.192	194.73
798.373	135.34
798.553	125.1
798.733	229.54
798.913	131.24
799.093	176.3
799.274	125.1
799.454	227.5
799.634	141.48
799.814	147.62
799.994	188.58
800.174	209.06
800.354	157.86
800.534	151.72
800.714	186.54
800.894	143.53
801.074	239.78
801.254	166.06
801.434	137.38
801.614	118.95
801.794	209.06
801.974	401.57
802.154	131.24
802.334	100.52
802.514	174.25
802.693	219.3
802.873	159.91
803.053	108.71
803.233	102.57
803.413	164.01
803.592	123.05
803.772	127.14
803.952	86.19
804.131	116.9
804.311	151.72
804.491	147.62
804.67	190.63
804.85	114.86
805.03	137.38
805.209	198.82
805.389	98.47
805.568	59.56
805.748	96.43
805.928	75.95
806.107	73.9
806.287	104.62
806.466	174.25
806.646	98.47
806.825	77.99
807.004	116.9
807.184	180.39
807.363	166.06
807.543	153.77
807.722	159.91
807.901	131.24
808.081	172.2
808.26	141.48
808.439	139.43
808.619	65.71
808.798	143.53
808.977	84.14
809.156	143.53
809.336	123.05
809.515	172.2
809.694	110.76
809.873	166.06
810.052	157.86
810.231	104.62
810.411	121
810.59	129.19
810.769	88.23
810.948	129.19
811.127	123.05
811.306	139.43
811.485	80.04
811.664	123.05
811.843	57.51
812.022	86.19
812.201	53.42
812.38	49.32
812.559	90.28
812.737	53.42
812.916	153.77
813.095	100.52
813.274	143.53
813.453	133.29
813.632	45.23
813.811	67.75
813.989	24.75
814.168	114.86
814.347	73.9
814.526	164.01
814.704	110.76
814.883	129.19
815.062	75.95
815.24	84.14
815.419	51.37
815.598	92.33
815.776	90.28
815.955	2.22
816.133	-12.12
816.312	47.27
816.49	65.71
816.669	84.14
816.847	147.62
817.026	141.48
817.204	118.95
817.383	98.47
817.561	61.61
817.74	145.58
817.918	77.99
818.097	49.32
818.275	41.13
818.453	67.75
818.632	67.75
818.81	133.29
818.988	55.47
819.167	41.13
819.345	106.67
819.523	41.13
819.701	57.51
819.879	129.19
820.058	110.76
820.236	57.51
820.414	116.9
820.592	86.19
820.77	98.47
820.948	96.43
821.127	82.09
821.305	73.9
821.483	37.03
821.661	176.3
821.839	84.14
822.017	98.47
822.195	98.47
822.373	49.32
822.551	82.09
822.729	59.56
822.907	106.67
823.085	2.22
823.262	155.82
823.44	90.28
823.618	88.23
823.796	94.38
823.974	67.75
824.152	73.9
824.329	90.28
824.507	32.94
824.685	57.51
824.863	94.38
825.04	88.23
825.218	12.46
825.396	104.62
825.574	104.62
825.751	73.9
825.929	26.79
826.107	45.23
826.284	57.51
826.462	22.7
826.639	86.19
826.817	-16.21
826.994	92.33
827.172	90.28
827.349	118.95
827.527	-67.41
827.704	73.9
827.882	110.76
828.059	41.13
828.237	59.56
828.414	108.71
828.591	57.51
828.769	32.94
828.946	118.95
829.124	73.9
829.301	41.13
829.478	84.14
829.655	-40.79
829.833	90.28
830.01	-32.6
830.187	32.94
830.364	28.84
830.542	32.94
830.719	43.18
830.896	28.84
831.073	4.27
831.25	49.32
831.427	59.56
831.604	55.47
831.782	90.28
831.959	14.51
832.136	37.03
832.313	73.9
832.49	0.17
832.667	69.8
832.844	-32.6
833.021	49.32
833.198	51.37
833.374	94.38
833.551	24.75
833.728	39.08
833.905	41.13
834.082	61.61
834.259	51.37
834.436	135.34
834.612	4.27
834.789	73.9
834.966	114.86
835.143	100.52
835.319	12.46
835.496	53.42
835.673	67.75
835.85	14.51
836.026	73.9
836.203	73.9
836.38	41.13
836.556	65.71
836.733	-12.12
836.909	49.32
837.086	-10.07
837.262	67.75
837.439	-53.08
837.616	-24.4
837.792	45.23
837.968	49.32
838.145	-14.17
838.321	12.46
838.498	53.42
838.674	90.28
838.851	65.71
839.027	65.71
839.203	2.22
839.38	26.79
839.556	4.27
839.732	63.66
839.909	41.13
840.085	32.94
840.261	67.75
840.437	18.6
840.614	39.08
840.79	-42.84
840.966	-5.97
841.142	43.18
841.318	37.03
841.494	8.36
841.671	49.32
841.847	16.55
842.023	20.65
842.199	10.41
842.375	69.8
842.551	57.51
842.727	-12.12
842.903	39.08
843.079	2.22
843.255	10.41
843.431	4.27
843.607	18.6
843.783	-14.17
843.959	77.99
844.134	-30.55
844.31	41.13
844.486	-42.84
844.662	8.36
844.838	98.47
845.013	20.65
845.189	47.27
845.365	2.22
845.541	47.27
845.716	2.22
845.892	51.37
846.068	-8.02
846.244	49.32
846.419	26.79
846.595	12.46
846.77	41.13
846.946	65.71
847.122	92.33
847.297	34.99
847.473	2.22
847.648	10.41
847.824	57.51
847.999	-3.93
848.175	53.42
848.35	-14.17
848.526	116.9
848.701	-44.88
848.876	12.46
849.052	10.41
849.227	-10.07
849.403	43.18
849.578	18.6
849.753	18.6
849.929	49.32
850.104	43.18
850.279	-28.5
850.454	-40.79
850.63	51.37
850.805	24.75
850.98	67.75
851.155	67.75
851.33	16.55
851.505	4.27
851.681	4.27
851.856	14.51
852.031	0.17
852.206	32.94
852.381	43.18
852.556	61.61
852.731	51.37
852.906	45.23
853.081	57.51
853.256	6.31
853.431	94.38
853.606	-34.64
853.781	-30.55
853.956	32.94
854.131	98.47
854.305	-40.79
854.48	16.55
854.655	6.31
854.83	16.55
855.005	-3.93
855.18	-3.93
855.354	18.6
855.529	24.75
855.704	59.56
855.879	22.7
856.053	61.61
856.228	24.75
856.403	24.75
856.577	6.31
856.752	22.7
856.926	59.56
857.101	0.17
857.276	6.31
857.45	26.79
857.625	-20.31
857.799	16.55
857.974	-24.4
858.148	12.46
858.323	-12.12
858.497	2.22
858.672	26.79
858.846	65.71
859.02	82.09
859.195	-34.64
859.369	26.79
859.543	-18.26
859.718	41.13
859.892	-61.27
860.066	69.8
860.241	-24.4
860.415	14.51
860.589	77.99
860.763	20.65
860.938	12.46
861.112	4.27
861.286	39.08
861.46	20.65
861.634	0.17
861.808	26.79
861.982	-38.74
862.157	16.55
862.331	49.32
862.505	-18.26
862.679	8.36
862.853	41.13
863.027	-3.93
863.201	26.79
863.375	-48.98
863.549	-36.69
863.722	-69.46
863.896	2.22
864.07	-44.88
864.244	6.31
864.418	-1.88
864.592	20.65
864.766	71.85
864.939	-69.46
865.113	-14.17
865.287	26.79
865.461	49.32
865.634	10.41
865.808	-26.45
865.982	47.27
866.156	-14.17
866.329	-12.12
866.503	43.18
866.676	2.22
866.85	-30.55
867.024	-14.17
867.197	-5.97
867.371	98.47
867.544	-61.27
867.718	-14.17
867.891	32.94
868.065	57.51
868.238	18.6
868.412	-8.02
868.585	-73.56
868.759	-20.31
868.932	-24.4
869.105	-22.36
869.279	2.22
869.452	-46.93
869.625	-40.79
869.799	61.61
869.972	-14.17
870.145	41.13
870.319	-1.88
870.492	-22.36
870.665	26.79
870.838	86.19
871.011	-24.4
871.185	32.94
871.358	-20.31
871.531	8.36
871.704	6.31
871.877	90.28
872.05	-18.26
872.223	-81.75
872.396	-8.02
872.569	-28.5
872.742	16.55
872.915	6.31
873.088	18.6
873.261	32.94
873.434	-1.88
873.607	20.65
873.78	55.47
873.953	-57.17
874.126	-20.31
874.299	0.17
874.471	-81.75
874.644	96.43
874.817	-48.98
874.99	-14.17
875.163	-48.98
875.335	-44.88
875.508	-28.5
875.681	-16.21
875.853	63.66
876.026	-16.21
876.199	12.46
876.371	-28.5
876.544	-46.93
876.717	34.99
876.889	-63.32
877.062	-14.17
877.234	-38.74
877.407	0.17
877.579	-10.07
877.752	43.18
877.924	-51.03
878.097	0.17
878.269	16.55
878.442	65.71
878.614	24.75
878.786	-28.5
878.959	-34.64
879.131	16.55
879.303	8.36
879.476	0.17
879.648	-55.12
879.82	4.27
879.993	-28.5
880.165	-81.75
880.337	10.41
880.509	-53.08
880.681	-46.93
880.854	-5.97
881.026	34.99
881.198	24.75
881.37	-16.21
881.542	-14.17
881.714	-22.36
881.886	10.41
882.058	14.51
882.23	55.47
882.402	32.94
882.574	4.27
882.746	-12.12
882.918	16.55
883.09	-10.07
883.262	73.9
883.434	43.18
883.606	-30.55
883.778	-51.03
883.95	98.47
884.122	-22.36
884.293	51.37
884.465	-44.88
884.637	96.43
884.809	-53.08
884.98	69.8
885.152	-40.79
885.324	10.41
885.496	10.41
885.667	77.99
885.839	24.75
886.011	-3.93
886.182	-32.6
886.354	20.65
886.525	0.17
886.697	43.18
886.869	4.27
887.04	4.27
887.212	20.65
887.383	18.6
887.555	0.17
887.726	-26.45
887.897	-5.97
888.069	-20.31
888.24	77.99
888.412	28.84
888.583	32.94
888.754	-16.21
888.926	-32.6
889.097	-48.98
889.268	90.28
889.44	45.23
889.611	16.55
889.782	-14.17
889.953	-36.69
890.125	0.17
890.296	0.17
890.467	-34.64
890.638	-40.79
890.809	-1.88
890.98	-14.17
891.151	20.65
891.323	-16.21
891.494	-38.74
891.665	43.18
891.836	-8.02
892.007	-26.45
892.178	-14.17
892.349	16.55
892.52	10.41
892.691	39.08
892.862	2.22
893.032	-38.74
893.203	-10.07
893.374	37.03
893.545	45.23
893.716	-18.26
893.887	-24.4
894.057	24.75
894.228	45.23
894.399	18.6
894.57	32.94
894.74	-48.98
894.911	28.84
895.082	10.41
895.253	43.18
895.423	8.36
895.594	2.22
895.764	-73.56
895.935	4.27
896.106	-1.88
896.276	-22.36
896.447	-71.51
896.617	-12.12
896.788	-3.93
896.958	16.55
897.129	-73.56
897.299	12.46
897.47	-42.84
897.64	-48.98
897.81	4.27
897.981	16.55
898.151	-75.6
898.322	26.79
898.492	10.41
898.662	-22.36
898.832	14.51
899.003	-20.31
899.173	8.36
899.343	-26.45
899.513	-10.07
