Data from USB4F104151__120__13-55-03-567.txt Node

Date: Thu Mar 13 13:55:03 EDT 2025
User: louis
Spectrometer: USB4F10415
Trigger mode: 4
Integration Time (sec): 1.000000E-2
Scans to average: 1
Electric dark correction enabled: true
Nonlinearity correction enabled: false
Boxcar width: 0
XAxis mode: Wavelengths
Number of Pixels in Spectrum: 3648
>>>>>Begin Spectral Data<<<<<
178.204	-25.94
178.424	-25.94
178.644	-25.94
178.864	-56.66
179.084	-64.85
179.304	-7.51
179.524	-42.32
179.744	-48.47
179.964	55.98
180.184	27.31
180.404	80.55
180.624	-46.42
180.844	10.92
181.064	-17.75
181.283	-34.13
181.503	-1.37
181.723	23.21
181.943	-73.04
182.163	60.07
182.383	-11.61
182.602	113.32
182.822	15.02
183.042	37.55
183.262	37.55
183.482	-5.46
183.701	-52.56
183.921	35.5
184.141	45.74
184.361	-1.37
184.58	-17.75
184.8	53.93
185.02	-3.41
185.239	23.21
185.459	12.97
185.679	37.55
185.898	43.69
186.118	72.36
186.338	41.64
186.557	-34.13
186.777	-44.37
186.997	45.74
187.216	-46.42
187.436	47.79
187.655	41.64
187.875	39.59
188.095	27.31
188.314	-13.65
188.534	8.87
188.753	43.69
188.973	-21.84
189.192	80.55
189.412	39.59
189.631	8.87
189.851	-83.28
190.07	84.65
190.29	45.74
190.509	35.5
190.729	23.21
190.948	72.36
191.168	21.16
191.387	2.73
191.607	4.78
191.826	68.27
192.045	23.21
192.265	17.07
192.484	8.87
192.704	41.64
192.923	-27.99
193.142	19.11
193.362	-66.9
193.581	45.74
193.8	25.26
194.02	0.68
194.239	33.45
194.458	4.78
194.678	6.83
194.897	6.83
195.116	33.45
195.335	107.18
195.555	31.4
195.774	-48.47
195.993	43.69
196.212	51.88
196.432	27.31
196.651	-15.7
196.87	51.88
197.089	4.78
197.308	127.66
197.528	66.22
197.747	-3.41
197.966	21.16
198.185	35.5
198.404	-21.84
198.623	41.64
198.842	10.92
199.062	-9.56
199.281	19.11
199.5	33.45
199.719	47.79
199.938	29.35
200.157	47.79
200.376	37.55
200.595	72.36
200.814	39.59
201.033	12.97
201.252	41.64
201.471	-5.46
201.69	-19.8
201.909	39.59
202.128	15.02
202.347	58.03
202.566	51.88
202.785	-7.51
203.004	-46.42
203.223	-23.89
203.442	-11.61
203.661	4.78
203.879	-3.41
204.098	23.21
204.317	-30.04
204.536	37.55
204.755	-1.37
204.974	-40.28
205.193	15.02
205.411	10.92
205.63	-36.18
205.849	23.21
206.068	-21.84
206.287	-17.75
206.505	2.73
206.724	23.21
206.943	-50.52
207.162	43.69
207.381	12.97
207.599	80.55
207.818	-5.46
208.037	-38.23
208.255	8.87
208.474	17.07
208.693	6.83
208.911	51.88
209.13	-3.41
209.349	15.02
209.567	-25.94
209.786	53.93
210.005	-34.13
210.223	15.02
210.442	-19.8
210.661	-32.08
210.879	51.88
211.098	21.16
211.316	-15.7
211.535	33.45
211.753	29.35
211.972	51.88
212.191	-13.65
212.409	21.16
212.628	-3.41
212.846	-17.75
213.065	-36.18
213.283	51.88
213.502	-17.75
213.72	-50.52
213.938	15.02
214.157	4.78
214.375	-48.47
214.594	41.64
214.812	70.31
215.031	-71
215.249	10.92
215.467	43.69
215.686	-50.52
215.904	39.59
216.122	15.02
216.341	25.26
216.559	-9.56
216.778	113.32
216.996	86.7
217.214	21.16
217.432	23.21
217.651	-13.65
217.869	27.31
218.087	12.97
218.306	-5.46
218.524	60.07
218.742	0.68
218.96	-54.61
219.179	-15.7
219.397	15.02
219.615	6.83
219.833	55.98
220.051	-25.94
220.27	-19.8
220.488	-21.84
220.706	-42.32
220.924	29.35
221.142	76.46
221.36	23.21
221.578	-38.23
221.796	-25.94
222.015	33.45
222.233	88.75
222.451	62.12
222.669	-25.94
222.887	31.4
223.105	-5.46
223.323	80.55
223.541	29.35
223.759	78.51
223.977	8.87
224.195	10.92
224.413	29.35
224.631	35.5
224.849	33.45
225.067	70.31
225.285	0.68
225.503	-1.37
225.721	70.31
225.939	-25.94
226.157	31.4
226.375	-1.37
226.592	-1.37
226.81	6.83
227.028	19.11
227.246	96.94
227.464	-7.51
227.682	-36.18
227.9	62.12
228.117	17.07
228.335	-56.66
228.553	41.64
228.771	-19.8
228.989	78.51
229.206	58.03
229.424	12.97
229.642	45.74
229.86	86.7
230.077	49.83
230.295	53.93
230.513	23.21
230.731	68.27
230.948	10.92
231.166	31.4
231.384	25.26
231.601	-58.71
231.819	8.87
232.037	33.45
232.254	23.21
232.472	-7.51
232.689	-30.04
232.907	23.21
233.125	70.31
233.342	-15.7
233.56	-11.61
233.777	60.07
233.995	15.02
234.213	98.99
234.43	10.92
234.648	47.79
234.865	-9.56
235.083	80.55
235.3	33.45
235.518	0.68
235.735	64.17
235.953	137.9
236.17	39.59
236.388	-23.89
236.605	15.02
236.822	74.41
237.04	33.45
237.257	-25.94
237.475	51.88
237.692	74.41
237.909	45.74
238.127	17.07
238.344	4.78
238.562	86.7
238.779	2.73
238.996	0.68
239.214	8.87
239.431	-5.46
239.648	58.03
239.865	-40.28
240.083	33.45
240.3	62.12
240.517	8.87
240.735	-5.46
240.952	60.07
241.169	12.97
241.386	10.92
241.603	-36.18
241.821	64.17
242.038	27.31
242.255	-40.28
242.472	-9.56
242.689	31.4
242.907	-5.46
243.124	2.73
243.341	86.7
243.558	41.64
243.775	62.12
243.992	33.45
244.209	78.51
244.426	68.27
244.643	80.55
244.86	-15.7
245.078	64.17
245.295	29.35
245.512	76.46
245.729	113.32
245.946	-19.8
246.163	51.88
246.38	2.73
246.597	-19.8
246.814	127.66
247.031	49.83
247.248	-1.37
247.464	74.41
247.681	4.78
247.898	6.83
248.115	27.31
248.332	53.93
248.549	68.27
248.766	80.55
248.983	55.98
249.2	90.79
249.417	-23.89
249.633	15.02
249.85	41.64
250.067	-7.51
250.284	10.92
250.501	2.73
250.717	-34.13
250.934	-34.13
251.151	35.5
251.368	58.03
251.585	82.6
251.801	66.22
252.018	15.02
252.235	47.79
252.451	21.16
252.668	-13.65
252.885	78.51
253.102	-25.94
253.318	23.21
253.535	78.51
253.752	-3.41
253.968	8.87
254.185	-25.94
254.401	19.11
254.618	-13.65
254.835	19.11
255.051	43.69
255.268	-42.32
255.484	45.74
255.701	76.46
255.917	39.59
256.134	19.11
256.351	49.83
256.567	49.83
256.784	82.6
257	45.74
257.217	19.11
257.433	62.12
257.65	27.31
257.866	58.03
258.082	60.07
258.299	80.55
258.515	-13.65
258.732	-7.51
258.948	37.55
259.165	25.26
259.381	47.79
259.597	80.55
259.814	58.03
260.03	21.16
260.246	21.16
260.463	-17.75
260.679	78.51
260.895	-1.37
261.112	2.73
261.328	-1.37
261.544	-5.46
261.761	-7.51
261.977	47.79
262.193	10.92
262.409	29.35
262.626	10.92
262.842	-34.13
263.058	51.88
263.274	35.5
263.49	-5.46
263.707	62.12
263.923	8.87
264.139	111.27
264.355	47.79
264.571	-34.13
264.787	2.73
265.004	45.74
265.22	-3.41
265.436	90.79
265.652	82.6
265.868	31.4
266.084	12.97
266.3	70.31
266.516	27.31
266.732	35.5
266.948	-56.66
267.164	10.92
267.38	78.51
267.596	31.4
267.812	58.03
268.028	8.87
268.244	43.69
268.46	47.79
268.676	25.26
268.892	49.83
269.108	25.26
269.324	23.21
269.54	-23.89
269.756	-52.56
269.972	25.26
270.188	25.26
270.403	-46.42
270.619	-1.37
270.835	21.16
271.051	45.74
271.267	53.93
271.483	-17.75
271.698	-60.76
271.914	70.31
272.13	41.64
272.346	-5.46
272.562	-25.94
272.777	-40.28
272.993	60.07
273.209	-23.89
273.425	51.88
273.64	47.79
273.856	27.31
274.072	68.27
274.287	-1.37
274.503	29.35
274.719	70.31
274.934	35.5
275.15	35.5
275.366	60.07
275.581	45.74
275.797	-13.65
276.012	-40.28
276.228	49.83
276.444	31.4
276.659	62.12
276.875	23.21
277.09	21.16
277.306	109.23
277.521	-19.8
277.737	27.31
277.952	23.21
278.168	43.69
278.383	23.21
278.599	58.03
278.814	10.92
279.03	-19.8
279.245	23.21
279.461	15.02
279.676	31.4
279.892	29.35
280.107	107.18
280.322	2.73
280.538	15.02
280.753	41.64
280.969	68.27
281.184	-68.95
281.399	15.02
281.615	-36.18
281.83	-32.08
282.045	-25.94
282.26	6.83
282.476	-25.94
282.691	64.17
282.906	27.31
283.122	-19.8
283.337	-56.66
283.552	53.93
283.767	39.59
283.983	49.83
284.198	86.7
284.413	-21.84
284.628	4.78
284.843	-30.04
285.058	76.46
285.274	25.26
285.489	15.02
285.704	39.59
285.919	-75.09
286.134	23.21
286.349	27.31
286.564	-7.51
286.779	41.64
286.995	51.88
287.21	8.87
287.425	29.35
287.64	-52.56
287.855	-3.41
288.07	-50.52
288.285	43.69
288.5	41.64
288.715	64.17
288.93	8.87
289.145	70.31
289.36	-50.52
289.575	-15.7
289.79	41.64
290.004	25.26
290.219	8.87
290.434	29.35
290.649	-5.46
290.864	51.88
291.079	-23.89
291.294	43.69
291.509	6.83
291.724	-13.65
291.938	37.55
292.153	68.27
292.368	12.97
292.583	-21.84
292.798	78.51
293.012	45.74
293.227	10.92
293.442	4.78
293.657	84.65
293.871	31.4
294.086	33.45
294.301	84.65
294.516	0.68
294.73	19.11
294.945	64.17
295.16	-44.37
295.374	-40.28
295.589	10.92
295.804	45.74
296.018	53.93
296.233	35.5
296.447	12.97
296.662	41.64
296.877	64.17
297.091	23.21
297.306	39.59
297.52	96.94
297.735	53.93
297.949	66.22
298.164	-21.84
298.378	-17.75
298.593	4.78
298.807	15.02
299.022	25.26
299.236	105.13
299.451	72.36
299.665	78.51
299.88	23.21
300.094	47.79
300.309	31.4
300.523	43.69
300.737	-27.99
300.952	2.73
301.166	-3.41
301.381	-21.84
301.595	60.07
301.809	62.12
302.024	-1.37
302.238	-1.37
302.452	0.68
302.667	76.46
302.881	60.07
303.095	-19.8
303.309	6.83
303.524	4.78
303.738	17.07
303.952	35.5
304.166	66.22
304.381	-44.37
304.595	58.03
304.809	-25.94
305.023	47.79
305.237	27.31
305.452	15.02
305.666	37.55
305.88	19.11
306.094	76.46
306.308	25.26
306.522	41.64
306.736	15.02
306.95	21.16
307.164	-11.61
307.379	66.22
307.593	72.36
307.807	-15.7
308.021	72.36
308.235	-25.94
308.449	-15.7
308.663	88.75
308.877	113.32
309.091	8.87
309.305	53.93
309.519	29.35
309.733	60.07
309.947	-25.94
310.161	39.59
310.374	84.65
310.588	66.22
310.802	4.78
311.016	58.03
311.23	8.87
311.444	51.88
311.658	107.18
311.872	10.92
312.085	39.59
312.299	4.78
312.513	-17.75
312.727	23.21
312.941	27.31
313.154	51.88
313.368	37.55
313.582	27.31
313.796	90.79
314.009	53.93
314.223	90.79
314.437	111.27
314.651	-3.41
314.864	74.41
315.078	8.87
315.292	-1.37
315.505	47.79
315.719	88.75
315.933	53.93
316.146	51.88
316.36	27.31
316.573	109.23
316.787	72.36
317.001	37.55
317.214	27.31
317.428	37.55
317.641	-3.41
317.855	121.51
318.068	47.79
318.282	60.07
318.495	78.51
318.709	-1.37
318.922	33.45
319.136	86.7
319.349	31.4
319.563	31.4
319.776	27.31
319.99	10.92
320.203	47.79
320.417	33.45
320.63	0.68
320.843	119.46
321.057	12.97
321.27	62.12
321.483	-13.65
321.697	74.41
321.91	51.88
322.124	55.98
322.337	25.26
322.55	33.45
322.763	-13.65
322.977	41.64
323.19	53.93
323.403	-9.56
323.617	80.55
323.83	45.74
324.043	-32.08
324.256	72.36
324.469	82.6
324.683	86.7
324.896	55.98
325.109	123.56
325.322	17.07
325.535	39.59
325.748	23.21
325.962	-11.61
326.175	23.21
326.388	10.92
326.601	74.41
326.814	-19.8
327.027	45.74
327.24	6.83
327.453	-19.8
327.666	62.12
327.879	35.5
328.092	60.07
328.305	-5.46
328.518	31.4
328.731	98.99
328.944	-25.94
329.157	-15.7
329.37	31.4
329.583	68.27
329.796	21.16
330.009	27.31
330.222	8.87
330.435	68.27
330.648	25.26
330.861	70.31
331.073	15.02
331.286	96.94
331.499	-5.46
331.712	21.16
331.925	43.69
332.138	37.55
332.35	70.31
332.563	-9.56
332.776	152.23
332.989	-25.94
333.202	-15.7
333.414	6.83
333.627	51.88
333.84	12.97
334.053	66.22
334.265	43.69
334.478	-21.84
334.691	-34.13
334.903	21.16
335.116	45.74
335.329	25.26
335.541	58.03
335.754	49.83
335.966	72.36
336.179	51.88
336.392	-25.94
336.604	-34.13
336.817	53.93
337.029	51.88
337.242	45.74
337.454	29.35
337.667	37.55
337.88	45.74
338.092	8.87
338.305	45.74
338.517	-5.46
338.729	33.45
338.942	119.46
339.154	76.46
339.367	17.07
339.579	74.41
339.792	41.64
340.004	43.69
340.217	-15.7
340.429	51.88
340.641	19.11
340.854	4.78
341.066	-62.8
341.278	86.7
341.491	12.97
341.703	150.18
341.915	10.92
342.128	80.55
342.34	43.69
342.552	17.07
342.764	-7.51
342.977	33.45
343.189	45.74
343.401	2.73
343.613	58.03
343.826	10.92
344.038	-7.51
344.25	84.65
344.462	41.64
344.674	0.68
344.886	39.59
345.099	176.81
345.311	45.74
345.523	51.88
345.735	-11.61
345.947	62.12
346.159	25.26
346.371	62.12
346.583	51.88
346.795	90.79
347.007	41.64
347.219	19.11
347.431	33.45
347.643	66.22
347.855	35.5
348.067	45.74
348.279	55.98
348.491	10.92
348.703	31.4
348.915	41.64
349.127	88.75
349.339	76.46
349.551	80.55
349.763	23.21
349.975	84.65
350.187	37.55
350.399	51.88
350.61	-21.84
350.822	27.31
351.034	78.51
351.246	10.92
351.458	107.18
351.669	-23.89
351.881	45.74
352.093	53.93
352.305	47.79
352.517	94.89
352.728	129.7
352.94	-13.65
353.152	113.32
353.363	31.4
353.575	35.5
353.787	-5.46
353.999	49.83
354.21	25.26
354.422	21.16
354.633	21.16
354.845	-23.89
355.057	23.21
355.268	-3.41
355.48	6.83
355.692	31.4
355.903	19.11
356.115	51.88
356.326	-15.7
356.538	49.83
356.749	8.87
356.961	47.79
357.172	-1.37
357.384	55.98
357.595	0.68
357.807	74.41
358.018	8.87
358.23	76.46
358.441	53.93
358.653	78.51
358.864	12.97
359.075	82.6
359.287	78.51
359.498	76.46
359.709	17.07
359.921	58.03
360.132	74.41
360.344	21.16
360.555	55.98
360.766	58.03
360.977	60.07
361.189	64.17
361.4	49.83
361.611	27.31
361.823	23.21
362.034	37.55
362.245	86.7
362.456	6.83
362.667	156.33
362.879	27.31
363.09	15.02
363.301	82.6
363.512	55.98
363.723	121.51
363.935	60.07
364.146	60.07
364.357	49.83
364.568	35.5
364.779	-7.51
364.99	64.17
365.201	37.55
365.412	4.78
365.623	-13.65
365.834	62.12
366.045	23.21
366.256	105.13
366.467	94.89
366.678	53.93
366.889	-27.99
367.1	68.27
367.311	0.68
367.522	25.26
367.733	88.75
367.944	12.97
368.155	76.46
368.366	19.11
368.577	0.68
368.788	53.93
368.999	74.41
369.209	94.89
369.42	33.45
369.631	80.55
369.842	23.21
370.053	78.51
370.264	15.02
370.474	21.16
370.685	-30.04
370.896	33.45
371.107	-3.41
371.317	58.03
371.528	88.75
371.739	19.11
371.95	82.6
372.16	12.97
372.371	72.36
372.582	133.8
372.792	27.31
373.003	-25.94
373.214	-25.94
373.424	47.79
373.635	53.93
373.846	39.59
374.056	53.93
374.267	21.16
374.477	25.26
374.688	88.75
374.898	31.4
375.109	98.99
375.319	60.07
375.53	19.11
375.74	178.86
375.951	58.03
376.161	35.5
376.372	180.9
376.582	15.02
376.793	60.07
377.003	35.5
377.214	55.98
377.424	51.88
377.635	0.68
377.845	43.69
378.055	37.55
378.266	17.07
378.476	39.59
378.686	68.27
378.897	6.83
379.107	70.31
379.317	-42.32
379.528	35.5
379.738	113.32
379.948	15.02
380.158	68.27
380.369	-11.61
380.579	109.23
380.789	0.68
380.999	92.84
381.21	64.17
381.42	137.9
381.63	17.07
381.84	-17.75
382.05	-1.37
382.261	94.89
382.471	92.84
382.681	19.11
382.891	72.36
383.101	19.11
383.311	10.92
383.521	92.84
383.731	92.84
383.941	82.6
384.151	-9.56
384.361	90.79
384.571	23.21
384.781	21.16
384.991	62.12
385.201	88.75
385.411	27.31
385.621	62.12
385.831	60.07
386.041	82.6
386.251	23.21
386.461	94.89
386.671	37.55
386.881	45.74
387.091	82.6
387.301	4.78
387.511	-3.41
387.72	70.31
387.93	51.88
388.14	78.51
388.35	92.84
388.56	74.41
388.769	45.74
388.979	72.36
389.189	29.35
389.399	27.31
389.609	111.27
389.818	45.74
390.028	-17.75
390.238	90.79
390.447	-9.56
390.657	-3.41
390.867	96.94
391.076	88.75
391.286	12.97
391.496	41.64
391.705	27.31
391.915	131.75
392.125	23.21
392.334	107.18
392.544	74.41
392.753	53.93
392.963	70.31
393.172	49.83
393.382	29.35
393.591	131.75
393.801	96.94
394.01	129.7
394.22	125.61
394.429	43.69
394.639	96.94
394.848	121.51
395.058	15.02
395.267	80.55
395.477	29.35
395.686	80.55
395.895	88.75
396.105	96.94
396.314	33.45
396.524	21.16
396.733	137.9
396.942	137.9
397.152	150.18
397.361	107.18
397.57	152.23
397.78	141.99
397.989	107.18
398.198	162.47
398.407	119.46
398.617	70.31
398.826	74.41
399.035	53.93
399.244	84.65
399.453	103.08
399.663	141.99
399.872	107.18
400.081	113.32
400.29	113.32
400.499	47.79
400.708	123.56
400.917	103.08
401.127	168.62
401.336	103.08
401.545	107.18
401.754	131.75
401.963	49.83
402.172	101.03
402.381	115.37
402.59	107.18
402.799	148.14
403.008	76.46
403.217	144.04
403.426	119.46
403.635	101.03
403.844	125.61
404.053	111.27
404.262	94.89
404.471	160.42
404.68	225.96
404.888	146.09
405.097	86.7
405.306	119.46
405.515	150.18
405.724	72.36
405.933	223.91
406.142	117.42
406.35	238.25
406.559	209.58
406.768	199.34
406.977	160.42
407.185	172.71
407.394	217.77
407.603	174.76
407.812	174.76
408.02	232.1
408.229	178.86
408.438	209.58
408.646	219.82
408.855	164.52
409.064	180.9
409.272	215.72
409.481	322.21
409.69	324.26
409.898	320.17
410.107	369.32
410.315	287.4
410.524	264.87
410.733	357.03
410.941	363.17
411.15	377.51
411.358	365.22
411.567	479.91
411.775	391.84
411.984	453.28
412.192	373.41
412.401	475.81
412.609	438.95
412.818	441
413.026	436.9
413.234	502.44
413.443	522.91
413.651	590.5
413.86	598.69
414.068	623.27
414.276	637.6
414.485	582.31
414.693	633.51
414.901	709.28
415.11	631.46
415.318	684.7
415.526	785.05
415.734	813.73
415.943	813.73
416.151	756.38
416.359	785.05
416.567	844.45
416.776	830.11
416.984	959.13
417.192	1016.48
417.4	973.47
417.608	1036.95
417.817	1032.86
418.025	1018.52
418.233	1184.41
418.441	938.65
418.649	1129.11
418.857	1325.72
419.065	1235.61
419.273	1266.33
419.481	1350.29
419.689	1489.56
419.897	1503.89
420.105	1497.75
420.313	1620.63
420.521	1546.9
420.729	1604.24
420.937	1563.28
421.145	1690.26
421.353	1763.98
421.561	1827.47
421.769	1835.66
421.977	2019.98
422.185	1870.48
422.393	2153.1
422.601	2245.26
422.809	2220.68
423.017	2271.88
423.224	2288.26
423.432	2370.18
423.64	2462.34
423.848	2568.84
424.056	2566.79
424.263	2900.61
424.471	2790.02
424.679	2763.39
424.887	3054.2
425.094	3019.39
425.302	3058.3
425.51	3187.32
425.718	3351.16
425.925	3447.41
426.133	3525.24
426.341	3668.59
426.548	3760.75
426.756	3881.58
426.964	3711.6
427.171	4129.39
427.379	4344.42
427.586	4242.03
427.794	4475.49
428.001	4639.33
428.209	4735.59
428.417	4805.22
428.624	5118.56
428.832	5132.89
429.039	5212.76
429.247	5003.87
429.454	5687.89
429.662	5859.92
429.869	5493.33
430.076	5943.89
430.284	5747.28
430.491	5927.5
430.699	6386.25
430.906	6402.63
431.114	6408.78
431.321	6556.23
431.528	6822.47
431.736	7078.46
431.943	7553.59
432.15	7346.75
432.358	7492.15
432.565	7787.06
432.772	7649.85
432.979	8041.01
433.187	8313.39
433.394	8454.7
433.601	8993.31
433.808	8884.77
434.016	8780.32
434.223	9212.45
434.43	9888.28
434.637	9617.94
434.844	10238.48
435.052	10596.87
435.259	10422.8
435.466	10566.15
435.673	10443.28
435.88	11002.37
436.087	11473.4
436.294	11573.75
436.501	11502.08
436.708	11434.49
436.915	11799.03
437.122	12532.2
437.329	12509.68
437.537	12921.32
437.743	12933.61
437.95	12749.29
438.157	13613.53
438.364	14133.72
438.571	14170.58
438.778	14004.69
438.985	15368.64
439.192	14897.61
439.399	15145.41
439.606	14997.96
439.813	15845.82
440.02	16791.98
440.227	16460.21
440.433	16452.02
440.64	16767.4
440.847	16560.56
441.054	16945.58
441.261	18473.36
441.467	18147.73
441.674	18620.81
441.881	19179.91
442.088	19171.72
442.294	19114.37
442.501	19763.58
442.708	19556.74
442.914	20648.3
443.121	21430.63
443.328	20660.59
443.534	22319.45
443.741	21547.36
443.948	21502.31
444.154	22935.88
444.361	23034.19
444.568	22853.97
444.774	22880.59
444.981	23316.81
445.187	24070.46
445.394	24990
445.6	24635.7
445.807	27050.25
446.013	25698.59
446.22	26157.34
446.426	27703.56
446.633	27640.07
446.839	28215.55
447.046	27273.48
447.252	28760.31
447.459	28805.36
447.665	28541.18
447.871	29917.41
448.078	31224.01
448.284	29677.8
448.491	30179.55
448.697	31604.94
448.903	32385.21
449.11	32409.79
449.316	31873.22
449.522	32340.16
449.728	33114.29
449.935	33099.95
450.141	33351.85
450.347	34146.47
450.553	33038.51
450.76	32968.88
450.966	34435.23
451.172	34076.83
451.378	35043.48
451.584	34328.73
451.791	35072.15
451.997	34902.17
452.203	35340.43
452.409	35377.29
452.615	35405.97
452.821	33919.14
453.027	33894.57
453.233	35356.82
453.44	34130.08
453.646	34461.85
453.852	34502.81
454.058	34828.44
454.264	33984.68
454.47	34943.13
454.676	34048.16
454.882	34984.08
455.088	31830.21
455.294	32352.44
455.5	33050.8
455.705	33499.31
455.911	31908.04
456.117	31441.1
456.323	30994.64
456.529	29182.19
456.735	30370.01
456.941	29661.41
457.147	29221.1
457.352	28625.14
457.558	28354.81
457.764	28350.71
457.97	27414.79
458.176	26880.27
458.381	27332.87
458.587	25594.15
458.793	26095.9
458.999	24176.95
459.204	26181.92
459.41	25303.34
459.616	23943.49
459.821	23884.09
460.027	23832.89
460.233	23320.9
460.438	22018.39
460.644	22333.78
460.85	21383.52
461.055	20959.59
461.261	20986.22
461.466	19464.58
461.672	18739.6
461.878	20148.6
462.083	18737.55
462.289	18649.49
462.494	18332.05
462.7	17633.69
462.905	17330.59
463.111	17377.7
463.316	17688.99
463.522	17285.54
463.727	17377.7
463.932	17160.61
464.138	17240.48
464.343	17150.37
464.549	16538.03
464.754	17377.7
464.959	17103.27
465.165	17039.78
465.37	16155.06
465.575	15690.17
465.781	16290.23
465.986	16427.44
466.191	15940.02
466.397	15667.64
466.602	14854.6
466.807	15280.58
467.012	15327.68
467.218	15571.39
467.423	15151.56
467.628	15253.95
467.833	16032.18
468.038	15280.58
468.244	14703.05
468.449	15348.16
468.654	14889.42
468.859	14721.48
469.064	14864.84
469.269	14127.57
469.474	14162.39
469.679	14459.34
469.885	13924.82
470.09	14232.02
470.295	14100.95
470.5	14010.84
470.705	13896.15
470.91	13709.79
471.115	13445.6
471.32	13828.57
471.525	13619.67
471.73	13134.31
471.935	13091.3
472.139	12650.99
472.344	13019.62
472.549	12579.31
472.754	12749.29
472.959	12524.01
473.164	12057.07
473.369	11934.2
473.574	12679.66
473.778	12233.2
473.983	12175.86
474.188	12198.38
474.393	11467.26
474.598	11747.83
474.802	11604.47
475.007	11596.28
475.212	11637.24
475.417	10775.05
475.621	10895.88
475.826	11055.62
476.031	10902.02
476.235	10723.85
476.44	11123.2
476.645	10502.67
476.849	10643.98
477.054	10508.81
477.259	10410.51
477.463	10361.36
477.668	9855.51
477.872	10177.04
478.077	10005.01
478.282	9808.41
478.486	9609.75
478.691	9701.91
478.895	9697.81
479.1	9538.07
479.304	9669.14
479.509	9187.87
479.713	9601.56
479.918	9292.32
480.122	9237.02
480.326	9349.66
480.531	9271.84
480.735	9021.99
480.94	9116.19
481.144	9493.02
481.348	8901.15
481.553	9009.7
481.757	8829.48
481.961	8974.88
482.166	9157.15
482.37	8897.06
482.574	8878.63
482.778	8925.73
482.983	9198.11
483.187	8890.92
483.391	8991.27
483.595	8827.43
483.8	8862.24
484.004	8690.21
484.208	8962.59
484.412	8915.49
484.616	8970.79
484.821	8907.3
485.025	8796.71
485.229	8827.43
485.433	8663.59
485.637	8759.84
485.841	8845.86
486.045	8956.45
486.249	8852
486.453	8841.76
486.657	8819.24
486.861	9095.71
487.065	8700.45
487.269	8935.97
487.473	8483.37
487.677	9021.99
487.881	8712.74
488.085	8966.69
488.289	8735.27
488.493	8800.8
488.697	8888.87
488.901	8890.92
489.105	8905.25
489.309	8948.26
489.512	9050.66
489.716	8974.88
489.92	8942.11
490.124	9009.7
490.328	9114.14
490.531	9026.08
490.735	9116.19
490.939	9151.01
491.143	8964.64
491.346	9056.8
491.55	9130.53
491.754	9173.53
491.958	9347.61
492.161	9169.44
492.365	9271.84
492.569	9228.83
492.772	9343.52
492.976	9339.42
493.18	9468.44
493.383	9435.67
493.587	9630.23
493.79	9724.44
493.994	9646.62
494.197	9769.49
494.401	9574.94
494.605	9679.38
494.808	9894.42
495.012	10000.91
495.215	9929.24
495.419	10131.98
495.622	10002.96
495.825	10179.09
496.029	10211.85
496.232	10609.16
496.436	10488.33
496.639	10945.03
496.843	10555.91
497.046	10736.13
497.249	11026.95
497.453	11088.39
497.656	11043.33
497.859	11098.63
498.063	11100.67
498.266	11465.21
498.469	11328
498.673	11698.68
498.876	11905.52
499.079	12020.21
499.282	11919.86
499.485	12333.55
499.689	12261.87
499.892	12374.51
500.095	12421.61
500.298	12917.22
500.501	12640.75
500.705	13083.11
500.908	13177.31
501.111	13220.32
501.314	13500.89
501.517	13781.46
501.72	13791.7
501.923	13648.35
502.126	13996.5
502.329	14174.67
502.532	14279.12
502.735	14453.2
502.938	14461.39
503.141	14744.01
503.344	15065.54
503.547	15116.74
503.75	15346.11
503.953	15452.61
504.156	15931.83
504.359	15790.52
504.562	15952.31
504.765	16191.92
504.968	16511.41
505.17	16490.93
505.373	16572.85
505.576	16880.04
505.779	17090.98
505.982	17142.18
506.185	17719.71
506.387	17693.08
506.59	17822.11
506.793	18373.01
506.996	18237.84
507.198	18561.42
507.401	18352.53
507.604	18839.95
507.807	19138.95
508.009	19356.04
508.212	19315.08
508.415	19784.06
508.617	20017.53
508.82	20349.3
509.022	20140.41
509.225	20701.55
509.428	21094.76
509.63	20947.31
509.833	21217.64
510.035	21635.42
510.238	21561.7
510.44	21834.08
510.643	22321.49
510.845	22466.9
511.048	22471
511.25	22964.56
511.453	23109.96
511.655	23775.55
511.858	23411.01
512.06	23744.83
512.262	24199.48
512.465	23998.78
512.667	24404.28
512.87	24969.52
513.072	24957.23
513.274	25456.93
513.477	25512.23
513.679	26089.76
513.881	26095.9
514.084	26259.74
514.286	26446.1
514.488	26648.85
514.69	27461.9
514.893	27527.43
515.095	27662.6
515.297	27871.49
515.499	28125.44
515.701	28547.32
515.904	28764.4
516.106	29288.68
516.308	29352.17
516.51	29610.21
516.712	29876.45
516.914	30130.4
517.116	30855.38
517.318	30671.06
517.52	31103.18
517.722	31201.49
517.925	31797.45
518.127	31949
518.329	32346.3
518.531	32252.09
518.733	32796.85
518.935	33114.29
519.136	32983.22
519.338	33833.13
519.54	33777.83
519.742	34121.89
519.944	34242.72
520.146	34576.54
520.348	35066
520.55	35549.32
520.752	35287.18
520.954	36059.27
521.155	36053.12
521.357	37017.72
521.559	36440.19
521.761	37302.39
521.963	37247.09
522.164	37593.2
522.366	37888.1
522.568	38027.37
522.77	38006.89
522.971	38713.44
523.173	38674.52
523.375	39022.68
523.576	39055.45
523.778	39317.59
523.98	39602.25
524.181	40128.58
524.383	39684.17
524.584	40427.59
524.786	40431.68
524.988	40509.5
525.189	40906.81
525.391	41318.45
525.592	41701.42
525.794	41816.11
525.995	41543.73
526.197	41938.99
526.398	41719.85
526.6	41965.61
526.801	42387.49
527.003	42450.98
527.204	42512.42
527.406	43411.48
527.607	43030.55
527.808	43796.49
528.01	42549.28
528.211	43161.62
528.412	44249.1
528.614	43724.82
528.815	43874.32
529.016	44257.29
529.218	43436.05
529.419	44247.05
529.62	44369.93
529.822	44199.94
530.023	44048.39
530.224	44644.35
530.425	44439.56
530.626	44386.31
530.828	44107.79
531.029	45516.79
531.23	44668.93
531.431	44552.19
531.632	45019.13
531.833	45043.71
532.035	45506.55
532.236	44953.6
532.437	45719.54
532.638	45402.1
532.839	45475.83
533.04	45498.36
533.241	44916.73
533.442	45518.84
533.643	45352.95
533.844	45383.67
534.045	45737.97
534.246	45608.95
534.447	46020.59
534.648	45355
534.849	45668.34
535.05	45215.74
535.251	45527.03
535.451	45436.92
535.652	46239.72
535.853	45963.25
536.054	45516.79
536.255	46055.4
536.456	45359.09
536.657	46094.32
536.857	45555.7
537.058	45387.77
537.259	45897.71
537.46	45940.72
537.66	45797.36
537.861	45889.52
538.062	45977.58
538.263	46004.2
538.463	45774.83
538.664	45799.41
538.865	46174.19
539.065	46335.98
539.266	45400.05
539.466	45957.1
539.667	45432.82
539.868	46329.83
540.068	45651.95
540.269	45797.36
540.469	45821.94
540.67	45604.85
540.87	45643.76
541.071	45621.23
541.271	45821.94
541.472	45486.07
541.672	45563.89
541.873	45377.53
542.073	45316.09
542.274	45680.63
542.474	45660.15
542.675	45420.53
542.875	46002.16
543.075	45527.03
543.276	45629.43
543.476	46297.06
543.676	45469.68
543.877	45729.78
544.077	45535.22
544.277	45168.63
544.478	45377.53
544.678	45961.2
544.878	45551.6
545.078	45793.26
545.279	45117.43
545.479	45352.95
545.679	45953.01
545.879	45377.53
546.079	45457.4
546.28	45819.89
546.48	44883.97
546.68	45680.63
546.88	45553.65
547.08	45768.69
547.28	45615.09
547.48	45703.15
547.68	45879.28
547.88	45049.85
548.081	45844.46
548.281	45359.09
548.481	45496.31
548.681	45656.05
548.881	45316.09
549.081	45398.01
549.28	45508.6
549.48	45260.79
549.68	45076.47
549.88	45684.72
550.08	45062.14
550.28	45465.59
550.48	44994.56
550.68	46071.79
550.88	45324.28
551.08	45477.88
551.279	45434.87
551.479	45031.42
551.679	45037.56
551.879	44996.6
552.079	45195.26
552.278	44912.64
552.478	45301.75
552.678	45191.16
552.878	45053.95
553.077	44867.58
553.277	44802.05
553.477	45520.88
553.676	44969.98
553.876	44998.65
554.076	44802.05
554.275	44611.59
554.475	44517.38
554.674	45266.94
554.874	44713.98
555.074	44695.55
555.273	44965.88
555.473	45103.1
555.672	44316.68
555.872	44453.89
556.071	44652.55
556.271	45031.42
556.47	44445.7
556.67	43743.25
556.869	44451.84
557.068	44550.15
557.268	43995.15
557.467	44515.33
557.667	44396.55
557.866	44019.72
558.065	44081.16
558.265	43970.57
558.464	44185.61
558.663	44085.26
558.863	44050.44
559.062	44103.69
559.261	43954.19
559.461	44341.25
559.66	43274.26
559.859	44066.83
560.058	43218.97
560.258	43298.84
560.457	43427.86
560.656	43343.89
560.855	43538.45
561.054	43186.2
561.253	42965.02
561.453	43417.62
561.652	43182.1
561.851	43501.59
562.05	42752.03
562.249	42557.47
562.448	43395.09
562.647	42950.68
562.846	42692.64
563.045	42993.69
563.244	42197.03
563.443	43264.02
563.642	42033.19
563.841	42549.28
564.04	42147.88
564.239	42870.81
564.438	42082.34
564.637	42229.8
564.836	42553.38
565.035	41799.72
565.234	42094.63
565.432	41930.79
565.631	41920.56
565.83	42049.58
566.029	41652.27
566.228	41799.72
566.427	41531.44
566.625	41482.29
566.824	40824.89
567.023	41693.23
567.222	40601.66
567.42	41392.18
567.619	41214.01
567.818	41232.44
568.016	40921.15
568.215	41556.02
568.414	40865.85
568.612	41070.65
568.811	40738.88
569.01	40788.03
569.208	40345.67
569.407	40562.75
569.605	39823.43
569.804	40255.56
570.002	40241.22
570.201	40159.3
570.4	39622.73
570.598	39704.65
570.797	39485.52
570.995	39800.91
571.193	38936.66
571.392	39649.36
571.59	38996.06
571.789	39493.71
571.987	39313.49
572.186	39477.33
572.384	38877.27
572.582	38961.24
572.781	38985.82
572.979	38211.68
573.177	38963.29
573.376	38889.56
573.574	38252.64
573.772	38461.54
573.971	38201.44
574.169	38211.68
574.367	37630.06
574.565	38287.46
574.763	37732.46
574.962	37539.95
575.16	37650.54
575.358	37605.48
575.556	37265.52
575.754	37851.24
575.952	37093.49
576.151	37376.11
576.349	36579.45
576.547	36966.52
576.745	37365.87
576.943	36958.33
577.141	36601.98
577.339	36847.74
577.537	36182.15
577.735	36659.32
577.933	36122.76
578.131	36051.08
578.329	35926.15
578.527	35403.92
578.725	36102.28
578.923	35991.69
579.121	35745.93
579.319	35709.07
579.516	35897.48
579.714	35336.34
579.912	35332.24
580.11	35391.63
580.308	35182.74
580.506	34971.8
580.704	34564.25
580.901	34930.84
581.099	34996.37
581.297	34824.34
581.495	34443.42
581.692	34654.36
581.89	34095.27
582.088	34353.31
582.285	34066.59
582.483	34277.54
582.681	33861.8
582.878	33837.22
583.076	33560.75
583.274	34019.49
583.471	33489.07
583.669	34078.88
583.866	33339.57
584.064	33822.89
584.262	33339.57
584.459	33657
584.657	33198.26
584.854	33243.31
585.052	32784.57
585.249	33136.82
585.447	32972.98
585.644	32426.17
585.841	32420.03
586.039	32639.16
586.236	32202.94
586.434	32108.74
586.631	31838.4
586.828	32096.45
587.026	32313.53
587.223	31959.23
587.42	31586.5
587.618	31856.84
587.815	31500.49
588.012	31465.67
588.21	31322.32
588.407	31471.82
588.604	31070.42
588.801	31258.83
588.999	31248.59
589.196	30832.85
589.393	31539.4
589.59	31019.22
589.787	30748.89
589.984	30597.34
590.182	30132.45
590.379	30771.41
590.576	30431.45
590.773	30566.62
590.97	30496.99
591.167	30210.27
591.364	29659.37
591.561	29978.85
591.758	29548.78
591.955	29888.74
592.152	30324.96
592.349	29554.92
592.546	30038.24
592.743	29735.14
592.94	29233.39
593.137	29477.1
593.334	29219.05
593.531	29116.65
593.727	29321.45
593.924	29149.42
594.121	28809.46
594.318	28905.71
594.515	28424.44
594.712	28920.05
594.908	28567.8
595.105	28872.95
595.302	28293.37
595.499	28397.82
595.696	28438.78
595.892	27769.09
596.089	28238.08
596.286	28117.25
596.482	27703.56
596.679	27994.37
596.876	28068.09
597.072	27506.95
597.269	27812.1
597.466	27652.36
597.662	27582.73
597.859	27289.87
598.055	27349.26
598.252	27230.48
598.448	27482.38
598.645	26974.48
598.841	27060.49
599.038	27078.93
599.234	26945.81
599.431	26796.31
599.627	26618.13
599.824	27085.07
600.02	26624.28
600.217	26716.43
600.413	26177.82
600.609	26124.57
600.806	25895.2
601.002	26118.43
601.198	25966.88
601.395	25856.29
601.591	25667.87
601.787	25952.54
601.984	25663.78
602.18	25508.13
602.376	25407.78
602.572	25547.04
602.769	25233.71
602.965	25420.07
603.161	25274.66
603.357	25020.72
603.553	24975.66
603.75	24955.18
603.946	24742.19
604.142	24846.64
604.338	24523.06
604.534	24854.83
604.73	24617.27
604.926	24414.52
605.122	24531.25
605.318	24543.54
605.514	24187.19
605.71	23992.64
605.906	23912.77
606.102	24045.88
606.298	23884.09
606.494	23763.26
606.69	23822.66
606.886	23681.35
607.082	23562.56
607.278	23601.47
607.474	23435.59
607.67	23507.27
607.866	23103.82
608.062	23595.33
608.257	23175.5
608.453	23243.08
608.649	23386.44
608.845	22671.7
609.041	22757.71
609.236	23056.71
609.432	23054.67
609.628	22849.87
609.824	22976.84
610.019	22229.34
610.215	22249.82
610.411	22886.73
610.606	22217.05
610.802	22442.32
610.998	22401.36
611.193	22485.33
611.389	22219.1
611.584	22438.23
611.78	22147.42
611.976	22225.24
612.171	22128.98
612.367	22114.65
612.562	21737.82
612.758	21524.83
612.953	21834.08
613.149	21952.86
613.344	21598.56
613.539	21907.8
613.735	21629.28
613.93	21721.44
614.126	21453.16
614.321	21793.12
614.517	21522.79
614.712	21422.44
614.907	21070.19
615.103	21514.59
615.298	21090.66
615.493	21514.59
615.688	20973.93
615.884	21137.77
616.079	20830.57
616.274	21016.94
616.47	20908.4
616.665	21221.73
616.86	20732.27
617.055	20621.68
617.25	20494.71
617.445	20597.1
617.641	20359.54
617.836	20590.96
618.031	20375.92
618.226	20638.06
618.421	20234.61
618.616	20351.35
618.811	19997.05
619.006	20302.2
619.201	19730.81
619.396	20078.97
619.591	19575.17
619.786	19966.33
619.981	19513.73
620.176	19999.1
620.371	19353.99
620.566	19386.75
620.761	19218.82
620.956	19593.6
621.151	18854.28
621.346	19014.02
621.541	18778.51
621.735	18960.78
621.93	18442.64
622.125	18792.84
622.32	18450.83
622.515	18471.31
622.709	18422.16
622.904	18323.86
623.099	18309.52
623.294	18395.54
623.488	18221.46
623.683	18104.73
623.878	17506.72
624.072	17871.26
624.267	17717.66
624.462	17613.21
624.656	17648.03
624.851	17408.42
625.046	17287.59
625.24	17387.94
625.435	17113.51
625.629	17045.93
625.824	16857.51
626.018	16988.58
626.213	16486.83
626.407	16865.71
626.602	16515.5
626.796	16722.35
626.991	16435.63
627.185	16419.25
627.38	16124.34
627.574	16034.23
627.768	15858.1
627.963	15999.41
628.157	15770.04
628.352	15954.36
628.546	15657.4
628.74	15593.92
628.935	15192.51
629.129	15567.29
629.323	15374.78
629.517	15282.63
629.712	15098.31
629.906	15202.75
630.1	14688.71
630.294	14991.81
630.489	14666.19
630.683	14830.02
630.877	14807.5
631.071	14621.13
631.265	14567.88
631.459	14584.27
631.653	14621.13
631.848	14334.42
632.042	14258.64
632.236	14178.77
632.43	13996.5
632.624	14252.5
632.818	14023.12
633.012	13871.57
633.206	13810.14
633.4	13971.93
633.594	13847
633.788	13806.04
633.982	13599.2
634.176	13576.67
634.369	13427.17
634.563	13275.62
634.757	13091.3
634.951	13498.84
635.145	13203.94
635.339	13046.24
635.533	12882.41
635.726	12839.4
635.92	12784.1
636.114	12743.14
636.308	12796.39
636.501	13099.49
636.695	12673.51
636.889	12444.14
637.083	12552.68
637.276	12378.61
637.47	12354.03
637.664	12204.53
637.857	12098.03
638.051	12235.25
638.244	12093.94
638.438	12159.47
638.632	12022.26
638.825	11885.05
639.019	11715.06
639.212	11934.2
639.406	11792.89
639.599	11758.07
639.793	11842.04
639.986	11436.54
640.18	11555.32
640.373	11280.89
640.567	11280.89
640.76	11395.58
640.954	11227.65
641.147	11325.95
641.34	11149.82
641.534	11282.94
641.727	10856.97
641.92	10938.88
642.114	10746.37
642.307	10803.72
642.5	10899.97
642.694	10605.06
642.887	10715.66
643.08	10756.61
643.273	10469.9
643.467	10385.93
643.66	10506.76
643.853	10177.04
644.046	10287.63
644.239	10359.31
644.432	10093.07
644.626	10043.92
644.819	10064.4
645.012	10070.55
645.205	9912.85
645.398	9949.71
645.591	9789.97
645.784	9742.87
645.977	9626.14
646.17	9843.22
646.363	9390.62
646.556	9300.51
646.749	9376.28
646.942	9431.58
647.135	9427.48
647.328	9247.26
647.521	9284.12
647.714	9093.66
647.907	8952.35
648.099	8843.81
648.292	8868.39
648.485	8860.2
648.678	9204.25
648.871	9030.18
649.064	8884.77
649.256	8833.57
649.449	8688.17
649.642	8639.01
649.835	8389.16
650.027	8671.78
650.22	8550.95
650.413	8600.1
650.605	8495.66
650.798	8292.91
650.991	8360.49
651.183	8210.99
651.376	8135.21
651.568	8358.44
651.761	8254
651.954	8159.79
652.146	7993.9
652.339	8004.14
652.531	8022.58
652.724	7957.04
652.916	7797.3
653.109	7961.14
653.301	7830.07
653.494	7838.26
653.686	7725.62
653.879	7615.03
654.071	7668.28
654.263	7457.34
654.456	7518.78
654.648	7569.98
654.84	7287.36
655.033	7455.29
655.225	7326.27
655.417	7316.03
655.61	7301.69
655.802	7240.25
655.994	7223.87
656.186	7144
656.379	7119.42
656.571	6900.29
656.763	6998.59
656.955	6990.4
657.148	6859.33
657.34	6933.06
657.532	6781.51
657.724	6937.15
657.916	6711.88
658.108	6718.02
658.3	6601.29
658.492	6722.12
658.684	6689.35
658.876	6457.93
659.068	6435.4
659.26	6502.98
659.452	6464.07
659.644	6470.22
659.836	6255.18
660.028	6410.82
660.22	6193.74
660.412	6234.7
660.604	6126.16
660.796	6111.82
660.988	6126.16
661.18	5995.09
661.372	6234.7
661.563	6083.15
661.755	5997.14
661.947	6027.85
662.139	5878.35
662.331	5730.9
662.522	5661.27
662.714	5769.81
662.906	5716.56
663.097	5767.76
663.289	5706.32
663.481	5788.24
663.673	5722.71
663.864	5565.01
664.056	5663.32
664.247	5536.34
664.439	5401.18
664.631	5546.58
664.822	5493.33
665.014	5503.57
665.205	5433.94
665.397	5395.03
665.588	5503.57
665.78	5300.83
665.971	5245.53
666.163	5212.76
666.354	5151.32
666.546	5063.26
666.737	5114.46
666.929	5061.21
667.12	5036.64
667.311	4940.38
667.503	5028.45
667.694	5003.87
667.885	4971.1
668.077	4862.56
668.268	4991.58
668.459	4780.64
668.651	4944.48
668.842	4737.63
669.033	4874.85
669.224	4672.1
669.416	4672.1
669.607	4844.13
669.798	4620.9
669.989	4715.11
670.18	4661.86
670.371	4610.66
670.563	4586.08
670.754	4584.04
670.945	4487.78
671.136	4522.6
671.327	4579.94
671.518	4479.59
671.709	4526.69
671.9	4444.77
672.091	4407.91
672.282	4307.56
672.473	4354.66
672.664	4516.45
672.855	4319.85
673.046	4344.42
673.237	4354.66
673.428	4428.39
673.619	4233.83
673.809	4321.9
674	4309.61
674.191	4301.42
674.382	4225.64
674.573	4254.31
674.764	4215.4
674.954	4201.07
675.145	4113
675.336	4094.57
675.527	4176.49
675.717	4065.9
675.908	4055.66
676.099	4053.61
676.289	3938.93
676.48	3998.32
676.671	3977.84
676.861	3820.14
677.052	3996.27
677.243	3857.01
677.433	3871.34
677.624	4031.09
677.814	3922.54
678.005	3902.06
678.195	3875.44
678.386	3852.91
678.576	3775.09
678.767	3854.96
678.957	3775.09
679.148	3850.86
679.338	3934.83
679.529	3781.23
679.719	3844.72
679.909	3857.01
680.1	3721.84
680.29	3619.44
680.481	3818.1
680.671	3660.4
680.861	3781.23
681.052	3777.14
681.242	3697.27
681.432	3633.78
681.622	3578.48
681.813	3627.64
682.003	3666.55
682.193	3613.3
682.383	3584.63
682.573	3646.07
682.764	3445.37
682.954	3515
683.144	3619.44
683.334	3488.37
683.524	3420.79
683.714	3512.95
683.904	3490.42
684.094	3482.23
684.284	3613.3
684.474	3568.24
684.664	3537.52
684.854	3519.09
685.044	3410.55
685.234	3385.98
685.424	3453.56
685.614	3443.32
685.804	3363.45
685.994	3359.35
686.184	3385.98
686.374	3345.02
686.564	3320.44
686.753	3310.2
686.943	3340.92
687.133	3197.56
687.323	3330.68
687.513	3295.86
687.702	3414.65
687.892	3285.62
688.082	3238.52
688.272	3390.07
688.461	3152.51
688.651	3277.43
688.841	3261.05
689.03	3164.79
689.22	3209.85
689.41	3183.23
689.599	3140.22
689.789	3336.82
689.979	3127.93
690.168	3242.62
690.358	3134.07
690.547	3172.99
690.737	3076.73
690.926	3119.74
691.116	3103.36
691.305	3115.64
691.495	3035.77
691.684	3240.57
691.874	3166.84
692.063	3166.84
692.252	3095.16
692.442	3056.25
692.631	3084.92
692.82	3205.75
693.01	3060.35
693.199	3111.55
693.388	2964.09
693.578	3129.98
693.767	3050.11
693.956	3076.73
694.146	3011.2
694.335	3025.53
694.524	2955.9
694.713	3070.59
694.902	2978.43
695.092	3041.92
695.281	2931.33
695.47	2873.98
695.659	2853.5
695.848	3048.06
696.037	2914.94
696.226	3027.58
696.415	3013.24
696.604	3007.1
696.793	3031.68
696.982	2908.8
697.171	2953.85
697.36	2980.48
697.549	2970.24
697.738	2990.72
697.927	2865.79
698.116	2908.8
698.305	2990.72
698.494	2970.24
698.683	3023.48
698.872	2878.08
699.061	3054.2
699.25	2880.13
699.438	2869.89
699.627	2876.03
699.816	3070.59
700.005	2908.8
700.193	2931.33
700.382	2908.8
700.571	2859.65
700.76	2894.46
700.948	2869.89
701.137	2851.46
701.326	2810.5
701.514	2853.5
701.703	2869.89
701.892	2790.02
702.08	2923.13
702.269	2867.84
702.457	2765.44
702.646	2757.25
702.834	2718.34
703.023	2802.3
703.212	2865.79
703.4	2824.83
703.589	2806.4
703.777	2765.44
703.965	2747.01
704.154	2845.31
704.342	2701.95
704.531	2800.26
704.719	2718.34
704.907	2654.85
705.096	2660.99
705.284	2775.68
705.472	2800.26
705.661	2665.09
705.849	2734.72
706.037	2753.15
706.226	2697.86
706.414	2605.7
706.602	2732.67
706.79	2622.08
706.979	2620.03
707.167	2732.67
707.355	2607.75
707.543	2632.32
707.731	2554.5
707.919	2615.94
708.107	2527.88
708.296	2656.9
708.484	2521.73
708.672	2495.11
708.86	2505.35
709.048	2482.82
709.236	2538.12
709.424	2546.31
709.612	2538.12
709.8	2597.51
709.988	2318.98
710.176	2521.73
710.364	2570.88
710.551	2491.01
710.739	2417.29
710.927	2462.34
711.115	2376.33
711.303	2491.01
711.491	2445.96
711.679	2433.67
711.866	2372.23
712.054	2355.85
712.242	2394.76
712.43	2460.29
712.617	2273.93
712.805	2353.8
712.993	2286.22
713.181	2333.32
713.368	2417.29
713.556	2323.08
713.744	2370.18
713.931	2343.56
714.119	2288.26
714.306	2364.04
714.494	2208.39
714.682	2337.41
714.869	2257.54
715.057	2267.78
715.244	2280.07
715.432	2269.83
715.619	2126.47
715.807	2208.39
715.994	2325.13
716.182	2189.96
716.369	2149
716.556	2171.53
716.744	2132.62
716.931	2085.51
717.119	2083.47
717.306	2140.81
717.493	2173.58
717.681	2153.1
717.868	2114.19
718.055	2175.63
718.242	2116.23
718.43	2071.18
718.617	2153.1
718.804	2089.61
718.991	2015.88
719.179	2050.7
719.366	2015.88
719.553	2056.84
719.74	2087.56
719.927	2138.76
720.114	1972.88
720.301	2017.93
720.488	1929.87
720.676	1976.97
720.863	1956.49
721.05	2122.38
721.237	1968.78
721.424	1933.97
721.611	1981.07
721.798	1852.05
721.985	1938.06
722.172	1903.25
722.358	1929.87
722.545	2005.64
722.732	1948.3
722.919	1841.81
723.106	1925.77
723.293	1915.53
723.48	1864.33
723.667	1827.47
723.853	1819.28
724.04	1825.42
724.227	1817.23
724.414	1915.53
724.6	1800.85
724.787	1907.34
724.974	1866.38
725.161	1839.76
725.347	1667.73
725.534	1813.13
725.72	1802.9
725.907	1806.99
726.094	1729.17
726.28	1813.13
726.467	1776.27
726.653	1751.7
726.84	1723.02
727.027	1845.9
727.213	1766.03
727.4	1874.57
727.586	1745.55
727.773	1708.69
727.959	1620.63
728.145	1649.3
728.332	1702.54
728.518	1727.12
728.705	1665.68
728.891	1804.94
729.077	1643.15
729.264	1675.92
729.45	1569.43
729.636	1682.07
729.823	1594
730.009	1622.67
730.195	1581.71
730.382	1583.76
730.568	1624.72
730.754	1612.43
730.94	1612.43
731.126	1577.62
731.313	1536.66
731.499	1624.72
731.685	1510.04
731.871	1536.66
732.057	1567.38
732.243	1600.15
732.429	1489.56
732.615	1626.77
732.801	1555.09
732.987	1557.14
733.173	1589.91
733.359	1571.47
733.545	1587.86
733.731	1514.13
733.917	1526.42
734.103	1536.66
734.289	1467.03
734.475	1516.18
734.661	1522.32
734.847	1471.12
735.033	1526.42
735.219	1606.29
735.404	1487.51
735.59	1534.61
735.776	1395.35
735.962	1491.6
736.148	1411.73
736.333	1428.12
736.519	1487.51
736.705	1358.49
736.89	1473.17
737.076	1413.78
737.262	1485.46
737.447	1415.83
737.633	1397.4
737.819	1393.3
738.004	1315.48
738.19	1317.53
738.375	1432.21
738.561	1434.26
738.747	1378.97
738.932	1315.48
739.118	1403.54
739.303	1333.91
739.489	1417.88
739.674	1247.9
739.859	1247.9
740.045	1276.57
740.23	1340.05
740.416	1319.57
740.601	1331.86
740.786	1305.24
740.972	1241.75
741.157	1348.25
741.342	1342.1
741.528	1311.38
741.713	1329.81
741.898	1276.57
742.084	1323.67
742.269	1282.71
742.454	1305.24
742.639	1254.04
742.824	1290.9
743.01	1229.46
743.195	1202.84
743.38	1239.7
743.565	1315.48
743.75	1155.74
743.935	1219.22
744.12	1170.07
744.305	1235.61
744.49	1170.07
744.675	1176.22
744.86	1165.98
745.045	1206.94
745.23	1118.87
745.415	1151.64
745.6	1196.7
745.785	1215.13
745.97	1176.22
746.155	1145.5
746.34	1151.64
746.525	1135.26
746.71	1026.72
746.895	1184.41
747.079	1082.01
747.264	1147.55
747.449	1088.15
747.634	1157.79
747.819	979.61
748.003	1168.02
748.188	1028.76
748.373	1077.91
748.557	1010.33
748.742	1092.25
748.927	1028.76
749.111	1057.43
749.296	1008.28
749.481	1036.95
749.665	1002.14
749.85	1069.72
750.034	975.52
750.219	944.8
750.404	1094.3
750.588	1004.19
750.773	1071.77
750.957	957.08
751.141	940.7
751.326	1010.33
751.51	1047.19
751.695	979.61
751.879	950.94
752.064	942.75
752.248	883.36
752.432	864.93
752.617	856.73
752.801	944.8
752.985	909.98
753.17	932.51
753.354	864.93
753.538	819.87
753.722	842.4
753.907	852.64
754.091	834.21
754.275	891.55
754.459	873.12
754.643	881.31
754.828	842.4
755.012	752.29
755.196	801.44
755.38	807.58
755.564	922.27
755.748	783.01
755.932	842.4
756.116	768.67
756.3	785.05
756.484	793.25
756.668	729.76
756.852	783.01
757.036	866.97
757.22	680.61
757.404	789.15
757.588	797.34
757.772	813.73
757.956	789.15
758.14	768.67
758.323	690.85
758.507	764.58
758.691	727.71
758.875	809.63
759.059	727.71
759.242	719.52
759.426	651.94
759.61	670.37
759.794	721.57
759.977	672.42
760.161	680.61
760.345	733.86
760.528	715.42
760.712	647.84
760.895	727.71
761.079	651.94
761.263	643.74
761.446	699.04
761.63	684.7
761.813	643.74
761.997	694.94
762.18	631.46
762.364	651.94
762.547	578.21
762.731	668.32
762.914	666.27
763.098	549.54
763.281	725.66
763.464	602.79
763.648	686.75
763.831	623.27
764.015	586.4
764.198	662.18
764.381	602.79
764.564	559.78
764.748	688.8
764.931	635.55
765.114	572.07
765.297	610.98
765.481	602.79
765.664	674.46
765.847	649.89
766.03	594.59
766.213	510.63
766.397	537.25
766.58	576.16
766.763	645.79
766.946	520.87
767.129	586.4
767.312	545.44
767.495	625.31
767.678	621.22
767.861	518.82
768.044	565.92
768.227	608.93
768.41	596.64
768.593	621.22
768.776	613.03
768.959	621.22
769.142	590.5
769.324	555.68
769.507	600.74
769.69	576.16
769.873	555.68
770.056	539.3
770.239	494.24
770.421	547.49
770.604	492.2
770.787	576.16
770.97	567.97
771.152	602.79
771.335	549.54
771.518	608.93
771.7	492.2
771.883	479.91
772.066	533.15
772.248	477.86
772.431	576.16
772.613	553.63
772.796	395.94
772.978	531.11
773.161	512.67
773.343	467.62
773.526	473.76
773.708	606.88
773.891	463.52
774.073	479.91
774.256	535.2
774.438	518.82
774.621	473.76
774.803	522.91
774.985	457.38
775.168	455.33
775.35	469.67
775.532	443.04
775.715	359.08
775.897	438.95
776.079	473.76
776.261	449.19
776.444	408.23
776.626	359.08
776.808	367.27
776.99	484
777.173	459.43
777.355	438.95
777.537	457.38
777.719	455.33
777.901	359.08
778.083	457.38
778.265	424.61
778.447	404.13
778.629	404.13
778.811	400.04
778.993	395.94
779.175	397.99
779.357	426.66
779.539	457.38
779.721	424.61
779.903	469.67
780.085	412.32
780.267	412.32
780.449	465.57
780.631	365.22
780.812	359.08
780.994	393.89
781.176	352.93
781.358	350.89
781.54	385.7
781.721	340.65
781.903	303.78
782.085	340.65
782.267	395.94
782.448	369.32
782.63	273.06
782.812	318.12
782.993	369.32
783.175	426.66
783.357	373.41
783.538	361.13
783.72	324.26
783.901	273.06
784.083	371.37
784.264	275.11
784.446	305.83
784.627	326.31
784.809	305.83
784.99	342.69
785.172	338.6
785.353	309.93
785.535	367.27
785.716	275.11
785.897	285.35
786.079	279.21
786.26	332.45
786.441	295.59
786.623	258.73
786.804	301.73
786.985	277.16
787.167	309.93
787.348	273.06
787.529	381.6
787.71	316.07
787.891	301.73
788.073	277.16
788.254	295.59
788.435	275.11
788.616	289.45
788.797	344.74
788.978	221.86
789.159	307.88
789.34	262.82
789.522	203.43
789.703	275.11
789.884	240.3
790.065	277.16
790.246	320.17
790.427	236.2
790.607	209.58
790.788	289.45
790.969	264.87
791.15	266.92
791.331	250.53
791.512	311.97
791.693	223.91
791.874	238.25
792.054	264.87
792.235	285.35
792.416	172.71
792.597	230.06
792.778	191.14
792.958	221.86
793.139	287.4
793.32	211.62
793.5	185
793.681	228.01
793.862	242.34
794.042	236.2
794.223	205.48
794.404	256.68
794.584	277.16
794.765	156.33
794.945	180.9
795.126	86.7
795.306	168.62
795.487	230.06
795.667	207.53
795.848	217.77
796.028	172.71
796.209	189.1
796.389	144.04
796.57	314.02
796.75	219.82
796.93	121.51
797.111	162.47
797.291	160.42
797.471	176.81
797.652	207.53
797.832	199.34
798.012	101.03
798.192	146.09
798.373	123.56
798.553	123.56
798.733	152.23
798.913	228.01
799.093	162.47
799.274	176.81
799.454	146.09
799.634	185
799.814	197.29
799.994	131.75
800.174	228.01
800.354	127.66
800.534	137.9
800.714	111.27
800.894	148.14
801.074	146.09
801.254	154.28
801.434	101.03
801.614	201.38
801.794	121.51
801.974	432.8
802.154	154.28
802.334	195.24
802.514	137.9
802.693	158.38
802.873	152.23
803.053	203.43
803.233	98.99
803.413	174.76
803.592	174.76
803.772	127.66
803.952	164.52
804.131	80.55
804.311	117.42
804.491	160.42
804.67	105.13
804.85	199.34
805.03	125.61
805.209	172.71
805.389	111.27
805.568	135.85
805.748	125.61
805.928	86.7
806.107	148.14
806.287	139.94
806.466	131.75
806.646	178.86
806.825	82.6
807.004	98.99
807.184	137.9
807.363	162.47
807.543	111.27
807.722	92.84
807.901	152.23
808.081	129.7
808.26	53.93
808.439	187.05
808.619	121.51
808.798	160.42
808.977	86.7
809.156	103.08
809.336	162.47
809.515	80.55
809.694	141.99
809.873	109.23
810.052	103.08
810.231	119.46
810.411	107.18
810.59	78.51
810.769	131.75
810.948	98.99
811.127	25.26
811.306	94.89
811.485	178.86
811.664	129.7
811.843	119.46
812.022	166.57
812.201	66.22
812.38	53.93
812.559	125.61
812.737	127.66
812.916	131.75
813.095	82.6
813.274	113.32
813.453	103.08
813.632	74.41
813.811	86.7
813.989	172.71
814.168	129.7
814.347	103.08
814.526	113.32
814.704	131.75
814.883	185
815.062	80.55
815.24	129.7
815.419	88.75
815.598	86.7
815.776	-19.8
815.955	113.32
816.133	84.65
816.312	72.36
816.49	101.03
816.669	55.98
816.847	60.07
817.026	88.75
817.204	78.51
817.383	-30.04
817.561	82.6
817.74	105.13
817.918	74.41
818.097	84.65
818.275	103.08
818.453	86.7
818.632	107.18
818.81	64.17
818.988	60.07
819.167	45.74
819.345	35.5
819.523	84.65
819.701	78.51
819.879	66.22
820.058	98.99
820.236	105.13
820.414	131.75
820.592	98.99
820.77	62.12
820.948	76.46
821.127	6.83
821.305	135.85
821.483	96.94
821.661	41.64
821.839	6.83
822.017	84.65
822.195	133.8
822.373	39.59
822.551	84.65
822.729	47.79
822.907	62.12
823.085	80.55
823.262	115.37
823.44	51.88
823.618	39.59
823.796	98.99
823.974	111.27
824.152	152.23
824.329	121.51
824.507	96.94
824.685	78.51
824.863	101.03
825.04	29.35
825.218	66.22
825.396	72.36
825.574	37.55
825.751	105.13
825.929	103.08
826.107	-5.46
826.284	45.74
826.462	74.41
826.639	80.55
826.817	33.45
826.994	15.02
827.172	96.94
827.349	-3.41
827.527	55.98
827.704	70.31
827.882	60.07
828.059	19.11
828.237	19.11
828.414	58.03
828.591	90.79
828.769	6.83
828.946	82.6
829.124	137.9
829.301	43.69
829.478	0.68
829.655	113.32
829.833	127.66
830.01	51.88
830.187	144.04
830.364	60.07
830.542	78.51
830.719	92.84
830.896	74.41
831.073	21.16
831.25	6.83
831.427	15.02
831.604	90.79
831.782	-9.56
831.959	53.93
832.136	105.13
832.313	15.02
832.49	53.93
832.667	19.11
832.844	60.07
833.021	58.03
833.198	82.6
833.374	58.03
833.551	-9.56
833.728	25.26
833.905	37.55
834.082	-17.75
834.259	19.11
834.436	58.03
834.612	15.02
834.789	33.45
834.966	21.16
835.143	31.4
835.319	41.64
835.496	76.46
835.673	53.93
835.85	72.36
836.026	35.5
836.203	117.42
836.38	6.83
836.556	105.13
836.733	43.69
836.909	80.55
837.086	17.07
837.262	115.37
837.439	25.26
837.616	74.41
837.792	70.31
837.968	-11.61
838.145	21.16
838.321	-11.61
838.498	19.11
838.674	2.73
838.851	64.17
839.027	17.07
839.203	66.22
839.38	31.4
839.556	127.66
839.732	33.45
839.909	-36.18
840.085	-27.99
840.261	-25.94
840.437	60.07
840.614	64.17
840.79	21.16
840.966	101.03
841.142	58.03
841.318	58.03
841.494	60.07
841.671	58.03
841.847	55.98
842.023	92.84
842.199	70.31
842.375	88.75
842.551	4.78
842.727	-3.41
842.903	23.21
843.079	62.12
843.255	17.07
843.431	53.93
843.607	-1.37
843.783	49.83
843.959	53.93
844.134	64.17
844.31	33.45
844.486	21.16
844.662	17.07
844.838	39.59
845.013	47.79
845.189	53.93
845.365	37.55
845.541	43.69
845.716	17.07
845.892	17.07
846.068	-19.8
846.244	19.11
846.419	-15.7
846.595	15.02
846.77	23.21
846.946	47.79
847.122	51.88
847.297	31.4
847.473	51.88
847.648	-11.61
847.824	74.41
847.999	39.59
848.175	-7.51
848.35	45.74
848.526	31.4
848.701	51.88
848.876	-13.65
849.052	-27.99
849.227	-25.94
849.403	-17.75
849.578	51.88
849.753	-27.99
849.929	74.41
850.104	-42.32
850.279	-23.89
850.454	10.92
850.63	72.36
850.805	25.26
850.98	49.83
851.155	-11.61
851.33	39.59
851.505	-5.46
851.681	60.07
851.856	25.26
852.031	31.4
852.206	-11.61
852.381	45.74
852.556	-9.56
852.731	51.88
852.906	-17.75
853.081	4.78
853.256	35.5
853.431	12.97
853.606	51.88
853.781	39.59
853.956	74.41
854.131	21.16
854.305	2.73
854.48	74.41
854.655	66.22
854.83	-13.65
855.005	-23.89
855.18	6.83
855.354	-52.56
855.529	125.61
855.704	-62.8
855.879	8.87
856.053	-40.28
856.228	0.68
856.403	23.21
856.577	35.5
856.752	33.45
856.926	15.02
857.101	12.97
857.276	33.45
857.45	6.83
857.625	2.73
857.799	-3.41
857.974	-5.46
858.148	4.78
858.323	-9.56
858.497	-1.37
858.672	51.88
858.846	-56.66
859.02	17.07
859.195	-15.7
859.369	-25.94
859.543	27.31
859.718	60.07
859.892	70.31
860.066	-73.04
860.241	-17.75
860.415	25.26
860.589	-50.52
860.763	45.74
860.938	-46.42
861.112	12.97
861.286	-11.61
861.46	-46.42
861.634	55.98
861.808	92.84
861.982	82.6
862.157	-15.7
862.331	60.07
862.505	70.31
862.679	12.97
862.853	8.87
863.027	8.87
863.201	88.75
863.375	-1.37
863.549	53.93
863.722	4.78
863.896	70.31
864.07	10.92
864.244	29.35
864.418	23.21
864.592	43.69
864.766	27.31
864.939	0.68
865.113	-21.84
865.287	-38.23
865.461	-36.18
865.634	0.68
865.808	19.11
865.982	-1.37
866.156	-1.37
866.329	-30.04
866.503	-3.41
866.676	17.07
866.85	8.87
867.024	70.31
867.197	84.65
867.371	12.97
867.544	-23.89
867.718	33.45
867.891	19.11
868.065	0.68
868.238	-56.66
868.412	35.5
868.585	-7.51
868.759	51.88
868.932	37.55
869.105	64.17
869.279	-11.61
869.452	-17.75
869.625	47.79
869.799	45.74
869.972	-17.75
870.145	148.14
870.319	19.11
870.492	-9.56
870.665	-44.37
870.838	49.83
871.011	2.73
871.185	-27.99
871.358	-19.8
871.531	-36.18
871.704	-32.08
871.877	55.98
872.05	49.83
872.223	-85.33
872.396	8.87
872.569	58.03
872.742	6.83
872.915	17.07
873.088	-64.85
873.261	-9.56
873.434	96.94
873.607	-52.56
873.78	19.11
873.953	-32.08
874.126	-11.61
874.299	17.07
874.471	8.87
874.644	27.31
874.817	33.45
874.99	-5.46
875.163	-48.47
875.335	12.97
875.508	-40.28
875.681	35.5
875.853	29.35
876.026	8.87
876.199	23.21
876.371	53.93
876.544	-25.94
876.717	-3.41
876.889	29.35
877.062	17.07
877.234	-42.32
877.407	37.55
877.579	4.78
877.752	78.51
877.924	8.87
878.097	37.55
878.269	62.12
878.442	78.51
878.614	47.79
878.786	49.83
878.959	-5.46
879.131	12.97
879.303	-38.23
879.476	-21.84
879.648	-1.37
879.82	66.22
879.993	109.23
880.165	2.73
880.337	-19.8
880.509	45.74
880.681	-36.18
880.854	-25.94
881.026	33.45
881.198	31.4
881.37	-19.8
881.542	55.98
881.714	37.55
881.886	29.35
882.058	-23.89
882.23	101.03
882.402	-58.71
882.574	21.16
882.746	43.69
882.918	105.13
883.09	10.92
883.262	15.02
883.434	29.35
883.606	29.35
883.778	-36.18
883.95	78.51
884.122	-38.23
884.293	68.27
884.465	6.83
884.637	80.55
884.809	-15.7
884.98	15.02
885.152	-44.37
885.324	-46.42
885.496	39.59
885.667	21.16
885.839	35.5
886.011	96.94
886.182	37.55
886.354	17.07
886.525	2.73
886.697	-7.51
886.869	10.92
887.04	-11.61
887.212	53.93
887.383	51.88
887.555	-11.61
887.726	25.26
887.897	31.4
888.069	27.31
888.24	17.07
888.412	-1.37
888.583	-32.08
888.754	0.68
888.926	-30.04
889.097	51.88
889.268	-19.8
889.44	29.35
889.611	10.92
889.782	-9.56
889.953	-3.41
890.125	-32.08
890.296	12.97
890.467	19.11
890.638	-19.8
890.809	66.22
890.98	25.26
891.151	49.83
891.323	-5.46
891.494	15.02
891.665	-50.52
891.836	21.16
892.007	15.02
892.178	-1.37
892.349	47.79
892.52	-11.61
892.691	23.21
892.862	-11.61
893.032	15.02
893.203	49.83
893.374	70.31
893.545	53.93
893.716	25.26
893.887	15.02
894.057	8.87
894.228	-64.85
894.399	-9.56
894.57	2.73
894.74	31.4
894.911	17.07
895.082	47.79
895.253	29.35
895.423	-23.89
895.594	0.68
895.764	-17.75
895.935	-3.41
896.106	-5.46
896.276	-1.37
896.447	55.98
896.617	4.78
896.788	-32.08
896.958	-5.46
897.129	25.26
897.299	-7.51
897.47	-42.32
897.64	35.5
897.81	15.02
897.981	35.5
898.151	4.78
898.322	41.64
898.492	-60.76
898.662	-15.7
898.832	-46.42
899.003	41.64
899.173	-36.18
899.343	2.73
899.513	-48.47
