Data from USB4F104151__233__14-00-50-119.txt Node

Date: Thu Mar 13 14:00:50 EDT 2025
User: louis
Spectrometer: USB4F10415
Trigger mode: 4
Integration Time (sec): 1.000000E-2
Scans to average: 1
Electric dark correction enabled: true
Nonlinearity correction enabled: false
Boxcar width: 0
XAxis mode: Wavelengths
Number of Pixels in Spectrum: 3648
>>>>>Begin Spectral Data<<<<<
178.204	-68.95
178.424	-68.95
178.644	-68.95
178.864	-66.9
179.084	-105.81
179.304	72.36
179.524	-32.08
179.744	-54.61
179.964	45.74
180.184	-17.75
180.404	-44.37
180.624	-13.65
180.844	10.92
181.064	-7.51
181.283	47.79
181.503	27.31
181.723	-34.13
181.943	-62.8
182.163	31.4
182.383	-7.51
182.602	66.22
182.822	17.07
183.042	10.92
183.262	107.18
183.482	39.59
183.701	10.92
183.921	4.78
184.141	-27.99
184.361	47.79
184.58	58.03
184.8	49.83
185.02	-13.65
185.239	33.45
185.459	2.73
185.679	43.69
185.898	-36.18
186.118	-73.04
186.338	-27.99
186.557	78.51
186.777	-56.66
186.997	-46.42
187.216	35.5
187.436	64.17
187.655	-13.65
187.875	-19.8
188.095	8.87
188.314	-7.51
188.534	17.07
188.753	-5.46
188.973	-9.56
189.192	41.64
189.412	15.02
189.631	2.73
189.851	23.21
190.07	25.26
190.29	-54.61
190.509	27.31
190.729	53.93
190.948	33.45
191.168	115.37
191.387	0.68
191.607	-34.13
191.826	72.36
192.045	-21.84
192.265	10.92
192.484	10.92
192.704	6.83
192.923	-5.46
193.142	17.07
193.362	-9.56
193.581	0.68
193.8	-30.04
194.02	29.35
194.239	-7.51
194.458	2.73
194.678	-15.7
194.897	-23.89
195.116	-44.37
195.335	86.7
195.555	-46.42
195.774	60.07
195.993	15.02
196.212	62.12
196.432	39.59
196.651	27.31
196.87	-11.61
197.089	55.98
197.308	-11.61
197.528	35.5
197.747	-75.09
197.966	19.11
198.185	51.88
198.404	15.02
198.623	-1.37
198.842	15.02
199.062	43.69
199.281	21.16
199.5	-40.28
199.719	23.21
199.938	23.21
200.157	72.36
200.376	-1.37
200.595	12.97
200.814	12.97
201.033	-1.37
201.252	31.4
201.471	-58.71
201.69	31.4
201.909	21.16
202.128	-36.18
202.347	-1.37
202.566	-3.41
202.785	-9.56
203.004	41.64
203.223	74.41
203.442	6.83
203.661	35.5
203.879	-64.85
204.098	10.92
204.317	78.51
204.536	12.97
204.755	37.55
204.974	53.93
205.193	41.64
205.411	33.45
205.63	21.16
205.849	-36.18
206.068	4.78
206.287	-42.32
206.505	53.93
206.724	-21.84
206.943	-44.37
207.162	43.69
207.381	-23.89
207.599	12.97
207.818	29.35
208.037	35.5
208.255	23.21
208.474	6.83
208.693	-50.52
208.911	58.03
209.13	-48.47
209.349	2.73
209.567	-9.56
209.786	-25.94
210.005	-30.04
210.223	-38.23
210.442	37.55
210.661	-13.65
210.879	-1.37
211.098	10.92
211.316	103.08
211.535	-5.46
211.753	-9.56
211.972	-9.56
212.191	10.92
212.409	-3.41
212.628	43.69
212.846	-42.32
213.065	15.02
213.283	49.83
213.502	-25.94
213.72	68.27
213.938	41.64
214.157	-7.51
214.375	-1.37
214.594	31.4
214.812	8.87
215.031	109.23
215.249	19.11
215.467	25.26
215.686	43.69
215.904	117.42
216.122	47.79
216.341	-9.56
216.559	55.98
216.778	-1.37
216.996	23.21
217.214	0.68
217.432	51.88
217.651	25.26
217.869	19.11
218.087	19.11
218.306	43.69
218.524	-15.7
218.742	-27.99
218.96	92.84
219.179	12.97
219.397	2.73
219.615	-7.51
219.833	-19.8
220.051	-19.8
220.27	62.12
220.488	80.55
220.706	15.02
220.924	6.83
221.142	29.35
221.36	31.4
221.578	10.92
221.796	29.35
222.015	45.74
222.233	-42.32
222.451	60.07
222.669	-62.8
222.887	10.92
223.105	6.83
223.323	-11.61
223.541	-19.8
223.759	31.4
223.977	10.92
224.195	51.88
224.413	76.46
224.631	64.17
224.849	2.73
225.067	64.17
225.285	45.74
225.503	-54.61
225.721	37.55
225.939	31.4
226.157	60.07
226.375	92.84
226.592	-15.7
226.81	15.02
227.028	-71
227.246	39.59
227.464	10.92
227.682	21.16
227.9	-1.37
228.117	-58.71
228.335	68.27
228.553	43.69
228.771	-1.37
228.989	-5.46
229.206	55.98
229.424	-21.84
229.642	37.55
229.86	27.31
230.077	-32.08
230.295	-21.84
230.513	64.17
230.731	-1.37
230.948	103.08
231.166	76.46
231.384	0.68
231.601	51.88
231.819	39.59
232.037	-34.13
232.254	-19.8
232.472	27.31
232.689	-9.56
232.907	19.11
233.125	-42.32
233.342	-5.46
233.56	-58.71
233.777	4.78
233.995	21.16
234.213	15.02
234.43	0.68
234.648	55.98
234.865	-5.46
235.083	-54.61
235.3	58.03
235.518	10.92
235.735	64.17
235.953	31.4
236.17	-13.65
236.388	2.73
236.605	6.83
236.822	109.23
237.04	39.59
237.257	43.69
237.475	60.07
237.692	-38.23
237.909	35.5
238.127	2.73
238.344	-23.89
238.562	60.07
238.779	76.46
238.996	2.73
239.214	17.07
239.431	-36.18
239.648	-36.18
239.865	19.11
240.083	60.07
240.3	-30.04
240.517	-42.32
240.735	-3.41
240.952	-36.18
241.169	29.35
241.386	49.83
241.603	-3.41
241.821	-17.75
242.038	29.35
242.255	-58.71
242.472	19.11
242.689	-11.61
242.907	41.64
243.124	62.12
243.341	-9.56
243.558	10.92
243.775	19.11
243.992	60.07
244.209	4.78
244.426	47.79
244.643	4.78
244.86	-30.04
245.078	-19.8
245.295	15.02
245.512	-27.99
245.729	-19.8
245.946	12.97
246.163	-52.56
246.38	4.78
246.597	51.88
246.814	49.83
247.031	-38.23
247.248	109.23
247.464	2.73
247.681	-30.04
247.898	76.46
248.115	0.68
248.332	-9.56
248.549	-3.41
248.766	43.69
248.983	2.73
249.2	10.92
249.417	33.45
249.633	15.02
249.85	39.59
250.067	37.55
250.284	23.21
250.501	2.73
250.717	-3.41
250.934	-15.7
251.151	68.27
251.368	-21.84
251.585	58.03
251.801	-42.32
252.018	-3.41
252.235	-52.56
252.451	-46.42
252.668	-1.37
252.885	21.16
253.102	101.03
253.318	-38.23
253.535	-32.08
253.752	6.83
253.968	33.45
254.185	92.84
254.401	-11.61
254.618	-38.23
254.835	-38.23
255.051	19.11
255.268	17.07
255.484	43.69
255.701	-42.32
255.917	62.12
256.134	2.73
256.351	51.88
256.567	43.69
256.784	-54.61
257	4.78
257.217	4.78
257.433	76.46
257.65	-5.46
257.866	66.22
258.082	17.07
258.299	-15.7
258.515	-13.65
258.732	35.5
258.948	76.46
259.165	-21.84
259.381	10.92
259.597	-17.75
259.814	29.35
260.03	39.59
260.246	47.79
260.463	66.22
260.679	10.92
260.895	39.59
261.112	72.36
261.328	-54.61
261.544	10.92
261.761	88.75
261.977	-71
262.193	86.7
262.409	-21.84
262.626	-5.46
262.842	19.11
263.058	-42.32
263.274	-3.41
263.49	-54.61
263.707	41.64
263.923	-13.65
264.139	-32.08
264.355	23.21
264.571	68.27
264.787	27.31
265.004	29.35
265.22	43.69
265.436	17.07
265.652	10.92
265.868	39.59
266.084	47.79
266.3	10.92
266.516	-38.23
266.732	58.03
266.948	0.68
267.164	6.83
267.38	-3.41
267.596	-36.18
267.812	82.6
268.028	51.88
268.244	-38.23
268.46	43.69
268.676	-5.46
268.892	29.35
269.108	6.83
269.324	31.4
269.54	31.4
269.756	17.07
269.972	-56.66
270.188	-30.04
270.403	23.21
270.619	27.31
270.835	70.31
271.051	19.11
271.267	55.98
271.483	84.65
271.698	25.26
271.914	45.74
272.13	31.4
272.346	35.5
272.562	27.31
272.777	-11.61
272.993	-9.56
273.209	10.92
273.425	-1.37
273.64	-9.56
273.856	80.55
274.072	23.21
274.287	35.5
274.503	-25.94
274.719	17.07
274.934	47.79
275.15	19.11
275.366	35.5
275.581	29.35
275.797	15.02
276.012	-5.46
276.228	60.07
276.444	-7.51
276.659	-27.99
276.875	41.64
277.09	6.83
277.306	6.83
277.521	-1.37
277.737	88.75
277.952	47.79
278.168	74.41
278.383	-13.65
278.599	74.41
278.814	-1.37
279.03	-15.7
279.245	2.73
279.461	-30.04
279.676	-40.28
279.892	29.35
280.107	58.03
280.322	-27.99
280.538	-9.56
280.753	-1.37
280.969	80.55
281.184	96.94
281.399	2.73
281.615	21.16
281.83	-34.13
282.045	10.92
282.26	-15.7
282.476	43.69
282.691	2.73
282.906	33.45
283.122	-21.84
283.337	60.07
283.552	2.73
283.767	37.55
283.983	6.83
284.198	4.78
284.413	45.74
284.628	103.08
284.843	19.11
285.058	4.78
285.274	4.78
285.489	-5.46
285.704	96.94
285.919	60.07
286.134	27.31
286.349	-60.76
286.564	10.92
286.779	-34.13
286.995	64.17
287.21	51.88
287.425	25.26
287.64	-50.52
287.855	68.27
288.07	-30.04
288.285	45.74
288.5	31.4
288.715	-52.56
288.93	-21.84
289.145	39.59
289.36	-9.56
289.575	31.4
289.79	68.27
290.004	35.5
290.219	49.83
290.434	43.69
290.649	-54.61
290.864	25.26
291.079	-64.85
291.294	25.26
291.509	21.16
291.724	-46.42
291.938	-17.75
292.153	-44.37
292.368	4.78
292.583	2.73
292.798	37.55
293.012	19.11
293.227	-5.46
293.442	2.73
293.657	19.11
293.871	-9.56
294.086	39.59
294.301	21.16
294.516	-30.04
294.73	-9.56
294.945	-5.46
295.16	-9.56
295.374	-21.84
295.589	105.13
295.804	17.07
296.018	4.78
296.233	-36.18
296.447	-27.99
296.662	6.83
296.877	49.83
297.091	39.59
297.306	86.7
297.52	-1.37
297.735	-46.42
297.949	105.13
298.164	80.55
298.378	17.07
298.593	39.59
298.807	-21.84
299.022	15.02
299.236	-1.37
299.451	39.59
299.665	35.5
299.88	88.75
300.094	-19.8
300.309	27.31
300.523	8.87
300.737	10.92
300.952	21.16
301.166	-27.99
301.381	27.31
301.595	29.35
301.809	51.88
302.024	27.31
302.238	8.87
302.452	-5.46
302.667	8.87
302.881	-11.61
303.095	-30.04
303.309	55.98
303.524	88.75
303.738	21.16
303.952	-17.75
304.166	37.55
304.381	27.31
304.595	6.83
304.809	-7.51
305.023	37.55
305.237	-9.56
305.452	27.31
305.666	58.03
305.88	-15.7
306.094	27.31
306.308	-25.94
306.522	66.22
306.736	15.02
306.95	23.21
307.164	12.97
307.379	-1.37
307.593	-50.52
307.807	78.51
308.021	2.73
308.235	-5.46
308.449	25.26
308.663	51.88
308.877	76.46
309.091	53.93
309.305	49.83
309.519	-42.32
309.733	21.16
309.947	-19.8
310.161	27.31
310.374	-15.7
310.588	94.89
310.802	43.69
311.016	137.9
311.23	-9.56
311.444	55.98
311.658	-9.56
311.872	74.41
312.085	12.97
312.299	51.88
312.513	35.5
312.727	19.11
312.941	21.16
313.154	41.64
313.368	10.92
313.582	-54.61
313.796	49.83
314.009	68.27
314.223	19.11
314.437	-5.46
314.651	-1.37
314.864	51.88
315.078	-30.04
315.292	6.83
315.505	64.17
315.719	62.12
315.933	53.93
316.146	17.07
316.36	10.92
316.573	64.17
316.787	29.35
317.001	33.45
317.214	60.07
317.428	43.69
317.641	12.97
317.855	17.07
318.068	10.92
318.282	51.88
318.495	-23.89
318.709	4.78
318.922	4.78
319.136	19.11
319.349	43.69
319.563	-5.46
319.776	43.69
319.99	27.31
320.203	35.5
320.417	-21.84
320.63	-5.46
320.843	12.97
321.057	47.79
321.27	29.35
321.483	-13.65
321.697	53.93
321.91	60.07
322.124	29.35
322.337	-7.51
322.55	68.27
322.763	47.79
322.977	-52.56
323.19	-17.75
323.403	45.74
323.617	62.12
323.83	-36.18
324.043	35.5
324.256	-1.37
324.469	-19.8
324.683	70.31
324.896	-17.75
325.109	74.41
325.322	-13.65
325.535	-19.8
325.748	-3.41
325.962	-9.56
326.175	103.08
326.388	62.12
326.601	-9.56
326.814	68.27
327.027	-52.56
327.24	29.35
327.453	-3.41
327.666	78.51
327.879	111.27
328.092	62.12
328.305	29.35
328.518	19.11
328.731	60.07
328.944	39.59
329.157	2.73
329.37	29.35
329.583	15.02
329.796	6.83
330.009	0.68
330.222	31.4
330.435	51.88
330.648	27.31
330.861	41.64
331.073	47.79
331.286	-21.84
331.499	10.92
331.712	8.87
331.925	60.07
332.138	25.26
332.35	60.07
332.563	8.87
332.776	27.31
332.989	15.02
333.202	21.16
333.414	39.59
333.627	2.73
333.84	-9.56
334.053	25.26
334.265	27.31
334.478	84.65
334.691	-3.41
334.903	23.21
335.116	25.26
335.329	43.69
335.541	45.74
335.754	19.11
335.966	-75.09
336.179	70.31
336.392	58.03
336.604	45.74
336.817	27.31
337.029	2.73
337.242	15.02
337.454	96.94
337.667	86.7
337.88	51.88
338.092	41.64
338.305	37.55
338.517	10.92
338.729	45.74
338.942	4.78
339.154	43.69
339.367	-13.65
339.579	45.74
339.792	19.11
340.004	25.26
340.217	-34.13
340.429	-36.18
340.641	21.16
340.854	60.07
341.066	27.31
341.278	-27.99
341.491	31.4
341.703	-3.41
341.915	39.59
342.128	29.35
342.34	10.92
342.552	51.88
342.764	12.97
342.977	49.83
343.189	29.35
343.401	31.4
343.613	-21.84
343.826	76.46
344.038	15.02
344.25	6.83
344.462	43.69
344.674	2.73
344.886	49.83
345.099	109.23
345.311	17.07
345.523	101.03
345.735	8.87
345.947	19.11
346.159	-3.41
346.371	31.4
346.583	23.21
346.795	33.45
347.007	-58.71
347.219	-21.84
347.431	60.07
347.643	33.45
347.855	-9.56
348.067	88.75
348.279	-25.94
348.491	51.88
348.703	15.02
348.915	43.69
349.127	-5.46
349.339	88.75
349.551	-62.8
349.763	0.68
349.975	58.03
350.187	78.51
350.399	17.07
350.61	31.4
350.822	29.35
351.034	25.26
351.246	76.46
351.458	-5.46
351.669	41.64
351.881	80.55
352.093	21.16
352.305	19.11
352.517	76.46
352.728	76.46
352.94	-21.84
353.152	105.13
353.363	-3.41
353.575	31.4
353.787	94.89
353.999	88.75
354.21	49.83
354.422	90.79
354.633	-23.89
354.845	109.23
355.057	33.45
355.268	103.08
355.48	21.16
355.692	10.92
355.903	25.26
356.115	23.21
356.326	21.16
356.538	41.64
356.749	70.31
356.961	62.12
357.172	41.64
357.384	-3.41
357.595	98.99
357.807	70.31
358.018	29.35
358.23	12.97
358.441	-3.41
358.653	53.93
358.864	64.17
359.075	-5.46
359.287	6.83
359.498	-5.46
359.709	45.74
359.921	4.78
360.132	10.92
360.344	72.36
360.555	-46.42
360.766	76.46
360.977	0.68
361.189	94.89
361.4	-5.46
361.611	51.88
361.823	19.11
362.034	6.83
362.245	0.68
362.456	6.83
362.667	15.02
362.879	12.97
363.09	55.98
363.301	19.11
363.512	0.68
363.723	35.5
363.935	58.03
364.146	-32.08
364.357	-21.84
364.568	80.55
364.779	45.74
364.99	74.41
365.201	70.31
365.412	39.59
365.623	58.03
365.834	72.36
366.045	49.83
366.256	45.74
366.467	76.46
366.678	92.84
366.889	51.88
367.1	10.92
367.311	68.27
367.522	27.31
367.733	2.73
367.944	21.16
368.155	29.35
368.366	27.31
368.577	35.5
368.788	76.46
368.999	12.97
369.209	19.11
369.42	45.74
369.631	2.73
369.842	27.31
370.053	78.51
370.264	86.7
370.474	-9.56
370.685	37.55
370.896	12.97
371.107	17.07
371.317	2.73
371.528	-32.08
371.739	76.46
371.95	29.35
372.16	-46.42
372.371	51.88
372.582	-7.51
372.792	6.83
373.003	33.45
373.214	43.69
373.424	21.16
373.635	10.92
373.846	47.79
374.056	19.11
374.267	60.07
374.477	58.03
374.688	60.07
374.898	94.89
375.109	-1.37
375.319	31.4
375.53	-21.84
375.74	15.02
375.951	43.69
376.161	10.92
376.372	25.26
376.582	23.21
376.793	51.88
377.003	78.51
377.214	27.31
377.424	43.69
377.635	41.64
377.845	-25.94
378.055	47.79
378.266	68.27
378.476	-15.7
378.686	62.12
378.897	70.31
379.107	31.4
379.317	45.74
379.528	-5.46
379.738	23.21
379.948	12.97
380.158	-1.37
380.369	33.45
380.579	37.55
380.789	-15.7
380.999	62.12
381.21	27.31
381.42	35.5
381.63	74.41
381.84	10.92
382.05	49.83
382.261	10.92
382.471	47.79
382.681	64.17
382.891	68.27
383.101	31.4
383.311	-5.46
383.521	29.35
383.731	35.5
383.941	45.74
384.151	72.36
384.361	12.97
384.571	6.83
384.781	33.45
384.991	31.4
385.201	43.69
385.411	33.45
385.621	31.4
385.831	15.02
386.041	4.78
386.251	53.93
386.461	117.42
386.671	41.64
386.881	19.11
387.091	15.02
387.301	35.5
387.511	-11.61
387.72	-9.56
387.93	47.79
388.14	51.88
388.35	70.31
388.56	41.64
388.769	62.12
388.979	41.64
389.189	64.17
389.399	76.46
389.609	37.55
389.818	23.21
390.028	62.12
390.238	58.03
390.447	4.78
390.657	-3.41
390.867	21.16
391.076	60.07
391.286	-30.04
391.496	-23.89
391.705	41.64
391.915	92.84
392.125	43.69
392.334	84.65
392.544	90.79
392.753	70.31
392.963	62.12
393.172	0.68
393.382	19.11
393.591	119.46
393.801	33.45
394.01	92.84
394.22	107.18
394.429	47.79
394.639	86.7
394.848	4.78
395.058	141.99
395.267	72.36
395.477	72.36
395.686	-19.8
395.895	84.65
396.105	51.88
396.314	60.07
396.524	2.73
396.733	31.4
396.942	23.21
397.152	39.59
397.361	43.69
397.57	47.79
397.78	74.41
397.989	64.17
398.198	96.94
398.407	47.79
398.617	103.08
398.826	51.88
399.035	-13.65
399.244	72.36
399.453	68.27
399.663	60.07
399.872	62.12
400.081	47.79
400.29	111.27
400.499	-30.04
400.708	35.5
400.917	115.37
401.127	103.08
401.336	60.07
401.545	117.42
401.754	82.6
401.963	82.6
402.172	39.59
402.381	47.79
402.59	43.69
402.799	60.07
403.008	72.36
403.217	94.89
403.426	96.94
403.635	90.79
403.844	111.27
404.053	107.18
404.262	131.75
404.471	103.08
404.68	131.75
404.888	62.12
405.097	199.34
405.306	107.18
405.515	27.31
405.724	94.89
405.933	55.98
406.142	98.99
406.35	119.46
406.559	78.51
406.768	141.99
406.977	103.08
407.185	123.56
407.394	88.75
407.603	148.14
407.812	236.2
408.02	133.8
408.229	168.62
408.438	182.95
408.646	152.23
408.855	123.56
409.064	191.14
409.272	189.1
409.481	201.38
409.69	201.38
409.898	232.1
410.107	225.96
410.315	268.97
410.524	189.1
410.733	297.64
410.941	185
411.15	262.82
411.358	207.53
411.567	254.63
411.775	248.49
411.984	219.82
412.192	217.77
412.401	234.15
412.609	307.88
412.818	289.45
413.026	275.11
413.234	242.34
413.443	357.03
413.651	348.84
413.86	381.6
414.068	352.93
414.276	371.37
414.485	338.6
414.693	393.89
414.901	365.22
415.11	420.52
415.318	490.15
415.526	471.72
415.734	471.72
415.943	479.91
416.151	539.3
416.359	537.25
416.567	639.65
416.776	578.21
416.984	590.5
417.192	637.6
417.4	610.98
417.608	592.55
417.817	613.03
418.025	715.42
418.233	664.22
418.441	680.61
418.649	772.77
418.857	838.3
419.065	813.73
419.273	813.73
419.481	840.35
419.689	916.12
419.897	942.75
420.105	942.75
420.313	1026.72
420.521	1127.07
420.729	1004.19
420.937	985.76
421.145	1116.83
421.353	1143.45
421.561	1200.79
421.769	1272.47
421.977	1274.52
422.185	1297.05
422.393	1346.2
422.601	1514.13
422.809	1542.8
423.017	1411.73
423.224	1622.67
423.432	1589.91
423.64	1634.96
423.848	1796.75
424.056	1628.82
424.263	1763.98
424.471	1761.94
424.679	1823.37
424.887	1835.66
425.094	2093.71
425.302	1921.68
425.51	2189.96
425.718	2073.23
425.925	2267.78
426.133	2296.46
426.341	2419.33
426.548	2529.92
426.756	2488.96
426.964	2525.83
427.171	2738.82
427.379	2689.67
427.586	2708.1
427.794	2716.29
428.001	2919.04
428.209	3107.45
428.417	2960
428.624	3230.33
428.832	3299.96
429.039	3222.14
429.247	3205.75
429.454	3467.89
429.662	3703.41
429.869	3598.96
430.076	3768.95
430.284	3803.76
430.491	3748.47
430.699	4026.99
430.906	3836.53
431.114	4162.16
431.321	4131.44
431.528	4328.04
431.736	4690.53
431.943	4704.87
432.15	4655.72
432.358	4606.56
432.565	5077.6
432.772	5024.35
432.979	5161.56
433.187	5360.22
433.394	5378.65
433.601	5614.16
433.808	5753.43
434.016	5585.49
434.223	5941.84
434.43	6197.84
434.637	6126.16
434.844	6533.7
435.052	6521.42
435.259	6699.59
435.466	6670.92
435.673	6580.81
435.88	6914.63
436.087	7373.37
436.294	7252.54
436.501	7242.3
436.708	7279.16
436.915	7670.33
437.122	8008.24
437.329	8002.1
437.537	8241.71
437.743	8272.43
437.95	8239.66
438.157	8559.14
438.364	8888.87
438.571	8970.79
438.778	9007.65
438.985	9736.73
439.192	9390.62
439.399	9511.45
439.606	9566.74
439.813	10123.79
440.02	10689.03
440.227	10357.26
440.433	10220.05
440.64	10701.32
440.847	10361.36
441.054	10938.88
441.261	11500.03
441.467	11436.54
441.674	11575.8
441.881	11971.06
442.088	12083.7
442.294	12104.18
442.501	12237.3
442.708	12450.28
442.914	13060.58
443.121	13449.69
443.328	13154.79
443.534	14258.64
443.741	13736.41
443.948	13478.36
444.154	14445.01
444.361	14404.05
444.568	14641.61
444.774	14541.26
444.981	14768.59
445.187	15153.6
445.394	15712.7
445.6	15499.71
445.807	17365.41
446.013	16140.72
446.22	16550.32
446.426	17125.8
446.633	17385.89
446.839	17820.06
447.046	17086.89
447.252	18131.35
447.459	18209.17
447.665	18184.6
447.871	18891.15
448.078	19638.65
448.284	18768.27
448.491	19517.82
448.697	19698.05
448.903	20324.72
449.11	20289.91
449.316	20291.96
449.522	20615.54
449.728	20642.16
449.935	21123.43
450.141	21061.99
450.347	21459.3
450.553	20867.44
450.76	21309.8
450.966	21913.95
451.172	21598.56
451.378	22286.68
451.584	21598.56
451.791	22114.65
451.997	22296.92
452.203	22575.44
452.409	22692.18
452.615	22505.81
452.821	21641.57
453.027	21438.82
453.233	22481.24
453.44	21864.8
453.646	22085.98
453.852	21942.62
454.058	22327.64
454.264	21674.34
454.47	22387.03
454.676	21631.33
454.882	22079.83
455.088	20240.76
455.294	20691.31
455.5	20853.1
455.705	21436.77
455.911	20056.44
456.117	19995
456.323	19597.7
456.529	18436.5
456.735	19370.37
456.941	18878.86
457.147	18522.51
457.352	18190.74
457.558	17873.31
457.764	18143.64
457.97	17586.59
458.176	17275.3
458.381	17551.77
458.587	16286.13
458.793	16388.53
458.999	15468.99
459.204	16468.4
459.41	16124.34
459.616	14989.77
459.821	15190.47
460.027	15262.15
460.233	14809.54
460.438	14051.8
460.644	14092.76
460.85	13511.13
461.055	13382.11
461.261	13363.68
461.466	12442.09
461.672	11839.99
461.878	12810.73
462.083	12052.98
462.289	11815.41
462.494	11766.26
462.7	11258.37
462.905	10877.44
463.111	11198.98
463.316	11330.05
463.522	10963.46
463.727	11207.17
463.932	11119.1
464.138	10826.25
464.343	10899.97
464.549	10627.59
464.754	10985.99
464.959	10818.05
465.165	10865.16
465.37	10215.95
465.575	10062.35
465.781	10414.6
465.986	10656.26
466.191	10242.57
466.397	10043.92
466.602	9556.5
466.807	9978.39
467.012	9890.32
467.218	9658.9
467.423	9693.72
467.628	9624.09
467.833	10295.82
468.038	9871.89
468.244	9570.84
468.449	9757.21
468.654	9605.66
468.859	9447.96
469.064	9300.51
469.269	9073.18
469.474	9067.04
469.679	9310.75
469.885	9099.81
470.09	9208.35
470.295	9105.95
470.5	8854.05
470.705	9171.49
470.91	8753.7
471.115	8802.85
471.32	8817.19
471.525	8751.65
471.73	8577.58
471.935	8661.54
472.139	8200.75
472.344	8419.88
472.549	8215.09
472.754	8288.81
472.959	8053.3
473.164	8012.34
473.369	7717.43
473.574	8229.42
473.778	7809.59
473.983	7842.36
474.188	7965.23
474.393	7572.02
474.598	7617.08
474.802	7346.75
475.007	7565.88
475.212	7524.92
475.417	7195.2
475.621	7137.85
475.826	7174.72
476.031	7006.78
476.235	6941.25
476.44	6998.59
476.645	6773.32
476.849	6931.01
477.054	6519.37
477.259	6480.46
477.463	6531.65
477.668	6521.42
477.872	6591.05
478.077	6601.29
478.282	6246.99
478.486	6318.67
478.691	6476.36
478.895	6126.16
479.1	6175.31
479.304	6201.93
479.509	5978.7
479.713	6163.02
479.918	5907.02
480.122	5927.5
480.326	6025.81
480.531	5943.89
480.735	6105.68
480.94	5896.78
481.144	5984.85
481.348	5894.74
481.553	5902.93
481.757	5784.15
481.961	5925.46
482.166	5925.46
482.37	5773.91
482.574	5749.33
482.778	5833.3
482.983	5847.63
483.187	5788.24
483.391	5831.25
483.595	5691.99
483.8	5716.56
484.004	5864.02
484.208	6058.57
484.412	5765.71
484.616	5702.23
484.821	5888.59
485.025	5757.52
485.229	5782.1
485.433	5569.11
485.637	5761.62
485.841	5702.23
486.045	5605.97
486.249	5866.07
486.453	5878.35
486.657	5966.42
486.861	5528.15
487.065	5689.94
487.269	5915.22
487.473	5667.41
487.677	5614.16
487.881	5767.76
488.085	5593.69
488.289	5689.94
488.493	5794.39
488.697	5968.46
488.901	5710.42
489.105	5735
489.309	5909.07
489.512	5870.16
489.716	5800.53
489.92	5814.87
490.124	5769.81
490.328	5909.07
490.531	5886.54
490.735	5974.61
490.939	6074.96
491.143	5997.14
491.346	6101.58
491.55	6052.43
491.754	6048.33
491.958	6091.34
492.161	5913.17
492.365	6077.01
492.569	6148.68
492.772	6122.06
492.976	6130.25
493.18	6146.64
493.383	6132.3
493.587	6425.16
493.79	6341.19
493.994	6427.21
494.197	6371.91
494.401	6498.89
494.605	6361.67
494.808	6576.71
495.012	6500.94
495.215	6615.62
495.419	6515.27
495.622	6576.71
495.825	6632.01
496.029	6724.16
496.232	6804.03
496.436	6756.93
496.639	6965.82
496.843	7006.78
497.046	7105.09
497.249	7150.14
497.453	7268.92
497.656	7256.64
497.859	7320.12
498.063	7248.44
498.266	7481.91
498.469	7598.65
498.673	7645.75
498.876	7576.12
499.079	7832.12
499.282	7649.85
499.485	8043.06
499.689	7852.59
499.892	8096.3
500.095	8145.45
500.298	8237.61
500.501	8245.8
500.705	8573.48
500.908	8559.14
501.111	8636.97
501.314	8870.44
501.517	8874.53
501.72	8985.12
501.923	9032.22
502.126	9304.6
502.329	9261.6
502.532	9337.37
502.735	9462.3
502.938	9581.08
503.141	9706.01
503.344	9787.93
503.547	9908.76
503.75	10033.68
503.953	10261.01
504.156	10355.21
504.359	10439.18
504.562	10281.49
504.765	10746.37
504.968	10557.96
505.17	10885.64
505.373	10910.21
505.576	11145.73
505.779	11172.35
505.982	11282.94
506.185	11846.13
506.387	11827.7
506.59	11792.89
506.793	11960.82
506.996	11860.47
507.198	12454.38
507.401	12050.93
507.604	12540.4
507.807	12820.97
508.009	12786.15
508.212	13248.99
508.415	13007.33
508.617	13255.14
508.82	13224.42
509.022	13267.42
509.225	13517.28
509.428	13681.11
509.63	13658.59
509.833	13777.37
510.035	14008.79
510.238	13973.97
510.44	14178.77
510.643	14791.11
510.845	14832.07
511.048	14756.3
511.25	15172.04
511.453	14930.37
511.655	15487.42
511.858	15440.32
512.06	15579.58
512.262	16200.12
512.465	15911.35
512.667	16327.09
512.87	16538.03
513.072	16550.32
513.274	16798.12
513.477	16939.43
513.679	17074.6
513.881	17232.29
514.084	17484.19
514.286	17422.75
514.488	17721.76
514.69	18235.8
514.893	18166.17
515.095	18551.18
515.297	18655.63
515.499	18770.32
515.701	19263.88
515.904	19112.33
516.106	19069.32
516.308	19493.25
516.51	19915.13
516.712	19958.14
516.914	20212.09
517.116	20392.31
517.318	20328.82
517.52	20732.27
517.722	20490.61
517.925	21143.91
518.127	21440.87
518.329	21539.17
518.531	21442.92
518.733	22120.79
518.935	22045.02
519.136	22098.27
519.338	22575.44
519.54	22778.19
519.742	22843.73
519.944	23296.33
520.146	23523.65
520.348	23617.86
520.55	23544.13
520.752	23947.58
520.954	24348.98
521.155	24049.98
521.357	24650.03
521.559	24922.41
521.761	24750.38
521.963	25174.31
522.164	25231.66
522.366	25555.24
522.568	25628.96
522.77	25719.07
522.971	26618.13
523.173	26034.46
523.375	26233.11
523.576	26423.58
523.778	26396.95
523.98	26962.19
524.181	26929.42
524.383	27040.01
524.584	27572.49
524.786	27316.49
524.988	27300.11
525.189	27662.6
525.391	27830.53
525.592	28014.85
525.794	28242.17
525.995	28193.02
526.197	28438.78
526.398	28848.37
526.6	28829.94
526.801	29014.26
527.003	28854.51
527.204	28944.62
527.406	29374.7
527.607	29329.64
527.808	29554.92
528.01	29225.2
528.211	29323.5
528.412	30243.04
528.614	29772
528.815	29665.51
529.016	30118.11
529.218	29903.07
529.419	30367.96
529.62	29815.01
529.822	29956.32
530.023	30157.02
530.224	30120.16
530.425	30413.02
530.626	30206.17
530.828	30394.59
531.029	30623.96
531.23	30376.16
531.431	30542.04
531.632	31045.84
531.833	30570.71
532.035	30460.12
532.236	30767.32
532.437	31025.36
532.638	30675.16
532.839	31228.11
533.04	30945.49
533.241	30734.55
533.442	31168.72
533.643	30834.9
533.844	31297.74
534.045	31273.17
534.246	31019.22
534.447	31264.97
534.648	30892.24
534.849	31037.65
535.05	31039.7
535.251	30959.83
535.451	31387.85
535.652	31293.65
535.853	31455.43
536.054	31340.75
536.255	31340.75
536.456	31115.47
536.657	31850.69
536.857	31643.85
537.058	31138
537.259	31428.81
537.46	31455.43
537.66	31496.39
537.861	31281.36
538.062	31299.79
538.263	31453.39
538.463	31492.3
538.664	31140.05
538.865	31402.19
539.065	31367.37
539.266	31359.18
539.466	31574.22
539.667	31219.92
539.868	31637.7
540.068	31498.44
540.269	31523.02
540.469	31387.85
540.67	31160.53
540.87	31228.11
541.071	30898.39
541.271	31170.77
541.472	31383.76
541.672	31471.82
541.873	31348.94
542.073	31037.65
542.274	31236.3
542.474	31226.06
542.675	31285.45
542.875	31467.72
543.075	31301.84
543.276	30974.16
543.476	31770.82
543.676	31314.12
543.877	31543.5
544.077	31533.26
544.277	30990.55
544.478	31414.48
544.678	31287.5
544.878	31213.77
545.078	31164.62
545.279	31150.29
545.479	31256.78
545.679	31146.19
545.879	31060.18
546.079	31297.74
546.28	30988.5
546.48	30845.14
546.68	31742.15
546.88	31527.11
547.08	31168.72
547.28	30804.18
547.48	30787.8
547.68	31359.18
547.88	30937.3
548.081	31156.43
548.281	31398.09
548.481	31381.71
548.681	31328.46
548.881	31269.07
549.081	31078.61
549.28	30984.4
549.48	31174.86
549.68	30990.55
549.88	31508.68
550.08	31082.7
550.28	31516.87
550.48	31054.03
550.68	31318.22
550.88	31178.96
551.08	31191.25
551.279	31324.36
551.479	30814.42
551.679	31355.08
551.879	30767.32
552.079	31037.65
552.278	31133.9
552.478	31199.44
552.678	31008.98
552.878	31101.14
553.077	30869.72
553.277	30681.3
553.477	31248.59
553.676	30910.67
553.876	30974.16
554.076	30970.07
554.275	30662.87
554.475	30343.39
554.674	31105.23
554.874	30677.21
555.074	30906.58
555.273	31033.55
555.473	30800.08
555.672	30566.62
555.872	30464.22
556.071	30736.6
556.271	30879.96
556.47	30626.01
556.67	29989.09
556.869	30585.05
557.068	30513.37
557.268	30441.69
557.467	30277.85
557.667	29976.8
557.866	30275.8
558.065	30216.41
558.265	29962.47
558.464	30083.3
558.663	30298.33
558.863	30011.62
559.062	30372.06
559.261	30038.24
559.461	30144.73
559.66	29569.26
559.859	29802.72
560.058	29608.17
560.258	30001.38
560.457	29554.92
560.656	29989.09
560.855	29511.91
561.054	30030.05
561.253	29317.36
561.453	29583.59
561.652	29851.88
561.851	29313.26
562.05	29542.63
562.249	29489.38
562.448	29489.38
562.647	29065.46
562.846	29507.82
563.045	29217
563.244	29311.21
563.443	29116.65
563.642	29165.81
563.841	29522.15
564.04	28680.44
564.239	29120.75
564.438	29100.27
564.637	29008.11
564.836	28807.41
565.035	28715.25
565.234	28606.71
565.432	28504.31
565.631	28688.63
565.83	28807.41
566.029	28604.66
566.228	28377.34
566.427	28440.82
566.625	28229.88
566.824	27883.78
567.023	28537.08
567.222	27564.29
567.42	28506.36
567.619	28102.91
567.818	27750.66
568.016	28010.75
568.215	28004.61
568.414	27869.44
568.612	27957.5
568.811	27932.93
569.01	27584.77
569.208	27418.89
569.407	27867.39
569.605	27197.71
569.804	27535.62
570.002	27287.82
570.201	27199.76
570.4	26937.62
570.598	26831.12
570.797	26591.51
570.995	26884.37
571.193	26583.32
571.392	26988.81
571.59	26657.04
571.789	26675.48
571.987	26390.81
572.186	26546.45
572.384	26401.05
572.582	26347.8
572.781	26366.23
572.979	26255.64
573.177	26519.83
573.376	26421.53
573.574	25766.18
573.772	26104.09
573.971	26134.81
574.169	25561.38
574.367	25286.95
574.565	25506.09
574.763	25508.13
574.962	25397.54
575.16	25151.79
575.358	25413.93
575.556	24918.32
575.754	25428.26
575.952	24996.14
576.151	25110.83
576.349	25047.34
576.547	25268.52
576.745	24795.44
576.943	25200.94
577.141	24852.78
577.339	24643.89
577.537	24602.93
577.735	24482.1
577.933	24488.24
578.131	24619.31
578.329	24324.41
578.527	23996.73
578.725	24168.76
578.923	24308.02
579.121	24396.09
579.319	23855.42
579.516	24305.98
579.714	23783.74
579.912	23462.21
580.11	23566.66
580.308	23814.46
580.506	23859.52
580.704	23339.33
580.901	23576.9
581.099	23628.1
581.297	23347.53
581.495	23368.01
581.692	23540.04
581.89	22829.39
582.088	22907.21
582.285	22958.41
582.483	22905.17
582.681	22972.75
582.878	22835.53
583.076	22548.82
583.274	22911.31
583.471	22653.26
583.669	22587.73
583.866	22444.37
584.064	22444.37
584.262	22292.82
584.459	22401.36
584.657	22210.9
584.854	22362.45
585.052	22010.2
585.249	21733.73
585.447	22157.66
585.644	21616.99
585.841	21983.58
586.039	22047.07
586.236	21440.87
586.434	21723.49
586.631	21637.47
586.828	21408.1
587.026	21627.23
587.223	21643.62
587.42	21385.57
587.618	21547.36
587.815	21272.93
588.012	21223.78
588.21	21053.8
588.407	21301.61
588.604	20932.97
588.801	20875.63
588.999	20652.4
589.196	20978.03
589.393	20820.33
589.59	20506.99
589.787	20664.69
589.984	20527.47
590.182	20398.45
590.379	20509.04
590.576	20488.56
590.773	20552.05
590.97	20240.76
591.167	20490.61
591.364	20244.85
591.561	20066.68
591.758	19921.27
591.955	20197.75
592.152	19988.86
592.349	19769.72
592.546	19937.66
592.743	19779.96
592.94	19417.47
593.137	19652.99
593.334	19542.4
593.531	19317.12
593.727	19470.72
593.924	19620.22
594.121	19276.16
594.318	19466.63
594.515	19132.81
594.712	19401.09
594.908	19296.64
595.105	19179.91
595.302	19048.84
595.499	19050.89
595.696	19071.37
595.892	18606.48
596.089	18944.39
596.286	18844.04
596.482	18618.77
596.679	18882.95
596.876	18903.43
597.072	18739.6
597.269	18688.4
597.466	18370.96
597.662	18520.46
597.859	18418.07
598.055	18438.55
598.252	18278.8
598.448	18274.71
598.645	18348.43
598.841	17983.9
599.038	18080.15
599.234	18006.42
599.431	17861.02
599.627	17725.85
599.824	18092.44
600.02	17660.32
600.217	17533.34
600.413	17723.8
600.609	17379.75
600.806	17322.4
601.002	17330.59
601.198	17273.25
601.395	17396.13
601.591	17351.07
601.787	17213.86
601.984	17357.22
602.18	17357.22
602.376	17103.27
602.572	16923.05
602.769	17011.11
602.965	17058.21
603.161	16861.61
603.357	16720.3
603.553	16566.7
603.75	16978.34
603.946	16634.28
604.142	16642.48
604.338	16337.33
604.534	16644.52
604.73	16286.13
604.926	16308.66
605.122	16425.39
605.318	16300.47
605.514	16372.14
605.71	16060.85
605.906	16134.58
606.102	15960.5
606.298	16218.55
606.494	15774.14
606.69	15841.72
606.886	15909.3
607.082	15700.41
607.278	16058.81
607.474	15468.99
607.67	16021.94
607.866	15452.61
608.062	15835.58
608.257	15665.6
608.453	15530.43
608.649	15634.88
608.845	15579.58
609.041	15555.01
609.236	15462.85
609.432	15249.86
609.628	15372.74
609.824	15397.31
610.019	15299.01
610.215	15200.71
610.411	15249.86
610.606	14887.37
610.802	15299.01
610.998	15043.01
611.193	15090.12
611.389	14846.41
611.584	14930.37
611.78	14905.8
611.976	14885.32
612.171	14875.08
612.367	14770.63
612.562	14617.04
612.758	14563.79
612.953	14774.73
613.149	14674.38
613.344	14420.43
613.539	14748.11
613.735	14422.48
613.93	14533.07
614.126	14451.15
614.321	14481.87
614.517	14465.49
614.712	14412.24
614.907	14283.22
615.103	14467.53
615.298	14129.62
615.493	14084.56
615.688	14125.52
615.884	14189.01
616.079	13961.69
616.274	14330.32
616.47	14062.04
616.665	13912.53
616.86	14094.8
617.055	13773.27
617.25	14045.65
617.445	13758.94
617.641	13765.08
617.836	13752.79
618.031	13769.18
618.226	13783.51
618.421	13402.59
618.616	13941.21
618.811	13386.21
619.006	13541.85
619.201	13234.66
619.396	13312.48
619.591	13095.39
619.786	13292
619.981	13134.31
620.176	13136.35
620.371	12962.28
620.566	13089.25
620.761	12843.49
620.956	13044.2
621.151	12612.07
621.346	12710.38
621.541	12757.48
621.735	12800.49
621.93	12386.8
622.125	12579.31
622.32	12372.46
622.515	12329.45
622.709	12366.32
622.904	12329.45
623.099	12339.69
623.294	12130.8
623.488	12071.41
623.683	11985.4
623.878	11999.73
624.072	11815.41
624.267	11813.37
624.462	11717.11
624.656	11696.63
624.851	11577.85
625.046	11487.74
625.24	11399.68
625.435	11217.41
625.629	11479.55
625.824	11084.29
626.018	11117.06
626.213	10916.36
626.407	11155.97
626.602	10811.91
626.796	11147.78
626.991	11045.38
627.185	10828.29
627.38	10951.17
627.574	10838.53
627.768	10560.01
627.963	10517
628.157	10555.91
628.352	10631.69
628.546	10512.91
628.74	10514.95
628.935	10426.89
629.129	10471.95
629.323	10363.4
629.517	10193.42
629.712	10107.41
629.906	10275.34
630.1	10215.95
630.294	10152.46
630.489	9957.91
630.683	9906.71
630.877	9875.99
631.071	9906.71
631.265	9945.62
631.459	9566.74
631.653	9763.35
631.848	9558.55
632.042	9488.92
632.236	9677.33
632.43	9574.94
632.624	9673.24
632.818	9452.06
633.012	9400.86
633.206	9323.04
633.4	9349.66
633.594	9110.05
633.788	9005.6
633.982	9120.29
634.176	8981.03
634.369	8981.03
634.563	8944.16
634.757	8907.3
634.951	8909.35
635.145	8923.68
635.339	8915.49
635.533	8778.28
635.726	8706.6
635.92	8557.1
636.114	8675.88
636.308	8581.67
636.501	8688.17
636.695	8483.37
636.889	8411.69
637.083	8356.4
637.276	8286.76
637.47	8219.18
637.664	8305.2
637.857	8354.35
638.051	8231.47
638.244	8020.53
638.438	8153.65
638.632	7981.62
638.825	7969.33
639.019	7795.25
639.212	7793.2
639.406	7830.07
639.599	7875.12
639.793	7899.7
639.986	7727.67
640.18	7627.32
640.373	7641.65
640.567	7473.72
640.76	7557.69
640.954	7385.66
641.147	7471.67
641.34	7326.27
641.534	7436.86
641.727	7252.54
641.92	7387.71
642.114	7242.3
642.307	7154.24
642.5	7096.89
642.694	7164.48
642.887	7252.54
643.08	7105.09
643.273	7031.36
643.467	7023.17
643.66	6953.54
643.853	7010.88
644.046	6773.32
644.239	6767.17
644.432	6664.77
644.626	6584.9
644.819	6726.21
645.012	6677.06
645.205	6621.77
645.398	6574.66
645.591	6462.02
645.784	6515.27
645.977	6589
646.17	6427.21
646.363	6318.67
646.556	6308.43
646.749	6382.15
646.942	6287.95
647.135	6154.83
647.328	6183.5
647.521	5886.54
647.714	6015.57
647.907	6169.16
648.099	6095.44
648.292	6042.19
648.485	5958.22
648.678	6042.19
648.871	5870.16
649.064	5845.59
649.256	5841.49
649.449	5816.91
649.642	5886.54
649.835	5696.08
650.027	5710.42
650.22	5735
650.413	5802.58
650.605	5696.08
650.798	5587.54
650.991	5601.88
651.183	5683.8
651.376	5395.03
651.568	5409.37
651.761	5452.38
651.954	5358.17
652.146	5499.48
652.339	5302.87
652.531	5325.4
652.724	5325.4
652.916	5204.57
653.109	5261.91
653.301	5204.57
653.494	5085.79
653.686	5171.8
653.879	5216.86
654.071	5225.05
654.263	5065.31
654.456	5020.25
654.648	5112.41
654.84	4860.51
655.033	4932.19
655.225	4868.7
655.417	4715.11
655.61	4930.14
655.802	4901.47
655.994	4801.12
656.186	4715.11
656.379	4631.14
656.571	4665.96
656.763	4631.14
656.955	4696.68
657.148	4653.67
657.34	4696.68
657.532	4610.66
657.724	4575.84
657.916	4534.89
658.108	4584.04
658.3	4536.93
658.492	4485.73
658.684	4383.34
658.876	4463.21
659.068	4440.68
659.26	4401.77
659.452	4282.99
659.644	4338.28
659.836	4164.2
660.028	4246.12
660.22	4246.12
660.412	4264.55
660.604	4074.09
660.796	4192.87
660.988	4199.02
661.18	4067.95
661.372	4180.59
661.563	4033.13
661.755	4059.76
661.947	4006.51
662.139	4049.52
662.331	3990.13
662.522	3795.57
662.714	3895.92
662.906	3717.75
663.097	3754.61
663.289	3687.03
663.481	3795.57
663.673	3652.21
663.864	3814
664.056	3738.23
664.247	3775.09
664.439	3746.42
664.631	3607.16
664.822	3779.19
665.014	3697.27
665.205	3652.21
665.397	3582.58
665.588	3682.93
665.78	3558
665.971	3646.07
666.163	3521.14
666.354	3525.24
666.546	3617.4
666.737	3439.22
666.929	3582.58
667.12	3641.97
667.311	3461.75
667.503	3398.26
667.694	3426.93
667.885	3271.29
668.077	3545.72
668.268	3410.55
668.459	3322.49
668.651	3330.68
668.842	3273.34
669.033	3195.51
669.224	3320.44
669.416	3328.63
669.607	3306.1
669.798	3279.48
669.989	3334.78
670.18	3197.56
670.371	3132.03
670.563	3107.45
670.754	3232.38
670.945	3000.96
671.136	3115.64
671.327	3172.99
671.518	3109.5
671.709	3127.93
671.9	3080.83
672.091	3080.83
672.282	3068.54
672.473	3068.54
672.664	2984.57
672.855	2888.32
673.046	2894.46
673.237	3148.41
673.428	2910.85
673.619	2822.78
673.809	2927.23
674	2914.94
674.191	2910.85
674.382	2859.65
674.573	2808.45
674.764	2769.54
674.954	2714.24
675.145	2777.73
675.336	2873.98
675.527	2900.61
675.717	2798.21
675.908	2830.98
676.099	2759.3
676.289	2691.71
676.48	2771.58
676.671	2673.28
676.861	2785.92
677.052	2771.58
677.243	2712.19
677.433	2790.02
677.624	2710.15
677.814	2718.34
678.005	2646.66
678.195	2611.84
678.386	2712.19
678.576	2617.99
678.767	2673.28
678.957	2736.77
679.148	2617.99
679.338	2544.26
679.529	2617.99
679.719	2538.12
679.909	2695.81
680.1	2626.18
680.29	2738.82
680.481	2529.92
680.671	2542.21
680.861	2579.08
681.052	2609.79
681.242	2589.32
681.432	2525.83
681.622	2542.21
681.813	2521.73
682.003	2484.87
682.193	2423.43
682.383	2574.98
682.573	2333.32
682.764	2468.48
682.954	2581.12
683.144	2468.48
683.334	2544.26
683.524	2298.5
683.714	2452.1
683.904	2423.43
684.094	2411.14
684.284	2486.92
684.474	2460.29
684.664	2345.61
684.854	2435.72
685.044	2415.24
685.234	2329.22
685.424	2366.09
685.614	2538.12
685.804	2398.85
685.994	2437.77
686.184	2417.29
686.374	2361.99
686.564	2341.51
686.753	2380.42
686.943	2278.02
687.133	2411.14
687.323	2415.24
687.513	2200.2
687.702	2361.99
687.892	2294.41
688.082	2312.84
688.272	2400.9
688.461	2382.47
688.651	2292.36
688.841	2263.69
689.03	2298.5
689.22	2218.63
689.41	2255.5
689.599	2280.07
689.789	2220.68
689.979	2161.29
690.168	2185.87
690.358	2185.87
690.547	2341.51
690.737	2323.08
690.926	2208.39
691.116	2157.19
691.305	2200.2
691.495	2142.86
691.684	2267.78
691.874	2263.69
692.063	2273.93
692.252	2192.01
692.442	2194.06
692.631	2235.02
692.82	2245.26
693.01	2093.71
693.199	2128.52
693.388	2157.19
693.578	2198.15
693.767	2108.04
693.956	2132.62
694.146	2116.23
694.335	2222.73
694.524	2093.71
694.713	2255.5
694.902	2159.24
695.092	2208.39
695.281	2230.92
695.47	2101.9
695.659	2189.96
695.848	2122.38
696.037	2189.96
696.226	2280.07
696.415	2140.81
696.604	2124.43
696.793	2161.29
696.982	2167.43
697.171	2110.09
697.36	2077.32
697.549	2189.96
697.738	2093.71
697.927	2013.84
698.116	2208.39
698.305	2185.87
698.494	2132.62
698.683	2114.19
698.872	2173.58
699.061	2038.41
699.25	2042.51
699.438	2151.05
699.627	2046.6
699.816	2124.43
700.005	2105.99
700.193	2089.61
700.382	2085.51
700.571	2189.96
700.76	2108.04
700.948	2181.77
701.137	2083.47
701.326	2120.33
701.514	2019.98
701.703	1997.45
701.892	2081.42
702.08	2124.43
702.269	2153.1
702.457	2083.47
702.646	2181.77
702.834	1985.16
703.023	2030.22
703.212	1987.21
703.4	2079.37
703.589	2028.17
703.777	1972.88
703.965	1952.4
704.154	2069.13
704.342	1929.87
704.531	1880.72
704.719	2103.95
704.907	2103.95
705.096	1999.5
705.284	2038.41
705.472	1915.53
705.661	1960.59
705.849	1962.64
706.037	2036.36
706.226	1997.45
706.414	1960.59
706.602	1942.16
706.79	1970.83
706.979	2058.89
707.167	1823.37
707.355	1907.34
707.543	1981.07
707.731	1829.52
707.919	1899.15
708.107	1897.1
708.296	1843.85
708.484	1847.95
708.672	2011.79
708.86	1895.05
709.048	1866.38
709.236	1911.44
709.424	1921.68
709.612	1858.19
709.8	1905.29
709.988	1850
710.176	1882.77
710.364	1710.74
710.551	1757.84
710.739	1866.38
710.927	1811.09
711.115	1811.09
711.303	1860.24
711.491	1731.22
711.679	1780.37
711.866	1755.79
712.054	1806.99
712.242	1682.07
712.43	1727.12
712.617	1751.7
712.805	1772.18
712.993	1745.55
713.181	1729.17
713.368	1704.59
713.556	1624.72
713.744	1708.69
713.931	1833.61
714.119	1749.65
714.306	1806.99
714.494	1806.99
714.682	1600.15
714.869	1696.4
715.057	1743.5
715.244	1641.11
715.432	1610.39
715.619	1645.2
715.807	1698.45
715.994	1589.91
716.182	1637.01
716.369	1598.1
716.556	1729.17
716.744	1604.24
716.931	1700.5
717.119	1655.44
717.306	1596.05
717.493	1630.87
717.681	1612.43
717.868	1610.39
718.055	1546.9
718.242	1608.34
718.43	1634.96
718.617	1637.01
718.804	1551
718.991	1583.76
719.179	1546.9
719.366	1544.85
719.553	1696.4
719.74	1448.6
719.927	1671.83
720.114	1481.36
720.301	1542.8
720.488	1561.23
720.676	1532.56
720.863	1479.32
721.05	1501.84
721.237	1489.56
721.424	1551
721.611	1505.94
721.798	1499.8
721.985	1479.32
722.172	1499.8
722.358	1477.27
722.545	1469.08
722.732	1483.41
722.919	1460.88
723.106	1491.6
723.293	1438.36
723.48	1370.77
723.667	1436.31
723.853	1493.65
724.04	1329.81
724.227	1413.78
724.414	1428.12
724.6	1389.21
724.787	1432.21
724.974	1462.93
725.161	1524.37
725.347	1397.4
725.534	1391.25
725.72	1421.97
725.907	1299.09
726.094	1376.92
726.28	1350.29
726.467	1305.24
726.653	1258.14
726.84	1305.24
727.027	1288.86
727.213	1305.24
727.4	1315.48
727.586	1385.11
727.773	1286.81
727.959	1274.52
728.145	1292.95
728.332	1303.19
728.518	1288.86
728.705	1352.34
728.891	1270.42
729.077	1387.16
729.264	1335.96
729.45	1323.67
729.636	1292.95
729.823	1249.94
730.009	1184.41
730.195	1270.42
730.382	1231.51
730.568	1247.9
730.754	1276.57
730.94	1258.14
731.126	1208.98
731.313	1231.51
731.499	1231.51
731.685	1198.74
731.871	1206.94
732.057	1235.61
732.243	1129.11
732.429	1174.17
732.615	1088.15
732.801	1155.74
732.987	1206.94
733.173	1286.81
733.359	1196.7
733.545	1272.47
733.731	1176.22
733.917	1172.12
734.103	1329.81
734.289	1213.08
734.475	1211.03
734.661	1184.41
734.847	1116.83
735.033	1215.13
735.219	1208.98
735.404	1223.32
735.59	1188.5
735.776	1190.55
735.962	1221.27
736.148	1135.26
736.333	1100.44
736.519	1192.6
736.705	1139.35
736.89	1168.02
737.076	1157.79
737.262	1118.87
737.447	1045.15
737.633	1116.83
737.819	1106.59
738.004	1116.83
738.19	1077.91
738.375	1118.87
738.561	1102.49
738.747	1110.68
738.932	1190.55
739.118	1088.15
739.303	1098.39
739.489	1057.43
739.674	1163.93
739.859	1057.43
740.045	1147.55
740.23	1006.24
740.416	1030.81
740.601	993.95
740.786	1075.87
740.972	1049.24
741.157	1002.14
741.342	1020.57
741.528	1063.58
741.713	1108.63
741.898	1063.58
742.084	1063.58
742.269	977.56
742.454	1004.19
742.639	991.9
742.824	989.85
743.01	1043.1
743.195	1010.33
743.38	998.04
743.565	952.99
743.75	1002.14
743.935	881.31
744.12	977.56
744.305	993.95
744.49	924.32
744.675	1030.81
744.86	952.99
745.045	991.9
745.23	950.94
745.415	1018.52
745.6	946.84
745.785	946.84
745.97	871.07
746.155	854.69
746.34	957.08
746.525	993.95
746.71	844.45
746.895	930.46
747.079	879.26
747.264	848.54
747.449	877.21
747.634	963.23
747.819	901.79
748.003	912.03
748.188	895.65
748.373	895.65
748.557	871.07
748.742	850.59
748.927	893.6
749.111	817.82
749.296	842.4
749.481	938.65
749.665	821.92
749.85	871.07
750.034	836.25
750.219	828.06
750.404	823.97
750.588	742.05
750.773	768.67
750.957	860.83
751.141	819.87
751.326	758.43
751.51	758.43
751.695	815.77
751.879	778.91
752.064	754.34
752.248	813.73
752.432	750.24
752.617	758.43
752.801	756.38
752.985	701.09
753.17	735.9
753.354	709.28
753.538	789.15
753.722	711.33
753.907	639.65
754.091	670.37
754.275	664.22
754.459	719.52
754.643	660.13
754.828	696.99
755.012	719.52
755.196	551.59
755.38	715.42
755.564	707.23
755.748	713.38
755.932	625.31
756.116	651.94
756.3	639.65
756.484	629.41
756.668	656.03
756.852	574.11
757.036	608.93
757.22	545.44
757.404	672.42
757.588	610.98
757.772	520.87
757.956	563.87
758.14	553.63
758.323	627.36
758.507	637.6
758.691	486.05
758.875	623.27
759.059	572.07
759.242	537.25
759.426	543.39
759.61	533.15
759.794	502.44
759.977	649.89
760.161	496.29
760.345	555.68
760.528	504.48
760.712	567.97
760.895	527.01
761.079	547.49
761.263	529.06
761.446	522.91
761.63	502.44
761.813	535.2
761.997	529.06
762.18	547.49
762.364	527.01
762.547	500.39
762.731	592.55
762.914	481.96
763.098	441
763.281	559.78
763.464	479.91
763.648	545.44
763.831	457.38
764.015	471.72
764.198	578.21
764.381	537.25
764.564	551.59
764.748	445.09
764.931	522.91
765.114	537.25
765.297	502.44
765.481	502.44
765.664	516.77
765.847	420.52
766.03	543.39
766.213	453.28
766.397	430.76
766.58	473.76
766.763	541.35
766.946	412.32
767.129	477.86
767.312	527.01
767.495	441
767.678	506.53
767.861	453.28
768.044	471.72
768.227	455.33
768.41	471.72
768.593	428.71
768.776	432.8
768.959	461.48
769.142	404.13
769.324	469.67
769.507	436.9
769.69	346.79
769.873	496.29
770.056	426.66
770.239	332.45
770.421	504.48
770.604	455.33
770.787	441
770.97	426.66
771.152	453.28
771.335	469.67
771.518	387.75
771.7	414.37
771.883	459.43
772.066	369.32
772.248	432.8
772.431	447.14
772.613	412.32
772.796	383.65
772.978	422.56
773.161	451.24
773.343	471.72
773.526	430.76
773.708	373.41
773.891	395.94
774.073	369.32
774.256	336.55
774.438	443.04
774.621	414.37
774.803	420.52
774.985	344.74
775.168	410.28
775.35	432.8
775.532	350.89
775.715	305.83
775.897	387.75
776.079	416.42
776.261	422.56
776.444	291.49
776.626	363.17
776.808	344.74
776.99	359.08
777.173	324.26
777.355	414.37
777.537	369.32
777.719	307.88
777.901	393.89
778.083	322.21
778.265	373.41
778.447	318.12
778.629	406.18
778.811	330.41
778.993	320.17
779.175	324.26
779.357	357.03
779.539	336.55
779.721	293.54
779.903	357.03
780.085	375.46
780.267	340.65
780.449	311.97
780.631	299.69
780.812	283.3
780.994	309.93
781.176	322.21
781.358	350.89
781.54	363.17
781.721	371.37
781.903	264.87
782.085	311.97
782.267	225.96
782.448	232.1
782.63	311.97
782.812	299.69
782.993	305.83
783.175	295.59
783.357	279.21
783.538	256.68
783.72	246.44
783.901	322.21
784.083	303.78
784.264	268.97
784.446	256.68
784.627	264.87
784.809	211.62
784.99	271.01
785.172	223.91
785.353	256.68
785.535	354.98
785.716	309.93
785.897	252.58
786.079	244.39
786.26	223.91
786.441	199.34
786.623	207.53
786.804	273.06
786.985	232.1
787.167	230.06
787.348	281.25
787.529	207.53
787.71	180.9
787.891	209.58
788.073	135.85
788.254	223.91
788.435	213.67
788.616	172.71
788.797	236.2
788.978	119.46
789.159	223.91
789.34	195.24
789.522	187.05
789.703	250.53
789.884	191.14
790.065	148.14
790.246	244.39
790.427	223.91
790.607	193.19
790.788	176.81
790.969	178.86
791.15	141.99
791.331	201.38
791.512	191.14
791.693	166.57
791.874	172.71
792.054	219.82
792.235	215.72
792.416	144.04
792.597	172.71
792.778	105.13
792.958	215.72
793.139	162.47
793.32	150.18
793.5	191.14
793.681	191.14
793.862	123.56
794.042	178.86
794.223	199.34
794.404	170.66
794.584	150.18
794.765	193.19
794.945	176.81
795.126	156.33
795.306	242.34
795.487	174.76
795.667	199.34
795.848	209.58
796.028	129.7
796.209	70.31
796.389	187.05
796.57	185
796.75	201.38
796.93	127.66
797.111	115.37
797.291	180.9
797.471	174.76
797.652	187.05
797.832	125.61
798.012	139.94
798.192	160.42
798.373	82.6
798.553	12.97
798.733	141.99
798.913	139.94
799.093	72.36
799.274	213.67
799.454	144.04
799.634	127.66
799.814	146.09
799.994	178.86
800.174	191.14
800.354	72.36
800.534	148.14
800.714	76.46
800.894	172.71
801.074	162.47
801.254	152.23
801.434	113.32
801.614	156.33
801.794	160.42
801.974	369.32
802.154	88.75
802.334	133.8
802.514	78.51
802.693	70.31
802.873	105.13
803.053	166.57
803.233	96.94
803.413	178.86
803.592	174.76
803.772	68.27
803.952	121.51
804.131	80.55
804.311	105.13
804.491	187.05
804.67	111.27
804.85	86.7
805.03	105.13
805.209	62.12
805.389	80.55
805.568	111.27
805.748	137.9
805.928	135.85
806.107	137.9
806.287	90.79
806.466	111.27
806.646	117.42
806.825	66.22
807.004	109.23
807.184	133.8
807.363	78.51
807.543	129.7
807.722	158.38
807.901	146.09
808.081	113.32
808.26	49.83
808.439	113.32
808.619	80.55
808.798	27.31
808.977	103.08
809.156	74.41
809.336	166.57
809.515	135.85
809.694	45.74
809.873	80.55
810.052	90.79
810.231	76.46
810.411	62.12
810.59	94.89
810.769	131.75
810.948	39.59
811.127	64.17
811.306	94.89
811.485	76.46
811.664	92.84
811.843	135.85
812.022	103.08
812.201	53.93
812.38	137.9
812.559	70.31
812.737	111.27
812.916	84.65
813.095	76.46
813.274	123.56
813.453	111.27
813.632	74.41
813.811	141.99
813.989	10.92
814.168	60.07
814.347	27.31
814.526	117.42
814.704	121.51
814.883	-30.04
815.062	88.75
815.24	84.65
815.419	53.93
815.598	72.36
815.776	31.4
815.955	78.51
816.133	12.97
816.312	58.03
816.49	78.51
816.669	103.08
816.847	62.12
817.026	139.94
817.204	49.83
817.383	51.88
817.561	17.07
817.74	0.68
817.918	49.83
818.097	113.32
818.275	78.51
818.453	62.12
818.632	35.5
818.81	76.46
818.988	84.65
819.167	68.27
819.345	21.16
819.523	58.03
819.701	2.73
819.879	19.11
820.058	-15.7
820.236	96.94
820.414	27.31
820.592	98.99
820.77	70.31
820.948	121.51
821.127	88.75
821.305	144.04
821.483	6.83
821.661	68.27
821.839	74.41
822.017	19.11
822.195	-42.32
822.373	76.46
822.551	55.98
822.729	101.03
822.907	101.03
823.085	23.21
823.262	35.5
823.44	37.55
823.618	74.41
823.796	21.16
823.974	86.7
824.152	27.31
824.329	82.6
824.507	92.84
824.685	39.59
824.863	33.45
825.04	80.55
825.218	76.46
825.396	88.75
825.574	39.59
825.751	51.88
825.929	10.92
826.107	84.65
826.284	84.65
826.462	29.35
826.639	29.35
826.817	21.16
826.994	62.12
827.172	25.26
827.349	25.26
827.527	92.84
827.704	21.16
827.882	84.65
828.059	-3.41
828.237	84.65
828.414	70.31
828.591	-7.51
828.769	12.97
828.946	27.31
829.124	39.59
829.301	68.27
829.478	82.6
829.655	53.93
829.833	60.07
830.01	55.98
830.187	-32.08
830.364	80.55
830.542	64.17
830.719	105.13
830.896	10.92
831.073	29.35
831.25	94.89
831.427	8.87
831.604	15.02
831.782	25.26
831.959	-21.84
832.136	39.59
832.313	64.17
832.49	43.69
832.667	62.12
832.844	29.35
833.021	39.59
833.198	47.79
833.374	31.4
833.551	76.46
833.728	84.65
833.905	45.74
834.082	58.03
834.259	45.74
834.436	60.07
834.612	64.17
834.789	51.88
834.966	51.88
835.143	37.55
835.319	12.97
835.496	6.83
835.673	-30.04
835.85	2.73
836.026	-71
836.203	-19.8
836.38	-19.8
836.556	47.79
836.733	-58.71
836.909	49.83
837.086	19.11
837.262	31.4
837.439	133.8
837.616	33.45
837.792	72.36
837.968	72.36
838.145	10.92
838.321	-13.65
838.498	45.74
838.674	31.4
838.851	55.98
839.027	62.12
839.203	43.69
839.38	4.78
839.556	19.11
839.732	33.45
839.909	39.59
840.085	119.46
840.261	-25.94
840.437	19.11
840.614	51.88
840.79	45.74
840.966	27.31
841.142	23.21
841.318	64.17
841.494	96.94
841.671	6.83
841.847	17.07
842.023	12.97
842.199	25.26
842.375	10.92
842.551	-5.46
842.727	-1.37
842.903	-7.51
843.079	-19.8
843.255	109.23
843.431	-21.84
843.607	68.27
843.783	74.41
843.959	88.75
844.134	21.16
844.31	47.79
844.486	-21.84
844.662	-17.75
844.838	6.83
845.013	109.23
845.189	76.46
845.365	2.73
845.541	4.78
845.716	-36.18
845.892	-19.8
846.068	-34.13
846.244	60.07
846.419	43.69
846.595	2.73
846.77	-5.46
846.946	43.69
847.122	35.5
847.297	-1.37
847.473	55.98
847.648	-58.71
847.824	45.74
847.999	-44.37
848.175	105.13
848.35	60.07
848.526	8.87
848.701	-30.04
848.876	107.18
849.052	43.69
849.227	8.87
849.403	-11.61
849.578	43.69
849.753	27.31
849.929	-21.84
850.104	-23.89
850.279	-73.04
850.454	8.87
850.63	0.68
850.805	-19.8
850.98	-68.95
851.155	37.55
851.33	84.65
851.505	27.31
851.681	39.59
851.856	-17.75
852.031	4.78
852.206	-9.56
852.381	45.74
852.556	-5.46
852.731	-17.75
852.906	27.31
853.081	-3.41
853.256	66.22
853.431	8.87
853.606	51.88
853.781	-1.37
853.956	-1.37
854.131	27.31
854.305	10.92
854.48	-19.8
854.655	10.92
854.83	68.27
855.005	-36.18
855.18	60.07
855.354	-1.37
855.529	53.93
855.704	-17.75
855.879	19.11
856.053	-50.52
856.228	-38.23
856.403	-50.52
856.577	-5.46
856.752	8.87
856.926	23.21
857.101	-54.61
857.276	60.07
857.45	-9.56
857.625	60.07
857.799	51.88
857.974	23.21
858.148	45.74
858.323	19.11
858.497	60.07
858.672	43.69
858.846	-19.8
859.02	27.31
859.195	0.68
859.369	4.78
859.543	41.64
859.718	35.5
859.892	86.7
860.066	29.35
860.241	0.68
860.415	-3.41
860.589	-32.08
860.763	-17.75
860.938	43.69
861.112	31.4
861.286	-13.65
861.46	86.7
861.634	-25.94
861.808	31.4
861.982	-32.08
862.157	39.59
862.331	-13.65
862.505	60.07
862.679	-42.32
862.853	2.73
863.027	-19.8
863.201	53.93
863.375	15.02
863.549	6.83
863.722	-21.84
863.896	68.27
864.07	62.12
864.244	35.5
864.418	-19.8
864.592	19.11
864.766	0.68
864.939	-5.46
865.113	-34.13
865.287	29.35
865.461	10.92
865.634	62.12
865.808	-19.8
865.982	47.79
866.156	-1.37
866.329	29.35
866.503	53.93
866.676	-13.65
866.85	35.5
867.024	70.31
867.197	35.5
867.371	-5.46
867.544	66.22
867.718	-5.46
867.891	8.87
868.065	10.92
868.238	8.87
868.412	25.26
868.585	45.74
868.759	-54.61
868.932	43.69
869.105	27.31
869.279	64.17
869.452	-38.23
869.625	21.16
869.799	33.45
869.972	-32.08
870.145	-3.41
870.319	-7.51
870.492	-11.61
870.665	-13.65
870.838	-52.56
871.011	-15.7
871.185	-5.46
871.358	35.5
871.531	15.02
871.704	-48.47
871.877	21.16
872.05	53.93
872.223	-30.04
872.396	109.23
872.569	92.84
872.742	15.02
872.915	4.78
873.088	-25.94
873.261	53.93
873.434	76.46
873.607	19.11
873.78	-9.56
873.953	49.83
874.126	-40.28
874.299	-11.61
874.471	74.41
874.644	43.69
874.817	-25.94
874.99	68.27
875.163	19.11
875.335	-3.41
875.508	64.17
875.681	-87.38
875.853	-11.61
876.026	12.97
876.199	12.97
876.371	29.35
876.544	-3.41
876.717	-13.65
876.889	45.74
877.062	33.45
877.234	-1.37
877.407	-27.99
877.579	-11.61
877.752	17.07
877.924	12.97
878.097	19.11
878.269	12.97
878.442	43.69
878.614	21.16
878.786	-1.37
878.959	-40.28
879.131	29.35
879.303	-62.8
879.476	72.36
879.648	45.74
879.82	2.73
879.993	10.92
880.165	19.11
880.337	47.79
880.509	21.16
880.681	-38.23
880.854	51.88
881.026	17.07
881.198	35.5
881.37	-23.89
881.542	2.73
881.714	-40.28
881.886	-56.66
882.058	27.31
882.23	-5.46
882.402	-3.41
882.574	2.73
882.746	17.07
882.918	10.92
883.09	15.02
883.262	12.97
883.434	41.64
883.606	-21.84
883.778	-7.51
883.95	45.74
884.122	0.68
884.293	10.92
884.465	33.45
884.637	35.5
884.809	6.83
884.98	0.68
885.152	-48.47
885.324	35.5
885.496	-7.51
885.667	10.92
885.839	-13.65
886.011	-42.32
886.182	29.35
886.354	-23.89
886.525	-17.75
886.697	19.11
886.869	15.02
887.04	19.11
887.212	-7.51
887.383	29.35
887.555	2.73
887.726	47.79
887.897	12.97
888.069	-36.18
888.24	-1.37
888.412	-19.8
888.583	-15.7
888.754	12.97
888.926	-77.14
889.097	-25.94
889.268	55.98
889.44	-21.84
889.611	-83.28
889.782	98.99
889.953	-11.61
890.125	2.73
890.296	0.68
890.467	25.26
890.638	-9.56
890.809	-30.04
890.98	8.87
891.151	29.35
891.323	10.92
891.494	-19.8
891.665	-21.84
891.836	23.21
892.007	-27.99
892.178	109.23
892.349	-1.37
892.52	12.97
892.691	15.02
892.862	-32.08
893.032	10.92
893.203	-1.37
893.374	-15.7
893.545	45.74
893.716	-11.61
893.887	27.31
894.057	41.64
894.228	-3.41
894.399	27.31
894.57	29.35
894.74	-13.65
894.911	23.21
895.082	-25.94
895.253	41.64
895.423	45.74
895.594	-21.84
895.764	-52.56
895.935	-13.65
896.106	2.73
896.276	29.35
896.447	25.26
896.617	-58.71
896.788	-30.04
896.958	43.69
897.129	-71
897.299	21.16
897.47	10.92
897.64	10.92
897.81	-46.42
897.981	2.73
898.151	29.35
898.322	-21.84
898.492	-40.28
898.662	12.97
898.832	-13.65
899.003	-44.37
899.173	6.83
899.343	-38.23
899.513	37.55
