Data from USB4F104151__298__14-03-03-104.txt Node

Date: Thu Mar 13 14:03:03 EDT 2025
User: louis
Spectrometer: USB4F10415
Trigger mode: 4
Integration Time (sec): 1.000000E-2
Scans to average: 1
Electric dark correction enabled: true
Nonlinearity correction enabled: false
Boxcar width: 0
XAxis mode: Wavelengths
Number of Pixels in Spectrum: 3648
>>>>>Begin Spectral Data<<<<<
178.204	-11.26
178.424	-11.26
178.644	-11.26
178.864	-54.27
179.084	-62.46
179.304	-5.12
179.524	-35.84
179.744	3.07
179.964	13.31
180.184	76.8
180.404	-3.07
180.624	-39.94
180.844	-25.6
181.064	-17.41
181.283	44.03
181.503	-29.7
181.723	19.46
181.943	19.46
182.163	29.7
182.383	1.02
182.602	11.26
182.822	3.07
183.042	-3.07
183.262	44.03
183.482	46.08
183.701	44.03
183.921	-5.12
184.141	23.55
184.361	35.84
184.58	87.04
184.8	29.7
185.02	-52.22
185.239	68.61
185.459	33.79
185.679	-13.31
185.898	15.36
186.118	25.6
186.338	15.36
186.557	76.8
186.777	1.02
186.997	-5.12
187.216	17.41
187.436	-19.46
187.655	37.89
187.875	27.65
188.095	39.94
188.314	27.65
188.534	29.7
188.753	46.08
188.973	15.36
189.192	19.46
189.412	21.5
189.631	-25.6
189.851	-5.12
190.07	41.98
190.29	33.79
190.509	15.36
190.729	-19.46
190.948	19.46
191.168	109.57
191.387	-21.5
191.607	52.22
191.826	31.74
192.045	13.31
192.265	31.74
192.484	39.94
192.704	44.03
192.923	-97.28
193.142	23.55
193.362	-21.5
193.581	48.13
193.8	44.03
194.02	-23.55
194.239	35.84
194.458	31.74
194.678	13.31
194.897	80.89
195.116	19.46
195.335	19.46
195.555	60.42
195.774	3.07
195.993	-15.36
196.212	-23.55
196.432	35.84
196.651	-15.36
196.87	54.27
197.089	91.13
197.308	-29.7
197.528	80.89
197.747	84.99
197.966	52.22
198.185	-5.12
198.404	87.04
198.623	13.31
198.842	52.22
199.062	107.52
199.281	125.95
199.5	-3.07
199.719	23.55
199.938	66.56
200.157	91.13
200.376	44.03
200.595	-13.31
200.814	-19.46
201.033	-15.36
201.252	-7.17
201.471	56.32
201.69	-48.13
201.909	80.89
202.128	68.61
202.347	37.89
202.566	107.52
202.785	31.74
203.004	66.56
203.223	-11.26
203.442	74.75
203.661	31.74
203.879	78.85
204.098	74.75
204.317	72.7
204.536	50.18
204.755	87.04
204.974	76.8
205.193	-21.5
205.411	29.7
205.63	7.17
205.849	19.46
206.068	-3.07
206.287	-5.12
206.505	68.61
206.724	54.27
206.943	-41.98
207.162	19.46
207.381	44.03
207.599	35.84
207.818	-13.31
208.037	31.74
208.255	27.65
208.474	1.02
208.693	33.79
208.911	46.08
209.13	37.89
209.349	-50.18
209.567	80.89
209.786	80.89
210.005	70.65
210.223	-5.12
210.442	11.26
210.661	76.8
210.879	13.31
211.098	60.42
211.316	115.71
211.535	-5.12
211.753	19.46
211.972	82.94
212.191	-23.55
212.409	-5.12
212.628	27.65
212.846	29.7
213.065	15.36
213.283	48.13
213.502	3.07
213.72	3.07
213.938	46.08
214.157	-15.36
214.375	27.65
214.594	46.08
214.812	89.09
215.031	21.5
215.249	-33.79
215.467	-29.7
215.686	13.31
215.904	-7.17
216.122	23.55
216.341	31.74
216.559	93.18
216.778	23.55
216.996	52.22
217.214	-54.27
217.432	52.22
217.651	74.75
217.869	72.7
218.087	-13.31
218.306	-33.79
218.524	-27.65
218.742	13.31
218.96	111.61
219.179	-1.02
219.397	62.46
219.615	15.36
219.833	27.65
220.051	-17.41
220.27	7.17
220.488	-1.02
220.706	29.7
220.924	23.55
221.142	72.7
221.36	39.94
221.578	39.94
221.796	21.5
222.015	54.27
222.233	35.84
222.451	39.94
222.669	-31.74
222.887	27.65
223.105	-27.65
223.323	23.55
223.541	-13.31
223.759	64.51
223.977	13.31
224.195	35.84
224.413	66.56
224.631	76.8
224.849	3.07
225.067	-41.98
225.285	3.07
225.503	3.07
225.721	54.27
225.939	60.42
226.157	35.84
226.375	76.8
226.592	-21.5
226.81	35.84
227.028	54.27
227.246	84.99
227.464	60.42
227.682	21.5
227.9	19.46
228.117	17.41
228.335	-17.41
228.553	82.94
228.771	33.79
228.989	50.18
229.206	52.22
229.424	82.94
229.642	48.13
229.86	19.46
230.077	44.03
230.295	52.22
230.513	-3.07
230.731	80.89
230.948	52.22
231.166	27.65
231.384	39.94
231.601	-37.89
231.819	58.37
232.037	13.31
232.254	-9.22
232.472	39.94
232.689	29.7
232.907	23.55
233.125	31.74
233.342	56.32
233.56	-3.07
233.777	21.5
233.995	-3.07
234.213	37.89
234.43	-25.6
234.648	84.99
234.865	-35.84
235.083	21.5
235.3	17.41
235.518	58.37
235.735	11.26
235.953	-27.65
236.17	60.42
236.388	11.26
236.605	1.02
236.822	70.65
237.04	29.7
237.257	27.65
237.475	7.17
237.692	13.31
237.909	89.09
238.127	19.46
238.344	15.36
238.562	-3.07
238.779	93.18
238.996	44.03
239.214	-17.41
239.431	62.46
239.648	11.26
239.865	56.32
240.083	7.17
240.3	31.74
240.517	-27.65
240.735	31.74
240.952	31.74
241.169	76.8
241.386	-27.65
241.603	-50.18
241.821	54.27
242.038	66.56
242.255	-33.79
242.472	23.55
242.689	48.13
242.907	50.18
243.124	-5.12
243.341	60.42
243.558	33.79
243.775	33.79
243.992	27.65
244.209	15.36
244.426	78.85
244.643	27.65
244.86	52.22
245.078	27.65
245.295	-5.12
245.512	44.03
245.729	50.18
245.946	66.56
246.163	-23.55
246.38	52.22
246.597	-3.07
246.814	19.46
247.031	82.94
247.248	80.89
247.464	41.98
247.681	13.31
247.898	-9.22
248.115	39.94
248.332	37.89
248.549	44.03
248.766	37.89
248.983	111.61
249.2	27.65
249.417	31.74
249.633	78.85
249.85	56.32
250.067	27.65
250.284	-21.5
250.501	13.31
250.717	99.33
250.934	78.85
251.151	11.26
251.368	15.36
251.585	1.02
251.801	68.61
252.018	50.18
252.235	52.22
252.451	-5.12
252.668	37.89
252.885	74.75
253.102	-46.08
253.318	-19.46
253.535	29.7
253.752	27.65
253.968	44.03
254.185	29.7
254.401	13.31
254.618	109.57
254.835	58.37
255.051	80.89
255.268	5.12
255.484	48.13
255.701	60.42
255.917	39.94
256.134	52.22
256.351	17.41
256.567	-33.79
256.784	-7.17
257	3.07
257.217	74.75
257.433	60.42
257.65	23.55
257.866	19.46
258.082	25.6
258.299	19.46
258.515	-3.07
258.732	84.99
258.948	19.46
259.165	-13.31
259.381	19.46
259.597	-3.07
259.814	3.07
260.03	64.51
260.246	33.79
260.463	-5.12
260.679	97.28
260.895	46.08
261.112	93.18
261.328	-52.22
261.544	46.08
261.761	39.94
261.977	-1.02
262.193	41.98
262.409	27.65
262.626	80.89
262.842	44.03
263.058	-3.07
263.274	44.03
263.49	-3.07
263.707	52.22
263.923	50.18
264.139	7.17
264.355	13.31
264.571	27.65
264.787	48.13
265.004	13.31
265.22	-1.02
265.436	-13.31
265.652	74.75
265.868	13.31
266.084	15.36
266.3	5.12
266.516	-1.02
266.732	80.89
266.948	44.03
267.164	-33.79
267.38	-3.07
267.596	37.89
267.812	-13.31
268.028	109.57
268.244	56.32
268.46	-1.02
268.676	7.17
268.892	48.13
269.108	35.84
269.324	19.46
269.54	27.65
269.756	95.23
269.972	11.26
270.188	64.51
270.403	46.08
270.619	13.31
270.835	-60.42
271.051	80.89
271.267	70.65
271.483	103.42
271.698	33.79
271.914	25.6
272.13	25.6
272.346	44.03
272.562	50.18
272.777	76.8
272.993	52.22
273.209	29.7
273.425	5.12
273.64	60.42
273.856	44.03
274.072	-41.98
274.287	39.94
274.503	7.17
274.719	52.22
274.934	29.7
275.15	11.26
275.366	44.03
275.581	19.46
275.797	21.5
276.012	25.6
276.228	111.61
276.444	64.51
276.659	25.6
276.875	35.84
277.09	33.79
277.306	27.65
277.521	68.61
277.737	39.94
277.952	58.37
278.168	1.02
278.383	46.08
278.599	68.61
278.814	84.99
279.03	25.6
279.245	58.37
279.461	19.46
279.676	46.08
279.892	19.46
280.107	13.31
280.322	50.18
280.538	44.03
280.753	35.84
280.969	52.22
281.184	37.89
281.399	37.89
281.615	-13.31
281.83	15.36
282.045	17.41
282.26	-15.36
282.476	54.27
282.691	33.79
282.906	70.65
283.122	44.03
283.337	3.07
283.552	84.99
283.767	-5.12
283.983	-11.26
284.198	-19.46
284.413	31.74
284.628	60.42
284.843	50.18
285.058	1.02
285.274	27.65
285.489	-15.36
285.704	-25.6
285.919	35.84
286.134	56.32
286.349	11.26
286.564	37.89
286.779	60.42
286.995	46.08
287.21	5.12
287.425	60.42
287.64	-23.55
287.855	68.61
288.07	11.26
288.285	19.46
288.5	23.55
288.715	27.65
288.93	52.22
289.145	97.28
289.36	44.03
289.575	-5.12
289.79	52.22
290.004	-7.17
290.219	15.36
290.434	27.65
290.649	130.05
290.864	-21.5
291.079	64.51
291.294	29.7
291.509	48.13
291.724	11.26
291.938	-39.94
292.153	44.03
292.368	17.41
292.583	27.65
292.798	7.17
293.012	27.65
293.227	62.46
293.442	39.94
293.657	25.6
293.871	19.46
294.086	84.99
294.301	48.13
294.516	113.66
294.73	37.89
294.945	3.07
295.16	7.17
295.374	70.65
295.589	21.5
295.804	-7.17
296.018	-21.5
296.233	95.23
296.447	23.55
296.662	35.84
296.877	-23.55
297.091	48.13
297.306	115.71
297.52	80.89
297.735	15.36
297.949	-80.89
298.164	54.27
298.378	-25.6
298.593	19.46
298.807	21.5
299.022	5.12
299.236	9.22
299.451	-1.02
299.665	74.75
299.88	52.22
300.094	41.98
300.309	101.37
300.523	-60.42
300.737	25.6
300.952	52.22
301.166	-11.26
301.381	84.99
301.595	60.42
301.809	15.36
302.024	31.74
302.238	-17.41
302.452	13.31
302.667	58.37
302.881	80.89
303.095	46.08
303.309	46.08
303.524	1.02
303.738	70.65
303.952	35.84
304.166	-3.07
304.381	13.31
304.595	3.07
304.809	39.94
305.023	58.37
305.237	44.03
305.452	46.08
305.666	15.36
305.88	46.08
306.094	5.12
306.308	35.84
306.522	23.55
306.736	41.98
306.95	19.46
307.164	48.13
307.379	37.89
307.593	5.12
307.807	-23.55
308.021	33.79
308.235	82.94
308.449	33.79
308.663	31.74
308.877	-37.89
309.091	11.26
309.305	48.13
309.519	31.74
309.733	84.99
309.947	1.02
310.161	66.56
310.374	19.46
310.588	101.37
310.802	17.41
311.016	37.89
311.23	-17.41
311.444	46.08
311.658	37.89
311.872	48.13
312.085	48.13
312.299	52.22
312.513	60.42
312.727	80.89
312.941	62.46
313.154	-3.07
313.368	70.65
313.582	62.46
313.796	-1.02
314.009	25.6
314.223	84.99
314.437	-13.31
314.651	-21.5
314.864	37.89
315.078	52.22
315.292	15.36
315.505	29.7
315.719	99.33
315.933	82.94
316.146	7.17
316.36	46.08
316.573	52.22
316.787	84.99
317.001	84.99
317.214	31.74
317.428	27.65
317.641	-25.6
317.855	82.94
318.068	-5.12
318.282	19.46
318.495	27.65
318.709	107.52
318.922	37.89
319.136	35.84
319.349	95.23
319.563	-17.41
319.776	9.22
319.99	50.18
320.203	25.6
320.417	37.89
320.63	101.37
320.843	60.42
321.057	-1.02
321.27	44.03
321.483	60.42
321.697	39.94
321.91	93.18
322.124	-1.02
322.337	68.61
322.55	72.7
322.763	17.41
322.977	54.27
323.19	93.18
323.403	19.46
323.617	17.41
323.83	52.22
324.043	5.12
324.256	56.32
324.469	7.17
324.683	93.18
324.896	58.37
325.109	46.08
325.322	-33.79
325.535	115.71
325.748	19.46
325.962	46.08
326.175	21.5
326.388	103.42
326.601	3.07
326.814	70.65
327.027	48.13
327.24	23.55
327.453	19.46
327.666	87.04
327.879	21.5
328.092	31.74
328.305	70.65
328.518	11.26
328.731	33.79
328.944	74.75
329.157	-27.65
329.37	-13.31
329.583	50.18
329.796	7.17
330.009	19.46
330.222	11.26
330.435	17.41
330.648	-13.31
330.861	29.7
331.073	74.75
331.286	93.18
331.499	-29.7
331.712	46.08
331.925	7.17
332.138	-13.31
332.35	119.81
332.563	74.75
332.776	103.42
332.989	41.98
333.202	64.51
333.414	35.84
333.627	56.32
333.84	52.22
334.053	80.89
334.265	31.74
334.478	62.46
334.691	19.46
334.903	-29.7
335.116	11.26
335.329	64.51
335.541	-1.02
335.754	11.26
335.966	21.5
336.179	39.94
336.392	-46.08
336.604	70.65
336.817	-17.41
337.029	15.36
337.242	84.99
337.454	74.75
337.667	11.26
337.88	95.23
338.092	1.02
338.305	58.37
338.517	39.94
338.729	60.42
338.942	46.08
339.154	76.8
339.367	-31.74
339.579	35.84
339.792	78.85
340.004	132.09
340.217	-5.12
340.429	80.89
340.641	-64.51
340.854	78.85
341.066	29.7
341.278	19.46
341.491	-21.5
341.703	35.84
341.915	76.8
342.128	103.42
342.34	29.7
342.552	-52.22
342.764	39.94
342.977	17.41
343.189	3.07
343.401	62.46
343.613	5.12
343.826	91.13
344.038	99.33
344.25	109.57
344.462	84.99
344.674	64.51
344.886	3.07
345.099	84.99
345.311	39.94
345.523	11.26
345.735	125.95
345.947	-37.89
346.159	-11.26
346.371	17.41
346.583	60.42
346.795	72.7
347.007	41.98
347.219	70.65
347.431	72.7
347.643	13.31
347.855	-11.26
348.067	-46.08
348.279	56.32
348.491	-29.7
348.703	23.55
348.915	13.31
349.127	-25.6
349.339	48.13
349.551	52.22
349.763	84.99
349.975	41.98
350.187	19.46
350.399	56.32
350.61	111.61
350.822	27.65
351.034	50.18
351.246	72.7
351.458	41.98
351.669	37.89
351.881	56.32
352.093	-41.98
352.305	84.99
352.517	64.51
352.728	62.46
352.94	15.36
353.152	78.85
353.363	-3.07
353.575	101.37
353.787	39.94
353.999	109.57
354.21	70.65
354.422	21.5
354.633	37.89
354.845	46.08
355.057	60.42
355.268	66.56
355.48	76.8
355.692	48.13
355.903	35.84
356.115	54.27
356.326	37.89
356.538	62.46
356.749	82.94
356.961	3.07
357.172	27.65
357.384	-13.31
357.595	62.46
357.807	21.5
358.018	50.18
358.23	70.65
358.441	39.94
358.653	52.22
358.864	15.36
359.075	97.28
359.287	17.41
359.498	13.31
359.709	-37.89
359.921	44.03
360.132	31.74
360.344	107.52
360.555	72.7
360.766	56.32
360.977	33.79
361.189	111.61
361.4	31.74
361.611	130.05
361.823	68.61
362.034	56.32
362.245	-1.02
362.456	31.74
362.667	60.42
362.879	66.56
363.09	117.76
363.301	62.46
363.512	-1.02
363.723	13.31
363.935	54.27
364.146	25.6
364.357	-15.36
364.568	-1.02
364.779	39.94
364.99	35.84
365.201	17.41
365.412	39.94
365.623	74.75
365.834	121.85
366.045	33.79
366.256	103.42
366.467	64.51
366.678	111.61
366.889	117.76
367.1	48.13
367.311	60.42
367.522	27.65
367.733	56.32
367.944	-35.84
368.155	44.03
368.366	37.89
368.577	3.07
368.788	70.65
368.999	62.46
369.209	27.65
369.42	84.99
369.631	29.7
369.842	-13.31
370.053	74.75
370.264	-62.46
370.474	109.57
370.685	72.7
370.896	70.65
371.107	23.55
371.317	76.8
371.528	25.6
371.739	46.08
371.95	25.6
372.16	29.7
372.371	56.32
372.582	15.36
372.792	-9.22
373.003	44.03
373.214	76.8
373.424	93.18
373.635	-39.94
373.846	13.31
374.056	99.33
374.267	27.65
374.477	-5.12
374.688	91.13
374.898	27.65
375.109	80.89
375.319	68.61
375.53	70.65
375.74	44.03
375.951	54.27
376.161	84.99
376.372	44.03
376.582	31.74
376.793	29.7
377.003	5.12
377.214	60.42
377.424	68.61
377.635	84.99
377.845	7.17
378.055	7.17
378.266	48.13
378.476	44.03
378.686	35.84
378.897	27.65
379.107	31.74
379.317	87.04
379.528	103.42
379.738	68.61
379.948	11.26
380.158	23.55
380.369	27.65
380.579	66.56
380.789	21.5
380.999	62.46
381.21	70.65
381.42	109.57
381.63	17.41
381.84	60.42
382.05	82.94
382.261	70.65
382.471	31.74
382.681	33.79
382.891	7.17
383.101	66.56
383.311	54.27
383.521	52.22
383.731	7.17
383.941	125.95
384.151	-3.07
384.361	105.47
384.571	46.08
384.781	64.51
384.991	5.12
385.201	125.95
385.411	29.7
385.621	44.03
385.831	103.42
386.041	52.22
386.251	93.18
386.461	113.66
386.671	-21.5
386.881	11.26
387.091	9.22
387.301	95.23
387.511	11.26
387.72	84.99
387.93	62.46
388.14	60.42
388.35	54.27
388.56	17.41
388.769	21.5
388.979	101.37
389.189	60.42
389.399	78.85
389.609	56.32
389.818	111.61
390.028	95.23
390.238	41.98
390.447	72.7
390.657	93.18
390.867	56.32
391.076	11.26
391.286	-3.07
391.496	68.61
391.705	89.09
391.915	119.81
392.125	70.65
392.334	15.36
392.544	87.04
392.753	93.18
392.963	48.13
393.172	82.94
393.382	103.42
393.591	3.07
393.801	80.89
394.01	68.61
394.22	62.46
394.429	109.57
394.639	70.65
394.848	60.42
395.058	93.18
395.267	37.89
395.477	5.12
395.686	78.85
395.895	95.23
396.105	89.09
396.314	103.42
396.524	31.74
396.733	87.04
396.942	95.23
397.152	84.99
397.361	134.14
397.57	146.43
397.78	56.32
397.989	76.8
398.198	158.72
398.407	93.18
398.617	25.6
398.826	21.5
399.035	99.33
399.244	72.7
399.453	82.94
399.663	101.37
399.872	5.12
400.081	39.94
400.29	154.62
400.499	66.56
400.708	84.99
400.917	111.61
401.127	44.03
401.336	70.65
401.545	125.95
401.754	125.95
401.963	37.89
402.172	54.27
402.381	74.75
402.59	150.53
402.799	72.7
403.008	115.71
403.217	132.09
403.426	123.9
403.635	130.05
403.844	-15.36
404.053	123.9
404.262	103.42
404.471	132.09
404.68	160.77
404.888	93.18
405.097	89.09
405.306	84.99
405.515	113.66
405.724	78.85
405.933	84.99
406.142	130.05
406.35	152.57
406.559	160.77
406.768	136.19
406.977	152.57
407.185	121.85
407.394	254.97
407.603	134.14
407.812	185.34
408.02	125.95
408.229	177.15
408.438	144.38
408.646	195.58
408.855	156.67
409.064	162.81
409.272	171.01
409.481	185.34
409.69	160.77
409.898	193.53
410.107	220.16
410.315	197.63
410.524	218.11
410.733	230.4
410.941	275.45
411.15	250.88
411.358	250.88
411.567	216.06
411.775	263.16
411.984	283.64
412.192	263.16
412.401	259.07
412.609	287.74
412.818	306.17
413.026	351.23
413.234	207.87
413.443	418.81
413.651	349.18
413.86	357.37
414.068	336.89
414.276	392.19
414.485	379.9
414.693	400.38
414.901	392.19
415.11	486.39
415.318	326.65
415.526	461.82
415.734	474.1
415.943	394.23
416.151	465.91
416.359	476.15
416.567	545.78
416.776	523.26
416.984	533.5
417.192	609.27
417.4	621.56
417.608	574.46
417.817	723.96
418.025	617.46
418.233	701.43
418.441	693.24
418.649	687.09
418.857	732.15
419.065	814.07
419.273	732.15
419.481	773.11
419.689	824.31
419.897	869.36
420.105	859.12
420.313	936.95
420.521	938.99
420.729	1027.06
420.937	936.95
421.145	1059.82
421.353	1086.45
421.561	1168.37
421.769	1151.98
421.977	1231.85
422.185	1223.66
422.393	1344.49
422.601	1377.26
422.809	1289.2
423.017	1336.3
423.224	1508.33
423.432	1487.85
423.64	1467.37
423.848	1702.89
424.056	1487.85
424.263	1670.12
424.471	1713.13
424.679	1772.52
424.887	1813.48
425.094	1905.63
425.302	1995.75
425.51	1981.41
425.718	2063.33
425.925	2026.47
426.133	2108.38
426.341	2184.16
426.548	2413.53
426.756	2474.97
426.964	2456.54
427.171	2487.26
427.379	2585.56
427.586	2577.37
427.794	2558.94
428.001	2784.21
428.209	2943.96
428.417	2825.17
428.624	3077.07
428.832	3222.48
429.039	3111.89
429.247	3021.78
429.454	3298.25
429.662	3605.45
429.869	3271.63
430.076	3509.19
430.284	3478.47
430.491	3599.31
430.699	3699.66
430.906	3793.86
431.114	3939.27
431.321	4123.59
431.528	3969.99
431.736	4295.61
431.943	4506.56
432.15	4336.57
432.358	4312
432.565	4770.74
432.772	4711.35
432.979	4856.76
433.187	4998.07
433.394	5030.84
433.601	5286.83
433.808	5358.51
434.016	5534.64
434.223	5659.56
434.43	5743.53
434.637	5657.51
434.844	6022.05
435.052	6261.66
435.259	6239.14
435.466	6319.01
435.673	6302.62
435.88	6595.48
436.087	7062.42
436.294	6886.29
436.501	6787.99
436.708	6855.58
436.915	7220.11
437.122	7420.81
437.329	7467.92
437.537	7777.16
437.743	7906.18
437.95	7734.15
438.157	8242.05
438.364	8455.04
438.571	8557.44
438.778	8571.77
438.985	9112.44
439.192	8878.97
439.399	9151.35
439.606	8973.18
439.813	9399.15
440.02	10015.59
440.227	9988.97
440.433	9792.36
440.64	10154.85
440.847	10185.57
441.054	10369.89
441.261	10957.66
441.467	10644.32
441.674	11084.63
441.881	11598.67
442.088	11469.65
442.294	11322.2
442.501	11553.62
442.708	11873.1
442.914	12303.17
443.121	12925.75
443.328	12481.35
443.534	13314.87
443.741	13222.71
443.948	12890.94
444.154	13849.39
444.361	13716.27
444.568	13822.77
444.774	13566.77
444.981	14080.81
445.187	14392.1
445.394	14990.11
445.6	15041.31
445.807	16042.76
446.013	15710.99
446.22	15866.64
446.426	16126.73
446.633	16448.26
446.839	17066.75
447.046	16452.36
447.252	17298.17
447.459	17713.91
447.665	17292.02
447.871	18160.36
448.078	18770.66
448.284	17974
448.491	18389.74
448.697	19149.53
448.903	19161.82
449.11	19485.4
449.316	19499.73
449.522	19235.55
449.728	19899.09
449.935	20212.43
450.141	20239.05
450.347	20413.13
450.553	20161.23
450.76	20120.27
450.966	21048
451.172	20695.75
451.378	21088.96
451.584	20490.95
451.791	21306.04
451.997	21260.99
452.203	21467.83
452.409	21365.43
452.615	21344.95
452.821	20832.96
453.027	20441.8
453.233	21410.49
453.44	20531.91
453.646	20839.11
453.852	20847.3
454.058	21476.02
454.264	20671.17
454.47	20976.32
454.676	20652.74
454.882	21146.3
455.088	19440.34
455.294	19643.09
455.5	19606.23
455.705	20126.41
455.911	19139.29
456.117	19270.36
456.323	18477.8
456.529	17308.41
456.735	18354.92
456.941	17996.53
457.147	17830.64
457.352	16976.64
457.558	17031.93
457.764	17038.08
457.97	16644.87
458.176	16339.72
458.381	16065.29
458.587	15360.79
458.793	15547.15
458.999	14568.23
459.204	15926.03
459.41	15239.96
459.616	14105.38
459.821	14134.06
460.027	14504.74
460.233	14203.69
460.438	13663.02
460.644	13327.16
460.85	12616.51
461.055	12505.92
461.261	12733.25
461.466	11637.58
461.672	11377.49
461.878	12258.12
462.083	11385.68
462.289	11109.21
462.494	11082.58
462.7	10576.73
462.905	10300.26
463.111	10703.71
463.316	10638.17
463.522	10484.58
463.727	10519.39
463.932	10353.51
464.138	10314.59
464.343	10603.36
464.549	10148.71
464.754	10464.1
464.959	10255.2
465.165	10285.92
465.37	9876.33
465.575	9651.05
465.781	10064.74
465.986	10187.62
466.191	9784.17
466.397	9509.74
466.602	9108.34
466.807	9327.47
467.012	9263.99
467.218	9282.42
467.423	9390.96
467.628	9372.53
467.833	9581.42
468.038	9366.39
468.244	8917.88
468.449	9497.46
468.654	9085.81
468.859	8975.22
469.064	9198.45
469.269	8721.27
469.474	8754.04
469.679	8885.11
469.885	8600.44
470.09	8770.43
470.295	8895.35
470.5	8790.91
470.705	8672.12
470.91	8369.02
471.115	8448.9
471.32	8375.17
471.525	8457.09
471.73	8264.58
471.935	8280.96
472.139	8096.64
472.344	7996.29
472.549	7928.71
472.754	7748.49
472.959	7517.07
473.164	7435.15
473.369	7629.71
473.574	7842.7
473.778	7531.41
473.983	7457.68
474.188	7484.3
474.393	7242.64
474.598	7246.74
474.802	7013.27
475.007	7146.39
475.212	7252.88
475.417	6779.8
475.621	6890.39
475.826	6814.62
476.031	6568.86
476.235	6673.31
476.44	6718.36
476.645	6587.29
476.849	6646.68
477.054	6554.52
477.259	6667.16
477.463	6456.22
477.668	6290.34
477.872	6515.61
478.077	6302.62
478.282	6101.92
478.486	6196.13
478.691	6056.87
478.895	6206.37
479.1	6026.15
479.304	5890.98
479.509	5827.5
479.713	6056.87
479.918	5890.98
480.122	5827.5
480.326	5798.82
480.531	5862.31
480.735	5651.37
480.94	5751.72
481.144	5850.02
481.348	5774.25
481.553	5669.8
481.757	5503.92
481.961	5675.95
482.166	5667.75
482.37	5708.71
482.574	5487.53
482.778	5516.2
482.983	5583.79
483.187	5634.99
483.391	5563.31
483.595	5524.4
483.8	5487.53
484.004	5471.15
484.208	5680.04
484.412	5555.12
484.616	5544.88
484.821	5585.83
485.025	5557.16
485.229	5655.47
485.433	5467.05
485.637	5721
485.841	5462.96
486.045	5567.4
486.249	5665.71
486.453	5614.51
486.657	5598.12
486.861	5651.37
487.065	5409.71
487.269	5573.55
487.473	5551.02
487.677	5684.14
487.881	5782.44
488.085	5575.59
488.289	5614.51
488.493	5581.74
488.697	5598.12
488.901	5671.85
489.105	5553.07
489.309	5614.51
489.512	5735.34
489.716	5600.17
489.92	5712.81
490.124	5729.19
490.328	5761.96
490.531	5852.07
490.735	5796.78
490.939	5850.02
491.143	5946.28
491.346	5692.33
491.55	5966.76
491.754	5733.29
491.958	5933.99
492.161	5915.56
492.365	6126.5
492.569	6042.53
492.772	5933.99
492.976	6024.1
493.18	6075.3
493.383	6081.44
493.587	6251.42
493.79	6394.78
493.994	6140.83
494.197	6323.1
494.401	6294.43
494.605	6355.87
494.808	6359.97
495.012	6429.6
495.215	6472.61
495.419	6591.39
495.622	6636.44
495.825	6695.83
496.029	6636.44
496.232	7015.32
496.436	6814.62
496.639	7052.18
496.843	6867.86
497.046	7009.17
497.249	7123.86
497.453	7244.69
497.656	7277.46
497.859	7115.67
498.063	7392.14
498.266	7488.4
498.469	7367.57
498.673	7719.82
498.876	7752.59
499.079	7797.64
499.282	7744.39
499.485	7951.24
499.689	8035.21
499.892	8063.88
500.095	8371.07
500.298	8334.21
500.501	8350.59
500.705	8418.18
500.908	8670.08
501.111	8659.84
501.314	8770.43
501.517	9016.18
501.72	9030.52
501.923	9007.99
502.126	9190.26
502.329	9444.21
502.532	9368.43
502.735	9505.65
502.938	9659.24
503.141	9806.7
503.344	9761.64
503.547	9956.2
503.75	10214.24
503.953	10199.91
504.156	10326.88
504.359	10382.18
504.562	10513.25
504.765	10746.72
504.968	10818.39
505.17	11045.72
505.373	11047.77
505.576	11254.61
505.779	11397.97
505.982	11326.29
506.185	11782.99
506.387	11742.03
506.59	11918.15
506.793	12118.86
506.996	11946.83
507.198	12448.58
507.401	12596.03
507.604	12497.73
507.807	12862.27
508.009	13085.5
508.212	13069.11
508.415	13253.43
508.617	13208.37
508.82	13628.21
509.022	13499.19
509.225	13839.15
509.428	13912.88
509.63	14170.92
509.833	14301.99
510.035	14484.26
510.238	14592.8
510.44	14773.02
510.643	14840.61
510.845	15291.16
511.048	15104.79
511.25	15291.16
511.453	15235.86
511.655	16200.46
511.858	15846.16
512.06	16089.87
512.262	16124.68
512.465	16290.57
512.667	16585.47
512.87	16841.47
513.072	17083.13
513.274	17036.03
513.477	17294.07
513.679	17490.68
513.881	17668.85
514.084	17857.26
514.286	17992.43
514.488	18316.01
514.69	18715.36
514.893	18729.7
515.095	18897.63
515.297	19073.76
515.499	19190.49
515.701	19540.69
515.904	19647.19
516.106	19663.57
516.308	20161.23
516.51	20622.02
516.712	20163.28
516.914	20583.11
517.116	21058.24
517.318	21369.53
517.52	21285.56
517.722	21228.22
517.925	21775.03
518.127	21875.38
518.329	22450.86
518.531	22117.04
518.733	22383.27
518.935	22680.23
519.136	22674.09
519.338	22901.41
519.54	23329.44
519.742	23468.7
519.944	23763.61
520.146	24040.08
520.348	23896.72
520.55	24607.37
520.752	24447.63
520.954	24930.95
521.155	24806.02
521.357	24967.81
521.559	25412.22
521.761	25856.63
521.963	25741.94
522.164	25688.7
522.366	26055.28
522.568	26407.53
522.77	26505.84
522.971	26876.52
523.173	26505.84
523.375	27073.12
523.576	27163.23
523.778	27116.13
523.98	27566.68
524.181	27920.98
524.383	27765.34
524.584	27859.54
524.786	28131.92
524.988	28541.52
525.189	28267.09
525.391	28643.91
525.592	28867.14
525.794	28781.13
525.995	29014.6
526.197	29256.26
526.398	29332.03
526.6	29207.11
526.801	29815.35
527.003	29731.39
527.204	30114.36
527.406	29997.62
527.607	29948.47
527.808	30165.56
528.01	29715
528.211	30124.6
528.412	30730.8
528.614	30812.71
528.815	30980.65
529.016	31109.67
529.218	30698.03
529.419	31269.41
529.62	30896.68
529.822	30972.46
530.023	31267.36
530.224	31308.32
530.425	31279.65
530.626	30890.54
530.828	31101.48
531.029	31769.12
531.23	31130.15
531.431	31439.39
531.632	31656.48
531.833	31425.06
532.035	31506.98
532.236	31685.15
532.437	32000.54
532.638	31523.36
532.839	31793.69
533.04	31816.22
533.241	31568.41
533.442	32487.95
533.643	32172.57
533.844	31965.72
534.045	32006.68
534.246	32068.12
534.447	32131.61
534.648	32029.21
534.849	31693.34
535.05	32172.57
535.251	32363.03
535.451	32088.6
535.652	31932.95
535.853	32107.03
536.054	32246.29
536.255	32588.3
536.456	32008.73
536.657	32559.63
536.857	31994.39
537.058	31992.34
537.259	32328.21
537.46	32371.22
537.66	32377.36
537.861	32172.57
538.062	32010.78
538.263	32334.35
538.463	32154.13
538.664	32336.4
538.865	32326.16
539.065	32645.65
539.266	32328.21
539.466	32379.41
539.667	31836.7
539.868	32479.76
540.068	32543.25
540.269	32367.12
540.469	32827.92
540.67	32152.09
540.87	32252.44
541.071	32123.41
541.271	32438.8
541.472	32444.94
541.672	31887.9
541.873	31746.59
542.073	31820.31
542.274	32467.47
542.474	32389.65
542.675	32246.29
542.875	32682.51
543.075	32248.34
543.276	31894.04
543.476	32930.31
543.676	32018.97
543.877	32545.3
544.077	32369.17
544.277	32279.06
544.478	32338.45
544.678	32340.5
544.878	32305.68
545.078	32580.11
545.279	31887.9
545.479	32446.99
545.679	32502.29
545.879	32496.14
546.079	32391.7
546.28	32162.33
546.48	32229.91
546.68	32432.66
546.88	32416.27
547.08	32320.02
547.28	32039.45
547.48	32045.59
547.68	32365.07
547.88	32158.23
548.081	32371.22
548.281	32168.47
548.481	32453.14
548.681	32576.01
548.881	32242.2
549.081	32092.69
549.28	31965.72
549.48	32805.39
549.68	32397.84
549.88	32743.95
550.08	32279.06
550.28	32121.37
550.48	31873.56
550.68	32533.01
550.88	32242.2
551.08	31912.47
551.279	32313.87
551.479	31943.19
551.679	32397.84
551.879	32064.02
552.079	32324.11
552.278	32234
552.478	32229.91
552.678	32119.32
552.878	32186.9
553.077	31715.87
553.277	31613.47
553.477	32471.57
553.676	32219.67
553.876	32061.97
554.076	32094.74
554.275	32129.56
554.475	31633.95
554.674	32008.73
554.874	31986.2
555.074	31742.49
555.273	32231.96
555.473	32129.56
555.672	31658.52
555.872	31752.73
556.071	31826.46
556.271	32166.42
556.47	31945.24
556.67	31568.41
556.869	31580.7
557.068	32039.45
557.268	31621.66
557.467	31693.34
557.667	31590.94
557.866	31578.65
558.065	31308.32
558.265	30902.82
558.464	31320.61
558.663	31339.04
558.863	31298.08
559.062	31726.11
559.261	31232.55
559.461	31873.56
559.66	31132.2
559.859	31117.86
560.058	31396.38
560.258	31107.62
560.457	30919.21
560.656	31164.96
560.855	31083.05
561.054	31326.75
561.253	30868.01
561.453	30779.95
561.652	30951.98
561.851	31134.24
562.05	30667.31
562.249	30644.78
562.448	30775.85
562.647	30706.22
562.846	30839.34
563.045	30519.85
563.244	30448.18
563.443	31076.9
563.642	30431.79
563.841	30290.48
564.04	30425.65
564.239	30523.95
564.438	30222.9
564.637	30143.03
564.836	30149.17
565.035	30265.91
565.234	30112.31
565.432	29588.03
565.631	29915.7
565.83	29884.98
566.029	30143.03
566.228	29635.13
566.427	29450.81
566.625	29487.68
566.824	29557.31
567.023	29684.28
567.222	29381.18
567.42	29661.76
567.619	29549.12
567.818	29270.59
568.016	29094.47
568.215	29715
568.414	29129.28
568.612	29395.52
568.811	29256.26
569.01	29194.82
569.208	28936.77
569.407	29137.48
569.605	28901.96
569.804	28697.16
570.002	28875.34
570.201	28979.78
570.4	28416.59
570.598	28432.97
570.797	28496.46
570.995	28146.26
571.193	28156.5
571.392	28340.82
571.59	28387.92
571.789	28142.16
571.987	28271.18
572.186	27882.07
572.384	27664.99
572.582	27828.82
572.781	27816.54
572.979	27570.78
573.177	27327.07
573.376	27771.48
573.574	27388.51
573.772	27187.81
573.971	27394.65
574.169	27560.54
574.367	26661.48
574.565	27259.49
574.763	27060.84
574.962	26946.15
575.16	26634.86
575.358	26952.29
575.556	26346.09
575.754	26946.15
575.952	26550.89
576.151	26772.07
576.349	26311.28
576.547	26323.57
576.745	26559.08
576.943	26417.77
577.141	26141.3
577.339	26370.67
577.537	26051.19
577.735	25997.94
577.933	25983.6
578.131	26217.07
578.329	25768.57
578.527	25571.96
578.725	25623.16
578.923	25848.44
579.121	25668.22
579.319	25436.8
579.516	25531
579.714	25408.12
579.912	25428.6
580.11	25469.56
580.308	25092.74
580.506	25105.02
580.704	25029.25
580.901	24818.31
581.099	25381.5
581.297	24844.93
581.495	24722.05
581.692	24789.64
581.89	24545.93
582.088	24586.89
582.285	24316.56
582.483	24777.35
582.681	24554.12
582.878	24378
583.076	24158.86
583.274	24511.11
583.471	24046.23
583.669	24101.52
583.866	23962.26
584.064	24005.27
584.262	23511.71
584.459	23974.55
584.657	23886.48
584.854	23777.94
585.052	23384.73
585.249	23556.76
585.447	23800.47
585.644	23028.38
585.841	23468.7
586.039	23509.66
586.236	22932.13
586.434	23083.68
586.631	22983.33
586.828	23024.29
587.026	23091.87
587.223	22878.88
587.42	22852.26
587.618	22880.93
587.815	22561.45
588.012	22473.39
588.21	22495.91
588.407	22747.81
588.604	22440.62
588.801	22401.71
588.999	22241.96
589.196	22268.59
589.393	22178.48
589.59	22246.06
589.787	21912.24
589.984	21965.49
590.182	21924.53
590.379	22000.3
590.576	21701.3
590.773	21945.01
590.97	21826.23
591.167	21932.72
591.364	21441.21
591.561	21646.01
591.758	21459.64
591.955	21222.08
592.152	21383.87
592.349	21359.29
592.546	21303.99
592.743	21381.82
592.94	21111.49
593.137	21234.36
593.334	21242.56
593.531	20978.37
593.727	21050.05
593.924	21287.61
594.121	20865.73
594.318	20894.4
594.515	20222.67
594.712	20806.34
594.908	20818.63
595.105	20652.74
595.302	20593.35
595.499	20499.14
595.696	20433.61
595.892	20226.76
596.089	20194
596.286	20247.24
596.482	20200.14
596.679	19913.42
596.876	20187.85
597.072	20259.53
597.269	20163.28
597.466	19827.41
597.662	19598.04
597.859	20013.77
598.055	19509.97
598.252	19591.89
598.448	19645.14
598.645	19409.62
598.841	19372.76
599.038	19532.5
599.234	19491.54
599.431	19102.43
599.627	19321.56
599.824	19063.52
600.02	19155.68
600.217	19188.44
600.413	19229.4
600.609	18725.6
600.806	18930.4
601.002	19028.7
601.198	18924.26
601.395	18776.8
601.591	18760.42
601.787	18393.83
601.984	18506.47
602.18	18844.38
602.376	18211.56
602.572	18330.34
602.769	18172.65
602.965	18326.25
603.161	18133.74
603.357	18131.69
603.553	18209.51
603.75	18039.53
603.946	17957.61
604.142	18051.82
604.338	17480.44
604.534	17781.49
604.73	17470.2
604.926	17758.96
605.122	17656.56
605.318	17666.8
605.514	17492.73
605.71	17550.07
605.906	17476.34
606.102	17685.23
606.298	17285.88
606.494	17124.09
606.69	17371.89
606.886	17423.09
607.082	16845.57
607.278	17230.59
607.474	17165.05
607.67	16898.81
607.866	17173.24
608.062	17042.17
608.257	16730.88
608.453	16958.21
608.649	16442.12
608.845	16636.67
609.041	16548.61
609.236	16718.59
609.432	16681.73
609.628	16622.34
609.824	16364.29
610.019	16485.12
610.215	16452.36
610.411	16667.39
610.606	16337.67
610.802	16329.48
610.998	16327.43
611.193	16401.16
611.389	16253.7
611.584	16012.04
611.78	16265.99
611.976	16028.43
612.171	16108.3
612.367	15973.13
612.562	15895.31
612.758	15690.51
612.953	15764.24
613.149	15885.07
613.344	15739.66
613.539	16083.72
613.735	15569.68
613.93	15887.12
614.126	15729.42
614.321	16030.48
614.517	15397.65
614.712	15760.14
614.907	15612.69
615.103	15618.83
615.298	15356.69
615.493	15659.79
615.688	15256.34
615.884	15452.95
616.079	15264.54
616.274	15489.81
616.47	15328.02
616.665	15289.11
616.86	15127.32
617.055	15178.52
617.25	15186.71
617.445	15115.03
617.641	14805.79
617.836	15262.49
618.031	14687.01
618.226	14863.13
618.421	14820.13
618.616	15000.35
618.811	14600.99
619.006	14773.02
619.201	14574.37
619.396	14543.65
619.591	14531.36
619.786	14527.27
619.981	14347.05
620.176	14181.16
620.371	14254.89
620.566	14015.27
620.761	14248.74
620.956	14070.57
621.151	14129.96
621.346	14000.94
621.541	13749.04
621.735	13994.79
621.93	13720.37
622.125	13652.78
622.32	13716.27
622.515	13540.15
622.709	13404.98
622.904	13450.03
623.099	13456.18
623.294	13415.22
623.488	13200.18
623.683	13120.31
623.878	13163.32
624.072	13032.25
624.267	13079.35
624.462	12833.6
624.656	12854.08
624.851	12954.43
625.046	12673.85
625.24	12620.61
625.435	12489.54
625.629	12442.43
625.824	12442.43
626.018	12299.08
626.213	12129.09
626.407	12258.12
626.602	12049.22
626.796	12245.83
626.991	11926.35
627.185	11979.59
627.38	11801.42
627.574	11918.15
627.768	11977.55
627.963	11809.61
628.157	11535.18
628.352	11666.25
628.546	11357.01
628.74	11526.99
628.935	11467.6
629.129	11406.16
629.323	11324.24
629.517	11117.4
629.712	11174.74
629.906	11094.87
630.1	10976.09
630.294	11072.34
630.489	10881.88
630.683	11033.43
630.877	10836.83
631.071	10693.47
631.265	10947.42
631.459	10562.4
631.653	10496.86
631.848	10560.35
632.042	10466.14
632.236	10314.59
632.43	10277.73
632.624	10505.06
632.818	10333.03
633.012	10208.1
633.206	10185.57
633.4	10302.31
633.594	9939.82
633.788	10046.31
633.982	9964.39
634.176	10025.83
634.369	9755.5
634.563	9812.84
634.757	9767.79
634.951	9808.75
635.145	9818.99
635.339	9888.62
635.533	9651.05
635.726	9501.55
635.92	9681.77
636.114	9524.08
636.308	9497.46
636.501	9413.49
636.695	9534.32
636.889	9220.98
637.083	9382.77
637.276	9108.34
637.47	9116.53
637.664	9112.44
637.857	9067.38
638.051	8983.41
638.244	9145.2
638.438	8930.17
638.632	8823.67
638.825	8741.75
639.019	8680.32
639.212	8899.45
639.406	8887.16
639.599	8651.64
639.793	8418.18
639.986	8412.03
640.18	8485.76
640.373	8524.67
640.567	8346.5
640.76	8369.02
640.954	8237.95
641.147	8283.01
641.34	8162.18
641.534	8170.37
641.727	8123.27
641.92	8158.08
642.114	7875.46
642.307	7963.53
642.5	7930.76
642.694	7805.83
642.887	7857.03
643.08	7949.19
643.273	7844.74
643.467	7756.68
643.66	7598.99
643.853	7676.81
644.046	7547.79
644.239	7580.56
644.432	7482.25
644.626	7496.59
644.819	7279.5
645.012	7373.71
645.205	7424.91
645.398	7203.73
645.591	7265.17
645.784	7089.04
645.977	7117.72
646.17	7213.97
646.363	7093.14
646.556	6929.3
646.749	7058.32
646.942	6996.89
647.135	6890.39
647.328	6955.93
647.521	6851.48
647.714	6796.18
647.907	6785.94
648.099	6732.7
648.292	6859.67
648.485	6646.68
648.678	6605.72
648.871	6548.38
649.064	6482.85
649.256	6411.17
649.449	6396.83
649.642	6599.58
649.835	6386.59
650.027	6351.78
650.22	6398.88
650.413	6292.38
650.605	6204.32
650.798	6251.42
650.991	6110.11
651.183	6214.56
651.376	5981.09
651.568	6130.59
651.761	6075.3
651.954	6124.45
652.146	5940.13
652.339	6214.56
652.531	5917.61
652.724	5821.35
652.916	5772.2
653.109	5749.67
653.301	5714.86
653.494	5729.19
653.686	5680.04
653.879	5723.05
654.071	5573.55
654.263	5585.83
654.456	5538.73
654.648	5606.31
654.84	5499.82
655.033	5446.57
655.225	5479.34
655.417	5307.31
655.61	5512.11
655.802	5438.38
655.994	5407.66
656.186	5417.9
656.379	5229.49
656.571	5096.37
656.763	5122.99
656.955	5196.72
657.148	5237.68
657.34	5018.55
657.532	5102.51
657.724	4991.92
657.916	5041.08
658.108	4991.92
658.3	4914.1
658.492	4957.11
658.684	4887.48
658.876	4742.07
659.068	4858.81
659.26	4713.4
659.452	4834.23
659.644	4910.01
659.836	4746.17
660.028	4803.51
660.22	4611
660.412	4527.03
660.604	4443.07
660.796	4731.83
660.988	4551.61
661.18	4465.6
661.372	4524.99
661.563	4559.8
661.755	4565.95
661.947	4451.26
662.139	4385.73
662.331	4328.38
662.522	4479.93
662.714	4434.88
662.906	4379.58
663.097	4295.61
663.289	4254.66
663.481	4215.74
663.673	4326.33
663.864	4139.97
664.056	4131.78
664.247	4115.39
664.439	4103.11
664.631	4111.3
664.822	4072.39
665.014	4084.67
665.205	3963.84
665.397	3920.84
665.588	4027.33
665.78	3996.61
665.971	3859.4
666.163	3881.92
666.354	3847.11
666.546	3953.6
666.737	3722.18
666.929	3845.06
667.12	3859.4
667.311	3773.38
667.503	3814.34
667.694	3767.24
667.885	3787.72
668.077	3759.05
668.268	3666.89
668.459	3707.85
668.651	3726.28
668.842	3664.84
669.033	3537.87
669.224	3580.87
669.416	3484.62
669.607	3511.24
669.798	3517.39
669.989	3548.11
670.18	3478.47
670.371	3425.23
670.563	3380.17
670.754	3517.39
670.945	3425.23
671.136	3357.64
671.327	3314.64
671.518	3402.7
671.709	3294.16
671.9	3402.7
672.091	3361.74
672.282	3353.55
672.473	3292.11
672.664	3285.97
672.855	3298.25
673.046	3177.42
673.237	3222.48
673.428	3310.54
673.619	3312.59
673.809	3148.75
674	3218.38
674.191	3175.38
674.382	3202
674.573	3070.93
674.764	3120.08
674.954	3126.22
675.145	2993.11
675.336	3097.55
675.527	3120.08
675.717	3081.17
675.908	2962.39
676.099	3029.97
676.289	2935.76
676.48	3093.46
676.671	3081.17
676.861	2984.91
677.052	2970.58
677.243	2915.28
677.433	3095.5
677.624	3087.31
677.814	2911.19
678.005	2929.62
678.195	2849.75
678.386	2898.9
678.576	2819.03
678.767	2878.42
678.957	2890.71
679.148	2919.38
679.338	2716.63
679.529	2757.59
679.719	2730.97
679.909	2919.38
680.1	2761.69
680.29	2880.47
680.481	2757.59
680.671	2714.58
680.861	2724.82
681.052	2882.52
681.242	2819.03
681.432	2583.51
681.622	2771.93
681.813	2704.34
682.003	2612.18
682.193	2751.45
682.383	2741.21
682.573	2700.25
682.764	2690.01
682.954	2675.67
683.144	2790.36
683.334	2743.25
683.524	2593.75
683.714	2585.56
683.904	2577.37
684.094	2489.31
684.284	2675.67
684.474	2651.1
684.664	2591.7
684.854	2601.94
685.044	2614.23
685.234	2505.69
685.424	2560.98
685.614	2554.84
685.804	2560.98
685.994	2595.8
686.184	2581.46
686.374	2536.41
686.564	2546.65
686.753	2565.08
686.943	2446.3
687.133	2581.46
687.323	2567.13
687.513	2583.51
687.702	2419.68
687.892	2505.69
688.082	2546.65
688.272	2567.13
688.461	2483.16
688.651	2423.77
688.841	2464.73
689.03	2483.16
689.22	2448.35
689.41	2487.26
689.599	2436.06
689.789	2526.17
689.979	2401.24
690.168	2505.69
690.358	2337.76
690.547	2399.2
690.737	2474.97
690.926	2315.23
691.116	2423.77
691.305	2528.22
691.495	2323.42
691.684	2366.43
691.874	2419.68
692.063	2393.05
692.252	2388.96
692.442	2440.15
692.631	2315.23
692.82	2345.95
693.01	2296.8
693.199	2358.24
693.388	2253.79
693.578	2382.81
693.767	2292.7
693.956	2249.69
694.146	2337.76
694.335	2280.41
694.524	2239.45
694.713	2341.85
694.902	2386.91
695.092	2329.56
695.281	2378.72
695.47	2335.71
695.659	2358.24
695.848	2198.49
696.037	2362.33
696.226	2319.32
696.415	2264.03
696.604	2421.72
696.793	2325.47
696.982	2350.04
697.171	2358.24
697.36	2345.95
697.549	2223.07
697.738	2345.95
697.927	2386.91
698.116	2337.76
698.305	2434.01
698.494	2233.31
698.683	2368.48
698.872	2325.47
699.061	2288.61
699.25	2321.37
699.438	2229.21
699.627	2233.31
699.816	2221.02
700.005	2235.36
700.193	2276.32
700.382	2329.56
700.571	2216.93
700.76	2210.78
700.948	2184.16
701.137	2186.21
701.326	2284.51
701.514	2249.69
701.703	2313.18
701.892	2151.39
702.08	2231.26
702.269	2239.45
702.457	2210.78
702.646	2249.69
702.834	2110.43
703.023	2083.81
703.212	2280.41
703.4	2157.54
703.589	2278.37
703.777	2216.93
703.965	2151.39
704.154	2106.34
704.342	2249.69
704.531	2094.05
704.719	2096.1
704.907	2216.93
705.096	2010.08
705.284	2071.52
705.472	2063.33
705.661	2161.63
705.849	2206.69
706.037	2075.62
706.226	2120.67
706.414	2071.52
706.602	1993.7
706.79	2124.77
706.979	2067.42
707.167	2104.29
707.355	2001.89
707.543	2116.58
707.731	2067.42
707.919	2028.51
708.107	2014.18
708.296	1979.36
708.484	1938.4
708.672	1995.75
708.86	1995.75
709.048	1991.65
709.236	1936.35
709.424	2012.13
709.612	1960.93
709.8	1932.26
709.988	1887.2
710.176	1928.16
710.364	2034.66
710.551	2010.08
710.739	1848.29
710.927	1956.83
711.115	1905.63
711.303	1932.26
711.491	1879.01
711.679	1903.59
711.866	1883.11
712.054	1946.59
712.242	1876.96
712.43	1946.59
712.617	1788.9
712.805	1887.2
712.993	1883.11
713.181	1823.72
713.368	1786.85
713.556	1840.1
713.744	1817.57
713.931	1840.1
714.119	1797.09
714.306	1774.56
714.494	1764.33
714.682	1887.2
714.869	1715.17
715.057	1698.79
715.244	1790.95
715.432	1719.27
715.619	1758.18
715.807	1694.69
715.994	1627.11
716.182	1768.42
716.369	1805.28
716.556	1725.41
716.744	1690.6
716.931	1786.85
717.119	1752.04
717.306	1727.46
717.493	1592.3
717.681	1729.51
717.868	1633.26
718.055	1645.54
718.242	1696.74
718.43	1522.66
718.617	1600.49
718.804	1694.69
718.991	1618.92
719.179	1678.31
719.366	1551.34
719.553	1649.64
719.74	1643.49
719.927	1567.72
720.114	1620.97
720.301	1606.63
720.488	1584.1
720.676	1471.47
720.863	1518.57
721.05	1547.24
721.237	1496.04
721.424	1571.82
721.611	1528.81
721.798	1504.23
721.985	1461.23
722.172	1491.95
722.358	1549.29
722.545	1577.96
722.732	1534.95
722.919	1502.19
723.106	1592.3
723.293	1487.85
723.48	1514.47
723.667	1473.51
723.853	1403.88
724.04	1487.85
724.227	1483.75
724.414	1414.12
724.6	1442.79
724.787	1422.31
724.974	1471.47
725.161	1397.74
725.347	1373.16
725.534	1358.83
725.72	1543.14
725.907	1483.75
726.094	1489.9
726.28	1412.07
726.467	1297.39
726.653	1403.88
726.84	1397.74
727.027	1434.6
727.213	1432.55
727.4	1453.03
727.586	1268.72
727.773	1362.92
727.959	1338.35
728.145	1364.97
728.332	1356.78
728.518	1301.48
728.705	1283.05
728.891	1346.54
729.077	1305.58
729.264	1289.2
729.45	1303.53
729.636	1242.09
729.823	1362.92
730.009	1344.49
730.195	1285.1
730.382	1430.51
730.568	1297.39
730.754	1303.53
730.94	1231.85
731.126	1217.52
731.313	1221.61
731.499	1174.51
731.685	1252.33
731.871	1385.45
732.057	1203.18
732.243	1324.01
732.429	1250.28
732.615	1330.16
732.801	1223.66
732.987	1190.89
733.173	1244.14
733.359	1303.53
733.545	1246.19
733.731	1190.89
733.917	1151.98
734.103	1252.33
734.289	1272.81
734.475	1207.28
734.661	1274.86
734.847	1147.89
735.033	1176.56
735.219	1108.98
735.404	1184.75
735.59	1168.37
735.776	1133.55
735.962	1147.89
736.148	1158.13
736.333	1244.14
736.519	1162.22
736.705	1102.83
736.89	1059.82
737.076	1117.17
737.262	1125.36
737.447	1125.36
737.633	1055.73
737.819	1113.07
738.004	1117.17
738.19	1076.21
738.375	1125.36
738.561	1053.68
738.747	1133.55
738.932	1082.35
739.118	1092.59
739.303	1053.68
739.489	1061.87
739.674	1051.63
739.859	1031.15
740.045	990.19
740.23	1049.58
740.416	1031.15
740.601	1006.58
740.786	994.29
740.972	1094.64
741.157	930.8
741.342	1035.25
741.528	1022.96
741.713	1100.78
741.898	1047.54
742.084	963.57
742.269	988.14
742.454	1080.3
742.639	1092.59
742.824	996.34
743.01	1010.67
743.195	1053.68
743.38	900.08
743.565	932.85
743.75	904.18
743.935	910.32
744.12	959.47
744.305	895.99
744.49	955.38
744.675	889.84
744.86	994.29
745.045	885.75
745.23	908.27
745.415	945.14
745.6	1022.96
745.785	1022.96
745.97	914.42
746.155	900.08
746.34	920.56
746.525	795.64
746.71	871.41
746.895	900.08
747.079	852.98
747.264	883.7
747.449	840.69
747.634	873.46
747.819	879.6
748.003	820.21
748.188	789.49
748.373	889.84
748.557	846.84
748.742	789.49
748.927	807.92
749.111	848.88
749.296	766.96
749.481	822.26
749.665	805.88
749.85	781.3
750.034	824.31
750.219	832.5
750.404	734.2
750.588	783.35
750.773	754.68
750.957	752.63
751.141	744.44
751.326	742.39
751.51	715.77
751.695	693.24
751.879	781.3
752.064	728.05
752.248	742.39
752.432	748.53
752.617	723.96
752.801	766.96
752.985	670.71
753.17	732.15
753.354	701.43
753.538	658.42
753.722	680.95
753.907	617.46
754.091	705.53
754.275	699.38
754.459	637.94
754.643	646.13
754.828	648.18
755.012	701.43
755.196	629.75
755.38	687.09
755.564	662.52
755.748	619.51
755.932	629.75
756.116	625.65
756.3	619.51
756.484	707.57
756.668	680.95
756.852	635.89
757.036	707.57
757.22	547.83
757.404	578.55
757.588	637.94
757.772	580.6
757.956	592.89
758.14	594.93
758.323	537.59
758.507	574.46
758.691	609.27
758.875	543.74
759.059	564.22
759.242	588.79
759.426	562.17
759.61	537.59
759.794	549.88
759.977	584.7
760.161	521.21
760.345	535.54
760.528	629.75
760.712	478.2
760.895	543.74
761.079	539.64
761.263	506.87
761.446	547.83
761.63	599.03
761.813	564.22
761.997	467.96
762.18	537.59
762.364	582.65
762.547	508.92
762.731	513.02
762.914	576.5
763.098	545.78
763.281	478.2
763.464	463.86
763.648	543.74
763.831	570.36
764.015	521.21
764.198	474.1
764.381	521.21
764.564	543.74
764.748	410.62
764.931	461.82
765.114	447.48
765.297	543.74
765.481	560.12
765.664	486.39
765.847	474.1
766.03	476.15
766.213	437.24
766.397	472.06
766.58	478.2
766.763	525.3
766.946	443.39
767.129	513.02
767.312	523.26
767.495	459.77
767.678	478.2
767.861	467.96
768.044	513.02
768.227	439.29
768.41	568.31
768.593	433.15
768.776	447.48
768.959	504.82
769.142	502.78
769.324	424.95
769.507	431.1
769.69	470.01
769.873	463.86
770.056	470.01
770.239	494.58
770.421	461.82
770.604	455.67
770.787	472.06
770.97	484.34
771.152	445.43
771.335	439.29
771.518	416.76
771.7	424.95
771.883	420.86
772.066	463.86
772.248	404.47
772.431	381.95
772.613	476.15
772.796	437.24
772.978	453.63
773.161	424.95
773.343	396.28
773.526	381.95
773.708	398.33
773.891	486.39
774.073	381.95
774.256	445.43
774.438	396.28
774.621	361.47
774.803	431.1
774.985	381.95
775.168	390.14
775.35	408.57
775.532	390.14
775.715	392.19
775.897	422.91
776.079	338.94
776.261	490.49
776.444	353.27
776.626	365.56
776.808	353.27
776.99	453.63
777.173	314.36
777.355	396.28
777.537	359.42
777.719	433.15
777.901	340.99
778.083	349.18
778.265	273.4
778.447	300.03
778.629	310.27
778.811	314.36
778.993	328.7
779.175	291.84
779.357	367.61
779.539	388.09
779.721	291.84
779.903	402.43
780.085	326.65
780.267	273.4
780.449	306.17
780.631	343.03
780.812	232.44
780.994	297.98
781.176	340.99
781.358	302.08
781.54	312.32
781.721	322.56
781.903	312.32
782.085	312.32
782.267	330.75
782.448	330.75
782.63	220.16
782.812	316.41
782.993	320.51
783.175	375.8
783.357	224.25
783.538	297.98
783.72	326.65
783.901	338.94
784.083	322.56
784.264	283.64
784.446	302.08
784.627	248.83
784.809	265.21
784.99	287.74
785.172	314.36
785.353	363.51
785.535	228.35
785.716	281.6
785.897	240.64
786.079	283.64
786.26	234.49
786.441	261.12
786.623	254.97
786.804	281.6
786.985	214.01
787.167	275.45
787.348	236.54
787.529	201.72
787.71	250.88
787.891	252.92
788.073	179.2
788.254	177.15
788.435	273.4
788.616	197.63
788.797	209.92
788.978	199.68
789.159	254.97
789.34	250.88
789.522	158.72
789.703	195.58
789.884	250.88
790.065	254.97
790.246	236.54
790.427	295.93
790.607	228.35
790.788	201.72
790.969	232.44
791.15	191.49
791.331	257.02
791.512	175.1
791.693	130.05
791.874	193.53
792.054	273.4
792.235	224.25
792.416	240.64
792.597	232.44
792.778	257.02
792.958	185.34
793.139	144.38
793.32	168.96
793.5	117.76
793.681	199.68
793.862	220.16
794.042	201.72
794.223	130.05
794.404	138.24
794.584	199.68
794.765	195.58
794.945	164.86
795.126	160.77
795.306	181.25
795.487	216.06
795.667	144.38
795.848	134.14
796.028	168.96
796.209	177.15
796.389	179.2
796.57	173.05
796.75	130.05
796.93	191.49
797.111	195.58
797.291	183.29
797.471	128
797.652	130.05
797.832	134.14
798.012	175.1
798.192	119.81
798.373	146.43
798.553	162.81
798.733	105.47
798.913	103.42
799.093	150.53
799.274	158.72
799.454	168.96
799.634	125.95
799.814	125.95
799.994	195.58
800.174	142.33
800.354	128
800.534	132.09
800.714	171.01
800.894	158.72
801.074	93.18
801.254	130.05
801.434	156.67
801.614	107.52
801.794	109.57
801.974	377.85
802.154	125.95
802.334	136.19
802.514	150.53
802.693	146.43
802.873	130.05
803.053	52.22
803.233	171.01
803.413	154.62
803.592	52.22
803.772	60.42
803.952	115.71
804.131	136.19
804.311	162.81
804.491	78.85
804.67	130.05
804.85	138.24
805.03	117.76
805.209	207.87
805.389	119.81
805.568	89.09
805.748	134.14
805.928	179.2
806.107	109.57
806.287	117.76
806.466	136.19
806.646	76.8
806.825	84.99
807.004	168.96
807.184	78.85
807.363	134.14
807.543	121.85
807.722	105.47
807.901	95.23
808.081	74.75
808.26	64.51
808.439	64.51
808.619	109.57
808.798	93.18
808.977	78.85
809.156	119.81
809.336	128
809.515	171.01
809.694	136.19
809.873	23.55
810.052	76.8
810.231	130.05
810.411	130.05
810.59	150.53
810.769	48.13
810.948	130.05
811.127	60.42
811.306	152.57
811.485	113.66
811.664	117.76
811.843	109.57
812.022	60.42
812.201	138.24
812.38	125.95
812.559	144.38
812.737	93.18
812.916	76.8
813.095	87.04
813.274	105.47
813.453	62.46
813.632	68.61
813.811	93.18
813.989	44.03
814.168	123.9
814.347	109.57
814.526	132.09
814.704	132.09
814.883	66.56
815.062	68.61
815.24	56.32
815.419	89.09
815.598	134.14
815.776	19.46
815.955	162.81
816.133	113.66
816.312	101.37
816.49	72.7
816.669	95.23
816.847	68.61
817.026	72.7
817.204	105.47
817.383	117.76
817.561	117.76
817.74	144.38
817.918	68.61
818.097	72.7
818.275	87.04
818.453	115.71
818.632	80.89
818.81	113.66
818.988	76.8
819.167	134.14
819.345	58.37
819.523	99.33
819.701	48.13
819.879	60.42
820.058	62.46
820.236	113.66
820.414	46.08
820.592	101.37
820.77	125.95
820.948	80.89
821.127	15.36
821.305	103.42
821.483	52.22
821.661	95.23
821.839	68.61
822.017	44.03
822.195	72.7
822.373	99.33
822.551	111.61
822.729	23.55
822.907	113.66
823.085	152.57
823.262	29.7
823.44	101.37
823.618	46.08
823.796	136.19
823.974	31.74
824.152	56.32
824.329	113.66
824.507	13.31
824.685	97.28
824.863	89.09
825.04	74.75
825.218	93.18
825.396	93.18
825.574	62.46
825.751	41.98
825.929	41.98
826.107	52.22
826.284	60.42
826.462	17.41
826.639	58.37
826.817	70.65
826.994	68.61
827.172	60.42
827.349	25.6
827.527	103.42
827.704	-27.65
827.882	115.71
828.059	27.65
828.237	78.85
828.414	62.46
828.591	39.94
828.769	52.22
828.946	3.07
829.124	76.8
829.301	99.33
829.478	44.03
829.655	91.13
829.833	37.89
830.01	25.6
830.187	44.03
830.364	125.95
830.542	74.75
830.719	29.7
830.896	66.56
831.073	62.46
831.25	113.66
831.427	136.19
831.604	21.5
831.782	64.51
831.959	21.5
832.136	123.9
832.313	-1.02
832.49	52.22
832.667	64.51
832.844	19.46
833.021	39.94
833.198	25.6
833.374	60.42
833.551	60.42
833.728	84.99
833.905	64.51
834.082	35.84
834.259	125.95
834.436	72.7
834.612	111.61
834.789	68.61
834.966	56.32
835.143	31.74
835.319	46.08
835.496	13.31
835.673	109.57
835.85	72.7
836.026	21.5
836.203	44.03
836.38	41.98
836.556	101.37
836.733	35.84
836.909	3.07
837.086	62.46
837.262	95.23
837.439	37.89
837.616	62.46
837.792	-41.98
837.968	19.46
838.145	1.02
838.321	7.17
838.498	82.94
838.674	62.46
838.851	76.8
839.027	68.61
839.203	56.32
839.38	68.61
839.556	21.5
839.732	64.51
839.909	52.22
840.085	23.55
840.261	60.42
840.437	132.09
840.614	70.65
840.79	56.32
840.966	72.7
841.142	134.14
841.318	62.46
841.494	76.8
841.671	50.18
841.847	76.8
842.023	54.27
842.199	136.19
842.375	109.57
842.551	78.85
842.727	60.42
842.903	46.08
843.079	105.47
843.255	11.26
843.431	-3.07
843.607	111.61
843.783	33.79
843.959	80.89
844.134	-11.26
844.31	62.46
844.486	66.56
844.662	44.03
844.838	-9.22
845.013	-13.31
845.189	39.94
845.365	97.28
845.541	48.13
845.716	27.65
845.892	70.65
846.068	-13.31
846.244	-7.17
846.419	50.18
846.595	5.12
846.77	66.56
846.946	82.94
847.122	56.32
847.297	-41.98
847.473	70.65
847.648	17.41
847.824	31.74
847.999	-68.61
848.175	3.07
848.35	31.74
848.526	37.89
848.701	11.26
848.876	21.5
849.052	7.17
849.227	93.18
849.403	-27.65
849.578	5.12
849.753	107.52
849.929	11.26
850.104	-72.7
850.279	60.42
850.454	-5.12
850.63	46.08
850.805	3.07
850.98	44.03
851.155	70.65
851.33	23.55
851.505	64.51
851.681	29.7
851.856	19.46
852.031	70.65
852.206	7.17
852.381	3.07
852.556	46.08
852.731	35.84
852.906	87.04
853.081	25.6
853.256	52.22
853.431	84.99
853.606	-27.65
853.781	52.22
853.956	-5.12
854.131	60.42
854.305	7.17
854.48	-11.26
854.655	56.32
854.83	25.6
855.005	25.6
855.18	25.6
855.354	-19.46
855.529	21.5
855.704	3.07
855.879	21.5
856.053	27.65
856.228	35.84
856.403	7.17
856.577	27.65
856.752	-27.65
856.926	27.65
857.101	35.84
857.276	-23.55
857.45	-33.79
857.625	9.22
857.799	78.85
857.974	62.46
858.148	62.46
858.323	37.89
858.497	-3.07
858.672	115.71
858.846	70.65
859.02	5.12
859.195	62.46
859.369	7.17
859.543	-56.32
859.718	-21.5
859.892	27.65
860.066	3.07
860.241	60.42
860.415	19.46
860.589	-35.84
860.763	39.94
860.938	76.8
861.112	48.13
861.286	46.08
861.46	15.36
861.634	64.51
861.808	46.08
861.982	-50.18
862.157	68.61
862.331	-13.31
862.505	-23.55
862.679	13.31
862.853	35.84
863.027	48.13
863.201	52.22
863.375	17.41
863.549	35.84
863.722	23.55
863.896	48.13
864.07	-9.22
864.244	-29.7
864.418	58.37
864.592	56.32
864.766	-7.17
864.939	50.18
865.113	41.98
865.287	-41.98
865.461	17.41
865.634	48.13
865.808	11.26
865.982	21.5
866.156	-15.36
866.329	27.65
866.503	50.18
866.676	-21.5
866.85	44.03
867.024	17.41
867.197	21.5
867.371	64.51
867.544	-46.08
867.718	23.55
867.891	84.99
868.065	5.12
868.238	25.6
868.412	121.85
868.585	13.31
868.759	109.57
868.932	-9.22
869.105	-7.17
869.279	-7.17
869.452	-5.12
869.625	13.31
869.799	23.55
869.972	1.02
870.145	84.99
870.319	70.65
870.492	44.03
870.665	60.42
870.838	62.46
871.011	-5.12
871.185	-15.36
871.358	-37.89
871.531	3.07
871.704	7.17
871.877	-17.41
872.05	21.5
872.223	7.17
872.396	13.31
872.569	-9.22
872.742	-13.31
872.915	56.32
873.088	19.46
873.261	54.27
873.434	-31.74
873.607	33.79
873.78	-11.26
873.953	-1.02
874.126	13.31
874.299	48.13
874.471	64.51
874.644	25.6
874.817	66.56
874.99	37.89
875.163	60.42
875.335	103.42
875.508	5.12
875.681	62.46
875.853	-19.46
876.026	54.27
876.199	56.32
876.371	97.28
876.544	-5.12
876.717	52.22
876.889	13.31
877.062	-25.6
877.234	-111.61
877.407	1.02
877.579	9.22
877.752	41.98
877.924	54.27
878.097	-23.55
878.269	31.74
878.442	13.31
878.614	15.36
878.786	35.84
878.959	103.42
879.131	17.41
879.303	29.7
879.476	80.89
879.648	27.65
879.82	-46.08
879.993	33.79
880.165	-17.41
880.337	41.98
880.509	-1.02
880.681	48.13
880.854	68.61
881.026	33.79
881.198	62.46
881.37	29.7
881.542	-7.17
881.714	41.98
881.886	33.79
882.058	-17.41
882.23	17.41
882.402	3.07
882.574	62.46
882.746	13.31
882.918	60.42
883.09	11.26
883.262	23.55
883.434	-27.65
883.606	-5.12
883.778	41.98
883.95	80.89
884.122	7.17
884.293	76.8
884.465	-31.74
884.637	62.46
884.809	-44.03
884.98	48.13
885.152	13.31
885.324	35.84
885.496	31.74
885.667	-9.22
885.839	-29.7
886.011	-3.07
886.182	41.98
886.354	11.26
886.525	31.74
886.697	44.03
886.869	35.84
887.04	-58.37
887.212	37.89
887.383	31.74
887.555	3.07
887.726	-1.02
887.897	21.5
888.069	89.09
888.24	21.5
888.412	21.5
888.583	68.61
888.754	39.94
888.926	-27.65
889.097	-25.6
889.268	-13.31
889.44	19.46
889.611	-60.42
889.782	-39.94
889.953	-9.22
890.125	9.22
890.296	-23.55
890.467	76.8
890.638	-64.51
890.809	1.02
890.98	5.12
891.151	31.74
891.323	74.75
891.494	66.56
891.665	33.79
891.836	5.12
892.007	-37.89
892.178	84.99
892.349	27.65
892.52	35.84
892.691	35.84
892.862	52.22
893.032	-13.31
893.203	-15.36
893.374	-13.31
893.545	-52.22
893.716	-44.03
893.887	-1.02
894.057	25.6
894.228	11.26
894.399	60.42
894.57	7.17
894.74	-25.6
894.911	-1.02
895.082	146.43
895.253	23.55
895.423	78.85
895.594	-9.22
895.764	27.65
895.935	17.41
896.106	-66.56
896.276	17.41
896.447	-41.98
896.617	7.17
896.788	50.18
896.958	15.36
897.129	5.12
897.299	27.65
897.47	-60.42
897.64	27.65
897.81	-60.42
897.981	60.42
898.151	-13.31
898.322	41.98
898.492	37.89
898.662	3.07
898.832	-23.55
899.003	17.41
899.173	17.41
899.343	29.7
899.513	37.89
