Data from USB4F104151__58__13-53-35-936.txt Node

Date: Thu Mar 13 13:53:35 EDT 2025
User: louis
Spectrometer: USB4F10415
Trigger mode: 4
Integration Time (sec): 1.000000E-2
Scans to average: 1
Electric dark correction enabled: true
Nonlinearity correction enabled: false
Boxcar width: 0
XAxis mode: Wavelengths
Number of Pixels in Spectrum: 3648
>>>>>Begin Spectral Data<<<<<
178.204	-57.68
178.424	-57.68
178.644	-57.68
178.864	-49.49
179.084	-8.53
179.304	-20.82
179.524	-4.44
179.744	3.75
179.964	1.71
180.184	18.09
180.404	-6.49
180.624	32.43
180.844	-0.34
181.064	11.95
181.283	-0.34
181.503	22.19
181.723	-57.68
181.943	42.67
182.163	59.05
182.383	9.9
182.602	-35.16
182.822	28.33
183.042	11.95
183.262	-43.35
183.482	3.75
183.701	-26.96
183.921	-8.53
184.141	11.95
184.361	13.99
184.58	106.15
184.8	1.71
185.02	20.14
185.239	38.57
185.459	20.14
185.679	20.14
185.898	42.67
186.118	46.76
186.338	-51.54
186.557	-6.49
186.777	1.71
186.997	42.67
187.216	-8.53
187.436	24.23
187.655	-112.98
187.875	24.23
188.095	1.71
188.314	-29.01
188.534	-12.63
188.753	-39.25
188.973	20.14
189.192	30.38
189.412	46.76
189.631	-61.78
189.851	52.91
190.07	44.71
190.29	-33.11
190.509	36.52
190.729	20.14
190.948	32.43
191.168	48.81
191.387	24.23
191.607	63.15
191.826	-4.44
192.045	-22.87
192.265	20.14
192.484	-18.77
192.704	9.9
192.923	7.85
193.142	32.43
193.362	-14.68
193.581	40.62
193.8	1.71
194.02	-20.82
194.239	11.95
194.458	40.62
194.678	-31.06
194.897	-4.44
195.116	30.38
195.335	-78.16
195.555	1.71
195.774	44.71
195.993	-45.4
196.212	26.28
196.432	-51.54
196.651	-12.63
196.87	48.81
197.089	116.39
197.308	57
197.528	18.09
197.747	22.19
197.966	59.05
198.185	-20.82
198.404	-12.63
198.623	-4.44
198.842	-29.01
199.062	30.38
199.281	-10.58
199.5	7.85
199.719	38.57
199.938	22.19
200.157	44.71
200.376	44.71
200.595	26.28
200.814	-6.49
201.033	-0.34
201.252	26.28
201.471	-35.16
201.69	48.81
201.909	-16.73
202.128	102.06
202.347	7.85
202.566	-18.77
202.785	-33.11
203.004	22.19
203.223	126.63
203.442	42.67
203.661	-10.58
203.879	-26.96
204.098	-43.35
204.317	-37.2
204.536	24.23
204.755	-37.2
204.974	1.71
205.193	11.95
205.411	26.28
205.63	40.62
205.849	-29.01
206.068	-18.77
206.287	1.71
206.505	-6.49
206.724	9.9
206.943	13.99
207.162	46.76
207.381	-4.44
207.599	18.09
207.818	48.81
208.037	5.8
208.255	50.86
208.474	69.29
208.693	11.95
208.911	-26.96
209.13	-10.58
209.349	-4.44
209.567	73.39
209.786	-45.4
210.005	3.75
210.223	-18.77
210.442	-61.78
210.661	16.04
210.879	44.71
211.098	26.28
211.316	-12.63
211.535	-18.77
211.753	9.9
211.972	71.34
212.191	22.19
212.409	-6.49
212.628	42.67
212.846	-20.82
213.065	1.71
213.283	18.09
213.502	-26.96
213.72	7.85
213.938	50.86
214.157	46.76
214.375	89.77
214.594	54.95
214.812	-18.77
215.031	-18.77
215.249	36.52
215.467	26.28
215.686	-29.01
215.904	-20.82
216.122	48.81
216.341	13.99
216.559	-8.53
216.778	20.14
216.996	-12.63
217.214	48.81
217.432	5.8
217.651	-20.82
217.869	-10.58
218.087	-24.92
218.306	11.95
218.524	-14.68
218.742	-59.73
218.96	71.34
219.179	-2.39
219.397	-10.58
219.615	-0.34
219.833	85.67
220.051	20.14
220.27	3.75
220.488	3.75
220.706	42.67
220.924	36.52
221.142	73.39
221.36	-26.96
221.578	7.85
221.796	24.23
222.015	57
222.233	-24.92
222.451	118.44
222.669	-35.16
222.887	22.19
223.105	36.52
223.323	-12.63
223.541	13.99
223.759	-31.06
223.977	20.14
224.195	61.1
224.413	54.95
224.631	26.28
224.849	40.62
225.067	81.58
225.285	-35.16
225.503	-6.49
225.721	18.09
225.939	22.19
226.157	-2.39
226.375	-33.11
226.592	-29.01
226.81	-2.39
227.028	-45.4
227.246	9.9
227.464	5.8
227.682	52.91
227.9	1.71
228.117	13.99
228.335	48.81
228.553	13.99
228.771	1.71
228.989	87.72
229.206	-22.87
229.424	97.96
229.642	9.9
229.86	67.24
230.077	28.33
230.295	67.24
230.513	3.75
230.731	-51.54
230.948	30.38
231.166	-37.2
231.384	52.91
231.601	28.33
231.819	52.91
232.037	40.62
232.254	18.09
232.472	-18.77
232.689	-2.39
232.907	48.81
233.125	40.62
233.342	7.85
233.56	-20.82
233.777	32.43
233.995	-2.39
234.213	22.19
234.43	63.15
234.648	28.33
234.865	46.76
235.083	52.91
235.3	-2.39
235.518	20.14
235.735	-4.44
235.953	63.15
236.17	32.43
236.388	54.95
236.605	91.82
236.822	30.38
237.04	40.62
237.257	30.38
237.475	-22.87
237.692	50.86
237.909	3.75
238.127	-100.69
238.344	5.8
238.562	22.19
238.779	16.04
238.996	38.57
239.214	18.09
239.431	18.09
239.648	11.95
239.865	-16.73
240.083	1.71
240.3	5.8
240.517	-26.96
240.735	36.52
240.952	42.67
241.169	52.91
241.386	-26.96
241.603	-49.49
241.821	34.47
242.038	3.75
242.255	3.75
242.472	3.75
242.689	75.43
242.907	-8.53
243.124	28.33
243.341	-26.96
243.558	13.99
243.775	48.81
243.992	22.19
244.209	22.19
244.426	-20.82
244.643	67.24
244.86	30.38
245.078	42.67
245.295	16.04
245.512	40.62
245.729	30.38
245.946	71.34
246.163	26.28
246.38	16.04
246.597	44.71
246.814	30.38
247.031	9.9
247.248	65.19
247.464	11.95
247.681	-10.58
247.898	73.39
248.115	-39.25
248.332	32.43
248.549	26.28
248.766	-4.44
248.983	26.28
249.2	-41.3
249.417	18.09
249.633	7.85
249.85	61.1
250.067	24.23
250.284	46.76
250.501	-4.44
250.717	7.85
250.934	-39.25
251.151	-10.58
251.368	18.09
251.585	54.95
251.801	32.43
252.018	-6.49
252.235	46.76
252.451	13.99
252.668	-6.49
252.885	11.95
253.102	102.06
253.318	36.52
253.535	20.14
253.752	32.43
253.968	-16.73
254.185	-4.44
254.401	50.86
254.618	-6.49
254.835	-26.96
255.051	97.96
255.268	-90.45
255.484	44.71
255.701	20.14
255.917	13.99
256.134	-33.11
256.351	79.53
256.567	5.8
256.784	73.39
257	7.85
257.217	-57.68
257.433	26.28
257.65	11.95
257.866	93.87
258.082	-10.58
258.299	38.57
258.515	3.75
258.732	-18.77
258.948	22.19
259.165	-49.49
259.381	-22.87
259.597	24.23
259.814	13.99
260.03	-0.34
260.246	16.04
260.463	-45.4
260.679	-16.73
260.895	42.67
261.112	34.47
261.328	9.9
261.544	50.86
261.761	24.23
261.977	44.71
262.193	26.28
262.409	65.19
262.626	-4.44
262.842	32.43
263.058	-18.77
263.274	57
263.49	34.47
263.707	13.99
263.923	38.57
264.139	42.67
264.355	-29.01
264.571	-37.2
264.787	54.95
265.004	28.33
265.22	42.67
265.436	-33.11
265.652	-37.2
265.868	30.38
266.084	89.77
266.3	-2.39
266.516	1.71
266.732	30.38
266.948	69.29
267.164	-12.63
267.38	36.52
267.596	20.14
267.812	11.95
268.028	38.57
268.244	16.04
268.46	-18.77
268.676	40.62
268.892	-31.06
269.108	-33.11
269.324	7.85
269.54	67.24
269.756	106.15
269.972	36.52
270.188	71.34
270.403	-22.87
270.619	-10.58
270.835	28.33
271.051	34.47
271.267	34.47
271.483	50.86
271.698	54.95
271.914	40.62
272.13	-0.34
272.346	44.71
272.562	16.04
272.777	48.81
272.993	-33.11
273.209	73.39
273.425	16.04
273.64	-22.87
273.856	-31.06
274.072	-2.39
274.287	20.14
274.503	85.67
274.719	54.95
274.934	54.95
275.15	36.52
275.366	18.09
275.581	18.09
275.797	57
276.012	-2.39
276.228	13.99
276.444	54.95
276.659	46.76
276.875	-4.44
277.09	26.28
277.306	-24.92
277.521	1.71
277.737	11.95
277.952	5.8
278.168	-0.34
278.383	-2.39
278.599	28.33
278.814	24.23
279.03	-20.82
279.245	9.9
279.461	-2.39
279.676	97.96
279.892	-14.68
280.107	-61.78
280.322	57
280.538	-14.68
280.753	-8.53
280.969	89.77
281.184	34.47
281.399	22.19
281.615	26.28
281.83	-20.82
282.045	11.95
282.26	3.75
282.476	-26.96
282.691	-2.39
282.906	16.04
283.122	73.39
283.337	-0.34
283.552	-16.73
283.767	83.63
283.983	5.8
284.198	-10.58
284.413	20.14
284.628	-29.01
284.843	1.71
285.058	36.52
285.274	-65.88
285.489	-22.87
285.704	65.19
285.919	-0.34
286.134	59.05
286.349	48.81
286.564	13.99
286.779	3.75
286.995	18.09
287.21	1.71
287.425	59.05
287.64	-0.34
287.855	63.15
288.07	7.85
288.285	-67.92
288.5	44.71
288.715	13.99
288.93	-49.49
289.145	16.04
289.36	-43.35
289.575	16.04
289.79	-4.44
290.004	11.95
290.219	44.71
290.434	1.71
290.649	61.1
290.864	30.38
291.079	81.58
291.294	13.99
291.509	48.81
291.724	13.99
291.938	-4.44
292.153	-0.34
292.368	16.04
292.583	-26.96
292.798	89.77
293.012	61.1
293.227	-35.16
293.442	40.62
293.657	67.24
293.871	44.71
294.086	-16.73
294.301	-14.68
294.516	13.99
294.73	-2.39
294.945	22.19
295.16	-20.82
295.374	-26.96
295.589	65.19
295.804	52.91
296.018	52.91
296.233	-22.87
296.447	63.15
296.662	22.19
296.877	34.47
297.091	24.23
297.306	3.75
297.52	40.62
297.735	-18.77
297.949	26.28
298.164	-4.44
298.378	36.52
298.593	3.75
298.807	75.43
299.022	34.47
299.236	9.9
299.451	1.71
299.665	-8.53
299.88	50.86
300.094	26.28
300.309	-0.34
300.523	7.85
300.737	34.47
300.952	61.1
301.166	-2.39
301.381	-12.63
301.595	52.91
301.809	-20.82
302.024	28.33
302.238	28.33
302.452	20.14
302.667	-47.44
302.881	-6.49
303.095	48.81
303.309	34.47
303.524	-0.34
303.738	-12.63
303.952	83.63
304.166	9.9
304.381	-18.77
304.595	44.71
304.809	24.23
305.023	-8.53
305.237	1.71
305.452	61.1
305.666	40.62
305.88	44.71
306.094	71.34
306.308	-12.63
306.522	20.14
306.736	-53.59
306.95	3.75
307.164	42.67
307.379	18.09
307.593	-16.73
307.807	22.19
308.021	42.67
308.235	16.04
308.449	-20.82
308.663	-61.78
308.877	44.71
309.091	75.43
309.305	-14.68
309.519	13.99
309.733	136.87
309.947	34.47
310.161	75.43
310.374	59.05
310.588	67.24
310.802	30.38
311.016	30.38
311.23	69.29
311.444	-31.06
311.658	91.82
311.872	13.99
312.085	-82.26
312.299	28.33
312.513	5.8
312.727	61.1
312.941	-10.58
313.154	-18.77
313.368	-26.96
313.582	-55.64
313.796	26.28
314.009	112.3
314.223	-10.58
314.437	65.19
314.651	-2.39
314.864	7.85
315.078	-31.06
315.292	26.28
315.505	44.71
315.719	-12.63
315.933	34.47
316.146	-24.92
316.36	-16.73
316.573	-18.77
316.787	30.38
317.001	89.77
317.214	5.8
317.428	22.19
317.641	-6.49
317.855	-63.83
318.068	-4.44
318.282	67.24
318.495	-53.59
318.709	69.29
318.922	-55.64
319.136	26.28
319.349	50.86
319.563	-0.34
319.776	-24.92
319.99	30.38
320.203	16.04
320.417	46.76
320.63	52.91
320.843	16.04
321.057	-16.73
321.27	69.29
321.483	-10.58
321.697	63.15
321.91	20.14
322.124	89.77
322.337	57
322.55	-0.34
322.763	28.33
322.977	3.75
323.19	52.91
323.403	-14.68
323.617	30.38
323.83	54.95
324.043	42.67
324.256	-37.2
324.469	38.57
324.683	-29.01
324.896	-59.73
325.109	50.86
325.322	-2.39
325.535	85.67
325.748	-10.58
325.962	54.95
326.175	73.39
326.388	7.85
326.601	34.47
326.814	-33.11
327.027	28.33
327.24	13.99
327.453	22.19
327.666	1.71
327.879	69.29
328.092	40.62
328.305	9.9
328.518	-18.77
328.731	93.87
328.944	-8.53
329.157	28.33
329.37	7.85
329.583	44.71
329.796	89.77
330.009	-22.87
330.222	22.19
330.435	30.38
330.648	-12.63
330.861	79.53
331.073	-4.44
331.286	5.8
331.499	75.43
331.712	97.96
331.925	-10.58
332.138	50.86
332.35	46.76
332.563	28.33
332.776	34.47
332.989	46.76
333.202	22.19
333.414	-2.39
333.627	13.99
333.84	65.19
334.053	18.09
334.265	-43.35
334.478	30.38
334.691	-22.87
334.903	-16.73
335.116	-6.49
335.329	-0.34
335.541	-65.88
335.754	57
335.966	85.67
336.179	63.15
336.392	-47.44
336.604	28.33
336.817	-22.87
337.029	7.85
337.242	-10.58
337.454	65.19
337.667	22.19
337.88	54.95
338.092	95.91
338.305	-8.53
338.517	-16.73
338.729	91.82
338.942	52.91
339.154	-8.53
339.367	-6.49
339.579	-37.2
339.792	40.62
340.004	65.19
340.217	9.9
340.429	36.52
340.641	24.23
340.854	-35.16
341.066	-18.77
341.278	85.67
341.491	18.09
341.703	28.33
341.915	3.75
342.128	24.23
342.34	5.8
342.552	34.47
342.764	28.33
342.977	-41.3
343.189	18.09
343.401	40.62
343.613	36.52
343.826	-8.53
344.038	-8.53
344.25	118.44
344.462	-2.39
344.674	-33.11
344.886	-2.39
345.099	18.09
345.311	13.99
345.523	38.57
345.735	20.14
345.947	18.09
346.159	-14.68
346.371	11.95
346.583	42.67
346.795	52.91
347.007	24.23
347.219	7.85
347.431	-6.49
347.643	59.05
347.855	-8.53
348.067	5.8
348.279	65.19
348.491	-24.92
348.703	-37.2
348.915	24.23
349.127	-18.77
349.339	50.86
349.551	11.95
349.763	22.19
349.975	18.09
350.187	36.52
350.399	-8.53
350.61	61.1
350.822	-14.68
351.034	48.81
351.246	44.71
351.458	3.75
351.669	65.19
351.881	97.96
352.093	48.81
352.305	42.67
352.517	73.39
352.728	59.05
352.94	40.62
353.152	28.33
353.363	46.76
353.575	-0.34
353.787	1.71
353.999	16.04
354.21	44.71
354.422	9.9
354.633	-8.53
354.845	20.14
355.057	100.01
355.268	59.05
355.48	85.67
355.692	65.19
355.903	7.85
356.115	69.29
356.326	36.52
356.538	106.15
356.749	-8.53
356.961	24.23
357.172	106.15
357.384	20.14
357.595	61.1
357.807	81.58
358.018	-12.63
358.23	87.72
358.441	30.38
358.653	16.04
358.864	73.39
359.075	36.52
359.287	-35.16
359.498	73.39
359.709	42.67
359.921	-37.2
360.132	77.48
360.344	-14.68
360.555	24.23
360.766	-31.06
360.977	128.68
361.189	57
361.4	-35.16
361.611	83.63
361.823	-2.39
362.034	-0.34
362.245	38.57
362.456	36.52
362.667	18.09
362.879	40.62
363.09	38.57
363.301	-24.92
363.512	7.85
363.723	44.71
363.935	36.52
364.146	87.72
364.357	61.1
364.568	54.95
364.779	67.24
364.99	-24.92
365.201	65.19
365.412	24.23
365.623	18.09
365.834	54.95
366.045	65.19
366.256	-12.63
366.467	-0.34
366.678	89.77
366.889	83.63
367.1	38.57
367.311	38.57
367.522	59.05
367.733	54.95
367.944	20.14
368.155	63.15
368.366	59.05
368.577	18.09
368.788	-4.44
368.999	1.71
369.209	26.28
369.42	9.9
369.631	77.48
369.842	34.47
370.053	-31.06
370.264	18.09
370.474	38.57
370.685	11.95
370.896	97.96
371.107	73.39
371.317	54.95
371.528	87.72
371.739	50.86
371.95	-45.4
372.16	26.28
372.371	-8.53
372.582	-2.39
372.792	-0.34
373.003	102.06
373.214	48.81
373.424	40.62
373.635	7.85
373.846	34.47
374.056	22.19
374.267	87.72
374.477	36.52
374.688	-8.53
374.898	9.9
375.109	-0.34
375.319	44.71
375.53	46.76
375.74	48.81
375.951	-4.44
376.161	32.43
376.372	26.28
376.582	22.19
376.793	-18.77
377.003	16.04
377.214	50.86
377.424	36.52
377.635	69.29
377.845	7.85
378.055	57
378.266	-31.06
378.476	24.23
378.686	57
378.897	7.85
379.107	-4.44
379.317	69.29
379.528	26.28
379.738	46.76
379.948	24.23
380.158	36.52
380.369	48.81
380.579	-41.3
380.789	-16.73
380.999	57
381.21	-4.44
381.42	26.28
381.63	38.57
381.84	67.24
382.05	52.91
382.261	57
382.471	7.85
382.681	-57.68
382.891	77.48
383.101	63.15
383.311	50.86
383.521	57
383.731	5.8
383.941	67.24
384.151	36.52
384.361	34.47
384.571	42.67
384.781	52.91
384.991	18.09
385.201	-18.77
385.411	65.19
385.621	44.71
385.831	24.23
386.041	116.39
386.251	69.29
386.461	52.91
386.671	44.71
386.881	65.19
387.091	13.99
387.301	81.58
387.511	-4.44
387.72	28.33
387.93	-67.92
388.14	38.57
388.35	26.28
388.56	42.67
388.769	83.63
388.979	50.86
389.189	5.8
389.399	65.19
389.609	-47.44
389.818	65.19
390.028	79.53
390.238	128.68
390.447	-57.68
390.657	38.57
390.867	34.47
391.076	26.28
391.286	44.71
391.496	26.28
391.705	11.95
391.915	24.23
392.125	34.47
392.334	1.71
392.544	63.15
392.753	59.05
392.963	61.1
393.172	36.52
393.382	42.67
393.591	63.15
393.801	93.87
394.01	50.86
394.22	50.86
394.429	75.43
394.639	122.54
394.848	38.57
395.058	81.58
395.267	46.76
395.477	87.72
395.686	65.19
395.895	24.23
396.105	67.24
396.314	50.86
396.524	44.71
396.733	54.95
396.942	71.34
397.152	65.19
397.361	42.67
397.57	100.01
397.78	20.14
397.989	28.33
398.198	85.67
398.407	11.95
398.617	73.39
398.826	40.62
399.035	34.47
399.244	95.91
399.453	67.24
399.663	147.11
399.872	65.19
400.081	71.34
400.29	128.68
400.499	46.76
400.708	100.01
400.917	50.86
401.127	108.2
401.336	40.62
401.545	132.78
401.754	75.43
401.963	120.49
402.172	26.28
402.381	106.15
402.59	50.86
402.799	79.53
403.008	61.1
403.217	83.63
403.426	173.74
403.635	161.45
403.844	67.24
404.053	140.97
404.262	36.52
404.471	46.76
404.68	116.39
404.888	110.25
405.097	138.92
405.306	63.15
405.515	110.25
405.724	116.39
405.933	126.63
406.142	85.67
406.35	149.16
406.559	130.73
406.768	83.63
406.977	138.92
407.185	153.26
407.394	145.06
407.603	91.82
407.812	132.78
408.02	110.25
408.229	204.46
408.438	188.07
408.646	179.88
408.855	163.5
409.064	169.64
409.272	179.88
409.481	233.13
409.69	175.78
409.898	186.02
410.107	143.02
410.315	245.41
410.524	224.94
410.733	214.7
410.941	272.04
411.15	310.95
411.358	188.07
411.567	282.28
411.775	302.76
411.984	249.51
412.192	224.94
412.401	286.37
412.609	308.9
412.818	276.13
413.026	327.33
413.234	372.39
413.443	313
413.651	415.4
413.86	339.62
414.068	380.58
414.276	356.01
414.485	435.88
414.693	378.53
414.901	454.31
415.11	390.82
415.318	433.83
415.526	427.68
415.734	507.55
415.943	546.47
416.151	534.18
416.359	515.75
416.567	566.95
416.776	607.91
416.984	607.91
417.192	652.96
417.4	712.35
417.608	755.36
417.817	597.67
418.025	716.45
418.233	822.94
418.441	755.36
418.649	773.79
418.857	820.89
419.065	827.04
419.273	882.33
419.481	861.85
419.689	1035.93
419.897	949.92
420.105	1070.75
420.313	1003.16
420.521	1019.55
420.729	1105.56
420.937	1109.66
421.145	1156.76
421.353	1216.15
421.561	1291.93
421.769	1375.89
421.977	1363.61
422.185	1302.17
422.393	1492.63
422.601	1375.89
422.809	1394.33
423.017	1484.44
423.224	1590.93
423.432	1719.95
423.64	1597.07
423.848	1812.11
424.056	1762.96
424.263	1814.16
424.471	1967.76
424.679	1971.85
424.887	2012.81
425.094	2098.83
425.302	2035.34
425.51	2188.94
425.718	2369.16
425.925	2225.8
426.133	2326.15
426.341	2512.52
426.548	2635.39
426.756	2557.57
426.964	2553.48
427.171	2735.74
427.379	2918.01
427.586	2952.83
427.794	2967.17
428.001	3028.6
428.209	3239.55
428.417	3210.87
428.624	3456.63
428.832	3436.15
429.039	3446.39
429.247	3511.93
429.454	3649.14
429.662	4087.4
429.869	3604.08
430.076	3915.37
430.284	3907.18
430.491	3931.76
430.699	4306.54
430.906	4167.28
431.114	4208.23
431.321	4474.47
431.528	4640.36
431.736	4767.33
431.943	5129.82
432.15	4978.27
432.358	4861.54
432.565	5250.65
432.772	5346.91
432.979	5430.87
433.187	5647.96
433.394	5795.41
433.601	6018.64
433.808	5979.73
434.016	5983.82
434.223	6284.87
434.43	6528.58
434.637	6510.15
434.844	6921.79
435.052	6958.66
435.259	6899.27
435.466	7046.72
435.673	6995.52
435.88	7505.46
436.087	7814.71
436.294	7794.23
436.501	7593.53
436.708	7822.9
436.915	8091.18
437.122	8678.95
437.329	8332.84
437.537	8711.72
437.743	8881.7
437.95	8730.15
438.157	9192.99
438.364	9506.33
438.571	9467.42
438.778	9334.3
438.985	10251.79
439.192	10008.08
439.399	10364.43
439.606	9938.45
439.813	10651.14
440.02	11476.48
440.227	11048.45
440.433	10968.58
440.64	11355.65
440.847	11408.89
441.054	11644.41
441.261	12250.61
441.467	12238.32
441.674	12484.08
441.881	12778.98
442.088	12697.06
442.294	13018.6
442.501	13207.01
442.708	13327.84
442.914	13698.52
443.121	14611.92
443.328	14095.83
443.534	15007.17
443.741	14597.58
443.948	14597.58
444.154	15355.33
444.361	15484.35
444.568	15779.26
444.774	15517.12
444.981	15709.63
445.187	16188.85
445.394	17014.18
445.6	16569.77
445.807	18480.53
446.013	17327.52
446.22	17896.86
446.426	18341.27
446.633	18558.35
446.839	19078.54
447.046	18318.74
447.252	19533.18
447.459	19791.23
447.665	19559.81
447.871	20252.02
448.078	20960.62
448.284	20282.74
448.491	20575.6
448.697	21378.4
448.903	21822.81
449.11	21841.25
449.316	21294.44
449.522	22017.37
449.728	22367.57
449.935	22525.27
450.141	22426.96
450.347	23207.24
450.553	22216.02
450.76	22840.65
450.966	23516.48
451.172	23100.75
451.378	23551.3
451.584	23131.47
451.791	23799.1
451.997	23520.58
452.203	24126.78
452.409	23811.39
452.615	23919.93
452.821	23008.59
453.027	22787.41
453.233	23676.23
453.44	23113.03
453.646	23256.39
453.852	23293.26
454.058	23561.54
454.264	23020.88
454.47	23541.06
454.676	22826.32
454.882	23639.36
455.088	21405.03
455.294	21859.68
455.5	22074.71
455.705	22465.88
455.911	21388.64
456.117	21163.37
456.323	20620.66
456.529	19742.08
456.735	20628.85
456.941	20018.55
457.147	19682.69
457.352	19189.13
457.558	18883.98
457.764	19086.73
457.97	18650.51
458.176	17794.46
458.381	18187.67
458.587	17196.45
458.793	17210.79
458.999	16119.22
459.204	17327.52
459.41	16905.64
459.616	15717.82
459.821	15736.25
460.027	15758.78
460.233	15461.82
460.438	14720.46
460.644	14865.86
460.85	14278.1
461.055	14058.96
461.261	13936.09
461.466	12834.28
461.672	12334.57
461.878	13506.01
462.083	12482.03
462.289	12361.2
462.494	12242.42
462.7	11687.42
462.905	11372.03
463.111	11877.88
463.316	11847.16
463.522	11640.31
463.727	11681.27
463.932	11623.93
464.138	11419.13
464.343	11621.88
464.549	11107.84
464.754	11746.81
464.959	11460.09
465.165	11118.08
465.37	10999.3
465.575	10532.36
465.781	11019.78
465.986	11066.88
466.191	10702.34
466.397	10632.71
466.602	10051.09
466.807	10518.03
467.012	10362.38
467.218	10253.84
467.423	10194.45
467.628	10239.5
467.833	10804.74
468.038	10196.5
468.244	10059.28
468.449	10366.48
468.654	10061.33
468.859	10147.34
469.064	9903.64
469.269	9387.55
469.474	9512.47
469.679	9926.16
469.885	9424.41
470.09	9670.17
470.295	9442.84
470.5	9508.38
470.705	9428.51
470.91	9090.59
471.115	8959.52
471.32	9229.85
471.525	9061.92
471.73	8865.32
471.935	8930.85
472.139	8476.2
472.344	8787.49
472.549	8543.78
472.754	8412.71
472.959	8390.19
473.164	8420.91
473.369	8031.79
473.574	8326.7
473.778	8338.99
473.983	8261.16
474.188	8164.91
474.393	7872.05
474.598	7874.1
474.802	7712.31
475.007	7714.36
475.212	7845.43
475.417	7439.93
475.621	7368.25
475.826	7542.33
476.031	7274.04
476.235	7214.65
476.44	7437.88
476.645	7247.42
476.849	7192.12
477.054	7114.3
477.259	6956.61
477.463	7036.48
477.668	6854.21
477.872	6811.2
478.077	6717
478.282	6862.4
478.486	6606.41
478.691	6622.79
478.895	6524.49
479.1	6483.53
479.304	6329.93
479.509	6342.22
479.713	6534.73
479.918	6241.87
480.122	6176.33
480.326	6219.34
480.531	6196.81
480.735	5975.63
480.94	5957.2
481.144	6209.1
481.348	5891.66
481.553	6194.76
481.757	6057.55
481.961	6088.27
482.166	6151.76
482.37	6000.21
482.574	5762.64
482.778	5930.58
482.983	6049.36
483.187	5916.24
483.391	6139.47
483.595	6041.17
483.8	5922.38
484.004	6006.35
484.208	5981.78
484.412	5899.86
484.616	6039.12
484.821	5899.86
485.025	5930.58
485.229	6002.26
485.433	6020.69
485.637	6082.13
485.841	5973.58
486.045	5844.56
486.249	6032.97
486.453	5953.1
486.657	6063.69
486.861	6073.93
487.065	5959.25
487.269	6069.84
487.473	5807.7
487.677	6145.61
487.881	6061.65
488.085	5932.62
488.289	6012.49
488.493	5996.11
488.697	6032.97
488.901	6100.56
489.105	6092.37
489.309	5994.06
489.512	6106.7
489.716	6291.02
489.92	5975.63
490.124	6075.98
490.328	6309.45
490.531	6108.75
490.735	6166.09
490.939	6125.13
491.143	6145.61
491.346	6262.35
491.55	6243.92
491.754	6409.8
491.958	6325.83
492.161	6254.16
492.365	6450.76
492.569	6219.34
492.772	6309.45
492.976	6383.18
493.18	6544.97
493.383	6524.49
493.587	6508.1
493.79	6547.01
493.994	6690.37
494.197	6723.14
494.401	6753.86
494.605	6592.07
494.808	6725.19
495.012	6954.56
495.215	6811.2
495.419	7128.64
495.622	6962.75
495.825	7147.07
496.029	7159.36
496.232	7173.69
496.436	7009.86
496.639	7321.15
496.843	7292.48
497.046	7552.57
497.249	7411.26
497.453	7788.08
497.656	7792.18
497.859	7775.8
498.063	7767.6
498.266	8015.41
498.469	7851.57
498.673	8046.13
498.876	8216.11
499.079	8273.45
499.282	8359.47
499.485	8459.82
499.689	8435.24
499.892	8730.15
500.095	8873.51
500.298	8865.32
500.501	8746.53
500.705	9117.22
500.908	9313.82
501.111	9213.47
501.314	9412.12
501.517	9375.26
501.72	9471.51
501.923	9578.01
502.126	9715.22
502.329	9780.76
502.532	10006.03
502.735	9901.59
502.938	10415.63
503.141	10229.26
503.344	10399.24
503.547	10532.36
503.75	10518.03
503.953	10882.56
504.156	10880.52
504.359	11159.04
504.562	11118.08
504.765	11474.43
504.968	11640.31
505.17	11748.86
505.373	11605.5
505.576	12041.71
505.779	12400.11
505.982	12297.71
506.185	12371.44
506.387	12514.8
506.59	12742.12
506.793	12766.7
506.996	12836.33
507.198	13139.43
507.401	13202.91
507.604	13221.34
507.807	13688.28
508.009	13794.78
508.212	13927.89
508.415	14167.51
508.617	14261.71
508.82	14355.92
509.022	14222.8
509.225	14792.14
509.428	14829
509.63	14697.93
509.833	14822.86
510.035	15418.82
510.238	15388.1
510.44	15680.96
510.643	15969.72
510.845	16115.12
511.048	15906.23
511.25	16371.12
511.453	16407.98
511.655	17403.3
511.858	16850.35
512.06	17192.36
512.262	17288.61
512.465	17399.2
512.667	17831.32
512.87	17966.49
513.072	17786.27
513.274	18441.62
513.477	18525.58
513.679	18746.76
513.881	19015.05
514.084	19207.56
514.286	19076.49
514.488	19522.94
514.69	19967.35
514.893	20034.94
515.095	20161.91
515.297	20544.88
515.499	20534.64
515.701	21065.07
515.904	21239.14
516.106	21249.38
516.308	21509.47
516.51	21394.79
516.712	21878.11
516.914	22109.53
517.116	22529.36
517.318	22902.09
517.52	23008.59
517.722	22685.01
517.925	23625.03
518.127	23520.58
518.329	23901.5
518.531	23686.47
518.733	24196.41
518.935	24675.63
519.136	24653.11
519.338	24952.11
519.54	24841.52
519.742	25543.97
519.944	25466.15
520.146	25941.28
520.348	26326.3
520.55	26176.8
520.752	26500.37
520.954	26983.69
521.155	27098.38
521.357	27229.45
521.559	27587.85
521.761	28003.58
521.963	27792.64
522.164	28056.83
522.366	28372.22
522.568	28853.49
522.77	28509.43
522.971	29236.46
523.173	29064.43
523.375	29396.2
523.576	29443.31
523.778	29820.13
523.98	29895.91
524.181	30127.33
524.383	29922.53
524.584	30416.09
524.786	30717.14
524.988	30485.72
525.189	30905.56
525.391	31110.35
525.592	31333.58
525.794	31589.58
525.995	31546.57
526.197	31900.87
526.398	31507.66
526.6	32244.93
526.801	32029.89
527.003	32234.69
527.204	32519.35
527.406	32425.15
527.607	32693.43
527.808	32935.09
528.01	32509.11
528.211	32969.91
528.412	33418.41
528.614	33322.16
528.815	33043.63
529.016	33615.02
529.218	33201.33
529.419	33539.24
529.62	33682.6
529.822	33488.04
530.023	33920.17
530.224	33764.52
530.425	33725.61
530.626	33868.97
530.828	33924.26
531.029	34653.34
531.23	33770.66
531.431	34145.44
531.632	34260.13
531.833	34688.15
532.035	34520.22
532.236	34340
532.437	34645.15
532.638	34565.28
532.839	35040.4
533.04	34854.04
533.241	34430.11
533.442	35237.01
533.643	34577.56
533.844	34618.52
534.045	35044.5
534.246	34780.31
534.447	35163.28
534.648	34733.21
534.849	35019.92
535.05	34647.19
535.251	34702.49
535.451	35013.78
535.652	35171.47
535.853	35144.85
536.054	35140.75
536.255	35421.33
536.456	34690.2
536.657	35697.8
536.857	35323.02
537.058	34899.09
537.259	35441.81
537.46	35280.02
537.66	35103.89
537.861	35198.1
538.062	35443.85
538.263	35187.86
538.463	34843.8
538.664	35237.01
538.865	35505.29
539.065	35314.83
539.266	35169.43
539.466	35644.55
539.667	34841.75
539.868	35470.48
540.068	35466.38
540.269	34942.1
540.469	35316.88
540.67	34856.09
540.87	35194
541.071	35009.68
541.271	35400.85
541.472	34999.44
541.672	35204.24
541.873	34712.73
542.073	34815.13
542.274	35380.37
542.474	34782.36
542.675	34759.83
542.875	35316.88
543.075	34878.61
543.276	35052.69
543.476	35576.97
543.676	35060.88
543.877	35419.28
544.077	35165.33
544.277	35081.36
544.478	35280.02
544.678	34970.77
544.878	35175.57
545.078	35173.52
545.279	35034.26
545.479	35179.67
545.679	35173.52
545.879	34835.61
546.079	34864.28
546.28	35097.75
546.48	34714.78
546.68	35284.11
546.88	35507.34
547.08	35144.85
547.28	34591.9
547.48	34661.53
547.68	35165.33
547.88	34694.3
548.081	35069.08
548.281	34925.72
548.481	34886.81
548.681	35126.42
548.881	34862.23
549.081	35038.36
549.28	35208.34
549.48	35450
549.68	35019.92
549.88	35351.7
550.08	34856.09
550.28	35359.89
550.48	34962.58
550.68	35372.17
550.88	34942.1
551.08	34811.03
551.279	34804.89
551.479	34774.17
551.679	35077.27
551.879	34884.76
552.079	35122.32
552.278	34665.63
552.478	34755.74
552.678	34679.96
552.878	34706.59
553.077	34786.46
553.277	34702.49
553.477	34847.89
553.676	34362.53
553.876	34587.8
554.076	34524.32
554.275	34501.79
554.475	34204.83
554.674	34333.85
554.874	34411.68
555.074	34559.13
555.273	34444.45
555.473	34655.39
555.672	34448.54
555.872	34387.1
556.071	34317.47
556.271	34602.14
556.47	34004.13
556.67	34172.07
556.869	34079.91
557.068	34311.33
557.268	34036.9
557.467	33963.17
557.667	33975.46
557.866	34116.77
558.065	33944.74
558.265	33780.9
558.464	33600.68
558.663	34114.72
558.863	33715.37
559.062	34262.18
559.261	33383.6
559.461	34202.78
559.66	33455.28
559.859	33637.55
560.058	33340.59
560.258	33387.69
560.457	32853.17
560.656	33469.61
560.855	33406.12
561.054	33238.19
561.253	32834.74
561.453	33234.1
561.652	33105.07
561.851	33000.63
562.05	32705.72
562.249	32677.05
562.448	33178.8
562.647	32795.83
562.846	32480.44
563.045	33137.84
563.244	32267.45
563.443	32836.79
563.642	32574.65
563.841	32480.44
564.04	32715.96
564.239	32689.34
564.438	32109.76
564.637	32392.38
564.836	32304.32
565.035	31802.57
565.234	32050.37
565.432	31743.17
565.631	32033.99
565.83	31978.69
566.029	32136.38
566.228	31714.5
566.427	31997.12
566.625	31427.79
566.824	31843.52
567.023	31771.85
567.222	30981.33
567.42	31620.3
567.619	31493.32
567.818	31012.05
568.016	31210.7
568.215	31542.47
568.414	31169.74
568.612	31366.35
568.811	30883.03
569.01	30981.33
569.208	30958.8
569.407	30577.88
569.605	30393.56
569.804	30809.3
570.002	30231.77
570.201	30514.39
570.4	30059.74
570.598	30295.26
570.797	29981.92
570.995	30008.54
571.193	29623.53
571.392	30184.67
571.59	29588.71
571.789	29836.52
571.987	29721.83
572.186	29273.32
572.384	29052.14
572.582	29388.01
572.781	29338.86
572.979	29156.59
573.177	29099.25
573.376	29121.77
573.574	28646.65
573.772	28998.9
573.971	28654.84
574.169	28531.96
574.367	28345.59
574.565	28828.91
574.763	28421.37
574.962	28251.39
575.16	27981.06
575.358	27995.39
575.556	27843.84
575.754	28296.44
575.952	27684.1
576.151	28073.21
576.349	27661.57
576.547	27745.54
576.745	27770.11
576.943	27835.65
577.141	27270.41
577.339	27526.41
577.537	27354.38
577.735	27202.83
577.933	27024.65
578.131	27329.8
578.329	26791.19
578.527	26586.39
578.725	26477.85
578.923	26983.69
579.121	26760.47
579.319	26692.88
579.516	26561.81
579.714	26645.78
579.912	26395.93
580.11	26197.27
580.308	26467.61
580.506	25963.81
580.704	25914.66
580.901	26055.97
581.099	25978.14
581.297	25668.9
581.495	25412.9
581.692	25783.59
581.89	25640.23
582.088	25713.95
582.285	25318.7
582.483	25363.75
582.681	25470.25
582.878	25140.52
583.076	25187.63
583.274	25437.48
583.471	25101.61
583.669	25036.08
583.866	24724.79
584.064	24988.97
584.262	24788.27
584.459	25124.14
584.657	24431.93
584.854	25021.74
585.052	24466.74
585.249	24358.2
585.447	24466.74
585.644	24087.87
585.841	24438.07
586.039	24591.67
586.236	23674.18
586.434	24096.06
586.631	24036.67
586.828	23831.87
587.026	23637.31
587.223	23518.53
587.42	23760.19
587.618	23840.06
587.815	23500.1
588.012	23303.5
588.21	23422.28
588.407	23264.58
588.604	23348.55
588.801	23270.73
588.999	23145.8
589.196	23113.03
589.393	22820.17
589.59	22709.58
589.787	22850.89
589.984	22721.87
590.182	22652.24
590.379	22752.59
590.576	22318.42
590.773	22293.85
590.97	22130.01
591.167	22222.17
591.364	21949.79
591.561	22259.03
591.758	22027.61
591.955	21992.8
592.152	22107.48
592.349	22113.63
592.546	22041.95
592.743	21779.81
592.94	21642.59
593.137	21892.44
593.334	21730.66
593.531	21300.58
593.727	21671.26
593.924	21187.94
594.121	21167.46
594.318	21151.08
594.515	21189.99
594.712	21341.54
594.908	20999.53
595.105	21245.29
595.302	20788.59
595.499	20817.26
595.696	20999.53
595.892	20694.38
596.089	20899.18
596.286	20692.33
596.482	20514.16
596.679	20632.94
596.876	20596.08
597.072	20401.52
597.269	20323.7
597.466	20225.4
597.662	20249.97
597.859	20184.44
598.055	20172.15
598.252	19828.09
598.448	20225.4
598.645	20045.18
598.841	19742.08
599.038	19967.35
599.234	20065.66
599.431	19559.81
599.627	19613.06
599.824	19840.38
600.02	19488.13
600.217	19457.41
600.413	19328.39
600.609	19488.13
600.806	19172.74
601.002	19492.23
601.198	19242.37
601.395	18959.75
601.591	19115.4
601.787	18810.25
601.984	18664.85
602.18	19008.9
602.376	18914.7
602.572	18724.24
602.769	18642.32
602.965	18345.36
603.161	18662.8
603.357	18451.86
603.553	18386.32
603.75	18294.16
603.946	18296.21
604.142	18339.22
604.338	17683.87
604.534	18302.36
604.73	17898.91
604.926	17800.6
605.122	18097.56
605.318	17868.19
605.514	17724.83
605.71	17890.71
605.906	17872.28
606.102	17653.15
606.298	17554.85
606.494	17538.46
606.69	17530.27
606.886	17589.66
607.082	17409.44
607.278	17444.26
607.474	17139.11
607.67	17364.39
607.866	17128.87
608.062	17223.08
608.257	16983.46
608.453	17192.36
608.649	16948.65
608.845	16790.95
609.041	16917.93
609.236	16858.54
609.432	16813.48
609.628	16842.15
609.824	16606.64
610.019	16688.56
610.215	16653.74
610.411	16598.45
610.606	16258.48
610.802	16436.66
610.998	16360.88
611.193	16346.55
611.389	16395.7
611.584	16297.39
611.78	16055.73
611.976	15967.67
612.171	16168.37
612.367	16246.19
612.562	15939
612.758	15994.29
612.953	15838.65
613.149	16121.27
613.344	15990.2
613.539	16207.28
613.735	15762.87
613.93	15834.55
614.126	15513.02
614.321	15658.43
614.517	15750.59
614.712	15758.78
614.907	15465.92
615.103	15517.12
615.298	15472.06
615.493	15693.24
615.688	15392.19
615.884	15775.16
616.079	15277.51
616.274	15457.73
616.47	15343.04
616.665	15390.14
616.86	15261.12
617.055	15017.41
617.25	15060.42
617.445	15408.58
617.641	14726.6
617.836	15156.68
618.031	14880.2
618.226	15003.08
618.421	14761.42
618.616	15089.09
618.811	14595.53
619.006	15125.96
619.201	14486.99
619.396	14814.66
619.591	14419.41
619.786	14523.85
619.981	14249.43
620.176	14427.6
620.371	14073.3
620.566	14503.37
620.761	14093.78
620.956	14177.75
621.151	13989.33
621.346	13778.39
621.541	13635.03
621.735	13952.47
621.93	13594.08
622.125	13727.19
622.32	13647.32
622.515	13639.13
622.709	13436.38
622.904	13252.06
623.099	13358.56
623.294	13366.75
623.488	13118.95
623.683	13217.25
623.878	12996.07
624.072	13008.36
624.267	12989.92
624.462	12645.87
624.656	12586.47
624.851	12791.27
625.046	12776.94
625.24	12668.39
625.435	12488.17
625.629	12260.85
625.824	12371.44
626.018	12733.93
626.213	11920.88
626.407	11908.6
626.602	12152.31
626.796	11955.7
626.991	11886.07
627.185	11828.73
627.38	11734.52
627.574	11748.86
627.768	11773.43
627.963	11499
628.157	11445.76
628.352	11509.24
628.546	11335.17
628.74	11474.43
628.935	11347.45
629.129	11187.71
629.323	11253.25
629.517	11021.83
629.712	11036.16
629.906	11091.46
630.1	10778.12
630.294	10872.32
630.489	10745.35
630.683	10884.61
630.877	10475.02
631.071	10618.38
631.265	10757.64
631.459	10708.49
631.653	10372.62
631.848	10468.87
632.042	10153.49
632.236	10335.76
632.43	10366.48
632.624	10255.89
632.818	10233.36
633.012	10057.23
633.206	10196.5
633.4	10032.66
633.594	9975.31
633.788	9915.92
633.982	10028.56
634.176	9821.72
634.369	9821.72
634.563	9715.22
634.757	9858.58
634.951	9713.17
635.145	9608.73
635.339	9661.98
635.533	9477.66
635.726	9358.88
635.92	9418.27
636.114	9326.11
636.308	9092.64
636.501	9367.07
636.695	9258.53
636.889	9113.12
637.083	8977.95
637.276	8967.71
637.47	9047.58
637.664	8939.04
637.857	8736.29
638.051	8717.86
638.244	8748.58
638.438	8785.44
638.632	8531.5
638.825	8572.46
639.019	8601.13
639.212	8468.01
639.406	8588.84
639.599	8408.62
639.793	8328.75
639.986	8298.03
640.18	8236.59
640.373	8406.57
640.567	8119.85
640.76	8236.59
640.954	8021.55
641.147	8021.55
641.34	7884.34
641.534	7886.39
641.727	7876.15
641.92	8060.46
642.114	7757.36
642.307	7728.69
642.5	7761.46
642.694	7642.68
642.887	7630.39
643.08	7747.12
643.273	7673.4
643.467	7398.97
643.66	7341.63
643.853	7462.46
644.046	7368.25
644.239	7427.64
644.432	7386.68
644.626	7190.08
644.819	7161.41
645.012	7147.07
645.205	7106.11
645.398	7106.11
645.591	6919.75
645.784	7077.44
645.977	6932.03
646.17	6942.27
646.363	6915.65
646.556	6594.12
646.749	6850.11
646.942	6684.23
647.135	6594.12
647.328	6649.41
647.521	6555.21
647.714	6442.57
647.907	6518.34
648.099	6448.71
648.292	6415.94
648.485	6381.13
648.678	6477.38
648.871	6362.7
649.064	6264.4
649.256	6082.13
649.449	6358.6
649.642	6305.35
649.835	6274.63
650.027	6073.93
650.22	6063.69
650.413	5920.34
650.605	6028.88
650.798	5998.16
650.991	5924.43
651.183	5949.01
651.376	5764.69
651.568	5750.35
651.761	5705.3
651.954	5736.02
652.146	5811.79
652.339	5682.77
652.531	5510.74
652.724	5701.2
652.916	5477.98
653.109	5484.12
653.301	5473.88
653.494	5512.79
653.686	5365.34
653.879	5600.85
654.071	5307.99
654.263	5336.67
654.456	5322.33
654.648	5383.77
654.84	5496.41
655.033	5285.47
655.225	5162.59
655.417	5033.57
655.61	5170.78
655.802	5082.72
655.994	4910.69
656.186	5138.01
656.379	4898.4
656.571	5113.44
656.763	4963.93
656.955	4963.93
657.148	4984.41
657.34	4914.78
657.532	4771.43
657.724	4902.5
657.916	4802.15
658.108	4857.44
658.3	4820.58
658.492	4742.75
658.684	4675.17
658.876	4701.79
659.068	4589.16
659.26	4580.96
659.452	4712.03
659.644	4572.77
659.836	4408.94
660.028	4427.37
660.22	4464.23
660.412	4427.37
660.604	4503.14
660.796	4486.76
660.988	4298.35
661.18	4281.96
661.372	4376.17
661.563	4130.41
661.755	4165.23
661.947	4265.58
662.139	4083.31
662.331	4212.33
662.522	4124.27
662.714	4142.7
662.906	4091.5
663.097	4136.56
663.289	4068.97
663.481	3985.01
663.673	3980.91
663.864	4073.07
664.056	3925.61
664.247	3753.59
664.439	3804.78
664.631	3825.26
664.822	3950.19
665.014	3888.75
665.205	3860.08
665.397	3778.16
665.588	3759.73
665.78	3677.81
665.971	3708.53
666.163	3731.06
666.354	3686
666.546	3487.35
666.737	3649.14
666.929	3706.48
667.12	3634.8
667.311	3585.65
667.503	3573.36
667.694	3393.14
667.885	3548.79
668.077	3464.82
668.268	3579.51
668.459	3489.4
668.651	3559.03
668.842	3421.81
669.033	3497.59
669.224	3360.38
669.416	3442.29
669.607	3294.84
669.798	3378.81
669.989	3354.23
670.18	3327.61
670.371	3305.08
670.563	3219.07
670.754	3374.71
670.945	3245.69
671.136	3290.74
671.327	3141.24
671.518	3167.87
671.709	3174.01
671.9	3274.36
672.091	3235.45
672.282	3096.19
672.473	3112.57
672.664	3200.63
672.855	3143.29
673.046	3055.23
673.237	3069.56
673.428	3069.56
673.619	3137.15
673.809	3085.95
674	3085.95
674.191	3122.81
674.382	2950.78
674.573	2979.45
674.764	3047.04
674.954	3077.76
675.145	2956.93
675.336	3038.84
675.527	2905.73
675.717	2967.17
675.908	2967.17
676.099	3053.18
676.289	2838.14
676.48	2889.34
676.671	2897.53
676.861	2848.38
677.052	2848.38
677.243	2938.49
677.433	2997.88
677.624	2829.95
677.814	2807.42
678.005	2901.63
678.195	2813.57
678.386	2700.93
678.576	2725.51
678.767	2795.14
678.957	2799.23
679.148	2813.57
679.338	2731.65
679.529	2778.75
679.719	2688.64
679.909	2829.95
680.1	2709.12
680.29	2879.1
680.481	2766.46
680.671	2702.98
680.861	2678.4
681.052	2772.61
681.242	2649.73
681.432	2793.09
681.622	2733.7
681.813	2721.41
682.003	2705.03
682.193	2668.16
682.383	2657.92
682.573	2913.92
682.764	2606.72
682.954	2639.49
683.144	2719.36
683.334	2649.73
683.524	2584.2
683.714	2647.68
683.904	2584.2
684.094	2653.83
684.284	2586.24
684.474	2780.8
684.664	2604.67
684.854	2702.98
685.044	2657.92
685.234	2526.85
685.424	2545.28
685.614	2653.83
685.804	2621.06
685.994	2698.88
686.184	2639.49
686.374	2786.94
686.564	2537.09
686.753	2543.24
686.943	2508.42
687.133	2494.08
687.323	2537.09
687.513	2500.23
687.702	2455.17
687.892	2551.43
688.082	2496.13
688.272	2551.43
688.461	2446.98
688.651	2492.04
688.841	2555.52
689.03	2412.17
689.22	2481.8
689.41	2559.62
689.599	2571.91
689.789	2608.77
689.979	2633.35
690.168	2492.04
690.358	2453.13
690.547	2414.21
690.737	2457.22
690.926	2451.08
691.116	2442.89
691.305	2399.88
691.495	2403.97
691.684	2346.63
691.874	2444.93
692.063	2440.84
692.252	2449.03
692.442	2588.29
692.631	2498.18
692.82	2494.08
693.01	2326.15
693.199	2375.3
693.388	2367.11
693.578	2326.15
693.767	2457.22
693.956	2385.54
694.146	2383.49
694.335	2338.44
694.524	2422.41
694.713	2428.55
694.902	2346.63
695.092	2389.64
695.281	2389.64
695.47	2446.98
695.659	2434.69
695.848	2463.37
696.037	2342.53
696.226	2397.83
696.415	2412.17
696.604	2383.49
696.793	2344.58
696.982	2410.12
697.171	2334.34
697.36	2524.8
697.549	2440.84
697.738	2371.21
697.927	2369.16
698.116	2432.65
698.305	2416.26
698.494	2389.64
698.683	2358.92
698.872	2336.39
699.061	2453.13
699.25	2328.2
699.438	2424.45
699.627	2344.58
699.816	2305.67
700.005	2340.49
700.193	2309.77
700.382	2514.56
700.571	2320.01
700.76	2434.69
700.948	2252.42
701.137	2365.06
701.326	2352.77
701.514	2385.54
701.703	2371.21
701.892	2313.86
702.08	2307.72
702.269	2446.98
702.457	2387.59
702.646	2461.32
702.834	2354.82
703.023	2324.1
703.212	2348.68
703.4	2379.4
703.589	2322.06
703.777	2305.67
703.965	2287.24
704.154	2289.29
704.342	2219.66
704.531	2258.57
704.719	2315.91
704.907	2381.45
705.096	2274.95
705.284	2240.14
705.472	2238.09
705.661	2254.47
705.849	2303.62
706.037	2238.09
706.226	2250.38
706.414	2360.97
706.602	2270.86
706.79	2289.29
706.979	2348.68
707.167	2174.6
707.355	2246.28
707.543	2285.19
707.731	2385.54
707.919	2184.84
708.107	2199.18
708.296	2133.64
708.484	2195.08
708.672	2236.04
708.86	2287.24
709.048	2213.51
709.236	2092.68
709.424	2107.02
709.612	2195.08
709.8	2162.31
709.988	2027.15
710.176	2129.55
710.364	2094.73
710.551	2088.59
710.739	2178.7
710.927	2193.03
711.115	2213.51
711.303	2043.53
711.491	2082.44
711.679	2070.16
711.866	2035.34
712.054	2127.5
712.242	2094.73
712.43	2131.59
712.617	2082.44
712.805	2012.81
712.993	2090.63
713.181	2061.96
713.368	2066.06
713.556	2047.63
713.744	1971.85
713.931	2047.63
714.119	2061.96
714.306	2084.49
714.494	1963.66
714.682	2029.2
714.869	1939.09
715.057	2072.2
715.244	1998.48
715.432	2016.91
715.619	1973.9
715.807	1973.9
715.994	1980.04
716.182	1937.04
716.369	1889.93
716.556	2023.05
716.744	2043.53
716.931	1904.27
717.119	1881.74
717.306	1781.39
717.493	1937.04
717.681	1918.61
717.868	1867.41
718.055	1799.82
718.242	1908.37
718.43	1984.14
718.617	1779.34
718.804	1822.35
718.991	1846.93
719.179	1926.8
719.366	1748.62
719.553	1885.84
719.74	1793.68
719.927	1742.48
720.114	1752.72
720.301	1775.25
720.488	1760.91
720.676	1851.02
720.863	1762.96
721.05	1812.11
721.237	1783.44
721.424	1779.34
721.611	1803.92
721.798	1713.81
721.985	1658.51
722.172	1746.58
722.358	1769.1
722.545	1752.72
722.732	1703.57
722.919	1742.48
723.106	1726.1
723.293	1662.61
723.48	1758.86
723.667	1644.18
723.853	1662.61
724.04	1715.86
724.227	1742.48
724.414	1676.95
724.6	1631.89
724.787	1705.62
724.974	1777.3
725.161	1619.6
725.347	1617.55
725.534	1603.22
725.72	1672.85
725.907	1580.69
726.094	1642.13
726.28	1722
726.467	1609.36
726.653	1566.35
726.84	1652.37
727.027	1719.95
727.213	1658.51
727.4	1662.61
727.586	1560.21
727.773	1545.88
727.959	1590.93
728.145	1590.93
728.332	1674.9
728.518	1500.82
728.705	1531.54
728.891	1554.07
729.077	1525.4
729.264	1537.68
729.45	1615.51
729.636	1590.93
729.823	1500.82
730.009	1529.49
730.195	1509.01
730.382	1564.31
730.568	1543.83
730.754	1554.07
730.94	1537.68
731.126	1500.82
731.313	1482.39
731.499	1531.54
731.685	1515.16
731.871	1537.68
732.057	1603.22
732.243	1545.88
732.429	1418.9
732.615	1529.49
732.801	1406.61
732.987	1429.14
733.173	1404.57
733.359	1484.44
733.545	1418.9
733.731	1420.95
733.917	1478.29
734.103	1439.38
734.289	1461.91
734.475	1375.89
734.661	1330.84
734.847	1482.39
735.033	1470.1
735.219	1353.37
735.404	1392.28
735.59	1506.96
735.776	1414.81
735.962	1357.46
736.148	1357.46
736.333	1404.57
736.519	1336.98
736.705	1277.59
736.89	1349.27
737.076	1375.89
737.262	1410.71
737.447	1218.2
737.633	1382.04
737.819	1271.45
738.004	1314.45
738.19	1306.26
738.375	1304.21
738.561	1404.57
738.747	1314.45
738.932	1355.41
739.118	1336.98
739.303	1300.12
739.489	1306.26
739.674	1367.7
739.859	1279.64
740.045	1312.41
740.23	1263.26
740.416	1193.62
740.601	1263.26
740.786	1287.83
740.972	1255.06
741.157	1390.23
741.342	1269.4
741.528	1261.21
741.713	1248.92
741.898	1203.86
742.084	1336.98
742.269	1234.58
742.454	1259.16
742.639	1224.34
742.824	1205.91
743.01	1236.63
743.195	1269.4
743.38	1265.3
743.565	1203.86
743.75	1261.21
743.935	1158.81
744.12	1216.15
744.305	1152.67
744.49	1130.14
744.675	1214.1
744.86	1132.19
745.045	1238.68
745.23	1046.17
745.415	1210.01
745.6	1105.56
745.785	1185.43
745.97	1189.53
746.155	1189.53
746.34	1148.57
746.525	1119.9
746.71	1136.28
746.895	1128.09
747.079	1158.81
747.264	1078.94
747.449	1078.94
747.634	1093.27
747.819	1142.43
748.003	994.97
748.188	1083.03
748.373	1031.83
748.557	1001.12
748.742	1050.27
748.927	1003.16
749.111	1058.46
749.296	980.64
749.481	1080.99
749.665	1060.51
749.85	1080.99
750.034	892.57
750.219	966.3
750.404	1007.26
750.588	945.82
750.773	833.18
750.957	954.01
751.141	976.54
751.326	945.82
751.51	947.87
751.695	982.68
751.879	900.76
752.064	911
752.248	935.58
752.432	933.53
752.617	941.72
752.801	949.92
752.985	960.16
753.17	837.28
753.354	890.53
753.538	827.04
753.722	847.52
753.907	863.9
754.091	935.58
754.275	814.75
754.459	888.48
754.643	818.85
754.828	956.06
755.012	892.57
755.196	851.61
755.38	865.95
755.564	792.22
755.748	788.13
755.932	816.8
756.116	779.93
756.3	745.12
756.484	849.57
756.668	771.74
756.852	677.54
757.036	812.7
757.22	728.74
757.404	751.26
757.588	765.6
757.772	745.12
757.956	763.55
758.14	759.46
758.323	698.02
758.507	708.26
758.691	700.06
758.875	708.26
759.059	759.46
759.242	786.08
759.426	650.91
759.61	689.82
759.794	700.06
759.977	689.82
760.161	706.21
760.345	650.91
760.528	618.15
760.712	722.59
760.895	599.71
761.079	624.29
761.263	626.34
761.446	562.85
761.63	640.67
761.813	622.24
761.997	640.67
762.18	726.69
762.364	683.68
762.547	661.15
762.731	632.48
762.914	566.95
763.098	620.19
763.281	644.77
763.464	564.9
763.648	644.77
763.831	650.91
764.015	593.57
764.198	620.19
764.381	562.85
764.564	648.86
764.748	632.48
764.931	677.54
765.114	591.52
765.297	573.09
765.481	585.38
765.664	609.95
765.847	587.43
766.03	575.14
766.213	640.67
766.397	536.23
766.58	614.05
766.763	599.71
766.946	609.95
767.129	620.19
767.312	538.27
767.495	593.57
767.678	530.08
767.861	624.29
768.044	564.9
768.227	577.19
768.41	566.95
768.593	554.66
768.776	513.7
768.959	587.43
769.142	575.14
769.324	566.95
769.507	482.98
769.69	618.15
769.873	544.42
770.056	568.99
770.239	546.47
770.421	581.28
770.604	546.47
770.787	503.46
770.97	525.99
771.152	482.98
771.335	571.04
771.518	468.64
771.7	499.36
771.883	546.47
772.066	575.14
772.248	534.18
772.431	495.27
772.613	517.79
772.796	456.36
772.978	568.99
773.161	503.46
773.343	468.64
773.526	550.56
773.708	523.94
773.891	444.07
774.073	476.84
774.256	499.36
774.438	507.55
774.621	472.74
774.803	523.94
774.985	468.64
775.168	415.4
775.35	378.53
775.532	421.54
775.715	513.7
775.897	437.92
776.079	487.08
776.261	468.64
776.444	368.29
776.626	536.23
776.808	382.63
776.99	429.73
777.173	401.06
777.355	376.48
777.537	423.59
777.719	478.88
777.901	419.49
778.083	458.4
778.265	415.4
778.447	374.44
778.629	409.25
778.811	439.97
778.993	460.45
779.175	429.73
779.357	390.82
779.539	415.4
779.721	409.25
779.903	466.6
780.085	360.1
780.267	364.2
780.449	374.44
780.631	353.96
780.812	353.96
780.994	413.35
781.176	290.47
781.358	372.39
781.54	431.78
781.721	353.96
781.903	356.01
782.085	319.14
782.267	310.95
782.448	362.15
782.63	335.53
782.812	341.67
782.993	386.72
783.175	319.14
783.357	329.38
783.538	376.48
783.72	341.67
783.901	302.76
784.083	214.7
784.264	302.76
784.446	341.67
784.627	325.29
784.809	233.13
784.99	308.9
785.172	292.52
785.353	302.76
785.535	327.33
785.716	384.68
785.897	222.89
786.079	288.42
786.26	233.13
786.441	276.13
786.623	259.75
786.804	296.61
786.985	276.13
787.167	257.7
787.348	229.03
787.529	280.23
787.71	284.33
787.891	265.89
788.073	259.75
788.254	229.03
788.435	231.08
788.616	261.8
788.797	292.52
788.978	233.13
789.159	235.18
789.34	251.56
789.522	218.79
789.703	276.13
789.884	229.03
790.065	218.79
790.246	216.74
790.427	200.36
790.607	280.23
790.788	231.08
790.969	284.33
791.15	198.31
791.331	349.86
791.512	224.94
791.693	186.02
791.874	239.27
792.054	208.55
792.235	226.98
792.416	183.98
792.597	226.98
792.778	212.65
792.958	196.26
793.139	145.06
793.32	183.98
793.5	149.16
793.681	188.07
793.862	237.22
794.042	231.08
794.223	171.69
794.404	190.12
794.584	179.88
794.765	204.46
794.945	179.88
795.126	259.75
795.306	202.41
795.487	231.08
795.667	159.4
795.848	192.17
796.028	222.89
796.209	183.98
796.389	222.89
796.57	245.41
796.75	126.63
796.93	177.83
797.111	181.93
797.291	153.26
797.471	202.41
797.652	153.26
797.832	104.11
798.012	210.6
798.192	198.31
798.373	116.39
798.553	140.97
798.733	175.78
798.913	124.58
799.093	102.06
799.274	169.64
799.454	202.41
799.634	165.54
799.814	224.94
799.994	177.83
800.174	173.74
800.354	163.5
800.534	87.72
800.714	204.46
800.894	153.26
801.074	106.15
801.254	175.78
801.434	183.98
801.614	151.21
801.794	153.26
801.974	333.48
802.154	183.98
802.334	175.78
802.514	247.46
802.693	65.19
802.873	181.93
803.053	159.4
803.233	110.25
803.413	145.06
803.592	190.12
803.772	198.31
803.952	179.88
804.131	134.82
804.311	102.06
804.491	149.16
804.67	120.49
804.85	104.11
805.03	169.64
805.209	116.39
805.389	104.11
805.568	140.97
805.748	50.86
805.928	110.25
806.107	108.2
806.287	91.82
806.466	126.63
806.646	112.3
806.825	173.74
807.004	116.39
807.184	83.63
807.363	126.63
807.543	104.11
807.722	79.53
807.901	61.1
808.081	91.82
808.26	50.86
808.439	130.73
808.619	91.82
808.798	175.78
808.977	136.87
809.156	165.54
809.336	136.87
809.515	87.72
809.694	85.67
809.873	93.87
810.052	118.44
810.231	130.73
810.411	18.09
810.59	104.11
810.769	120.49
810.948	54.95
811.127	102.06
811.306	85.67
811.485	57
811.664	65.19
811.843	89.77
812.022	73.39
812.201	110.25
812.38	32.43
812.559	52.91
812.737	34.47
812.916	114.34
813.095	130.73
813.274	89.77
813.453	69.29
813.632	85.67
813.811	71.34
813.989	95.91
814.168	89.77
814.347	73.39
814.526	140.97
814.704	71.34
814.883	67.24
815.062	104.11
815.24	91.82
815.419	157.35
815.598	81.58
815.776	91.82
815.955	108.2
816.133	85.67
816.312	102.06
816.49	20.14
816.669	87.72
816.847	79.53
817.026	89.77
817.204	61.1
817.383	50.86
817.561	63.15
817.74	79.53
817.918	75.43
818.097	118.44
818.275	106.15
818.453	28.33
818.632	130.73
818.81	93.87
818.988	40.62
819.167	93.87
819.345	87.72
819.523	177.83
819.701	46.76
819.879	50.86
820.058	38.57
820.236	112.3
820.414	77.48
820.592	50.86
820.77	122.54
820.948	75.43
821.127	61.1
821.305	50.86
821.483	28.33
821.661	95.91
821.839	75.43
822.017	38.57
822.195	106.15
822.373	81.58
822.551	85.67
822.729	110.25
822.907	36.52
823.085	110.25
823.262	42.67
823.44	52.91
823.618	73.39
823.796	93.87
823.974	46.76
824.152	97.96
824.329	112.3
824.507	38.57
824.685	7.85
824.863	46.76
825.04	46.76
825.218	48.81
825.396	40.62
825.574	145.06
825.751	100.01
825.929	30.38
826.107	-0.34
826.284	46.76
826.462	40.62
826.639	59.05
826.817	20.14
826.994	71.34
827.172	-31.06
827.349	30.38
827.527	69.29
827.704	28.33
827.882	50.86
828.059	87.72
828.237	110.25
828.414	83.63
828.591	-20.82
828.769	22.19
828.946	87.72
829.124	5.8
829.301	67.24
829.478	36.52
829.655	114.34
829.833	69.29
830.01	-4.44
830.187	-20.82
830.364	69.29
830.542	63.15
830.719	124.58
830.896	54.95
831.073	81.58
831.25	38.57
831.427	87.72
831.604	34.47
831.782	89.77
831.959	116.39
832.136	65.19
832.313	54.95
832.49	-12.63
832.667	57
832.844	-10.58
833.021	-10.58
833.198	28.33
833.374	22.19
833.551	71.34
833.728	54.95
833.905	32.43
834.082	120.49
834.259	52.91
834.436	102.06
834.612	-0.34
834.789	34.47
834.966	89.77
835.143	71.34
835.319	3.75
835.496	24.23
835.673	18.09
835.85	102.06
836.026	59.05
836.203	61.1
836.38	91.82
836.556	-69.97
836.733	-39.25
836.909	71.34
837.086	-0.34
837.262	32.43
837.439	65.19
837.616	61.1
837.792	59.05
837.968	67.24
838.145	-18.77
838.321	34.47
838.498	77.48
838.674	54.95
838.851	83.63
839.027	71.34
839.203	40.62
839.38	-10.58
839.556	108.2
839.732	44.71
839.909	85.67
840.085	50.86
840.261	79.53
840.437	69.29
840.614	-26.96
840.79	40.62
840.966	65.19
841.142	11.95
841.318	52.91
841.494	83.63
841.671	79.53
841.847	30.38
842.023	59.05
842.199	77.48
842.375	28.33
842.551	24.23
842.727	46.76
842.903	91.82
843.079	7.85
843.255	9.9
843.431	52.91
843.607	28.33
843.783	46.76
843.959	-2.39
844.134	50.86
844.31	65.19
844.486	40.62
844.662	48.81
844.838	40.62
845.013	59.05
845.189	-26.96
845.365	36.52
845.541	-4.44
845.716	11.95
845.892	-8.53
846.068	52.91
846.244	13.99
846.419	79.53
846.595	48.81
846.77	34.47
846.946	-47.44
847.122	-43.35
847.297	48.81
847.473	-6.49
847.648	5.8
847.824	13.99
847.999	-14.68
848.175	69.29
848.35	61.1
848.526	95.91
848.701	-6.49
848.876	24.23
849.052	-74.07
849.227	34.47
849.403	36.52
849.578	48.81
849.753	50.86
849.929	85.67
850.104	-12.63
850.279	36.52
850.454	18.09
850.63	1.71
850.805	61.1
850.98	26.28
851.155	97.96
851.33	24.23
851.505	-47.44
851.681	9.9
851.856	9.9
852.031	97.96
852.206	81.58
852.381	108.2
852.556	9.9
852.731	54.95
852.906	-8.53
853.081	20.14
853.256	-18.77
853.431	69.29
853.606	77.48
853.781	-6.49
853.956	20.14
854.131	54.95
854.305	3.75
854.48	32.43
854.655	-0.34
854.83	13.99
855.005	-6.49
855.18	-20.82
855.354	7.85
855.529	71.34
855.704	34.47
855.879	18.09
856.053	65.19
856.228	44.71
856.403	24.23
856.577	83.63
856.752	22.19
856.926	34.47
857.101	-20.82
857.276	24.23
857.45	40.62
857.625	77.48
857.799	13.99
857.974	11.95
858.148	57
858.323	18.09
858.497	7.85
858.672	13.99
858.846	26.28
859.02	20.14
859.195	18.09
859.369	-22.87
859.543	-35.16
859.718	-0.34
859.892	-18.77
860.066	106.15
860.241	42.67
860.415	-16.73
860.589	13.99
860.763	42.67
860.938	-2.39
861.112	40.62
861.286	32.43
861.46	22.19
861.634	61.1
861.808	61.1
861.982	5.8
862.157	-18.77
862.331	-31.06
862.505	-22.87
862.679	1.71
862.853	95.91
863.027	3.75
863.201	-16.73
863.375	13.99
863.549	34.47
863.722	85.67
863.896	7.85
864.07	22.19
864.244	9.9
864.418	-31.06
864.592	20.14
864.766	13.99
864.939	24.23
865.113	-20.82
865.287	5.8
865.461	32.43
865.634	-55.64
865.808	57
865.982	38.57
866.156	-22.87
866.329	26.28
866.503	50.86
866.676	28.33
866.85	77.48
867.024	24.23
867.197	-0.34
867.371	-0.34
867.544	-8.53
867.718	38.57
867.891	22.19
868.065	-6.49
868.238	-22.87
868.412	-16.73
868.585	42.67
868.759	9.9
868.932	-2.39
869.105	7.85
869.279	-0.34
869.452	-2.39
869.625	36.52
869.799	-45.4
869.972	5.8
870.145	32.43
870.319	-12.63
870.492	-16.73
870.665	83.63
870.838	-29.01
871.011	-45.4
871.185	-39.25
871.358	20.14
871.531	100.01
871.704	-31.06
871.877	-8.53
872.05	22.19
872.223	22.19
872.396	3.75
872.569	-8.53
872.742	-12.63
872.915	-41.3
873.088	50.86
873.261	-0.34
873.434	7.85
873.607	11.95
873.78	22.19
873.953	-37.2
874.126	81.58
874.299	7.85
874.471	-37.2
874.644	44.71
874.817	18.09
874.99	59.05
875.163	-22.87
875.335	22.19
875.508	-14.68
875.681	42.67
875.853	36.52
876.026	50.86
876.199	13.99
876.371	-2.39
876.544	18.09
876.717	-0.34
876.889	30.38
877.062	40.62
877.234	26.28
877.407	-53.59
877.579	-0.34
877.752	-12.63
877.924	26.28
878.097	32.43
878.269	28.33
878.442	42.67
878.614	30.38
878.786	-12.63
878.959	-41.3
879.131	-35.16
879.303	26.28
879.476	34.47
879.648	22.19
879.82	11.95
879.993	3.75
880.165	-10.58
880.337	-69.97
880.509	13.99
880.681	-18.77
880.854	65.19
881.026	16.04
881.198	46.76
881.37	26.28
881.542	59.05
881.714	-61.78
881.886	-57.68
882.058	-14.68
882.23	18.09
882.402	-35.16
882.574	42.67
882.746	32.43
882.918	-51.54
883.09	34.47
883.262	81.58
883.434	-88.4
883.606	-18.77
883.778	-55.64
883.95	-14.68
884.122	9.9
884.293	36.52
884.465	13.99
884.637	-4.44
884.809	13.99
884.98	-18.77
885.152	32.43
885.324	-24.92
885.496	-84.31
885.667	61.1
885.839	7.85
886.011	-0.34
886.182	48.81
886.354	-8.53
886.525	-10.58
886.697	9.9
886.869	-49.49
887.04	-24.92
887.212	16.04
887.383	9.9
887.555	-14.68
887.726	-29.01
887.897	-69.97
888.069	-2.39
888.24	40.62
888.412	-24.92
888.583	-59.73
888.754	40.62
888.926	3.75
889.097	50.86
889.268	-102.74
889.44	7.85
889.611	-100.69
889.782	9.9
889.953	-65.88
890.125	73.39
890.296	-22.87
890.467	54.95
890.638	-8.53
890.809	30.38
890.98	34.47
891.151	30.38
891.323	9.9
891.494	16.04
891.665	-49.49
891.836	-29.01
892.007	28.33
892.178	16.04
892.349	3.75
892.52	7.85
892.691	54.95
892.862	-43.35
893.032	9.9
893.203	-0.34
893.374	-18.77
893.545	24.23
893.716	-67.92
893.887	-39.25
894.057	57
894.228	16.04
894.399	22.19
894.57	-51.54
894.74	7.85
894.911	-14.68
895.082	-6.49
895.253	-31.06
895.423	-2.39
895.594	11.95
895.764	26.28
895.935	16.04
896.106	-43.35
896.276	5.8
896.447	30.38
896.617	-20.82
896.788	-57.68
896.958	5.8
897.129	-39.25
897.299	59.05
897.47	26.28
897.64	-4.44
897.81	-55.64
897.981	18.09
898.151	83.63
898.322	-41.3
898.492	32.43
898.662	-63.83
898.832	-43.35
899.003	20.14
899.173	-39.25
899.343	-26.96
899.513	22.19
