Data from USB4F104151__132__13-58-02-117.txt Node

Date: Thu Mar 13 13:58:02 EDT 2025
User: louis
Spectrometer: USB4F10415
Trigger mode: 4
Integration Time (sec): 1.000000E-2
Scans to average: 1
Electric dark correction enabled: true
Nonlinearity correction enabled: false
Boxcar width: 0
XAxis mode: Wavelengths
Number of Pixels in Spectrum: 3648
>>>>>Begin Spectral Data<<<<<
178.204	-47.44
178.424	-47.44
178.644	-47.44
178.864	34.47
179.084	-69.97
179.304	-29.01
179.524	28.33
179.744	-84.31
179.964	28.33
180.184	-16.73
180.404	-16.73
180.624	38.57
180.844	-24.92
181.064	-26.96
181.283	57
181.503	34.47
181.723	11.95
181.943	38.57
182.163	-2.39
182.383	28.33
182.602	83.63
182.822	100.01
183.042	16.04
183.262	42.67
183.482	48.81
183.701	16.04
183.921	34.47
184.141	13.99
184.361	11.95
184.58	1.71
184.8	50.86
185.02	-4.44
185.239	-41.3
185.459	57
185.679	-22.87
185.898	83.63
186.118	22.19
186.338	-45.4
186.557	7.85
186.777	48.81
186.997	-53.59
187.216	20.14
187.436	59.05
187.655	16.04
187.875	26.28
188.095	-47.44
188.314	-8.53
188.534	-4.44
188.753	11.95
188.973	-12.63
189.192	-0.34
189.412	1.71
189.631	34.47
189.851	-8.53
190.07	26.28
190.29	24.23
190.509	26.28
190.729	16.04
190.948	61.1
191.168	-29.01
191.387	36.52
191.607	46.76
191.826	18.09
192.045	67.24
192.265	20.14
192.484	5.8
192.704	-53.59
192.923	75.43
193.142	93.87
193.362	-20.82
193.581	46.76
193.8	63.15
194.02	7.85
194.239	18.09
194.458	50.86
194.678	16.04
194.897	36.52
195.116	1.71
195.335	67.24
195.555	24.23
195.774	9.9
195.993	-4.44
196.212	-16.73
196.432	-4.44
196.651	57
196.87	13.99
197.089	73.39
197.308	32.43
197.528	34.47
197.747	-16.73
197.966	13.99
198.185	100.01
198.404	-6.49
198.623	16.04
198.842	40.62
199.062	-6.49
199.281	24.23
199.5	-45.4
199.719	-37.2
199.938	18.09
200.157	54.95
200.376	16.04
200.595	16.04
200.814	75.43
201.033	-82.26
201.252	7.85
201.471	-8.53
201.69	-31.06
201.909	40.62
202.128	59.05
202.347	13.99
202.566	36.52
202.785	42.67
203.004	85.67
203.223	48.81
203.442	32.43
203.661	85.67
203.879	7.85
204.098	81.58
204.317	-20.82
204.536	3.75
204.755	-6.49
204.974	120.49
205.193	38.57
205.411	18.09
205.63	-22.87
205.849	-24.92
206.068	7.85
206.287	28.33
206.505	46.76
206.724	46.76
206.943	1.71
207.162	50.86
207.381	5.8
207.599	-0.34
207.818	-14.68
208.037	67.24
208.255	1.71
208.474	-4.44
208.693	-0.34
208.911	34.47
209.13	-10.58
209.349	44.71
209.567	-8.53
209.786	-0.34
210.005	32.43
210.223	18.09
210.442	11.95
210.661	18.09
210.879	3.75
211.098	-45.4
211.316	26.28
211.535	67.24
211.753	-33.11
211.972	85.67
212.191	50.86
212.409	73.39
212.628	16.04
212.846	32.43
213.065	-16.73
213.283	-8.53
213.502	-10.58
213.72	-4.44
213.938	9.9
214.157	24.23
214.375	46.76
214.594	-33.11
214.812	97.96
215.031	50.86
215.249	3.75
215.467	71.34
215.686	18.09
215.904	54.95
216.122	24.23
216.341	44.71
216.559	18.09
216.778	81.58
216.996	36.52
217.214	59.05
217.432	-61.78
217.651	-24.92
217.869	65.19
218.087	18.09
218.306	-6.49
218.524	71.34
218.742	-26.96
218.96	24.23
219.179	7.85
219.397	34.47
219.615	65.19
219.833	32.43
220.051	-18.77
220.27	54.95
220.488	40.62
220.706	61.1
220.924	-26.96
221.142	16.04
221.36	42.67
221.578	16.04
221.796	3.75
222.015	44.71
222.233	69.29
222.451	22.19
222.669	-10.58
222.887	73.39
223.105	46.76
223.323	-90.45
223.541	-12.63
223.759	18.09
223.977	44.71
224.195	63.15
224.413	7.85
224.631	57
224.849	18.09
225.067	24.23
225.285	-33.11
225.503	106.15
225.721	79.53
225.939	22.19
226.157	-12.63
226.375	108.2
226.592	-76.12
226.81	91.82
227.028	-31.06
227.246	143.02
227.464	-39.25
227.682	-16.73
227.9	102.06
228.117	34.47
228.335	73.39
228.553	-2.39
228.771	16.04
228.989	-31.06
229.206	13.99
229.424	16.04
229.642	42.67
229.86	-31.06
230.077	44.71
230.295	46.76
230.513	-2.39
230.731	50.86
230.948	48.81
231.166	16.04
231.384	-22.87
231.601	-14.68
231.819	48.81
232.037	9.9
232.254	38.57
232.472	9.9
232.689	-8.53
232.907	63.15
233.125	-24.92
233.342	13.99
233.56	5.8
233.777	5.8
233.995	69.29
234.213	28.33
234.43	52.91
234.648	61.1
234.865	77.48
235.083	67.24
235.3	-16.73
235.518	46.76
235.735	48.81
235.953	-31.06
236.17	34.47
236.388	3.75
236.605	89.77
236.822	24.23
237.04	-6.49
237.257	65.19
237.475	9.9
237.692	48.81
237.909	-31.06
238.127	50.86
238.344	-4.44
238.562	61.1
238.779	34.47
238.996	-0.34
239.214	-12.63
239.431	3.75
239.648	110.25
239.865	30.38
240.083	30.38
240.3	71.34
240.517	-12.63
240.735	50.86
240.952	77.48
241.169	-6.49
241.386	9.9
241.603	-35.16
241.821	28.33
242.038	7.85
242.255	46.76
242.472	-22.87
242.689	11.95
242.907	36.52
243.124	-80.21
243.341	-47.44
243.558	18.09
243.775	52.91
243.992	-8.53
244.209	18.09
244.426	44.71
244.643	69.29
244.86	36.52
245.078	97.96
245.295	-35.16
245.512	91.82
245.729	-20.82
245.946	-33.11
246.163	11.95
246.38	85.67
246.597	57
246.814	-4.44
247.031	65.19
247.248	24.23
247.464	54.95
247.681	44.71
247.898	30.38
248.115	-29.01
248.332	3.75
248.549	83.63
248.766	18.09
248.983	57
249.2	81.58
249.417	65.19
249.633	11.95
249.85	24.23
250.067	7.85
250.284	-41.3
250.501	40.62
250.717	124.58
250.934	26.28
251.151	46.76
251.368	-4.44
251.585	42.67
251.801	-8.53
252.018	30.38
252.235	46.76
252.451	42.67
252.668	22.19
252.885	-4.44
253.102	16.04
253.318	93.87
253.535	44.71
253.752	48.81
253.968	40.62
254.185	28.33
254.401	-51.54
254.618	65.19
254.835	87.72
255.051	52.91
255.268	-6.49
255.484	89.77
255.701	7.85
255.917	54.95
256.134	-47.44
256.351	18.09
256.567	50.86
256.784	122.54
257	73.39
257.217	16.04
257.433	34.47
257.65	61.1
257.866	32.43
258.082	-14.68
258.299	106.15
258.515	7.85
258.732	-16.73
258.948	16.04
259.165	7.85
259.381	61.1
259.597	50.86
259.814	57
260.03	26.28
260.246	116.39
260.463	-14.68
260.679	69.29
260.895	-45.4
261.112	38.57
261.328	-8.53
261.544	-8.53
261.761	97.96
261.977	46.76
262.193	-16.73
262.409	3.75
262.626	-31.06
262.842	-10.58
263.058	-4.44
263.274	34.47
263.49	1.71
263.707	-6.49
263.923	-8.53
264.139	95.91
264.355	57
264.571	3.75
264.787	46.76
265.004	30.38
265.22	61.1
265.436	32.43
265.652	30.38
265.868	11.95
266.084	3.75
266.3	20.14
266.516	46.76
266.732	-8.53
266.948	-51.54
267.164	-10.58
267.38	77.48
267.596	16.04
267.812	-6.49
268.028	42.67
268.244	106.15
268.46	20.14
268.676	42.67
268.892	44.71
269.108	59.05
269.324	-18.77
269.54	112.3
269.756	30.38
269.972	73.39
270.188	16.04
270.403	-18.77
270.619	1.71
270.835	57
271.051	-2.39
271.267	18.09
271.483	26.28
271.698	-14.68
271.914	79.53
272.13	11.95
272.346	11.95
272.562	-12.63
272.777	57
272.993	32.43
273.209	71.34
273.425	79.53
273.64	5.8
273.856	93.87
274.072	13.99
274.287	46.76
274.503	46.76
274.719	97.96
274.934	48.81
275.15	18.09
275.366	-41.3
275.581	75.43
275.797	57
276.012	20.14
276.228	26.28
276.444	-24.92
276.659	52.91
276.875	50.86
277.09	50.86
277.306	54.95
277.521	138.92
277.737	73.39
277.952	40.62
278.168	52.91
278.383	30.38
278.599	11.95
278.814	46.76
279.03	36.52
279.245	54.95
279.461	52.91
279.676	34.47
279.892	69.29
280.107	40.62
280.322	-41.3
280.538	85.67
280.753	57
280.969	48.81
281.184	97.96
281.399	-29.01
281.615	24.23
281.83	26.28
282.045	-31.06
282.26	44.71
282.476	-0.34
282.691	85.67
282.906	-37.2
283.122	11.95
283.337	-12.63
283.552	124.58
283.767	36.52
283.983	71.34
284.198	-26.96
284.413	26.28
284.628	-33.11
284.843	7.85
285.058	36.52
285.274	42.67
285.489	-8.53
285.704	77.48
285.919	59.05
286.134	-4.44
286.349	46.76
286.564	-35.16
286.779	71.34
286.995	-16.73
287.21	9.9
287.425	22.19
287.64	30.38
287.855	75.43
288.07	-4.44
288.285	42.67
288.5	-0.34
288.715	69.29
288.93	54.95
289.145	3.75
289.36	-37.2
289.575	-14.68
289.79	44.71
290.004	9.9
290.219	50.86
290.434	67.24
290.649	-45.4
290.864	5.8
291.079	-39.25
291.294	79.53
291.509	59.05
291.724	69.29
291.938	67.24
292.153	11.95
292.368	30.38
292.583	71.34
292.798	40.62
293.012	69.29
293.227	18.09
293.442	61.1
293.657	38.57
293.871	48.81
294.086	40.62
294.301	46.76
294.516	48.81
294.73	34.47
294.945	7.85
295.16	28.33
295.374	65.19
295.589	63.15
295.804	26.28
296.018	13.99
296.233	59.05
296.447	50.86
296.662	40.62
296.877	22.19
297.091	18.09
297.306	-16.73
297.52	-2.39
297.735	42.67
297.949	-6.49
298.164	20.14
298.378	-10.58
298.593	50.86
298.807	7.85
299.022	30.38
299.236	36.52
299.451	-12.63
299.665	79.53
299.88	-6.49
300.094	38.57
300.309	-4.44
300.523	59.05
300.737	40.62
300.952	89.77
301.166	-2.39
301.381	3.75
301.595	16.04
301.809	67.24
302.024	52.91
302.238	13.99
302.452	79.53
302.667	63.15
302.881	63.15
303.095	57
303.309	83.63
303.524	-6.49
303.738	5.8
303.952	24.23
304.166	18.09
304.381	34.47
304.595	91.82
304.809	-6.49
305.023	16.04
305.237	38.57
305.452	50.86
305.666	63.15
305.88	81.58
306.094	24.23
306.308	-0.34
306.522	77.48
306.736	-12.63
306.95	50.86
307.164	108.2
307.379	-2.39
307.593	91.82
307.807	67.24
308.021	52.91
308.235	59.05
308.449	67.24
308.663	24.23
308.877	18.09
309.091	-0.34
309.305	40.62
309.519	-24.92
309.733	67.24
309.947	22.19
310.161	13.99
310.374	-0.34
310.588	42.67
310.802	28.33
311.016	65.19
311.23	67.24
311.444	-47.44
311.658	-0.34
311.872	18.09
312.085	54.95
312.299	-20.82
312.513	9.9
312.727	9.9
312.941	42.67
313.154	11.95
313.368	83.63
313.582	36.52
313.796	81.58
314.009	-2.39
314.223	69.29
314.437	67.24
314.651	-4.44
314.864	38.57
315.078	-29.01
315.292	44.71
315.505	85.67
315.719	34.47
315.933	63.15
316.146	5.8
316.36	36.52
316.573	-20.82
316.787	91.82
317.001	13.99
317.214	65.19
317.428	52.91
317.641	-14.68
317.855	13.99
318.068	26.28
318.282	20.14
318.495	50.86
318.709	85.67
318.922	11.95
319.136	75.43
319.349	71.34
319.563	5.8
319.776	61.1
319.99	1.71
320.203	50.86
320.417	48.81
320.63	-16.73
320.843	40.62
321.057	34.47
321.27	54.95
321.483	42.67
321.697	11.95
321.91	5.8
322.124	83.63
322.337	57
322.55	11.95
322.763	22.19
322.977	42.67
323.19	106.15
323.403	30.38
323.617	46.76
323.83	22.19
324.043	42.67
324.256	65.19
324.469	59.05
324.683	77.48
324.896	-24.92
325.109	-16.73
325.322	50.86
325.535	-4.44
325.748	24.23
325.962	65.19
326.175	40.62
326.388	77.48
326.601	16.04
326.814	91.82
327.027	-14.68
327.24	32.43
327.453	9.9
327.666	7.85
327.879	24.23
328.092	48.81
328.305	-12.63
328.518	114.34
328.731	7.85
328.944	67.24
329.157	11.95
329.37	13.99
329.583	61.1
329.796	13.99
330.009	-14.68
330.222	52.91
330.435	67.24
330.648	16.04
330.861	67.24
331.073	1.71
331.286	57
331.499	18.09
331.712	-14.68
331.925	20.14
332.138	61.1
332.35	40.62
332.563	20.14
332.776	-8.53
332.989	16.04
333.202	69.29
333.414	54.95
333.627	18.09
333.84	73.39
334.053	16.04
334.265	42.67
334.478	28.33
334.691	52.91
334.903	7.85
335.116	65.19
335.329	100.01
335.541	13.99
335.754	50.86
335.966	-26.96
336.179	-29.01
336.392	20.14
336.604	32.43
336.817	40.62
337.029	130.73
337.242	57
337.454	75.43
337.667	7.85
337.88	46.76
338.092	34.47
338.305	-26.96
338.517	-8.53
338.729	59.05
338.942	112.3
339.154	48.81
339.367	-26.96
339.579	102.06
339.792	-16.73
340.004	-16.73
340.217	46.76
340.429	-14.68
340.641	32.43
340.854	77.48
341.066	42.67
341.278	16.04
341.491	5.8
341.703	42.67
341.915	-16.73
342.128	67.24
342.34	22.19
342.552	-12.63
342.764	54.95
342.977	7.85
343.189	22.19
343.401	59.05
343.613	34.47
343.826	67.24
344.038	20.14
344.25	-6.49
344.462	-6.49
344.674	-24.92
344.886	48.81
345.099	75.43
345.311	52.91
345.523	50.86
345.735	-33.11
345.947	48.81
346.159	11.95
346.371	42.67
346.583	-10.58
346.795	77.48
347.007	36.52
347.219	24.23
347.431	24.23
347.643	24.23
347.855	24.23
348.067	30.38
348.279	-8.53
348.491	40.62
348.703	30.38
348.915	63.15
349.127	5.8
349.339	-55.64
349.551	-10.58
349.763	32.43
349.975	24.23
350.187	63.15
350.399	100.01
350.61	102.06
350.822	-20.82
351.034	63.15
351.246	34.47
351.458	67.24
351.669	-8.53
351.881	18.09
352.093	59.05
352.305	-43.35
352.517	44.71
352.728	57
352.94	32.43
353.152	73.39
353.363	30.38
353.575	1.71
353.787	11.95
353.999	22.19
354.21	48.81
354.422	65.19
354.633	40.62
354.845	65.19
355.057	26.28
355.268	67.24
355.48	52.91
355.692	28.33
355.903	40.62
356.115	69.29
356.326	-2.39
356.538	52.91
356.749	32.43
356.961	34.47
357.172	-37.2
357.384	57
357.595	116.39
357.807	24.23
358.018	9.9
358.23	34.47
358.441	-57.68
358.653	44.71
358.864	-0.34
359.075	46.76
359.287	30.38
359.498	85.67
359.709	26.28
359.921	20.14
360.132	81.58
360.344	50.86
360.555	32.43
360.766	50.86
360.977	38.57
361.189	-8.53
361.4	67.24
361.611	38.57
361.823	36.52
362.034	38.57
362.245	26.28
362.456	18.09
362.667	91.82
362.879	61.1
363.09	-2.39
363.301	20.14
363.512	-10.58
363.723	-26.96
363.935	54.95
364.146	46.76
364.357	18.09
364.568	106.15
364.779	-31.06
364.99	-6.49
365.201	30.38
365.412	30.38
365.623	-18.77
365.834	26.28
366.045	42.67
366.256	77.48
366.467	67.24
366.678	44.71
366.889	24.23
367.1	112.3
367.311	65.19
367.522	83.63
367.733	83.63
367.944	110.25
368.155	-10.58
368.366	44.71
368.577	24.23
368.788	52.91
368.999	32.43
369.209	30.38
369.42	32.43
369.631	118.44
369.842	75.43
370.053	-16.73
370.264	85.67
370.474	73.39
370.685	22.19
370.896	46.76
371.107	85.67
371.317	24.23
371.528	50.86
371.739	40.62
371.95	50.86
372.16	52.91
372.371	40.62
372.582	61.1
372.792	16.04
373.003	44.71
373.214	16.04
373.424	32.43
373.635	138.92
373.846	40.62
374.056	-20.82
374.267	-2.39
374.477	-2.39
374.688	87.72
374.898	59.05
375.109	18.09
375.319	30.38
375.53	42.67
375.74	46.76
375.951	67.24
376.161	57
376.372	104.11
376.582	18.09
376.793	26.28
377.003	112.3
377.214	34.47
377.424	48.81
377.635	89.77
377.845	-4.44
378.055	100.01
378.266	11.95
378.476	57
378.686	89.77
378.897	83.63
379.107	75.43
379.317	50.86
379.528	-12.63
379.738	38.57
379.948	24.23
380.158	48.81
380.369	54.95
380.579	63.15
380.789	40.62
380.999	42.67
381.21	65.19
381.42	73.39
381.63	36.52
381.84	100.01
382.05	28.33
382.261	50.86
382.471	59.05
382.681	46.76
382.891	16.04
383.101	24.23
383.311	-29.01
383.521	48.81
383.731	5.8
383.941	57
384.151	67.24
384.361	120.49
384.571	54.95
384.781	63.15
384.991	69.29
385.201	102.06
385.411	63.15
385.621	59.05
385.831	54.95
386.041	16.04
386.251	-31.06
386.461	77.48
386.671	-4.44
386.881	36.52
387.091	16.04
387.301	61.1
387.511	91.82
387.72	9.9
387.93	28.33
388.14	69.29
388.35	-6.49
388.56	38.57
388.769	81.58
388.979	91.82
389.189	20.14
389.399	77.48
389.609	81.58
389.818	63.15
390.028	34.47
390.238	-4.44
390.447	-47.44
390.657	67.24
390.867	30.38
391.076	40.62
391.286	57
391.496	57
391.705	11.95
391.915	87.72
392.125	40.62
392.334	65.19
392.544	110.25
392.753	122.54
392.963	132.78
393.172	114.34
393.382	18.09
393.591	34.47
393.801	28.33
394.01	50.86
394.22	48.81
394.429	79.53
394.639	-12.63
394.848	18.09
395.058	44.71
395.267	57
395.477	11.95
395.686	46.76
395.895	147.11
396.105	65.19
396.314	52.91
396.524	85.67
396.733	69.29
396.942	54.95
397.152	40.62
397.361	102.06
397.57	44.71
397.78	44.71
397.989	85.67
398.198	106.15
398.407	122.54
398.617	100.01
398.826	155.3
399.035	73.39
399.244	136.87
399.453	190.12
399.663	91.82
399.872	93.87
400.081	63.15
400.29	36.52
400.499	136.87
400.708	57
400.917	57
401.127	153.26
401.336	22.19
401.545	108.2
401.754	71.34
401.963	77.48
402.172	40.62
402.381	40.62
402.59	120.49
402.799	112.3
403.008	48.81
403.217	138.92
403.426	136.87
403.635	71.34
403.844	112.3
404.053	104.11
404.262	104.11
404.471	124.58
404.68	124.58
404.888	54.95
405.097	44.71
405.306	120.49
405.515	132.78
405.724	77.48
405.933	126.63
406.142	167.59
406.35	116.39
406.559	181.93
406.768	143.02
406.977	124.58
407.185	112.3
407.394	202.41
407.603	128.68
407.812	151.21
408.02	118.44
408.229	132.78
408.438	190.12
408.646	165.54
408.855	167.59
409.064	75.43
409.272	214.7
409.481	202.41
409.69	179.88
409.898	190.12
410.107	206.5
410.315	202.41
410.524	167.59
410.733	208.55
410.941	282.28
411.15	220.84
411.358	251.56
411.567	280.23
411.775	315.05
411.984	280.23
412.192	351.91
412.401	253.61
412.609	288.42
412.818	431.78
413.026	337.57
413.234	306.85
413.443	298.66
413.651	362.15
413.86	396.96
414.068	296.61
414.276	417.44
414.485	433.83
414.693	446.12
414.901	450.21
415.11	392.87
415.318	444.07
415.526	460.45
415.734	538.27
415.943	530.08
416.151	552.61
416.359	581.28
416.567	548.51
416.776	601.76
416.984	538.27
417.192	646.82
417.4	614.05
417.608	607.91
417.817	650.91
418.025	665.25
418.233	878.24
418.441	730.78
418.649	773.79
418.857	802.46
419.065	781.98
419.273	806.56
419.481	886.43
419.689	896.67
419.897	945.82
420.105	951.96
420.313	1007.26
420.521	974.49
420.729	1001.12
420.937	1191.58
421.145	1123.99
421.353	1253.02
421.561	1257.11
421.769	1197.72
421.977	1304.21
422.185	1298.07
422.393	1306.26
422.601	1529.49
422.809	1400.47
423.017	1472.15
423.224	1490.58
423.432	1603.22
423.64	1629.84
423.848	1775.25
424.056	1728.14
424.263	1846.93
424.471	1777.3
424.679	1787.54
424.887	1885.84
425.094	1953.42
425.302	1951.37
425.51	2035.34
425.718	2094.73
425.925	2147.98
426.133	2211.46
426.341	2283.14
426.548	2426.5
426.756	2379.4
426.964	2590.34
427.171	2608.77
427.379	2602.63
427.586	2924.16
427.794	2784.9
428.001	2932.35
428.209	3161.72
428.417	3030.65
428.624	3139.19
428.832	3384.95
429.039	3233.4
429.247	3198.59
429.454	3565.17
429.662	3782.26
429.869	3589.75
430.076	3950.19
430.284	3720.82
430.491	3825.26
430.699	4007.53
430.906	4038.25
431.114	3937.9
431.321	4195.95
431.528	4384.36
431.736	4574.82
431.943	4830.82
432.15	4613.73
432.358	4740.71
432.565	5031.52
432.772	5017.18
432.979	5228.12
433.187	5529.17
433.394	5338.71
433.601	5725.78
433.808	5676.63
434.016	5750.35
434.223	6000.21
434.43	6354.51
434.637	6229.58
434.844	6725.19
435.052	6688.32
435.259	6788.68
435.466	6639.17
435.673	6649.41
435.88	7056.96
436.087	7411.26
436.294	7298.62
436.501	7302.72
436.708	7530.04
436.915	7712.31
437.122	8166.96
437.329	7988.78
437.537	8343.08
437.743	8275.5
437.95	8418.86
438.157	8551.98
438.364	9285.15
438.571	9010.72
438.778	8936.99
438.985	9860.63
439.192	9373.21
439.399	9958.93
439.606	9494.04
439.813	10227.21
440.02	10927.62
440.227	10679.82
440.433	10630.66
440.64	10806.79
440.847	10825.22
441.054	11204.1
441.261	11601.4
441.467	11845.11
441.674	11945.46
441.881	12082.67
442.088	12125.68
442.294	12109.3
442.501	12355.05
442.708	12572.14
442.914	13227.49
443.121	13786.58
443.328	13417.95
443.534	14304.72
443.741	14304.72
443.948	13800.92
444.154	14677.45
444.361	14745.03
444.568	14908.87
444.774	14912.97
444.981	15179.2
445.187	15467.97
445.394	15994.29
445.6	15793.59
445.807	17300.9
446.013	16774.57
446.22	16985.51
446.426	17307.04
446.633	17923.48
446.839	18232.72
447.046	17638.81
447.252	18939.27
447.459	18625.93
447.665	18644.37
447.871	19412.35
448.078	20100.47
448.284	19279.24
448.491	19742.08
448.697	20544.88
448.903	21325.16
449.11	21138.79
449.316	20721.01
449.522	21030.25
449.728	21568.87
449.935	21747.04
450.141	21798.24
450.347	22371.67
450.553	21779.81
450.76	21962.08
450.966	22369.62
451.172	22156.63
451.378	23016.78
451.584	22703.44
451.791	23094.6
451.997	23076.17
452.203	23450.95
452.409	23350.6
452.615	23256.39
452.821	22318.42
453.027	22304.09
453.233	23344.45
453.44	22365.53
453.646	22650.19
453.852	23090.51
454.058	23110.99
454.264	22396.24
454.47	22719.82
454.676	22447.44
454.882	23139.66
455.088	21067.11
455.294	21427.56
455.5	21914.97
455.705	21988.7
455.911	21484.9
456.117	20850.03
456.323	20229.49
456.529	19441.03
456.735	20342.13
456.941	19832.19
457.147	19684.73
457.352	18765.2
457.558	18679.18
457.764	18883.98
457.97	18343.31
458.176	18005.4
458.381	17911.19
458.587	17337.76
458.793	17089.96
458.999	16080.31
459.204	17558.94
459.41	17089.96
459.616	15801.79
459.821	15865.27
460.027	15812.03
460.233	15443.39
460.438	14833.1
460.644	14990.79
460.85	14376.4
461.055	13837.78
461.261	14112.21
461.466	13010.4
461.672	12754.41
461.878	13632.99
462.083	12658.15
462.289	12580.33
462.494	12320.24
462.7	11759.1
462.905	11480.57
463.111	11798.01
463.316	11855.35
463.522	11468.28
463.727	11392.51
463.932	11652.6
464.138	11331.07
464.343	11519.48
464.549	11222.53
464.754	11638.27
464.959	11509.24
465.165	11126.27
465.37	10841.61
465.575	10528.27
465.781	11050.5
465.986	11075.07
466.191	10718.73
466.397	10745.35
466.602	9897.49
466.807	10286.61
467.012	10272.27
467.218	10128.91
467.423	10386.96
467.628	10479.11
467.833	10597.9
468.038	10384.91
468.244	10061.33
468.449	10214.93
468.654	9864.72
468.859	9879.06
469.064	10094.1
469.269	9696.79
469.474	9479.71
469.679	9979.41
469.885	9381.4
470.09	9649.69
470.295	9610.78
470.5	9313.82
470.705	9518.62
470.91	9170.46
471.115	9090.59
471.32	9313.82
471.525	8965.67
471.73	9018.91
471.935	8701.48
472.139	8572.46
472.344	8670.76
472.549	8631.85
472.754	8406.57
472.959	8390.19
473.164	8056.37
473.369	8085.04
473.574	8472.11
473.778	8410.67
473.983	8328.75
474.188	8148.53
474.393	7876.15
474.598	7882.29
474.802	7892.53
475.007	7943.73
475.212	7726.64
475.417	7366.2
475.621	7534.14
475.826	7571
476.031	7550.52
476.235	7136.83
476.44	7413.31
476.645	7112.25
476.849	7120.45
477.054	7104.06
477.259	7142.97
477.463	6874.69
477.668	6870.59
477.872	6970.94
478.077	6788.68
478.282	6637.13
478.486	6555.21
478.691	6585.93
478.895	6571.59
479.1	6469.19
479.304	6403.66
479.509	6280.78
479.713	6411.85
479.918	6315.59
480.122	6266.44
480.326	6256.2
480.531	6338.12
480.735	6211.15
480.94	6168.14
481.144	6299.21
481.348	6149.71
481.553	6157.9
481.757	5965.39
481.961	6041.17
482.166	5951.06
482.37	6221.39
482.574	5996.11
482.778	6071.89
482.983	6024.78
483.187	6182.48
483.391	6116.94
483.595	6020.69
483.8	5922.38
484.004	5998.16
484.208	6041.17
484.412	5981.78
484.616	6014.54
484.821	5912.14
485.025	6123.09
485.229	6172.24
485.433	6096.46
485.637	6078.03
485.841	6229.58
486.045	6032.97
486.249	6061.65
486.453	5989.97
486.657	5877.33
486.861	6209.1
487.065	5899.86
487.269	5926.48
487.473	5897.81
487.677	6135.37
487.881	6135.37
488.085	6039.12
488.289	6112.85
488.493	6045.26
488.697	5987.92
488.901	6229.58
489.105	6020.69
489.309	6233.68
489.512	6362.7
489.716	6041.17
489.92	6196.81
490.124	6166.09
490.328	6342.22
490.531	6239.82
490.735	6276.68
490.939	6280.78
491.143	6278.73
491.346	6397.51
491.55	6364.75
491.754	6387.27
491.958	6338.12
492.161	6403.66
492.365	6377.03
492.569	6383.18
492.772	6458.95
492.976	6573.64
493.18	6428.23
493.383	6620.74
493.587	6651.46
493.79	6602.31
493.994	6579.78
494.197	6897.22
494.401	6819.39
494.605	6637.13
494.808	7020.1
495.012	6792.77
495.215	6972.99
495.419	6968.9
495.622	6966.85
495.825	7165.5
496.029	7114.3
496.232	7315
496.436	7269.95
496.639	7343.67
496.843	7372.35
497.046	7478.84
497.249	7659.06
497.453	7650.87
497.656	7913.01
497.859	7794.23
498.063	8005.17
498.266	8054.32
498.469	8074.8
498.673	8138.29
498.876	8455.72
499.079	8394.28
499.282	8341.04
499.485	8566.31
499.689	8582.7
499.892	8744.49
500.095	8744.49
500.298	9109.02
500.501	8875.56
500.705	9219.61
500.908	9203.23
501.111	9336.35
501.314	9459.23
501.517	9655.83
501.72	9692.69
501.923	9758.23
502.126	9846.29
502.329	10102.29
502.532	10176.02
502.735	10264.08
502.938	10382.86
503.141	10645
503.344	10685.96
503.547	10581.51
503.75	10931.72
503.953	11126.27
504.156	11412.99
504.359	11316.73
504.562	11290.11
504.765	11634.17
504.968	11701.75
505.17	11830.77
505.373	11947.51
505.576	12256.75
505.779	12479.98
505.982	12432.88
506.185	12740.07
506.387	12604.91
506.59	12586.47
506.793	13237.73
506.996	13237.73
507.198	13698.52
507.401	13622.75
507.604	13735.39
507.807	14138.83
508.009	14015.96
508.212	13999.57
508.415	14372.3
508.617	14587.34
508.82	14697.93
509.022	14753.23
509.225	15173.06
509.428	15310.27
509.63	15484.35
509.833	15476.16
510.035	16049.59
510.238	15930.81
510.44	16160.18
510.643	16407.98
510.845	16448.94
511.048	16524.72
511.25	16739.76
511.453	16975.27
511.655	17448.35
511.858	17579.42
512.06	17528.22
512.262	17581.47
512.465	17939.86
512.667	18222.48
512.87	18537.87
513.072	18472.34
513.274	18947.47
513.477	18935.18
513.679	19125.64
513.881	19447.17
514.084	19621.25
514.286	19627.39
514.488	20204.92
514.69	20794.73
514.893	20792.69
515.095	20825.45
515.297	21069.16
515.499	21153.13
515.701	21538.15
515.904	21798.24
516.106	21951.84
516.308	22121.82
516.51	22699.34
516.712	22357.33
516.914	22652.24
517.116	23147.85
517.318	23608.64
517.52	23717.18
517.722	23860.54
517.925	24186.17
518.127	24327.48
518.329	24436.02
518.531	24479.03
518.733	25081.13
518.935	25261.35
519.136	25167.15
519.338	25761.06
519.54	25750.82
519.742	26322.2
519.944	26148.12
520.146	26793.23
520.348	27262.22
520.55	27145.48
520.752	27278.6
520.954	27854.08
521.155	27809.03
521.357	28028.16
521.559	28269.82
521.761	28853.49
521.963	28542.2
522.164	28837.11
522.366	28976.37
522.568	29271.28
522.77	29652.2
522.971	29967.59
523.173	29809.89
523.375	30237.92
523.576	30018.78
523.778	30315.74
523.98	30561.5
524.181	31079.63
524.383	30956.75
524.584	31349.96
524.786	31634.63
524.988	31524.04
525.189	32111.81
525.391	32066.75
525.592	32322.75
525.794	32500.92
525.995	32654.52
526.197	32750.77
526.398	32853.17
526.6	32791.73
526.801	33092.79
527.003	33377.45
527.204	33580.2
527.406	33414.32
527.607	33643.69
527.808	33625.26
528.01	33537.19
528.211	33735.85
528.412	34122.91
528.614	34309.28
528.815	34376.86
529.016	34567.32
529.218	34362.53
529.419	34751.64
529.62	35130.51
529.822	34720.92
530.023	34831.51
530.224	34995.35
530.425	35400.85
530.626	34718.87
530.828	34870.42
531.029	35277.97
531.23	35347.6
531.431	35179.67
531.632	35452.05
531.833	35769.48
532.035	35372.17
532.236	35476.62
532.437	35746.95
532.638	35445.9
532.839	35841.16
533.04	35888.26
533.241	35347.6
533.442	36152.45
533.643	36217.99
533.844	35835.02
534.045	35933.32
534.246	35406.99
534.447	36420.73
534.648	36148.36
534.849	36129.92
535.05	36041.86
535.251	36131.97
535.451	36211.84
535.652	36439.17
535.853	36080.77
536.054	36711.55
536.255	36648.06
536.456	35871.88
536.657	36600.96
536.857	36637.82
537.058	35935.37
537.259	36512.89
537.46	36707.45
537.66	36355.2
537.861	36514.94
538.062	36209.79
538.263	36547.71
538.463	36510.85
538.664	36392.06
538.865	36510.85
539.065	36635.77
539.266	36129.92
539.466	36420.73
539.667	35976.33
539.868	36674.68
540.068	36459.65
540.269	36336.77
540.469	36588.67
540.67	36635.77
540.87	36584.57
541.071	36430.97
541.271	36713.59
541.472	36682.87
541.672	36447.36
541.873	36025.48
542.073	35923.08
542.274	36555.9
542.474	36603
542.675	36078.72
542.875	36803.71
543.075	36387.97
543.276	35867.78
543.476	36564.09
543.676	36289.66
543.877	36547.71
544.077	36598.91
544.277	36222.08
544.478	36351.1
544.678	36803.71
544.878	36508.8
545.078	36383.87
545.279	36519.04
545.479	36185.22
545.679	36254.85
545.879	36680.83
546.079	36701.31
546.28	36506.75
546.48	36398.21
546.68	36580.48
546.88	36070.53
547.08	36578.43
547.28	36195.46
547.48	36422.78
547.68	36588.67
547.88	36224.13
548.081	36287.62
548.281	36410.5
548.481	36686.97
548.681	36805.75
548.881	36426.88
549.081	36451.45
549.28	36488.32
549.48	36596.86
549.68	36109.44
549.88	36598.91
550.08	36244.61
550.28	36400.26
550.48	36170.88
550.68	36676.73
550.88	36275.33
551.08	36418.69
551.279	36596.86
551.479	36195.46
551.679	36166.79
551.879	36070.53
552.079	36660.35
552.278	36064.39
552.478	36455.55
552.678	36453.5
552.878	36367.49
553.077	36138.12
553.277	35859.59
553.477	36011.14
553.676	36052.1
553.876	36222.08
554.076	36301.95
554.275	35943.56
554.475	35947.65
554.674	36138.12
554.874	36289.66
555.074	36230.27
555.273	36314.24
555.473	36226.18
555.672	35777.67
555.872	36037.76
556.071	35800.2
556.271	36344.96
556.47	35701.9
556.67	35607.69
556.869	35425.42
557.068	35961.99
557.268	35450
557.467	35740.81
557.667	35302.54
557.866	35667.08
558.065	35732.62
558.265	35290.26
558.464	35353.74
558.663	35611.79
558.863	35075.22
559.062	35714.19
559.261	35605.64
559.461	35417.23
559.66	35171.47
559.859	35392.65
560.058	34710.68
560.258	35183.76
560.457	34774.17
560.656	35433.61
560.855	35163.28
561.054	34835.61
561.253	34430.11
561.453	34387.1
561.652	34753.69
561.851	34915.48
562.05	34616.47
562.249	34540.7
562.448	35026.07
562.647	34845.85
562.846	34696.35
563.045	34675.87
563.244	34395.29
563.443	34776.22
563.642	33961.12
563.841	34020.52
564.04	33918.12
564.239	34657.43
564.438	33918.12
564.637	34313.38
564.836	33905.83
565.035	33639.59
565.234	34108.58
565.432	33842.34
565.631	33926.31
565.83	33995.94
566.029	33883.3
566.228	33756.33
566.427	33457.32
566.625	33500.33
566.824	33170.61
567.023	33635.5
567.222	32916.66
567.42	33510.57
567.619	33318.06
567.818	33178.8
568.016	33135.79
568.215	33617.07
568.414	32902.32
568.612	33143.98
568.811	33399.98
569.01	33017.01
569.208	32636.09
569.407	32890.04
569.605	32425.15
569.804	32767.16
570.002	32425.15
570.201	32476.35
570.4	32066.75
570.598	32160.96
570.797	32111.81
570.995	32226.49
571.193	31569.1
571.392	32029.89
571.59	31726.79
571.789	31700.17
571.987	31458.51
572.186	32025.79
572.384	31710.41
572.582	31571.14
572.781	31593.67
572.979	31188.17
573.177	31470.79
573.376	31460.55
573.574	30934.23
573.772	31386.83
573.971	31012.05
574.169	30719.19
574.367	30575.83
574.565	30971.09
574.763	30614.74
574.962	30684.37
575.16	30227.68
575.358	30342.36
575.556	29709.54
575.754	30504.15
575.952	29996.26
576.151	29732.07
576.349	29916.39
576.547	29787.36
576.745	29758.69
576.943	29744.36
577.141	29705.45
577.339	29725.93
577.537	29480.17
577.735	29398.25
577.933	29185.26
578.131	29291.76
578.329	28783.86
578.527	29050.1
578.725	29062.38
578.923	29271.28
579.121	28902.64
579.319	28603.64
579.516	28937.46
579.714	28536.06
579.912	28763.38
580.11	28607.73
580.308	28593.4
580.506	28505.34
580.704	28003.58
580.901	28071.17
581.099	28005.63
581.297	27872.51
581.495	27643.14
581.692	28306.68
581.89	27467.02
582.088	27782.4
582.285	27587.85
582.483	27788.55
582.681	27419.91
582.878	27368.71
583.076	27122.96
583.274	27340.04
583.471	27094.29
583.669	27077.9
583.866	26991.89
584.064	26809.62
584.262	26527
584.459	27196.68
584.657	26854.67
584.854	27176.2
585.052	26383.64
585.249	26705.17
585.447	26547.48
585.644	26324.25
585.841	26109.21
586.039	26400.02
586.236	26015.01
586.434	26203.42
586.631	26225.95
586.828	26035.49
587.026	25781.54
587.223	25611.56
587.42	25666.85
587.618	25718.05
587.815	25419.05
588.012	25398.57
588.21	25191.72
588.407	25675.04
588.604	25306.41
588.801	24769.84
588.999	25120.04
589.196	25077.04
589.393	25204.01
589.59	24741.17
589.787	24792.37
589.984	24792.37
590.182	24583.48
590.379	25052.46
590.576	24325.43
590.773	24653.11
590.97	24304.95
591.167	24575.28
591.364	24188.22
591.561	24309.05
591.758	24266.04
591.955	24177.98
592.152	24206.65
592.349	23868.73
592.546	23731.52
592.743	23706.94
592.94	23534.92
593.137	23500.1
593.334	23647.55
593.531	23385.41
593.727	23309.64
593.924	23254.34
594.121	23369.03
594.318	23391.56
594.515	23059.79
594.712	23141.71
594.908	23164.23
595.105	23168.33
595.302	22771.02
595.499	22986.06
595.696	22644.05
595.892	22500.69
596.089	22650.19
596.286	22713.68
596.482	22173.02
596.679	22474.07
596.876	22850.89
597.072	22201.69
597.269	21970.27
597.466	22195.54
597.662	22082.91
597.859	22244.7
598.055	21835.1
598.252	21775.71
598.448	21822.81
598.645	21867.87
598.841	21790.05
599.038	21761.37
599.234	21740.89
599.431	21515.62
599.627	21585.25
599.824	21515.62
600.02	21280.1
600.217	21249.38
600.413	21136.74
600.609	20890.99
600.806	21007.72
601.002	21040.49
601.198	21017.96
601.395	20796.78
601.591	20884.84
601.787	20895.08
601.984	20555.12
602.18	20712.81
602.376	20563.31
602.572	20319.6
602.769	20462.96
602.965	20508.02
603.161	20503.92
603.357	20131.19
603.553	20166.01
603.75	20311.41
603.946	19731.84
604.142	20227.45
604.338	19651.97
604.534	19940.73
604.73	19824
604.926	19531.14
605.122	19840.38
605.318	19447.17
605.514	19477.89
605.71	19408.26
605.906	19264.9
606.102	19154.31
606.298	19426.69
606.494	19074.44
606.69	19164.55
606.886	19189.13
607.082	18963.85
607.278	18992.52
607.474	18775.44
607.67	18908.55
607.866	18855.31
608.062	19142.02
608.257	18787.72
608.453	18691.47
608.649	18662.8
608.845	18214.29
609.041	18544.02
609.236	18550.16
609.432	18392.47
609.628	18451.86
609.824	18238.87
610.019	18146.71
610.215	18292.12
610.411	18388.37
610.606	18081.17
610.802	18118.04
610.998	17812.89
611.193	17929.63
611.389	18021.78
611.584	17563.04
611.78	17634.72
611.976	17657.25
612.171	17616.29
612.367	17622.43
612.562	17649.05
612.758	17376.67
612.953	17450.4
613.149	17642.91
613.344	17227.17
613.539	17581.47
613.735	17380.77
613.93	17286.56
614.126	17118.63
614.321	17468.83
614.517	17122.73
614.712	17315.23
614.907	16975.27
615.103	16932.26
615.298	17059.24
615.493	17087.91
615.688	16684.46
615.884	17089.96
616.079	16541.1
616.274	16928.17
616.47	16698.8
616.665	16700.84
616.86	16704.94
617.055	16311.73
617.25	16428.46
617.445	16719.28
617.641	16328.11
617.836	16479.66
618.031	15898.04
618.226	16199.09
618.421	16258.48
618.616	16418.22
618.811	15521.21
619.006	16149.94
619.201	15912.38
619.396	15693.24
619.591	15603.13
619.786	15795.64
619.981	15666.62
620.176	15828.41
620.371	15437.25
620.566	15685.05
620.761	15304.13
620.956	15340.99
621.151	15242.69
621.346	15408.58
621.541	15113.67
621.735	15027.65
621.93	14742.99
622.125	14736.84
622.32	14753.23
622.515	14833.1
622.709	14536.14
622.904	14550.48
623.099	14163.41
623.294	14644.68
623.488	14394.83
623.683	14579.15
623.878	14290.38
624.072	13970.9
624.267	14222.8
624.462	13856.22
624.656	13706.71
624.851	13854.17
625.046	13839.83
625.24	13870.55
625.435	13641.18
625.629	13497.82
625.824	13499.87
626.018	13493.72
626.213	13010.4
626.407	13387.23
626.602	13131.23
626.796	13288.93
626.991	13233.63
627.185	12989.92
627.38	13051.36
627.574	12817.9
627.768	12938.73
627.963	12785.13
628.157	12432.88
628.352	12565.99
628.546	12209.65
628.74	12342.77
628.935	12422.64
629.129	12494.32
629.323	12076.53
629.517	12310
629.712	12217.84
629.906	11990.52
630.1	11861.49
630.294	12117.49
630.489	11765.24
630.683	11988.47
630.877	11726.33
631.071	11720.18
631.265	11509.24
631.459	11460.09
631.653	11515.39
631.848	11376.13
632.042	11429.37
632.236	11304.45
632.43	11257.34
632.624	11148.8
632.818	11070.98
633.012	11073.03
633.206	11247.1
633.4	11146.75
633.594	10778.12
633.788	10892.8
633.982	10898.95
634.176	10911.24
634.369	10878.47
634.563	10554.89
634.757	10767.88
634.951	10853.89
635.145	10712.58
635.339	10507.79
635.533	10456.59
635.726	10436.11
635.92	10282.51
636.114	10192.4
636.308	10145.3
636.501	10298.89
636.695	10249.74
636.889	10067.47
637.083	9989.65
637.276	9967.12
637.47	9795.09
637.664	9801.24
637.857	9862.68
638.051	9793.05
638.244	9768.47
638.438	9610.78
638.632	9571.86
638.825	9512.47
639.019	9465.37
639.212	9530.91
639.406	9381.4
639.599	9391.64
639.793	9389.6
639.986	9174.56
640.18	9029.15
640.373	9100.83
640.567	8936.99
640.76	9051.68
640.954	8879.65
641.147	8721.96
641.34	8660.52
641.534	8781.35
641.727	8908.32
641.92	8789.54
642.114	8656.42
642.307	8648.23
642.5	8515.11
642.694	8287.79
642.887	8252.97
643.08	8525.35
643.273	8422.95
643.467	8259.12
643.66	8218.16
643.853	8089.14
644.046	7962.16
644.239	8285.74
644.432	8087.09
644.626	8089.14
644.819	7740.98
645.012	7849.52
645.205	7927.35
645.398	7870
645.591	7730.74
645.784	7755.32
645.977	7765.56
646.17	7644.73
646.363	7581.24
646.556	7431.74
646.749	7335.48
646.942	7439.93
647.135	7323.19
647.328	7343.67
647.521	7274.04
647.714	7335.48
647.907	7179.84
648.099	7138.88
648.292	7136.83
648.485	7059.01
648.678	6962.75
648.871	7118.4
649.064	7036.48
649.256	6702.66
649.449	6981.18
649.642	6788.68
649.835	6633.03
650.027	6624.84
650.22	6702.66
650.413	6430.28
650.605	6483.53
650.798	6444.62
650.991	6342.22
651.183	6506.06
651.376	6368.84
651.568	6487.62
651.761	6479.43
651.954	6393.42
652.146	6448.71
652.339	6229.58
652.531	6227.53
652.724	6053.45
652.916	5996.11
653.109	6217.29
653.301	6028.88
653.494	6198.86
653.686	5924.43
653.879	5955.15
654.071	5914.19
654.263	5971.54
654.456	5946.96
654.648	5897.81
654.84	5654.1
655.033	5729.88
655.225	5690.96
655.417	5580.37
655.61	5523.03
655.802	5537.37
655.994	5512.79
656.186	5504.6
656.379	5547.61
656.571	5561.94
656.763	5453.4
656.955	5361.24
657.148	5447.26
657.34	5342.81
657.532	5271.13
657.724	5193.31
657.916	5215.84
658.108	5215.84
658.3	5174.88
658.492	5176.92
658.684	5144.16
658.876	5052
659.068	5090.91
659.26	4927.07
659.452	5103.2
659.644	4914.78
659.836	4873.82
660.028	4963.93
660.22	4841.06
660.412	4771.43
660.604	4603.49
660.796	4752.99
660.988	4785.76
661.18	4556.39
661.372	4503.14
661.563	4482.66
661.755	4552.29
661.947	4474.47
662.139	4447.85
662.331	4435.56
662.522	4324.97
662.714	4408.94
662.906	4474.47
663.097	4298.35
663.289	4314.73
663.481	4370.02
663.673	4408.94
663.864	4202.09
664.056	4175.47
664.247	4173.42
664.439	4124.27
664.631	4103.79
664.822	4165.23
665.014	4193.9
665.205	4042.35
665.397	4040.3
665.588	3982.96
665.78	4062.83
665.971	4042.35
666.163	3948.14
666.354	3917.42
666.546	3948.14
666.737	3872.37
666.929	3735.15
667.12	3862.13
667.311	3851.89
667.503	3798.64
667.694	3798.64
667.885	3778.16
668.077	3796.59
668.268	3686
668.459	3718.77
668.651	3673.71
668.842	3602.04
669.033	3491.45
669.224	3569.27
669.416	3640.95
669.607	3602.04
669.798	3481.21
669.989	3511.93
670.18	3491.45
670.371	3448.44
670.563	3477.11
670.754	3536.5
670.945	3524.21
671.136	3462.77
671.327	3313.27
671.518	3276.41
671.709	3196.54
671.9	3243.64
672.091	3423.86
672.282	3186.3
672.473	3307.13
672.664	3282.55
672.855	3309.18
673.046	3327.61
673.237	3356.28
673.428	3165.82
673.619	3257.98
673.809	3223.16
674	3169.91
674.191	3159.67
674.382	3128.95
674.573	3153.53
674.764	3065.47
674.954	3065.47
675.145	3014.27
675.336	3055.23
675.527	3180.15
675.717	3090.04
675.908	3096.19
676.099	3104.38
676.289	3124.86
676.48	3096.19
676.671	3110.52
676.861	3071.61
677.052	3102.33
677.243	2854.53
677.433	3038.84
677.624	2975.36
677.814	2952.83
678.005	2827.9
678.195	2844.29
678.386	3014.27
678.576	2815.62
678.767	2883.2
678.957	2776.7
679.148	3022.46
679.338	2784.9
679.529	2938.49
679.719	2877.05
679.909	2750.08
680.1	2823.81
680.29	2827.9
680.481	2850.43
680.671	2829.95
680.861	2868.86
681.052	2748.03
681.242	2711.17
681.432	2961.02
681.622	2786.94
681.813	2836.1
682.003	2807.42
682.193	2698.88
682.383	2788.99
682.573	2784.9
682.764	2735.74
682.954	2727.55
683.144	2588.29
683.334	2709.12
683.524	2676.35
683.714	2772.61
683.904	2604.67
684.094	2770.56
684.284	2625.15
684.474	2735.74
684.664	2696.83
684.854	2702.98
685.044	2711.17
685.234	2825.86
685.424	2680.45
685.614	2711.17
685.804	2569.86
685.994	2659.97
686.184	2680.45
686.374	2651.78
686.564	2600.58
686.753	2522.76
686.943	2539.14
687.133	2621.06
687.323	2705.03
687.513	2606.72
687.702	2647.68
687.892	2465.41
688.082	2680.45
688.272	2553.48
688.461	2596.48
688.651	2551.43
688.841	2600.58
689.03	2496.13
689.22	2596.48
689.41	2428.55
689.599	2584.2
689.789	2625.15
689.979	2508.42
690.168	2584.2
690.358	2590.34
690.547	2528.9
690.737	2528.9
690.926	2512.52
691.116	2602.63
691.305	2557.57
691.495	2481.8
691.684	2569.86
691.874	2457.22
692.063	2457.22
692.252	2510.47
692.442	2512.52
692.631	2596.48
692.82	2610.82
693.01	2465.41
693.199	2539.14
693.388	2446.98
693.578	2551.43
693.767	2393.73
693.956	2508.42
694.146	2500.23
694.335	2580.1
694.524	2492.04
694.713	2578.05
694.902	2547.33
695.092	2621.06
695.281	2504.32
695.47	2375.3
695.659	2543.24
695.848	2522.76
696.037	2461.32
696.226	2489.99
696.415	2543.24
696.604	2563.72
696.793	2520.71
696.982	2606.72
697.171	2467.46
697.36	2614.91
697.549	2430.6
697.738	2453.13
697.927	2330.25
698.116	2461.32
698.305	2473.6
698.494	2285.19
698.683	2408.07
698.872	2379.4
699.061	2498.18
699.25	2467.46
699.438	2530.95
699.627	2586.24
699.816	2401.93
700.005	2328.2
700.193	2414.21
700.382	2449.03
700.571	2481.8
700.76	2342.53
700.948	2498.18
701.137	2313.86
701.326	2453.13
701.514	2379.4
701.703	2489.99
701.892	2399.88
702.08	2465.41
702.269	2338.44
702.457	2264.71
702.646	2481.8
702.834	2332.3
703.023	2420.36
703.212	2295.43
703.4	2326.15
703.589	2277
703.777	2371.21
703.965	2248.33
704.154	2320.01
704.342	2270.86
704.531	2283.14
704.719	2430.6
704.907	2274.95
705.096	2254.47
705.284	2154.12
705.472	2225.8
705.661	2211.46
705.849	2340.49
706.037	2414.21
706.226	2270.86
706.414	2283.14
706.602	2160.27
706.79	2197.13
706.979	2252.42
707.167	2254.47
707.355	2213.51
707.543	2193.03
707.731	2238.09
707.919	2113.16
708.107	2102.92
708.296	2076.3
708.484	2143.88
708.672	2055.82
708.86	2010.76
709.048	2193.03
709.236	2127.5
709.424	2154.12
709.612	2096.78
709.8	2139.79
709.988	2004.62
710.176	1994.38
710.364	2166.41
710.551	2072.2
710.739	2021
710.927	2035.34
711.115	1961.61
711.303	2043.53
711.491	2057.87
711.679	1959.56
711.866	2014.86
712.054	2035.34
712.242	2047.63
712.43	1920.65
712.617	1910.41
712.805	2025.1
712.993	1928.85
713.181	1908.37
713.368	1824.4
713.556	2021
713.744	2035.34
713.931	1984.14
714.119	1914.51
714.306	1867.41
714.494	1932.94
714.682	1953.42
714.869	1765.01
715.057	1867.41
715.244	1891.98
715.432	1918.61
715.619	1740.43
715.807	1851.02
715.994	1920.65
716.182	1797.78
716.369	1803.92
716.556	1904.27
716.744	1760.91
716.931	1783.44
717.119	1754.77
717.306	1711.76
717.493	1902.22
717.681	1758.86
717.868	1722
718.055	1609.36
718.242	1785.49
718.43	1699.47
718.617	1713.81
718.804	1722
718.991	1732.24
719.179	1742.48
719.366	1728.14
719.553	1762.96
719.74	1633.94
719.927	1685.14
720.114	1672.85
720.301	1691.28
720.488	1699.47
720.676	1642.13
720.863	1586.83
721.05	1545.88
721.237	1652.37
721.424	1629.84
721.611	1496.72
721.798	1539.73
721.985	1531.54
722.172	1609.36
722.358	1582.74
722.545	1552.02
722.732	1523.35
722.919	1549.97
723.106	1494.68
723.293	1599.12
723.48	1539.73
723.667	1603.22
723.853	1615.51
724.04	1494.68
724.227	1531.54
724.414	1543.83
724.6	1506.96
724.787	1543.83
724.974	1515.16
725.161	1496.72
725.347	1486.48
725.534	1549.97
725.72	1361.56
725.907	1500.82
726.094	1396.37
726.28	1459.86
726.467	1461.91
726.653	1447.57
726.84	1343.13
727.027	1427.09
727.213	1425.04
727.4	1437.33
727.586	1359.51
727.773	1433.24
727.959	1316.5
728.145	1484.44
728.332	1384.09
728.518	1267.35
728.705	1433.24
728.891	1382.04
729.077	1420.95
729.264	1246.87
729.45	1474.2
729.636	1271.45
729.823	1289.88
730.009	1306.26
730.195	1429.14
730.382	1310.36
730.568	1183.38
730.754	1255.06
730.94	1302.17
731.126	1322.65
731.313	1328.79
731.499	1324.69
731.685	1269.4
731.871	1279.64
732.057	1328.79
732.243	1336.98
732.429	1324.69
732.615	1306.26
732.801	1201.82
732.987	1238.68
733.173	1283.74
733.359	1298.07
733.545	1224.34
733.731	1242.78
733.917	1246.87
734.103	1212.06
734.289	1119.9
734.475	1171.1
734.661	1134.23
734.847	1287.83
735.033	1289.88
735.219	1232.54
735.404	1109.66
735.59	1265.3
735.776	1197.72
735.962	1179.29
736.148	1167
736.333	1158.81
736.519	1259.16
736.705	1162.9
736.89	1195.67
737.076	1146.52
737.262	1130.14
737.447	1117.85
737.633	1203.86
737.819	1156.76
738.004	1169.05
738.19	1117.85
738.375	1091.23
738.561	1105.56
738.747	1121.95
738.932	1097.37
739.118	1113.75
739.303	1052.31
739.489	1058.46
739.674	1148.57
739.859	1060.51
740.045	1101.47
740.23	1056.41
740.416	1066.65
740.601	1089.18
740.786	1074.84
740.972	1052.31
741.157	1029.79
741.342	976.54
741.528	1078.94
741.713	1064.6
741.898	929.44
742.084	1064.6
742.269	999.07
742.454	1105.56
742.639	1017.5
742.824	1033.88
743.01	939.68
743.195	962.2
743.38	949.92
743.565	978.59
743.75	933.53
743.935	941.72
744.12	960.16
744.305	982.68
744.49	929.44
744.675	1037.98
744.86	984.73
745.045	1025.69
745.23	968.35
745.415	939.68
745.6	882.33
745.785	884.38
745.97	921.24
746.155	927.39
746.34	923.29
746.525	835.23
746.71	847.52
746.895	990.88
747.079	835.23
747.264	786.08
747.449	845.47
747.634	921.24
747.819	882.33
748.003	958.11
748.188	880.29
748.373	853.66
748.557	863.9
748.742	824.99
748.927	878.24
749.111	894.62
749.296	810.65
749.481	798.37
749.665	773.79
749.85	921.24
750.034	915.1
750.219	829.09
750.404	779.93
750.588	798.37
750.773	734.88
750.957	804.51
751.141	767.65
751.326	788.13
751.51	710.3
751.695	718.5
751.879	775.84
752.064	741.02
752.248	788.13
752.432	704.16
752.617	728.74
752.801	736.93
752.985	704.16
753.17	741.02
753.354	667.3
753.538	687.78
753.722	751.26
753.907	753.31
754.091	716.45
754.275	741.02
754.459	673.44
754.643	730.78
754.828	708.26
755.012	716.45
755.196	687.78
755.38	734.88
755.564	624.29
755.748	685.73
755.932	695.97
756.116	700.06
756.3	687.78
756.484	698.02
756.668	632.48
756.852	581.28
757.036	661.15
757.22	581.28
757.404	515.75
757.588	603.81
757.772	554.66
757.956	599.71
758.14	652.96
758.323	638.62
758.507	546.47
758.691	542.37
758.875	528.03
759.059	640.67
759.242	566.95
759.426	566.95
759.61	575.14
759.794	603.81
759.977	534.18
760.161	573.09
760.345	571.04
760.528	532.13
760.712	485.03
760.895	638.62
761.079	517.79
761.263	577.19
761.446	538.27
761.63	511.65
761.813	597.67
761.997	509.6
762.18	538.27
762.364	634.53
762.547	480.93
762.731	489.12
762.914	548.51
763.098	485.03
763.281	605.86
763.464	554.66
763.648	523.94
763.831	548.51
764.015	505.51
764.198	550.56
764.381	556.71
764.564	491.17
764.748	450.21
764.931	515.75
765.114	480.93
765.297	525.99
765.481	485.03
765.664	425.64
765.847	466.6
766.03	452.26
766.213	485.03
766.397	470.69
766.58	452.26
766.763	560.8
766.946	491.17
767.129	442.02
767.312	460.45
767.495	485.03
767.678	491.17
767.861	519.84
768.044	536.23
768.227	482.98
768.41	439.97
768.593	454.31
768.776	521.89
768.959	491.17
769.142	470.69
769.324	392.87
769.507	405.16
769.69	482.98
769.873	501.41
770.056	452.26
770.239	464.55
770.421	427.68
770.604	474.79
770.787	485.03
770.97	390.82
771.152	450.21
771.335	466.6
771.518	380.58
771.7	470.69
771.883	511.65
772.066	382.63
772.248	460.45
772.431	392.87
772.613	489.12
772.796	466.6
772.978	435.88
773.161	423.59
773.343	337.57
773.526	411.3
773.708	407.2
773.891	366.25
774.073	329.38
774.256	356.01
774.438	399.01
774.621	374.44
774.803	399.01
774.985	356.01
775.168	399.01
775.35	431.78
775.532	401.06
775.715	321.19
775.897	321.19
776.079	310.95
776.261	323.24
776.444	372.39
776.626	384.68
776.808	384.68
776.99	351.91
777.173	376.48
777.355	343.72
777.537	392.87
777.719	315.05
777.901	337.57
778.083	403.11
778.265	333.48
778.447	300.71
778.629	366.25
778.811	358.05
778.993	360.1
779.175	386.72
779.357	376.48
779.539	304.81
779.721	360.1
779.903	308.9
780.085	323.24
780.267	317.09
780.449	304.81
780.631	351.91
780.812	327.33
780.994	302.76
781.176	327.33
781.358	265.89
781.54	319.14
781.721	298.66
781.903	343.72
782.085	286.37
782.267	229.03
782.448	284.33
782.63	265.89
782.812	282.28
782.993	233.13
783.175	304.81
783.357	265.89
783.538	376.48
783.72	300.71
783.901	269.99
784.083	265.89
784.264	290.47
784.446	290.47
784.627	198.31
784.809	218.79
784.99	302.76
785.172	292.52
785.353	247.46
785.535	302.76
785.716	229.03
785.897	245.41
786.079	239.27
786.26	202.41
786.441	231.08
786.623	280.23
786.804	208.55
786.985	231.08
787.167	243.37
787.348	198.31
787.529	196.26
787.71	179.88
787.891	159.4
788.073	239.27
788.254	237.22
788.435	241.32
788.616	276.13
788.797	147.11
788.978	257.7
789.159	274.09
789.34	292.52
789.522	224.94
789.703	247.46
789.884	163.5
790.065	108.2
790.246	198.31
790.427	272.04
790.607	278.18
790.788	169.64
790.969	145.06
791.15	171.69
791.331	218.79
791.512	206.5
791.693	222.89
791.874	212.65
792.054	214.7
792.235	134.82
792.416	161.45
792.597	210.6
792.778	136.87
792.958	181.93
793.139	186.02
793.32	177.83
793.5	165.54
793.681	267.94
793.862	171.69
794.042	218.79
794.223	194.22
794.404	171.69
794.584	251.56
794.765	143.02
794.945	212.65
795.126	161.45
795.306	83.63
795.487	204.46
795.667	181.93
795.848	190.12
796.028	173.74
796.209	200.36
796.389	237.22
796.57	112.3
796.75	132.78
796.93	75.43
797.111	218.79
797.291	181.93
797.471	126.63
797.652	106.15
797.832	200.36
798.012	173.74
798.192	196.26
798.373	153.26
798.553	95.91
798.733	175.78
798.913	163.5
799.093	153.26
799.274	200.36
799.454	194.22
799.634	100.01
799.814	159.4
799.994	140.97
800.174	128.68
800.354	155.3
800.534	108.2
800.714	110.25
800.894	153.26
801.074	155.3
801.254	179.88
801.434	171.69
801.614	171.69
801.794	95.91
801.974	329.38
802.154	116.39
802.334	161.45
802.514	128.68
802.693	83.63
802.873	159.4
803.053	97.96
803.233	100.01
803.413	67.24
803.592	108.2
803.772	112.3
803.952	104.11
804.131	93.87
804.311	157.35
804.491	122.54
804.67	110.25
804.85	63.15
805.03	183.98
805.209	177.83
805.389	81.58
805.568	155.3
805.748	93.87
805.928	122.54
806.107	155.3
806.287	108.2
806.466	124.58
806.646	120.49
806.825	63.15
807.004	106.15
807.184	120.49
807.363	126.63
807.543	100.01
807.722	134.82
807.901	87.72
808.081	173.74
808.26	93.87
808.439	59.05
808.619	136.87
808.798	147.11
808.977	132.78
809.156	85.67
809.336	108.2
809.515	159.4
809.694	130.73
809.873	52.91
810.052	65.19
810.231	186.02
810.411	18.09
810.59	87.72
810.769	132.78
810.948	26.28
811.127	110.25
811.306	110.25
811.485	42.67
811.664	93.87
811.843	91.82
812.022	132.78
812.201	130.73
812.38	59.05
812.559	57
812.737	122.54
812.916	57
813.095	20.14
813.274	52.91
813.453	57
813.632	24.23
813.811	83.63
813.989	112.3
814.168	97.96
814.347	50.86
814.526	81.58
814.704	106.15
814.883	48.81
815.062	122.54
815.24	63.15
815.419	50.86
815.598	1.71
815.776	42.67
815.955	110.25
816.133	65.19
816.312	106.15
816.49	128.68
816.669	85.67
816.847	50.86
817.026	147.11
817.204	40.62
817.383	1.71
817.561	161.45
817.74	114.34
817.918	36.52
818.097	106.15
818.275	20.14
818.453	91.82
818.632	97.96
818.81	108.2
818.988	89.77
819.167	91.82
819.345	20.14
819.523	161.45
819.701	188.07
819.879	81.58
820.058	97.96
820.236	52.91
820.414	140.97
820.592	57
820.77	67.24
820.948	16.04
821.127	52.91
821.305	73.39
821.483	97.96
821.661	67.24
821.839	61.1
822.017	1.71
822.195	87.72
822.373	73.39
822.551	136.87
822.729	75.43
822.907	34.47
823.085	83.63
823.262	102.06
823.44	42.67
823.618	-4.44
823.796	91.82
823.974	59.05
824.152	114.34
824.329	30.38
824.507	108.2
824.685	91.82
824.863	20.14
825.04	34.47
825.218	128.68
825.396	22.19
825.574	93.87
825.751	40.62
825.929	36.52
826.107	95.91
826.284	48.81
826.462	114.34
826.639	69.29
826.817	-12.63
826.994	81.58
827.172	100.01
827.349	134.82
827.527	48.81
827.704	104.11
827.882	7.85
828.059	11.95
828.237	81.58
828.414	40.62
828.591	102.06
828.769	-35.16
828.946	36.52
829.124	1.71
829.301	69.29
829.478	67.24
829.655	46.76
829.833	73.39
830.01	77.48
830.187	-12.63
830.364	61.1
830.542	108.2
830.719	79.53
830.896	42.67
831.073	81.58
831.25	83.63
831.427	69.29
831.604	110.25
831.782	13.99
831.959	59.05
832.136	22.19
832.313	65.19
832.49	52.91
832.667	89.77
832.844	54.95
833.021	79.53
833.198	87.72
833.374	93.87
833.551	28.33
833.728	69.29
833.905	46.76
834.082	11.95
834.259	106.15
834.436	61.1
834.612	-53.59
834.789	71.34
834.966	126.63
835.143	87.72
835.319	1.71
835.496	65.19
835.673	97.96
835.85	30.38
836.026	44.71
836.203	30.38
836.38	18.09
836.556	16.04
836.733	26.28
836.909	36.52
837.086	75.43
837.262	75.43
837.439	16.04
837.616	54.95
837.792	79.53
837.968	63.15
838.145	48.81
838.321	36.52
838.498	69.29
838.674	22.19
838.851	42.67
839.027	16.04
839.203	5.8
839.38	36.52
839.556	18.09
839.732	59.05
839.909	50.86
840.085	36.52
840.261	28.33
840.437	40.62
840.614	46.76
840.79	-6.49
840.966	91.82
841.142	46.76
841.318	63.15
841.494	18.09
841.671	5.8
841.847	52.91
842.023	22.19
842.199	-18.77
842.375	48.81
842.551	34.47
842.727	-26.96
842.903	22.19
843.079	-2.39
843.255	67.24
843.431	44.71
843.607	63.15
843.783	16.04
843.959	11.95
844.134	57
844.31	-6.49
844.486	42.67
844.662	106.15
844.838	32.43
845.013	-6.49
845.189	30.38
845.365	73.39
845.541	42.67
845.716	81.58
845.892	7.85
846.068	-10.58
846.244	22.19
846.419	24.23
846.595	34.47
846.77	91.82
846.946	38.57
847.122	22.19
847.297	77.48
847.473	114.34
847.648	24.23
847.824	20.14
847.999	97.96
848.175	48.81
848.35	24.23
848.526	24.23
848.701	40.62
848.876	32.43
849.052	16.04
849.227	40.62
849.403	-24.92
849.578	20.14
849.753	50.86
849.929	11.95
850.104	-26.96
850.279	1.71
850.454	-35.16
850.63	-0.34
850.805	16.04
850.98	130.73
851.155	9.9
851.33	20.14
851.505	9.9
851.681	36.52
851.856	9.9
852.031	50.86
852.206	38.57
852.381	77.48
852.556	28.33
852.731	69.29
852.906	28.33
853.081	30.38
853.256	40.62
853.431	44.71
853.606	28.33
853.781	48.81
853.956	11.95
854.131	34.47
854.305	40.62
854.48	22.19
854.655	18.09
854.83	116.39
855.005	7.85
855.18	89.77
855.354	-6.49
855.529	22.19
855.704	-31.06
855.879	40.62
856.053	18.09
856.228	65.19
856.403	-41.3
856.577	48.81
856.752	24.23
856.926	75.43
857.101	-4.44
857.276	54.95
857.45	36.52
857.625	77.48
857.799	-8.53
857.974	65.19
858.148	-69.97
858.323	77.48
858.497	26.28
858.672	57
858.846	28.33
859.02	67.24
859.195	-2.39
859.369	28.33
859.543	22.19
859.718	24.23
859.892	3.75
860.066	42.67
860.241	44.71
860.415	-8.53
860.589	-45.4
860.763	-0.34
860.938	30.38
861.112	22.19
861.286	1.71
861.46	50.86
861.634	138.92
861.808	11.95
861.982	44.71
862.157	18.09
862.331	42.67
862.505	18.09
862.679	-16.73
862.853	20.14
863.027	-14.68
863.201	32.43
863.375	3.75
863.549	61.1
863.722	-12.63
863.896	34.47
864.07	11.95
864.244	20.14
864.418	1.71
864.592	32.43
864.766	26.28
864.939	-47.44
865.113	11.95
865.287	54.95
865.461	34.47
865.634	-35.16
865.808	128.68
865.982	48.81
866.156	54.95
866.329	24.23
866.503	48.81
866.676	16.04
866.85	-6.49
867.024	67.24
867.197	67.24
867.371	-41.3
867.544	54.95
867.718	13.99
867.891	16.04
868.065	1.71
868.238	34.47
868.412	40.62
868.585	16.04
868.759	-41.3
868.932	1.71
869.105	-6.49
869.279	26.28
869.452	24.23
869.625	1.71
869.799	87.72
869.972	-4.44
870.145	110.25
870.319	11.95
870.492	-12.63
870.665	20.14
870.838	48.81
871.011	-57.68
871.185	54.95
871.358	-6.49
871.531	57
871.704	63.15
871.877	59.05
872.05	40.62
872.223	20.14
872.396	59.05
872.569	30.38
872.742	1.71
872.915	97.96
873.088	-2.39
873.261	1.71
873.434	-18.77
873.607	89.77
873.78	75.43
873.953	5.8
874.126	40.62
874.299	36.52
874.471	57
874.644	16.04
874.817	13.99
874.99	-4.44
875.163	75.43
875.335	48.81
875.508	-2.39
875.681	-8.53
875.853	-18.77
876.026	116.39
876.199	-0.34
876.371	32.43
876.544	-2.39
876.717	32.43
876.889	-49.49
877.062	26.28
877.234	-10.58
877.407	-18.77
877.579	-24.92
877.752	3.75
877.924	11.95
878.097	36.52
878.269	40.62
878.442	9.9
878.614	-12.63
878.786	20.14
878.959	85.67
879.131	38.57
879.303	9.9
879.476	-12.63
879.648	16.04
879.82	11.95
879.993	-8.53
880.165	97.96
880.337	-31.06
880.509	24.23
880.681	-63.83
880.854	26.28
881.026	-16.73
881.198	52.91
881.37	-29.01
881.542	50.86
881.714	-104.79
881.886	-33.11
882.058	26.28
882.23	22.19
882.402	-0.34
882.574	-0.34
882.746	42.67
882.918	18.09
883.09	42.67
883.262	36.52
883.434	-0.34
883.606	3.75
883.778	30.38
883.95	59.05
884.122	-33.11
884.293	93.87
884.465	-53.59
884.637	13.99
884.809	-18.77
884.98	-20.82
885.152	57
885.324	22.19
885.496	16.04
885.667	-12.63
885.839	-22.87
886.011	26.28
886.182	40.62
886.354	52.91
886.525	-20.82
886.697	34.47
886.869	-49.49
887.04	-33.11
887.212	3.75
887.383	50.86
887.555	16.04
887.726	-47.44
887.897	-8.53
888.069	38.57
888.24	-20.82
888.412	91.82
888.583	16.04
888.754	79.53
888.926	-67.92
889.097	24.23
889.268	-0.34
889.44	-16.73
889.611	46.76
889.782	42.67
889.953	-0.34
890.125	110.25
890.296	1.71
890.467	-6.49
890.638	9.9
890.809	50.86
890.98	-47.44
891.151	1.71
891.323	71.34
891.494	28.33
891.665	13.99
891.836	24.23
892.007	30.38
892.178	67.24
892.349	-20.82
892.52	38.57
892.691	-0.34
892.862	-8.53
893.032	34.47
893.203	-24.92
893.374	63.15
893.545	57
893.716	71.34
893.887	-4.44
894.057	-0.34
894.228	26.28
894.399	-6.49
894.57	85.67
894.74	-59.73
894.911	24.23
895.082	-8.53
895.253	13.99
895.423	-57.68
895.594	-41.3
895.764	20.14
895.935	9.9
896.106	-2.39
896.276	91.82
896.447	-0.34
896.617	42.67
896.788	-37.2
896.958	11.95
897.129	-24.92
897.299	22.19
897.47	-47.44
897.64	24.23
897.81	-18.77
897.981	30.38
898.151	-6.49
898.322	18.09
898.492	-16.73
898.662	-14.68
898.832	-4.44
899.003	16.04
899.173	69.29
899.343	38.57
899.513	52.91
