Data from USB4F104151__283__14-02-30-038.txt Node

Date: Thu Mar 13 14:02:30 EDT 2025
User: louis
Spectrometer: USB4F10415
Trigger mode: 4
Integration Time (sec): 1.000000E-2
Scans to average: 1
Electric dark correction enabled: true
Nonlinearity correction enabled: false
Boxcar width: 0
XAxis mode: Wavelengths
Number of Pixels in Spectrum: 3648
>>>>>Begin Spectral Data<<<<<
178.204	-70.65
178.424	-70.65
178.644	-70.65
178.864	-23.55
179.084	-13.31
179.304	17.41
179.524	-54.27
179.744	-115.71
179.964	33.79
180.184	17.41
180.404	-3.07
180.624	-37.89
180.844	37.89
181.064	-15.36
181.283	3.07
181.503	13.31
181.723	103.42
181.943	17.41
182.163	27.65
182.383	-5.12
182.602	-13.31
182.822	33.79
183.042	7.17
183.262	25.6
183.482	-48.13
183.701	46.08
183.921	-1.02
184.141	35.84
184.361	-29.7
184.58	37.89
184.8	25.6
185.02	-33.79
185.239	9.22
185.459	44.03
185.679	27.65
185.898	-29.7
186.118	15.36
186.338	1.02
186.557	19.46
186.777	9.22
186.997	-11.26
187.216	11.26
187.436	62.46
187.655	25.6
187.875	9.22
188.095	37.89
188.314	15.36
188.534	-9.22
188.753	31.74
188.973	11.26
189.192	27.65
189.412	27.65
189.631	-50.18
189.851	19.46
190.07	66.56
190.29	-7.17
190.509	-48.13
190.729	17.41
190.948	84.99
191.168	66.56
191.387	72.7
191.607	23.55
191.826	11.26
192.045	-37.89
192.265	-31.74
192.484	11.26
192.704	37.89
192.923	-48.13
193.142	-9.22
193.362	-35.84
193.581	19.46
193.8	44.03
194.02	41.98
194.239	-5.12
194.458	46.08
194.678	29.7
194.897	15.36
195.116	87.04
195.335	39.94
195.555	33.79
195.774	9.22
195.993	46.08
196.212	60.42
196.432	39.94
196.651	-56.32
196.87	-29.7
197.089	17.41
197.308	80.89
197.528	33.79
197.747	1.02
197.966	-23.55
198.185	25.6
198.404	52.22
198.623	76.8
198.842	-3.07
199.062	41.98
199.281	115.71
199.5	3.07
199.719	52.22
199.938	-3.07
200.157	74.75
200.376	-27.65
200.595	41.98
200.814	13.31
201.033	-11.26
201.252	44.03
201.471	50.18
201.69	41.98
201.909	-9.22
202.128	-101.37
202.347	25.6
202.566	99.33
202.785	-15.36
203.004	-70.65
203.223	29.7
203.442	17.41
203.661	33.79
203.879	-19.46
204.098	46.08
204.317	-48.13
204.536	27.65
204.755	1.02
204.974	-64.51
205.193	33.79
205.411	11.26
205.63	25.6
205.849	-44.03
206.068	21.5
206.287	-11.26
206.505	19.46
206.724	17.41
206.943	27.65
207.162	-7.17
207.381	41.98
207.599	33.79
207.818	72.7
208.037	-23.55
208.255	54.27
208.474	-15.36
208.693	5.12
208.911	-19.46
209.13	23.55
209.349	37.89
209.567	11.26
209.786	23.55
210.005	-46.08
210.223	31.74
210.442	1.02
210.661	3.07
210.879	44.03
211.098	17.41
211.316	41.98
211.535	-9.22
211.753	-5.12
211.972	7.17
212.191	84.99
212.409	-19.46
212.628	-9.22
212.846	-50.18
213.065	52.22
213.283	87.04
213.502	1.02
213.72	-37.89
213.938	37.89
214.157	-17.41
214.375	82.94
214.594	72.7
214.812	17.41
215.031	27.65
215.249	17.41
215.467	-5.12
215.686	-11.26
215.904	70.65
216.122	21.5
216.341	56.32
216.559	1.02
216.778	58.37
216.996	44.03
217.214	-13.31
217.432	-21.5
217.651	56.32
217.869	82.94
218.087	13.31
218.306	21.5
218.524	41.98
218.742	-37.89
218.96	9.22
219.179	41.98
219.397	-19.46
219.615	-33.79
219.833	11.26
220.051	50.18
220.27	54.27
220.488	3.07
220.706	5.12
220.924	37.89
221.142	15.36
221.36	25.6
221.578	41.98
221.796	-54.27
222.015	41.98
222.233	-7.17
222.451	-17.41
222.669	-76.8
222.887	-54.27
223.105	31.74
223.323	35.84
223.541	3.07
223.759	1.02
223.977	-62.46
224.195	21.5
224.413	35.84
224.631	37.89
224.849	46.08
225.067	46.08
225.285	-39.94
225.503	-23.55
225.721	-13.31
225.939	-19.46
226.157	23.55
226.375	58.37
226.592	-29.7
226.81	-13.31
227.028	70.65
227.246	48.13
227.464	68.61
227.682	44.03
227.9	-5.12
228.117	64.51
228.335	-9.22
228.553	21.5
228.771	-1.02
228.989	50.18
229.206	1.02
229.424	58.37
229.642	82.94
229.86	-9.22
230.077	33.79
230.295	17.41
230.513	41.98
230.731	70.65
230.948	74.75
231.166	21.5
231.384	-5.12
231.601	1.02
231.819	56.32
232.037	17.41
232.254	21.5
232.472	-31.74
232.689	13.31
232.907	91.13
233.125	27.65
233.342	50.18
233.56	-60.42
233.777	23.55
233.995	-25.6
234.213	3.07
234.43	-46.08
234.648	17.41
234.865	37.89
235.083	-9.22
235.3	-7.17
235.518	5.12
235.735	117.76
235.953	-15.36
236.17	33.79
236.388	58.37
236.605	95.23
236.822	5.12
237.04	50.18
237.257	76.8
237.475	1.02
237.692	39.94
237.909	31.74
238.127	46.08
238.344	-13.31
238.562	54.27
238.779	5.12
238.996	33.79
239.214	-17.41
239.431	19.46
239.648	19.46
239.865	-9.22
240.083	-9.22
240.3	23.55
240.517	-74.75
240.735	15.36
240.952	3.07
241.169	-37.89
241.386	37.89
241.603	41.98
241.821	54.27
242.038	11.26
242.255	19.46
242.472	17.41
242.689	29.7
242.907	-5.12
243.124	9.22
243.341	52.22
243.558	-35.84
243.775	-64.51
243.992	-46.08
244.209	-7.17
244.426	46.08
244.643	39.94
244.86	1.02
245.078	13.31
245.295	80.89
245.512	27.65
245.729	23.55
245.946	74.75
246.163	17.41
246.38	-46.08
246.597	95.23
246.814	-48.13
247.031	41.98
247.248	56.32
247.464	-25.6
247.681	11.26
247.898	-23.55
248.115	-1.02
248.332	-13.31
248.549	1.02
248.766	29.7
248.983	-74.75
249.2	-9.22
249.417	-23.55
249.633	74.75
249.85	21.5
250.067	-1.02
250.284	7.17
250.501	74.75
250.717	109.57
250.934	-5.12
251.151	35.84
251.368	54.27
251.585	31.74
251.801	7.17
252.018	78.85
252.235	23.55
252.451	-21.5
252.668	35.84
252.885	1.02
253.102	17.41
253.318	44.03
253.535	-1.02
253.752	62.46
253.968	1.02
254.185	50.18
254.401	-27.65
254.618	-46.08
254.835	46.08
255.051	54.27
255.268	17.41
255.484	13.31
255.701	-62.46
255.917	68.61
256.134	-31.74
256.351	19.46
256.567	15.36
256.784	1.02
257	9.22
257.217	9.22
257.433	11.26
257.65	-13.31
257.866	41.98
258.082	41.98
258.299	1.02
258.515	66.56
258.732	23.55
258.948	1.02
259.165	-23.55
259.381	41.98
259.597	82.94
259.814	-9.22
260.03	1.02
260.246	17.41
260.463	-11.26
260.679	-23.55
260.895	-17.41
261.112	56.32
261.328	25.6
261.544	-23.55
261.761	66.56
261.977	33.79
262.193	5.12
262.409	74.75
262.626	23.55
262.842	-17.41
263.058	13.31
263.274	87.04
263.49	58.37
263.707	60.42
263.923	35.84
264.139	62.46
264.355	121.85
264.571	9.22
264.787	-7.17
265.004	87.04
265.22	66.56
265.436	-7.17
265.652	3.07
265.868	27.65
266.084	-5.12
266.3	9.22
266.516	107.52
266.732	41.98
266.948	27.65
267.164	25.6
267.38	54.27
267.596	54.27
267.812	29.7
268.028	78.85
268.244	87.04
268.46	50.18
268.676	3.07
268.892	39.94
269.108	-1.02
269.324	15.36
269.54	-39.94
269.756	15.36
269.972	3.07
270.188	13.31
270.403	76.8
270.619	50.18
270.835	-5.12
271.051	11.26
271.267	-11.26
271.483	66.56
271.698	-3.07
271.914	13.31
272.13	-19.46
272.346	17.41
272.562	21.5
272.777	74.75
272.993	35.84
273.209	-15.36
273.425	11.26
273.64	50.18
273.856	50.18
274.072	5.12
274.287	-35.84
274.503	78.85
274.719	56.32
274.934	33.79
275.15	-3.07
275.366	60.42
275.581	35.84
275.797	9.22
276.012	15.36
276.228	9.22
276.444	-11.26
276.659	-9.22
276.875	13.31
277.09	35.84
277.306	-70.65
277.521	21.5
277.737	-29.7
277.952	121.85
278.168	62.46
278.383	82.94
278.599	44.03
278.814	11.26
279.03	54.27
279.245	62.46
279.461	-9.22
279.676	35.84
279.892	5.12
280.107	21.5
280.322	-1.02
280.538	25.6
280.753	54.27
280.969	-23.55
281.184	29.7
281.399	93.18
281.615	-15.36
281.83	74.75
282.045	-23.55
282.26	62.46
282.476	35.84
282.691	1.02
282.906	-3.07
283.122	60.42
283.337	17.41
283.552	50.18
283.767	-35.84
283.983	19.46
284.198	15.36
284.413	60.42
284.628	19.46
284.843	70.65
285.058	33.79
285.274	-37.89
285.489	39.94
285.704	9.22
285.919	-7.17
286.134	33.79
286.349	64.51
286.564	19.46
286.779	56.32
286.995	60.42
287.21	-1.02
287.425	107.52
287.64	21.5
287.855	23.55
288.07	-5.12
288.285	41.98
288.5	68.61
288.715	62.46
288.93	25.6
289.145	-3.07
289.36	-46.08
289.575	31.74
289.79	19.46
290.004	31.74
290.219	25.6
290.434	-48.13
290.649	35.84
290.864	91.13
291.079	29.7
291.294	109.57
291.509	33.79
291.724	-3.07
291.938	-7.17
292.153	105.47
292.368	11.26
292.583	74.75
292.798	17.41
293.012	35.84
293.227	48.13
293.442	72.7
293.657	70.65
293.871	21.5
294.086	107.52
294.301	91.13
294.516	17.41
294.73	13.31
294.945	-15.36
295.16	1.02
295.374	41.98
295.589	21.5
295.804	27.65
296.018	-25.6
296.233	35.84
296.447	5.12
296.662	5.12
296.877	60.42
297.091	9.22
297.306	46.08
297.52	33.79
297.735	82.94
297.949	70.65
298.164	46.08
298.378	-46.08
298.593	48.13
298.807	-9.22
299.022	7.17
299.236	13.31
299.451	-5.12
299.665	58.37
299.88	-39.94
300.094	3.07
300.309	-5.12
300.523	33.79
300.737	21.5
300.952	68.61
301.166	33.79
301.381	9.22
301.595	-19.46
301.809	15.36
302.024	1.02
302.238	-48.13
302.452	31.74
302.667	62.46
302.881	37.89
303.095	17.41
303.309	117.76
303.524	5.12
303.738	35.84
303.952	21.5
304.166	74.75
304.381	78.85
304.595	60.42
304.809	-11.26
305.023	82.94
305.237	17.41
305.452	-46.08
305.666	-5.12
305.88	35.84
306.094	50.18
306.308	50.18
306.522	54.27
306.736	44.03
306.95	37.89
307.164	-11.26
307.379	15.36
307.593	11.26
307.807	119.81
308.021	41.98
308.235	-1.02
308.449	37.89
308.663	11.26
308.877	33.79
309.091	37.89
309.305	1.02
309.519	19.46
309.733	27.65
309.947	-5.12
310.161	31.74
310.374	29.7
310.588	91.13
310.802	-44.03
311.016	89.09
311.23	50.18
311.444	-11.26
311.658	29.7
311.872	60.42
312.085	33.79
312.299	7.17
312.513	52.22
312.727	-7.17
312.941	41.98
313.154	9.22
313.368	25.6
313.582	41.98
313.796	-11.26
314.009	105.47
314.223	82.94
314.437	7.17
314.651	33.79
314.864	25.6
315.078	-58.37
315.292	-17.41
315.505	37.89
315.719	-23.55
315.933	35.84
316.146	9.22
316.36	7.17
316.573	64.51
316.787	23.55
317.001	27.65
317.214	1.02
317.428	-23.55
317.641	119.81
317.855	50.18
318.068	19.46
318.282	-7.17
318.495	60.42
318.709	27.65
318.922	82.94
319.136	33.79
319.349	5.12
319.563	74.75
319.776	29.7
319.99	-41.98
320.203	13.31
320.417	52.22
320.63	-9.22
320.843	132.09
321.057	46.08
321.27	41.98
321.483	13.31
321.697	74.75
321.91	68.61
322.124	50.18
322.337	-9.22
322.55	52.22
322.763	58.37
322.977	50.18
323.19	-27.65
323.403	29.7
323.617	35.84
323.83	82.94
324.043	64.51
324.256	84.99
324.469	-1.02
324.683	60.42
324.896	11.26
325.109	27.65
325.322	-31.74
325.535	60.42
325.748	-13.31
325.962	17.41
326.175	70.65
326.388	5.12
326.601	13.31
326.814	5.12
327.027	21.5
327.24	3.07
327.453	-46.08
327.666	48.13
327.879	56.32
328.092	62.46
328.305	19.46
328.518	5.12
328.731	60.42
328.944	50.18
329.157	33.79
329.37	58.37
329.583	-3.07
329.796	29.7
330.009	23.55
330.222	58.37
330.435	-21.5
330.648	-23.55
330.861	-3.07
331.073	35.84
331.286	48.13
331.499	-15.36
331.712	27.65
331.925	27.65
332.138	25.6
332.35	58.37
332.563	72.7
332.776	9.22
332.989	-95.23
333.202	-1.02
333.414	-74.75
333.627	125.95
333.84	44.03
334.053	-9.22
334.265	17.41
334.478	74.75
334.691	17.41
334.903	3.07
335.116	-23.55
335.329	48.13
335.541	-11.26
335.754	-3.07
335.966	-21.5
336.179	11.26
336.392	74.75
336.604	21.5
336.817	9.22
337.029	23.55
337.242	58.37
337.454	21.5
337.667	31.74
337.88	50.18
338.092	15.36
338.305	33.79
338.517	27.65
338.729	29.7
338.942	-29.7
339.154	70.65
339.367	17.41
339.579	39.94
339.792	-3.07
340.004	68.61
340.217	48.13
340.429	15.36
340.641	58.37
340.854	-7.17
341.066	50.18
341.278	80.89
341.491	76.8
341.703	50.18
341.915	35.84
342.128	93.18
342.34	13.31
342.552	9.22
342.764	9.22
342.977	-46.08
343.189	70.65
343.401	11.26
343.613	-9.22
343.826	-15.36
344.038	-5.12
344.25	-23.55
344.462	-15.36
344.674	-19.46
344.886	23.55
345.099	31.74
345.311	64.51
345.523	50.18
345.735	-7.17
345.947	64.51
346.159	62.46
346.371	44.03
346.583	13.31
346.795	66.56
347.007	11.26
347.219	19.46
347.431	134.14
347.643	31.74
347.855	29.7
348.067	50.18
348.279	66.56
348.491	23.55
348.703	74.75
348.915	82.94
349.127	91.13
349.339	29.7
349.551	52.22
349.763	19.46
349.975	-5.12
350.187	50.18
350.399	21.5
350.61	50.18
350.822	-23.55
351.034	44.03
351.246	9.22
351.458	9.22
351.669	84.99
351.881	37.89
352.093	35.84
352.305	46.08
352.517	82.94
352.728	78.85
352.94	87.04
353.152	29.7
353.363	17.41
353.575	25.6
353.787	-11.26
353.999	44.03
354.21	13.31
354.422	19.46
354.633	35.84
354.845	76.8
355.057	58.37
355.268	58.37
355.48	89.09
355.692	25.6
355.903	15.36
356.115	-13.31
356.326	1.02
356.538	-7.17
356.749	128
356.961	62.46
357.172	54.27
357.384	27.65
357.595	62.46
357.807	107.52
358.018	25.6
358.23	97.28
358.441	109.57
358.653	41.98
358.864	-56.32
359.075	78.85
359.287	72.7
359.498	80.89
359.709	50.18
359.921	52.22
360.132	48.13
360.344	84.99
360.555	50.18
360.766	19.46
360.977	52.22
361.189	35.84
361.4	74.75
361.611	58.37
361.823	33.79
362.034	41.98
362.245	-11.26
362.456	44.03
362.667	70.65
362.879	72.7
363.09	29.7
363.301	11.26
363.512	-29.7
363.723	-5.12
363.935	17.41
364.146	64.51
364.357	62.46
364.568	39.94
364.779	46.08
364.99	41.98
365.201	37.89
365.412	93.18
365.623	41.98
365.834	62.46
366.045	128
366.256	111.61
366.467	95.23
366.678	-7.17
366.889	117.76
367.1	62.46
367.311	1.02
367.522	64.51
367.733	37.89
367.944	17.41
368.155	50.18
368.366	-19.46
368.577	68.61
368.788	70.65
368.999	25.6
369.209	19.46
369.42	76.8
369.631	97.28
369.842	25.6
370.053	125.95
370.264	37.89
370.474	50.18
370.685	41.98
370.896	66.56
371.107	48.13
371.317	62.46
371.528	-52.22
371.739	64.51
371.95	50.18
372.16	84.99
372.371	41.98
372.582	46.08
372.792	80.89
373.003	91.13
373.214	35.84
373.424	50.18
373.635	3.07
373.846	-5.12
374.056	76.8
374.267	76.8
374.477	87.04
374.688	33.79
374.898	41.98
375.109	58.37
375.319	-41.98
375.53	35.84
375.74	76.8
375.951	84.99
376.161	17.41
376.372	66.56
376.582	35.84
376.793	50.18
377.003	17.41
377.214	74.75
377.424	33.79
377.635	82.94
377.845	-13.31
378.055	-5.12
378.266	33.79
378.476	72.7
378.686	68.61
378.897	54.27
379.107	111.61
379.317	33.79
379.528	33.79
379.738	62.46
379.948	50.18
380.158	7.17
380.369	7.17
380.579	-27.65
380.789	52.22
380.999	60.42
381.21	3.07
381.42	70.65
381.63	11.26
381.84	74.75
382.05	-5.12
382.261	105.47
382.471	144.38
382.681	99.33
382.891	74.75
383.101	50.18
383.311	-48.13
383.521	13.31
383.731	-31.74
383.941	68.61
384.151	66.56
384.361	25.6
384.571	66.56
384.781	78.85
384.991	123.9
385.201	17.41
385.411	50.18
385.621	95.23
385.831	33.79
386.041	60.42
386.251	97.28
386.461	41.98
386.671	33.79
386.881	11.26
387.091	35.84
387.301	68.61
387.511	7.17
387.72	76.8
387.93	95.23
388.14	11.26
388.35	1.02
388.56	189.44
388.769	101.37
388.979	31.74
389.189	91.13
389.399	56.32
389.609	35.84
389.818	123.9
390.028	25.6
390.238	44.03
390.447	58.37
390.657	-15.36
390.867	50.18
391.076	105.47
391.286	95.23
391.496	9.22
391.705	58.37
391.915	27.65
392.125	25.6
392.334	74.75
392.544	72.7
392.753	78.85
392.963	70.65
393.172	138.24
393.382	117.76
393.591	132.09
393.801	29.7
394.01	89.09
394.22	119.81
394.429	25.6
394.639	27.65
394.848	132.09
395.058	89.09
395.267	84.99
395.477	109.57
395.686	19.46
395.895	87.04
396.105	156.67
396.314	103.42
396.524	91.13
396.733	72.7
396.942	121.85
397.152	87.04
397.361	115.71
397.57	101.37
397.78	152.57
397.989	156.67
398.198	148.48
398.407	78.85
398.617	93.18
398.826	89.09
399.035	84.99
399.244	123.9
399.453	132.09
399.663	68.61
399.872	62.46
400.081	115.71
400.29	115.71
400.499	87.04
400.708	78.85
400.917	140.29
401.127	142.33
401.336	128
401.545	152.57
401.754	107.52
401.963	130.05
402.172	130.05
402.381	97.28
402.59	93.18
402.799	66.56
403.008	109.57
403.217	154.62
403.426	123.9
403.635	78.85
403.844	119.81
404.053	144.38
404.262	117.76
404.471	146.43
404.68	103.42
404.888	99.33
405.097	164.86
405.306	173.05
405.515	152.57
405.724	162.81
405.933	152.57
406.142	181.25
406.35	130.05
406.559	193.53
406.768	154.62
406.977	216.06
407.185	234.49
407.394	173.05
407.603	115.71
407.812	195.58
408.02	259.07
408.229	263.16
408.438	181.25
408.646	199.68
408.855	269.31
409.064	310.27
409.272	230.4
409.481	377.85
409.69	306.17
409.898	234.49
410.107	404.47
410.315	361.47
410.524	334.84
410.733	345.08
410.941	304.12
411.15	377.85
411.358	373.75
411.567	451.58
411.775	427
411.984	404.47
412.192	480.25
412.401	422.91
412.609	472.06
412.818	517.11
413.026	551.93
413.234	558.07
413.443	537.59
413.651	584.7
413.86	564.22
414.068	666.61
414.276	642.04
414.485	668.66
414.693	705.53
414.901	691.19
415.11	746.48
415.318	728.05
415.526	683
415.734	703.48
415.943	830.45
416.151	779.25
416.359	861.17
416.567	945.14
416.776	951.28
416.984	988.14
417.192	992.24
417.4	994.29
417.608	994.29
417.817	1014.77
418.025	1238
418.233	1270.76
418.441	1078.26
418.649	1387.5
418.857	1442.79
419.065	1313.77
419.273	1338.35
419.481	1362.92
419.689	1547.24
419.897	1483.75
420.105	1586.15
420.313	1655.78
420.521	1694.69
420.729	1676.26
420.937	1735.65
421.145	1762.28
421.353	1985.51
421.561	2085.86
421.769	2048.99
421.977	2116.58
422.185	2178.01
422.393	2247.65
422.601	2399.2
422.809	2493.4
423.017	2388.96
423.224	2573.27
423.432	2575.32
423.64	2622.42
423.848	2886.61
424.056	2859.99
424.263	2880.47
424.471	3062.74
424.679	3017.68
424.887	3247.05
425.094	3331.02
425.302	3339.21
425.51	3501
425.718	3517.39
425.925	3584.97
426.133	3886.02
426.341	4025.28
426.548	4123.59
426.756	4094.91
426.964	4236.22
427.171	4320.19
427.379	4596.67
427.586	4783.03
427.794	4809.65
428.001	4899.77
428.209	5192.62
428.417	5084.08
428.624	5465
428.832	5350.32
429.039	5540.78
429.247	5419.95
429.454	6151.07
429.662	6261.66
429.869	5897.13
430.076	6136.74
430.284	6198.18
430.491	6415.26
430.699	6857.62
430.906	6757.27
431.114	6785.94
431.321	7066.52
431.528	7302.03
431.736	7910.28
431.943	8022.92
432.15	8004.49
432.358	7883.66
432.565	8344.45
432.772	8262.53
432.979	8725.37
433.187	8768.38
433.394	9001.85
433.601	9397.1
433.808	9536.37
434.016	9692.01
434.223	10038.12
434.43	10720.09
434.637	10369.89
434.844	10963.8
435.052	11273.04
435.259	11049.82
435.466	11273.04
435.673	10904.41
435.88	11682.64
436.087	12309.32
436.294	12524.35
436.501	12178.25
436.708	12520.26
436.915	12815.16
437.122	13112.12
437.329	13783.85
437.537	14082.86
437.743	14205.74
437.95	13951.79
438.157	14641.95
438.364	15188.76
438.571	15012.63
438.778	15184.66
438.985	16554.76
439.192	15762.19
439.399	16521.99
439.606	16073.48
439.813	17050.36
440.02	18154.22
440.227	17572.6
440.433	17343.22
440.64	18238.19
440.847	18250.47
441.054	18545.38
441.261	19624.66
441.467	19247.83
441.674	19751.63
441.881	20423.37
442.088	20493
442.294	20128.46
442.501	20411.08
442.708	21138.11
442.914	22123.18
443.121	22813.35
443.328	22407.85
443.534	24031.89
443.741	23044.77
443.948	22973.09
444.154	24652.42
444.361	24386.19
444.568	24535.69
444.774	24445.58
444.981	24846.98
445.187	25379.45
445.394	26538.6
445.6	26395.25
445.807	28758.6
446.013	27462.24
446.22	28125.78
446.426	29172.29
446.633	29461.05
446.839	30618.16
447.046	29037.12
447.252	30745.13
447.459	30892.58
447.665	30970.41
447.871	32217.62
448.078	33032.71
448.284	31676.96
448.491	32256.53
448.697	33888.76
448.903	34683.37
449.11	34750.96
449.316	34068.98
449.522	34562.54
449.728	35359.2
449.935	35705.31
450.141	35625.44
450.347	36602.32
450.553	35088.87
450.76	35582.43
450.966	37085.64
451.172	36536.79
451.378	37595.59
451.584	36712.91
451.791	37675.46
451.997	37290.44
452.203	38179.26
452.409	38162.87
452.615	37986.75
452.821	36506.07
453.027	36035.03
453.233	38025.66
453.44	36231.64
453.646	36768.21
453.852	36903.37
454.058	37636.55
454.264	36620.75
454.47	36848.08
454.676	36166.1
454.882	37847.49
455.088	34458.1
455.294	34824.68
455.5	35088.87
455.705	35754.46
455.911	34294.26
456.117	33460.74
456.323	33059.34
456.529	31148.58
456.735	32864.78
456.941	31906.33
457.147	31494.69
457.352	30161.46
457.558	30231.09
457.764	30108.21
457.97	29250.11
458.176	28957.25
458.381	29065.8
458.587	27394.65
458.793	27587.16
458.999	26086
459.204	28109.4
459.41	27478.62
459.616	25408.12
459.821	25643.64
460.027	25614.97
460.233	25076.35
460.438	23456.41
460.644	23902.87
460.85	22854.31
461.055	22315.69
461.261	22295.21
461.466	20892.35
461.672	20185.8
461.878	21420.73
462.083	19942.1
462.289	19981.01
462.494	19759.83
462.7	18764.51
462.905	18019.05
463.111	18889.44
463.316	19110.62
463.522	18277.1
463.727	18774.75
463.932	18340.58
464.138	18334.44
464.343	18389.74
464.549	17842.93
464.754	18600.68
464.959	18309.86
465.165	18047.72
465.37	17666.8
465.575	16907.01
465.781	17578.74
465.986	17875.7
466.191	17052.41
466.397	16741.12
466.602	15917.84
466.807	16460.55
467.012	16560.9
467.218	16374.53
467.423	16218.89
467.628	16335.62
467.833	17023.74
468.038	16352.01
468.244	15897.36
468.449	16450.31
468.654	15913.74
468.859	15966.99
469.064	15760.14
469.269	15248.15
469.474	15143.7
469.679	15387.41
469.885	15100.7
470.09	15395.61
470.295	15342.36
470.5	14904.09
470.705	15080.22
470.91	14486.31
471.115	14326.57
471.32	14797.6
471.525	14568.23
471.73	14258.98
471.935	14244.65
472.139	13589.3
472.344	13957.93
472.549	13798.19
472.754	13634.35
472.959	13486.9
473.164	13073.21
473.369	13251.38
473.574	13218.61
473.778	13030.2
473.983	13062.97
474.188	13050.68
474.393	12278.6
474.598	12573.5
474.802	12387.14
475.007	12194.63
475.212	12225.35
475.417	11750.22
475.621	11744.08
475.826	11963.21
476.031	11699.02
476.235	11610.96
476.44	11709.26
476.645	11483.98
476.849	11545.42
477.054	11342.67
477.259	11082.58
477.463	11123.54
477.668	10820.44
477.872	11123.54
478.077	10761.05
478.282	10394.47
478.486	10617.69
478.691	10478.43
478.895	10652.51
479.1	10513.25
479.304	10290.02
479.509	10021.74
479.713	10183.52
479.918	9802.6
480.122	9917.29
480.326	10038.12
480.531	9907.05
480.735	9653.1
480.94	9722.73
481.144	10216.29
481.348	9614.19
481.553	9765.74
481.757	9370.48
481.961	9726.83
482.166	9649
482.37	9663.34
482.574	9433.97
482.778	9569.13
482.983	9718.64
483.187	9540.46
483.391	9784.17
483.595	9411.44
483.8	9329.52
484.004	9442.16
484.208	9485.17
484.412	9425.78
484.616	9618.29
484.821	9407.34
485.025	9544.56
485.229	9620.33
485.433	9393.01
485.637	9409.39
485.841	9491.31
486.045	9380.72
486.249	9610.09
486.453	9495.41
486.657	9679.72
486.861	9474.93
487.065	9380.72
487.269	9270.13
487.473	9411.44
487.677	9597.81
487.881	9476.98
488.085	9464.69
488.289	9489.26
488.493	9528.17
488.697	9526.13
488.901	9702.25
489.105	9526.13
489.309	9667.44
489.512	9622.38
489.716	9495.41
489.92	9591.66
490.124	9589.61
490.328	9808.75
490.531	9401.2
490.735	9913.19
490.939	9649
491.143	9671.53
491.346	9741.16
491.55	9993.06
491.754	9898.86
491.958	10052.45
492.161	9876.33
492.365	9968.49
492.569	9898.86
492.772	10011.5
492.976	10050.41
493.18	10142.57
493.383	10115.94
493.587	10445.66
493.79	10447.71
493.994	10234.72
494.197	10404.71
494.401	10589.02
494.605	10607.45
494.808	10816.35
495.012	10666.85
495.215	10834.78
495.419	10945.37
495.622	10822.49
495.825	11084.63
496.029	11002.71
496.232	11217.75
496.436	11369.3
496.639	11539.28
496.843	11453.27
497.046	11957.07
497.249	11737.93
497.453	11772.75
497.656	11850.57
497.859	12098.38
498.063	12133.19
498.266	12460.87
498.469	12364.61
498.673	12610.37
498.876	12569.41
499.079	12946.23
499.282	12739.39
499.485	12749.63
499.689	13333.3
499.892	13429.56
500.095	13529.91
500.298	13968.17
500.501	13677.36
500.705	14238.5
500.908	14230.31
501.111	14209.83
501.314	14426.92
501.517	14644
501.72	14715.68
501.923	14918.43
502.126	15190.81
502.329	15418.13
502.532	15455
502.735	15434.52
502.938	15803.15
503.141	15876.88
503.344	16306.95
503.547	16126.73
503.75	16452.36
503.953	16700.16
504.156	17249.02
504.359	17148.67
504.562	17339.13
504.765	17509.11
504.968	17621.75
505.17	17941.23
505.373	18008.81
505.576	18393.83
505.779	18604.77
505.982	18725.6
506.185	19108.57
506.387	19346.14
506.59	19374.81
506.793	19532.5
506.996	19616.47
507.198	20161.23
507.401	19944.14
507.604	20560.58
507.807	20740.8
508.009	20671.17
508.212	20988.61
508.415	21199.55
508.617	21402.3
508.82	21705.4
509.022	21715.64
509.225	22252.2
509.428	22356.65
509.63	22819.49
509.833	22866.6
510.035	23462.55
510.238	23382.68
510.44	23669.4
510.643	23988.88
510.845	24351.37
511.048	24173.2
511.25	24541.83
511.453	24429.2
511.655	25817.72
511.858	25207.42
512.06	25731.7
512.262	26188.4
512.465	26198.64
512.667	26393.2
512.87	26692.2
513.072	26929.77
513.274	27581.02
513.477	27755.1
513.679	28029.52
513.881	28154.45
514.084	28607.05
514.286	28351.06
514.488	28656.2
514.69	29825.59
514.893	29895.22
515.095	29723.19
515.297	30439.98
515.499	30304.82
515.701	30810.67
515.904	30974.5
516.106	31416.86
516.308	31908.38
516.51	32174.61
516.712	31935
516.914	32686.61
517.116	32862.73
517.318	33159.69
517.52	33262.08
517.722	33210.89
517.925	34320.88
518.127	34564.59
518.329	34726.38
518.531	34718.19
518.733	35295.72
518.935	35713.5
519.136	35662.3
519.338	36442.58
519.54	36688.34
519.742	36889.04
519.944	37308.87
520.146	37845.44
520.348	38064.57
520.55	38037.95
520.752	38404.53
520.954	39133.61
521.155	38746.54
521.357	39274.92
521.559	39604.64
521.761	40143.26
521.963	40278.43
522.164	40399.26
522.366	40257.95
522.568	41091.47
522.77	41226.63
522.971	41496.97
523.173	41574.79
523.375	41818.5
523.576	41924.99
523.778	42262.91
523.98	42613.11
524.181	43166.06
524.383	42983.79
524.584	43366.76
524.786	43598.18
524.988	43651.43
525.189	44394.84
525.391	44308.83
525.592	44517.72
525.794	44693.85
525.995	44583.26
526.197	45089.1
526.398	45164.88
526.6	45599.05
526.801	45300.04
527.003	45873.48
527.204	46006.59
527.406	46184.77
527.607	46186.82
527.808	46672.18
528.01	45828.42
528.211	46643.51
528.412	47479.08
528.614	47008.05
528.815	47368.49
529.016	47337.77
529.218	47159.6
529.419	47479.08
529.62	47542.57
529.822	47339.82
530.023	47505.71
530.224	47966.5
530.425	47882.53
530.626	47296.81
530.828	47487.28
531.029	48875.8
531.23	47894.82
531.431	48142.63
531.632	48179.49
531.833	48777.5
532.035	48091.43
532.236	48683.29
532.437	48783.64
532.638	48122.15
532.839	48847.13
533.04	48904.47
533.241	48249.12
533.442	49131.79
533.643	49017.11
533.844	48671
534.045	48718.1
534.246	48982.29
534.447	49182.99
534.648	48709.91
534.849	49166.61
535.05	48711.96
535.251	48980.24
535.451	49027.35
535.652	48816.41
535.853	48677.15
536.054	49223.95
536.255	49258.77
536.456	48560.41
536.657	49275.15
536.857	48779.54
537.058	48689.43
537.259	49531.15
537.46	49410.32
537.66	49051.92
537.861	49281.3
538.062	48767.26
538.263	49264.91
538.463	49135.89
538.664	49060.12
538.865	49441.04
539.065	49469.71
539.266	48906.52
539.466	49367.31
539.667	48701.72
539.868	49426.7
540.068	49131.79
540.269	48996.63
540.469	49256.72
540.67	48417.05
540.87	49242.38
541.071	49162.51
541.271	49398.03
541.472	49019.16
541.672	48847.13
541.873	49027.35
542.073	48429.34
542.274	49504.52
542.474	48724.25
542.675	48445.72
542.875	49473.81
543.075	48763.16
543.276	48591.13
543.476	49287.44
543.676	48210.21
543.877	48773.4
544.077	48765.21
544.277	48589.08
544.478	48486.68
544.678	48742.68
544.878	48681.24
545.078	49144.08
545.279	48599.32
545.479	48650.52
545.679	48992.53
545.879	48687.39
546.079	48578.84
546.28	48978.2
546.48	48220.45
546.68	49199.38
546.88	48947.48
547.08	48417.05
547.28	48881.94
547.48	48218.4
547.68	48714.01
547.88	48228.64
548.081	48906.52
548.281	48664.86
548.481	48474.4
548.681	48853.27
548.881	48767.26
549.081	48783.64
549.28	48263.46
549.48	48982.29
549.68	48568.6
549.88	48843.03
550.08	48544.03
550.28	48322.85
550.48	48310.56
550.68	48820.5
550.88	48445.72
551.08	48367.9
551.279	48353.57
551.479	47970.6
551.679	48048.42
551.879	48242.98
552.079	48634.14
552.278	48376.09
552.478	48328.99
552.678	48541.98
552.878	48652.57
553.077	48118.05
553.277	47798.57
553.477	48998.68
553.676	48079.14
553.876	48122.15
554.076	47810.85
554.275	48007.46
554.475	47173.94
554.674	47884.58
554.874	48144.67
555.074	47601.96
555.273	48279.84
555.473	47890.73
555.672	47542.57
555.872	47900.97
556.071	47812.9
556.271	48107.81
556.47	47763.75
556.67	47188.27
556.869	47595.82
557.068	47765.8
557.268	47085.87
557.467	47403.31
557.667	47167.79
557.866	47198.51
558.065	46987.57
558.265	47204.66
558.464	47116.59
558.663	47702.31
558.863	46657.85
559.062	47331.63
559.261	46438.72
559.461	46895.41
559.66	46276.93
559.859	46737.72
560.058	46326.08
560.258	46981.43
560.457	46334.27
560.656	46770.49
560.855	46512.44
561.054	46164.29
561.253	46354.75
561.453	46311.74
561.652	46502.2
561.851	46010.69
562.05	45988.16
562.249	45564.23
562.448	45723.97
562.647	46252.35
562.846	45951.3
563.045	45973.83
563.244	45214.03
563.443	46033.22
563.642	45289.8
563.841	45660.49
564.04	45699.4
564.239	45842.76
564.438	44988.75
564.637	45293.9
564.836	45543.75
565.035	44853.59
565.234	44998.99
565.432	45021.52
565.631	44798.29
565.83	45033.81
566.029	44912.98
566.228	44280.16
566.427	44648.79
566.625	44241.24
566.824	43929.95
567.023	44577.11
567.222	43704.68
567.42	44499.29
567.619	44013.92
567.818	43972.96
568.016	43620.71
568.215	44052.83
568.414	43786.6
568.612	43989.34
568.811	43493.74
569.01	43565.42
569.208	43184.49
569.407	43553.13
569.605	42903.92
569.804	43133.29
570.002	42660.21
570.201	43184.49
570.4	42553.72
570.598	42568.05
570.797	42252.67
570.995	42609.01
571.193	41986.43
571.392	42803.57
571.59	42099.07
571.789	42070.4
571.987	41671.04
572.186	42099.07
572.384	41421.19
572.582	41849.22
572.781	41771.39
572.979	41111.95
573.177	41482.63
573.376	41277.83
573.574	41021.84
573.772	41122.19
573.971	41011.6
574.169	40806.8
574.367	40305.05
574.565	41138.57
574.763	40645.01
574.962	40552.85
575.16	39926.17
575.358	40440.21
575.556	40094.11
575.754	40479.13
575.952	39668.13
576.151	40257.95
576.349	39578.02
576.547	39285.16
576.745	39434.66
576.943	39604.64
577.141	39692.71
577.339	39535.01
577.537	38924.72
577.735	39104.94
577.933	38625.71
578.131	38764.98
578.329	38580.66
578.527	38488.5
578.725	38556.08
578.923	38500.79
579.121	38275.51
579.319	38148.54
579.516	38398.39
579.714	38066.62
579.912	37951.93
580.11	38093.24
580.308	37687.74
580.506	37556.67
580.704	37073.35
580.901	37611.97
581.099	37587.39
581.297	37337.54
581.495	37134.79
581.692	37368.26
581.89	36813.26
582.088	37102.03
582.285	36915.66
582.483	36561.36
582.681	36733.39
582.878	36325.85
583.076	36358.61
583.274	36573.65
583.471	35963.36
583.669	36061.66
583.866	35717.6
584.064	36026.84
584.262	35471.84
584.459	35725.79
584.657	35717.6
584.854	35607.01
585.052	34879.98
585.249	35052.01
585.447	35267.05
585.644	34562.54
585.841	35131.88
586.039	34943.47
586.236	34824.68
586.434	34150.9
586.631	34494.96
586.828	34335.22
587.026	34535.92
587.223	34318.84
587.42	34185.72
587.618	33972.73
587.815	33858.04
588.012	33731.07
588.21	33616.38
588.407	33991.16
588.604	33538.56
588.801	33470.98
588.999	33384.96
589.196	33219.08
589.393	33169.93
589.59	32965.13
589.787	33147.4
589.984	32832.01
590.182	32674.32
590.379	33030.66
590.576	32604.69
590.773	32582.16
590.97	32510.48
591.167	32762.38
591.364	32145.94
591.561	32383.51
591.758	32141.85
591.955	32334.35
592.152	32141.85
592.349	31947.29
592.546	31752.73
592.743	31955.48
592.94	31328.8
593.137	31371.81
593.334	31705.63
593.531	30908.97
593.727	31318.56
593.924	31207.97
594.121	30698.03
594.318	30937.64
594.515	30573.1
594.712	31250.98
594.908	30806.57
595.105	30792.23
595.302	30331.44
595.499	30564.91
595.696	30026.29
595.892	29960.76
596.089	30405.17
596.286	30747.18
596.482	29741.63
596.679	30075.45
596.876	30351.92
597.072	29735.48
597.269	29665.85
597.466	29633.08
597.662	29131.33
597.859	29289.03
598.055	29391.42
598.252	29246.02
598.448	29372.99
598.645	28996.17
598.841	28850.76
599.038	28680.78
599.234	28750.41
599.431	28451.41
599.627	28578.38
599.824	29135.43
600.02	28129.87
600.217	28428.88
600.413	28176.98
600.609	28189.27
600.806	27898.45
601.002	28232.27
601.198	27984.47
601.395	27644.51
601.591	27656.79
601.787	27673.18
601.984	27204.19
602.18	27867.73
602.376	27429.47
602.572	27234.91
602.769	27421.28
602.965	26798.7
603.161	26966.63
603.357	26886.76
603.553	26788.46
603.75	26933.86
603.946	26763.88
604.142	26673.77
604.338	26079.86
604.534	26757.74
604.73	26497.64
604.926	26251.89
605.122	26241.65
605.318	26104.43
605.514	25889.4
605.71	25993.84
605.906	25834.1
606.102	25850.49
606.298	25991.8
606.494	25774.71
606.69	25385.6
606.886	25385.6
607.082	25125.5
607.278	25539.19
607.474	25145.98
607.67	25123.46
607.866	24822.41
608.062	25320.06
608.257	24992.39
608.453	25129.6
608.649	24908.42
608.845	24744.58
609.041	24687.24
609.236	24830.6
609.432	24691.34
609.628	24535.69
609.824	24560.27
610.019	24566.41
610.215	24406.67
610.411	24500.87
610.606	24267.41
610.802	24535.69
610.998	24156.82
611.193	23906.96
611.389	23655.06
611.584	24322.7
611.78	23943.83
611.976	23945.87
612.171	23626.39
612.367	23650.97
612.562	23571.1
612.758	23419.55
612.953	23505.56
613.149	23583.38
613.344	23120.54
613.539	23700.12
613.735	23425.69
613.93	23265.95
614.126	23061.15
614.321	23300.76
614.517	23351.96
614.712	22895.27
614.907	22661.8
615.103	23132.83
615.298	22944.42
615.493	23118.5
615.688	22594.22
615.884	23032.48
616.079	22352.55
616.274	22776.48
616.47	22364.84
616.665	22665.89
616.86	22270.64
617.055	22506.15
617.25	22088.37
617.445	22530.73
617.641	22080.18
617.836	22442.67
618.031	21865.14
618.226	22076.08
618.421	21674.68
618.616	21877.43
618.811	21668.53
619.006	21803.7
619.201	21686.97
619.396	21512.89
619.591	21156.54
619.786	21484.22
619.981	20835.01
620.176	21543.61
620.371	21045.95
620.566	20792
620.761	20830.91
620.956	20935.36
621.151	20433.61
621.346	20814.53
621.541	20409.03
621.735	20478.66
621.93	20032.21
622.125	20359.88
622.32	19913.42
622.515	20075.21
622.709	19749.59
622.904	19856.08
623.099	19679.96
623.294	19755.73
623.488	19682
623.683	19167.96
623.878	19180.25
624.072	19391.19
624.267	19159.77
624.462	19069.66
624.656	18774.75
624.851	18864.86
625.046	18711.27
625.24	18426.6
625.435	18217.71
625.629	18508.52
625.824	18182.89
626.018	18250.47
626.213	17804.02
626.407	18158.31
626.602	17656.56
626.796	17748.72
626.991	17799.92
627.185	17572.6
627.38	17697.52
627.574	17507.06
627.768	17226.49
627.963	17191.67
628.157	17134.33
628.352	17236.73
628.546	16753.41
628.74	16902.91
628.935	16837.38
629.129	16599.81
629.323	16579.33
629.517	16642.82
629.712	16466.69
629.906	16132.87
630.1	16325.38
630.294	16130.83
630.489	16265.99
630.683	16145.16
630.877	15661.84
631.071	15950.6
631.265	15837.97
631.459	15686.42
631.653	15741.71
631.848	15573.78
632.042	15473.43
632.236	15430.42
632.43	15315.73
632.624	15430.42
632.818	15102.75
633.012	14824.22
633.206	14998.3
633.4	15016.73
633.594	14693.15
633.788	14674.72
633.982	14879.52
634.176	14785.31
634.369	14428.96
634.563	14474.02
634.757	14314.28
634.951	14474.02
635.145	14162.73
635.339	14222.12
635.533	14064.43
635.726	14140.2
635.92	13765.42
636.114	13871.92
636.308	13939.5
636.501	13771.57
636.695	13658.93
636.889	13452.08
637.083	13523.76
637.276	13214.52
637.47	13163.32
637.664	13359.92
637.857	13413.17
638.051	13220.66
638.244	12866.36
638.438	12938.04
638.632	12712.77
638.825	12913.47
639.019	12817.21
639.212	12845.88
639.406	12759.87
639.599	12561.22
639.793	12624.7
639.986	12323.65
640.18	12456.77
640.373	12477.25
640.567	12161.86
640.76	11856.72
640.954	12063.56
641.147	12122.95
641.34	11823.95
641.534	11914.06
641.727	11520.85
641.92	11785.04
642.114	11692.88
642.307	11631.44
642.5	11594.58
642.694	11584.34
642.887	11332.44
643.08	11375.44
643.273	11289.43
643.467	11225.94
643.66	11113.3
643.853	11193.17
644.046	10802.01
644.239	11178.84
644.432	10781.53
644.626	10902.36
644.819	10824.54
645.012	10759
645.205	10912.6
645.398	10513.25
645.591	10728.28
645.784	10627.93
645.977	10404.71
646.17	10365.79
646.363	10416.99
646.556	10195.81
646.749	10210.15
646.942	10292.07
647.135	10015.59
647.328	9997.16
647.521	9849.71
647.714	9823.08
647.907	9675.63
648.099	9677.68
648.292	9775.98
648.485	9710.44
648.678	9517.93
648.871	9462.64
649.064	9550.7
649.256	9431.92
649.449	9372.53
649.642	9309.04
649.835	9108.34
650.027	9313.14
650.22	9218.93
650.413	9010.04
650.605	9149.3
650.798	9182.07
650.991	8934.26
651.183	9114.48
651.376	8582.01
651.568	8901.5
651.761	8821.63
651.954	8680.32
652.146	8848.25
652.339	8567.68
652.531	8520.57
652.724	8412.03
652.916	8326.02
653.109	8313.73
653.301	8426.37
653.494	8242.05
653.686	8176.52
653.879	8170.37
654.071	8168.32
654.263	7975.81
654.456	8272.77
654.648	8072.07
654.84	7857.03
655.033	7889.8
655.225	7816.07
655.417	7865.22
655.61	7660.43
655.802	7801.74
655.994	7621.52
656.186	7701.39
656.379	7728.01
656.571	7570.32
656.763	7617.42
656.955	7390.1
657.148	7498.64
657.34	7359.38
657.532	7250.83
657.724	7179.15
657.916	7334.8
658.108	7232.4
658.3	7119.76
658.492	7201.68
658.684	7072.66
658.876	7070.61
659.068	6947.73
659.26	6972.31
659.452	6859.67
659.644	6925.21
659.836	6744.99
660.028	6874.01
660.22	6624.15
660.412	6790.04
660.604	6624.15
660.796	6701.98
660.988	6599.58
661.18	6515.61
661.372	6437.79
661.563	6628.25
661.755	6495.13
661.947	6452.13
662.139	6407.07
662.331	6294.43
662.522	6300.58
662.714	6044.58
662.906	6087.59
663.097	6204.32
663.289	6134.69
663.481	5999.52
663.673	5968.8
663.864	6056.87
664.056	5915.56
664.247	5997.48
664.439	5673.9
664.631	5936.04
664.822	5780.39
665.014	5811.11
665.205	5972.9
665.397	5813.16
665.588	5620.65
665.78	5583.79
665.971	5563.31
666.163	5641.13
666.354	5690.28
666.546	5614.51
666.737	5596.07
666.929	5526.44
667.12	5374.89
667.311	5426.09
667.503	5346.22
667.694	5583.79
667.885	5376.94
668.077	5282.74
668.268	5376.94
668.459	5202.86
668.651	5139.38
668.842	5166
669.033	5120.95
669.224	5051.31
669.416	5227.44
669.607	5004.21
669.798	5122.99
669.989	5155.76
670.18	5116.85
670.371	5049.27
670.563	4916.15
670.754	4789.17
670.945	4873.14
671.136	4912.05
671.327	4907.96
671.518	4885.43
671.709	4764.6
671.9	4834.23
672.091	4785.08
672.282	4754.36
672.473	4651.96
672.664	4719.54
672.855	4637.63
673.046	4723.64
673.237	4649.91
673.428	4557.75
673.619	4746.17
673.809	4576.19
674	4441.02
674.191	4518.84
674.382	4557.75
674.573	4527.03
674.764	4578.23
674.954	4430.78
675.145	4361.15
675.336	4236.22
675.527	4592.57
675.717	4459.45
675.908	4371.39
676.099	4463.55
676.289	4332.48
676.48	4256.7
676.671	4193.22
676.861	4295.61
677.052	4357.05
677.243	4309.95
677.433	4273.09
677.624	4285.37
677.814	4219.84
678.005	4164.54
678.195	4127.68
678.386	4099.01
678.576	4228.03
678.767	4096.96
678.957	4078.53
679.148	4185.02
679.338	4041.67
679.529	4191.17
679.719	4041.67
679.909	4139.97
680.1	3920.84
680.29	4211.65
680.481	3965.89
680.671	4045.76
680.861	3941.32
681.052	4041.67
681.242	4037.57
681.432	3867.59
681.622	3797.96
681.813	3787.72
682.003	3998.66
682.193	3802.05
682.383	3840.97
682.573	3906.5
682.764	3791.81
682.954	3728.33
683.144	3949.51
683.334	3830.73
683.524	3838.92
683.714	3800.01
683.904	3701.7
684.094	3863.49
684.284	3668.94
684.474	3802.05
684.664	3716.04
684.854	3709.9
685.044	3713.99
685.234	3771.33
685.424	3580.87
685.614	3654.6
685.804	3566.54
685.994	3681.22
686.184	3687.37
686.374	3697.61
686.564	3683.27
686.753	3611.59
686.943	3613.64
687.133	3597.26
687.323	3599.31
687.513	3716.04
687.702	3660.74
687.892	3449.8
688.082	3494.86
688.272	3525.58
688.461	3580.87
688.651	3552.2
688.841	3445.71
689.03	3498.95
689.22	3501
689.41	3343.31
689.599	3494.86
689.789	3443.66
689.979	3363.79
690.168	3374.03
690.358	3408.84
690.547	3351.5
690.737	3437.52
690.926	3449.8
691.116	3390.41
691.305	3437.52
691.495	3441.61
691.684	3414.99
691.874	3371.98
692.063	3476.43
692.252	3302.35
692.442	3433.42
692.631	3343.31
692.82	3310.54
693.01	3451.85
693.199	3326.93
693.388	3263.44
693.578	3208.14
693.767	3384.27
693.956	3269.58
694.146	3197.9
694.335	3320.78
694.524	3378.12
694.713	3208.14
694.902	3253.2
695.092	3263.44
695.281	3294.16
695.47	3226.57
695.659	3386.32
695.848	3333.07
696.037	3363.79
696.226	3298.25
696.415	3324.88
696.604	3308.49
696.793	3230.67
696.982	3271.63
697.171	3191.76
697.36	3204.05
697.549	3240.91
697.738	3306.45
697.927	3142.61
698.116	3193.81
698.305	3245.01
698.494	3285.97
698.683	3107.79
698.872	3191.76
699.061	3158.99
699.25	3148.75
699.438	3048.4
699.627	3101.65
699.816	3171.28
700.005	3101.65
700.193	3120.08
700.382	3183.57
700.571	3097.55
700.76	3091.41
700.948	3249.1
701.137	3107.79
701.326	2892.76
701.514	3146.7
701.703	3042.26
701.892	3085.26
702.08	3083.22
702.269	3124.18
702.457	3099.6
702.646	3075.03
702.834	3097.55
703.023	3142.61
703.212	3146.7
703.4	2993.11
703.589	3099.6
703.777	3083.22
703.965	2976.72
704.154	3009.49
704.342	2997.2
704.531	2980.82
704.719	2905.04
704.907	2866.13
705.096	2927.57
705.284	2929.62
705.472	2958.29
705.661	2892.76
705.849	2870.23
706.037	2991.06
706.226	3142.61
706.414	2896.85
706.602	2950.1
706.79	2974.67
706.979	2941.91
707.167	2808.79
707.355	2859.99
707.543	2827.22
707.731	2794.45
707.919	2876.37
708.107	2853.84
708.296	2816.98
708.484	2735.06
708.672	2784.21
708.86	2876.37
709.048	2800.6
709.236	2773.97
709.424	2802.65
709.612	2712.53
709.8	2833.36
709.988	2610.14
710.176	2741.21
710.364	2708.44
710.551	2649.05
710.739	2634.71
710.927	2589.66
711.115	2649.05
711.303	2630.62
711.491	2534.36
711.679	2630.62
711.866	2542.55
712.054	2546.65
712.242	2550.75
712.43	2524.12
712.617	2601.94
712.805	2556.89
712.993	2548.7
713.181	2419.68
713.368	2491.35
713.556	2554.84
713.744	2528.22
713.931	2642.9
714.119	2530.27
714.306	2487.26
714.494	2462.68
714.682	2493.4
714.869	2397.15
715.057	2333.66
715.244	2442.2
715.432	2448.35
715.619	2444.25
715.807	2235.36
715.994	2364.38
716.182	2409.44
716.369	2345.95
716.556	2487.26
716.744	2368.48
716.931	2319.32
717.119	2393.05
717.306	2298.84
717.493	2411.48
717.681	2329.56
717.868	2434.01
718.055	2331.61
718.242	2284.51
718.43	2282.46
718.617	2345.95
718.804	2235.36
718.991	2251.74
719.179	2155.49
719.366	2161.63
719.553	2188.25
719.74	2229.21
719.927	2284.51
720.114	2157.54
720.301	2024.42
720.488	2157.54
720.676	2171.87
720.863	2040.8
721.05	2073.57
721.237	2081.76
721.424	2184.16
721.611	2055.14
721.798	2014.18
721.985	2057.18
722.172	2157.54
722.358	1999.84
722.545	2040.8
722.732	2055.14
722.919	2032.61
723.106	2106.34
723.293	2094.05
723.48	1985.51
723.667	1979.36
723.853	2053.09
724.04	1891.3
724.227	2048.99
724.414	2038.75
724.6	1995.75
724.787	2005.99
724.974	2026.47
725.161	2040.8
725.347	1922.02
725.534	1911.78
725.72	1932.26
725.907	1911.78
726.094	1932.26
726.28	1965.03
726.467	1881.06
726.653	1838.05
726.84	1965.03
727.027	1893.35
727.213	1842.15
727.4	1897.44
727.586	1887.2
727.773	1901.54
727.959	1909.73
728.145	1879.01
728.332	1836
728.518	1825.76
728.705	1901.54
728.891	1795.04
729.077	1805.28
729.264	1700.84
729.45	1721.32
729.636	1872.87
729.823	1770.47
730.009	1678.31
730.195	1833.96
730.382	1807.33
730.568	1829.86
730.754	1649.64
730.94	1713.13
731.126	1668.07
731.313	1649.64
731.499	1688.55
731.685	1700.84
731.871	1651.69
732.057	1598.44
732.243	1735.65
732.429	1680.36
732.615	1706.98
732.801	1766.37
732.987	1668.07
733.173	1713.13
733.359	1537
733.545	1692.65
733.731	1663.97
733.917	1647.59
734.103	1758.18
734.289	1653.73
734.475	1586.15
734.661	1555.43
734.847	1600.49
735.033	1625.06
735.219	1551.34
735.404	1557.48
735.59	1625.06
735.776	1672.17
735.962	1610.73
736.148	1657.83
736.333	1569.77
736.519	1586.15
736.705	1653.73
736.89	1614.82
737.076	1510.38
737.262	1549.29
737.447	1498.09
737.633	1534.95
737.819	1498.09
738.004	1561.58
738.19	1567.72
738.375	1586.15
738.561	1551.34
738.747	1582.06
738.932	1493.99
739.118	1475.56
739.303	1502.19
739.489	1528.81
739.674	1387.5
739.859	1426.41
740.045	1532.9
740.23	1436.65
740.416	1453.03
740.601	1401.83
740.786	1428.46
740.972	1418.22
741.157	1424.36
741.342	1528.81
741.528	1367.02
741.713	1403.88
741.898	1461.23
742.084	1453.03
742.269	1348.59
742.454	1278.96
742.639	1340.4
742.824	1340.4
743.01	1303.53
743.195	1383.4
743.38	1416.17
743.565	1330.16
743.75	1297.39
743.935	1328.11
744.12	1256.43
744.305	1305.58
744.49	1297.39
744.675	1217.52
744.86	1264.62
745.045	1321.96
745.23	1317.87
745.415	1256.43
745.6	1256.43
745.785	1299.44
745.97	1246.19
746.155	1235.95
746.34	1221.61
746.525	1188.85
746.71	1166.32
746.895	1188.85
747.079	1182.7
747.264	1250.28
747.449	1154.03
747.634	1108.98
747.819	1205.23
748.003	1135.6
748.188	1102.83
748.373	1209.33
748.557	1113.07
748.742	1090.54
748.927	1070.06
749.111	1166.32
749.296	1147.89
749.481	1074.16
749.665	1096.69
749.85	1027.06
750.034	1113.07
750.219	1012.72
750.404	1025.01
750.588	1035.25
750.773	1049.58
750.957	1020.91
751.141	1049.58
751.326	1113.07
751.51	1027.06
751.695	1029.1
751.879	1041.39
752.064	1065.97
752.248	971.76
752.432	1061.87
752.617	1055.73
752.801	951.28
752.985	1051.63
753.17	994.29
753.354	918.51
753.538	1010.67
753.722	924.66
753.907	984.05
754.091	959.47
754.275	908.27
754.459	963.57
754.643	924.66
754.828	906.23
755.012	926.71
755.196	852.98
755.38	914.42
755.564	963.57
755.748	783.35
755.932	910.32
756.116	885.75
756.3	865.27
756.484	910.32
756.668	859.12
756.852	828.4
757.036	934.9
757.22	820.21
757.404	877.55
757.588	834.55
757.772	873.46
757.956	787.44
758.14	850.93
758.323	812.02
758.507	799.73
758.691	705.53
758.875	738.29
759.059	809.97
759.242	687.09
759.426	848.88
759.61	721.91
759.794	775.16
759.977	717.81
760.161	723.96
760.345	816.12
760.528	797.68
760.712	756.72
760.895	697.33
761.079	758.77
761.263	699.38
761.446	736.24
761.63	750.58
761.813	803.83
761.997	734.2
762.18	658.42
762.364	683
762.547	680.95
762.731	691.19
762.914	746.48
763.098	674.81
763.281	742.39
763.464	726
763.648	615.41
763.831	787.44
764.015	635.89
764.198	672.76
764.381	777.2
764.564	723.96
764.748	635.89
764.931	697.33
765.114	642.04
765.297	695.29
765.481	623.61
765.664	672.76
765.847	691.19
766.03	646.13
766.213	588.79
766.397	654.33
766.58	650.23
766.763	627.7
766.946	639.99
767.129	656.37
767.312	660.47
767.495	648.18
767.678	623.61
767.861	601.08
768.044	629.75
768.227	644.09
768.41	691.19
768.593	580.6
768.776	697.33
768.959	633.85
769.142	660.47
769.324	617.46
769.507	650.23
769.69	625.65
769.873	672.76
770.056	654.33
770.239	533.5
770.421	594.93
770.604	582.65
770.787	584.7
770.97	498.68
771.152	603.13
771.335	558.07
771.518	648.18
771.7	502.78
771.883	504.82
772.066	556.02
772.248	639.99
772.431	584.7
772.613	560.12
772.796	607.22
772.978	584.7
773.161	549.88
773.343	553.98
773.526	484.34
773.708	553.98
773.891	525.3
774.073	490.49
774.256	584.7
774.438	541.69
774.621	617.46
774.803	547.83
774.985	596.98
775.168	523.26
775.35	551.93
775.532	560.12
775.715	476.15
775.897	576.5
776.079	558.07
776.261	474.1
776.444	533.5
776.626	412.67
776.808	533.5
776.99	549.88
777.173	482.3
777.355	451.58
777.537	504.82
777.719	461.82
777.901	459.77
778.083	455.67
778.265	429.05
778.447	525.3
778.629	453.63
778.811	445.43
778.993	437.24
779.175	404.47
779.357	435.19
779.539	404.47
779.721	375.8
779.903	394.23
780.085	527.35
780.267	414.71
780.449	369.66
780.631	480.25
780.812	435.19
780.994	402.43
781.176	433.15
781.358	386.04
781.54	420.86
781.721	447.48
781.903	336.89
782.085	308.22
782.267	429.05
782.448	365.56
782.63	408.57
782.812	390.14
782.993	351.23
783.175	375.8
783.357	304.12
783.538	345.08
783.72	377.85
783.901	386.04
784.083	349.18
784.264	365.56
784.446	414.71
784.627	336.89
784.809	355.32
784.99	369.66
785.172	306.17
785.353	351.23
785.535	330.75
785.716	322.56
785.897	336.89
786.079	291.84
786.26	312.32
786.441	345.08
786.623	304.12
786.804	302.08
786.985	254.97
787.167	320.51
787.348	308.22
787.529	297.98
787.71	316.41
787.891	293.88
788.073	240.64
788.254	281.6
788.435	308.22
788.616	306.17
788.797	324.6
788.978	334.84
789.159	320.51
789.34	246.78
789.522	289.79
789.703	273.4
789.884	230.4
790.065	242.68
790.246	314.36
790.427	279.55
790.607	257.02
790.788	252.92
790.969	238.59
791.15	203.77
791.331	211.96
791.512	275.45
791.693	273.4
791.874	164.86
792.054	236.54
792.235	271.36
792.416	300.03
792.597	259.07
792.778	222.2
792.958	183.29
793.139	232.44
793.32	263.16
793.5	226.3
793.681	218.11
793.862	242.68
794.042	285.69
794.223	207.87
794.404	205.82
794.584	197.63
794.765	177.15
794.945	195.58
795.126	207.87
795.306	259.07
795.487	193.53
795.667	185.34
795.848	283.64
796.028	234.49
796.209	277.5
796.389	156.67
796.57	261.12
796.75	162.81
796.93	164.86
797.111	216.06
797.291	171.01
797.471	164.86
797.652	185.34
797.832	203.77
798.012	189.44
798.192	201.72
798.373	203.77
798.553	248.83
798.733	244.73
798.913	181.25
799.093	183.29
799.274	113.66
799.454	185.34
799.634	103.42
799.814	220.16
799.994	216.06
800.174	84.99
800.354	136.19
800.534	119.81
800.714	281.6
800.894	179.2
801.074	136.19
801.254	234.49
801.434	240.64
801.614	134.14
801.794	207.87
801.974	377.85
802.154	144.38
802.334	123.9
802.514	193.53
802.693	136.19
802.873	230.4
803.053	224.25
803.233	181.25
803.413	162.81
803.592	179.2
803.772	185.34
803.952	166.91
804.131	156.67
804.311	166.91
804.491	148.48
804.67	203.77
804.85	132.09
805.03	150.53
805.209	164.86
805.389	177.15
805.568	164.86
805.748	132.09
805.928	185.34
806.107	166.91
806.287	84.99
806.466	121.85
806.646	119.81
806.825	140.29
807.004	125.95
807.184	171.01
807.363	173.05
807.543	101.37
807.722	201.72
807.901	142.33
808.081	58.37
808.26	132.09
808.439	185.34
808.619	44.03
808.798	99.33
808.977	193.53
809.156	195.58
809.336	66.56
809.515	111.61
809.694	140.29
809.873	132.09
810.052	66.56
810.231	119.81
810.411	52.22
810.59	166.91
810.769	109.57
810.948	115.71
811.127	103.42
811.306	72.7
811.485	125.95
811.664	101.37
811.843	123.9
812.022	132.09
812.201	140.29
812.38	115.71
812.559	89.09
812.737	93.18
812.916	33.79
813.095	76.8
813.274	156.67
813.453	140.29
813.632	64.51
813.811	146.43
813.989	111.61
814.168	109.57
814.347	91.13
814.526	150.53
814.704	132.09
814.883	52.22
815.062	125.95
815.24	109.57
815.419	41.98
815.598	164.86
815.776	84.99
815.955	70.65
816.133	68.61
816.312	82.94
816.49	39.94
816.669	123.9
816.847	142.33
817.026	117.76
817.204	111.61
817.383	91.13
817.561	58.37
817.74	50.18
817.918	103.42
818.097	56.32
818.275	68.61
818.453	99.33
818.632	93.18
818.81	91.13
818.988	87.04
819.167	76.8
819.345	82.94
819.523	160.77
819.701	105.47
819.879	70.65
820.058	13.31
820.236	93.18
820.414	31.74
820.592	56.32
820.77	134.14
820.948	144.38
821.127	25.6
821.305	82.94
821.483	9.22
821.661	97.28
821.839	54.27
822.017	19.46
822.195	50.18
822.373	171.01
822.551	60.42
822.729	91.13
822.907	97.28
823.085	84.99
823.262	37.89
823.44	70.65
823.618	140.29
823.796	35.84
823.974	70.65
824.152	5.12
824.329	60.42
824.507	89.09
824.685	128
824.863	148.48
825.04	74.75
825.218	103.42
825.396	56.32
825.574	70.65
825.751	54.27
825.929	31.74
826.107	52.22
826.284	89.09
826.462	87.04
826.639	54.27
826.817	68.61
826.994	70.65
827.172	21.5
827.349	93.18
827.527	111.61
827.704	31.74
827.882	84.99
828.059	37.89
828.237	-23.55
828.414	70.65
828.591	15.36
828.769	58.37
828.946	74.75
829.124	54.27
829.301	52.22
829.478	58.37
829.655	66.56
829.833	68.61
830.01	54.27
830.187	132.09
830.364	111.61
830.542	115.71
830.719	62.46
830.896	41.98
831.073	44.03
831.25	44.03
831.427	62.46
831.604	31.74
831.782	91.13
831.959	80.89
832.136	74.75
832.313	93.18
832.49	66.56
832.667	89.09
832.844	91.13
833.021	50.18
833.198	31.74
833.374	52.22
833.551	5.12
833.728	17.41
833.905	64.51
834.082	33.79
834.259	27.65
834.436	50.18
834.612	58.37
834.789	130.05
834.966	76.8
835.143	93.18
835.319	23.55
835.496	84.99
835.673	50.18
835.85	54.27
836.026	9.22
836.203	11.26
836.38	-7.17
836.556	70.65
836.733	-44.03
836.909	66.56
837.086	48.13
837.262	84.99
837.439	-1.02
837.616	9.22
837.792	15.36
837.968	33.79
838.145	-15.36
838.321	87.04
838.498	58.37
838.674	64.51
838.851	25.6
839.027	-19.46
839.203	17.41
839.38	78.85
839.556	29.7
839.732	41.98
839.909	23.55
840.085	37.89
840.261	5.12
840.437	56.32
840.614	50.18
840.79	52.22
840.966	35.84
841.142	66.56
841.318	78.85
841.494	50.18
841.671	-23.55
841.847	99.33
842.023	87.04
842.199	56.32
842.375	-27.65
842.551	1.02
842.727	37.89
842.903	78.85
843.079	41.98
843.255	64.51
843.431	11.26
843.607	56.32
843.783	58.37
843.959	17.41
844.134	25.6
844.31	50.18
844.486	52.22
844.662	13.31
844.838	21.5
845.013	68.61
845.189	68.61
845.365	44.03
845.541	17.41
845.716	-19.46
845.892	56.32
846.068	56.32
846.244	31.74
846.419	44.03
846.595	37.89
846.77	93.18
846.946	44.03
847.122	19.46
847.297	-15.36
847.473	99.33
847.648	91.13
847.824	-19.46
847.999	27.65
848.175	35.84
848.35	125.95
848.526	95.23
848.701	-19.46
848.876	27.65
849.052	35.84
849.227	68.61
849.403	-5.12
849.578	84.99
849.753	1.02
849.929	1.02
850.104	97.28
850.279	15.36
850.454	76.8
850.63	21.5
850.805	37.89
850.98	-15.36
851.155	-3.07
851.33	68.61
851.505	17.41
851.681	27.65
851.856	-35.84
852.031	41.98
852.206	33.79
852.381	39.94
852.556	29.7
852.731	7.17
852.906	25.6
853.081	19.46
853.256	54.27
853.431	29.7
853.606	60.42
853.781	1.02
853.956	15.36
854.131	29.7
854.305	-37.89
854.48	50.18
854.655	58.37
854.83	-54.27
855.005	1.02
855.18	58.37
855.354	-9.22
855.529	-41.98
855.704	-48.13
855.879	66.56
856.053	3.07
856.228	84.99
856.403	5.12
856.577	60.42
856.752	41.98
856.926	31.74
857.101	-9.22
857.276	-13.31
857.45	-31.74
857.625	-66.56
857.799	33.79
857.974	5.12
858.148	41.98
858.323	13.31
858.497	54.27
858.672	-15.36
858.846	-56.32
859.02	-7.17
859.195	-31.74
859.369	-27.65
859.543	-7.17
859.718	35.84
859.892	27.65
860.066	21.5
860.241	46.08
860.415	25.6
860.589	62.46
860.763	56.32
860.938	15.36
861.112	54.27
861.286	50.18
861.46	62.46
861.634	-27.65
861.808	-15.36
861.982	29.7
862.157	25.6
862.331	-50.18
862.505	44.03
862.679	-23.55
862.853	-5.12
863.027	-13.31
863.201	-31.74
863.375	-41.98
863.549	39.94
863.722	-58.37
863.896	-37.89
864.07	-54.27
864.244	-19.46
864.418	78.85
864.592	9.22
864.766	17.41
864.939	52.22
865.113	-11.26
865.287	19.46
865.461	11.26
865.634	-29.7
865.808	-9.22
865.982	44.03
866.156	19.46
866.329	13.31
866.503	25.6
866.676	21.5
866.85	-50.18
867.024	91.13
867.197	9.22
867.371	11.26
867.544	27.65
867.718	-25.6
867.891	-23.55
868.065	-25.6
868.238	-23.55
868.412	68.61
868.585	23.55
868.759	-58.37
868.932	-23.55
869.105	9.22
869.279	44.03
869.452	-62.46
869.625	121.85
869.799	9.22
869.972	-11.26
870.145	68.61
870.319	29.7
870.492	-41.98
870.665	21.5
870.838	-44.03
871.011	1.02
871.185	-3.07
871.358	-27.65
871.531	-33.79
871.704	-1.02
871.877	-23.55
872.05	-1.02
872.223	17.41
872.396	19.46
872.569	-25.6
872.742	-103.42
872.915	-13.31
873.088	15.36
873.261	29.7
873.434	-19.46
873.607	37.89
873.78	19.46
873.953	17.41
874.126	46.08
874.299	17.41
874.471	-21.5
874.644	1.02
874.817	5.12
874.99	19.46
875.163	21.5
875.335	66.56
875.508	-44.03
875.681	-3.07
875.853	-91.13
876.026	9.22
876.199	58.37
876.371	7.17
876.544	35.84
876.717	52.22
876.889	-56.32
877.062	-62.46
877.234	25.6
877.407	-19.46
877.579	-21.5
877.752	25.6
877.924	13.31
878.097	11.26
878.269	35.84
878.442	-56.32
878.614	39.94
878.786	-1.02
878.959	25.6
879.131	9.22
879.303	-31.74
879.476	25.6
879.648	21.5
879.82	25.6
879.993	-35.84
880.165	35.84
880.337	-31.74
880.509	15.36
880.681	33.79
880.854	66.56
881.026	54.27
881.198	19.46
881.37	-17.41
881.542	1.02
881.714	-5.12
881.886	-11.26
882.058	-35.84
882.23	-11.26
882.402	-13.31
882.574	-13.31
882.746	33.79
882.918	82.94
883.09	35.84
883.262	52.22
883.434	52.22
883.606	19.46
883.778	91.13
883.95	17.41
884.122	-46.08
884.293	29.7
884.465	-25.6
884.637	21.5
884.809	-7.17
884.98	66.56
885.152	-25.6
885.324	50.18
885.496	1.02
885.667	-37.89
885.839	37.89
886.011	41.98
886.182	-7.17
886.354	9.22
886.525	3.07
886.697	-27.65
886.869	50.18
887.04	11.26
887.212	23.55
887.383	-39.94
887.555	-15.36
887.726	-7.17
887.897	50.18
888.069	52.22
888.24	66.56
888.412	-7.17
888.583	52.22
888.754	39.94
888.926	39.94
889.097	60.42
889.268	50.18
889.44	27.65
889.611	17.41
889.782	-7.17
889.953	-11.26
890.125	5.12
890.296	-70.65
890.467	7.17
890.638	13.31
890.809	-15.36
890.98	-7.17
891.151	-37.89
891.323	74.75
891.494	-5.12
891.665	64.51
891.836	-89.09
892.007	-13.31
892.178	19.46
892.349	21.5
892.52	-7.17
892.691	-33.79
892.862	17.41
893.032	-27.65
893.203	60.42
893.374	21.5
893.545	35.84
893.716	-27.65
893.887	-29.7
894.057	15.36
894.228	21.5
894.399	21.5
894.57	-19.46
894.74	17.41
894.911	50.18
895.082	-15.36
895.253	7.17
895.423	25.6
895.594	-48.13
895.764	-25.6
895.935	9.22
896.106	64.51
896.276	33.79
896.447	-37.89
896.617	11.26
896.788	29.7
896.958	-25.6
897.129	11.26
897.299	-44.03
897.47	72.7
897.64	-1.02
897.81	-72.7
897.981	25.6
898.151	-37.89
898.322	19.46
898.492	7.17
898.662	-7.17
898.832	-19.46
899.003	-52.22
899.173	-58.37
899.343	74.75
899.513	84.99
