Data from USB4F104151__0__13-51-55-928.txt Node

Date: Thu Mar 13 13:51:55 EDT 2025
User: louis
Spectrometer: USB4F10415
Trigger mode: 4
Integration Time (sec): 1.000000E-2
Scans to average: 1
Electric dark correction enabled: true
Nonlinearity correction enabled: false
Boxcar width: 0
XAxis mode: Wavelengths
Number of Pixels in Spectrum: 3648
>>>>>Begin Spectral Data<<<<<
178.204	-99.5
178.424	-99.5
178.644	-99.5
178.864	-117.93
179.084	-113.83
179.304	17.24
179.524	33.62
179.744	4.95
179.964	-31.91
180.184	-46.25
180.404	0.85
180.624	15.19
180.844	-1.19
181.064	-52.39
181.283	0.85
181.503	23.38
181.723	35.67
181.943	-29.87
182.163	80.72
182.383	29.52
182.602	21.33
182.822	33.62
183.042	-66.73
183.262	39.76
183.482	9.05
183.701	-1.19
183.921	-25.77
184.141	27.48
184.361	33.62
184.58	-21.67
184.8	-7.34
185.02	11.09
185.239	21.33
185.459	9.05
185.679	23.38
185.898	-1.19
186.118	-9.39
186.338	13.14
186.557	68.44
186.777	7
186.997	43.86
187.216	0.85
187.436	-7.34
187.655	41.81
187.875	-42.15
188.095	-9.39
188.314	29.52
188.534	31.57
188.753	-11.43
188.973	0.85
189.192	-5.29
189.412	-15.53
189.631	-1.19
189.851	-17.58
190.07	-23.72
190.29	-5.29
190.509	7
190.729	76.63
190.948	23.38
191.168	9.05
191.387	23.38
191.607	37.72
191.826	60.24
192.045	-46.25
192.265	70.48
192.484	52.05
192.704	-17.58
192.923	-9.39
193.142	19.29
193.362	58.2
193.581	-1.19
193.8	41.81
194.02	90.96
194.239	-19.63
194.458	-19.63
194.678	-21.67
194.897	29.52
195.116	-9.39
195.335	19.29
195.555	-25.77
195.774	27.48
195.993	60.24
196.212	-46.25
196.432	43.86
196.651	-38.06
196.87	17.24
197.089	4.95
197.308	-23.72
197.528	25.43
197.747	-40.11
197.966	9.05
198.185	35.67
198.404	56.15
198.623	-62.63
198.842	58.2
199.062	62.29
199.281	-19.63
199.5	-17.58
199.719	-7.34
199.938	-21.67
200.157	27.48
200.376	62.29
200.595	-23.72
200.814	-11.43
201.033	13.14
201.252	27.48
201.471	-31.91
201.69	27.48
201.909	19.29
202.128	27.48
202.347	19.29
202.566	19.29
202.785	-36.01
203.004	-9.39
203.223	31.57
203.442	-38.06
203.661	-46.25
203.879	-11.43
204.098	2.9
204.317	56.15
204.536	52.05
204.755	39.76
204.974	4.95
205.193	45.91
205.411	60.24
205.63	11.09
205.849	29.52
206.068	-5.29
206.287	11.09
206.505	19.29
206.724	-5.29
206.943	23.38
207.162	-15.53
207.381	31.57
207.599	-5.29
207.818	-48.3
208.037	62.29
208.255	-1.19
208.474	58.2
208.693	60.24
208.911	23.38
209.13	95.06
209.349	-25.77
209.567	-46.25
209.786	78.68
210.005	2.9
210.223	9.05
210.442	4.95
210.661	21.33
210.879	-50.35
211.098	-23.72
211.316	9.05
211.535	-56.49
211.753	0.85
211.972	41.81
212.191	13.14
212.409	35.67
212.628	-87.21
212.846	60.24
213.065	9.05
213.283	-33.96
213.502	-40.11
213.72	15.19
213.938	-9.39
214.157	11.09
214.375	47.96
214.594	21.33
214.812	19.29
215.031	-33.96
215.249	-50.35
215.467	29.52
215.686	-31.91
215.904	13.14
216.122	-33.96
216.341	47.96
216.559	39.76
216.778	47.96
216.996	25.43
217.214	-25.77
217.432	-48.3
217.651	66.39
217.869	31.57
218.087	-29.87
218.306	-50.35
218.524	60.24
218.742	-44.2
218.96	113.49
219.179	-46.25
219.397	39.76
219.615	13.14
219.833	-58.54
220.051	-68.78
220.27	95.06
220.488	29.52
220.706	4.95
220.924	9.05
221.142	2.9
221.36	35.67
221.578	66.39
221.796	-17.58
222.015	15.19
222.233	66.39
222.451	-23.72
222.669	-29.87
222.887	-3.24
223.105	-42.15
223.323	-46.25
223.541	-1.19
223.759	-29.87
223.977	68.44
224.195	56.15
224.413	23.38
224.631	-7.34
224.849	-3.24
225.067	33.62
225.285	68.44
225.503	29.52
225.721	0.85
225.939	37.72
226.157	39.76
226.375	4.95
226.592	-66.73
226.81	13.14
227.028	-13.48
227.246	52.05
227.464	68.44
227.682	-23.72
227.9	11.09
228.117	31.57
228.335	-11.43
228.553	-31.91
228.771	97.11
228.989	35.67
229.206	21.33
229.424	-11.43
229.642	-36.01
229.86	2.9
230.077	58.2
230.295	-15.53
230.513	-17.58
230.731	9.05
230.948	23.38
231.166	-19.63
231.384	11.09
231.601	72.53
231.819	-29.87
232.037	27.48
232.254	-36.01
232.472	-11.43
232.689	-38.06
232.907	50
233.125	74.58
233.342	-7.34
233.56	52.05
233.777	72.53
233.995	-15.53
234.213	58.2
234.43	-56.49
234.648	-5.29
234.865	11.09
235.083	25.43
235.3	29.52
235.518	-9.39
235.735	-150.7
235.953	17.24
236.17	11.09
236.388	54.1
236.605	-40.11
236.822	41.81
237.04	7
237.257	-9.39
237.475	47.96
237.692	-1.19
237.909	-15.53
238.127	47.96
238.344	21.33
238.562	50
238.779	52.05
238.996	41.81
239.214	7
239.431	-11.43
239.648	-5.29
239.865	-38.06
240.083	76.63
240.3	25.43
240.517	37.72
240.735	66.39
240.952	-50.35
241.169	-13.48
241.386	4.95
241.603	-11.43
241.821	13.14
242.038	15.19
242.255	31.57
242.472	-9.39
242.689	-9.39
242.907	88.92
243.124	-42.15
243.341	-42.15
243.558	-21.67
243.775	17.24
243.992	11.09
244.209	-60.59
244.426	-38.06
244.643	80.72
244.86	-33.96
245.078	29.52
245.295	41.81
245.512	99.16
245.729	2.9
245.946	35.67
246.163	-56.49
246.38	41.81
246.597	-29.87
246.814	33.62
247.031	-58.54
247.248	-54.44
247.464	56.15
247.681	21.33
247.898	58.2
248.115	-15.53
248.332	-23.72
248.549	-21.67
248.766	-27.82
248.983	39.76
249.2	-11.43
249.417	0.85
249.633	74.58
249.85	11.09
250.067	47.96
250.284	15.19
250.501	13.14
250.717	-3.24
250.934	21.33
251.151	9.05
251.368	27.48
251.585	21.33
251.801	43.86
252.018	29.52
252.235	-29.87
252.451	-62.63
252.668	-38.06
252.885	54.1
253.102	-29.87
253.318	9.05
253.535	-33.96
253.752	37.72
253.968	52.05
254.185	-68.78
254.401	43.86
254.618	64.34
254.835	-7.34
255.051	-3.24
255.268	-13.48
255.484	9.05
255.701	-36.01
255.917	43.86
256.134	-19.63
256.351	80.72
256.567	25.43
256.784	-66.73
257	-13.48
257.217	90.96
257.433	78.68
257.65	39.76
257.866	-1.19
258.082	-9.39
258.299	-13.48
258.515	-25.77
258.732	11.09
258.948	31.57
259.165	33.62
259.381	27.48
259.597	13.14
259.814	27.48
260.03	21.33
260.246	0.85
260.463	54.1
260.679	25.43
260.895	82.77
261.112	43.86
261.328	4.95
261.544	2.9
261.761	35.67
261.977	9.05
262.193	9.05
262.409	-9.39
262.626	43.86
262.842	15.19
263.058	2.9
263.274	0.85
263.49	-25.77
263.707	39.76
263.923	-11.43
264.139	-9.39
264.355	-48.3
264.571	50
264.787	31.57
265.004	7
265.22	54.1
265.436	-33.96
265.652	-17.58
265.868	27.48
266.084	-1.19
266.3	19.29
266.516	27.48
266.732	-40.11
266.948	2.9
267.164	101.2
267.38	21.33
267.596	39.76
267.812	25.43
268.028	23.38
268.244	45.91
268.46	66.39
268.676	9.05
268.892	4.95
269.108	-11.43
269.324	-19.63
269.54	-50.35
269.756	90.96
269.972	-1.19
270.188	13.14
270.403	-9.39
270.619	39.76
270.835	93.01
271.051	2.9
271.267	-91.31
271.483	17.24
271.698	2.9
271.914	37.72
272.13	29.52
272.346	-5.29
272.562	19.29
272.777	7
272.993	13.14
273.209	29.52
273.425	80.72
273.64	-40.11
273.856	70.48
274.072	4.95
274.287	-40.11
274.503	50
274.719	11.09
274.934	43.86
275.15	7
275.366	66.39
275.581	9.05
275.797	19.29
276.012	76.63
276.228	70.48
276.444	-50.35
276.659	-29.87
276.875	13.14
277.09	-9.39
277.306	9.05
277.521	-19.63
277.737	35.67
277.952	41.81
278.168	-21.67
278.383	-7.34
278.599	-5.29
278.814	9.05
279.03	-25.77
279.245	39.76
279.461	78.68
279.676	82.77
279.892	-15.53
280.107	-7.34
280.322	9.05
280.538	-25.77
280.753	19.29
280.969	-33.96
281.184	-9.39
281.399	23.38
281.615	-31.91
281.83	54.1
282.045	-7.34
282.26	93.01
282.476	-7.34
282.691	27.48
282.906	23.38
283.122	21.33
283.337	-48.3
283.552	74.58
283.767	60.24
283.983	-13.48
284.198	4.95
284.413	-23.72
284.628	33.62
284.843	27.48
285.058	35.67
285.274	25.43
285.489	-40.11
285.704	66.39
285.919	-1.19
286.134	41.81
286.349	37.72
286.564	-25.77
286.779	76.63
286.995	-9.39
287.21	-52.39
287.425	-5.29
287.64	-79.02
287.855	27.48
288.07	54.1
288.285	-17.58
288.5	68.44
288.715	27.48
288.93	74.58
289.145	11.09
289.36	-9.39
289.575	88.92
289.79	19.29
290.004	-3.24
290.219	21.33
290.434	39.76
290.649	-19.63
290.864	70.48
291.079	9.05
291.294	17.24
291.509	-33.96
291.724	109.4
291.938	-17.58
292.153	41.81
292.368	-33.96
292.583	43.86
292.798	52.05
293.012	58.2
293.227	43.86
293.442	27.48
293.657	33.62
293.871	-3.24
294.086	27.48
294.301	27.48
294.516	2.9
294.73	39.76
294.945	7
295.16	41.81
295.374	-5.29
295.589	-5.29
295.804	31.57
296.018	35.67
296.233	13.14
296.447	-19.63
296.662	0.85
296.877	-15.53
297.091	-21.67
297.306	60.24
297.52	7
297.735	84.82
297.949	-3.24
298.164	41.81
298.378	-36.01
298.593	31.57
298.807	52.05
299.022	52.05
299.236	29.52
299.451	52.05
299.665	35.67
299.88	37.72
300.094	33.62
300.309	19.29
300.523	-11.43
300.737	68.44
300.952	-7.34
301.166	58.2
301.381	47.96
301.595	-9.39
301.809	9.05
302.024	-38.06
302.238	-3.24
302.452	2.9
302.667	56.15
302.881	72.53
303.095	21.33
303.309	52.05
303.524	45.91
303.738	-1.19
303.952	-3.24
304.166	37.72
304.381	11.09
304.595	-27.82
304.809	58.2
305.023	25.43
305.237	9.05
305.452	-29.87
305.666	-60.59
305.88	68.44
306.094	27.48
306.308	35.67
306.522	35.67
306.736	88.92
306.95	-27.82
307.164	-33.96
307.379	-3.24
307.593	-21.67
307.807	35.67
308.021	-23.72
308.235	41.81
308.449	25.43
308.663	27.48
308.877	29.52
309.091	-5.29
309.305	39.76
309.519	-17.58
309.733	-17.58
309.947	-64.68
310.161	15.19
310.374	27.48
310.588	-42.15
310.802	2.9
311.016	103.25
311.23	21.33
311.444	54.1
311.658	-9.39
311.872	23.38
312.085	64.34
312.299	33.62
312.513	29.52
312.727	37.72
312.941	74.58
313.154	17.24
313.368	45.91
313.582	13.14
313.796	31.57
314.009	-52.39
314.223	62.29
314.437	19.29
314.651	33.62
314.864	7
315.078	2.9
315.292	23.38
315.505	-44.2
315.719	-48.3
315.933	29.52
316.146	-31.91
316.36	-1.19
316.573	68.44
316.787	4.95
317.001	-17.58
317.214	2.9
317.428	-5.29
317.641	-50.35
317.855	-27.82
318.068	-17.58
318.282	35.67
318.495	-23.72
318.709	41.81
318.922	43.86
319.136	29.52
319.349	76.63
319.563	23.38
319.776	23.38
319.99	37.72
320.203	109.4
320.417	-21.67
320.63	-27.82
320.843	43.86
321.057	4.95
321.27	37.72
321.483	-19.63
321.697	-31.91
321.91	-9.39
322.124	-17.58
322.337	13.14
322.55	17.24
322.763	54.1
322.977	62.29
323.19	-33.96
323.403	21.33
323.617	-46.25
323.83	60.24
324.043	95.06
324.256	80.72
324.469	39.76
324.683	52.05
324.896	9.05
325.109	7
325.322	-17.58
325.535	58.2
325.748	-1.19
325.962	45.91
326.175	33.62
326.388	0.85
326.601	58.2
326.814	-17.58
327.027	60.24
327.24	93.01
327.453	-58.54
327.666	99.16
327.879	47.96
328.092	64.34
328.305	17.24
328.518	52.05
328.731	76.63
328.944	9.05
329.157	19.29
329.37	-5.29
329.583	-52.39
329.796	52.05
330.009	-52.39
330.222	35.67
330.435	52.05
330.648	25.43
330.861	15.19
331.073	-23.72
331.286	35.67
331.499	-3.24
331.712	35.67
331.925	-27.82
332.138	-5.29
332.35	58.2
332.563	-13.48
332.776	33.62
332.989	-1.19
333.202	80.72
333.414	11.09
333.627	37.72
333.84	23.38
334.053	41.81
334.265	-74.92
334.478	7
334.691	-21.67
334.903	35.67
335.116	90.96
335.329	50
335.541	17.24
335.754	35.67
335.966	27.48
336.179	-21.67
336.392	62.29
336.604	31.57
336.817	-23.72
337.029	-5.29
337.242	37.72
337.454	35.67
337.667	4.95
337.88	-11.43
338.092	43.86
338.305	74.58
338.517	-27.82
338.729	35.67
338.942	15.19
339.154	23.38
339.367	9.05
339.579	-33.96
339.792	11.09
340.004	17.24
340.217	17.24
340.429	-29.87
340.641	-21.67
340.854	19.29
341.066	-58.54
341.278	-23.72
341.491	93.01
341.703	-21.67
341.915	9.05
342.128	88.92
342.34	-27.82
342.552	29.52
342.764	-27.82
342.977	56.15
343.189	25.43
343.401	47.96
343.613	62.29
343.826	7
344.038	-70.83
344.25	25.43
344.462	64.34
344.674	-23.72
344.886	-7.34
345.099	21.33
345.311	15.19
345.523	33.62
345.735	39.76
345.947	84.82
346.159	-48.3
346.371	52.05
346.583	45.91
346.795	50
347.007	37.72
347.219	99.16
347.431	-48.3
347.643	-17.58
347.855	13.14
348.067	-11.43
348.279	-17.58
348.491	-13.48
348.703	15.19
348.915	105.3
349.127	-52.39
349.339	99.16
349.551	23.38
349.763	4.95
349.975	15.19
350.187	50
350.399	-11.43
350.61	-29.87
350.822	21.33
351.034	60.24
351.246	9.05
351.458	23.38
351.669	50
351.881	21.33
352.093	29.52
352.305	56.15
352.517	19.29
352.728	19.29
352.94	82.77
353.152	37.72
353.363	2.9
353.575	56.15
353.787	41.81
353.999	84.82
354.21	-29.87
354.422	72.53
354.633	0.85
354.845	2.9
355.057	80.72
355.268	68.44
355.48	13.14
355.692	-13.48
355.903	31.57
356.115	31.57
356.326	9.05
356.538	37.72
356.749	4.95
356.961	13.14
357.172	45.91
357.384	99.16
357.595	-76.97
357.807	47.96
358.018	23.38
358.23	17.24
358.441	60.24
358.653	19.29
358.864	23.38
359.075	-33.96
359.287	84.82
359.498	31.57
359.709	23.38
359.921	31.57
360.132	-5.29
360.344	4.95
360.555	-13.48
360.766	52.05
360.977	23.38
361.189	35.67
361.4	-1.19
361.611	-23.72
361.823	50
362.034	2.9
362.245	31.57
362.456	39.76
362.667	-3.24
362.879	-56.49
363.09	-29.87
363.301	56.15
363.512	-38.06
363.723	15.19
363.935	-27.82
364.146	-21.67
364.357	74.58
364.568	27.48
364.779	-15.53
364.99	70.48
365.201	-29.87
365.412	39.76
365.623	7
365.834	33.62
366.045	70.48
366.256	62.29
366.467	68.44
366.678	95.06
366.889	9.05
367.1	50
367.311	13.14
367.522	33.62
367.733	45.91
367.944	62.29
368.155	21.33
368.366	39.76
368.577	37.72
368.788	47.96
368.999	86.87
369.209	27.48
369.42	80.72
369.631	29.52
369.842	103.25
370.053	60.24
370.264	-1.19
370.474	41.81
370.685	41.81
370.896	43.86
371.107	47.96
371.317	47.96
371.528	33.62
371.739	35.67
371.95	-54.44
372.16	72.53
372.371	97.11
372.582	52.05
372.792	33.62
373.003	27.48
373.214	31.57
373.424	4.95
373.635	54.1
373.846	17.24
374.056	-29.87
374.267	93.01
374.477	-38.06
374.688	29.52
374.898	-23.72
375.109	66.39
375.319	37.72
375.53	58.2
375.74	-29.87
375.951	82.77
376.161	109.4
376.372	74.58
376.582	72.53
376.793	-48.3
377.003	54.1
377.214	88.92
377.424	33.62
377.635	35.67
377.845	27.48
378.055	13.14
378.266	11.09
378.476	19.29
378.686	56.15
378.897	7
379.107	80.72
379.317	76.63
379.528	29.52
379.738	15.19
379.948	60.24
380.158	37.72
380.369	-38.06
380.579	56.15
380.789	58.2
380.999	113.49
381.21	76.63
381.42	78.68
381.63	33.62
381.84	50
382.05	39.76
382.261	50
382.471	62.29
382.681	68.44
382.891	29.52
383.101	9.05
383.311	-17.58
383.521	86.87
383.731	35.67
383.941	58.2
384.151	-21.67
384.361	78.68
384.571	-33.96
384.781	-19.63
384.991	121.68
385.201	76.63
385.411	58.2
385.621	119.64
385.831	64.34
386.041	54.1
386.251	45.91
386.461	80.72
386.671	82.77
386.881	-9.39
387.091	50
387.301	21.33
387.511	60.24
387.72	95.06
387.93	70.48
388.14	47.96
388.35	4.95
388.56	-23.72
388.769	39.76
388.979	43.86
389.189	84.82
389.399	-27.82
389.609	68.44
389.818	31.57
390.028	66.39
390.238	64.34
390.447	41.81
390.657	-27.82
390.867	4.95
391.076	-42.15
391.286	15.19
391.496	68.44
391.705	93.01
391.915	121.68
392.125	-1.19
392.334	101.2
392.544	64.34
392.753	78.68
392.963	84.82
393.172	47.96
393.382	41.81
393.591	60.24
393.801	50
394.01	52.05
394.22	119.64
394.429	62.29
394.639	95.06
394.848	72.53
395.058	72.53
395.267	72.53
395.477	13.14
395.686	64.34
395.895	-21.67
396.105	103.25
396.314	82.77
396.524	72.53
396.733	62.29
396.942	35.67
397.152	97.11
397.361	62.29
397.57	86.87
397.78	56.15
397.989	23.38
398.198	29.52
398.407	23.38
398.617	74.58
398.826	23.38
399.035	93.01
399.244	41.81
399.453	70.48
399.663	39.76
399.872	117.59
400.081	84.82
400.29	101.2
400.499	13.14
400.708	99.16
400.917	68.44
401.127	88.92
401.336	25.43
401.545	41.81
401.754	103.25
401.963	107.35
402.172	90.96
402.381	56.15
402.59	152.4
402.799	37.72
403.008	95.06
403.217	156.5
403.426	93.01
403.635	156.5
403.844	11.09
404.053	103.25
404.262	136.02
404.471	144.21
404.68	103.25
404.888	109.4
405.097	111.44
405.306	170.83
405.515	150.36
405.724	95.06
405.933	179.03
406.142	142.16
406.35	97.11
406.559	185.17
406.768	105.3
406.977	125.78
407.185	162.64
407.394	133.97
407.603	219.99
407.812	119.64
408.02	172.88
408.229	119.64
408.438	193.36
408.646	154.45
408.855	199.51
409.064	183.12
409.272	224.08
409.481	228.18
409.69	197.46
409.898	207.7
410.107	242.51
410.315	230.23
410.524	291.66
410.733	265.04
410.941	267.09
411.15	289.62
411.358	246.61
411.567	334.67
411.775	283.47
411.984	248.66
412.192	330.58
412.401	361.3
412.609	373.58
412.818	445.26
413.026	398.16
413.234	414.54
413.443	439.12
413.651	371.54
413.86	412.5
414.068	535.37
414.276	473.93
414.485	500.56
414.693	459.6
414.901	602.96
415.11	516.94
415.318	555.85
415.526	641.87
415.734	615.24
415.943	691.02
416.151	658.25
416.359	648.01
416.567	676.68
416.776	791.37
416.984	799.56
417.192	766.79
417.4	820.04
417.608	834.38
417.817	838.47
418.025	854.86
418.233	875.34
418.441	963.4
418.649	1049.41
418.857	1024.84
419.065	1145.67
419.273	1030.98
419.481	1123.14
419.689	1139.52
419.897	1248.07
420.105	1243.97
420.313	1250.11
420.521	1274.69
420.729	1372.99
420.937	1442.62
421.145	1379.14
421.353	1516.35
421.561	1542.97
421.769	1575.74
421.977	1624.89
422.185	1651.52
422.393	1659.71
422.601	1893.18
422.809	1966.9
423.017	1946.42
423.224	1993.53
423.432	2067.25
423.64	2165.56
423.848	2272.05
424.056	2183.99
424.263	2415.41
424.471	2409.26
424.679	2382.64
424.887	2468.66
425.094	2476.85
425.302	2532.14
425.51	2679.6
425.718	2669.36
425.925	2857.77
426.133	2861.87
426.341	3062.57
426.548	3126.05
426.756	3293.99
426.964	3283.75
427.171	3394.34
427.379	3486.5
427.586	3603.23
427.794	3816.22
428.001	3828.51
428.209	4070.17
428.417	3920.67
428.624	4240.15
428.832	4215.57
429.039	4170.52
429.247	4234
429.454	4707.09
429.662	4907.79
429.869	4610.83
430.076	5032.71
430.284	4864.78
430.491	5004.04
430.699	5354.24
430.906	5362.44
431.114	5464.83
431.321	5638.91
431.528	5722.88
431.736	6077.18
431.943	6376.18
432.15	6322.93
432.358	6247.16
432.565	6468.34
432.772	6568.69
432.979	6943.47
433.187	7076.59
433.394	7019.24
433.601	7445.22
433.808	7363.3
434.016	7539.43
434.223	7815.9
434.43	8372.95
434.637	8278.74
434.844	8458.96
435.052	8850.13
435.259	8846.03
435.466	8870.61
435.673	8819.41
435.88	9454.28
436.087	9755.33
436.294	9796.29
436.501	9521.86
436.708	9820.86
436.915	10111.68
437.122	10730.16
437.329	10541.75
437.537	10967.73
437.743	10957.49
437.95	11088.56
438.157	11760.29
438.364	11895.46
438.571	11899.55
438.778	11858.59
438.985	13124.24
439.192	12757.65
439.399	12872.34
439.606	12677.78
439.813	13462.15
440.02	14256.76
440.227	14103.17
440.433	13773.44
440.64	14551.67
440.847	14353.02
441.054	14873.2
441.261	15524.46
441.467	15178.35
441.674	15655.53
441.881	16284.25
442.088	16042.59
442.294	16249.44
442.501	16210.53
442.708	17181.26
442.914	17424.97
443.121	18127.42
443.328	17719.88
443.534	18704.95
443.741	18725.43
443.948	18188.86
444.154	19452.46
444.361	19546.67
444.568	19440.17
444.774	19630.63
444.981	19556.91
445.187	20312.61
445.394	21406.22
445.6	20986.39
445.807	23024.12
446.013	22157.83
446.22	22766.07
446.426	23456.24
446.633	23472.62
446.839	24236.52
447.046	23407.09
447.252	24621.53
447.459	24715.74
447.665	24377.83
447.871	25305.56
448.078	26814.91
448.284	25360.85
448.491	26341.83
448.697	27036.09
448.903	27357.62
449.11	27505.07
449.316	26915.26
449.522	27857.32
449.728	28154.28
449.935	28719.52
450.141	28488.1
450.347	29059.48
450.553	28264.87
450.76	28383.65
450.966	29426.07
451.172	29196.7
451.378	29886.86
451.584	29342.1
451.791	30075.27
451.997	29987.21
452.203	30343.56
452.409	30364.04
452.615	30331.27
452.821	28987.8
453.027	28916.12
453.233	30605.7
453.44	29004.19
453.646	29419.92
453.852	29344.15
454.058	29897.1
454.264	29151.64
454.47	29704.59
454.676	28942.75
454.882	29741.46
455.088	27312.56
455.294	27822.51
455.5	28041.64
455.705	28332.45
455.911	27204.02
456.117	26485.19
456.323	26243.52
456.529	24797.66
456.735	25823.69
456.941	25221.59
457.147	24904.15
457.352	24142.31
457.558	23650.8
457.764	23771.63
457.97	23177.72
458.176	22622.72
458.381	22768.12
458.587	21750.28
458.793	21740.04
458.999	20558.36
459.204	21760.52
459.41	21336.59
459.616	20023.84
459.821	19878.44
460.027	19690.02
460.233	19411.5
460.438	18235.97
460.644	18799.16
460.85	17861.19
461.055	17668.68
461.261	17465.93
461.466	16116.32
461.672	15700.58
461.878	17019.47
462.083	16089.7
462.289	15491.69
462.494	15327.85
462.7	14654.07
462.905	14224
463.111	14838.39
463.316	14678.65
463.522	14533.24
463.727	14228.09
463.932	14393.98
464.138	14490.23
464.343	14434.94
464.549	14004.86
464.754	14434.94
464.959	14228.09
465.165	14348.92
465.37	13652.61
465.575	13359.75
465.781	13712
465.986	13953.66
466.191	13456.01
466.397	13111.95
466.602	12720.79
466.807	12894.86
467.012	12874.38
467.218	12892.82
467.423	12671.64
467.628	12753.55
467.833	13527.69
468.038	12921.49
468.244	12552.85
468.449	13097.61
468.654	12507.8
468.859	12370.58
469.064	12249.75
469.269	11938.46
469.474	11913.89
469.679	12337.82
469.885	11858.59
470.09	12216.99
470.295	12004
470.5	11831.97
470.705	11600.55
470.91	11221.67
471.115	11141.8
471.32	11512.49
471.525	11481.77
471.73	11231.91
471.935	11168.43
472.139	10703.54
472.344	10826.42
472.549	10750.64
472.754	10662.58
472.959	10515.12
473.164	10273.46
473.369	10330.81
473.574	10425.01
473.778	10209.98
473.983	10216.12
474.188	10169.02
474.393	9622.21
474.598	9853.63
474.802	9818.82
475.007	9771.71
475.212	9589.44
475.417	9265.86
475.621	9204.42
475.826	9347.78
476.031	9245.38
476.235	9044.68
476.44	9288.39
476.645	8782.54
476.849	9026.25
477.054	8796.88
477.259	8723.15
477.463	8786.64
477.668	8448.72
477.872	8596.18
478.077	8448.72
478.282	8151.77
478.486	8028.89
478.691	8262.36
478.895	8178.39
479.1	7994.08
479.304	8012.51
479.509	8018.65
479.713	8139.48
479.918	8096.47
480.122	7668.45
480.326	7693.02
480.531	7836.38
480.735	7748.32
480.94	7701.22
481.144	7844.57
481.348	7660.26
481.553	7596.77
481.757	7404.26
481.961	7494.37
482.166	7750.37
482.37	7674.59
482.574	7322.34
482.778	7430.88
482.983	7760.61
483.187	7437.03
483.391	7594.72
483.595	7508.71
483.8	7373.54
484.004	7475.94
484.208	7572.19
484.412	7525.09
484.616	7385.83
484.821	7520.99
485.025	7305.96
485.229	7508.71
485.433	7459.56
485.637	7355.11
485.841	7363.3
486.045	7510.75
486.249	7664.35
486.453	7676.64
486.657	7475.94
486.861	7578.34
487.065	7285.48
487.269	7703.26
487.473	7422.69
487.677	7404.26
487.881	7416.55
488.085	7518.95
488.289	7379.68
488.493	7371.49
488.697	7576.29
488.901	7576.29
489.105	7512.8
489.309	7537.38
489.512	7471.84
489.716	7617.25
489.92	7633.63
490.124	7633.63
490.328	7733.98
490.531	7570.15
490.735	7723.74
490.939	7744.22
491.143	7641.82
491.346	7650.02
491.55	7779.04
491.754	7764.7
491.958	7946.97
492.161	7957.21
492.365	7828.19
492.569	7783.13
492.772	7758.56
492.976	7903.96
493.18	8086.23
493.383	8252.12
493.587	8194.78
493.79	8125.15
493.994	8295.13
494.197	8334.04
494.401	8381.14
494.605	8534.74
494.808	8454.87
495.012	8360.66
495.215	8452.82
495.419	8674
495.622	8782.54
495.825	8764.11
496.029	8829.65
496.232	9099.98
496.436	8927.95
496.639	9173.71
496.843	9188.04
497.046	9169.61
497.249	9229
497.453	9503.43
497.656	9671.36
497.859	9546.44
498.063	9568.96
498.266	9745.09
498.469	9853.63
498.673	9786.05
498.876	9949.89
499.079	10347.19
499.282	10126.01
499.485	10517.17
499.689	10574.52
499.892	10656.43
500.095	10703.54
500.298	10865.33
500.501	10883.76
500.705	11207.34
500.908	11446.95
501.111	11207.34
501.314	11551.4
501.517	11623.08
501.72	11862.69
501.923	11709.09
502.126	11995.81
502.329	12198.56
502.532	12333.72
502.735	12477.08
502.938	12733.08
503.141	12497.56
503.344	12692.12
503.547	12970.64
503.75	13324.94
503.953	13552.26
504.156	13638.28
504.359	13634.18
504.562	13558.41
504.765	14008.96
504.968	14105.21
505.17	14357.11
505.373	14297.72
505.576	14645.88
505.779	14946.93
505.982	15094.38
506.185	15372.91
506.387	15303.28
506.59	15352.43
506.793	15807.08
506.996	15598.18
507.198	16206.43
507.401	16054.88
507.604	16407.13
507.807	16734.81
508.009	16665.18
508.212	16781.91
508.415	16980.56
508.617	17566.28
508.82	17705.54
509.022	17394.25
509.225	17951.3
509.428	17867.33
509.63	18289.21
509.833	18319.93
510.035	18819.64
510.238	18504.25
510.44	18977.33
510.643	19198.51
510.845	19427.88
511.048	19554.86
511.25	20019.75
511.453	20189.73
511.655	20736.54
511.858	20429.34
512.06	20714.01
512.262	21111.32
512.465	21060.12
512.667	21420.56
512.87	21809.67
513.072	21572.11
513.274	22000.13
513.477	22315.52
513.679	22847.99
513.881	22854.14
514.084	23284.21
514.286	23335.41
514.488	23351.79
514.69	24349.15
514.893	24107.49
515.095	24377.83
515.297	24652.25
515.499	24820.19
515.701	25260.5
515.904	25528.78
516.106	25672.14
516.308	25811.4
516.51	26190.28
516.712	26065.35
516.914	26567.1
517.116	27265.46
517.318	27029.94
517.52	27331
517.722	27658.67
517.925	28266.92
518.127	28309.93
518.329	28467.62
518.531	28197.29
518.733	29036.95
518.935	29292.95
519.136	29370.77
519.338	29858.19
519.54	30003.6
519.742	30704
519.944	30318.98
520.146	31129.98
520.348	31191.42
520.55	31756.66
520.752	31795.57
520.954	32233.83
521.155	31979.89
521.357	32350.57
521.559	32831.84
521.761	33251.67
521.963	33261.91
522.164	33272.15
522.366	33661.27
522.568	33829.2
522.77	33878.35
522.971	34685.25
523.173	34771.27
523.375	34957.63
523.576	35311.93
523.778	34953.54
523.98	35983.66
524.181	35963.18
524.383	35905.84
524.584	36360.49
524.786	36272.43
524.988	36288.81
525.189	36931.87
525.391	36796.71
525.592	37234.97
525.794	37501.21
525.995	37626.14
526.197	37665.05
526.398	37576.98
526.6	37955.86
526.801	38154.51
527.003	38367.5
527.204	38299.92
527.406	38625.54
527.607	38988.03
527.808	39065.86
528.01	38758.66
528.211	38676.74
528.412	39858.42
528.614	39528.7
528.815	39540.99
529.016	39667.96
529.218	39518.46
529.419	39557.37
529.62	40194.29
529.822	39848.18
530.023	40128.75
530.224	40231.15
530.425	39993.59
530.626	39758.07
530.828	40005.87
531.029	40949.99
531.23	39991.54
531.431	40444.14
531.632	40655.08
531.833	40876.26
532.035	40775.91
532.236	40571.11
532.437	41375.97
532.638	40534.25
532.839	40771.82
533.04	41103.59
533.241	40843.49
533.442	41558.24
533.643	41199.84
533.844	41044.2
534.045	41083.11
534.246	40904.93
534.447	41359.58
534.648	41359.58
534.849	41044.2
535.05	41205.98
535.251	41357.53
535.451	41488.6
535.652	41472.22
535.853	41130.21
536.054	41062.63
536.255	41740.5
536.456	41136.35
536.657	42027.22
536.857	41472.22
537.058	41343.2
537.259	41793.75
537.46	41584.86
537.66	41404.64
537.861	41474.27
538.062	41414.88
538.263	41281.76
538.463	41414.88
538.664	41691.35
538.865	41240.8
539.065	41531.61
539.266	41038.05
539.466	42078.42
539.667	41103.59
539.868	41689.31
540.068	41617.63
540.269	41644.25
540.469	41763.03
540.67	41167.07
540.87	41734.36
541.071	41312.48
541.271	41969.88
541.472	41298.14
541.672	41341.15
541.873	41099.49
542.073	40958.18
542.274	41652.44
542.474	41316.57
542.675	40935.65
542.875	41390.3
543.075	41500.89
543.276	40988.9
543.476	41507.04
543.676	41181.41
543.877	41588.95
544.077	41152.74
544.277	41193.7
544.478	41083.11
544.678	41619.67
544.878	41173.22
545.078	41496.8
545.279	40792.29
545.479	41527.52
545.679	41472.22
545.879	41484.51
546.079	41373.92
546.28	41402.59
546.48	40780.01
546.68	41138.4
546.88	41513.18
547.08	41328.86
547.28	41480.41
547.48	40878.31
547.68	41400.54
547.88	40782.06
548.081	41122.02
548.281	41253.09
548.481	41083.11
548.681	41478.36
548.881	41103.59
549.081	41122.02
549.28	40990.95
549.48	41128.16
549.68	41296.1
549.88	41537.76
550.08	40796.39
550.28	41011.43
550.48	41036
550.68	41787.61
550.88	40988.9
551.08	41316.57
551.279	41298.14
551.479	41400.54
551.679	41345.25
551.879	41187.55
552.079	41269.47
552.278	40698.09
552.478	41113.83
552.678	41185.5
552.878	41251.04
553.077	41089.25
553.277	40567.02
553.477	41685.21
553.676	40710.38
553.876	40650.99
554.076	40911.08
554.275	40671.46
554.475	40405.23
554.674	40579.31
554.874	40933.6
555.074	40138.99
555.273	40876.26
555.473	40841.45
555.672	40593.64
555.872	40732.9
556.071	40507.63
556.271	40820.97
556.47	40800.49
556.67	40280.3
556.869	40286.45
557.068	40098.03
557.268	39819.51
557.467	40122.61
557.667	40251.63
557.866	40456.43
558.065	40327.41
558.265	40239.34
558.464	39821.56
558.663	40456.43
558.863	39645.43
559.062	40046.83
559.261	39502.07
559.461	39915.76
559.66	39373.05
559.859	39475.45
560.058	39336.19
560.258	39700.73
560.457	39387.39
560.656	39401.72
560.855	39622.9
561.054	39571.71
561.253	38846.72
561.453	39110.91
561.652	39217.41
561.851	39543.03
562.05	38875.4
562.249	38846.72
562.448	39616.76
562.647	39051.52
562.846	39133.44
563.045	38926.6
563.244	38428.94
563.443	38822.15
563.642	38416.65
563.841	38699.27
564.04	38437.13
564.239	38799.62
564.438	38402.32
564.637	38725.89
564.836	38654.22
565.035	38252.81
565.234	38326.54
565.432	37783.83
565.631	37955.86
565.83	38164.75
566.029	37843.22
566.228	37589.27
566.427	37726.49
566.625	37962
566.824	37136.67
567.023	37687.57
567.222	37015.84
567.42	37583.13
567.619	37245.21
567.818	37372.19
568.016	37204.25
568.215	37536.02
568.414	37212.45
568.612	37085.47
568.811	37384.47
569.01	36888.87
569.208	36481.32
569.407	37206.3
569.605	36155.69
569.804	36765.99
570.002	36247.85
570.201	36307.24
570.4	36546.86
570.598	35930.42
570.797	35985.71
570.995	36053.3
571.193	35369.27
571.392	36225.32
571.59	35682.61
571.789	35539.26
571.987	35359.03
572.186	35289.4
572.384	35330.36
572.582	35275.07
572.781	35459.38
572.979	34986.3
573.177	34662.72
573.376	35010.88
573.574	34947.39
573.772	35131.71
573.971	34785.6
574.169	34484.55
574.367	34466.12
574.565	34945.34
574.763	34591.05
574.962	33833.3
575.16	34042.19
575.358	34330.95
575.556	33497.43
575.754	34439.5
575.952	33511.77
576.151	33726.8
576.349	33405.27
576.547	33319.26
576.745	33608.02
576.943	33223
577.141	33083.74
577.339	33405.27
577.537	32919.9
577.735	33294.68
577.933	32717.15
578.131	33005.92
578.329	32510.31
578.527	32358.76
578.725	32807.26
578.923	32483.69
579.121	32350.57
579.319	32383.34
579.516	32117.1
579.714	32256.36
579.912	31756.66
580.11	31961.45
580.308	31961.45
580.506	32266.6
580.704	31351.16
580.901	31867.25
581.099	31281.53
581.297	31132.03
581.495	31220.09
581.692	31121.79
581.89	30691.71
582.088	31340.92
582.285	31043.96
582.483	31113.59
582.681	30812.54
582.878	30763.39
583.076	30632.32
583.274	30835.07
583.471	30525.83
583.669	30298.5
583.866	30169.48
584.064	30398.85
584.262	29958.54
584.459	30224.78
584.657	30042.51
584.854	30108.04
585.052	29624.72
585.249	29952.4
585.447	29569.43
585.644	29776.27
585.841	29538.71
586.039	29688.21
586.236	29086.11
586.434	29727.12
586.631	28778.91
586.828	29172.12
587.026	29217.18
587.223	29057.43
587.42	28520.87
587.618	28617.12
587.815	28488.1
588.012	28420.52
588.21	28262.82
588.407	28473.76
588.604	28277.16
588.801	28055.98
588.999	28195.24
589.196	28133.8
589.393	28101.03
589.59	27922.86
589.787	27644.34
589.984	27331
590.182	27290.04
590.379	27488.69
590.576	27449.78
590.773	27527.6
590.97	27365.81
591.167	27580.85
591.364	27101.62
591.561	27384.24
591.758	27177.4
591.955	27163.06
592.152	26810.81
592.349	26843.58
592.546	26540.48
592.743	26536.38
592.94	26345.92
593.137	26446.27
593.334	26802.62
593.531	25967.05
593.727	26513.86
593.924	26110.41
594.121	26296.77
594.318	26380.74
594.515	25905.61
594.712	26067.4
594.908	25659.85
595.105	25878.99
595.302	25453.01
595.499	25719.24
595.696	25700.81
595.892	25651.66
596.089	25532.88
596.286	25598.41
596.482	25207.25
596.679	25283.03
596.876	25334.23
597.072	25061.85
597.269	25201.11
597.466	24613.34
597.662	24633.82
597.859	24855
598.055	24787.42
598.252	24652.25
598.448	24498.66
598.645	24510.94
598.841	24183.27
599.038	24279.52
599.234	24334.82
599.431	24048.1
599.627	24117.73
599.824	24252.9
600.02	23769.58
600.217	23783.91
600.413	23562.73
600.609	23658.99
600.806	23826.92
601.002	23577.07
601.198	23448.05
601.395	23724.52
601.591	23552.49
601.787	23118.32
601.984	23278.07
602.18	23374.32
602.376	23169.52
602.572	23083.51
602.769	23087.61
602.965	22616.57
603.161	23071.22
603.357	22788.6
603.553	22823.42
603.75	22540.8
603.946	22462.97
604.142	22858.23
604.338	22272.51
604.534	22680.06
604.73	22186.5
604.926	21950.98
605.122	21996.04
605.318	21918.21
605.514	22116.87
605.71	21799.43
605.906	21539.34
606.102	21707.27
606.298	22043.14
606.494	21516.81
606.69	21639.69
606.886	21451.28
607.082	21158.42
607.278	21393.93
607.474	21144.08
607.67	21111.32
607.866	21017.11
608.062	21312.02
608.257	20996.63
608.453	21139.99
608.649	20961.81
608.845	20627.99
609.041	20886.04
609.236	20941.33
609.432	20716.06
609.628	20716.06
609.824	20521.5
610.019	20505.12
610.215	20363.81
610.411	20644.38
610.606	20138.53
610.802	20523.55
610.998	20281.89
611.193	20288.03
611.389	20005.41
611.584	19800.62
611.78	19812.9
611.976	20204.07
612.171	20195.87
612.367	19939.88
612.562	19862.05
612.758	19358.25
612.953	19659.31
613.149	19925.54
613.344	19687.98
613.539	19511.85
613.735	19520.04
613.93	19520.04
614.126	19249.71
614.321	19593.77
614.517	19581.48
614.712	19407.41
614.907	19264.05
615.103	19305.01
615.298	18977.33
615.493	19266.1
615.688	18864.69
615.884	19364.4
616.079	18838.07
616.274	19141.17
616.47	19051.06
616.665	18999.86
616.86	18502.2
617.055	18670.14
617.25	18799.16
617.445	18860.6
617.641	18311.74
617.836	18870.84
618.031	18199.1
618.226	18489.92
618.421	18307.65
618.616	18760.25
618.811	18248.25
619.006	18502.2
619.201	17945.16
619.396	18076.23
619.591	17615.43
619.786	17961.54
619.981	17625.67
620.176	18010.69
620.371	17723.97
620.566	17695.3
620.761	17525.32
620.956	17564.23
621.151	17474.12
621.346	17295.95
621.541	17218.13
621.735	17080.91
621.93	16769.62
622.125	16947.79
622.32	16810.58
622.515	16935.51
622.709	16724.57
622.904	16816.72
623.099	16325.21
623.294	16378.46
623.488	16124.51
623.683	16495.19
623.878	16263.77
624.072	16288.35
624.267	16378.46
624.462	15848.04
624.656	15614.57
624.851	15805.03
625.046	15536.74
625.24	15708.77
625.435	15669.86
625.629	15589.99
625.824	15153.77
626.018	15143.53
626.213	14957.17
626.407	15102.57
626.602	14844.53
626.796	14989.94
626.991	14674.55
627.185	14639.73
627.38	14910.07
627.574	14676.6
627.768	14297.72
627.963	14432.89
628.157	14328.44
628.352	14355.07
628.546	14189.18
628.74	14267
628.935	13939.33
629.129	13746.82
629.323	13693.57
629.517	13884.03
629.712	13806.21
629.906	13619.85
630.1	13619.85
630.294	13773.44
630.489	13464.2
630.683	13458.06
630.877	13406.86
631.071	13030.03
631.265	13259.4
631.459	13183.63
631.653	12946.06
631.848	12771.99
632.042	12907.15
632.236	12937.87
632.43	12845.71
632.624	12911.25
632.818	12651.16
633.012	12444.31
633.206	12313.24
633.4	12585.62
633.594	12526.23
633.788	12429.98
633.982	12253.85
634.176	12231.32
634.369	12077.73
634.563	12157.6
634.757	12264.09
634.951	12180.12
635.145	11868.83
635.339	11877.02
635.533	11700.9
635.726	11512.49
635.92	11586.21
636.114	11672.23
636.308	11414.18
636.501	11616.93
636.695	11387.56
636.889	11281.07
637.083	11180.71
637.276	11215.53
637.47	11274.92
637.664	11188.91
637.857	11129.52
638.051	11096.75
638.244	10807.98
638.438	10848.94
638.632	10816.18
638.825	10601.14
639.019	10732.21
639.212	10623.67
639.406	10715.83
639.599	10427.06
639.793	10511.03
639.986	10357.43
640.18	10171.07
640.373	10277.56
640.567	10181.31
640.76	10201.79
640.954	10085.05
641.147	10046.14
641.34	9935.55
641.534	9976.51
641.727	10011.32
641.92	9720.51
642.114	9759.42
642.307	9738.94
642.5	9880.25
642.694	9820.86
642.887	9480.9
643.08	9585.35
643.273	9482.95
643.467	9497.28
643.66	9362.12
643.853	9327.3
644.046	9110.22
644.239	9159.37
644.432	9106.12
644.626	8977.1
644.819	9104.07
645.012	9087.69
645.205	9073.35
645.398	8741.58
645.591	8827.6
645.784	8911.57
645.977	8770.26
646.17	8747.73
646.363	8762.06
646.556	8331.99
646.749	8530.64
646.942	8585.94
647.135	8315.61
647.328	8372.95
647.521	8205.02
647.714	8184.54
647.907	8233.69
648.099	8125.15
648.292	8063.71
648.485	8041.18
648.678	8065.75
648.871	8071.9
649.064	7981.79
649.256	7891.68
649.449	7656.16
649.642	7809.76
649.835	7715.55
650.027	7838.43
650.22	7473.89
650.413	7721.7
650.605	7676.64
650.798	7633.63
650.991	7504.61
651.183	7447.27
651.376	7322.34
651.568	7340.77
651.761	7215.85
651.954	7344.87
652.146	7314.15
652.339	7125.74
652.531	7023.34
652.724	7072.49
652.916	7088.87
653.109	6978.28
653.301	7080.68
653.494	7004.91
653.686	6855.4
653.879	6810.35
654.071	6779.63
654.263	6742.77
654.456	6742.77
654.648	6691.57
654.84	6535.92
655.033	6499.06
655.225	6548.21
655.417	6494.96
655.61	6497.01
655.802	6503.15
655.994	6294.26
656.186	6494.96
656.379	6310.65
656.571	6408.95
656.763	6228.73
656.955	6245.11
657.148	6304.5
657.34	6142.71
657.532	6202.1
657.724	6173.43
657.916	6073.08
658.108	6058.74
658.3	5917.44
658.492	5937.91
658.684	5862.14
658.876	5788.41
659.068	5769.98
659.26	5894.91
659.452	5790.46
659.644	5567.23
659.836	5550.85
660.028	5694.21
660.22	5333.76
660.412	5649.15
660.604	5577.47
660.796	5483.27
660.988	5423.87
661.18	5423.87
661.372	5257.99
661.563	5331.72
661.755	5327.62
661.947	5278.47
662.139	5296.9
662.331	5116.68
662.522	5176.07
662.714	5116.68
662.906	5159.69
663.097	5178.12
663.289	5067.53
663.481	5008.14
663.673	4950.79
663.864	5008.14
664.056	4893.45
664.247	4924.17
664.439	4844.3
664.631	4938.51
664.822	4844.3
665.014	4776.72
665.205	4662.03
665.397	4756.24
665.588	4602.64
665.78	4750.09
665.971	4696.85
666.163	4633.36
666.354	4647.69
666.546	4565.78
666.737	4549.39
666.929	4573.97
667.12	4430.61
667.311	4332.31
667.503	4358.93
667.694	4385.55
667.885	4297.49
668.077	4342.55
668.268	4260.63
668.459	4334.36
668.651	4160.28
668.842	4252.44
669.033	4238.1
669.224	4172.57
669.416	4217.62
669.607	4111.13
669.798	4182.81
669.989	4193.05
670.18	3945.24
670.371	4029.21
670.563	4068.12
670.754	4160.28
670.945	3865.37
671.136	3957.53
671.327	3816.22
671.518	3891.99
671.709	4109.08
671.9	4072.22
672.091	4006.68
672.282	3881.75
672.473	3842.84
672.664	3765.02
672.855	3832.6
673.046	3863.32
673.237	3879.71
673.428	3818.27
673.619	3732.25
673.809	3730.2
674	3695.39
674.191	3789.6
674.382	3631.9
674.573	3621.66
674.764	3656.48
674.954	3717.92
675.145	3648.29
675.336	3549.98
675.527	3574.56
675.717	3648.29
675.908	3564.32
676.099	3480.35
676.289	3580.7
676.48	3410.72
676.671	3642.14
676.861	3463.97
677.052	3554.08
677.243	3449.63
677.433	3455.78
677.624	3496.74
677.814	3404.58
678.005	3455.78
678.195	3377.95
678.386	3345.19
678.576	3269.41
678.767	3207.97
678.957	3244.84
679.148	3250.98
679.338	3142.44
679.529	3285.8
679.719	3169.06
679.909	3261.22
680.1	3259.17
680.29	3271.46
680.481	3326.75
680.671	3240.74
680.861	3046.18
681.052	3177.25
681.242	3160.87
681.432	3130.15
681.622	3109.67
681.813	3074.85
682.003	3062.57
682.193	3072.81
682.383	2997.03
682.573	3119.91
682.764	3081
682.954	3138.34
683.144	3013.42
683.334	3033.9
683.524	3040.04
683.714	2978.6
683.904	2972.46
684.094	3037.99
684.284	3066.66
684.474	3033.9
684.664	3070.76
684.854	3011.37
685.044	2994.98
685.234	2974.5
685.424	2876.2
685.614	2931.5
685.804	2900.78
685.994	2919.21
686.184	2984.74
686.374	2843.43
686.564	2970.41
686.753	2943.78
686.943	2757.42
687.133	2820.91
687.323	2900.78
687.513	2792.23
687.702	2829.1
687.892	2851.63
688.082	2816.81
688.272	2775.85
688.461	2943.78
688.651	2884.39
688.841	2833.19
689.03	2779.95
689.22	2857.77
689.41	2734.89
689.599	2622.25
689.789	2845.48
689.979	2861.87
690.168	2747.18
690.358	2849.58
690.547	2769.71
690.737	2757.42
690.926	2767.66
691.116	2761.52
691.305	2747.18
691.495	2706.22
691.684	2601.77
691.874	2652.97
692.063	2720.56
692.252	2747.18
692.442	2818.86
692.631	2726.7
692.82	2671.4
693.01	2753.32
693.199	2751.28
693.388	2704.17
693.578	2657.07
693.767	2775.85
693.956	2661.16
694.146	2747.18
694.335	2638.64
694.524	2642.73
694.713	2706.22
694.902	2755.37
695.092	2781.99
695.281	2599.73
695.47	2679.6
695.659	2669.36
695.848	2609.97
696.037	2620.21
696.226	2714.41
696.415	2738.99
696.604	2685.74
696.793	2603.82
696.982	2693.93
697.171	2648.88
697.36	2698.03
697.549	2708.27
697.738	2603.82
697.927	2665.26
698.116	2632.49
698.305	2583.34
698.494	2659.12
698.683	2704.17
698.872	2603.82
699.061	2683.69
699.25	2669.36
699.438	2644.78
699.627	2683.69
699.816	2712.36
700.005	2491.18
700.193	2687.79
700.382	2560.81
700.571	2595.63
700.76	2659.12
700.948	2544.43
701.137	2552.62
701.326	2599.73
701.514	2409.26
701.703	2515.76
701.892	2634.54
702.08	2569.01
702.269	2548.53
702.457	2532.14
702.646	2564.91
702.834	2523.95
703.023	2474.8
703.212	2616.11
703.4	2476.85
703.589	2480.94
703.777	2444.08
703.965	2452.27
704.154	2583.34
704.342	2437.94
704.531	2507.57
704.719	2517.81
704.907	2495.28
705.096	2319.15
705.284	2454.32
705.472	2482.99
705.661	2364.21
705.849	2353.97
706.037	2456.37
706.226	2431.79
706.414	2450.22
706.602	2456.37
706.79	2325.3
706.979	2360.11
707.167	2394.93
707.355	2343.73
707.543	2335.54
707.731	2386.74
707.919	2403.12
708.107	2315.06
708.296	2249.52
708.484	2403.12
708.672	2251.57
708.86	2310.96
709.048	2290.48
709.236	2278.19
709.424	2302.77
709.612	2298.67
709.8	2353.97
709.988	2177.84
710.176	2333.49
710.364	2272.05
710.551	2243.38
710.739	2294.58
710.927	2157.36
711.115	2222.9
711.303	2183.99
711.491	2118.45
711.679	2282.29
711.866	2222.9
712.054	2136.88
712.242	2140.98
712.43	2241.33
712.617	2057.01
712.805	2186.04
712.993	2114.36
713.181	2067.25
713.368	2124.6
713.556	2116.41
713.744	2057.01
713.931	2161.46
714.119	2036.53
714.306	2118.45
714.494	2081.59
714.682	2079.54
714.869	2054.97
715.057	1971
715.244	1981.24
715.432	1968.95
715.619	1850.17
715.807	2057.01
715.994	1897.27
716.182	1956.66
716.369	2081.59
716.556	1962.81
716.744	1999.67
716.931	1934.14
717.119	1782.59
717.306	1966.9
717.493	1874.74
717.681	2028.34
717.868	1829.69
718.055	1944.38
718.242	1927.99
718.43	1831.74
718.617	1938.23
718.804	1819.45
718.991	1932.09
719.179	1895.22
719.366	1917.75
719.553	1780.54
719.74	1786.68
719.927	1811.26
720.114	1829.69
720.301	1809.21
720.488	1735.48
720.676	1792.83
720.863	1819.45
721.05	1780.54
721.237	1692.48
721.424	1833.79
721.611	1708.86
721.798	1710.91
721.985	1747.77
722.172	1694.52
722.358	1645.37
722.545	1661.76
722.732	1743.67
722.919	1690.43
723.106	1665.85
723.293	1678.14
723.48	1616.7
723.667	1596.22
723.853	1721.15
724.04	1588.03
724.227	1710.91
724.414	1616.7
724.6	1633.08
724.787	1706.81
724.974	1553.21
725.161	1596.22
725.347	1567.55
725.534	1542.97
725.72	1614.65
725.907	1626.94
726.094	1663.8
726.28	1497.92
726.467	1493.82
726.653	1590.08
726.84	1577.79
727.027	1551.17
727.213	1444.67
727.4	1401.66
727.586	1467.2
727.773	1522.49
727.959	1481.53
728.145	1532.73
728.332	1532.73
728.518	1440.58
728.705	1532.73
728.891	1459.01
729.077	1465.15
729.264	1465.15
729.45	1375.04
729.636	1405.76
729.823	1420.1
730.009	1444.67
730.195	1397.57
730.382	1450.82
730.568	1420.1
730.754	1381.18
730.94	1344.32
731.126	1370.94
731.313	1481.53
731.499	1323.84
731.685	1377.09
731.871	1508.16
732.057	1432.38
732.243	1284.93
732.429	1336.13
732.615	1305.41
732.801	1323.84
732.987	1336.13
733.173	1243.97
733.359	1348.42
733.545	1311.55
733.731	1323.84
733.917	1223.49
734.103	1405.76
734.289	1256.26
734.475	1368.9
734.661	1268.55
734.847	1237.83
735.033	1250.11
735.219	1311.55
735.404	1284.93
735.59	1190.72
735.776	1336.13
735.962	1264.45
736.148	1256.26
736.333	1192.77
736.519	1272.64
736.705	1280.83
736.89	1209.15
737.076	1188.68
737.262	1174.34
737.447	1153.86
737.633	1286.98
737.819	1155.91
738.004	1119.04
738.19	1155.91
738.375	1186.63
738.561	1215.3
738.747	1213.25
738.932	1145.67
739.118	1088.32
739.303	1205.06
739.489	1123.14
739.674	1141.57
739.859	1084.23
740.045	1080.13
740.23	1055.56
740.416	1106.76
740.601	1178.44
740.786	1084.23
740.972	1129.28
741.157	1162.05
741.342	1080.13
741.528	1106.76
741.713	1037.13
741.898	1094.47
742.084	1026.89
742.269	985.93
742.454	992.07
742.639	1051.46
742.824	1016.65
743.01	992.07
743.195	1088.32
743.38	975.69
743.565	1018.69
743.75	1061.7
743.935	1069.89
744.12	1100.61
744.305	1037.13
744.49	961.35
744.675	1041.22
744.86	1076.04
745.045	1010.5
745.23	967.49
745.415	975.69
745.6	877.38
745.785	973.64
745.97	910.15
746.155	975.69
746.34	967.49
746.525	899.91
746.71	891.72
746.895	920.39
747.079	969.54
747.264	904.01
747.449	895.82
747.634	922.44
747.819	856.9
748.003	871.24
748.188	940.87
748.373	799.56
748.557	1010.5
748.742	920.39
748.927	969.54
749.111	822.09
749.296	873.29
749.481	793.42
749.665	842.57
749.85	801.61
750.034	858.95
750.219	867.14
750.404	760.65
750.588	863.05
750.773	830.28
750.957	789.32
751.141	930.63
751.326	770.89
751.51	748.36
751.695	781.13
751.879	764.75
752.064	922.44
752.248	768.84
752.432	785.23
752.617	686.92
752.801	805.71
752.985	840.52
753.17	754.51
753.354	727.88
753.538	772.94
753.722	641.87
753.907	738.12
754.091	691.02
754.275	758.6
754.459	672.59
754.643	721.74
754.828	717.64
755.012	688.97
755.196	680.78
755.38	662.35
755.564	666.44
755.748	691.02
755.932	645.96
756.116	736.07
756.3	586.57
756.484	654.16
756.668	717.64
756.852	695.11
757.036	619.34
757.22	572.24
757.404	674.64
757.588	617.29
757.772	633.68
757.956	623.44
758.14	602.96
758.323	662.35
758.507	674.64
758.691	568.14
758.875	576.33
759.059	639.82
759.242	645.96
759.426	568.14
759.61	637.77
759.794	527.18
759.977	590.67
760.161	641.87
760.345	588.62
760.528	537.42
760.712	496.46
760.895	596.81
761.079	570.19
761.263	592.72
761.446	566.09
761.63	555.85
761.813	650.06
761.997	623.44
762.18	537.42
762.364	553.8
762.547	564.04
762.731	572.24
762.914	523.09
763.098	600.91
763.281	461.65
763.464	600.91
763.648	498.51
763.831	531.28
764.015	529.23
764.198	525.13
764.381	459.6
764.564	527.18
764.748	459.6
764.931	518.99
765.114	514.89
765.297	566.09
765.481	535.37
765.664	482.13
765.847	457.55
766.03	514.89
766.213	451.41
766.397	447.31
766.58	541.52
766.763	553.8
766.946	445.26
767.129	504.65
767.312	414.54
767.495	512.85
767.678	525.13
767.861	482.13
768.044	478.03
768.227	471.89
768.41	506.7
768.593	473.93
768.776	523.09
768.959	521.04
769.142	576.33
769.324	564.04
769.507	447.31
769.69	508.75
769.873	471.89
770.056	527.18
770.239	492.37
770.421	398.16
770.604	469.84
770.787	498.51
770.97	457.55
771.152	437.07
771.335	475.98
771.518	502.61
771.7	502.61
771.883	469.84
772.066	437.07
772.248	461.65
772.431	422.73
772.613	461.65
772.796	437.07
772.978	482.13
773.161	514.89
773.343	443.21
773.526	473.93
773.708	439.12
773.891	416.59
774.073	473.93
774.256	443.21
774.438	478.03
774.621	396.11
774.803	406.35
774.985	377.68
775.168	336.72
775.35	451.41
775.532	406.35
775.715	375.63
775.897	334.67
776.079	396.11
776.261	432.97
776.444	373.58
776.626	459.6
776.808	418.64
776.99	324.43
777.173	326.48
777.355	373.58
777.537	392.02
777.719	389.97
777.901	402.26
778.083	402.26
778.265	365.39
778.447	408.4
778.629	414.54
778.811	334.67
778.993	322.38
779.175	336.72
779.357	396.11
779.539	346.96
779.721	410.45
779.903	392.02
780.085	334.67
780.267	328.53
780.449	359.25
780.631	369.49
780.812	445.26
780.994	324.43
781.176	312.14
781.358	351.06
781.54	324.43
781.721	324.43
781.903	303.95
782.085	312.14
782.267	336.72
782.448	299.86
782.63	363.34
782.812	301.9
782.993	224.08
783.175	219.99
783.357	265.04
783.538	301.9
783.72	232.27
783.901	310.1
784.083	224.08
784.264	250.71
784.446	306
784.627	254.8
784.809	314.19
784.99	228.18
785.172	279.38
785.353	262.99
785.535	211.79
785.716	262.99
785.897	289.62
786.079	217.94
786.26	273.23
786.441	328.53
786.623	234.32
786.804	207.7
786.985	240.47
787.167	195.41
787.348	244.56
787.529	240.47
787.71	187.22
787.891	207.7
788.073	234.32
788.254	207.7
788.435	252.75
788.616	222.03
788.797	166.74
788.978	213.84
789.159	205.65
789.34	213.84
789.522	281.43
789.703	289.62
789.884	203.6
790.065	222.03
790.246	273.23
790.427	258.9
790.607	164.69
790.788	217.94
790.969	224.08
791.15	228.18
791.331	174.93
791.512	189.27
791.693	119.64
791.874	222.03
792.054	205.65
792.235	201.55
792.416	211.79
792.597	273.23
792.778	174.93
792.958	152.4
793.139	265.04
793.32	279.38
793.5	181.07
793.681	133.97
793.862	224.08
794.042	215.89
794.223	156.5
794.404	170.83
794.584	168.79
794.765	195.41
794.945	154.45
795.126	154.45
795.306	144.21
795.487	232.27
795.667	144.21
795.848	185.17
796.028	142.16
796.209	197.46
796.389	170.83
796.57	156.5
796.75	117.59
796.93	267.09
797.111	207.7
797.291	152.4
797.471	197.46
797.652	146.26
797.832	179.03
798.012	148.31
798.192	129.88
798.373	191.31
798.553	129.88
798.733	176.98
798.913	162.64
799.093	176.98
799.274	156.5
799.454	127.83
799.634	99.16
799.814	154.45
799.994	121.68
800.174	133.97
800.354	170.83
800.534	187.22
800.714	105.3
800.894	152.4
801.074	109.4
801.254	80.72
801.434	90.96
801.614	176.98
801.794	121.68
801.974	258.9
802.154	127.83
802.334	107.35
802.514	119.64
802.693	138.07
802.873	43.86
803.053	72.53
803.233	166.74
803.413	125.78
803.592	54.1
803.772	39.76
803.952	64.34
804.131	101.2
804.311	115.54
804.491	107.35
804.67	127.83
804.85	181.07
805.03	142.16
805.209	156.5
805.389	117.59
805.568	64.34
805.748	129.88
805.928	123.73
806.107	109.4
806.287	142.16
806.466	80.72
806.646	168.79
806.825	148.31
807.004	84.82
807.184	90.96
807.363	103.25
807.543	136.02
807.722	80.72
807.901	144.21
808.081	115.54
808.26	95.06
808.439	60.24
808.619	144.21
808.798	70.48
808.977	43.86
809.156	35.67
809.336	60.24
809.515	179.03
809.694	119.64
809.873	86.87
810.052	82.77
810.231	68.44
810.411	166.74
810.59	115.54
810.769	115.54
810.948	31.57
811.127	86.87
811.306	64.34
811.485	189.27
811.664	113.49
811.843	140.12
812.022	97.11
812.201	127.83
812.38	117.59
812.559	146.26
812.737	66.39
812.916	103.25
813.095	101.2
813.274	125.78
813.453	119.64
813.632	103.25
813.811	133.97
813.989	82.77
814.168	174.93
814.347	90.96
814.526	80.72
814.704	70.48
814.883	68.44
815.062	86.87
815.24	133.97
815.419	82.77
815.598	60.24
815.776	72.53
815.955	113.49
816.133	58.2
816.312	113.49
816.49	131.92
816.669	95.06
816.847	117.59
817.026	80.72
817.204	93.01
817.383	31.57
817.561	64.34
817.74	56.15
817.918	76.63
818.097	72.53
818.275	74.58
818.453	90.96
818.632	58.2
818.81	84.82
818.988	115.54
819.167	80.72
819.345	25.43
819.523	-15.53
819.701	111.44
819.879	148.31
820.058	52.05
820.236	-5.29
820.414	43.86
820.592	76.63
820.77	45.91
820.948	121.68
821.127	97.11
821.305	84.82
821.483	33.62
821.661	50
821.839	52.05
822.017	86.87
822.195	17.24
822.373	62.29
822.551	37.72
822.729	117.59
822.907	41.81
823.085	70.48
823.262	115.54
823.44	47.96
823.618	39.76
823.796	101.2
823.974	123.73
824.152	33.62
824.329	62.29
824.507	58.2
824.685	25.43
824.863	9.05
825.04	64.34
825.218	101.2
825.396	90.96
825.574	76.63
825.751	68.44
825.929	47.96
826.107	60.24
826.284	82.77
826.462	7
826.639	76.63
826.817	115.54
826.994	78.68
827.172	17.24
827.349	119.64
827.527	117.59
827.704	29.52
827.882	21.33
828.059	7
828.237	-3.24
828.414	0.85
828.591	35.67
828.769	31.57
828.946	47.96
829.124	37.72
829.301	19.29
829.478	35.67
829.655	84.82
829.833	29.52
830.01	-23.72
830.187	-15.53
830.364	11.09
830.542	50
830.719	101.2
830.896	62.29
831.073	84.82
831.25	21.33
831.427	-5.29
831.604	29.52
831.782	60.24
831.959	68.44
832.136	60.24
832.313	80.72
832.49	15.19
832.667	21.33
832.844	66.39
833.021	52.05
833.198	37.72
833.374	60.24
833.551	43.86
833.728	31.57
833.905	31.57
834.082	19.29
834.259	2.9
834.436	17.24
834.612	45.91
834.789	72.53
834.966	-13.48
835.143	93.01
835.319	70.48
835.496	47.96
835.673	4.95
835.85	7
836.026	154.45
836.203	13.14
836.38	33.62
836.556	66.39
836.733	43.86
836.909	66.39
837.086	15.19
837.262	41.81
837.439	70.48
837.616	54.1
837.792	105.3
837.968	27.48
838.145	-9.39
838.321	54.1
838.498	0.85
838.674	-33.96
838.851	56.15
839.027	72.53
839.203	-60.59
839.38	31.57
839.556	-17.58
839.732	58.2
839.909	52.05
840.085	17.24
840.261	-3.24
840.437	9.05
840.614	-36.01
840.79	39.76
840.966	37.72
841.142	-31.91
841.318	78.68
841.494	-3.24
841.671	39.76
841.847	-11.43
842.023	-31.91
842.199	64.34
842.375	74.58
842.551	45.91
842.727	17.24
842.903	45.91
843.079	37.72
843.255	25.43
843.431	43.86
843.607	19.29
843.783	68.44
843.959	17.24
844.134	-42.15
844.31	31.57
844.486	19.29
844.662	7
844.838	19.29
845.013	54.1
845.189	-13.48
845.365	80.72
845.541	21.33
845.716	-56.49
845.892	60.24
846.068	76.63
846.244	35.67
846.419	21.33
846.595	-15.53
846.77	-62.63
846.946	60.24
847.122	-21.67
847.297	-62.63
847.473	11.09
847.648	-11.43
847.824	21.33
847.999	-3.24
848.175	-3.24
848.35	7
848.526	9.05
848.701	58.2
848.876	33.62
849.052	35.67
849.227	27.48
849.403	-44.2
849.578	21.33
849.753	-13.48
849.929	9.05
850.104	23.38
850.279	-23.72
850.454	-17.58
850.63	-23.72
850.805	-31.91
850.98	-25.77
851.155	101.2
851.33	21.33
851.505	-40.11
851.681	62.29
851.856	21.33
852.031	29.52
852.206	-23.72
852.381	29.52
852.556	-5.29
852.731	-7.34
852.906	-11.43
853.081	11.09
853.256	4.95
853.431	103.25
853.606	19.29
853.781	-52.39
853.956	-1.19
854.131	35.67
854.305	41.81
854.48	47.96
854.655	-15.53
854.83	-74.92
855.005	43.86
855.18	25.43
855.354	-5.29
855.529	-3.24
855.704	58.2
855.879	60.24
856.053	27.48
856.228	19.29
856.403	-17.58
856.577	21.33
856.752	11.09
856.926	2.9
857.101	66.39
857.276	-17.58
857.45	-7.34
857.625	9.05
857.799	35.67
857.974	17.24
858.148	-25.77
858.323	54.1
858.497	35.67
858.672	13.14
858.846	4.95
859.02	66.39
859.195	7
859.369	-27.82
859.543	-70.83
859.718	-44.2
859.892	56.15
860.066	56.15
860.241	-11.43
860.415	4.95
860.589	19.29
860.763	54.1
860.938	-7.34
861.112	-13.48
861.286	66.39
861.46	-31.91
861.634	0.85
861.808	2.9
861.982	-40.11
862.157	-21.67
862.331	72.53
862.505	37.72
862.679	-1.19
862.853	7
863.027	25.43
863.201	-15.53
863.375	45.91
863.549	88.92
863.722	43.86
863.896	7
864.07	23.38
864.244	-48.3
864.418	-5.29
864.592	-25.77
864.766	2.9
864.939	-1.19
865.113	25.43
865.287	-9.39
865.461	25.43
865.634	-19.63
865.808	-58.54
865.982	-17.58
866.156	-33.96
866.329	-64.68
866.503	2.9
866.676	-9.39
866.85	0.85
867.024	-9.39
867.197	50
867.371	-31.91
867.544	-21.67
867.718	-1.19
867.891	23.38
868.065	15.19
868.238	80.72
868.412	-27.82
868.585	11.09
868.759	-9.39
868.932	-3.24
869.105	13.14
869.279	19.29
869.452	27.48
869.625	-5.29
869.799	-25.77
869.972	-11.43
870.145	-25.77
870.319	21.33
870.492	-56.49
870.665	-60.59
870.838	4.95
871.011	-13.48
871.185	21.33
871.358	-17.58
871.531	-19.63
871.704	-5.29
871.877	35.67
872.05	56.15
872.223	21.33
872.396	-31.91
872.569	-46.25
872.742	37.72
872.915	0.85
873.088	-36.01
873.261	-95.4
873.434	11.09
873.607	50
873.78	-11.43
873.953	-50.35
874.126	17.24
874.299	27.48
874.471	21.33
874.644	66.39
874.817	-1.19
874.99	37.72
875.163	-7.34
875.335	-25.77
875.508	9.05
875.681	-15.53
875.853	17.24
876.026	-5.29
876.199	41.81
876.371	-11.43
876.544	9.05
876.717	-74.92
876.889	-42.15
877.062	4.95
877.234	-62.63
877.407	35.67
877.579	68.44
877.752	-13.48
877.924	17.24
878.097	-33.96
878.269	-7.34
878.442	33.62
878.614	45.91
878.786	66.39
878.959	-21.67
879.131	-17.58
879.303	11.09
879.476	0.85
879.648	29.52
879.82	50
879.993	25.43
880.165	47.96
880.337	50
880.509	-7.34
880.681	11.09
880.854	19.29
881.026	13.14
881.198	11.09
881.37	-58.54
881.542	-54.44
881.714	-11.43
881.886	21.33
882.058	2.9
882.23	39.76
882.402	-19.63
882.574	80.72
882.746	2.9
882.918	68.44
883.09	45.91
883.262	-13.48
883.434	29.52
883.606	-113.83
883.778	-54.44
883.95	-40.11
884.122	-54.44
884.293	72.53
884.465	37.72
884.637	17.24
884.809	45.91
884.98	-15.53
885.152	-38.06
885.324	41.81
885.496	-19.63
885.667	17.24
885.839	-27.82
886.011	15.19
886.182	47.96
886.354	-11.43
886.525	33.62
886.697	84.82
886.869	-48.3
887.04	0.85
887.212	84.82
887.383	13.14
887.555	11.09
887.726	78.68
887.897	-44.2
888.069	0.85
888.24	-11.43
888.412	39.76
888.583	-15.53
888.754	-36.01
888.926	-13.48
889.097	-52.39
889.268	-21.67
889.44	2.9
889.611	-31.91
889.782	15.19
889.953	19.29
890.125	-1.19
890.296	-48.3
890.467	-5.29
890.638	31.57
890.809	-72.87
890.98	25.43
891.151	47.96
891.323	-79.02
891.494	-60.59
891.665	2.9
891.836	-50.35
892.007	-9.39
892.178	97.11
892.349	54.1
892.52	-29.87
892.691	2.9
892.862	7
893.032	-1.19
893.203	-23.72
893.374	-5.29
893.545	37.72
893.716	-21.67
893.887	19.29
894.057	19.29
894.228	43.86
894.399	35.67
894.57	35.67
894.74	0.85
894.911	-40.11
895.082	-44.2
895.253	7
895.423	-44.2
895.594	9.05
895.764	-21.67
895.935	-44.2
896.106	-38.06
896.276	-42.15
896.447	2.9
896.617	31.57
896.788	7
896.958	11.09
897.129	-68.78
897.299	-66.73
897.47	0.85
897.64	21.33
897.81	-31.91
897.981	-3.24
898.151	43.86
898.322	31.57
898.492	45.91
898.662	9.05
898.832	23.38
899.003	19.29
899.173	-72.87
899.343	-15.53
899.513	21.33
