Data from USB4F104151__52__13-53-29-377.txt Node

Date: Thu Mar 13 13:53:29 EDT 2025
User: louis
Spectrometer: USB4F10415
Trigger mode: 4
Integration Time (sec): 1.000000E-2
Scans to average: 1
Electric dark correction enabled: true
Nonlinearity correction enabled: false
Boxcar width: 0
XAxis mode: Wavelengths
Number of Pixels in Spectrum: 3648
>>>>>Begin Spectral Data<<<<<
178.204	-1.19
178.424	-1.19
178.644	-1.19
178.864	-56.49
179.084	-1.19
179.304	-27.82
179.524	-50.35
179.744	29.52
179.964	56.15
180.184	-5.29
180.404	-5.29
180.624	4.95
180.844	-5.29
181.064	13.14
181.283	-62.63
181.503	9.05
181.723	43.86
181.943	-60.59
182.163	23.38
182.383	-29.87
182.602	-40.11
182.822	2.9
183.042	27.48
183.262	-74.92
183.482	-13.48
183.701	-15.53
183.921	-21.67
184.141	-17.58
184.361	-48.3
184.58	-48.3
184.8	-50.35
185.02	-5.29
185.239	0.85
185.459	-44.2
185.679	35.67
185.898	-52.39
186.118	17.24
186.338	-17.58
186.557	21.33
186.777	-70.83
186.997	-48.3
187.216	-40.11
187.436	-58.54
187.655	-33.96
187.875	-29.87
188.095	-11.43
188.314	0.85
188.534	-21.67
188.753	4.95
188.973	31.57
189.192	33.62
189.412	-42.15
189.631	-13.48
189.851	-17.58
190.07	-7.34
190.29	-27.82
190.509	66.39
190.729	7
190.948	15.19
191.168	-105.64
191.387	23.38
191.607	-42.15
191.826	-58.54
192.045	-33.96
192.265	39.76
192.484	45.91
192.704	27.48
192.923	37.72
193.142	47.96
193.362	-54.44
193.581	19.29
193.8	-52.39
194.02	39.76
194.239	-21.67
194.458	50
194.678	-91.31
194.897	-52.39
195.116	-83.11
195.335	-70.83
195.555	-17.58
195.774	-31.91
195.993	-13.48
196.212	13.14
196.432	-87.21
196.651	7
196.87	-21.67
197.089	-3.24
197.308	-62.63
197.528	17.24
197.747	-99.5
197.966	-11.43
198.185	21.33
198.404	66.39
198.623	31.57
198.842	-33.96
199.062	-3.24
199.281	31.57
199.5	-36.01
199.719	-50.35
199.938	-52.39
200.157	2.9
200.376	-3.24
200.595	25.43
200.814	4.95
201.033	-66.73
201.252	-13.48
201.471	11.09
201.69	-66.73
201.909	-42.15
202.128	-9.39
202.347	41.81
202.566	-1.19
202.785	41.81
203.004	-25.77
203.223	-1.19
203.442	-46.25
203.661	72.53
203.879	-48.3
204.098	-9.39
204.317	2.9
204.536	-23.72
204.755	15.19
204.974	-3.24
205.193	-21.67
205.411	-9.39
205.63	-21.67
205.849	-33.96
206.068	7
206.287	-52.39
206.505	-46.25
206.724	-56.49
206.943	-19.63
207.162	43.86
207.381	-48.3
207.599	4.95
207.818	-62.63
208.037	31.57
208.255	7
208.474	-38.06
208.693	-74.92
208.911	-44.2
209.13	-48.3
209.349	-27.82
209.567	-54.44
209.786	-33.96
210.005	-21.67
210.223	-17.58
210.442	-62.63
210.661	-48.3
210.879	41.81
211.098	-58.54
211.316	-56.49
211.535	0.85
211.753	33.62
211.972	-17.58
212.191	-11.43
212.409	13.14
212.628	80.72
212.846	0.85
213.065	-11.43
213.283	-3.24
213.502	-33.96
213.72	-21.67
213.938	43.86
214.157	-36.01
214.375	4.95
214.594	15.19
214.812	54.1
215.031	-11.43
215.249	7
215.467	4.95
215.686	0.85
215.904	33.62
216.122	19.29
216.341	-3.24
216.559	-17.58
216.778	-5.29
216.996	-105.64
217.214	31.57
217.432	0.85
217.651	19.29
217.869	-40.11
218.087	19.29
218.306	-13.48
218.524	-54.44
218.742	-13.48
218.96	-17.58
219.179	-33.96
219.397	-17.58
219.615	-15.53
219.833	23.38
220.051	-25.77
220.27	17.24
220.488	-29.87
220.706	52.05
220.924	23.38
221.142	11.09
221.36	-40.11
221.578	-25.77
221.796	35.67
222.015	9.05
222.233	31.57
222.451	7
222.669	11.09
222.887	-19.63
223.105	-42.15
223.323	-1.19
223.541	-33.96
223.759	25.43
223.977	-19.63
224.195	-38.06
224.413	-68.78
224.631	29.52
224.849	27.48
225.067	-11.43
225.285	4.95
225.503	15.19
225.721	-21.67
225.939	64.34
226.157	-25.77
226.375	7
226.592	-70.83
226.81	7
227.028	-9.39
227.246	64.34
227.464	-29.87
227.682	56.15
227.9	50
228.117	-33.96
228.335	-17.58
228.553	-23.72
228.771	-42.15
228.989	-68.78
229.206	21.33
229.424	-62.63
229.642	19.29
229.86	25.43
230.077	-46.25
230.295	47.96
230.513	37.72
230.731	-17.58
230.948	17.24
231.166	-50.35
231.384	2.9
231.601	9.05
231.819	-58.54
232.037	-11.43
232.254	-3.24
232.472	-33.96
232.689	-9.39
232.907	37.72
233.125	-5.29
233.342	-56.49
233.56	-7.34
233.777	27.48
233.995	7
234.213	-23.72
234.43	-36.01
234.648	17.24
234.865	-36.01
235.083	-62.63
235.3	-46.25
235.518	13.14
235.735	21.33
235.953	-27.82
236.17	-19.63
236.388	7
236.605	-13.48
236.822	-15.53
237.04	-48.3
237.257	-38.06
237.475	-58.54
237.692	7
237.909	7
238.127	11.09
238.344	2.9
238.562	45.91
238.779	33.62
238.996	-13.48
239.214	54.1
239.431	-33.96
239.648	-42.15
239.865	-11.43
240.083	62.29
240.3	-27.82
240.517	-27.82
240.735	2.9
240.952	0.85
241.169	-3.24
241.386	19.29
241.603	-5.29
241.821	-27.82
242.038	-15.53
242.255	-1.19
242.472	-17.58
242.689	-15.53
242.907	19.29
243.124	-31.91
243.341	0.85
243.558	-48.3
243.775	-56.49
243.992	-21.67
244.209	74.58
244.426	-19.63
244.643	27.48
244.86	-23.72
245.078	43.86
245.295	9.05
245.512	-48.3
245.729	-44.2
245.946	-64.68
246.163	21.33
246.38	31.57
246.597	39.76
246.814	-19.63
247.031	-19.63
247.248	-15.53
247.464	11.09
247.681	23.38
247.898	-17.58
248.115	-15.53
248.332	-13.48
248.549	41.81
248.766	9.05
248.983	-13.48
249.2	-29.87
249.417	41.81
249.633	-9.39
249.85	21.33
250.067	37.72
250.284	43.86
250.501	52.05
250.717	19.29
250.934	-17.58
251.151	15.19
251.368	0.85
251.585	29.52
251.801	0.85
252.018	-17.58
252.235	-13.48
252.451	-1.19
252.668	31.57
252.885	50
253.102	-31.91
253.318	19.29
253.535	11.09
253.752	43.86
253.968	-11.43
254.185	37.72
254.401	-44.2
254.618	13.14
254.835	-5.29
255.051	7
255.268	56.15
255.484	23.38
255.701	-52.39
255.917	-87.21
256.134	-107.69
256.351	-11.43
256.567	-9.39
256.784	31.57
257	25.43
257.217	45.91
257.433	41.81
257.65	-21.67
257.866	4.95
258.082	-66.73
258.299	72.53
258.515	19.29
258.732	2.9
258.948	9.05
259.165	-9.39
259.381	-50.35
259.597	-13.48
259.814	-11.43
260.03	-13.48
260.246	-13.48
260.463	15.19
260.679	62.29
260.895	-52.39
261.112	-7.34
261.328	-25.77
261.544	19.29
261.761	68.44
261.977	2.9
262.193	-5.29
262.409	35.67
262.626	-19.63
262.842	29.52
263.058	-50.35
263.274	-52.39
263.49	31.57
263.707	0.85
263.923	-52.39
264.139	-56.49
264.355	-52.39
264.571	-27.82
264.787	15.19
265.004	-11.43
265.22	-29.87
265.436	0.85
265.652	-72.87
265.868	-13.48
266.084	-15.53
266.3	-19.63
266.516	-58.54
266.732	-3.24
266.948	-31.91
267.164	-74.92
267.38	86.87
267.596	-33.96
267.812	0.85
268.028	54.1
268.244	-31.91
268.46	-66.73
268.676	-31.91
268.892	-21.67
269.108	-68.78
269.324	-11.43
269.54	-31.91
269.756	-23.72
269.972	-15.53
270.188	-19.63
270.403	-40.11
270.619	-42.15
270.835	-21.67
271.051	-50.35
271.267	-44.2
271.483	70.48
271.698	-58.54
271.914	50
272.13	17.24
272.346	39.76
272.562	-85.16
272.777	50
272.993	45.91
273.209	7
273.425	31.57
273.64	-58.54
273.856	-19.63
274.072	21.33
274.287	39.76
274.503	-31.91
274.719	-5.29
274.934	-21.67
275.15	4.95
275.366	29.52
275.581	-81.07
275.797	-44.2
276.012	-3.24
276.228	4.95
276.444	-54.44
276.659	7
276.875	25.43
277.09	-38.06
277.306	-97.45
277.521	-27.82
277.737	-9.39
277.952	-19.63
278.168	-74.92
278.383	-66.73
278.599	-23.72
278.814	13.14
279.03	19.29
279.245	-13.48
279.461	-25.77
279.676	17.24
279.892	23.38
280.107	-17.58
280.322	37.72
280.538	-3.24
280.753	-36.01
280.969	-15.53
281.184	9.05
281.399	-64.68
281.615	-9.39
281.83	-33.96
282.045	4.95
282.26	50
282.476	-15.53
282.691	-23.72
282.906	-19.63
283.122	4.95
283.337	-44.2
283.552	-17.58
283.767	-27.82
283.983	-29.87
284.198	-46.25
284.413	-38.06
284.628	7
284.843	47.96
285.058	21.33
285.274	60.24
285.489	-58.54
285.704	4.95
285.919	25.43
286.134	-44.2
286.349	4.95
286.564	-13.48
286.779	74.58
286.995	95.06
287.21	-9.39
287.425	23.38
287.64	-1.19
287.855	25.43
288.07	2.9
288.285	76.63
288.5	33.62
288.715	-7.34
288.93	4.95
289.145	-27.82
289.36	-11.43
289.575	15.19
289.79	4.95
290.004	35.67
290.219	-48.3
290.434	-27.82
290.649	-17.58
290.864	-48.3
291.079	13.14
291.294	23.38
291.509	9.05
291.724	-17.58
291.938	-42.15
292.153	-13.48
292.368	33.62
292.583	82.77
292.798	-33.96
293.012	0.85
293.227	-36.01
293.442	-3.24
293.657	-3.24
293.871	27.48
294.086	33.62
294.301	33.62
294.516	64.34
294.73	43.86
294.945	64.34
295.16	2.9
295.374	19.29
295.589	52.05
295.804	11.09
296.018	-1.19
296.233	54.1
296.447	29.52
296.662	0.85
296.877	25.43
297.091	-19.63
297.306	54.1
297.52	23.38
297.735	-7.34
297.949	31.57
298.164	-36.01
298.378	68.44
298.593	-29.87
298.807	-44.2
299.022	45.91
299.236	29.52
299.451	-5.29
299.665	-38.06
299.88	-23.72
300.094	41.81
300.309	23.38
300.523	-17.58
300.737	-23.72
300.952	0.85
301.166	-19.63
301.381	-21.67
301.595	-25.77
301.809	-13.48
302.024	-5.29
302.238	-15.53
302.452	45.91
302.667	35.67
302.881	62.29
303.095	15.19
303.309	27.48
303.524	-42.15
303.738	-76.97
303.952	-19.63
304.166	0.85
304.381	19.29
304.595	52.05
304.809	-13.48
305.023	21.33
305.237	9.05
305.452	27.48
305.666	0.85
305.88	-36.01
306.094	-64.68
306.308	13.14
306.522	-29.87
306.736	-15.53
306.95	45.91
307.164	-5.29
307.379	-11.43
307.593	17.24
307.807	60.24
308.021	19.29
308.235	-15.53
308.449	11.09
308.663	7
308.877	31.57
309.091	7
309.305	25.43
309.519	-5.29
309.733	41.81
309.947	21.33
310.161	-1.19
310.374	-19.63
310.588	101.2
310.802	-54.44
311.016	7
311.23	-76.97
311.444	21.33
311.658	-25.77
311.872	13.14
312.085	41.81
312.299	33.62
312.513	50
312.727	15.19
312.941	11.09
313.154	33.62
313.368	-11.43
313.582	-58.54
313.796	78.68
314.009	-38.06
314.223	7
314.437	23.38
314.651	29.52
314.864	-33.96
315.078	15.19
315.292	-3.24
315.505	11.09
315.719	68.44
315.933	-19.63
316.146	23.38
316.36	-36.01
316.573	103.25
316.787	15.19
317.001	13.14
317.214	43.86
317.428	56.15
317.641	-66.73
317.855	25.43
318.068	41.81
318.282	52.05
318.495	33.62
318.709	-48.3
318.922	90.96
319.136	-19.63
319.349	-15.53
319.563	11.09
319.776	0.85
319.99	2.9
320.203	11.09
320.417	-11.43
320.63	-36.01
320.843	56.15
321.057	-15.53
321.27	-17.58
321.483	-1.19
321.697	15.19
321.91	86.87
322.124	2.9
322.337	-3.24
322.55	-36.01
322.763	72.53
322.977	19.29
323.19	23.38
323.403	33.62
323.617	0.85
323.83	-56.49
324.043	-31.91
324.256	-1.19
324.469	-40.11
324.683	37.72
324.896	21.33
325.109	-21.67
325.322	-11.43
325.535	25.43
325.748	-3.24
325.962	27.48
326.175	-58.54
326.388	-9.39
326.601	47.96
326.814	-31.91
327.027	-15.53
327.24	33.62
327.453	19.29
327.666	-36.01
327.879	27.48
328.092	47.96
328.305	-9.39
328.518	-23.72
328.731	2.9
328.944	-19.63
329.157	19.29
329.37	33.62
329.583	-70.83
329.796	-56.49
330.009	-17.58
330.222	-19.63
330.435	39.76
330.648	76.63
330.861	-3.24
331.073	13.14
331.286	-27.82
331.499	54.1
331.712	-13.48
331.925	-1.19
332.138	-64.68
332.35	95.06
332.563	-5.29
332.776	21.33
332.989	21.33
333.202	-9.39
333.414	-23.72
333.627	25.43
333.84	-1.19
334.053	-60.59
334.265	-27.82
334.478	9.05
334.691	-5.29
334.903	-1.19
335.116	17.24
335.329	4.95
335.541	-23.72
335.754	-17.58
335.966	-11.43
336.179	-33.96
336.392	29.52
336.604	33.62
336.817	39.76
337.029	29.52
337.242	-31.91
337.454	76.63
337.667	11.09
337.88	2.9
338.092	43.86
338.305	56.15
338.517	52.05
338.729	-19.63
338.942	-76.97
339.154	72.53
339.367	-9.39
339.579	-58.54
339.792	-5.29
340.004	9.05
340.217	-15.53
340.429	19.29
340.641	45.91
340.854	39.76
341.066	-15.53
341.278	-13.48
341.491	35.67
341.703	0.85
341.915	-72.87
342.128	0.85
342.34	11.09
342.552	68.44
342.764	-5.29
342.977	-54.44
343.189	-3.24
343.401	37.72
343.613	11.09
343.826	4.95
344.038	19.29
344.25	11.09
344.462	-5.29
344.674	33.62
344.886	-11.43
345.099	11.09
345.311	-7.34
345.523	43.86
345.735	-29.87
345.947	-36.01
346.159	27.48
346.371	17.24
346.583	-3.24
346.795	43.86
347.007	105.3
347.219	-19.63
347.431	-9.39
347.643	-7.34
347.855	-13.48
348.067	9.05
348.279	25.43
348.491	4.95
348.703	-56.49
348.915	-1.19
349.127	21.33
349.339	-5.29
349.551	-25.77
349.763	25.43
349.975	0.85
350.187	50
350.399	21.33
350.61	7
350.822	-46.25
351.034	-19.63
351.246	-64.68
351.458	97.11
351.669	4.95
351.881	-38.06
352.093	17.24
352.305	15.19
352.517	70.48
352.728	-46.25
352.94	-5.29
353.152	-81.07
353.363	-107.69
353.575	25.43
353.787	7
353.999	-31.91
354.21	13.14
354.422	-13.48
354.633	-17.58
354.845	47.96
355.057	27.48
355.268	-33.96
355.48	-3.24
355.692	-17.58
355.903	9.05
356.115	50
356.326	-64.68
356.538	37.72
356.749	-42.15
356.961	45.91
357.172	-3.24
357.384	-15.53
357.595	13.14
357.807	-44.2
358.018	64.34
358.23	31.57
358.441	17.24
358.653	41.81
358.864	97.11
359.075	-9.39
359.287	-11.43
359.498	39.76
359.709	2.9
359.921	66.39
360.132	47.96
360.344	-33.96
360.555	-36.01
360.766	25.43
360.977	-72.87
361.189	-19.63
361.4	60.24
361.611	19.29
361.823	-27.82
362.034	11.09
362.245	-21.67
362.456	-17.58
362.667	9.05
362.879	-33.96
363.09	37.72
363.301	52.05
363.512	37.72
363.723	-44.2
363.935	-29.87
364.146	2.9
364.357	82.77
364.568	-1.19
364.779	4.95
364.99	9.05
365.201	27.48
365.412	41.81
365.623	13.14
365.834	-17.58
366.045	23.38
366.256	17.24
366.467	-38.06
366.678	60.24
366.889	-64.68
367.1	-36.01
367.311	-95.4
367.522	23.38
367.733	-9.39
367.944	23.38
368.155	43.86
368.366	-9.39
368.577	31.57
368.788	66.39
368.999	17.24
369.209	33.62
369.42	-9.39
369.631	25.43
369.842	45.91
370.053	-64.68
370.264	-13.48
370.474	-3.24
370.685	-15.53
370.896	-1.19
371.107	21.33
371.317	68.44
371.528	27.48
371.739	45.91
371.95	-15.53
372.16	-7.34
372.371	-3.24
372.582	29.52
372.792	0.85
373.003	-13.48
373.214	-36.01
373.424	-17.58
373.635	21.33
373.846	7
374.056	-11.43
374.267	21.33
374.477	-38.06
374.688	-1.19
374.898	15.19
375.109	7
375.319	13.14
375.53	52.05
375.74	54.1
375.951	-36.01
376.161	-19.63
376.372	-58.54
376.582	-29.87
376.793	-15.53
377.003	23.38
377.214	-19.63
377.424	54.1
377.635	0.85
377.845	-11.43
378.055	33.62
378.266	17.24
378.476	60.24
378.686	-64.68
378.897	27.48
379.107	19.29
379.317	31.57
379.528	-9.39
379.738	-1.19
379.948	19.29
380.158	-33.96
380.369	-31.91
380.579	2.9
380.789	54.1
380.999	17.24
381.21	0.85
381.42	2.9
381.63	-23.72
381.84	-7.34
382.05	68.44
382.261	25.43
382.471	-52.39
382.681	80.72
382.891	37.72
383.101	23.38
383.311	0.85
383.521	60.24
383.731	-40.11
383.941	11.09
384.151	31.57
384.361	-19.63
384.571	-62.63
384.781	50
384.991	-19.63
385.201	-5.29
385.411	-23.72
385.621	11.09
385.831	-13.48
386.041	52.05
386.251	31.57
386.461	15.19
386.671	19.29
386.881	54.1
387.091	-17.58
387.301	29.52
387.511	-66.73
387.72	23.38
387.93	-44.2
388.14	35.67
388.35	-19.63
388.56	-27.82
388.769	-7.34
388.979	-21.67
389.189	-11.43
389.399	-3.24
389.609	11.09
389.818	-42.15
390.028	15.19
390.238	78.68
390.447	-31.91
390.657	-5.29
390.867	9.05
391.076	-29.87
391.286	-9.39
391.496	47.96
391.705	9.05
391.915	62.29
392.125	31.57
392.334	15.19
392.544	37.72
392.753	-15.53
392.963	-9.39
393.172	66.39
393.382	-15.53
393.591	31.57
393.801	21.33
394.01	47.96
394.22	82.77
394.429	37.72
394.639	25.43
394.848	19.29
395.058	29.52
395.267	68.44
395.477	7
395.686	-3.24
395.895	39.76
396.105	72.53
396.314	33.62
396.524	-23.72
396.733	52.05
396.942	-33.96
397.152	43.86
397.361	29.52
397.57	7
397.78	7
397.989	74.58
398.198	23.38
398.407	86.87
398.617	90.96
398.826	66.39
399.035	56.15
399.244	60.24
399.453	29.52
399.663	35.67
399.872	62.29
400.081	-13.48
400.29	45.91
400.499	11.09
400.708	68.44
400.917	25.43
401.127	52.05
401.336	88.92
401.545	64.34
401.754	45.91
401.963	41.81
402.172	76.63
402.381	54.1
402.59	47.96
402.799	111.44
403.008	25.43
403.217	148.31
403.426	4.95
403.635	64.34
403.844	78.68
404.053	150.36
404.262	103.25
404.471	52.05
404.68	45.91
404.888	131.92
405.097	56.15
405.306	133.97
405.515	109.4
405.724	56.15
405.933	93.01
406.142	105.3
406.35	88.92
406.559	119.64
406.768	123.73
406.977	125.78
407.185	125.78
407.394	97.11
407.603	25.43
407.812	119.64
408.02	168.79
408.229	54.1
408.438	84.82
408.646	168.79
408.855	142.16
409.064	82.77
409.272	138.07
409.481	166.74
409.69	187.22
409.898	176.98
410.107	168.79
410.315	170.83
410.524	144.21
410.733	174.93
410.941	189.27
411.15	193.36
411.358	195.41
411.567	187.22
411.775	148.31
411.984	215.89
412.192	226.13
412.401	242.51
412.609	260.95
412.818	234.32
413.026	267.09
413.234	291.66
413.443	267.09
413.651	297.81
413.86	299.86
414.068	344.91
414.276	373.58
414.485	367.44
414.693	318.29
414.901	404.3
415.11	418.64
415.318	432.97
415.526	471.89
415.734	478.03
415.943	432.97
416.151	490.32
416.359	367.44
416.567	531.28
416.776	592.72
416.984	566.09
417.192	484.17
417.4	607.05
417.608	488.27
417.817	629.58
418.025	711.5
418.233	742.22
418.441	600.91
418.649	695.11
418.857	740.17
419.065	736.07
419.273	779.08
419.481	803.66
419.689	854.86
419.897	918.34
420.105	885.58
420.313	998.21
420.521	920.39
420.729	914.25
420.937	1065.8
421.145	992.07
421.353	1135.43
421.561	1108.8
421.769	1237.83
421.977	1243.97
422.185	1092.42
422.393	1375.04
422.601	1420.1
422.809	1356.61
423.017	1397.57
423.224	1459.01
423.432	1456.96
423.64	1534.78
423.848	1628.99
424.056	1538.88
424.263	1747.77
424.471	1805.11
424.679	1708.86
424.887	1817.4
425.094	1805.11
425.302	1905.46
425.51	1973.05
425.718	2079.54
425.925	1993.53
426.133	2132.79
426.341	2247.48
426.548	2353.97
426.756	2419.5
426.964	2411.31
427.171	2624.3
427.379	2509.62
427.586	2581.29
427.794	2716.46
428.001	2874.15
428.209	2992.94
428.417	2941.74
428.624	3240.74
428.832	3152.68
429.039	3220.26
429.247	3072.81
429.454	3330.85
429.662	3582.75
429.869	3521.31
430.076	3715.87
430.284	3455.78
430.491	3629.85
430.699	4016.92
430.906	3986.2
431.114	4131.61
431.321	4199.19
431.528	4264.72
431.736	4541.2
431.943	4676.37
432.15	4449.04
432.358	4549.39
432.565	4817.68
432.772	4805.39
432.979	5192.45
433.187	5075.72
433.394	5180.17
433.601	5501.7
433.808	5534.46
434.016	5423.87
434.223	5894.91
434.43	6132.47
434.637	5942.01
434.844	6249.21
435.052	6519.54
435.259	6437.62
435.466	6488.82
435.673	6302.45
435.88	6949.61
436.087	7107.3
436.294	7312.1
436.501	7121.64
436.708	7293.67
436.915	7443.17
437.122	7768.8
437.329	7707.36
437.537	7965.4
437.743	7942.88
437.95	7973.6
438.157	8583.89
438.364	8884.94
438.571	8674
438.778	8878.8
438.985	9556.68
439.192	9335.49
439.399	9622.21
439.606	9308.87
439.813	9867.97
440.02	10330.81
440.227	10140.35
440.433	10373.82
440.64	10367.67
440.847	10377.91
441.054	10629.81
441.261	11438.76
441.467	11215.53
441.674	11233.96
441.881	11909.79
442.088	11883.17
442.294	11573.92
442.501	12001.95
442.708	12309.15
442.914	12700.31
443.121	13296.27
443.328	12888.72
443.534	14047.87
443.741	13447.82
443.948	13310.6
444.154	14328.44
444.361	14277.24
444.568	14207.61
444.774	14324.35
444.981	14373.5
445.187	14938.74
445.394	15563.37
445.6	15250.03
445.807	16695.89
446.013	16255.58
446.22	16374.36
446.426	17025.62
446.633	17156.69
446.839	17853
447.046	16855.64
447.252	18121.28
447.459	17893.96
447.665	17965.64
447.871	18815.54
448.078	19216.94
448.284	18444.86
448.491	19106.35
448.697	19595.82
448.903	19980.84
449.11	20105.76
449.316	19720.74
449.522	20212.26
449.728	20650.52
449.935	20711.96
450.141	20814.36
450.347	21219.86
450.553	20369.95
450.76	20869.65
450.966	21662.22
451.172	21383.7
451.378	21682.7
451.584	21148.18
451.791	21805.58
451.997	21744.14
452.203	21920.26
452.409	21899.78
452.615	21916.17
452.821	20881.94
453.027	20927
453.233	21899.78
453.44	21008.92
453.646	21156.37
453.852	21324.3
454.058	21594.64
454.264	20791.83
454.47	21230.1
454.676	20773.4
454.882	21178.9
455.088	19683.88
455.294	19882.53
455.5	20197.92
455.705	20296.22
455.911	19423.79
456.117	18995.76
456.323	18862.65
456.529	18010.69
456.735	18833.97
456.941	18235.97
457.147	17719.88
457.352	17130.06
457.558	17066.58
457.764	16872.02
457.97	16493.15
458.176	16405.08
458.381	16200.29
458.587	15256.17
458.793	15546.98
458.999	14611.06
459.204	15768.16
459.41	15383.15
459.616	14264.96
459.821	14244.48
460.027	14146.17
460.233	13906.56
460.438	13062.8
460.644	13566.6
460.85	12878.48
461.055	12706.45
461.261	12667.54
461.466	11696.8
461.672	11152.04
461.878	12343.96
462.083	11104.94
462.289	11088.56
462.494	10871.47
462.7	10498.74
462.905	10265.27
463.111	10605.24
463.316	10511.03
463.522	10502.84
463.727	10504.89
463.932	10476.21
464.138	10312.38
464.343	10375.86
464.549	10140.35
464.754	10472.12
464.959	10285.75
465.165	10369.72
465.37	9913.02
465.575	9505.48
465.781	10056.38
465.986	10046.14
466.191	9669.31
466.397	9614.02
466.602	8837.84
466.807	9364.17
467.012	9386.69
467.218	9421.51
467.423	9360.07
467.628	9282.25
467.833	9697.99
468.038	9220.81
468.244	9210.57
468.449	9407.17
468.654	9085.64
468.859	8977.1
469.064	8907.47
469.269	8608.47
469.474	8590.03
469.679	8755.92
469.885	8614.61
470.09	8778.45
470.295	8772.3
470.5	8528.6
470.705	8391.38
470.91	8311.51
471.115	8162.01
471.32	8307.41
471.525	8258.26
471.73	8135.39
471.935	7883.49
472.139	7994.08
472.344	7957.21
472.549	7803.61
472.754	7809.76
472.959	7604.96
473.164	7510.75
473.369	7361.25
473.574	7469.8
473.778	7582.43
473.983	7414.5
474.188	7463.65
474.393	7113.45
474.598	7238.37
474.802	7129.83
475.007	6865.64
475.212	6970.09
475.417	6734.57
475.621	6687.47
475.826	6662.9
476.031	6726.38
476.235	6671.09
476.44	6533.87
476.645	6408.95
476.849	6355.7
477.054	6441.72
477.259	6198.01
477.463	6345.46
477.668	6050.55
477.872	6163.19
478.077	6077.18
478.282	6001.4
478.486	6030.07
478.691	6095.61
478.895	6036.22
479.1	5919.48
479.304	5839.61
479.509	5638.91
479.713	5755.65
479.918	5612.29
480.122	5538.56
480.326	5700.35
480.531	5774.08
480.735	5681.92
480.94	5733.12
481.144	5731.07
481.348	5427.97
481.553	5538.56
481.757	5493.51
481.961	5511.94
482.166	5608.19
482.37	5542.66
482.574	5395.2
482.778	5450.5
482.983	5694.21
483.187	5470.98
483.391	5473.03
483.595	5448.45
483.8	5448.45
484.004	5171.97
484.208	5409.54
484.412	5397.25
484.616	5454.59
484.821	5380.87
485.025	5538.56
485.229	5546.75
485.433	5446.4
485.637	5423.87
485.841	5421.83
486.045	5559.04
486.249	5368.58
486.453	5468.93
486.657	5448.45
486.861	5563.14
487.065	5329.67
487.269	5499.65
487.473	5346.05
487.677	5403.39
487.881	5479.17
488.085	5520.13
488.289	5569.28
488.493	5495.55
488.697	5683.97
488.901	5612.29
489.105	5462.79
489.309	5409.54
489.512	5511.94
489.716	5505.79
489.92	5477.12
490.124	5554.94
490.328	5589.76
490.531	5681.92
490.735	5561.09
490.939	5620.48
491.143	5511.94
491.346	5548.8
491.55	5753.6
491.754	5716.73
491.958	5843.71
492.161	5704.45
492.365	5755.65
492.569	5784.32
492.772	5739.26
492.976	5845.76
493.18	5894.91
493.383	6085.37
493.587	5995.26
493.79	6048.51
493.994	5974.78
494.197	6185.72
494.401	5962.49
494.605	6023.93
494.808	6279.93
495.012	6167.29
495.215	6193.91
495.419	6312.69
495.622	6253.3
495.825	6451.95
496.029	6400.76
496.232	6411
496.436	6601.46
496.639	6714.09
496.843	6537.97
497.046	6814.45
497.249	6808.3
497.453	6787.82
497.656	7082.73
497.859	7154.41
498.063	7152.36
498.266	7260.9
498.469	7254.76
498.673	7072.49
498.876	7455.46
499.079	7484.13
499.282	7559.91
499.485	7520.99
499.689	7645.92
499.892	7820
500.095	7918.3
500.298	8057.56
500.501	7985.88
500.705	8141.53
500.908	8321.75
501.111	8350.42
501.314	8487.64
501.517	8522.45
501.72	8547.03
501.923	8604.37
502.126	8714.96
502.329	8911.57
502.532	8923.85
502.735	9091.79
502.938	9292.49
503.141	9325.26
503.344	9435.85
503.547	9380.55
503.75	9695.94
503.953	9816.77
504.156	9749.18
504.359	10044.09
504.562	9980.61
504.765	10150.59
504.968	10287.8
505.17	10287.8
505.373	10355.38
505.576	10689.2
505.779	10881.71
505.982	10785.46
506.185	11092.65
506.387	11254.44
506.59	11104.94
506.793	11465.38
506.996	11444.9
507.198	11764.39
507.401	11715.23
507.604	11750.05
507.807	12059.29
508.009	12331.67
508.212	12335.77
508.415	12370.58
508.617	12661.4
508.82	12669.59
509.022	12780.18
509.225	13122.19
509.428	12944.02
509.63	13245.07
509.833	13439.62
510.035	13646.47
510.238	13546.12
510.44	13712
510.643	14193.28
510.845	14258.81
511.048	13980.29
511.25	14271.1
511.453	14439.03
511.655	14965.36
511.858	14850.67
512.06	14926.45
512.262	15252.08
512.465	15116.91
512.667	15432.3
512.87	15583.85
513.072	15559.27
513.274	15954.53
513.477	16210.53
513.679	16202.33
513.881	16552.54
514.084	16546.39
514.286	16702.04
514.488	16788.05
514.69	17259.09
514.893	17152.59
515.095	17429.07
515.297	17324.62
515.499	17558.09
515.701	17906.24
515.904	18123.33
516.106	18113.09
516.308	18477.63
516.51	18657.85
516.712	18862.65
516.914	19053.11
517.116	19477.04
517.318	19200.56
517.52	19374.64
517.722	19415.6
517.925	19894.82
518.127	19970.6
518.329	20013.6
518.531	20202.02
518.733	20662.81
518.935	20949.53
519.136	20986.39
519.338	21004.82
519.54	21355.02
519.742	21514.77
519.944	21533.2
520.146	21940.74
520.348	21881.35
520.55	22043.14
520.752	22143.49
520.954	22508.03
521.155	22440.45
521.357	23149.04
521.559	23077.37
521.761	23548.4
521.963	23443.95
522.164	23433.71
522.366	23448.05
522.568	24013.29
522.77	24281.57
522.971	24373.73
523.173	24238.56
523.375	24627.68
523.576	24541.66
523.778	24746.46
523.98	25020.89
524.181	25254.36
524.383	24959.45
524.584	25434.58
524.786	25717.2
524.988	25805.26
525.189	25971.15
525.391	26137.03
525.592	25711.05
525.794	26118.6
525.995	26276.29
526.197	26317.25
526.398	26450.37
526.6	26759.61
526.801	26710.46
527.003	27052.47
527.204	26751.42
527.406	26905.02
527.607	27169.21
527.808	27146.68
528.01	26980.79
528.211	27351.48
528.412	27816.36
528.614	27480.5
528.815	27648.43
529.016	27736.49
529.218	27769.26
529.419	27836.84
529.62	27578.8
529.822	27490.74
530.023	27730.35
530.224	28285.35
530.425	27906.48
530.626	27716.01
530.828	27720.11
531.029	28150.18
531.23	27969.96
531.431	28033.45
531.632	28361.12
531.833	28639.65
532.035	28273.06
532.236	28357.03
532.437	28185
532.638	28191.14
532.839	28701.09
533.04	28584.35
533.241	28324.26
533.442	28692.9
533.643	28754.33
533.844	28350.88
534.045	28422.56
534.246	28574.11
534.447	28895.64
534.648	28778.91
534.849	28570.02
535.05	28600.74
535.251	28776.86
535.451	28664.22
535.652	29010.33
535.853	28645.79
536.054	28838.3
536.255	28639.65
536.456	28570.02
536.657	29063.58
536.857	28256.68
537.058	28160.42
537.259	28993.95
537.46	28846.49
537.66	28563.87
537.861	28707.23
538.062	28989.85
538.263	28797.34
538.463	28402.08
538.664	28631.46
538.865	28725.66
539.065	29022.62
539.266	28543.39
539.466	29211.03
539.667	28590.5
539.868	28653.98
540.068	28490.15
540.269	28834.21
540.469	28887.45
540.67	28524.96
540.87	28656.03
541.071	28658.08
541.271	28764.57
541.472	28348.84
541.672	28660.13
541.873	28621.22
542.073	28217.77
542.274	29079.96
542.474	28639.65
542.675	28664.22
542.875	29084.06
543.075	28889.5
543.276	28662.18
543.476	29059.48
543.676	28531.11
543.877	28797.34
544.077	28658.08
544.277	28606.88
544.478	28506.53
544.678	28643.74
544.878	28557.73
545.078	28758.43
545.279	28432.8
545.479	28453.28
545.679	28711.33
545.879	28555.68
546.079	28623.26
546.28	28473.76
546.48	28512.67
546.68	28555.68
546.88	28318.12
547.08	28842.4
547.28	28336.55
547.48	28133.8
547.68	28422.56
547.88	28694.94
548.081	28430.76
548.281	28649.89
548.481	28447.14
548.681	28613.02
548.881	28316.07
549.081	28578.21
549.28	28608.93
549.48	28656.03
549.68	28662.18
549.88	28639.65
550.08	28252.58
550.28	28359.08
550.48	28393.89
550.68	28828.06
550.88	28596.64
551.08	28250.53
551.279	28471.71
551.479	28441
551.679	28273.06
551.879	28180.9
552.079	28524.96
552.278	28438.95
552.478	28461.48
552.678	28576.16
552.878	28445.09
553.077	28266.92
553.277	28234.15
553.477	28635.55
553.676	28252.58
553.876	28152.23
554.076	28254.63
554.275	28191.14
554.475	27894.19
554.674	27992.49
554.874	28217.77
555.074	28121.51
555.273	28017.07
555.473	28103.08
555.672	28084.65
555.872	28150.18
556.071	27830.7
556.271	27984.3
556.47	27867.56
556.67	27421.11
556.869	27763.12
557.068	27845.04
557.268	27666.86
557.467	28121.51
557.667	27781.55
557.866	27756.97
558.065	27795.89
558.265	27578.8
558.464	27552.18
558.663	27771.31
558.863	27369.91
559.062	27851.18
559.261	27275.7
559.461	27589.04
559.66	27183.54
559.859	27351.48
560.058	27287.99
560.258	27447.73
560.457	27044.28
560.656	27191.73
560.855	27365.81
561.054	27285.94
561.253	26956.22
561.453	27193.78
561.652	27279.8
561.851	27382.2
562.05	27124.15
562.249	26816.96
562.448	27103.67
562.647	27062.71
562.846	27146.68
563.045	26603.97
563.244	26255.81
563.443	27029.94
563.642	26616.26
563.841	26798.52
564.04	26307.01
564.239	26888.64
564.438	26444.23
564.637	26644.93
564.836	26610.11
565.035	26288.58
565.234	26309.06
565.432	26294.72
565.631	26390.98
565.83	26319.3
566.029	26055.11
566.228	25831.88
566.427	25989.58
566.625	25889.23
566.824	25522.64
567.023	26079.69
567.222	25520.59
567.42	25917.9
567.619	25866.7
567.818	25805.26
568.016	25469.39
568.215	26048.97
568.414	25610.7
568.612	25868.75
568.811	25616.85
569.01	25528.78
569.208	25006.55
569.407	25453.01
569.605	24953.3
569.804	25385.43
570.002	25092.57
570.201	25178.58
570.4	24904.15
570.598	24928.73
570.797	25061.85
570.995	24713.69
571.193	24492.51
571.392	25065.94
571.59	24553.95
571.789	24547.81
571.987	24596.96
572.186	24365.54
572.384	24510.94
572.582	24275.43
572.781	24490.46
572.979	23972.33
573.177	24392.16
573.376	23988.71
573.574	23804.39
573.772	24332.77
573.971	23751.15
574.169	23699.95
574.367	23898.6
574.565	23960.04
574.763	23468.53
574.962	23781.87
575.16	23343.6
575.358	23355.89
575.556	23233.01
575.754	23378.42
575.952	23118.32
576.151	23124.47
576.349	22878.71
576.547	23048.69
576.745	23042.55
576.943	23022.07
577.141	22854.14
577.339	22972.92
577.537	22743.55
577.735	22716.92
577.933	22409.73
578.131	22751.74
578.329	22544.89
578.527	22331.9
578.725	22258.18
578.923	22516.22
579.121	22057.48
579.319	22333.95
579.516	22522.37
579.714	22073.86
579.912	22077.96
580.11	21932.55
580.308	22106.63
580.506	21864.97
580.704	21305.87
580.901	21441.04
581.099	21832.2
581.297	21430.8
581.495	21213.71
581.692	21752.33
581.89	21199.38
582.088	21537.29
582.285	20910.61
582.483	21395.98
582.681	21389.84
582.878	21398.03
583.076	20998.68
583.274	21303.82
583.471	20740.63
583.669	20677.15
583.866	20886.04
584.064	20916.76
584.262	20845.08
584.459	20984.34
584.657	20675.1
584.854	20613.66
585.052	20372
585.249	20781.59
585.447	20484.64
585.644	20345.37
585.841	20353.57
586.039	20597.28
586.236	20236.83
586.434	20085.28
586.631	19995.17
586.828	20056.61
587.026	19888.68
587.223	19794.47
587.42	20032.04
587.618	19923.49
587.815	19585.58
588.012	19307.05
588.21	19509.8
588.407	19604.01
588.604	19548.72
588.801	19311.15
588.999	19466.8
589.196	19274.29
589.393	19329.58
589.59	19601.96
589.787	19143.22
589.984	19087.92
590.182	18895.41
590.379	19044.91
590.576	18747.96
590.773	18868.79
590.97	18897.46
591.167	18823.73
591.364	18580.03
591.561	18567.74
591.758	18573.88
591.955	18489.92
592.152	18663.99
592.349	18547.26
592.546	18379.32
592.743	18403.9
592.94	18295.36
593.137	18246.21
593.334	18231.87
593.531	18014.79
593.727	18313.79
593.924	18004.55
594.121	17859.14
594.318	18014.79
594.515	17549.9
594.712	18133.57
594.908	17465.93
595.105	17881.67
595.302	17560.14
595.499	17662.54
595.696	17666.63
595.892	17572.43
596.089	17752.65
596.286	17410.64
596.482	17361.48
596.679	17398.35
596.876	17363.53
597.072	17035.86
597.269	17375.82
597.466	17218.13
597.662	17029.71
597.859	17068.62
598.055	17054.29
598.252	16917.08
598.448	16980.56
598.645	16826.96
598.841	16628.31
599.038	16628.31
599.234	16634.46
599.431	16560.73
599.627	16489.05
599.824	16767.57
600.02	16556.63
600.217	16396.89
600.413	16349.79
600.609	16530.01
600.806	16034.4
601.002	16515.67
601.198	16194.14
601.395	16058.98
601.591	16009.83
601.787	16282.2
601.984	16110.18
602.18	16286.3
602.376	15802.98
602.572	15798.88
602.769	15878.76
602.965	15385.19
603.161	15843.94
603.357	15647.33
603.553	15510.12
603.75	15624.81
603.946	15415.91
604.142	15411.82
604.338	15209.07
604.534	15172.21
604.73	14965.36
604.926	15401.58
605.122	15108.72
605.318	15014.51
605.514	14803.57
605.71	14819.96
605.906	14914.16
606.102	14944.88
606.298	14787.19
606.494	14752.37
606.69	14948.98
606.886	15008.37
607.082	14523
607.278	14756.47
607.474	14631.54
607.67	14627.45
607.866	14295.68
608.062	14576.25
608.257	14559.86
608.453	14654.07
608.649	14439.03
608.845	14191.23
609.041	14434.94
609.236	14576.25
609.432	14133.89
609.628	14219.9
609.824	14305.92
610.019	14264.96
610.215	14133.89
610.411	14447.22
610.606	14099.07
610.802	14068.35
610.998	14035.58
611.193	13996.67
611.389	13988.48
611.584	14152.32
611.78	13851.27
611.976	13951.62
612.171	13984.38
612.367	13947.52
612.562	13685.38
612.758	13554.31
612.953	13697.67
613.149	13728.39
613.344	13826.69
613.539	13972.1
613.735	13605.51
613.93	13648.52
614.126	13460.1
614.321	13533.83
614.517	13361.8
614.712	13326.99
614.907	13357.71
615.103	13318.79
615.298	13349.51
615.493	13453.96
615.688	13050.51
615.884	13562.5
616.079	13208.2
616.274	13341.32
616.47	13247.12
616.665	13191.82
616.86	12911.25
617.055	13261.45
617.25	13161.1
617.445	13027.98
617.641	12884.62
617.836	12935.82
618.031	12847.76
618.226	13027.98
618.421	12747.41
618.616	12833.43
618.811	12761.75
619.006	12722.84
619.201	12399.26
619.396	12587.67
619.591	12495.51
619.786	12479.13
619.981	12389.02
620.176	12472.98
620.371	12069.53
620.566	12202.65
620.761	11938.46
620.956	12397.21
621.151	12018.33
621.346	12020.38
621.541	11733.67
621.735	11993.76
621.93	11739.81
622.125	11956.89
622.32	11575.97
622.515	11895.46
622.709	11608.74
622.904	11498.15
623.099	11383.46
623.294	11469.48
623.488	11358.89
623.683	11365.03
623.878	11266.73
624.072	11121.32
624.267	11225.77
624.462	11057.84
624.656	10939.05
624.851	10822.32
625.046	10779.31
625.24	10730.16
625.435	10767.03
625.629	10906.29
625.824	10769.07
626.018	10662.58
626.213	10336.95
626.407	10394.29
626.602	10453.69
626.796	10416.82
626.991	10334.9
627.185	10144.44
627.38	10130.11
627.574	10169.02
627.768	10099.39
627.963	10152.63
628.157	9841.34
628.352	9845.44
628.546	9706.18
628.74	9939.65
628.935	9808.58
629.129	9710.27
629.323	9716.42
629.517	9558.72
629.712	9503.43
629.906	9476.8
630.1	9304.78
630.294	9366.21
630.489	9425.61
630.683	9462.47
630.877	9220.81
631.071	9222.86
631.265	9282.25
631.459	9054.92
631.653	9194.19
631.848	8891.09
632.042	8930
632.236	9054.92
632.43	8778.45
632.624	8913.61
632.818	8915.66
633.012	8647.38
633.206	8501.97
633.4	8882.89
633.594	8516.31
633.788	8377.05
633.982	8616.66
634.176	8422.1
634.369	8479.44
634.563	8497.88
634.757	8313.56
634.951	8356.57
635.145	8315.61
635.339	8418
635.533	8135.39
635.726	8065.75
635.92	8043.23
636.114	8008.41
636.308	7920.35
636.501	8041.18
636.695	7932.64
636.889	7944.92
637.083	7817.95
637.276	7772.89
637.47	7750.37
637.664	7584.48
637.857	7627.49
638.051	7604.96
638.244	7500.51
638.438	7508.71
638.632	7572.19
638.825	7459.56
639.019	7367.4
639.212	7240.42
639.406	7156.46
639.599	7430.88
639.793	7129.83
639.986	7176.94
640.18	7150.31
640.373	7166.7
640.567	7074.54
640.76	7154.41
640.954	6906.6
641.147	6943.47
641.34	6963.95
641.534	6990.57
641.727	7076.59
641.92	6902.51
642.114	6841.07
642.307	6740.72
642.5	6748.91
642.694	6585.07
642.887	6699.76
643.08	6648.56
643.273	6632.18
643.467	6542.07
643.66	6505.2
643.853	6531.83
644.046	6322.93
644.239	6511.35
644.432	6417.14
644.626	6187.77
644.819	6210.29
645.012	6345.46
645.205	6101.75
645.398	6114.04
645.591	6228.73
645.784	6087.42
645.977	6025.98
646.17	6038.27
646.363	5896.96
646.556	6007.55
646.749	5743.36
646.942	5909.24
647.135	5899
647.328	5708.54
647.521	5870.33
647.714	5778.17
647.907	5616.38
648.099	5577.47
648.292	5698.3
648.485	5708.54
648.678	5526.27
648.871	5460.74
649.064	5481.22
649.256	5427.97
649.449	5352.2
649.642	5344
649.835	5325.57
650.027	5341.96
650.22	5319.43
650.413	5294.85
650.605	5188.36
650.798	5116.68
650.991	5255.94
651.183	5036.81
651.376	5047.05
651.568	5223.17
651.761	5045
651.954	5051.14
652.146	5034.76
652.339	5032.71
652.531	4987.66
652.724	5051.14
652.916	4920.07
653.109	4934.41
653.301	4979.47
653.494	4975.37
653.686	4836.11
653.879	4711.18
654.071	4705.04
654.263	4764.43
654.456	4803.34
654.648	4760.33
654.84	4578.06
655.033	4496.14
655.225	4614.93
655.417	4688.65
655.61	4543.25
655.802	4582.16
655.994	4684.56
656.186	4459.28
656.379	4483.86
656.571	4391.7
656.763	4283.16
656.955	4317.97
657.148	4436.75
657.34	4272.92
657.532	4221.72
657.724	4238.1
657.916	4293.4
658.108	4109.08
658.3	4074.26
658.492	4098.84
658.684	4162.33
658.876	4100.89
659.068	4113.17
659.26	4086.55
659.452	3975.96
659.644	4104.98
659.836	3965.72
660.028	3988.25
660.22	3830.55
660.412	4092.69
660.604	3918.62
660.796	3889.95
660.988	3945.24
661.18	3896.09
661.372	3750.68
661.563	3783.45
661.755	3674.91
661.947	3877.66
662.139	3676.96
662.331	3803.93
662.522	3668.77
662.714	3697.44
662.906	3601.18
663.097	3734.3
663.289	3627.81
663.481	3504.93
663.673	3549.98
663.864	3558.18
664.056	3490.59
664.247	3543.84
664.439	3425.06
664.631	3498.78
664.822	3482.4
665.014	3341.09
665.205	3472.16
665.397	3357.47
665.588	3506.98
665.78	3336.99
665.971	3386.15
666.163	3380
666.354	3279.65
666.546	3322.66
666.737	3377.95
666.929	3246.88
667.12	3230.5
667.311	3095.33
667.503	3324.71
667.694	3273.51
667.885	3185.44
668.077	3169.06
668.268	3115.81
668.459	2992.94
668.651	3130.15
668.842	3060.52
669.033	3089.19
669.224	3103.53
669.416	2997.03
669.607	3021.61
669.798	2941.74
669.989	3050.28
670.18	2933.54
670.371	2951.98
670.563	3001.13
670.754	3070.76
670.945	2958.12
671.136	2984.74
671.327	2923.3
671.518	2968.36
671.709	2947.88
671.9	2820.91
672.091	2802.47
672.282	2945.83
672.473	2833.19
672.664	2870.06
672.855	2847.53
673.046	2681.64
673.237	2790.19
673.428	2759.47
673.619	2857.77
673.809	2845.48
674	2741.04
674.191	2741.04
674.382	2771.76
674.573	2818.86
674.764	2792.23
674.954	2603.82
675.145	2669.36
675.336	2698.03
675.527	2622.25
675.717	2671.4
675.908	2599.73
676.099	2628.4
676.289	2609.97
676.48	2513.71
676.671	2439.98
676.861	2573.1
677.052	2442.03
677.243	2560.81
677.433	2571.05
677.624	2599.73
677.814	2550.57
678.005	2564.91
678.195	2491.18
678.386	2427.7
678.576	2415.41
678.767	2401.07
678.957	2388.78
679.148	2491.18
679.338	2509.62
679.529	2405.17
679.719	2542.38
679.909	2452.27
680.1	2411.31
680.29	2380.59
680.481	2384.69
680.671	2399.02
680.861	2427.7
681.052	2423.6
681.242	2399.02
681.432	2429.74
681.622	2491.18
681.813	2323.25
682.003	2421.55
682.193	2315.06
682.383	2407.22
682.573	2476.85
682.764	2370.35
682.954	2366.26
683.144	2317.11
683.334	2372.4
683.524	2319.15
683.714	2306.87
683.904	2261.81
684.094	2290.48
684.284	2259.76
684.474	2169.65
684.664	2327.35
684.854	2337.59
685.044	2241.33
685.234	2124.6
685.424	2222.9
685.614	2243.38
685.804	2198.32
685.994	2186.04
686.184	2222.9
686.374	2249.52
686.564	2159.41
686.753	2233.14
686.943	2261.81
687.133	2200.37
687.323	2157.36
687.513	2171.7
687.702	2251.57
687.892	2216.76
688.082	2073.4
688.272	2165.56
688.461	2065.21
688.651	2227
688.841	2097.97
689.03	2044.73
689.22	2093.88
689.41	2208.56
689.599	2077.49
689.789	2145.08
689.979	2048.82
690.168	2057.01
690.358	1985.34
690.547	2061.11
690.737	2036.53
690.926	1981.24
691.116	1993.53
691.305	2161.46
691.495	2009.91
691.684	2071.35
691.874	1981.24
692.063	2003.77
692.252	2095.93
692.442	2014.01
692.631	2059.06
692.82	1948.47
693.01	2061.11
693.199	1985.34
693.388	1932.09
693.578	2065.21
693.767	1878.84
693.956	1983.29
694.146	2003.77
694.335	2022.2
694.524	2089.78
694.713	1983.29
694.902	2030.39
695.092	2009.91
695.281	1973.05
695.47	1917.75
695.659	1823.55
695.848	1971
696.037	1991.48
696.226	1966.9
696.415	1975.1
696.604	1887.03
696.793	1891.13
696.982	1927.99
697.171	1962.81
697.36	1819.45
697.549	1895.22
697.738	1977.14
697.927	1985.34
698.116	1942.33
698.305	1944.38
698.494	1860.41
698.683	1882.94
698.872	2014.01
699.061	1872.7
699.25	1876.79
699.438	2003.77
699.627	1882.94
699.816	1868.6
700.005	1708.86
700.193	1899.32
700.382	1917.75
700.571	1839.93
700.76	1927.99
700.948	1917.75
701.137	1917.75
701.326	1880.89
701.514	1788.73
701.703	1837.88
701.892	1940.28
702.08	1868.6
702.269	1932.09
702.457	1835.83
702.646	1927.99
702.834	1848.12
703.023	1823.55
703.212	1805.11
703.4	1911.61
703.589	1811.26
703.777	1774.39
703.965	1813.31
704.154	1829.69
704.342	1848.12
704.531	1739.58
704.719	1817.4
704.907	1813.31
705.096	1770.3
705.284	1751.87
705.472	1733.43
705.661	1706.81
705.849	1839.93
706.037	1807.16
706.226	1719.1
706.414	1786.68
706.602	1727.29
706.79	1907.51
706.979	1743.67
707.167	1741.63
707.355	1737.53
707.543	1741.63
707.731	1805.11
707.919	1794.87
708.107	1774.39
708.296	1794.87
708.484	1694.52
708.672	1762.11
708.86	1721.15
709.048	1667.9
709.236	1667.9
709.424	1729.34
709.612	1631.04
709.8	1719.1
709.988	1706.81
710.176	1508.16
710.364	1737.53
710.551	1739.58
710.739	1659.71
710.927	1674.04
711.115	1651.52
711.303	1710.91
711.491	1598.27
711.679	1581.89
711.866	1665.85
712.054	1706.81
712.242	1583.93
712.43	1518.4
712.617	1614.65
712.805	1663.8
712.993	1669.95
713.181	1549.12
713.368	1647.42
713.556	1628.99
713.744	1540.93
713.931	1590.08
714.119	1534.78
714.306	1626.94
714.494	1475.39
714.682	1542.97
714.869	1606.46
715.057	1643.32
715.244	1530.69
715.432	1604.41
715.619	1534.78
715.807	1516.35
715.994	1487.68
716.182	1477.44
716.369	1700.67
716.556	1536.83
716.744	1444.67
716.931	1446.72
717.119	1536.83
717.306	1530.69
717.493	1520.45
717.681	1551.17
717.868	1471.29
718.055	1350.46
718.242	1516.35
718.43	1422.14
718.617	1446.72
718.804	1493.82
718.991	1475.39
719.179	1362.75
719.366	1407.81
719.553	1530.69
719.74	1469.25
719.927	1381.18
720.114	1352.51
720.301	1299.27
720.488	1354.56
720.676	1272.64
720.863	1381.18
721.05	1348.42
721.237	1334.08
721.424	1323.84
721.611	1395.52
721.798	1313.6
721.985	1395.52
722.172	1352.51
722.358	1352.51
722.545	1358.66
722.732	1293.12
722.919	1354.56
723.106	1252.16
723.293	1370.94
723.48	1282.88
723.667	1309.51
723.853	1293.12
724.04	1325.89
724.227	1276.74
724.414	1254.21
724.6	1336.13
724.787	1284.93
724.974	1270.59
725.161	1332.03
725.347	1221.44
725.534	1239.87
725.72	1254.21
725.907	1256.26
726.094	1295.17
726.28	1217.35
726.467	1137.48
726.653	1186.63
726.84	1229.63
727.027	1276.74
727.213	1266.5
727.4	1254.21
727.586	1239.87
727.773	1139.52
727.959	1299.27
728.145	1196.87
728.332	1164.1
728.518	1176.39
728.705	1221.44
728.891	1178.44
729.077	1106.76
729.264	1117
729.45	1184.58
729.636	1225.54
729.823	1188.68
730.009	1141.57
730.195	1203.01
730.382	1250.11
730.568	1129.28
730.754	1157.96
730.94	1166.15
731.126	1127.24
731.313	1131.33
731.499	1137.48
731.685	1229.63
731.871	1131.33
732.057	1203.01
732.243	1151.81
732.429	1176.39
732.615	1119.04
732.801	1098.56
732.987	1213.25
733.173	1147.72
733.359	1117
733.545	1039.17
733.731	1151.81
733.917	1104.71
734.103	1217.35
734.289	1137.48
734.475	1203.01
734.661	1090.37
734.847	1114.95
735.033	1059.65
735.219	1037.13
735.404	1104.71
735.59	1080.13
735.776	938.82
735.962	1071.94
736.148	1016.65
736.333	1098.56
736.519	1043.27
736.705	1059.65
736.89	1104.71
737.076	1008.45
737.262	1012.55
737.447	959.3
737.633	1082.18
737.819	1020.74
738.004	1014.6
738.19	979.78
738.375	1049.41
738.561	985.93
738.747	1094.47
738.932	1004.36
739.118	930.63
739.303	981.83
739.489	985.93
739.674	1008.45
739.859	996.17
740.045	994.12
740.23	971.59
740.416	904.01
740.601	918.34
740.786	994.12
740.972	985.93
741.157	895.82
741.342	951.11
741.528	920.39
741.713	936.78
741.898	852.81
742.084	965.45
742.269	826.18
742.454	932.68
742.639	787.27
742.824	944.97
743.01	897.86
743.195	891.72
743.38	971.59
743.565	924.49
743.75	926.54
743.935	797.51
744.12	908.1
744.305	838.47
744.49	910.15
744.675	867.14
744.86	940.87
745.045	815.94
745.23	879.43
745.415	832.33
745.6	832.33
745.785	899.91
745.97	793.42
746.155	858.95
746.34	881.48
746.525	926.54
746.71	867.14
746.895	820.04
747.079	830.28
747.264	842.57
747.449	817.99
747.634	836.42
747.819	801.61
748.003	785.23
748.188	781.13
748.373	756.55
748.557	709.45
748.742	777.03
748.927	744.27
749.111	820.04
749.296	740.17
749.481	729.93
749.665	719.69
749.85	764.75
750.034	768.84
750.219	750.41
750.404	762.7
750.588	717.64
750.773	643.92
750.957	670.54
751.141	688.97
751.326	762.7
751.51	774.99
751.695	762.7
751.879	645.96
752.064	662.35
752.248	693.07
752.432	705.35
752.617	721.74
752.801	676.68
752.985	658.25
753.17	623.44
753.354	564.04
753.538	670.54
753.722	701.26
753.907	627.53
754.091	654.16
754.275	641.87
754.459	605
754.643	699.21
754.828	652.11
755.012	631.63
755.196	576.33
755.38	584.52
755.564	516.94
755.748	631.63
755.932	605
756.116	627.53
756.3	598.86
756.484	621.39
756.668	516.94
756.852	502.61
757.036	555.85
757.22	588.62
757.404	516.94
757.588	529.23
757.772	592.72
757.956	535.37
758.14	475.98
758.323	514.89
758.507	494.41
758.691	549.71
758.875	537.42
759.059	480.08
759.242	514.89
759.426	580.43
759.61	492.37
759.794	510.8
759.977	527.18
760.161	525.13
760.345	572.24
760.528	432.97
760.712	447.31
760.895	428.88
761.079	543.57
761.263	512.85
761.446	451.41
761.63	492.37
761.813	475.98
761.997	394.06
762.18	551.76
762.364	510.8
762.547	418.64
762.731	523.09
762.914	428.88
763.098	480.08
763.281	549.71
763.464	455.5
763.648	521.04
763.831	461.65
764.015	408.4
764.198	428.88
764.381	447.31
764.564	453.45
764.748	506.7
764.931	492.37
765.114	482.13
765.297	353.1
765.481	410.45
765.664	410.45
765.847	490.32
766.03	480.08
766.213	455.5
766.397	486.22
766.58	508.75
766.763	535.37
766.946	344.91
767.129	430.93
767.312	426.83
767.495	430.93
767.678	492.37
767.861	353.1
768.044	441.17
768.227	437.07
768.41	455.5
768.593	410.45
768.776	445.26
768.959	385.87
769.142	406.35
769.324	428.88
769.507	398.16
769.69	404.3
769.873	410.45
770.056	455.5
770.239	473.93
770.421	402.26
770.604	447.31
770.787	404.3
770.97	459.6
771.152	410.45
771.335	330.58
771.518	385.87
771.7	385.87
771.883	447.31
772.066	320.34
772.248	443.21
772.431	377.68
772.613	404.3
772.796	340.82
772.978	365.39
773.161	351.06
773.343	414.54
773.526	361.3
773.708	334.67
773.891	258.9
774.073	351.06
774.256	342.86
774.438	375.63
774.621	330.58
774.803	402.26
774.985	291.66
775.168	373.58
775.35	349.01
775.532	383.82
775.715	338.77
775.897	291.66
776.079	322.38
776.261	338.77
776.444	299.86
776.626	262.99
776.808	293.71
776.99	330.58
777.173	285.52
777.355	267.09
777.537	289.62
777.719	326.48
777.901	240.47
778.083	336.72
778.265	318.29
778.447	351.06
778.629	299.86
778.811	308.05
778.993	326.48
779.175	293.71
779.357	277.33
779.539	283.47
779.721	258.9
779.903	277.33
780.085	291.66
780.267	283.47
780.449	193.36
780.631	320.34
780.812	361.3
780.994	281.43
781.176	238.42
781.358	260.95
781.54	287.57
781.721	277.33
781.903	250.71
782.085	275.28
782.267	297.81
782.448	248.66
782.63	162.64
782.812	189.27
782.993	295.76
783.175	240.47
783.357	150.36
783.538	250.71
783.72	258.9
783.901	271.19
784.083	156.5
784.264	232.27
784.446	215.89
784.627	211.79
784.809	238.42
784.99	277.33
785.172	281.43
785.353	219.99
785.535	226.13
785.716	181.07
785.897	195.41
786.079	164.69
786.26	226.13
786.441	230.23
786.623	205.65
786.804	162.64
786.985	164.69
787.167	168.79
787.348	144.21
787.529	158.55
787.71	252.75
787.891	168.79
788.073	156.5
788.254	88.92
788.435	224.08
788.616	197.46
788.797	152.4
788.978	160.59
789.159	181.07
789.34	148.31
789.522	174.93
789.703	205.65
789.884	193.36
790.065	203.6
790.246	181.07
790.427	172.88
790.607	148.31
790.788	164.69
790.969	148.31
791.15	170.83
791.331	152.4
791.512	201.55
791.693	84.82
791.874	215.89
792.054	156.5
792.235	195.41
792.416	113.49
792.597	138.07
792.778	181.07
792.958	95.06
793.139	164.69
793.32	82.77
793.5	93.01
793.681	179.03
793.862	121.68
794.042	162.64
794.223	142.16
794.404	129.88
794.584	103.25
794.765	113.49
794.945	140.12
795.126	113.49
795.306	119.64
795.487	109.4
795.667	179.03
795.848	129.88
796.028	146.26
796.209	78.68
796.389	121.68
796.57	158.55
796.75	47.96
796.93	195.41
797.111	33.62
797.291	99.16
797.471	133.97
797.652	88.92
797.832	172.88
798.012	95.06
798.192	99.16
798.373	121.68
798.553	123.73
798.733	60.24
798.913	56.15
799.093	209.75
799.274	140.12
799.454	168.79
799.634	109.4
799.814	150.36
799.994	0.85
800.174	150.36
800.354	90.96
800.534	125.78
800.714	74.58
800.894	80.72
801.074	74.58
801.254	84.82
801.434	52.05
801.614	70.48
801.794	60.24
801.974	338.77
802.154	88.92
802.334	146.26
802.514	-23.72
802.693	99.16
802.873	86.87
803.053	179.03
803.233	97.11
803.413	119.64
803.592	123.73
803.772	80.72
803.952	74.58
804.131	121.68
804.311	93.01
804.491	68.44
804.67	78.68
804.85	21.33
805.03	60.24
805.209	144.21
805.389	-3.24
805.568	117.59
805.748	72.53
805.928	129.88
806.107	88.92
806.287	140.12
806.466	39.76
806.646	99.16
806.825	107.35
807.004	47.96
807.184	105.3
807.363	54.1
807.543	47.96
807.722	72.53
807.901	70.48
808.081	64.34
808.26	84.82
808.439	39.76
808.619	33.62
808.798	99.16
808.977	58.2
809.156	97.11
809.336	54.1
809.515	125.78
809.694	66.39
809.873	27.48
810.052	62.29
810.231	113.49
810.411	0.85
810.59	93.01
810.769	62.29
810.948	66.39
811.127	-42.15
811.306	54.1
811.485	70.48
811.664	35.67
811.843	109.4
812.022	121.68
812.201	66.39
812.38	58.2
812.559	29.52
812.737	68.44
812.916	99.16
813.095	-13.48
813.274	25.43
813.453	56.15
813.632	70.48
813.811	-3.24
813.989	33.62
814.168	101.2
814.347	52.05
814.526	123.73
814.704	62.29
814.883	84.82
815.062	33.62
815.24	62.29
815.419	27.48
815.598	93.01
815.776	78.68
815.955	-3.24
816.133	109.4
816.312	27.48
816.49	39.76
816.669	50
816.847	90.96
817.026	60.24
817.204	29.52
817.383	43.86
817.561	76.63
817.74	19.29
817.918	-42.15
818.097	62.29
818.275	99.16
818.453	54.1
818.632	-1.19
818.81	97.11
818.988	13.14
819.167	88.92
819.345	2.9
819.523	-23.72
819.701	60.24
819.879	15.19
820.058	64.34
820.236	41.81
820.414	47.96
820.592	54.1
820.77	31.57
820.948	15.19
821.127	13.14
821.305	60.24
821.483	29.52
821.661	23.38
821.839	-9.39
822.017	35.67
822.195	80.72
822.373	33.62
822.551	13.14
822.729	-36.01
822.907	0.85
823.085	4.95
823.262	41.81
823.44	115.54
823.618	4.95
823.796	39.76
823.974	64.34
824.152	54.1
824.329	45.91
824.507	11.09
824.685	-21.67
824.863	43.86
825.04	50
825.218	-21.67
825.396	-15.53
825.574	4.95
825.751	15.19
825.929	78.68
826.107	68.44
826.284	41.81
826.462	13.14
826.639	2.9
826.817	23.38
826.994	50
827.172	23.38
827.349	33.62
827.527	43.86
827.704	54.1
827.882	-25.77
828.059	50
828.237	72.53
828.414	-19.63
828.591	82.77
828.769	99.16
828.946	70.48
829.124	7
829.301	72.53
829.478	68.44
829.655	2.9
829.833	33.62
830.01	41.81
830.187	33.62
830.364	43.86
830.542	-29.87
830.719	41.81
830.896	43.86
831.073	15.19
831.25	7
831.427	-1.19
831.604	15.19
831.782	-36.01
831.959	70.48
832.136	43.86
832.313	21.33
832.49	27.48
832.667	66.39
832.844	-13.48
833.021	-5.29
833.198	-36.01
833.374	-9.39
833.551	17.24
833.728	17.24
833.905	70.48
834.082	33.62
834.259	43.86
834.436	50
834.612	-15.53
834.789	41.81
834.966	25.43
835.143	25.43
835.319	9.05
835.496	4.95
835.673	2.9
835.85	-1.19
836.026	-7.34
836.203	9.05
836.38	-3.24
836.556	15.19
836.733	29.52
836.909	-1.19
837.086	-38.06
837.262	39.76
837.439	-23.72
837.616	60.24
837.792	29.52
837.968	107.35
838.145	17.24
838.321	86.87
838.498	-40.11
838.674	13.14
838.851	-5.29
839.027	-7.34
839.203	29.52
839.38	54.1
839.556	-7.34
839.732	41.81
839.909	-42.15
840.085	-15.53
840.261	-7.34
840.437	29.52
840.614	45.91
840.79	-9.39
840.966	43.86
841.142	37.72
841.318	35.67
841.494	-11.43
841.671	58.2
841.847	11.09
842.023	-9.39
842.199	39.76
842.375	29.52
842.551	0.85
842.727	-81.07
842.903	-9.39
843.079	-27.82
843.255	4.95
843.431	-21.67
843.607	35.67
843.783	-31.91
843.959	113.49
844.134	52.05
844.31	-29.87
844.486	11.09
844.662	11.09
844.838	-9.39
845.013	19.29
845.189	-7.34
845.365	-7.34
845.541	-87.21
845.716	-7.34
845.892	-21.67
846.068	56.15
846.244	29.52
846.419	-15.53
846.595	-1.19
846.77	-25.77
846.946	74.58
847.122	25.43
847.297	-60.59
847.473	-5.29
847.648	-29.87
847.824	25.43
847.999	-70.83
848.175	-13.48
848.35	-11.43
848.526	43.86
848.701	70.48
848.876	-15.53
849.052	11.09
849.227	0.85
849.403	-17.58
849.578	-27.82
849.753	25.43
849.929	-1.19
850.104	86.87
850.279	31.57
850.454	-21.67
850.63	-46.25
850.805	-29.87
850.98	21.33
851.155	17.24
851.33	19.29
851.505	-72.87
851.681	-11.43
851.856	23.38
852.031	-91.31
852.206	15.19
852.381	47.96
852.556	52.05
852.731	-54.44
852.906	33.62
853.081	113.49
853.256	-64.68
853.431	-7.34
853.606	50
853.781	41.81
853.956	-48.3
854.131	21.33
854.305	31.57
854.48	-21.67
854.655	56.15
854.83	19.29
855.005	-13.48
855.18	21.33
855.354	27.48
855.529	27.48
855.704	-25.77
855.879	62.29
856.053	-7.34
856.228	21.33
856.403	-27.82
856.577	52.05
856.752	21.33
856.926	11.09
857.101	-7.34
857.276	27.48
857.45	-101.55
857.625	-19.63
857.799	-44.2
857.974	19.29
858.148	-3.24
858.323	-7.34
858.497	9.05
858.672	13.14
858.846	31.57
859.02	-48.3
859.195	-44.2
859.369	-15.53
859.543	-56.49
859.718	-81.07
859.892	13.14
860.066	7
860.241	21.33
860.415	39.76
860.589	-56.49
860.763	-15.53
860.938	-48.3
861.112	7
861.286	-54.44
861.46	-48.3
861.634	-3.24
861.808	13.14
861.982	-44.2
862.157	-31.91
862.331	-95.4
862.505	-13.48
862.679	25.43
862.853	52.05
863.027	-87.21
863.201	25.43
863.375	-23.72
863.549	2.9
863.722	11.09
863.896	-85.16
864.07	21.33
864.244	0.85
864.418	-33.96
864.592	-15.53
864.766	-23.72
864.939	-38.06
865.113	0.85
865.287	-15.53
865.461	-31.91
865.634	-15.53
865.808	-36.01
865.982	-33.96
866.156	-48.3
866.329	-17.58
866.503	62.29
866.676	-27.82
866.85	-56.49
867.024	0.85
867.197	-23.72
867.371	7
867.544	31.57
867.718	9.05
867.891	-3.24
868.065	21.33
868.238	74.58
868.412	76.63
868.585	-44.2
868.759	19.29
868.932	0.85
869.105	-44.2
869.279	-7.34
869.452	0.85
869.625	-52.39
869.799	11.09
869.972	29.52
870.145	-7.34
870.319	-52.39
870.492	7
870.665	-25.77
870.838	-87.21
871.011	-52.39
871.185	-25.77
871.358	4.95
871.531	-70.83
871.704	35.67
871.877	-7.34
872.05	-33.96
872.223	-54.44
872.396	15.19
872.569	-101.55
872.742	0.85
872.915	2.9
873.088	52.05
873.261	-56.49
873.434	7
873.607	4.95
873.78	-36.01
873.953	-21.67
874.126	-42.15
874.299	2.9
874.471	-17.58
874.644	54.1
874.817	-38.06
874.99	-5.29
875.163	-31.91
875.335	13.14
875.508	13.14
875.681	17.24
875.853	41.81
876.026	23.38
876.199	27.48
876.371	-5.29
876.544	-13.48
876.717	-40.11
876.889	7
877.062	31.57
877.234	-7.34
877.407	-19.63
877.579	-11.43
877.752	-29.87
877.924	-15.53
878.097	-13.48
878.269	33.62
878.442	-70.83
878.614	-11.43
878.786	2.9
878.959	-48.3
879.131	31.57
879.303	-1.19
879.476	-54.44
879.648	-27.82
879.82	-13.48
879.993	-62.63
880.165	-42.15
880.337	-72.87
880.509	31.57
880.681	-7.34
880.854	33.62
881.026	-25.77
881.198	35.67
881.37	19.29
881.542	-33.96
881.714	-36.01
881.886	37.72
882.058	-36.01
882.23	0.85
882.402	4.95
882.574	37.72
882.746	-27.82
882.918	56.15
883.09	-15.53
883.262	15.19
883.434	-15.53
883.606	-68.78
883.778	4.95
883.95	15.19
884.122	-29.87
884.293	-29.87
884.465	23.38
884.637	-66.73
884.809	-85.16
884.98	23.38
885.152	-25.77
885.324	13.14
885.496	-50.35
885.667	0.85
885.839	-105.64
886.011	-25.77
886.182	13.14
886.354	-15.53
886.525	-42.15
886.697	-54.44
886.869	23.38
887.04	-40.11
887.212	11.09
887.383	37.72
887.555	-50.35
887.726	-21.67
887.897	-70.83
888.069	23.38
888.24	58.2
888.412	-40.11
888.583	-83.11
888.754	-79.02
888.926	-50.35
889.097	-11.43
889.268	-15.53
889.44	0.85
889.611	-72.87
889.782	33.62
889.953	-29.87
890.125	-40.11
890.296	-74.92
890.467	23.38
890.638	-36.01
890.809	9.05
890.98	-85.16
891.151	-50.35
891.323	11.09
891.494	-25.77
891.665	-58.54
891.836	25.43
892.007	-58.54
892.178	-62.63
892.349	-11.43
892.52	23.38
892.691	-23.72
892.862	-19.63
893.032	-42.15
893.203	-54.44
893.374	-33.96
893.545	33.62
893.716	-15.53
893.887	-33.96
894.057	-19.63
894.228	-7.34
894.399	-25.77
894.57	50
894.74	-46.25
894.911	-11.43
895.082	19.29
895.253	-11.43
895.423	-3.24
895.594	-46.25
895.764	-42.15
895.935	-11.43
896.106	-68.78
896.276	19.29
896.447	-58.54
896.617	-15.53
896.788	7
896.958	-60.59
897.129	-11.43
897.299	-29.87
897.47	-29.87
897.64	31.57
897.81	-66.73
897.981	-44.2
898.151	7
898.322	50
898.492	-19.63
898.662	-11.43
898.832	58.2
899.003	31.57
899.173	-91.31
899.343	-85.16
899.513	-5.29
