Data from USB4F104151__75__13-54-07-733.txt Node

Date: Thu Mar 13 13:54:07 EDT 2025
User: louis
Spectrometer: USB4F10415
Trigger mode: 4
Integration Time (sec): 1.000000E-2
Scans to average: 1
Electric dark correction enabled: true
Nonlinearity correction enabled: false
Boxcar width: 0
XAxis mode: Wavelengths
Number of Pixels in Spectrum: 3648
>>>>>Begin Spectral Data<<<<<
178.204	-26.96
178.424	-26.96
178.644	-26.96
178.864	-63.83
179.084	11.95
179.304	-20.82
179.524	-31.06
179.744	-4.44
179.964	-37.2
180.184	-8.53
180.404	26.28
180.624	22.19
180.844	-18.77
181.064	36.52
181.283	-24.92
181.503	46.76
181.723	13.99
181.943	-12.63
182.163	32.43
182.383	38.57
182.602	40.62
182.822	63.15
183.042	97.96
183.262	9.9
183.482	34.47
183.701	9.9
183.921	9.9
184.141	-4.44
184.361	54.95
184.58	-6.49
184.8	-37.2
185.02	-6.49
185.239	22.19
185.459	73.39
185.679	71.34
185.898	-43.35
186.118	52.91
186.338	38.57
186.557	69.29
186.777	-35.16
186.997	5.8
187.216	22.19
187.436	73.39
187.655	28.33
187.875	9.9
188.095	-10.58
188.314	16.04
188.534	-29.01
188.753	134.82
188.973	-22.87
189.192	20.14
189.412	7.85
189.631	52.91
189.851	-57.68
190.07	-18.77
190.29	-6.49
190.509	89.77
190.729	24.23
190.948	52.91
191.168	9.9
191.387	26.28
191.607	-14.68
191.826	22.19
192.045	-10.58
192.265	24.23
192.484	38.57
192.704	106.15
192.923	32.43
193.142	44.71
193.362	40.62
193.581	-6.49
193.8	-86.36
194.02	-80.21
194.239	40.62
194.458	11.95
194.678	18.09
194.897	5.8
195.116	50.86
195.335	9.9
195.555	-0.34
195.774	57
195.993	-12.63
196.212	3.75
196.432	7.85
196.651	85.67
196.87	42.67
197.089	63.15
197.308	22.19
197.528	-14.68
197.747	54.95
197.966	-4.44
198.185	30.38
198.404	108.2
198.623	-33.11
198.842	79.53
199.062	18.09
199.281	18.09
199.5	22.19
199.719	1.71
199.938	13.99
200.157	52.91
200.376	79.53
200.595	61.1
200.814	-10.58
201.033	-0.34
201.252	-0.34
201.471	34.47
201.69	104.11
201.909	11.95
202.128	24.23
202.347	75.43
202.566	3.75
202.785	-6.49
203.004	38.57
203.223	13.99
203.442	-6.49
203.661	-31.06
203.879	30.38
204.098	7.85
204.317	-20.82
204.536	24.23
204.755	-16.73
204.974	18.09
205.193	3.75
205.411	28.33
205.63	1.71
205.849	5.8
206.068	59.05
206.287	5.8
206.505	13.99
206.724	7.85
206.943	-33.11
207.162	13.99
207.381	61.1
207.599	9.9
207.818	30.38
208.037	42.67
208.255	22.19
208.474	16.04
208.693	46.76
208.911	-45.4
209.13	-2.39
209.349	1.71
209.567	28.33
209.786	5.8
210.005	32.43
210.223	-26.96
210.442	40.62
210.661	50.86
210.879	-47.44
211.098	-43.35
211.316	34.47
211.535	-18.77
211.753	-10.58
211.972	89.77
212.191	-24.92
212.409	-12.63
212.628	26.28
212.846	-31.06
213.065	-63.83
213.283	81.58
213.502	34.47
213.72	16.04
213.938	-35.16
214.157	32.43
214.375	63.15
214.594	26.28
214.812	40.62
215.031	54.95
215.249	-35.16
215.467	69.29
215.686	-6.49
215.904	18.09
216.122	30.38
216.341	-61.78
216.559	81.58
216.778	52.91
216.996	1.71
217.214	3.75
217.432	5.8
217.651	13.99
217.869	73.39
218.087	36.52
218.306	9.9
218.524	28.33
218.742	-26.96
218.96	54.95
219.179	3.75
219.397	48.81
219.615	67.24
219.833	-55.64
220.051	-51.54
220.27	85.67
220.488	3.75
220.706	50.86
220.924	-51.54
221.142	48.81
221.36	38.57
221.578	44.71
221.796	-24.92
222.015	46.76
222.233	36.52
222.451	34.47
222.669	-16.73
222.887	7.85
223.105	20.14
223.323	26.28
223.541	-0.34
223.759	100.01
223.977	16.04
224.195	-47.44
224.413	-41.3
224.631	-33.11
224.849	-43.35
225.067	28.33
225.285	-14.68
225.503	73.39
225.721	-69.97
225.939	9.9
226.157	28.33
226.375	104.11
226.592	3.75
226.81	9.9
227.028	24.23
227.246	52.91
227.464	57
227.682	59.05
227.9	-4.44
228.117	-12.63
228.335	42.67
228.553	108.2
228.771	40.62
228.989	3.75
229.206	-4.44
229.424	-10.58
229.642	50.86
229.86	77.48
230.077	-18.77
230.295	63.15
230.513	5.8
230.731	81.58
230.948	-2.39
231.166	46.76
231.384	-10.58
231.601	36.52
231.819	20.14
232.037	40.62
232.254	18.09
232.472	-6.49
232.689	-10.58
232.907	46.76
233.125	59.05
233.342	38.57
233.56	52.91
233.777	34.47
233.995	28.33
234.213	22.19
234.43	48.81
234.648	32.43
234.865	91.82
235.083	-31.06
235.3	-31.06
235.518	42.67
235.735	40.62
235.953	100.01
236.17	57
236.388	50.86
236.605	71.34
236.822	24.23
237.04	-8.53
237.257	16.04
237.475	67.24
237.692	-55.64
237.909	28.33
238.127	16.04
238.344	50.86
238.562	44.71
238.779	-61.78
238.996	18.09
239.214	50.86
239.431	50.86
239.648	24.23
239.865	61.1
240.083	-33.11
240.3	48.81
240.517	-12.63
240.735	24.23
240.952	16.04
241.169	44.71
241.386	16.04
241.603	30.38
241.821	-20.82
242.038	-29.01
242.255	13.99
242.472	22.19
242.689	79.53
242.907	20.14
243.124	-2.39
243.341	22.19
243.558	-45.4
243.775	-4.44
243.992	-76.12
244.209	67.24
244.426	81.58
244.643	-33.11
244.86	11.95
245.078	-37.2
245.295	32.43
245.512	3.75
245.729	32.43
245.946	-14.68
246.163	20.14
246.38	-10.58
246.597	124.58
246.814	81.58
247.031	-43.35
247.248	-14.68
247.464	5.8
247.681	61.1
247.898	30.38
248.115	3.75
248.332	30.38
248.549	75.43
248.766	16.04
248.983	67.24
249.2	-37.2
249.417	-41.3
249.633	93.87
249.85	57
250.067	-20.82
250.284	18.09
250.501	-31.06
250.717	-2.39
250.934	30.38
251.151	44.71
251.368	-74.07
251.585	7.85
251.801	-0.34
252.018	52.91
252.235	52.91
252.451	32.43
252.668	22.19
252.885	-39.25
253.102	28.33
253.318	9.9
253.535	-12.63
253.752	77.48
253.968	9.9
254.185	-53.59
254.401	57
254.618	11.95
254.835	38.57
255.051	11.95
255.268	-12.63
255.484	-14.68
255.701	24.23
255.917	63.15
256.134	32.43
256.351	34.47
256.567	11.95
256.784	63.15
257	63.15
257.217	-35.16
257.433	5.8
257.65	46.76
257.866	-0.34
258.082	-41.3
258.299	18.09
258.515	116.39
258.732	13.99
258.948	34.47
259.165	108.2
259.381	-12.63
259.597	54.95
259.814	-26.96
260.03	16.04
260.246	-10.58
260.463	65.19
260.679	-45.4
260.895	-22.87
261.112	-18.77
261.328	22.19
261.544	67.24
261.761	-22.87
261.977	3.75
262.193	-20.82
262.409	5.8
262.626	11.95
262.842	52.91
263.058	32.43
263.274	5.8
263.49	-45.4
263.707	3.75
263.923	9.9
264.139	-0.34
264.355	-20.82
264.571	32.43
264.787	65.19
265.004	13.99
265.22	-22.87
265.436	40.62
265.652	44.71
265.868	-22.87
266.084	-4.44
266.3	-47.44
266.516	-2.39
266.732	-39.25
266.948	-20.82
267.164	52.91
267.38	-6.49
267.596	97.96
267.812	42.67
268.028	54.95
268.244	-72.02
268.46	32.43
268.676	-29.01
268.892	-4.44
269.108	3.75
269.324	-22.87
269.54	52.91
269.756	38.57
269.972	1.71
270.188	79.53
270.403	-4.44
270.619	59.05
270.835	65.19
271.051	59.05
271.267	20.14
271.483	7.85
271.698	73.39
271.914	40.62
272.13	-0.34
272.346	20.14
272.562	5.8
272.777	-14.68
272.993	-43.35
273.209	65.19
273.425	71.34
273.64	97.96
273.856	116.39
274.072	-51.54
274.287	24.23
274.503	38.57
274.719	-20.82
274.934	108.2
275.15	22.19
275.366	44.71
275.581	-18.77
275.797	54.95
276.012	5.8
276.228	28.33
276.444	79.53
276.659	30.38
276.875	36.52
277.09	-4.44
277.306	-8.53
277.521	-22.87
277.737	-0.34
277.952	-8.53
278.168	-16.73
278.383	73.39
278.599	3.75
278.814	50.86
279.03	-33.11
279.245	61.1
279.461	1.71
279.676	24.23
279.892	59.05
280.107	-16.73
280.322	-8.53
280.538	18.09
280.753	52.91
280.969	71.34
281.184	13.99
281.399	40.62
281.615	3.75
281.83	1.71
282.045	-22.87
282.26	36.52
282.476	61.1
282.691	-35.16
282.906	34.47
283.122	108.2
283.337	57
283.552	28.33
283.767	-24.92
283.983	-22.87
284.198	24.23
284.413	34.47
284.628	-33.11
284.843	20.14
285.058	26.28
285.274	3.75
285.489	-12.63
285.704	-4.44
285.919	28.33
286.134	89.77
286.349	20.14
286.564	18.09
286.779	50.86
286.995	69.29
287.21	77.48
287.425	7.85
287.64	44.71
287.855	9.9
288.07	22.19
288.285	38.57
288.5	16.04
288.715	75.43
288.93	-12.63
289.145	16.04
289.36	-6.49
289.575	5.8
289.79	-10.58
290.004	69.29
290.219	42.67
290.434	16.04
290.649	77.48
290.864	40.62
291.079	-39.25
291.294	59.05
291.509	-6.49
291.724	-45.4
291.938	61.1
292.153	69.29
292.368	-31.06
292.583	32.43
292.798	59.05
293.012	46.76
293.227	5.8
293.442	57
293.657	-10.58
293.871	18.09
294.086	57
294.301	85.67
294.516	-4.44
294.73	48.81
294.945	38.57
295.16	13.99
295.374	54.95
295.589	65.19
295.804	-41.3
296.018	5.8
296.233	-41.3
296.447	13.99
296.662	-26.96
296.877	91.82
297.091	24.23
297.306	-26.96
297.52	22.19
297.735	32.43
297.949	40.62
298.164	16.04
298.378	9.9
298.593	34.47
298.807	24.23
299.022	26.28
299.236	7.85
299.451	-29.01
299.665	5.8
299.88	18.09
300.094	40.62
300.309	83.63
300.523	42.67
300.737	50.86
300.952	16.04
301.166	75.43
301.381	13.99
301.595	112.3
301.809	48.81
302.024	-6.49
302.238	46.76
302.452	18.09
302.667	44.71
302.881	46.76
303.095	38.57
303.309	22.19
303.524	22.19
303.738	3.75
303.952	13.99
304.166	48.81
304.381	22.19
304.595	61.1
304.809	5.8
305.023	38.57
305.237	28.33
305.452	16.04
305.666	-14.68
305.88	22.19
306.094	11.95
306.308	67.24
306.522	20.14
306.736	57
306.95	44.71
307.164	87.72
307.379	24.23
307.593	-72.02
307.807	38.57
308.021	28.33
308.235	-4.44
308.449	-14.68
308.663	-29.01
308.877	1.71
309.091	-16.73
309.305	44.71
309.519	30.38
309.733	57
309.947	71.34
310.161	57
310.374	13.99
310.588	20.14
310.802	77.48
311.016	-14.68
311.23	-24.92
311.444	-0.34
311.658	3.75
311.872	69.29
312.085	-20.82
312.299	-2.39
312.513	5.8
312.727	-0.34
312.941	9.9
313.154	114.34
313.368	22.19
313.582	7.85
313.796	18.09
314.009	-20.82
314.223	9.9
314.437	-10.58
314.651	-2.39
314.864	-43.35
315.078	100.01
315.292	73.39
315.505	-4.44
315.719	-4.44
315.933	30.38
316.146	30.38
316.36	5.8
316.573	61.1
316.787	3.75
317.001	77.48
317.214	36.52
317.428	52.91
317.641	-53.59
317.855	18.09
318.068	16.04
318.282	44.71
318.495	30.38
318.709	138.92
318.922	-26.96
319.136	91.82
319.349	20.14
319.563	67.24
319.776	-31.06
319.99	44.71
320.203	9.9
320.417	16.04
320.63	-16.73
320.843	11.95
321.057	89.77
321.27	-0.34
321.483	-4.44
321.697	-8.53
321.91	40.62
322.124	42.67
322.337	30.38
322.55	16.04
322.763	18.09
322.977	-18.77
323.19	-33.11
323.403	24.23
323.617	89.77
323.83	46.76
324.043	16.04
324.256	13.99
324.469	-0.34
324.683	46.76
324.896	-0.34
325.109	9.9
325.322	11.95
325.535	11.95
325.748	50.86
325.962	22.19
326.175	-37.2
326.388	30.38
326.601	69.29
326.814	38.57
327.027	32.43
327.24	18.09
327.453	-12.63
327.666	-24.92
327.879	5.8
328.092	67.24
328.305	-12.63
328.518	32.43
328.731	36.52
328.944	40.62
329.157	-0.34
329.37	40.62
329.583	65.19
329.796	44.71
330.009	11.95
330.222	44.71
330.435	50.86
330.648	28.33
330.861	42.67
331.073	-22.87
331.286	52.91
331.499	-49.49
331.712	18.09
331.925	20.14
332.138	32.43
332.35	69.29
332.563	87.72
332.776	-4.44
332.989	-16.73
333.202	36.52
333.414	34.47
333.627	75.43
333.84	-35.16
334.053	42.67
334.265	30.38
334.478	50.86
334.691	59.05
334.903	30.38
335.116	1.71
335.329	65.19
335.541	73.39
335.754	24.23
335.966	65.19
336.179	73.39
336.392	83.63
336.604	52.91
336.817	83.63
337.029	20.14
337.242	7.85
337.454	-29.01
337.667	-39.25
337.88	-29.01
338.092	13.99
338.305	-12.63
338.517	28.33
338.729	11.95
338.942	57
339.154	44.71
339.367	-0.34
339.579	5.8
339.792	54.95
340.004	143.02
340.217	-26.96
340.429	75.43
340.641	1.71
340.854	32.43
341.066	-10.58
341.278	1.71
341.491	97.96
341.703	-4.44
341.915	-0.34
342.128	-53.59
342.34	-12.63
342.552	59.05
342.764	40.62
342.977	38.57
343.189	-24.92
343.401	54.95
343.613	20.14
343.826	36.52
344.038	22.19
344.25	-31.06
344.462	13.99
344.674	1.71
344.886	65.19
345.099	-4.44
345.311	24.23
345.523	50.86
345.735	77.48
345.947	-22.87
346.159	28.33
346.371	7.85
346.583	18.09
346.795	63.15
347.007	71.34
347.219	-18.77
347.431	-18.77
347.643	-20.82
347.855	-2.39
348.067	32.43
348.279	-4.44
348.491	48.81
348.703	40.62
348.915	71.34
349.127	7.85
349.339	-4.44
349.551	1.71
349.763	57
349.975	-24.92
350.187	50.86
350.399	1.71
350.61	34.47
350.822	32.43
351.034	79.53
351.246	-16.73
351.458	26.28
351.669	30.38
351.881	9.9
352.093	-2.39
352.305	18.09
352.517	16.04
352.728	83.63
352.94	-24.92
353.152	71.34
353.363	-22.87
353.575	20.14
353.787	16.04
353.999	36.52
354.21	-26.96
354.422	59.05
354.633	52.91
354.845	-12.63
355.057	-8.53
355.268	46.76
355.48	110.25
355.692	20.14
355.903	32.43
356.115	44.71
356.326	48.81
356.538	61.1
356.749	-6.49
356.961	5.8
357.172	42.67
357.384	106.15
357.595	46.76
357.807	32.43
358.018	67.24
358.23	61.1
358.441	-4.44
358.653	28.33
358.864	13.99
359.075	26.28
359.287	-10.58
359.498	18.09
359.709	32.43
359.921	34.47
360.132	28.33
360.344	18.09
360.555	28.33
360.766	36.52
360.977	-0.34
361.189	77.48
361.4	-41.3
361.611	-4.44
361.823	26.28
362.034	52.91
362.245	-12.63
362.456	22.19
362.667	28.33
362.879	118.44
363.09	59.05
363.301	-10.58
363.512	61.1
363.723	34.47
363.935	3.75
364.146	11.95
364.357	22.19
364.568	97.96
364.779	-26.96
364.99	13.99
365.201	18.09
365.412	-14.68
365.623	73.39
365.834	-18.77
366.045	40.62
366.256	61.1
366.467	-20.82
366.678	44.71
366.889	18.09
367.1	85.67
367.311	28.33
367.522	87.72
367.733	54.95
367.944	77.48
368.155	-24.92
368.366	100.01
368.577	-22.87
368.788	42.67
368.999	48.81
369.209	13.99
369.42	22.19
369.631	73.39
369.842	91.82
370.053	-72.02
370.264	-24.92
370.474	-26.96
370.685	34.47
370.896	75.43
371.107	44.71
371.317	-16.73
371.528	-31.06
371.739	1.71
371.95	95.91
372.16	57
372.371	-20.82
372.582	-18.77
372.792	24.23
373.003	106.15
373.214	54.95
373.424	38.57
373.635	11.95
373.846	44.71
374.056	28.33
374.267	42.67
374.477	30.38
374.688	89.77
374.898	-8.53
375.109	11.95
375.319	7.85
375.53	108.2
375.74	79.53
375.951	34.47
376.161	26.28
376.372	50.86
376.582	30.38
376.793	-14.68
377.003	7.85
377.214	61.1
377.424	57
377.635	65.19
377.845	59.05
378.055	13.99
378.266	13.99
378.476	-26.96
378.686	26.28
378.897	65.19
379.107	24.23
379.317	-29.01
379.528	18.09
379.738	52.91
379.948	-12.63
380.158	3.75
380.369	5.8
380.579	44.71
380.789	22.19
380.999	89.77
381.21	42.67
381.42	13.99
381.63	-18.77
381.84	-4.44
382.05	22.19
382.261	1.71
382.471	81.58
382.681	50.86
382.891	46.76
383.101	48.81
383.311	-20.82
383.521	69.29
383.731	57
383.941	28.33
384.151	57
384.361	108.2
384.571	7.85
384.781	-16.73
384.991	9.9
385.201	46.76
385.411	61.1
385.621	61.1
385.831	22.19
386.041	40.62
386.251	91.82
386.461	61.1
386.671	-29.01
386.881	-0.34
387.091	22.19
387.301	-14.68
387.511	9.9
387.72	52.91
387.93	71.34
388.14	-37.2
388.35	67.24
388.56	20.14
388.769	1.71
388.979	50.86
389.189	69.29
389.399	38.57
389.609	-10.58
389.818	44.71
390.028	59.05
390.238	13.99
390.447	-22.87
390.657	65.19
390.867	50.86
391.076	-26.96
391.286	95.91
391.496	36.52
391.705	30.38
391.915	34.47
392.125	57
392.334	-24.92
392.544	38.57
392.753	28.33
392.963	54.95
393.172	-18.77
393.382	52.91
393.591	69.29
393.801	18.09
394.01	79.53
394.22	57
394.429	57
394.639	44.71
394.848	102.06
395.058	20.14
395.267	13.99
395.477	20.14
395.686	26.28
395.895	44.71
396.105	79.53
396.314	5.8
396.524	61.1
396.733	-8.53
396.942	63.15
397.152	83.63
397.361	89.77
397.57	69.29
397.78	102.06
397.989	28.33
398.198	112.3
398.407	116.39
398.617	136.87
398.826	67.24
399.035	32.43
399.244	89.77
399.453	-0.34
399.663	36.52
399.872	100.01
400.081	65.19
400.29	75.43
400.499	38.57
400.708	108.2
400.917	114.34
401.127	192.17
401.336	52.91
401.545	79.53
401.754	11.95
401.963	65.19
402.172	108.2
402.381	112.3
402.59	77.48
402.799	40.62
403.008	87.72
403.217	114.34
403.426	136.87
403.635	108.2
403.844	126.63
404.053	59.05
404.262	67.24
404.471	106.15
404.68	118.44
404.888	136.87
405.097	161.45
405.306	77.48
405.515	22.19
405.724	130.73
405.933	40.62
406.142	108.2
406.35	112.3
406.559	16.04
406.768	153.26
406.977	108.2
407.185	106.15
407.394	153.26
407.603	161.45
407.812	110.25
408.02	83.63
408.229	149.16
408.438	153.26
408.646	165.54
408.855	192.17
409.064	177.83
409.272	132.78
409.481	237.22
409.69	75.43
409.898	208.55
410.107	192.17
410.315	267.94
410.524	198.31
410.733	194.22
410.941	216.74
411.15	284.33
411.358	224.94
411.567	224.94
411.775	302.76
411.984	235.18
412.192	196.26
412.401	313
412.609	317.09
412.818	282.28
413.026	370.34
413.234	274.09
413.443	247.46
413.651	298.66
413.86	407.2
414.068	364.2
414.276	368.29
414.485	358.05
414.693	401.06
414.901	360.1
415.11	480.93
415.318	482.98
415.526	458.4
415.734	399.01
415.943	530.08
416.151	564.9
416.359	509.6
416.567	552.61
416.776	497.32
416.984	560.8
417.192	585.38
417.4	636.58
417.608	597.67
417.817	605.86
418.025	741.02
418.233	657.06
418.441	765.6
418.649	736.93
418.857	698.02
419.065	755.36
419.273	736.93
419.481	880.29
419.689	923.29
419.897	902.81
420.105	1001.12
420.313	1009.31
420.521	974.49
420.729	1042.07
420.937	1068.7
421.145	1162.9
421.353	1164.95
421.561	1156.76
421.769	1308.31
421.977	1277.59
422.185	1212.06
422.393	1298.07
422.601	1447.57
422.809	1486.48
423.017	1500.82
423.224	1506.96
423.432	1582.74
423.64	1519.25
423.848	1683.09
424.056	1609.36
424.263	1855.12
424.471	1783.44
424.679	1760.91
424.887	1896.08
425.094	1928.85
425.302	2014.86
425.51	1982.09
425.718	2172.55
425.925	2219.66
426.133	2213.51
426.341	2326.15
426.548	2406.02
426.756	2324.1
426.964	2565.76
427.171	2485.89
427.379	2827.9
427.586	2709.12
427.794	2772.61
428.001	2936.45
428.209	3032.7
428.417	3071.61
428.624	3085.95
428.832	3206.78
429.039	3204.73
429.247	3096.19
429.454	3591.8
429.662	3810.93
429.869	3503.73
430.076	3698.29
430.284	3501.69
430.491	3739.25
430.699	3966.57
430.906	4017.77
431.114	4040.3
431.321	4263.53
431.528	4279.91
431.736	4562.53
431.943	4851.3
432.15	4662.88
432.358	4771.43
432.565	4965.98
432.772	4974.17
432.979	5344.86
433.187	5291.61
433.394	5316.19
433.601	5662.29
433.808	5674.58
434.016	5731.92
434.223	5918.29
434.43	6213.2
434.637	6094.41
434.844	6532.68
435.052	6702.66
435.259	6604.36
435.466	6604.36
435.673	6575.69
435.88	6790.72
436.087	7351.87
436.294	7257.66
436.501	7183.93
436.708	7259.71
436.915	7544.38
437.122	7859.76
437.329	7769.65
437.537	8314.41
437.743	8089.14
437.95	8093.23
438.157	8672.81
438.364	8857.12
438.571	8724.01
438.778	9160.22
438.985	9754.13
439.192	9582.1
439.399	9825.81
439.606	9483.8
439.813	9995.79
440.02	10591.75
440.227	10487.31
440.433	10366.48
440.64	10759.69
440.847	10415.63
441.054	10913.28
441.261	11517.43
441.467	11441.66
441.674	11578.87
441.881	12344.81
442.088	12023.28
442.294	12115.44
442.501	12254.7
442.708	12660.2
442.914	13069.8
443.121	13706.71
443.328	13387.23
443.534	14106.07
443.741	13854.17
443.948	13626.84
444.154	14812.62
444.361	14554.57
444.568	14673.35
444.774	14378.45
444.981	14728.65
445.187	15326.66
445.394	15674.81
445.6	15560.13
445.807	17157.54
446.013	16426.42
446.22	16704.94
446.426	17360.29
446.633	17515.94
446.839	18095.51
447.046	17499.55
447.252	18199.96
447.459	18300.31
447.665	18234.77
447.871	19084.68
448.078	19762.56
448.284	19062.15
448.491	19289.48
448.697	20139.38
448.903	20354.42
449.11	20518.26
449.316	20206.97
449.522	20868.46
449.728	21171.56
449.935	21005.67
450.141	21314.92
450.347	21372.26
450.553	21149.03
450.76	21521.76
450.966	22271.32
451.172	21423.46
451.378	22082.91
451.584	21884.25
451.791	22183.26
451.997	22250.84
452.203	22707.54
452.409	22537.55
452.615	22517.08
452.821	21364.07
453.027	21276.01
453.233	22472.02
453.44	21441.89
453.646	22021.47
453.852	22017.37
454.058	22336.85
454.264	21552.48
454.47	22121.82
454.676	21409.12
454.882	22074.71
455.088	20417.91
455.294	20471.15
455.5	20702.57
455.705	21198.18
455.911	20225.4
456.117	19621.25
456.323	19449.22
456.529	18605.45
456.735	19400.07
456.941	18806.16
457.147	18488.72
457.352	17651.1
457.558	17728.92
457.764	17589.66
457.97	17335.71
458.176	16848.3
458.381	16946.6
458.587	16074.17
458.793	16297.39
458.999	15175.11
459.204	16272.82
459.41	15760.83
459.616	14573
459.821	14761.42
460.027	14636.49
460.233	14325.2
460.438	13882.84
460.644	14048.72
460.85	13180.39
461.055	13141.47
461.261	13020.64
461.466	12000.76
461.672	11984.37
461.878	12574.19
462.083	11693.56
462.289	11511.29
462.494	11380.22
462.7	10718.73
462.905	10618.38
463.111	11066.88
463.316	11144.7
463.522	10780.17
463.727	10810.89
463.932	10704.39
464.138	10855.94
464.343	10954.24
464.549	10479.11
464.754	10831.37
464.959	10792.45
465.165	10743.3
465.37	10208.78
465.575	9862.68
465.781	10446.35
465.986	10429.96
466.191	9907.73
466.397	9844.24
466.602	9510.43
466.807	9680.41
467.012	9758.23
467.218	9713.17
467.423	9412.12
467.628	9723.41
467.833	9938.45
468.038	9723.41
468.244	9436.7
468.449	9657.88
468.654	9563.67
468.859	9354.78
469.064	9274.91
469.269	8797.73
469.474	8924.71
469.679	9020.96
469.885	8867.36
470.09	9025.06
470.295	8881.7
470.5	8820.26
470.705	8816.16
470.91	8594.98
471.115	8373.8
471.32	8652.33
471.525	8578.6
471.73	8304.17
471.935	8308.27
472.139	7966.26
472.344	8175.15
472.549	8166.96
472.754	8058.42
472.959	7943.73
473.164	7611.96
473.369	7611.96
473.574	7779.89
473.778	7743.03
473.983	7552.57
474.188	7757.36
474.393	7286.33
474.598	7495.22
474.802	7159.36
475.007	7349.82
475.212	7171.65
475.417	7034.43
475.621	7095.87
475.826	6977.09
476.031	6860.35
476.235	6686.28
476.44	6760
476.645	6798.91
476.849	6717
477.054	6520.39
477.259	6440.52
477.463	6506.06
477.668	6342.22
477.872	6389.32
478.077	6080.08
478.282	6151.76
478.486	6182.48
478.691	6102.61
478.895	6010.45
479.1	6149.71
479.304	6112.85
479.509	5733.97
479.713	6002.26
479.918	5842.51
480.122	5701.2
480.326	5914.19
480.531	5744.21
480.735	5918.29
480.94	5652.05
481.144	6043.21
481.348	5731.92
481.553	5629.52
481.757	5604.95
481.961	5686.87
482.166	5686.87
482.37	5684.82
482.574	5574.23
482.778	5545.56
482.983	5789.27
483.187	5563.99
483.391	5707.35
483.595	5615.19
483.8	5424.73
484.004	5512.79
484.208	5795.41
484.412	5738.07
484.616	5613.14
484.821	5719.64
485.025	5740.12
485.229	5633.62
485.433	5631.57
485.637	5508.69
485.841	5623.38
486.045	5541.46
486.249	5674.58
486.453	5666.39
486.657	5590.61
486.861	5693.01
487.065	5641.81
487.269	5770.83
487.473	5602.9
487.677	5727.83
487.881	5555.8
488.085	5621.33
488.289	5611.09
488.493	5553.75
488.697	5723.73
488.901	5736.02
489.105	5713.49
489.309	5729.88
489.512	5699.16
489.716	5891.66
489.92	5750.35
490.124	5596.76
490.328	5852.75
490.531	5875.28
490.735	5940.82
490.939	5893.71
491.143	6020.69
491.346	5791.31
491.55	5938.77
491.754	5955.15
491.958	5893.71
492.161	5899.86
492.365	5852.75
492.569	6022.73
492.772	6057.55
492.976	5985.87
493.18	6030.93
493.383	6018.64
493.587	6131.28
493.79	6157.9
493.994	6090.32
494.197	6264.4
494.401	6334.03
494.605	6323.79
494.808	6264.4
495.012	6352.46
495.215	6532.68
495.419	6336.07
495.622	6663.75
495.825	6618.69
496.029	6565.45
496.232	6803.01
496.436	6753.86
496.639	6970.94
496.843	6815.3
497.046	7159.36
497.249	7009.86
497.453	7239.23
497.656	7284.28
497.859	7161.41
498.063	7302.72
498.266	7497.27
498.469	7431.74
498.673	7550.52
498.876	7568.95
499.079	7683.64
499.282	7611.96
499.485	7921.2
499.689	8011.31
499.892	8197.68
500.095	8066.61
500.298	8347.18
500.501	8185.39
500.705	8404.52
500.908	8539.69
501.111	8562.22
501.314	8812.07
501.517	8973.86
501.72	8973.86
501.923	9041.44
502.126	9399.84
502.329	9387.55
502.532	9213.47
502.735	9381.4
502.938	9666.07
503.141	9821.72
503.344	9821.72
503.547	9887.25
503.75	10198.54
503.953	10329.61
504.156	10397.2
504.359	10184.21
504.562	10298.89
504.765	10509.83
504.968	10896.9
505.17	11017.73
505.373	10907.14
505.576	11167.23
505.779	11292.16
505.982	11408.89
506.185	11572.73
506.387	11711.99
506.59	11982.32
506.793	12023.28
506.996	12025.33
507.198	12348.91
507.401	12447.21
507.604	12516.84
507.807	12625.39
508.009	12858.85
508.212	12879.33
508.415	12994.02
508.617	13133.28
508.82	13374.94
509.022	13274.59
509.225	13753.82
509.428	13870.55
509.63	14202.32
509.833	13997.53
510.035	14560.72
510.238	14339.54
510.44	14665.16
510.643	14966.21
510.845	15015.37
511.048	15095.24
511.25	15486.4
511.453	15576.51
511.655	16053.69
511.858	15994.29
512.06	15977.91
512.262	16217.52
512.465	16311.73
512.667	16747.95
512.87	16913.83
513.072	16801.19
513.274	17096.1
513.477	17268.13
513.679	17556.89
513.881	17773.98
514.084	17962.39
514.286	17816.99
514.488	18046.36
514.69	18777.48
514.893	18433.43
515.095	19021.19
515.297	19193.22
515.499	19295.62
515.701	19441.03
515.904	19611.01
516.106	19793.28
516.308	20000.12
516.51	20393.33
516.712	20327.8
516.914	21110.12
517.116	21085.54
517.318	20917.61
517.52	21187.94
517.722	21757.28
517.925	21792.09
518.127	22263.13
518.329	22332.76
518.531	22375.77
518.733	22635.86
518.935	22734.16
519.136	22996.3
519.338	23176.52
519.54	23395.65
519.742	23737.66
519.944	23864.64
520.146	24309.05
520.348	24280.38
520.55	24386.87
520.752	24755.5
520.954	25275.69
521.155	25101.61
521.357	25369.9
521.559	25920.8
521.761	26094.88
521.963	26015.01
522.164	26172.7
522.366	26342.68
522.568	26621.2
522.77	27055.37
522.971	27387.14
523.173	27153.68
523.375	27452.68
523.576	27569.41
523.778	27438.34
523.98	28173.56
524.181	27946.24
524.383	28435.7
524.584	28542.2
524.786	28642.55
524.988	28697.84
525.189	28978.42
525.391	28976.37
525.592	29381.87
525.794	29635.81
525.995	29644.01
526.197	29478.12
526.398	29740.26
526.6	29938.91
526.801	30207.2
527.003	30219.49
527.204	30463.19
527.406	30878.93
527.607	30534.87
527.808	30921.94
528.01	30528.73
528.211	30506.2
528.412	31478.99
528.614	31114.45
528.815	31171.79
529.016	31767.75
529.218	31425.74
529.419	31427.79
529.62	31829.19
529.822	31646.92
530.023	31788.23
530.224	31784.13
530.425	31749.32
530.626	31751.37
530.828	31478.99
531.029	32349.37
531.23	31847.62
531.431	32025.79
531.632	32056.51
531.833	32095.42
532.035	32201.92
532.236	32271.55
532.437	32638.14
532.638	32548.03
532.839	32746.68
533.04	32576.7
533.241	32466.11
533.442	32951.48
533.643	32902.32
533.844	32498.87
534.045	33043.63
534.246	32400.57
534.447	32974
534.648	32763.06
534.849	32908.47
535.05	32662.71
535.251	32961.72
535.451	32521.4
535.652	33289.39
535.853	32736.44
536.054	33076.4
536.255	33244.34
536.456	32691.38
536.657	33594.54
536.857	32810.17
537.058	32953.52
537.259	33158.32
537.46	33117.36
537.66	32552.12
537.861	33072.31
538.062	32793.78
538.263	33070.26
538.463	32722.1
538.664	32722.1
538.865	33080.5
539.065	33139.89
539.266	32806.07
539.466	33121.46
539.667	32595.13
539.868	33387.69
540.068	33082.55
540.269	32832.69
540.469	33135.79
540.67	32765.11
540.87	32601.27
541.071	32851.13
541.271	33156.27
541.472	32654.52
541.672	32611.51
541.873	32597.18
542.073	32654.52
542.274	33223.86
542.474	32992.44
542.675	32693.43
542.875	33334.45
543.075	32883.89
543.276	32580.79
543.476	33049.78
543.676	32564.41
543.877	33178.8
544.077	32816.31
544.277	33023.15
544.478	33017.01
544.678	33496.24
544.878	32941.24
545.078	32883.89
545.279	32822.45
545.479	32750.77
545.679	33057.97
545.879	32552.12
546.079	32842.93
546.28	32613.56
546.48	32758.97
546.68	33143.98
546.88	32781.49
547.08	32947.38
547.28	32423.1
547.48	32666.81
547.68	33080.5
547.88	32521.4
548.081	32828.6
548.281	33160.37
548.481	32513.21
548.681	32961.72
548.881	32797.88
549.081	32535.74
549.28	32881.84
549.48	32631.99
549.68	32492.73
549.88	33092.79
550.08	32648.38
550.28	32636.09
550.48	32462.01
550.68	32756.92
550.88	32699.58
551.08	32715.96
551.279	32980.15
551.479	32550.07
551.679	32869.56
551.879	32605.37
552.079	32537.79
552.278	32484.54
552.478	32494.78
552.678	32722.1
552.878	32789.69
553.077	32859.32
553.277	32117.95
553.477	32771.25
553.676	32552.12
553.876	32808.12
554.076	32758.97
554.275	32640.18
554.475	32052.42
554.674	32285.89
554.874	32445.63
555.074	32474.3
555.273	32216.26
555.473	32648.38
555.672	32242.88
555.872	32029.89
556.071	32376
556.271	32165.06
556.47	32193.73
556.67	32154.82
556.869	32150.72
557.068	32386.24
557.268	31952.07
557.467	32001.22
557.667	32183.49
557.866	31925.44
558.065	32015.55
558.265	31515.85
558.464	31567.05
558.663	32079.04
558.863	31253.71
559.062	32281.79
559.261	31591.62
559.461	31827.14
559.66	31231.18
559.859	31734.98
560.058	31278.29
560.258	31384.78
560.457	31091.92
560.656	31550.67
560.855	31294.67
561.054	31118.54
561.253	30919.89
561.453	31136.98
561.652	31075.54
561.851	31218.89
562.05	31356.11
562.249	30850.26
562.448	31165.65
562.647	30962.9
562.846	30811.35
563.045	30758.1
563.244	30428.38
563.443	31212.75
563.642	30549.21
563.841	30510.3
564.04	30483.67
564.239	30368.99
564.438	30182.62
564.637	30434.52
564.836	30344.41
565.035	29697.25
565.234	30444.76
565.432	29932.77
565.631	30014.69
565.83	30125.28
566.029	30006.5
566.228	29963.49
566.427	29420.78
566.625	29533.42
566.824	29238.51
567.023	29988.07
567.222	29347.05
567.42	29820.13
567.619	29443.31
567.818	29154.54
568.016	29263.08
568.215	29476.07
568.414	29062.38
568.612	29445.35
568.811	29015.28
569.01	29082.86
569.208	28822.77
569.407	28916.98
569.605	28568.82
569.804	28398.84
570.002	28411.13
570.201	28763.38
570.4	28511.48
570.598	28306.68
570.797	28097.79
570.995	28402.94
571.193	27956.48
571.392	28345.59
571.59	28103.93
571.789	28161.28
571.987	28095.74
572.186	27870.47
572.384	27720.96
572.582	27815.17
572.781	27659.52
572.979	27346.19
573.177	27137.29
573.376	27399.43
573.574	27172.11
573.772	27153.68
573.971	26756.37
574.169	26895.63
574.367	26598.68
574.565	26854.67
574.763	26690.84
574.962	27004.17
575.16	26397.98
575.358	26617.11
575.556	26608.92
575.754	26395.93
575.952	26152.22
576.151	26479.89
576.349	26082.59
576.547	25490.73
576.745	25906.46
576.943	25828.64
577.141	25574.69
577.339	25652.52
577.537	25519.4
577.735	25513.25
577.933	25511.21
578.131	25494.82
578.329	25212.2
578.527	25142.57
578.725	25464.1
578.923	25201.96
579.121	25031.98
579.319	24915.25
579.516	24962.35
579.714	24986.93
579.912	24419.64
580.11	24311.1
580.308	24581.43
580.506	24583.48
580.704	24030.52
580.901	24479.03
581.099	24788.27
581.297	24436.02
581.495	23991.61
581.692	24386.87
581.89	23778.62
582.088	24214.84
582.285	24012.09
582.483	24413.49
582.681	23733.57
582.878	23911.74
583.076	23545.16
583.274	23743.81
583.471	23371.08
583.669	23383.37
583.866	23407.94
584.064	23479.62
584.262	23020.88
584.459	23459.14
584.657	22992.2
584.854	23274.82
585.052	22834.51
585.249	22787.41
585.447	23309.64
585.644	22398.29
585.841	22601.04
586.039	22775.12
586.236	22285.65
586.434	22291.8
586.631	22381.91
586.828	22353.24
587.026	22328.66
587.223	22136.15
587.42	22295.89
587.618	22412.63
587.815	21917.02
588.012	21732.7
588.21	21843.29
588.407	22066.52
588.604	22095.19
588.801	21650.78
588.999	21712.22
589.196	21585.25
589.393	21841.25
589.59	21423.46
589.787	21284.2
589.984	21226.85
590.182	21245.29
590.379	21353.83
590.576	21028.2
590.773	21251.43
590.97	21069.16
591.167	21030.25
591.364	20804.97
591.561	21132.65
591.758	20534.64
591.955	20522.35
592.152	20630.9
592.349	20401.52
592.546	20632.94
592.743	20718.96
592.94	20239.73
593.137	20292.98
593.334	20288.89
593.531	19950.97
593.727	20321.65
593.924	20348.28
594.121	20010.36
594.318	20073.85
594.515	20073.85
594.712	20006.27
594.908	19971.45
595.105	20002.17
595.302	19420.55
595.499	19840.38
595.696	19666.3
595.892	19432.83
596.089	19627.39
596.286	19731.84
596.482	19320.2
596.679	19391.87
596.876	19137.93
597.072	19049.86
597.269	19217.8
597.466	18867.59
597.662	18939.27
597.859	18992.52
598.055	19121.54
598.252	18914.7
598.448	18877.83
598.645	18777.48
598.841	18451.86
599.038	18527.63
599.234	18789.77
599.431	18374.03
599.627	18462.1
599.824	18580.88
600.02	18273.68
600.217	18234.77
600.413	18345.36
600.609	18234.77
600.806	18146.71
601.002	18351.51
601.198	18124.18
601.395	17796.51
601.591	17741.21
601.787	18029.98
601.984	17855.9
602.18	17833.37
602.376	17388.96
602.572	17509.79
602.769	17757.6
602.965	17517.98
603.161	17743.26
603.357	17669.53
603.553	17294.75
603.75	17354.15
603.946	17139.11
604.142	17212.84
604.338	17100.2
604.534	17126.82
604.73	16805.29
604.926	16899.5
605.122	16842.15
605.318	16829.87
605.514	16721.32
605.71	16739.76
605.906	16647.6
606.102	16745.9
606.298	16510.38
606.494	16338.35
606.69	16350.64
606.886	16616.88
607.082	16115.12
607.278	16446.9
607.474	16041.4
607.67	16324.02
607.866	16143.8
608.062	16268.72
608.257	16076.21
608.453	15977.91
608.649	15984.05
608.845	16072.12
609.041	16037.3
609.236	15848.89
609.432	15936.95
609.628	15637.95
609.824	15758.78
610.019	15664.57
610.215	15588.8
610.411	15574.46
610.606	15545.79
610.802	15586.75
610.998	15379.9
611.193	15467.97
611.389	15410.62
611.584	15160.77
611.78	15287.75
611.976	15381.95
612.171	15420.86
612.367	15132.1
612.562	15037.89
612.758	14906.82
612.953	15154.63
613.149	14980.55
613.344	14771.66
613.539	15095.24
613.735	15013.32
613.93	15025.61
614.126	14859.72
614.321	14915.02
614.517	14616.01
614.712	14829
614.907	14613.96
615.103	14831.05
615.298	14779.85
615.493	14820.81
615.688	14659.02
615.884	14632.4
616.079	14288.34
616.274	14353.87
616.47	14386.64
616.665	14538.19
616.86	14233.04
617.055	14431.69
617.25	14335.44
617.445	14298.58
617.641	14040.53
617.836	14251.47
618.031	13985.24
618.226	13979.09
618.421	13895.13
618.616	14026.2
618.811	13714.91
619.006	13931.99
619.201	13788.63
619.396	13944.28
619.591	13583.84
619.786	13737.43
619.981	13405.66
620.176	13600.22
620.371	13194.72
620.566	13686.23
620.761	13286.88
620.956	13450.72
621.151	12885.48
621.346	13344.22
621.541	13024.74
621.735	13067.75
621.93	12889.57
622.125	12940.77
622.32	12828.13
622.515	12672.49
622.709	12580.33
622.904	12721.64
623.099	12518.89
623.294	12549.61
623.488	12137.97
623.683	12539.37
623.878	12058.1
624.072	12310
624.267	12185.07
624.462	12115.44
624.656	11943.41
624.851	12017.14
625.046	11894.26
625.24	11748.86
625.435	11668.98
625.629	11613.69
625.824	11542.01
626.018	11603.45
626.213	11517.43
626.407	11472.38
626.602	11193.86
626.796	11423.23
626.991	11259.39
627.185	11197.95
627.38	11140.61
627.574	11064.83
627.768	11111.94
627.963	10913.28
628.157	10706.44
628.352	10952.2
628.546	10712.58
628.74	10716.68
628.935	10640.9
629.129	10567.18
629.323	10612.23
629.517	10374.67
629.712	10300.94
629.906	10270.22
630.1	10436.11
630.294	10311.18
630.489	10278.41
630.683	10208.78
630.877	10026.51
631.071	9989.65
631.265	10008.08
631.459	10010.13
631.653	9913.88
631.848	9702.93
632.042	9864.72
632.236	9735.7
632.43	9709.08
632.624	9758.23
632.818	9551.38
633.012	9514.52
633.206	9395.74
633.4	9557.53
633.594	9309.72
633.788	9360.92
633.982	9381.4
634.176	9285.15
634.369	9260.57
634.563	9305.63
634.757	9086.5
634.951	9170.46
635.145	8963.62
635.339	8957.47
635.533	8986.15
635.726	8846.88
635.92	8840.74
636.114	8805.92
636.308	8662.57
636.501	8728.1
636.695	8617.51
636.889	8578.6
637.083	8508.97
637.276	8451.63
637.47	8365.61
637.664	8619.56
637.857	8353.32
638.051	8371.75
638.244	8199.73
638.438	8283.69
638.632	8150.57
638.825	7949.87
639.019	8097.33
639.212	8023.6
639.406	8039.98
639.599	7853.62
639.793	8080.94
639.986	7800.37
640.18	7743.03
640.373	7757.36
640.567	7693.88
640.76	7718.45
640.954	7630.39
641.147	7448.12
641.34	7437.88
641.534	7446.07
641.727	7439.93
641.92	7355.96
642.114	7466.55
642.307	7312.96
642.5	7298.62
642.694	7157.31
642.887	7095.87
643.08	7300.67
643.273	7173.69
643.467	7059.01
643.66	7106.11
643.853	7018.05
644.046	6876.74
644.239	7032.38
644.432	6850.11
644.626	6901.31
644.819	6831.68
645.012	6760
645.205	6850.11
645.398	6790.72
645.591	6575.69
645.784	6655.56
645.977	6358.6
646.17	6415.94
646.363	6520.39
646.556	6395.47
646.749	6471.24
646.942	6374.99
647.135	6323.79
647.328	6260.3
647.521	6297.16
647.714	6026.83
647.907	6194.76
648.099	6166.09
648.292	6172.24
648.485	5975.63
648.678	6049.36
648.871	6047.31
649.064	5867.09
649.256	5971.54
649.449	5883.47
649.642	5906
649.835	5922.38
650.027	5807.7
650.22	5555.8
650.413	5719.64
650.605	5631.57
650.798	5781.07
650.991	5664.34
651.183	5672.53
651.376	5398.1
651.568	5539.41
651.761	5531.22
651.954	5494.36
652.146	5445.21
652.339	5426.78
652.531	5264.99
652.724	5144.16
652.916	5092.96
653.109	5287.51
653.301	5185.12
653.494	5125.72
653.686	5221.98
653.879	5197.4
654.071	5160.54
654.263	4984.41
654.456	5135.96
654.648	5209.69
654.84	5041.76
655.033	4912.74
655.225	4879.97
655.417	4806.24
655.61	4943.46
655.802	4896.35
655.994	4861.54
656.186	4918.88
656.379	4716.13
656.571	4570.72
656.763	4720.23
656.955	4640.36
657.148	4634.21
657.34	4646.5
657.532	4546.15
657.724	4433.51
657.916	4548.2
658.108	4615.78
658.3	4492.9
658.492	4472.42
658.684	4423.27
658.876	4337.26
659.068	4353.64
659.26	4361.83
659.452	4181.61
659.644	4372.07
659.836	4357.74
660.028	4232.81
660.22	4208.23
660.412	4218.47
660.604	4007.53
660.796	4193.9
660.988	4097.64
661.18	4064.88
661.372	4089.45
661.563	3989.1
661.755	3892.85
661.947	4017.77
662.139	3958.38
662.331	3855.98
662.522	3991.15
662.714	3948.14
662.906	3774.07
663.097	3808.88
663.289	3921.52
663.481	3847.79
663.673	3788.4
663.864	3739.25
664.056	3827.31
664.247	3741.3
664.439	3616.37
664.631	3657.33
664.822	3769.97
665.014	3597.94
665.205	3556.98
665.397	3589.75
665.588	3585.65
665.78	3698.29
665.971	3522.16
666.163	3448.44
666.354	3530.36
666.546	3403.38
666.737	3606.13
666.929	3532.4
667.12	3583.6
667.311	3395.19
667.503	3376.76
667.694	3403.38
667.885	3362.42
668.077	3356.28
668.268	3395.19
668.459	3276.41
668.651	3274.36
668.842	3219.07
669.033	3223.16
669.224	3280.5
669.416	3196.54
669.607	3149.43
669.798	3227.26
669.989	3311.22
670.18	3171.96
670.371	3131
670.563	3171.96
670.754	3223.16
670.945	3059.32
671.136	3114.62
671.327	3118.72
671.518	3044.99
671.709	3141.24
671.9	3180.15
672.091	3030.65
672.282	3067.52
672.473	2997.88
672.664	3067.52
672.855	2922.11
673.046	3124.86
673.237	3071.61
673.428	2944.64
673.619	2942.59
673.809	2895.49
674	2993.79
674.191	2926.21
674.382	2918.01
674.573	2877.05
674.764	2811.52
674.954	2922.11
675.145	2889.34
675.336	2862.72
675.527	2993.79
675.717	2823.81
675.908	2696.83
676.099	2676.35
676.289	2692.74
676.48	2825.86
676.671	2784.9
676.861	2852.48
677.052	2899.58
677.243	2850.43
677.433	2735.74
677.624	2805.38
677.814	2700.93
678.005	2635.39
678.195	2844.29
678.386	2686.59
678.576	2766.46
678.767	2690.69
678.957	2645.63
679.148	2557.57
679.338	2678.4
679.529	2657.92
679.719	2696.83
679.909	2682.5
680.1	2637.44
680.29	2698.88
680.481	2608.77
680.671	2629.25
680.861	2662.02
681.052	2645.63
681.242	2635.39
681.432	2647.68
681.622	2500.23
681.813	2475.65
682.003	2594.44
682.193	2639.49
682.383	2662.02
682.573	2619.01
682.764	2641.54
682.954	2662.02
683.144	2533
683.334	2530.95
683.524	2653.83
683.714	2590.34
683.904	2680.45
684.094	2459.27
684.284	2612.87
684.474	2512.52
684.664	2561.67
684.854	2641.54
685.044	2442.89
685.234	2463.37
685.424	2449.03
685.614	2514.56
685.804	2492.04
685.994	2481.8
686.184	2586.24
686.374	2510.47
686.564	2481.8
686.753	2561.67
686.943	2494.08
687.133	2582.15
687.323	2428.55
687.513	2461.32
687.702	2328.2
687.892	2438.79
688.082	2416.26
688.272	2379.4
688.461	2489.99
688.651	2563.72
688.841	2416.26
689.03	2520.71
689.22	2461.32
689.41	2363.01
689.599	2422.41
689.789	2297.48
689.979	2315.91
690.168	2375.3
690.358	2272.9
690.547	2399.88
690.737	2379.4
690.926	2420.36
691.116	2459.27
691.305	2375.3
691.495	2336.39
691.684	2320.01
691.874	2455.17
692.063	2389.64
692.252	2360.97
692.442	2346.63
692.631	2287.24
692.82	2272.9
693.01	2420.36
693.199	2229.9
693.388	2213.51
693.578	2238.09
693.767	2305.67
693.956	2383.49
694.146	2408.07
694.335	2225.8
694.524	2309.77
694.713	2344.58
694.902	2287.24
695.092	2258.57
695.281	2346.63
695.47	2250.38
695.659	2260.62
695.848	2295.43
696.037	2264.71
696.226	2377.35
696.415	2299.53
696.604	2356.87
696.793	2389.64
696.982	2305.67
697.171	2381.45
697.36	2293.38
697.549	2330.25
697.738	2174.6
697.927	2367.11
698.116	2346.63
698.305	2240.14
698.494	2317.96
698.683	2334.34
698.872	2260.62
699.061	2199.18
699.25	2393.73
699.438	2240.14
699.627	2315.91
699.816	2317.96
700.005	2213.51
700.193	2233.99
700.382	2190.99
700.571	2309.77
700.76	2260.62
700.948	2223.75
701.137	2272.9
701.326	2322.06
701.514	2281.1
701.703	2268.81
701.892	2170.51
702.08	2315.91
702.269	2268.81
702.457	2211.46
702.646	2174.6
702.834	2231.94
703.023	2289.29
703.212	2223.75
703.4	2266.76
703.589	2051.72
703.777	2283.14
703.965	2225.8
704.154	2223.75
704.342	2272.9
704.531	2188.94
704.719	2221.7
704.907	2217.61
705.096	2178.7
705.284	2182.79
705.472	2186.89
705.661	2158.22
705.849	2145.93
706.037	2162.31
706.226	2064.01
706.414	2115.21
706.602	2061.96
706.79	2137.74
706.979	2129.55
707.167	2203.27
707.355	2250.38
707.543	2117.26
707.731	2086.54
707.919	2053.77
708.107	2111.11
708.296	2037.39
708.484	2201.23
708.672	2154.12
708.86	2043.53
709.048	1998.48
709.236	2070.16
709.424	1953.42
709.612	2070.16
709.8	1975.95
709.988	2117.26
710.176	2027.15
710.364	2086.54
710.551	1998.48
710.739	1978
710.927	2016.91
711.115	2002.57
711.303	1980.04
711.491	1957.52
711.679	1982.09
711.866	1959.56
712.054	2123.4
712.242	1934.99
712.43	1926.8
712.617	1906.32
712.805	1965.71
712.993	1916.56
713.181	1928.85
713.368	2010.76
713.556	1943.18
713.744	1891.98
713.931	1980.04
714.119	1871.5
714.306	1920.65
714.494	1904.27
714.682	1838.73
714.869	1812.11
715.057	1861.26
715.244	1810.06
715.432	1793.68
715.619	1851.02
715.807	1785.49
715.994	1869.45
716.182	1801.87
716.369	1879.69
716.556	1973.9
716.744	1939.09
716.931	1818.25
717.119	1793.68
717.306	1801.87
717.493	1793.68
717.681	1672.85
717.868	1842.83
718.055	1777.3
718.242	1805.97
718.43	1773.2
718.617	1722
718.804	1676.95
718.991	1767.06
719.179	1756.82
719.366	1752.72
719.553	1797.78
719.74	1742.48
719.927	1699.47
720.114	1732.24
720.301	1748.62
720.488	1597.07
720.676	1633.94
720.863	1742.48
721.05	1648.27
721.237	1683.09
721.424	1627.79
721.611	1601.17
721.798	1670.8
721.985	1711.76
722.172	1586.83
722.358	1640.08
722.545	1687.18
722.732	1629.84
722.919	1603.22
723.106	1652.37
723.293	1609.36
723.48	1631.89
723.667	1592.98
723.853	1592.98
724.04	1554.07
724.227	1576.59
724.414	1506.96
724.6	1519.25
724.787	1570.45
724.974	1580.69
725.161	1490.58
725.347	1502.87
725.534	1558.16
725.72	1642.13
725.907	1504.92
726.094	1580.69
726.28	1445.52
726.467	1521.3
726.653	1480.34
726.84	1529.49
727.027	1578.64
727.213	1523.35
727.4	1584.79
727.586	1560.21
727.773	1560.21
727.959	1625.75
728.145	1420.95
728.332	1455.76
728.518	1474.2
728.705	1519.25
728.891	1359.51
729.077	1535.64
729.264	1451.67
729.45	1582.74
729.636	1425.04
729.823	1435.28
730.009	1506.96
730.195	1398.42
730.382	1472.15
730.568	1351.32
730.754	1339.03
730.94	1502.87
731.126	1379.99
731.313	1326.74
731.499	1511.06
731.685	1453.72
731.871	1384.09
732.057	1306.26
732.243	1506.96
732.429	1418.9
732.615	1357.46
732.801	1357.46
732.987	1414.81
733.173	1466
733.359	1400.47
733.545	1349.27
733.731	1353.37
733.917	1394.33
734.103	1267.35
734.289	1412.76
734.475	1316.5
734.661	1420.95
734.847	1347.22
735.033	1281.69
735.219	1314.45
735.404	1336.98
735.59	1263.26
735.776	1312.41
735.962	1296.02
736.148	1351.32
736.333	1334.93
736.519	1279.64
736.705	1291.93
736.89	1281.69
737.076	1117.85
737.262	1232.54
737.447	1214.1
737.633	1363.61
737.819	1259.16
738.004	1212.06
738.19	1296.02
738.375	1214.1
738.561	1199.77
738.747	1359.51
738.932	1181.34
739.118	1328.79
739.303	1167
739.489	1167
739.674	1164.95
739.859	1183.38
740.045	1126.04
740.23	1236.63
740.416	1167
740.601	1066.65
740.786	1179.29
740.972	1181.34
741.157	1150.62
741.342	1152.67
741.528	1171.1
741.713	1154.71
741.898	1111.71
742.084	1187.48
742.269	1150.62
742.454	1154.71
742.639	1152.67
742.824	1150.62
743.01	1197.72
743.195	1097.37
743.38	1064.6
743.565	1074.84
743.75	1072.79
743.935	1050.27
744.12	1097.37
744.305	1152.67
744.49	1093.27
744.675	1076.89
744.86	1031.83
745.045	1033.88
745.23	1142.43
745.415	1113.75
745.6	1029.79
745.785	1066.65
745.97	1031.83
746.155	1044.12
746.34	992.92
746.525	994.97
746.71	1029.79
746.895	1044.12
747.079	1089.18
747.264	964.25
747.449	1035.93
747.634	1066.65
747.819	1005.21
748.003	1060.51
748.188	970.4
748.373	1013.4
748.557	890.53
748.742	972.44
748.927	1005.21
749.111	986.78
749.296	921.24
749.481	921.24
749.665	919.2
749.85	884.38
750.034	958.11
750.219	939.68
750.404	958.11
750.588	876.19
750.773	880.29
750.957	929.44
751.141	888.48
751.326	824.99
751.51	935.58
751.695	894.62
751.879	726.69
752.064	800.41
752.248	900.76
752.432	880.29
752.617	915.1
752.801	812.7
752.985	831.13
753.17	872.09
753.354	802.46
753.538	837.28
753.722	765.6
753.907	657.06
754.091	845.47
754.275	837.28
754.459	775.84
754.643	722.59
754.828	722.59
755.012	831.13
755.196	708.26
755.38	790.17
755.564	712.35
755.748	781.98
755.932	710.3
756.116	728.74
756.3	675.49
756.484	732.83
756.668	763.55
756.852	677.54
757.036	710.3
757.22	695.97
757.404	665.25
757.588	691.87
757.772	589.47
757.956	777.89
758.14	638.62
758.323	693.92
758.507	720.54
758.691	716.45
758.875	661.15
759.059	626.34
759.242	669.34
759.426	669.34
759.61	612
759.794	706.21
759.977	591.52
760.161	595.62
760.345	607.91
760.528	603.81
760.712	562.85
760.895	620.19
761.079	616.1
761.263	599.71
761.446	546.47
761.63	626.34
761.813	564.9
761.997	519.84
762.18	612
762.364	646.82
762.547	616.1
762.731	589.47
762.914	585.38
763.098	663.2
763.281	597.67
763.464	620.19
763.648	560.8
763.831	577.19
764.015	554.66
764.198	593.57
764.381	536.23
764.564	568.99
764.748	536.23
764.931	523.94
765.114	542.37
765.297	620.19
765.481	499.36
765.664	525.99
765.847	556.71
766.03	532.13
766.213	528.03
766.397	626.34
766.58	515.75
766.763	530.08
766.946	528.03
767.129	466.6
767.312	528.03
767.495	503.46
767.678	568.99
767.861	528.03
768.044	491.17
768.227	523.94
768.41	546.47
768.593	525.99
768.776	618.15
768.959	560.8
769.142	554.66
769.324	454.31
769.507	573.09
769.69	495.27
769.873	384.68
770.056	501.41
770.239	472.74
770.421	505.51
770.604	499.36
770.787	499.36
770.97	540.32
771.152	429.73
771.335	536.23
771.518	462.5
771.7	448.16
771.883	458.4
772.066	444.07
772.248	468.64
772.431	556.71
772.613	538.27
772.796	433.83
772.978	495.27
773.161	454.31
773.343	538.27
773.526	460.45
773.708	405.16
773.891	470.69
774.073	491.17
774.256	554.66
774.438	435.88
774.621	403.11
774.803	413.35
774.985	454.31
775.168	425.64
775.35	460.45
775.532	491.17
775.715	450.21
775.897	437.92
776.079	470.69
776.261	454.31
776.444	460.45
776.626	358.05
776.808	321.19
776.99	362.15
777.173	349.86
777.355	394.92
777.537	388.77
777.719	399.01
777.901	366.25
778.083	298.66
778.265	407.2
778.447	394.92
778.629	329.38
778.811	452.26
778.993	401.06
779.175	343.72
779.357	366.25
779.539	366.25
779.721	417.44
779.903	372.39
780.085	421.54
780.267	358.05
780.449	376.48
780.631	321.19
780.812	364.2
780.994	356.01
781.176	341.67
781.358	337.57
781.54	343.72
781.721	351.91
781.903	343.72
782.085	345.77
782.267	327.33
782.448	331.43
782.63	333.48
782.812	249.51
782.993	417.44
783.175	407.2
783.357	349.86
783.538	327.33
783.72	265.89
783.901	323.24
784.083	272.04
784.264	269.99
784.446	339.62
784.627	231.08
784.809	317.09
784.99	306.85
785.172	267.94
785.353	339.62
785.535	306.85
785.716	247.46
785.897	263.85
786.079	282.28
786.26	257.7
786.441	310.95
786.623	249.51
786.804	247.46
786.985	257.7
787.167	233.13
787.348	188.07
787.529	286.37
787.71	229.03
787.891	188.07
788.073	212.65
788.254	241.32
788.435	265.89
788.616	229.03
788.797	247.46
788.978	261.8
789.159	216.74
789.34	337.57
789.522	210.6
789.703	255.65
789.884	263.85
790.065	261.8
790.246	206.5
790.427	198.31
790.607	267.94
790.788	183.98
790.969	202.41
791.15	263.85
791.331	177.83
791.512	183.98
791.693	251.56
791.874	200.36
792.054	179.88
792.235	267.94
792.416	196.26
792.597	220.84
792.778	194.22
792.958	181.93
793.139	163.5
793.32	247.46
793.5	183.98
793.681	177.83
793.862	167.59
794.042	161.45
794.223	218.79
794.404	194.22
794.584	186.02
794.765	239.27
794.945	224.94
795.126	229.03
795.306	208.55
795.487	179.88
795.667	192.17
795.848	190.12
796.028	175.78
796.209	204.46
796.389	157.35
796.57	183.98
796.75	69.29
796.93	204.46
797.111	59.05
797.291	198.31
797.471	188.07
797.652	147.11
797.832	192.17
798.012	175.78
798.192	224.94
798.373	83.63
798.553	257.7
798.733	204.46
798.913	159.4
799.093	163.5
799.274	169.64
799.454	134.82
799.634	186.02
799.814	165.54
799.994	143.02
800.174	186.02
800.354	106.15
800.534	136.87
800.714	132.78
800.894	171.69
801.074	138.92
801.254	54.95
801.434	122.54
801.614	57
801.794	200.36
801.974	310.95
802.154	112.3
802.334	134.82
802.514	116.39
802.693	126.63
802.873	116.39
803.053	138.92
803.233	153.26
803.413	77.48
803.592	130.73
803.772	112.3
803.952	194.22
804.131	93.87
804.311	91.82
804.491	100.01
804.67	69.29
804.85	114.34
805.03	95.91
805.209	157.35
805.389	122.54
805.568	79.53
805.748	132.78
805.928	128.68
806.107	110.25
806.287	167.59
806.466	77.48
806.646	100.01
806.825	130.73
807.004	108.2
807.184	104.11
807.363	40.62
807.543	87.72
807.722	149.16
807.901	52.91
808.081	110.25
808.26	50.86
808.439	69.29
808.619	157.35
808.798	143.02
808.977	130.73
809.156	118.44
809.336	140.97
809.515	93.87
809.694	63.15
809.873	118.44
810.052	87.72
810.231	46.76
810.411	69.29
810.59	192.17
810.769	73.39
810.948	138.92
811.127	124.58
811.306	85.67
811.485	132.78
811.664	120.49
811.843	1.71
812.022	132.78
812.201	104.11
812.38	20.14
812.559	75.43
812.737	177.83
812.916	149.16
813.095	120.49
813.274	161.45
813.453	63.15
813.632	120.49
813.811	85.67
813.989	140.97
814.168	132.78
814.347	28.33
814.526	157.35
814.704	77.48
814.883	143.02
815.062	36.52
815.24	71.34
815.419	28.33
815.598	79.53
815.776	120.49
815.955	120.49
816.133	40.62
816.312	65.19
816.49	110.25
816.669	89.77
816.847	42.67
817.026	93.87
817.204	112.3
817.383	77.48
817.561	93.87
817.74	79.53
817.918	46.76
818.097	75.43
818.275	81.58
818.453	57
818.632	120.49
818.81	130.73
818.988	26.28
819.167	112.3
819.345	81.58
819.523	40.62
819.701	114.34
819.879	106.15
820.058	85.67
820.236	81.58
820.414	104.11
820.592	59.05
820.77	67.24
820.948	57
821.127	16.04
821.305	147.11
821.483	69.29
821.661	149.16
821.839	95.91
822.017	61.1
822.195	112.3
822.373	69.29
822.551	102.06
822.729	20.14
822.907	69.29
823.085	91.82
823.262	77.48
823.44	85.67
823.618	57
823.796	81.58
823.974	61.1
824.152	-22.87
824.329	5.8
824.507	-10.58
824.685	11.95
824.863	59.05
825.04	36.52
825.218	-4.44
825.396	34.47
825.574	30.38
825.751	44.71
825.929	79.53
826.107	134.82
826.284	71.34
826.462	20.14
826.639	46.76
826.817	36.52
826.994	100.01
827.172	65.19
827.349	67.24
827.527	42.67
827.704	42.67
827.882	57
828.059	30.38
828.237	81.58
828.414	40.62
828.591	75.43
828.769	104.11
828.946	46.76
829.124	18.09
829.301	75.43
829.478	81.58
829.655	26.28
829.833	22.19
830.01	11.95
830.187	18.09
830.364	34.47
830.542	79.53
830.719	36.52
830.896	75.43
831.073	30.38
831.25	52.91
831.427	44.71
831.604	57
831.782	57
831.959	54.95
832.136	-16.73
832.313	3.75
832.49	57
832.667	81.58
832.844	42.67
833.021	95.91
833.198	40.62
833.374	38.57
833.551	67.24
833.728	38.57
833.905	3.75
834.082	36.52
834.259	32.43
834.436	87.72
834.612	-12.63
834.789	75.43
834.966	26.28
835.143	44.71
835.319	132.78
835.496	54.95
835.673	65.19
835.85	40.62
836.026	42.67
836.203	5.8
836.38	57
836.556	143.02
836.733	18.09
836.909	50.86
837.086	50.86
837.262	-20.82
837.439	69.29
837.616	5.8
837.792	16.04
837.968	30.38
838.145	118.44
838.321	73.39
838.498	104.11
838.674	5.8
838.851	110.25
839.027	81.58
839.203	20.14
839.38	83.63
839.556	20.14
839.732	44.71
839.909	24.23
840.085	147.11
840.261	67.24
840.437	16.04
840.614	36.52
840.79	69.29
840.966	73.39
841.142	-4.44
841.318	40.62
841.494	87.72
841.671	-10.58
841.847	-18.77
842.023	77.48
842.199	26.28
842.375	26.28
842.551	-39.25
842.727	20.14
842.903	69.29
843.079	-16.73
843.255	73.39
843.431	46.76
843.607	75.43
843.783	32.43
843.959	-14.68
844.134	67.24
844.31	69.29
844.486	69.29
844.662	67.24
844.838	48.81
845.013	57
845.189	-0.34
845.365	42.67
845.541	59.05
845.716	-10.58
845.892	-26.96
846.068	32.43
846.244	-4.44
846.419	69.29
846.595	11.95
846.77	-29.01
846.946	-26.96
847.122	46.76
847.297	59.05
847.473	65.19
847.648	20.14
847.824	65.19
847.999	-51.54
848.175	-33.11
848.35	32.43
848.526	16.04
848.701	-6.49
848.876	-2.39
849.052	18.09
849.227	-43.35
849.403	44.71
849.578	3.75
849.753	13.99
849.929	5.8
850.104	34.47
850.279	13.99
850.454	65.19
850.63	38.57
850.805	18.09
850.98	52.91
851.155	63.15
851.33	63.15
851.505	1.71
851.681	42.67
851.856	-4.44
852.031	67.24
852.206	36.52
852.381	-16.73
852.556	9.9
852.731	34.47
852.906	40.62
853.081	20.14
853.256	-4.44
853.431	-35.16
853.606	48.81
853.781	-26.96
853.956	11.95
854.131	5.8
854.305	9.9
854.48	-35.16
854.655	-2.39
854.83	38.57
855.005	40.62
855.18	42.67
855.354	44.71
855.529	11.95
855.704	-6.49
855.879	50.86
856.053	13.99
856.228	-20.82
856.403	42.67
856.577	-35.16
856.752	18.09
856.926	13.99
857.101	52.91
857.276	104.11
857.45	30.38
857.625	59.05
857.799	22.19
857.974	22.19
858.148	42.67
858.323	32.43
858.497	-8.53
858.672	-0.34
858.846	22.19
859.02	7.85
859.195	7.85
859.369	20.14
859.543	42.67
859.718	-65.88
859.892	-14.68
860.066	-20.82
860.241	-57.68
860.415	-4.44
860.589	-33.11
860.763	5.8
860.938	3.75
861.112	-16.73
861.286	-6.49
861.46	-16.73
861.634	-29.01
861.808	50.86
861.982	30.38
862.157	-26.96
862.331	36.52
862.505	-6.49
862.679	-24.92
862.853	-18.77
863.027	-6.49
863.201	57
863.375	-37.2
863.549	3.75
863.722	71.34
863.896	-2.39
864.07	28.33
864.244	73.39
864.418	-31.06
864.592	24.23
864.766	34.47
864.939	77.48
865.113	-35.16
865.287	93.87
865.461	28.33
865.634	-4.44
865.808	50.86
865.982	-14.68
866.156	48.81
866.329	-0.34
866.503	42.67
866.676	32.43
866.85	26.28
867.024	-10.58
867.197	34.47
867.371	-35.16
867.544	22.19
867.718	-6.49
867.891	1.71
868.065	-45.4
868.238	44.71
868.412	42.67
868.585	42.67
868.759	30.38
868.932	-49.49
869.105	20.14
869.279	18.09
869.452	20.14
869.625	-63.83
869.799	32.43
869.972	-33.11
870.145	-2.39
870.319	22.19
870.492	40.62
870.665	34.47
870.838	-51.54
871.011	48.81
871.185	3.75
871.358	-16.73
871.531	34.47
871.704	40.62
871.877	16.04
872.05	57
872.223	-45.4
872.396	24.23
872.569	38.57
872.742	-4.44
872.915	48.81
873.088	40.62
873.261	81.58
873.434	26.28
873.607	-6.49
873.78	-47.44
873.953	20.14
874.126	-20.82
874.299	67.24
874.471	1.71
874.644	-6.49
874.817	-4.44
874.99	30.38
875.163	7.85
875.335	7.85
875.508	-24.92
875.681	32.43
875.853	-10.58
876.026	13.99
876.199	-10.58
876.371	38.57
876.544	-31.06
876.717	30.38
876.889	-18.77
877.062	26.28
877.234	-63.83
877.407	44.71
877.579	-63.83
877.752	9.9
877.924	30.38
878.097	5.8
878.269	-4.44
878.442	22.19
878.614	32.43
878.786	-69.97
878.959	-8.53
879.131	-2.39
879.303	-20.82
879.476	-37.2
879.648	1.71
879.82	-37.2
879.993	-12.63
880.165	57
880.337	-12.63
880.509	5.8
880.681	32.43
880.854	-31.06
881.026	16.04
881.198	-6.49
881.37	-16.73
881.542	-0.34
881.714	54.95
881.886	42.67
882.058	-18.77
882.23	-22.87
882.402	13.99
882.574	22.19
882.746	-14.68
882.918	22.19
883.09	16.04
883.262	22.19
883.434	-55.64
883.606	1.71
883.778	-0.34
883.95	1.71
884.122	20.14
884.293	46.76
884.465	44.71
884.637	-37.2
884.809	-45.4
884.98	-35.16
885.152	24.23
885.324	57
885.496	7.85
885.667	30.38
885.839	59.05
886.011	-12.63
886.182	-41.3
886.354	20.14
886.525	81.58
886.697	59.05
886.869	24.23
887.04	26.28
887.212	-59.73
887.383	-22.87
887.555	65.19
887.726	-57.68
887.897	50.86
888.069	57
888.24	34.47
888.412	3.75
888.583	-16.73
888.754	24.23
888.926	-24.92
889.097	22.19
889.268	-12.63
889.44	-57.68
889.611	16.04
889.782	-76.12
889.953	20.14
890.125	1.71
890.296	7.85
890.467	61.1
890.638	-0.34
890.809	34.47
890.98	24.23
891.151	5.8
891.323	40.62
891.494	40.62
891.665	-59.73
891.836	-12.63
892.007	-16.73
892.178	-55.64
892.349	71.34
892.52	18.09
892.691	-43.35
892.862	1.71
893.032	7.85
893.203	20.14
893.374	-35.16
893.545	-63.83
893.716	-16.73
893.887	-2.39
894.057	44.71
894.228	-80.21
894.399	-29.01
894.57	52.91
894.74	-55.64
894.911	63.15
895.082	26.28
895.253	20.14
895.423	13.99
895.594	3.75
895.764	34.47
895.935	16.04
896.106	-29.01
896.276	3.75
896.447	-8.53
896.617	-31.06
896.788	38.57
896.958	67.24
897.129	-10.58
897.299	-16.73
897.47	48.81
897.64	-0.34
897.81	-26.96
897.981	28.33
898.151	-59.73
898.322	-49.49
898.492	28.33
898.662	48.81
898.832	-8.53
899.003	-51.54
899.173	-16.73
899.343	57
899.513	-2.39
