Data from USB4F104151__9__13-52-13-885.txt Node

Date: Thu Mar 13 13:52:13 EDT 2025
User: louis
Spectrometer: USB4F10415
Trigger mode: 4
Integration Time (sec): 1.000000E-2
Scans to average: 1
Electric dark correction enabled: true
Nonlinearity correction enabled: false
Boxcar width: 0
XAxis mode: Wavelengths
Number of Pixels in Spectrum: 3648
>>>>>Begin Spectral Data<<<<<
178.204	-34.3
178.424	-34.3
178.644	-34.3
178.864	4.61
179.084	-38.4
179.304	16.9
179.524	-17.92
179.744	12.8
179.964	-1.54
180.184	-13.82
180.404	12.8
180.624	66.05
180.844	10.75
181.064	-3.58
181.283	-28.16
181.503	-26.11
181.723	-28.16
181.943	-46.59
182.163	-42.5
182.383	0.51
182.602	-69.12
182.822	43.52
183.042	47.62
183.262	-26.11
183.482	25.09
183.701	4.61
183.921	78.33
184.141	18.94
184.361	18.94
184.58	-19.97
184.8	33.28
185.02	6.66
185.239	-11.78
185.459	72.19
185.679	-3.58
185.898	-32.26
186.118	61.95
186.338	14.85
186.557	-60.93
186.777	10.75
186.997	-22.02
187.216	4.61
187.436	16.9
187.655	0.51
187.875	27.14
188.095	49.66
188.314	31.23
188.534	43.52
188.753	-50.69
188.973	-3.58
189.192	-1.54
189.412	20.99
189.631	14.85
189.851	39.42
190.07	10.75
190.29	-48.64
190.509	-3.58
190.729	45.57
190.948	88.57
191.168	82.43
191.387	92.67
191.607	18.94
191.826	49.66
192.045	4.61
192.265	-28.16
192.484	53.76
192.704	20.99
192.923	14.85
193.142	29.18
193.362	111.1
193.581	66.05
193.8	-24.06
194.02	-24.06
194.239	29.18
194.458	55.81
194.678	-7.68
194.897	6.66
195.116	14.85
195.335	66.05
195.555	119.29
195.774	-32.26
195.993	20.99
196.212	55.81
196.432	-42.5
196.651	10.75
196.87	20.99
197.089	31.23
197.308	80.38
197.528	72.19
197.747	33.28
197.966	-5.63
198.185	39.42
198.404	47.62
198.623	76.29
198.842	23.04
199.062	0.51
199.281	14.85
199.5	-13.82
199.719	39.42
199.938	-15.87
200.157	76.29
200.376	70.14
200.595	72.19
200.814	8.7
201.033	-52.74
201.252	-11.78
201.471	72.19
201.69	-48.64
201.909	4.61
202.128	-48.64
202.347	-1.54
202.566	20.99
202.785	57.86
203.004	-3.58
203.223	96.77
203.442	-11.78
203.661	-48.64
203.879	-7.68
204.098	16.9
204.317	-7.68
204.536	96.77
204.755	57.86
204.974	92.67
205.193	0.51
205.411	-24.06
205.63	-24.06
205.849	35.33
206.068	47.62
206.287	-9.73
206.505	66.05
206.724	4.61
206.943	-26.11
207.162	45.57
207.381	-17.92
207.599	47.62
207.818	0.51
208.037	20.99
208.255	-56.83
208.474	10.75
208.693	-3.58
208.911	35.33
209.13	53.76
209.349	49.66
209.567	80.38
209.786	-32.26
210.005	68.09
210.223	45.57
210.442	-5.63
210.661	57.86
210.879	25.09
211.098	16.9
211.316	25.09
211.535	43.52
211.753	-62.98
211.972	80.38
212.191	45.57
212.409	51.71
212.628	14.85
212.846	-17.92
213.065	55.81
213.283	20.99
213.502	0.51
213.72	51.71
213.938	64
214.157	-54.78
214.375	31.23
214.594	16.9
214.812	14.85
215.031	74.24
215.249	41.47
215.467	2.56
215.686	-19.97
215.904	31.23
216.122	29.18
216.341	90.62
216.559	-36.35
216.778	8.7
216.996	61.95
217.214	6.66
217.432	-62.98
217.651	4.61
217.869	-56.83
218.087	47.62
218.306	39.42
218.524	0.51
218.742	-40.45
218.96	41.47
219.179	27.14
219.397	16.9
219.615	4.61
219.833	16.9
220.051	14.85
220.27	35.33
220.488	16.9
220.706	-44.54
220.924	-28.16
221.142	-52.74
221.36	-9.73
221.578	-30.21
221.796	-5.63
222.015	2.56
222.233	-17.92
222.451	47.62
222.669	-11.78
222.887	55.81
223.105	-73.21
223.323	88.57
223.541	47.62
223.759	29.18
223.977	49.66
224.195	33.28
224.413	37.38
224.631	37.38
224.849	-15.87
225.067	14.85
225.285	37.38
225.503	-44.54
225.721	-19.97
225.939	104.96
226.157	45.57
226.375	96.77
226.592	0.51
226.81	29.18
227.028	-28.16
227.246	66.05
227.464	-44.54
227.682	-28.16
227.9	39.42
228.117	53.76
228.335	53.76
228.553	10.75
228.771	43.52
228.989	4.61
229.206	55.81
229.424	66.05
229.642	-1.54
229.86	-30.21
230.077	33.28
230.295	23.04
230.513	64
230.731	12.8
230.948	64
231.166	23.04
231.384	23.04
231.601	8.7
231.819	8.7
232.037	12.8
232.254	23.04
232.472	49.66
232.689	51.71
232.907	39.42
233.125	-28.16
233.342	23.04
233.56	2.56
233.777	-58.88
233.995	23.04
234.213	29.18
234.43	-11.78
234.648	66.05
234.865	39.42
235.083	14.85
235.3	64
235.518	59.9
235.735	76.29
235.953	23.04
236.17	47.62
236.388	-1.54
236.605	66.05
236.822	35.33
237.04	49.66
237.257	-7.68
237.475	66.05
237.692	55.81
237.909	31.23
238.127	-24.06
238.344	49.66
238.562	107.01
238.779	61.95
238.996	0.51
239.214	20.99
239.431	20.99
239.648	53.76
239.865	86.53
240.083	80.38
240.3	-3.58
240.517	72.19
240.735	16.9
240.952	45.57
241.169	-13.82
241.386	4.61
241.603	78.33
241.821	-11.78
242.038	64
242.255	37.38
242.472	4.61
242.689	10.75
242.907	8.7
243.124	92.67
243.341	4.61
243.558	-24.06
243.775	55.81
243.992	20.99
244.209	-22.02
244.426	72.19
244.643	-32.26
244.86	-5.63
245.078	25.09
245.295	29.18
245.512	33.28
245.729	27.14
245.946	49.66
246.163	37.38
246.38	70.14
246.597	16.9
246.814	64
247.031	74.24
247.248	27.14
247.464	-19.97
247.681	12.8
247.898	-42.5
248.115	78.33
248.332	55.81
248.549	35.33
248.766	35.33
248.983	18.94
249.2	127.49
249.417	66.05
249.633	76.29
249.85	-26.11
250.067	-50.69
250.284	6.66
250.501	51.71
250.717	64
250.934	-58.88
251.151	61.95
251.368	-1.54
251.585	96.77
251.801	-1.54
252.018	18.94
252.235	2.56
252.451	-19.97
252.668	25.09
252.885	-44.54
253.102	39.42
253.318	49.66
253.535	-42.5
253.752	4.61
253.968	55.81
254.185	68.09
254.401	23.04
254.618	61.95
254.835	39.42
255.051	68.09
255.268	39.42
255.484	37.38
255.701	31.23
255.917	61.95
256.134	12.8
256.351	-3.58
256.567	6.66
256.784	96.77
257	-26.11
257.217	23.04
257.433	49.66
257.65	94.72
257.866	29.18
258.082	-60.93
258.299	10.75
258.515	49.66
258.732	-19.97
258.948	-50.69
259.165	88.57
259.381	64
259.597	-11.78
259.814	6.66
260.03	43.52
260.246	47.62
260.463	10.75
260.679	96.77
260.895	59.9
261.112	90.62
261.328	96.77
261.544	-1.54
261.761	129.53
261.977	61.95
262.193	-13.82
262.409	25.09
262.626	-3.58
262.842	41.47
263.058	12.8
263.274	25.09
263.49	-77.31
263.707	-26.11
263.923	27.14
264.139	27.14
264.355	-62.98
264.571	98.81
264.787	31.23
265.004	43.52
265.22	53.76
265.436	43.52
265.652	23.04
265.868	25.09
266.084	96.77
266.3	29.18
266.516	41.47
266.732	-54.78
266.948	72.19
267.164	-24.06
267.38	27.14
267.596	90.62
267.812	18.94
268.028	66.05
268.244	-5.63
268.46	90.62
268.676	-67.07
268.892	-26.11
269.108	-89.6
269.324	23.04
269.54	35.33
269.756	35.33
269.972	43.52
270.188	-26.11
270.403	51.71
270.619	156.16
270.835	33.28
271.051	25.09
271.267	-11.78
271.483	14.85
271.698	-5.63
271.914	-3.58
272.13	18.94
272.346	23.04
272.562	-17.92
272.777	0.51
272.993	2.56
273.209	16.9
273.425	-36.35
273.64	4.61
273.856	33.28
274.072	107.01
274.287	47.62
274.503	16.9
274.719	66.05
274.934	41.47
275.15	-3.58
275.366	-32.26
275.581	-15.87
275.797	-11.78
276.012	6.66
276.228	-38.4
276.444	-40.45
276.659	76.29
276.875	49.66
277.09	-28.16
277.306	45.57
277.521	90.62
277.737	27.14
277.952	-26.11
278.168	61.95
278.383	102.91
278.599	-44.54
278.814	82.43
279.03	6.66
279.245	20.99
279.461	-9.73
279.676	-22.02
279.892	-40.45
280.107	-1.54
280.322	23.04
280.538	-5.63
280.753	8.7
280.969	8.7
281.184	-3.58
281.399	57.86
281.615	2.56
281.83	37.38
282.045	-19.97
282.26	14.85
282.476	0.51
282.691	47.62
282.906	-48.64
283.122	-7.68
283.337	27.14
283.552	70.14
283.767	25.09
283.983	45.57
284.198	8.7
284.413	4.61
284.628	-19.97
284.843	31.23
285.058	33.28
285.274	68.09
285.489	39.42
285.704	35.33
285.919	55.81
286.134	-13.82
286.349	-13.82
286.564	0.51
286.779	47.62
286.995	-19.97
287.21	0.51
287.425	33.28
287.64	-60.93
287.855	-19.97
288.07	-42.5
288.285	23.04
288.5	-1.54
288.715	61.95
288.93	2.56
289.145	18.94
289.36	51.71
289.575	64
289.79	-9.73
290.004	16.9
290.219	-71.17
290.434	-52.74
290.649	27.14
290.864	35.33
291.079	-24.06
291.294	55.81
291.509	-1.54
291.724	-11.78
291.938	49.66
292.153	41.47
292.368	37.38
292.583	27.14
292.798	80.38
293.012	74.24
293.227	16.9
293.442	53.76
293.657	2.56
293.871	-11.78
294.086	43.52
294.301	47.62
294.516	0.51
294.73	107.01
294.945	-3.58
295.16	76.29
295.374	27.14
295.589	64
295.804	2.56
296.018	-17.92
296.233	70.14
296.447	-11.78
296.662	33.28
296.877	70.14
297.091	66.05
297.306	-3.58
297.52	45.57
297.735	23.04
297.949	64
298.164	33.28
298.378	35.33
298.593	33.28
298.807	16.9
299.022	10.75
299.236	33.28
299.451	72.19
299.665	59.9
299.88	59.9
300.094	-32.26
300.309	29.18
300.523	-24.06
300.737	37.38
300.952	-15.87
301.166	53.76
301.381	43.52
301.595	127.49
301.809	23.04
302.024	33.28
302.238	2.56
302.452	37.38
302.667	37.38
302.881	33.28
303.095	59.9
303.309	20.99
303.524	49.66
303.738	35.33
303.952	33.28
304.166	0.51
304.381	-19.97
304.595	74.24
304.809	0.51
305.023	29.18
305.237	-28.16
305.452	18.94
305.666	25.09
305.88	37.38
306.094	12.8
306.308	27.14
306.522	-5.63
306.736	0.51
306.95	-1.54
307.164	16.9
307.379	-5.63
307.593	61.95
307.807	45.57
308.021	84.48
308.235	59.9
308.449	49.66
308.663	16.9
308.877	37.38
309.091	47.62
309.305	45.57
309.519	57.86
309.733	70.14
309.947	8.7
310.161	47.62
310.374	-5.63
310.588	88.57
310.802	8.7
311.016	72.19
311.23	57.86
311.444	10.75
311.658	51.71
311.872	0.51
312.085	35.33
312.299	18.94
312.513	41.47
312.727	92.67
312.941	-28.16
313.154	113.15
313.368	-28.16
313.582	0.51
313.796	92.67
314.009	12.8
314.223	47.62
314.437	8.7
314.651	-13.82
314.864	41.47
315.078	16.9
315.292	18.94
315.505	45.57
315.719	29.18
315.933	2.56
316.146	14.85
316.36	29.18
316.573	33.28
316.787	-46.59
317.001	-22.02
317.214	16.9
317.428	59.9
317.641	-44.54
317.855	129.53
318.068	14.85
318.282	-9.73
318.495	4.61
318.709	37.38
318.922	-1.54
319.136	84.48
319.349	33.28
319.563	23.04
319.776	70.14
319.99	-48.64
320.203	-11.78
320.417	0.51
320.63	121.34
320.843	10.75
321.057	-5.63
321.27	-7.68
321.483	8.7
321.697	98.81
321.91	-9.73
322.124	104.96
322.337	-9.73
322.55	43.52
322.763	-13.82
322.977	25.09
323.19	47.62
323.403	2.56
323.617	23.04
323.83	35.33
324.043	20.99
324.256	16.9
324.469	31.23
324.683	121.34
324.896	94.72
325.109	12.8
325.322	113.15
325.535	-3.58
325.748	53.76
325.962	70.14
326.175	2.56
326.388	66.05
326.601	47.62
326.814	-1.54
327.027	6.66
327.24	51.71
327.453	-54.78
327.666	20.99
327.879	64
328.092	25.09
328.305	-32.26
328.518	-30.21
328.731	8.7
328.944	39.42
329.157	6.66
329.37	39.42
329.583	-5.63
329.796	57.86
330.009	49.66
330.222	25.09
330.435	59.9
330.648	-13.82
330.861	-13.82
331.073	37.38
331.286	25.09
331.499	-44.54
331.712	-22.02
331.925	49.66
332.138	10.75
332.35	33.28
332.563	16.9
332.776	27.14
332.989	-17.92
333.202	20.99
333.414	35.33
333.627	-15.87
333.84	-22.02
334.053	45.57
334.265	-13.82
334.478	66.05
334.691	-22.02
334.903	33.28
335.116	18.94
335.329	18.94
335.541	2.56
335.754	-46.59
335.966	49.66
336.179	10.75
336.392	23.04
336.604	12.8
336.817	16.9
337.029	43.52
337.242	35.33
337.454	86.53
337.667	-85.5
337.88	20.99
338.092	6.66
338.305	55.81
338.517	27.14
338.729	8.7
338.942	23.04
339.154	-67.07
339.367	-38.4
339.579	37.38
339.792	-77.31
340.004	68.09
340.217	33.28
340.429	-34.3
340.641	-9.73
340.854	61.95
341.066	4.61
341.278	84.48
341.491	29.18
341.703	18.94
341.915	41.47
342.128	39.42
342.34	-3.58
342.552	39.42
342.764	39.42
342.977	96.77
343.189	14.85
343.401	12.8
343.613	25.09
343.826	-17.92
344.038	25.09
344.25	16.9
344.462	12.8
344.674	16.9
344.886	14.85
345.099	27.14
345.311	25.09
345.523	66.05
345.735	4.61
345.947	84.48
346.159	8.7
346.371	80.38
346.583	6.66
346.795	90.62
347.007	-60.93
347.219	98.81
347.431	61.95
347.643	86.53
347.855	43.52
348.067	53.76
348.279	20.99
348.491	88.57
348.703	4.61
348.915	-15.87
349.127	76.29
349.339	-9.73
349.551	-19.97
349.763	66.05
349.975	107.01
350.187	8.7
350.399	61.95
350.61	41.47
350.822	49.66
351.034	57.86
351.246	49.66
351.458	78.33
351.669	-30.21
351.881	-30.21
352.093	72.19
352.305	-38.4
352.517	-30.21
352.728	39.42
352.94	23.04
353.152	47.62
353.363	107.01
353.575	61.95
353.787	-19.97
353.999	35.33
354.21	68.09
354.422	66.05
354.633	-3.58
354.845	14.85
355.057	20.99
355.268	-30.21
355.48	88.57
355.692	68.09
355.903	25.09
356.115	27.14
356.326	-9.73
356.538	-7.68
356.749	51.71
356.961	29.18
357.172	-7.68
357.384	16.9
357.595	88.57
357.807	47.62
358.018	41.47
358.23	-19.97
358.441	127.49
358.653	0.51
358.864	39.42
359.075	113.15
359.287	68.09
359.498	31.23
359.709	-52.74
359.921	31.23
360.132	59.9
360.344	41.47
360.555	-17.92
360.766	-11.78
360.977	31.23
361.189	64
361.4	37.38
361.611	-5.63
361.823	57.86
362.034	31.23
362.245	-5.63
362.456	-22.02
362.667	20.99
362.879	53.76
363.09	37.38
363.301	6.66
363.512	-9.73
363.723	18.94
363.935	86.53
364.146	31.23
364.357	18.94
364.568	18.94
364.779	53.76
364.99	43.52
365.201	-79.36
365.412	-5.63
365.623	66.05
365.834	70.14
366.045	68.09
366.256	-5.63
366.467	29.18
366.678	37.38
366.889	-5.63
367.1	-1.54
367.311	33.28
367.522	-30.21
367.733	-5.63
367.944	27.14
368.155	29.18
368.366	-19.97
368.577	-24.06
368.788	74.24
368.999	-7.68
369.209	102.91
369.42	12.8
369.631	27.14
369.842	8.7
370.053	-36.35
370.264	-3.58
370.474	43.52
370.685	39.42
370.896	39.42
371.107	64
371.317	37.38
371.528	43.52
371.739	86.53
371.95	6.66
372.16	-22.02
372.371	31.23
372.582	4.61
372.792	33.28
373.003	20.99
373.214	20.99
373.424	37.38
373.635	31.23
373.846	-36.35
374.056	-19.97
374.267	14.85
374.477	41.47
374.688	45.57
374.898	23.04
375.109	41.47
375.319	64
375.53	47.62
375.74	16.9
375.951	45.57
376.161	-13.82
376.372	43.52
376.582	-30.21
376.793	12.8
377.003	64
377.214	-7.68
377.424	-36.35
377.635	61.95
377.845	10.75
378.055	43.52
378.266	-11.78
378.476	88.57
378.686	-11.78
378.897	25.09
379.107	74.24
379.317	72.19
379.528	49.66
379.738	4.61
379.948	111.1
380.158	70.14
380.369	23.04
380.579	2.56
380.789	53.76
380.999	41.47
381.21	61.95
381.42	23.04
381.63	0.51
381.84	31.23
382.05	74.24
382.261	90.62
382.471	51.71
382.681	16.9
382.891	29.18
383.101	117.25
383.311	74.24
383.521	-30.21
383.731	111.1
383.941	20.99
384.151	41.47
384.361	27.14
384.571	35.33
384.781	31.23
384.991	-11.78
385.201	53.76
385.411	-24.06
385.621	2.56
385.831	35.33
386.041	68.09
386.251	-11.78
386.461	14.85
386.671	8.7
386.881	-7.68
387.091	12.8
387.301	37.38
387.511	53.76
387.72	29.18
387.93	84.48
388.14	45.57
388.35	45.57
388.56	55.81
388.769	27.14
388.979	-19.97
389.189	33.28
389.399	47.62
389.609	31.23
389.818	12.8
390.028	-22.02
390.238	92.67
390.447	-40.45
390.657	66.05
390.867	119.29
391.076	33.28
391.286	78.33
391.496	78.33
391.705	25.09
391.915	51.71
392.125	84.48
392.334	10.75
392.544	31.23
392.753	18.94
392.963	18.94
393.172	41.47
393.382	-44.54
393.591	51.71
393.801	49.66
394.01	61.95
394.22	64
394.429	25.09
394.639	2.56
394.848	78.33
395.058	49.66
395.267	43.52
395.477	104.96
395.686	66.05
395.895	41.47
396.105	88.57
396.314	33.28
396.524	109.05
396.733	43.52
396.942	39.42
397.152	33.28
397.361	61.95
397.57	59.9
397.78	41.47
397.989	16.9
398.198	139.77
398.407	4.61
398.617	66.05
398.826	78.33
399.035	23.04
399.244	117.25
399.453	49.66
399.663	12.8
399.872	61.95
400.081	47.62
400.29	133.63
400.499	20.99
400.708	90.62
400.917	68.09
401.127	94.72
401.336	92.67
401.545	92.67
401.754	41.47
401.963	82.43
402.172	74.24
402.381	37.38
402.59	111.1
402.799	10.75
403.008	-1.54
403.217	53.76
403.426	8.7
403.635	64
403.844	70.14
404.053	150.01
404.262	29.18
404.471	8.7
404.68	94.72
404.888	57.86
405.097	119.29
405.306	31.23
405.515	84.48
405.724	41.47
405.933	18.94
406.142	-3.58
406.35	72.19
406.559	92.67
406.768	51.71
406.977	2.56
407.185	29.18
407.394	127.49
407.603	96.77
407.812	109.05
408.02	72.19
408.229	113.15
408.438	33.28
408.646	150.01
408.855	10.75
409.064	137.73
409.272	135.68
409.481	160.25
409.69	72.19
409.898	90.62
410.107	84.48
410.315	236.03
410.524	197.12
410.733	6.66
410.941	96.77
411.15	115.2
411.358	68.09
411.567	115.2
411.775	188.93
411.984	158.21
412.192	174.59
412.401	135.68
412.609	176.64
412.818	258.56
413.026	262.65
413.234	217.6
413.443	119.29
413.651	184.83
413.86	141.82
414.068	211.45
414.276	188.93
414.485	246.27
414.693	311.8
414.901	295.42
415.11	266.75
415.318	143.87
415.526	223.74
415.734	199.16
415.943	233.98
416.151	254.46
416.359	223.74
416.567	309.76
416.776	252.41
416.984	227.84
417.192	315.9
417.4	295.42
417.608	233.98
417.817	248.32
418.025	338.43
418.233	401.91
418.441	340.47
418.649	307.71
418.857	420.35
419.065	432.63
419.273	383.48
419.481	393.72
419.689	473.59
419.897	449.02
420.105	449.02
420.313	496.12
420.521	518.65
420.729	537.08
420.937	506.36
421.145	608.76
421.353	588.28
421.561	551.42
421.769	555.51
421.977	715.25
422.185	580.09
422.393	684.53
422.601	717.3
422.809	696.82
423.017	639.48
423.224	754.16
423.432	834.04
423.64	881.14
423.848	891.38
424.056	879.09
424.263	872.95
424.471	948.72
424.679	856.56
424.887	983.54
425.094	922.1
425.302	942.58
425.51	928.24
425.718	1008.11
425.925	1020.4
426.133	1157.61
426.341	1098.22
426.548	1176.05
426.756	1174
426.964	1217.01
427.171	1272.3
427.379	1417.71
427.586	1298.92
427.794	1411.56
428.001	1395.18
428.209	1473
428.417	1384.94
428.624	1520.1
428.832	1645.03
429.039	1438.19
429.247	1550.82
429.454	1749.48
429.662	1755.62
429.869	1677.8
430.076	1800.68
430.284	1679.85
430.491	1825.25
430.699	1901.03
430.906	1829.35
431.114	2079.2
431.321	1954.27
431.528	2101.73
431.736	2193.89
431.943	2253.28
432.15	2243.04
432.358	2386.4
432.565	2449.88
432.772	2531.8
432.979	2484.7
433.187	2451.93
433.394	2564.57
433.601	2681.3
433.808	2675.16
434.016	2714.07
434.223	2806.23
434.43	3076.56
434.637	2910.68
434.844	3099.09
435.052	3101.14
435.259	3150.29
435.466	3154.38
435.673	3170.77
435.88	3371.47
436.087	3537.35
436.294	3674.57
436.501	3535.31
436.708	3545.55
436.915	3658.18
437.122	3828.17
437.329	3877.32
437.537	3871.17
437.743	4012.48
437.95	4030.91
438.157	4192.7
438.364	4243.9
438.571	4299.2
438.778	4385.21
438.985	4538.81
439.192	4501.95
439.399	4651.45
439.606	4643.26
439.813	4929.97
440.02	5106.1
440.227	5001.65
440.433	5128.63
440.64	5185.97
440.847	5237.17
441.054	5237.17
441.261	5575.08
441.467	5532.08
441.674	5691.82
441.881	5857.7
442.088	5781.93
442.294	5902.76
442.501	5913
442.708	6220.19
442.914	6293.92
443.121	6617.5
443.328	6470.05
443.534	6840.73
443.741	6617.5
443.948	6599.07
444.154	7057.81
444.361	6906.26
444.568	7188.88
444.774	7078.29
444.981	7324.05
445.187	7559.56
445.394	7625.1
445.6	7487.89
445.807	8231.3
446.013	7833.99
446.22	7985.54
446.426	8419.71
446.633	8384.9
446.839	8665.47
447.046	8454.53
447.252	8800.63
447.459	8661.37
447.665	8782.2
447.871	9240.95
448.078	9642.35
448.284	9220.47
448.491	9462.13
448.697	9757.04
448.903	9924.97
449.11	10133.86
449.316	9791.85
449.522	9814.38
449.728	10144.1
449.935	10332.51
450.141	10123.62
450.347	10568.03
450.553	10236.26
450.76	10035.56
450.966	10649.95
451.172	10561.89
451.378	10774.88
451.584	10535.26
451.791	10750.3
451.997	10838.36
452.203	11241.81
452.409	11252.05
452.615	10795.36
452.821	10512.74
453.027	10402.15
453.233	10783.07
453.44	10467.68
453.646	10555.74
453.852	10787.16
454.058	10848.6
454.264	10254.69
454.47	10756.44
454.676	10322.27
454.882	10643.81
455.088	9875.82
455.294	9865.58
455.5	10064.23
455.705	10287.46
455.911	9574.77
456.117	9482.61
456.323	9380.21
456.529	8786.3
456.735	9345.39
456.941	9054.58
457.147	9009.53
457.352	8585.6
457.558	8589.69
457.764	8595.84
457.97	8307.07
458.176	8176
458.381	8251.78
458.587	7727.5
458.793	7723.4
458.999	7258.51
459.204	8073.6
459.41	7715.21
459.616	7168.4
459.821	7408.01
460.027	7274.9
460.233	6902.17
460.438	6660.51
460.644	6893.97
460.85	6287.78
461.055	6384.03
461.261	6318.5
461.466	5824.94
461.672	5802.41
461.878	6201.76
462.083	5790.12
462.289	5527.98
462.494	5536.17
462.7	5214.64
462.905	5171.63
463.111	5425.58
463.316	5374.38
463.522	5274.03
463.727	5333.42
463.932	5335.47
464.138	5364.14
464.343	5179.82
464.549	5138.87
464.754	5192.11
464.959	5145.01
465.165	5216.69
465.37	4899.25
465.575	4954.55
465.781	4948.4
465.986	5044.66
466.191	4921.78
466.397	4817.33
466.602	4522.43
466.807	4620.73
467.012	4716.98
467.218	4759.99
467.423	4551.1
467.628	4626.87
467.833	4948.4
468.038	4671.93
468.244	4583.87
468.449	4690.36
468.654	4610.49
468.859	4602.3
469.064	4633.02
469.269	4428.22
469.474	4387.26
469.679	4487.61
469.885	4446.65
470.09	4403.64
470.295	4516.28
470.5	4104.64
470.705	4307.39
470.91	4264.38
471.115	4157.89
471.32	4213.18
471.525	4196.8
471.73	4129.22
471.935	4022.72
472.139	3944.9
472.344	3938.76
472.549	3981.76
472.754	3946.95
472.959	3951.04
473.164	3639.75
473.369	3785.16
473.574	3928.52
473.778	3760.58
473.983	3924.42
474.188	3862.98
474.393	3512.78
474.598	3539.4
474.802	3535.31
475.007	3471.82
475.212	3570.12
475.417	3383.76
475.621	3377.61
475.826	3394
476.031	3344.84
476.235	3254.73
476.44	3437
476.645	3336.65
476.849	3307.98
477.054	3174.86
477.259	3168.72
477.463	3277.26
477.668	3058.13
477.872	3170.77
478.077	3021.27
478.282	2968.02
478.486	2886.1
478.691	3082.7
478.895	3064.27
479.1	3072.47
479.304	3047.89
479.509	2945.49
479.713	2939.35
479.918	2988.5
480.122	2929.11
480.326	3058.13
480.531	2777.56
480.735	2896.34
480.94	2853.33
481.144	2888.15
481.348	2882
481.553	2832.85
481.757	2763.22
481.961	2834.9
482.166	2826.71
482.37	2814.42
482.574	2640.34
482.778	2853.33
482.983	2789.85
483.187	2818.52
483.391	2812.37
483.595	2818.52
483.8	2726.36
484.004	2800.09
484.208	2757.08
484.412	2597.34
484.616	2752.98
484.821	2705.88
485.025	2814.42
485.229	2810.33
485.433	2730.45
485.637	2849.24
485.841	2599.38
486.045	2712.02
486.249	2806.23
486.453	2656.73
486.657	2812.37
486.861	2847.19
487.065	2722.26
487.269	2752.98
487.473	2709.97
487.677	2691.54
487.881	2816.47
488.085	2806.23
488.289	2806.23
488.493	2843.09
488.697	2775.51
488.901	2800.09
489.105	2669.02
489.309	2818.52
489.512	2937.3
489.716	2830.8
489.92	2785.75
490.124	2828.76
490.328	2980.31
490.531	2865.62
490.735	2933.2
490.939	2845.14
491.143	2843.09
491.346	2879.96
491.55	2890.2
491.754	2912.72
491.958	2871.76
492.161	3084.75
492.365	3064.27
492.569	2933.2
492.772	2904.53
492.976	3035.6
493.18	3152.34
493.383	3176.91
493.587	3121.62
493.79	3135.95
493.994	3090.9
494.197	3135.95
494.401	3031.51
494.605	3252.69
494.808	3135.95
495.012	3199.44
495.215	3410.38
495.419	3365.32
495.622	3326.41
495.825	3412.43
496.029	3256.78
496.232	3473.87
496.436	3504.59
496.639	3469.77
496.843	3492.3
497.046	3529.16
497.249	3713.48
497.453	3492.3
497.656	3639.75
497.859	3756.49
498.063	3791.3
498.266	3826.12
498.469	3817.93
498.673	3846.6
498.876	3973.57
499.079	3922.37
499.282	3801.54
499.485	4035.01
499.689	4125.12
499.892	4260.29
500.095	4274.62
500.298	4446.65
500.501	4270.53
500.705	4305.34
500.908	4549.05
501.111	4538.81
501.314	4624.83
501.517	4673.98
501.72	4766.14
501.923	4651.45
502.126	4882.87
502.329	4803
502.532	4981.17
502.735	5061.04
502.938	5255.6
503.141	5200.3
503.344	5302.7
503.547	5206.45
503.75	5425.58
503.953	5384.62
504.156	5456.3
504.359	5583.27
504.562	5587.37
504.765	5792.17
504.968	5747.11
505.17	5980.58
505.373	5919.14
505.576	6054.31
505.779	6146.47
505.982	6259.1
506.185	6318.5
506.387	6394.27
506.59	6341.02
506.793	6486.43
506.996	6668.7
507.198	6807.96
507.401	6914.45
507.604	6853.02
507.807	7197.07
508.009	6984.09
508.212	7205.27
508.415	7281.04
508.617	7293.33
508.82	7553.42
509.022	7508.37
509.225	7651.72
509.428	7739.79
509.63	8001.93
509.833	8102.28
510.035	8231.3
510.238	8214.91
510.44	8282.5
510.643	8401.28
510.845	8327.55
511.048	8368.51
511.25	8767.87
511.453	8755.58
511.655	9134.45
511.858	9058.68
512.06	9240.95
512.262	9312.63
512.465	9523.57
512.667	9599.34
512.87	9855.34
513.072	9920.87
513.274	10031.46
513.477	10131.81
513.679	10260.84
513.881	10381.67
514.084	10531.17
514.286	10596.7
514.488	10871.13
514.69	11141.46
514.893	11231.57
515.095	11297.11
515.297	11465.04
515.499	11383.12
515.701	11649.36
515.904	11649.36
516.106	11874.63
516.308	12155.21
516.51	12128.58
516.712	12413.25
516.914	12697.92
517.116	12781.88
517.318	12822.84
517.52	12951.87
517.722	13091.13
517.925	13033.79
518.127	13586.74
518.329	13492.53
518.531	13781.29
518.733	14104.87
518.935	14258.47
519.136	14227.75
519.338	14688.54
519.54	14502.18
519.742	14883.1
519.944	15081.75
520.146	15290.65
520.348	15327.51
520.55	15395.09
520.752	15614.23
520.954	16183.56
521.155	15763.73
521.357	15880.46
521.559	16181.51
521.761	16535.81
521.963	16537.86
522.164	16818.43
522.366	16867.58
522.568	17244.41
522.77	17416.44
522.971	17287.42
523.173	17260.79
523.375	17772.78
523.576	17856.75
523.778	17840.37
523.98	18317.54
524.181	18278.63
524.383	18243.82
524.584	18581.73
524.786	18643.17
524.988	18426.09
525.189	18858.21
525.391	18966.75
525.592	19187.93
525.794	19312.86
525.995	19118.3
526.197	19523.8
526.398	19650.77
526.6	19720.4
526.801	19845.33
527.003	19904.72
527.204	19808.47
527.406	20140.24
527.607	20291.79
527.808	20476.1
528.01	20220.11
528.211	20424.9
528.412	21045.44
528.614	20553.93
528.815	20697.28
529.016	20689.09
529.218	20842.69
529.419	21223.61
529.62	21108.93
529.822	21004.48
530.023	21231.8
530.224	21108.93
530.425	21280.96
530.626	20961.47
530.828	21172.41
531.029	21676.21
531.23	21418.17
531.431	21680.31
531.632	21622.97
531.833	21831.86
532.035	22106.29
532.236	21762.23
532.437	21897.39
532.638	21838
532.839	22122.67
533.04	22071.47
533.241	22007.98
533.442	22241.45
533.643	21840.05
533.844	21926.07
534.045	22329.52
534.246	22085.81
534.447	22169.77
534.648	22161.58
534.849	22227.12
535.05	22194.35
535.251	22268.08
535.451	22134.96
535.652	22270.12
535.853	22460.59
536.054	22137.01
536.255	22667.43
536.456	22096.05
536.657	22419.63
536.857	22282.41
537.058	22010.03
537.259	22608.04
537.46	22368.43
537.66	22380.71
537.861	22399.15
538.062	22128.81
538.263	22358.19
538.463	22198.45
538.664	22288.56
538.865	22233.26
539.065	22538.41
539.266	21958.83
539.466	22792.36
539.667	22386.86
539.868	22505.64
540.068	22302.89
540.269	22280.36
540.469	22569.13
540.67	22528.17
540.87	22399.15
541.071	22573.22
541.271	22628.52
541.472	22405.29
541.672	22515.88
541.873	22536.36
542.073	21848.24
542.274	22644.9
542.474	22433.96
542.675	22562.98
542.875	22366.38
543.075	22610.09
543.276	22493.35
543.476	22610.09
543.676	22300.84
543.877	22730.92
544.077	22618.28
544.277	22315.18
544.478	22241.45
544.678	22509.74
544.878	22425.77
545.078	22458.54
545.279	22315.18
545.479	22114.48
545.679	22595.75
545.879	22511.78
546.079	22532.26
546.28	22528.17
546.48	22585.51
546.68	22126.77
546.88	22524.07
547.08	22591.66
547.28	22327.47
547.48	21944.5
547.68	22710.44
547.88	22202.54
548.081	22823.08
548.281	22544.55
548.481	22325.42
548.681	22454.44
548.881	22454.44
549.081	22294.7
549.28	22216.88
549.48	22735.01
549.68	22177.97
549.88	22902.95
550.08	22284.46
550.28	22425.77
550.48	22214.83
550.68	22544.55
550.88	22558.89
551.08	22329.52
551.279	22511.78
551.479	22540.46
551.679	22624.42
551.879	22335.66
552.079	22612.13
552.278	22479.02
552.478	22415.53
552.678	22833.32
552.878	22325.42
553.077	22382.76
553.277	22188.21
553.477	22626.47
553.676	22431.91
553.876	22192.3
554.076	22407.34
554.275	22235.31
554.475	22014.13
554.674	22137.01
554.874	22274.22
555.074	22143.15
555.273	22259.88
555.473	22452.39
555.672	21944.5
555.872	22073.52
556.071	21944.5
556.271	22196.4
556.47	21975.22
556.67	21768.37
556.869	21678.26
557.068	22253.74
557.268	21852.34
557.467	22081.71
557.667	22184.11
557.866	21883.06
558.065	21569.72
558.265	21694.64
558.464	21817.52
558.663	21874.87
558.863	21502.14
559.062	22042.8
559.261	21444.79
559.461	21878.96
559.66	21369.02
559.859	21663.93
560.058	21272.76
560.258	21194.94
560.457	21287.1
560.656	21096.64
560.855	21098.69
561.054	21350.59
561.253	21231.8
561.453	21397.69
561.652	21338.3
561.851	21199.04
562.05	21041.34
562.249	20904.13
562.448	20932.8
562.647	20926.66
562.846	21049.53
563.045	20801.73
563.244	20488.39
563.443	21090.49
563.642	20670.66
563.841	20553.93
564.04	20582.6
564.239	20797.63
564.438	20465.86
564.637	20719.81
564.836	20570.31
565.035	20304.07
565.234	20555.97
565.432	20365.51
565.631	20056.27
565.83	20500.68
566.029	20404.42
566.228	20107.47
566.427	20269.26
566.625	20154.57
566.824	19943.63
567.023	20121.8
567.222	19863.76
567.42	20005.07
567.619	19833.04
567.818	19890.38
568.016	19751.12
568.215	19982.54
568.414	19396.82
568.612	19726.55
568.811	19658.96
569.01	19230.94
569.208	19032.29
569.407	19691.73
569.605	19187.93
569.804	19294.43
570.002	18979.04
570.201	19183.84
570.4	18821.34
570.598	18731.23
570.797	19040.48
570.995	19015.9
571.193	18491.62
571.392	18723.04
571.59	18563.3
571.789	18581.73
571.987	18364.65
572.186	18561.25
572.384	18442.47
572.582	18381.03
572.781	18350.31
572.979	18172.14
573.177	18127.08
573.376	18202.86
573.574	17959.15
573.772	17950.96
573.971	17844.46
574.169	17701.11
574.367	17742.07
574.565	17783.02
574.763	17531.12
574.962	17737.97
575.16	17418.49
575.358	17453.3
575.556	17084.67
575.754	17481.97
575.952	17326.33
576.151	17418.49
576.349	17164.54
576.547	17127.67
576.745	16920.83
576.943	17135.87
577.141	16990.46
577.339	16824.58
577.537	17006.84
577.735	16468.23
577.933	16457.99
578.131	16558.34
578.329	16681.22
578.527	16546.05
578.725	16267.53
578.923	16640.26
579.121	16406.79
579.319	16169.23
579.516	16347.4
579.714	16206.09
579.912	15917.33
580.11	16181.51
580.308	16089.35
580.506	15874.32
580.704	15651.09
580.901	15878.41
581.099	15878.41
581.297	15550.74
581.495	15569.17
581.692	15653.14
581.89	15470.87
582.088	15382.81
582.285	15474.96
582.483	15354.13
582.681	15225.11
582.878	15343.89
583.076	15081.75
583.274	15139.1
583.471	15030.55
583.669	15173.91
583.866	14903.58
584.064	15157.53
584.262	15018.27
584.459	15048.99
584.657	14852.38
584.854	15089.95
585.052	14633.25
585.249	14655.78
585.447	14827.81
585.644	14344.49
585.841	14661.92
586.039	14698.78
586.236	14328.1
586.434	14291.24
586.631	14285.09
586.828	14213.42
587.026	14289.19
587.223	14199.08
587.42	13977.9
587.618	14358.82
587.815	13855.02
588.012	13889.84
588.21	14225.7
588.407	14072.11
588.604	13873.45
588.801	13881.64
588.999	13891.88
589.196	13777.2
589.393	13781.29
589.59	13783.34
589.787	13658.42
589.984	13515.06
590.182	13394.23
590.379	13816.11
590.576	13293.88
590.773	13381.94
590.97	13373.75
591.167	13295.93
591.364	13154.62
591.561	13349.17
591.758	13158.71
591.955	13314.36
592.152	13244.73
592.349	13013.31
592.546	13125.94
592.743	13052.22
592.94	13142.33
593.137	13136.18
593.334	12880.19
593.531	12710.21
593.727	12904.76
593.924	12800.32
594.121	12599.62
594.318	12589.38
594.515	12566.85
594.712	12773.69
594.908	12683.58
595.105	12706.11
595.302	12345.67
595.499	12441.92
595.696	12546.37
595.892	12560.7
596.089	12427.59
596.286	12368.2
596.482	12175.69
596.679	12257.6
596.876	12126.53
597.072	12327.24
597.269	12093.77
597.466	12015.94
597.662	11821.39
597.859	11985.23
598.055	12147.01
598.252	11884.87
598.448	11852.11
598.645	11680.08
598.841	11708.75
599.038	11817.29
599.234	11766.09
599.431	11743.56
599.627	11714.89
599.824	12017.99
600.02	11696.46
600.217	11630.93
600.413	11403.6
600.609	11649.36
600.806	11506
601.002	11409.75
601.198	11456.85
601.395	11219.28
601.591	11340.11
601.787	11313.49
601.984	11352.4
602.18	11317.59
602.376	11118.93
602.572	10910.04
602.769	11106.65
602.965	10842.46
603.161	11028.82
603.357	10987.86
603.553	10756.44
603.75	10961.24
603.946	10801.5
604.142	11065.69
604.338	10686.81
604.534	10824.03
604.73	10703.2
604.926	10627.42
605.122	10678.62
605.318	10525.02
605.514	10545.5
605.71	10473.82
605.906	10314.08
606.102	10252.64
606.298	10410.34
606.494	10264.93
606.69	10301.79
606.886	10258.79
607.082	10062.18
607.278	10183.01
607.474	10099.05
607.67	10117.48
607.866	9754.99
608.062	10109.29
608.257	10146.15
608.453	9894.25
608.649	9879.91
608.845	9730.41
609.041	10142.05
609.236	9916.78
609.432	9687.4
609.628	9681.26
609.824	9638.25
610.019	9691.5
610.215	9791.85
610.411	9693.55
610.606	9529.71
610.802	9546.09
610.998	9312.63
611.193	9564.53
611.389	9335.15
611.584	9447.79
611.78	9220.47
611.976	9175.41
612.171	9316.72
612.367	9290.1
612.562	9060.73
612.758	9255.28
612.953	9095.54
613.149	9159.03
613.344	9210.23
613.539	9144.69
613.735	9048.44
613.93	8855.93
614.126	8800.63
614.321	8982.9
614.517	9021.81
614.712	8665.47
614.907	8923.51
615.103	8837.5
615.298	8780.15
615.493	8794.49
615.688	8524.16
615.884	8763.77
616.079	8677.76
616.274	8665.47
616.47	8524.16
616.665	8630.65
616.86	8630.65
617.055	8395.14
617.25	8432
617.445	8403.33
617.641	8321.41
617.836	8415.62
618.031	8563.07
618.226	8333.7
618.421	8319.36
618.616	8505.73
618.811	8163.72
619.006	8262.02
619.201	8292.74
619.396	8321.41
619.591	7909.77
619.786	8077.7
619.981	7983.49
620.176	7967.11
620.371	7995.78
620.566	7938.44
620.761	7846.28
620.956	7864.71
621.151	7692.68
621.346	7926.15
621.541	7694.73
621.735	7770.51
621.93	7522.7
622.125	7653.77
622.32	7453.07
622.515	7537.04
622.709	7414.16
622.904	7489.93
623.099	7563.66
623.294	7309.71
623.488	7352.72
623.683	7102.87
623.878	7254.42
624.072	7168.4
624.267	7133.59
624.462	7043.48
624.656	6924.69
624.851	7049.62
625.046	6848.92
625.24	6744.47
625.435	6683.03
625.629	6783.38
625.824	6902.17
626.018	6748.57
626.213	6644.12
626.407	6756.76
626.602	6683.03
626.796	6744.47
626.991	6615.45
627.185	6441.37
627.38	6429.09
627.574	6517.15
627.768	6441.37
627.963	6461.85
628.157	6373.79
628.352	6381.98
628.546	6246.82
628.74	6420.89
628.935	6291.87
629.129	6234.53
629.323	6193.57
629.517	5990.82
629.712	6130.08
629.906	6025.64
630.1	6076.84
630.294	5984.68
630.489	5949.86
630.683	5992.87
630.877	5849.51
631.071	5892.52
631.265	5931.43
631.459	5851.56
631.653	5753.26
631.848	5831.08
632.042	5716.39
632.236	5816.74
632.43	5718.44
632.624	5779.88
632.818	5513.64
633.012	5521.84
633.206	5687.72
633.4	5460.4
633.594	5478.83
633.788	5501.36
633.982	5462.44
634.176	5401.01
634.369	5388.72
634.563	5360.05
634.757	5274.03
634.951	5358
635.145	5247.41
635.339	5288.37
635.533	5204.4
635.726	5312.94
635.92	5142.96
636.114	5120.43
636.308	5013.94
636.501	5042.61
636.695	5018.04
636.889	5102
637.083	5030.32
637.276	4968.88
637.47	5056.95
637.664	4903.35
637.857	4897.21
638.051	4835.77
638.244	4878.77
638.438	4794.81
638.632	4784.57
638.825	4872.63
639.019	4743.61
639.212	4604.35
639.406	4659.64
639.599	4633.02
639.793	4620.73
639.986	4520.38
640.18	4577.72
640.373	4540.86
640.567	4497.85
640.76	4473.28
640.954	4385.21
641.147	4350.4
641.34	4352.45
641.534	4372.93
641.727	4297.15
641.92	4370.88
642.114	4331.97
642.307	4239.81
642.5	4092.35
642.694	4204.99
642.887	4133.31
643.08	4106.69
643.273	4184.51
643.467	4067.78
643.66	4075.97
643.853	4059.59
644.046	3967.43
644.239	3971.52
644.432	3819.97
644.626	4030.91
644.819	3848.65
645.012	3905.99
645.205	3889.6
645.398	3776.97
645.591	3762.63
645.784	3817.93
645.977	3760.58
646.17	3686.86
646.363	3654.09
646.556	3572.17
646.749	3652.04
646.942	3541.45
647.135	3660.23
647.328	3547.59
647.521	3582.41
647.714	3469.77
647.907	3637.7
648.099	3453.39
648.292	3566.03
648.485	3484.11
648.678	3394
648.871	3432.91
649.064	3326.41
649.256	3350.99
649.449	3271.12
649.642	3330.51
649.835	3271.12
650.027	3119.57
650.22	3232.21
650.413	3211.73
650.605	3033.55
650.798	3158.48
650.991	3109.33
651.183	3109.33
651.376	3039.7
651.568	3025.36
651.761	3066.32
651.954	2965.97
652.146	2953.68
652.339	2918.87
652.531	3002.83
652.724	2888.15
652.916	3027.41
653.109	2814.42
653.301	2849.24
653.494	2851.28
653.686	2763.22
653.879	2791.89
654.071	2933.2
654.263	2785.75
654.456	2664.92
654.648	2830.8
654.84	2812.37
655.033	2740.69
655.225	2824.66
655.417	2714.07
655.61	2527.71
655.802	2519.51
655.994	2632.15
656.186	2804.18
656.379	2578.9
656.571	2605.53
656.763	2562.52
656.955	2560.47
657.148	2492.89
657.34	2546.14
657.532	2413.02
657.724	2380.25
657.916	2468.31
658.108	2451.93
658.3	2423.26
658.492	2204.13
658.684	2308.57
658.876	2284
659.068	2302.43
659.26	2355.68
659.452	2460.12
659.644	2230.75
659.836	2234.85
660.028	2318.81
660.22	2222.56
660.412	2222.56
660.604	2167.26
660.796	2267.61
660.988	2179.55
661.18	2175.45
661.372	2154.98
661.563	2173.41
661.755	2138.59
661.947	2023.91
662.139	2122.21
662.331	2079.2
662.522	2011.62
662.714	2013.67
662.906	1944.03
663.097	1976.8
663.289	1878.5
663.481	2025.95
663.673	1858.02
663.864	1905.12
664.056	1935.84
664.247	1937.89
664.439	1935.84
664.631	1989.09
664.822	1898.98
665.014	1913.31
665.205	1778.15
665.397	1919.46
665.588	1778.15
665.78	1778.15
665.971	1853.92
666.163	1749.48
666.354	1747.43
666.546	1776.1
666.737	1798.63
666.929	1677.8
667.12	1823.2
667.311	1694.18
667.503	1681.89
667.694	1681.89
667.885	1610.22
668.077	1583.59
668.268	1794.53
668.459	1731.05
668.651	1702.37
668.842	1636.84
669.033	1661.41
669.224	1661.41
669.416	1667.56
669.607	1604.07
669.798	1577.45
669.989	1587.69
670.18	1581.54
670.371	1579.5
670.563	1597.93
670.754	1583.59
670.945	1550.82
671.136	1565.16
671.327	1589.74
671.518	1552.87
671.709	1634.79
671.9	1614.31
672.091	1556.97
672.282	1479.15
672.473	1473
672.664	1456.62
672.855	1452.52
673.046	1440.23
673.237	1397.23
673.428	1483.24
673.619	1505.77
673.809	1427.95
674	1563.11
674.191	1429.99
674.382	1481.19
674.573	1505.77
674.764	1423.85
674.954	1438.19
675.145	1473
675.336	1468.91
675.527	1425.9
675.717	1434.09
675.908	1460.71
676.099	1509.86
676.289	1409.51
676.48	1354.22
676.671	1520.1
676.861	1507.82
677.052	1397.23
677.243	1421.8
677.433	1497.58
677.624	1432.04
677.814	1346.03
678.005	1421.8
678.195	1376.75
678.386	1323.5
678.576	1360.36
678.767	1358.32
678.957	1489.39
679.148	1286.64
679.338	1407.47
679.529	1413.61
679.719	1393.13
679.909	1468.91
680.1	1354.22
680.29	1380.84
680.481	1341.93
680.671	1348.08
680.861	1429.99
681.052	1454.57
681.242	1411.56
681.432	1370.6
681.622	1434.09
681.813	1325.55
682.003	1350.12
682.193	1343.98
682.383	1315.31
682.573	1354.22
682.764	1298.92
682.954	1393.13
683.144	1391.08
683.334	1448.43
683.524	1450.47
683.714	1331.69
683.904	1286.64
684.094	1393.13
684.284	1470.95
684.474	1440.23
684.664	1399.27
684.854	1411.56
685.044	1462.76
685.234	1376.75
685.424	1329.64
685.614	1382.89
685.804	1386.99
685.994	1432.04
686.184	1380.84
686.374	1438.19
686.564	1487.34
686.753	1411.56
686.943	1507.82
687.133	1280.49
687.323	1358.32
687.513	1407.47
687.702	1468.91
687.892	1352.17
688.082	1487.34
688.272	1409.51
688.461	1429.99
688.651	1384.94
688.841	1481.19
689.03	1434.09
689.22	1358.32
689.41	1411.56
689.599	1432.04
689.789	1413.61
689.979	1372.65
690.168	1436.14
690.358	1417.71
690.547	1380.84
690.737	1370.6
690.926	1360.36
691.116	1384.94
691.305	1522.15
691.495	1425.9
691.684	1419.75
691.874	1491.43
692.063	1448.43
692.252	1481.19
692.442	1438.19
692.631	1450.47
692.82	1475.05
693.01	1458.67
693.199	1454.57
693.388	1384.94
693.578	1450.47
693.767	1540.58
693.956	1499.63
694.146	1440.23
694.335	1407.47
694.524	1462.76
694.713	1440.23
694.902	1479.15
695.092	1378.79
695.281	1479.15
695.47	1462.76
695.659	1397.23
695.848	1493.48
696.037	1483.24
696.226	1481.19
696.415	1444.33
696.604	1534.44
696.793	1427.95
696.982	1538.54
697.171	1499.63
697.36	1618.41
697.549	1477.1
697.738	1577.45
697.927	1696.23
698.116	1634.79
698.305	1503.72
698.494	1438.19
698.683	1602.02
698.872	1569.26
699.061	1569.26
699.25	1526.25
699.438	1483.24
699.627	1624.55
699.816	1567.21
700.005	1610.22
700.193	1575.4
700.382	1524.2
700.571	1477.1
700.76	1507.82
700.948	1509.86
701.137	1538.54
701.326	1604.07
701.514	1661.41
701.703	1628.65
701.892	1518.06
702.08	1528.3
702.269	1571.3
702.457	1554.92
702.646	1565.16
702.834	1559.02
703.023	1606.12
703.212	1583.59
703.4	1583.59
703.589	1622.5
703.777	1589.74
703.965	1577.45
704.154	1589.74
704.342	1542.63
704.531	1556.97
704.719	1599.98
704.907	1473
705.096	1513.96
705.284	1511.91
705.472	1526.25
705.661	1556.97
705.849	1530.34
706.037	1532.39
706.226	1528.3
706.414	1569.26
706.602	1507.82
706.79	1454.57
706.979	1550.82
707.167	1491.43
707.355	1473
707.543	1362.41
707.731	1497.58
707.919	1440.23
708.107	1423.85
708.296	1505.77
708.484	1593.83
708.672	1544.68
708.86	1491.43
709.048	1341.93
709.236	1513.96
709.424	1475.05
709.612	1411.56
709.8	1440.23
709.988	1468.91
710.176	1489.39
710.364	1462.76
710.551	1397.23
710.739	1505.77
710.927	1393.13
711.115	1425.9
711.303	1374.7
711.491	1397.23
711.679	1407.47
711.866	1389.03
712.054	1391.08
712.242	1417.71
712.43	1427.95
712.617	1487.34
712.805	1346.03
712.993	1401.32
713.181	1288.68
713.368	1343.98
713.556	1339.88
713.744	1354.22
713.931	1376.75
714.119	1343.98
714.306	1245.68
714.494	1348.08
714.682	1327.6
714.869	1253.87
715.057	1300.97
715.244	1296.88
715.432	1298.92
715.619	1245.68
715.807	1331.69
715.994	1313.26
716.182	1356.27
716.369	1339.88
716.556	1294.83
716.744	1231.34
716.931	1333.74
717.119	1327.6
717.306	1296.88
717.493	1276.4
717.681	1253.87
717.868	1184.24
718.055	1247.72
718.242	1278.44
718.43	1251.82
718.617	1221.1
718.804	1249.77
718.991	1194.48
719.179	1229.29
719.366	1280.49
719.553	1329.64
719.74	1202.67
719.927	1204.72
720.114	1184.24
720.301	1255.92
720.488	1147.37
720.676	1202.67
720.863	1214.96
721.05	1245.68
721.237	1200.62
721.424	1143.28
721.611	1200.62
721.798	1139.18
721.985	1174
722.172	1075.7
722.358	1157.61
722.545	1112.56
722.732	1038.83
722.919	1206.77
723.106	1083.89
723.293	1178.09
723.48	1116.65
723.667	1124.85
723.853	1112.56
724.04	999.92
724.227	1110.51
724.414	1067.5
724.6	1151.47
724.787	1100.27
724.974	1110.51
725.161	1030.64
725.347	1092.08
725.534	1155.57
725.72	1137.13
725.907	1047.02
726.094	1098.22
726.28	1145.33
726.467	1073.65
726.653	1124.85
726.84	1012.21
727.027	1087.98
727.213	1053.17
727.4	954.87
727.586	1028.59
727.773	1090.03
727.959	997.87
728.145	1053.17
728.332	1022.45
728.518	1073.65
728.705	1083.89
728.891	1018.35
729.077	983.54
729.264	942.58
729.45	956.91
729.636	958.96
729.823	985.58
730.009	1057.26
730.195	946.67
730.382	983.54
730.568	971.25
730.754	1001.97
730.94	1032.69
731.126	946.67
731.313	1024.5
731.499	905.71
731.685	920.05
731.871	985.58
732.057	969.2
732.243	1098.22
732.429	1020.4
732.615	913.91
732.801	922.1
732.987	977.39
733.173	942.58
733.359	954.87
733.545	942.58
733.731	934.39
733.917	934.39
734.103	971.25
734.289	909.81
734.475	883.19
734.661	928.24
734.847	1069.55
735.033	995.82
735.219	848.37
735.404	913.91
735.59	889.33
735.776	903.67
735.962	918
736.148	897.52
736.333	877.04
736.519	854.51
736.705	899.57
736.89	872.95
737.076	901.62
737.262	954.87
737.447	885.23
737.633	846.32
737.819	780.79
738.004	866.8
738.19	885.23
738.375	782.84
738.561	934.39
738.747	834.04
738.932	831.99
739.118	911.86
739.303	852.47
739.489	879.09
739.674	844.28
739.859	819.7
740.045	809.46
740.23	797.17
740.416	756.21
740.601	831.99
740.786	885.23
740.972	848.37
741.157	850.42
741.342	782.84
741.528	801.27
741.713	809.46
741.898	684.53
742.084	836.08
742.269	741.88
742.454	821.75
742.639	840.18
742.824	766.45
743.01	774.64
743.195	803.32
743.38	782.84
743.565	805.36
743.75	821.75
743.935	686.58
744.12	788.98
744.305	666.1
744.49	711.16
744.675	756.21
744.86	655.86
745.045	592.37
745.23	764.4
745.415	655.86
745.6	756.21
745.785	727.54
745.97	756.21
746.155	616.95
746.34	731.64
746.525	737.78
746.71	723.44
746.895	608.76
747.079	764.4
747.264	707.06
747.449	696.82
747.634	676.34
747.819	682.49
748.003	655.86
748.188	610.81
748.373	676.34
748.557	655.86
748.742	635.38
748.927	676.34
749.111	590.33
749.296	627.19
749.481	748.02
749.665	633.33
749.85	557.56
750.034	641.53
750.219	662.01
750.404	649.72
750.588	672.25
750.773	598.52
750.957	575.99
751.141	610.81
751.326	588.28
751.51	596.47
751.695	625.14
751.879	582.14
752.064	541.18
752.248	569.85
752.432	592.37
752.617	563.7
752.801	543.22
752.985	578.04
753.17	639.48
753.354	573.94
753.538	510.46
753.722	580.09
753.907	520.7
754.091	530.94
754.275	530.94
754.459	526.84
754.643	561.66
754.828	547.32
755.012	547.32
755.196	535.03
755.38	555.51
755.564	438.78
755.748	637.43
755.932	487.93
756.116	528.89
756.3	467.45
756.484	489.98
756.668	483.83
756.852	455.16
757.036	528.89
757.22	532.98
757.404	489.98
757.588	455.16
757.772	469.5
757.956	481.78
758.14	494.07
758.323	477.69
758.507	492.02
758.691	496.12
758.875	498.17
759.059	481.78
759.242	496.12
759.426	444.92
759.61	393.72
759.794	416.25
759.977	426.49
760.161	455.16
760.345	496.12
760.528	436.73
760.712	426.49
760.895	463.35
761.079	416.25
761.263	487.93
761.446	381.43
761.63	426.49
761.813	410.11
761.997	430.59
762.18	459.26
762.364	442.87
762.547	397.82
762.731	459.26
762.914	375.29
763.098	363
763.281	406.01
763.464	375.29
763.648	440.83
763.831	360.95
764.015	496.12
764.198	385.53
764.381	385.53
764.564	391.67
764.748	369.15
764.931	440.83
765.114	410.11
765.297	385.53
765.481	320
765.664	461.3
765.847	414.2
766.03	356.86
766.213	365.05
766.397	408.06
766.58	387.58
766.763	494.07
766.946	397.82
767.129	303.61
767.312	391.67
767.495	328.19
767.678	363
767.861	352.76
768.044	322.04
768.227	320
768.41	344.57
768.593	465.4
768.776	410.11
768.959	377.34
769.142	360.95
769.324	397.82
769.507	350.71
769.69	344.57
769.873	299.52
770.056	352.76
770.239	391.67
770.421	360.95
770.604	311.8
770.787	317.95
770.97	328.19
771.152	350.71
771.335	377.34
771.518	272.89
771.7	381.43
771.883	367.1
772.066	225.79
772.248	358.91
772.431	410.11
772.613	307.71
772.796	344.57
772.978	340.47
773.161	301.56
773.343	270.84
773.526	348.67
773.708	293.37
773.891	320
774.073	301.56
774.256	276.99
774.438	330.23
774.621	297.47
774.803	254.46
774.985	295.42
775.168	358.91
775.35	219.64
775.532	352.76
775.715	379.39
775.897	215.55
776.079	287.23
776.261	311.8
776.444	360.95
776.626	305.66
776.808	313.85
776.99	225.79
777.173	274.94
777.355	303.61
777.537	176.64
777.719	315.9
777.901	317.95
778.083	272.89
778.265	285.18
778.447	332.28
778.629	281.08
778.811	264.7
778.993	236.03
779.175	213.5
779.357	242.17
779.539	166.4
779.721	299.52
779.903	203.26
780.085	221.69
780.267	250.36
780.449	162.3
780.631	260.6
780.812	268.8
780.994	188.93
781.176	203.26
781.358	225.79
781.54	315.9
781.721	281.08
781.903	248.32
782.085	174.59
782.267	227.84
782.448	266.75
782.63	250.36
782.812	158.21
782.993	205.31
783.175	266.75
783.357	236.03
783.538	250.36
783.72	217.6
783.901	213.5
784.083	182.78
784.264	231.93
784.446	176.64
784.627	227.84
784.809	199.16
784.99	272.89
785.172	250.36
785.353	223.74
785.535	162.3
785.716	221.69
785.897	209.4
786.079	221.69
786.26	219.64
786.441	137.73
786.623	121.34
786.804	254.46
786.985	217.6
787.167	221.69
787.348	164.35
787.529	229.88
787.71	207.36
787.891	135.68
788.073	172.54
788.254	107.01
788.435	143.87
788.616	147.97
788.797	107.01
788.978	127.49
789.159	145.92
789.34	268.8
789.522	164.35
789.703	55.81
789.884	197.12
790.065	217.6
790.246	240.12
790.427	94.72
790.607	188.93
790.788	172.54
790.969	104.96
791.15	166.4
791.331	119.29
791.512	111.1
791.693	137.73
791.874	174.59
792.054	195.07
792.235	188.93
792.416	66.05
792.597	141.82
792.778	72.19
792.958	133.63
793.139	27.14
793.32	168.45
793.5	158.21
793.681	195.07
793.862	186.88
794.042	68.09
794.223	180.73
794.404	168.45
794.584	129.53
794.765	197.12
794.945	119.29
795.126	150.01
795.306	156.16
795.487	123.39
795.667	150.01
795.848	147.97
796.028	152.06
796.209	158.21
796.389	147.97
796.57	201.21
796.75	70.14
796.93	117.25
797.111	137.73
797.291	125.44
797.471	78.33
797.652	147.97
797.832	115.2
798.012	133.63
798.192	98.81
798.373	70.14
798.553	98.81
798.733	47.62
798.913	66.05
799.093	119.29
799.274	55.81
799.454	117.25
799.634	64
799.814	119.29
799.994	135.68
800.174	92.67
800.354	107.01
800.534	82.43
800.714	193.02
800.894	84.48
801.074	109.05
801.254	209.4
801.434	188.93
801.614	43.52
801.794	41.47
801.974	281.08
802.154	64
802.334	150.01
802.514	16.9
802.693	72.19
802.873	139.77
803.053	84.48
803.233	168.45
803.413	133.63
803.592	57.86
803.772	39.42
803.952	119.29
804.131	82.43
804.311	113.15
804.491	20.99
804.67	158.21
804.85	104.96
805.03	39.42
805.209	92.67
805.389	100.86
805.568	201.21
805.748	154.11
805.928	45.57
806.107	84.48
806.287	123.39
806.466	90.62
806.646	135.68
806.825	117.25
807.004	119.29
807.184	94.72
807.363	147.97
807.543	-3.58
807.722	92.67
807.901	92.67
808.081	139.77
808.26	25.09
808.439	92.67
808.619	27.14
808.798	92.67
808.977	53.76
809.156	78.33
809.336	135.68
809.515	133.63
809.694	4.61
809.873	82.43
810.052	147.97
810.231	100.86
810.411	49.66
810.59	125.44
810.769	33.28
810.948	57.86
811.127	78.33
811.306	74.24
811.485	72.19
811.664	59.9
811.843	74.24
812.022	43.52
812.201	59.9
812.38	27.14
812.559	31.23
812.737	82.43
812.916	121.34
813.095	111.1
813.274	88.57
813.453	-24.06
813.632	117.25
813.811	68.09
813.989	86.53
814.168	92.67
814.347	64
814.526	27.14
814.704	137.73
814.883	100.86
815.062	55.81
815.24	80.38
815.419	84.48
815.598	98.81
815.776	8.7
815.955	109.05
816.133	41.47
816.312	100.86
816.49	33.28
816.669	-22.02
816.847	78.33
817.026	279.04
817.204	59.9
817.383	82.43
817.561	29.18
817.74	88.57
817.918	57.86
818.097	29.18
818.275	39.42
818.453	47.62
818.632	123.39
818.81	98.81
818.988	31.23
819.167	33.28
819.345	45.57
819.523	53.76
819.701	55.81
819.879	100.86
820.058	-32.26
820.236	-3.58
820.414	53.76
820.592	45.57
820.77	4.61
820.948	2.56
821.127	57.86
821.305	8.7
821.483	57.86
821.661	80.38
821.839	-30.21
822.017	47.62
822.195	78.33
822.373	68.09
822.551	4.61
822.729	68.09
822.907	12.8
823.085	111.1
823.262	45.57
823.44	80.38
823.618	-54.78
823.796	68.09
823.974	59.9
824.152	199.16
824.329	76.29
824.507	27.14
824.685	-9.73
824.863	86.53
825.04	35.33
825.218	6.66
825.396	66.05
825.574	104.96
825.751	70.14
825.929	47.62
826.107	39.42
826.284	68.09
826.462	109.05
826.639	57.86
826.817	25.09
826.994	119.29
827.172	8.7
827.349	74.24
827.527	10.75
827.704	92.67
827.882	51.71
828.059	-22.02
828.237	47.62
828.414	29.18
828.591	45.57
828.769	84.48
828.946	-11.78
829.124	90.62
829.301	113.15
829.478	51.71
829.655	-11.78
829.833	25.09
830.01	70.14
830.187	45.57
830.364	39.42
830.542	47.62
830.719	57.86
830.896	96.77
831.073	123.39
831.25	92.67
831.427	-22.02
831.604	8.7
831.782	70.14
831.959	20.99
832.136	98.81
832.313	14.85
832.49	70.14
832.667	20.99
832.844	41.47
833.021	59.9
833.198	27.14
833.374	-30.21
833.551	113.15
833.728	80.38
833.905	-15.87
834.082	23.04
834.259	14.85
834.436	-30.21
834.612	104.96
834.789	84.48
834.966	51.71
835.143	25.09
835.319	20.99
835.496	-7.68
835.673	68.09
835.85	68.09
836.026	64
836.203	14.85
836.38	88.57
836.556	96.77
836.733	59.9
836.909	-1.54
837.086	43.52
837.262	18.94
837.439	72.19
837.616	86.53
837.792	10.75
837.968	92.67
838.145	31.23
838.321	53.76
838.498	-50.69
838.674	88.57
838.851	-24.06
839.027	96.77
839.203	-22.02
839.38	45.57
839.556	41.47
839.732	35.33
839.909	102.91
840.085	76.29
840.261	43.52
840.437	-17.92
840.614	84.48
840.79	53.76
840.966	20.99
841.142	66.05
841.318	16.9
841.494	-22.02
841.671	25.09
841.847	39.42
842.023	-7.68
842.199	12.8
842.375	45.57
842.551	43.52
842.727	41.47
842.903	64
843.079	-26.11
843.255	68.09
843.431	23.04
843.607	49.66
843.783	-30.21
843.959	53.76
844.134	27.14
844.31	45.57
844.486	-44.54
844.662	59.9
844.838	37.38
845.013	96.77
845.189	-36.35
845.365	27.14
845.541	4.61
845.716	68.09
845.892	-17.92
846.068	33.28
846.244	29.18
846.419	-15.87
846.595	-42.5
846.77	41.47
846.946	-5.63
847.122	16.9
847.297	25.09
847.473	2.56
847.648	61.95
847.824	20.99
847.999	49.66
848.175	8.7
848.35	-42.5
848.526	4.61
848.701	-30.21
848.876	59.9
849.052	33.28
849.227	-56.83
849.403	23.04
849.578	39.42
849.753	41.47
849.929	78.33
850.104	12.8
850.279	49.66
850.454	25.09
850.63	90.62
850.805	31.23
850.98	39.42
851.155	104.96
851.33	107.01
851.505	61.95
851.681	43.52
851.856	18.94
852.031	31.23
852.206	-3.58
852.381	23.04
852.556	-34.3
852.731	16.9
852.906	78.33
853.081	29.18
853.256	45.57
853.431	43.52
853.606	25.09
853.781	66.05
853.956	-9.73
854.131	33.28
854.305	23.04
854.48	57.86
854.655	35.33
854.83	47.62
855.005	-46.59
855.18	31.23
855.354	61.95
855.529	20.99
855.704	-40.45
855.879	31.23
856.053	37.38
856.228	-5.63
856.403	-5.63
856.577	33.28
856.752	18.94
856.926	6.66
857.101	-44.54
857.276	-40.45
857.45	43.52
857.625	64
857.799	-22.02
857.974	-5.63
858.148	18.94
858.323	-48.64
858.497	33.28
858.672	29.18
858.846	-9.73
859.02	29.18
859.195	-44.54
859.369	37.38
859.543	37.38
859.718	-24.06
859.892	-1.54
860.066	-50.69
860.241	2.56
860.415	8.7
860.589	-50.69
860.763	-9.73
860.938	27.14
861.112	41.47
861.286	-17.92
861.46	45.57
861.634	35.33
861.808	57.86
861.982	-1.54
862.157	8.7
862.331	2.56
862.505	0.51
862.679	-44.54
862.853	31.23
863.027	-50.69
863.201	23.04
863.375	8.7
863.549	33.28
863.722	55.81
863.896	10.75
864.07	76.29
864.244	68.09
864.418	55.81
864.592	-11.78
864.766	20.99
864.939	-5.63
865.113	49.66
865.287	23.04
865.461	86.53
865.634	92.67
865.808	4.61
865.982	27.14
866.156	10.75
866.329	29.18
866.503	45.57
866.676	0.51
866.85	35.33
867.024	20.99
867.197	16.9
867.371	-5.63
867.544	-24.06
867.718	8.7
867.891	61.95
868.065	-15.87
868.238	0.51
868.412	20.99
868.585	84.48
868.759	16.9
868.932	68.09
869.105	14.85
869.279	23.04
869.452	18.94
869.625	6.66
869.799	-5.63
869.972	70.14
870.145	-19.97
870.319	-30.21
870.492	82.43
870.665	2.56
870.838	20.99
871.011	-11.78
871.185	-1.54
871.358	-1.54
871.531	20.99
871.704	-11.78
871.877	37.38
872.05	8.7
872.223	-9.73
872.396	64
872.569	14.85
872.742	0.51
872.915	4.61
873.088	-24.06
873.261	47.62
873.434	6.66
873.607	18.94
873.78	10.75
873.953	84.48
874.126	68.09
874.299	39.42
874.471	4.61
874.644	10.75
874.817	-19.97
874.99	37.38
875.163	102.91
875.335	113.15
875.508	-17.92
875.681	88.57
875.853	-32.26
876.026	49.66
876.199	-34.3
876.371	51.71
876.544	-5.63
876.717	10.75
876.889	72.19
877.062	104.96
877.234	-52.74
877.407	20.99
877.579	53.76
877.752	-7.68
877.924	-65.02
878.097	-54.78
878.269	-5.63
878.442	82.43
878.614	45.57
878.786	2.56
878.959	-26.11
879.131	90.62
879.303	4.61
879.476	12.8
879.648	20.99
879.82	51.71
879.993	6.66
880.165	29.18
880.337	29.18
880.509	16.9
880.681	-19.97
880.854	-17.92
881.026	-36.35
881.198	107.01
881.37	16.9
881.542	-26.11
881.714	-26.11
881.886	66.05
882.058	82.43
882.23	-3.58
882.402	8.7
882.574	10.75
882.746	20.99
882.918	131.58
883.09	-19.97
883.262	45.57
883.434	68.09
883.606	20.99
883.778	-67.07
883.95	43.52
884.122	86.53
884.293	49.66
884.465	-26.11
884.637	33.28
884.809	43.52
884.98	14.85
885.152	20.99
885.324	-15.87
885.496	-5.63
885.667	53.76
885.839	41.47
886.011	53.76
886.182	-42.5
886.354	29.18
886.525	2.56
886.697	10.75
886.869	-7.68
887.04	-17.92
887.212	27.14
887.383	72.19
887.555	-3.58
887.726	4.61
887.897	-22.02
888.069	31.23
888.24	37.38
888.412	45.57
888.583	-15.87
888.754	27.14
888.926	68.09
889.097	33.28
889.268	-7.68
889.44	-7.68
889.611	-36.35
889.782	31.23
889.953	6.66
890.125	29.18
890.296	37.38
890.467	-40.45
890.638	-83.45
890.809	2.56
890.98	66.05
891.151	25.09
891.323	2.56
891.494	-1.54
891.665	29.18
891.836	70.14
892.007	-36.35
892.178	66.05
892.349	-22.02
892.52	-11.78
892.691	41.47
892.862	33.28
893.032	-26.11
893.203	16.9
893.374	20.99
893.545	53.76
893.716	2.56
893.887	8.7
894.057	53.76
894.228	-28.16
894.399	20.99
894.57	31.23
894.74	8.7
894.911	51.71
895.082	-26.11
895.253	53.76
895.423	25.09
895.594	-40.45
895.764	27.14
895.935	31.23
896.106	-30.21
896.276	16.9
896.447	4.61
896.617	20.99
896.788	53.76
896.958	12.8
897.129	-36.35
897.299	39.42
897.47	-75.26
897.64	-5.63
897.81	12.8
897.981	-28.16
898.151	16.9
898.322	90.62
898.492	-9.73
898.662	20.99
898.832	-48.64
899.003	35.33
899.173	-46.59
899.343	16.9
899.513	78.33
