Data from USB4F104151__54__13-53-30-497.txt Node

Date: Thu Mar 13 13:53:30 EDT 2025
User: louis
Spectrometer: USB4F10415
Trigger mode: 4
Integration Time (sec): 1.000000E-2
Scans to average: 1
Electric dark correction enabled: true
Nonlinearity correction enabled: false
Boxcar width: 0
XAxis mode: Wavelengths
Number of Pixels in Spectrum: 3648
>>>>>Begin Spectral Data<<<<<
178.204	8.53
178.424	8.53
178.644	8.53
178.864	-83.63
179.084	-5.8
179.304	-13.99
179.524	26.96
179.744	-34.47
179.964	-65.19
180.184	-24.23
180.404	26.96
180.624	18.77
180.844	29.01
181.064	24.92
181.283	-20.14
181.503	10.58
181.723	20.82
181.943	0.34
182.163	51.54
182.383	45.4
182.602	6.49
182.822	47.44
183.042	43.35
183.262	49.49
183.482	-24.23
183.701	-18.09
183.921	24.92
184.141	20.82
184.361	63.83
184.58	41.3
184.8	35.16
185.02	12.63
185.239	26.96
185.459	4.44
185.679	31.06
185.898	16.73
186.118	47.44
186.338	-18.09
186.557	18.77
186.777	2.39
186.997	123.22
187.216	-28.33
187.436	74.07
187.655	53.59
187.875	78.16
188.095	22.87
188.314	61.78
188.534	69.97
188.753	26.96
188.973	63.83
189.192	29.01
189.412	39.25
189.631	12.63
189.851	-20.14
190.07	-7.85
190.29	20.82
190.509	57.68
190.729	8.53
190.948	86.36
191.168	37.2
191.387	94.55
191.607	-13.99
191.826	-24.23
192.045	55.64
192.265	57.68
192.484	57.68
192.704	94.55
192.923	-13.99
193.142	96.6
193.362	35.16
193.581	112.98
193.8	10.58
194.02	37.2
194.239	57.68
194.458	8.53
194.678	49.49
194.897	45.4
195.116	47.44
195.335	37.2
195.555	22.87
195.774	35.16
195.993	65.88
196.212	57.68
196.432	8.53
196.651	29.01
196.87	55.64
197.089	-9.9
197.308	49.49
197.528	14.68
197.747	-36.52
197.966	35.16
198.185	49.49
198.404	4.44
198.623	-18.09
198.842	33.11
199.062	6.49
199.281	59.73
199.5	24.92
199.719	80.21
199.938	-26.28
200.157	57.68
200.376	20.82
200.595	-1.71
200.814	33.11
201.033	8.53
201.252	53.59
201.471	43.35
201.69	2.39
201.909	18.77
202.128	31.06
202.347	0.34
202.566	-48.81
202.785	-24.23
203.004	37.2
203.223	106.84
203.442	45.4
203.661	31.06
203.879	39.25
204.098	63.83
204.317	143.7
204.536	41.3
204.755	29.01
204.974	8.53
205.193	76.12
205.411	43.35
205.63	98.64
205.849	31.06
206.068	18.77
206.287	22.87
206.505	12.63
206.724	-5.8
206.943	31.06
207.162	86.36
207.381	55.64
207.599	82.26
207.818	24.92
208.037	67.92
208.255	-59.05
208.474	72.02
208.693	37.2
208.911	45.4
209.13	20.82
209.349	155.99
209.567	-3.75
209.786	39.25
210.005	63.83
210.223	18.77
210.442	-9.9
210.661	41.3
210.879	65.88
211.098	-5.8
211.316	-26.28
211.535	-34.47
211.753	115.03
211.972	63.83
212.191	43.35
212.409	14.68
212.628	-20.14
212.846	47.44
213.065	8.53
213.283	74.07
213.502	65.88
213.72	96.6
213.938	16.73
214.157	-18.09
214.375	2.39
214.594	39.25
214.812	14.68
215.031	-16.04
215.249	4.44
215.467	-18.09
215.686	-46.76
215.904	53.59
216.122	29.01
216.341	16.73
216.559	24.92
216.778	37.2
216.996	18.77
217.214	88.4
217.432	-11.95
217.651	100.69
217.869	2.39
218.087	31.06
218.306	-16.04
218.524	88.4
218.742	98.64
218.96	57.68
219.179	-18.09
219.397	98.64
219.615	-3.75
219.833	41.3
220.051	18.77
220.27	-18.09
220.488	55.64
220.706	37.2
220.924	18.77
221.142	65.88
221.36	37.2
221.578	24.92
221.796	-36.52
222.015	69.97
222.233	22.87
222.451	45.4
222.669	45.4
222.887	-1.71
223.105	29.01
223.323	41.3
223.541	-18.09
223.759	59.73
223.977	26.96
224.195	115.03
224.413	8.53
224.631	53.59
224.849	49.49
225.067	59.73
225.285	18.77
225.503	49.49
225.721	22.87
225.939	16.73
226.157	106.84
226.375	41.3
226.592	24.92
226.81	24.92
227.028	10.58
227.246	117.08
227.464	37.2
227.682	72.02
227.9	63.83
228.117	12.63
228.335	0.34
228.553	39.25
228.771	47.44
228.989	92.5
229.206	-36.52
229.424	74.07
229.642	65.88
229.86	43.35
230.077	53.59
230.295	18.77
230.513	100.69
230.731	-16.04
230.948	57.68
231.166	37.2
231.384	-5.8
231.601	24.92
231.819	-9.9
232.037	51.54
232.254	-13.99
232.472	86.36
232.689	-1.71
232.907	6.49
233.125	22.87
233.342	-7.85
233.56	26.96
233.777	39.25
233.995	43.35
234.213	41.3
234.43	6.49
234.648	20.82
234.865	49.49
235.083	51.54
235.3	2.39
235.518	6.49
235.735	61.78
235.953	41.3
236.17	33.11
236.388	39.25
236.605	67.92
236.822	29.01
237.04	14.68
237.257	2.39
237.475	-26.28
237.692	31.06
237.909	24.92
238.127	37.2
238.344	35.16
238.562	10.58
238.779	47.44
238.996	63.83
239.214	26.96
239.431	0.34
239.648	29.01
239.865	49.49
240.083	182.61
240.3	26.96
240.517	41.3
240.735	74.07
240.952	45.4
241.169	26.96
241.386	-22.19
241.603	20.82
241.821	31.06
242.038	39.25
242.255	143.7
242.472	104.79
242.689	33.11
242.907	45.4
243.124	-3.75
243.341	41.3
243.558	37.2
243.775	39.25
243.992	12.63
244.209	14.68
244.426	92.5
244.643	24.92
244.86	59.73
245.078	45.4
245.295	84.31
245.512	51.54
245.729	2.39
245.946	63.83
246.163	94.55
246.38	16.73
246.597	35.16
246.814	53.59
247.031	20.82
247.248	0.34
247.464	45.4
247.681	76.12
247.898	-28.33
248.115	31.06
248.332	0.34
248.549	55.64
248.766	-28.33
248.983	72.02
249.2	26.96
249.417	63.83
249.633	2.39
249.85	51.54
250.067	-28.33
250.284	63.83
250.501	16.73
250.717	-3.75
250.934	33.11
251.151	43.35
251.368	63.83
251.585	80.21
251.801	63.83
252.018	-16.04
252.235	45.4
252.451	6.49
252.668	35.16
252.885	53.59
253.102	14.68
253.318	53.59
253.535	65.88
253.752	-16.04
253.968	-1.71
254.185	96.6
254.401	-11.95
254.618	-11.95
254.835	100.69
255.051	86.36
255.268	51.54
255.484	26.96
255.701	-26.28
255.917	125.27
256.134	39.25
256.351	135.51
256.567	29.01
256.784	59.73
257	80.21
257.217	47.44
257.433	72.02
257.65	26.96
257.866	45.4
258.082	51.54
258.299	37.2
258.515	104.79
258.732	-3.75
258.948	29.01
259.165	29.01
259.381	4.44
259.597	47.44
259.814	39.25
260.03	33.11
260.246	65.88
260.463	35.16
260.679	33.11
260.895	90.45
261.112	31.06
261.328	0.34
261.544	49.49
261.761	45.4
261.977	-20.14
262.193	-40.62
262.409	4.44
262.626	43.35
262.842	26.96
263.058	-46.76
263.274	37.2
263.49	72.02
263.707	41.3
263.923	35.16
264.139	12.63
264.355	22.87
264.571	67.92
264.787	12.63
265.004	-5.8
265.22	26.96
265.436	37.2
265.652	67.92
265.868	29.01
266.084	53.59
266.3	-7.85
266.516	80.21
266.732	51.54
266.948	92.5
267.164	14.68
267.38	98.64
267.596	69.97
267.812	74.07
268.028	63.83
268.244	47.44
268.46	39.25
268.676	63.83
268.892	125.27
269.108	18.77
269.324	88.4
269.54	-34.47
269.756	31.06
269.972	-79.53
270.188	88.4
270.403	26.96
270.619	10.58
270.835	88.4
271.051	18.77
271.267	-9.9
271.483	22.87
271.698	100.69
271.914	78.16
272.13	12.63
272.346	61.78
272.562	47.44
272.777	-1.71
272.993	10.58
273.209	69.97
273.425	63.83
273.64	129.36
273.856	72.02
274.072	45.4
274.287	-46.76
274.503	80.21
274.719	-1.71
274.934	47.44
275.15	-52.91
275.366	61.78
275.581	59.73
275.797	2.39
276.012	-11.95
276.228	65.88
276.444	47.44
276.659	41.3
276.875	18.77
277.09	78.16
277.306	51.54
277.521	16.73
277.737	-18.09
277.952	65.88
278.168	-42.67
278.383	100.69
278.599	43.35
278.814	121.17
279.03	106.84
279.245	108.88
279.461	18.77
279.676	88.4
279.892	-50.86
280.107	-59.05
280.322	55.64
280.538	108.88
280.753	65.88
280.969	35.16
281.184	74.07
281.399	22.87
281.615	-7.85
281.83	78.16
282.045	29.01
282.26	22.87
282.476	8.53
282.691	37.2
282.906	51.54
283.122	18.77
283.337	14.68
283.552	-13.99
283.767	67.92
283.983	69.97
284.198	29.01
284.413	96.6
284.628	106.84
284.843	-13.99
285.058	59.73
285.274	8.53
285.489	8.53
285.704	6.49
285.919	-1.71
286.134	53.59
286.349	-9.9
286.564	2.39
286.779	8.53
286.995	55.64
287.21	22.87
287.425	-13.99
287.64	16.73
287.855	24.92
288.07	6.49
288.285	41.3
288.5	45.4
288.715	49.49
288.93	55.64
289.145	84.31
289.36	86.36
289.575	49.49
289.79	-22.19
290.004	39.25
290.219	59.73
290.434	16.73
290.649	65.88
290.864	31.06
291.079	10.58
291.294	-11.95
291.509	67.92
291.724	14.68
291.938	39.25
292.153	39.25
292.368	20.82
292.583	14.68
292.798	6.49
293.012	8.53
293.227	-46.76
293.442	76.12
293.657	-36.52
293.871	53.59
294.086	55.64
294.301	53.59
294.516	-3.75
294.73	59.73
294.945	49.49
295.16	10.58
295.374	82.26
295.589	49.49
295.804	8.53
296.018	8.53
296.233	65.88
296.447	51.54
296.662	18.77
296.877	8.53
297.091	84.31
297.306	22.87
297.52	76.12
297.735	65.88
297.949	59.73
298.164	-36.52
298.378	59.73
298.593	45.4
298.807	59.73
299.022	10.58
299.236	33.11
299.451	51.54
299.665	115.03
299.88	-3.75
300.094	39.25
300.309	-42.67
300.523	39.25
300.737	14.68
300.952	4.44
301.166	55.64
301.381	29.01
301.595	18.77
301.809	6.49
302.024	115.03
302.238	26.96
302.452	45.4
302.667	39.25
302.881	49.49
303.095	88.4
303.309	74.07
303.524	76.12
303.738	4.44
303.952	10.58
304.166	-3.75
304.381	37.2
304.595	8.53
304.809	61.78
305.023	55.64
305.237	49.49
305.452	33.11
305.666	33.11
305.88	31.06
306.094	-13.99
306.308	18.77
306.522	-3.75
306.736	59.73
306.95	12.63
307.164	74.07
307.379	37.2
307.593	96.6
307.807	-13.99
308.021	69.97
308.235	43.35
308.449	12.63
308.663	53.59
308.877	74.07
309.091	39.25
309.305	76.12
309.519	12.63
309.733	55.64
309.947	20.82
310.161	88.4
310.374	-13.99
310.588	84.31
310.802	24.92
311.016	74.07
311.23	84.31
311.444	53.59
311.658	8.53
311.872	84.31
312.085	43.35
312.299	8.53
312.513	104.79
312.727	-1.71
312.941	-18.09
313.154	74.07
313.368	49.49
313.582	-26.28
313.796	135.51
314.009	-67.24
314.223	53.59
314.437	43.35
314.651	-3.75
314.864	49.49
315.078	8.53
315.292	24.92
315.505	33.11
315.719	69.97
315.933	2.39
316.146	90.45
316.36	110.93
316.573	90.45
316.787	16.73
317.001	33.11
317.214	-22.19
317.428	57.68
317.641	39.25
317.855	72.02
318.068	49.49
318.282	35.16
318.495	37.2
318.709	63.83
318.922	41.3
319.136	45.4
319.349	-32.43
319.563	65.88
319.776	-18.09
319.99	35.16
320.203	92.5
320.417	26.96
320.63	-7.85
320.843	29.01
321.057	94.55
321.27	53.59
321.483	22.87
321.697	47.44
321.91	61.78
322.124	29.01
322.337	41.3
322.55	-9.9
322.763	51.54
322.977	-7.85
323.19	96.6
323.403	41.3
323.617	90.45
323.83	29.01
324.043	29.01
324.256	-5.8
324.469	69.97
324.683	-9.9
324.896	29.01
325.109	92.5
325.322	-42.67
325.535	59.73
325.748	10.58
325.962	18.77
326.175	4.44
326.388	57.68
326.601	110.93
326.814	104.79
327.027	-40.62
327.24	94.55
327.453	47.44
327.666	49.49
327.879	123.22
328.092	26.96
328.305	43.35
328.518	100.69
328.731	39.25
328.944	2.39
329.157	10.58
329.37	94.55
329.583	63.83
329.796	69.97
330.009	31.06
330.222	72.02
330.435	65.88
330.648	4.44
330.861	115.03
331.073	-1.71
331.286	72.02
331.499	49.49
331.712	33.11
331.925	51.54
332.138	26.96
332.35	76.12
332.563	26.96
332.776	24.92
332.989	69.97
333.202	67.92
333.414	8.53
333.627	74.07
333.84	31.06
334.053	37.2
334.265	20.82
334.478	16.73
334.691	26.96
334.903	41.3
335.116	96.6
335.329	100.69
335.541	26.96
335.754	82.26
335.966	69.97
336.179	67.92
336.392	41.3
336.604	51.54
336.817	-44.71
337.029	61.78
337.242	108.88
337.454	39.25
337.667	80.21
337.88	35.16
338.092	0.34
338.305	37.2
338.517	18.77
338.729	110.93
338.942	18.77
339.154	16.73
339.367	33.11
339.579	80.21
339.792	39.25
340.004	-42.67
340.217	37.2
340.429	59.73
340.641	72.02
340.854	4.44
341.066	39.25
341.278	33.11
341.491	119.12
341.703	16.73
341.915	6.49
342.128	-16.04
342.34	-1.71
342.552	69.97
342.764	49.49
342.977	-11.95
343.189	63.83
343.401	51.54
343.613	-9.9
343.826	39.25
344.038	49.49
344.25	18.77
344.462	12.63
344.674	57.68
344.886	67.92
345.099	41.3
345.311	12.63
345.523	29.01
345.735	80.21
345.947	76.12
346.159	106.84
346.371	4.44
346.583	-3.75
346.795	33.11
347.007	100.69
347.219	90.45
347.431	-20.14
347.643	-13.99
347.855	63.83
348.067	61.78
348.279	6.49
348.491	29.01
348.703	74.07
348.915	104.79
349.127	-5.8
349.339	51.54
349.551	0.34
349.763	31.06
349.975	-9.9
350.187	8.53
350.399	0.34
350.61	74.07
350.822	47.44
351.034	53.59
351.246	6.49
351.458	96.6
351.669	-7.85
351.881	53.59
352.093	41.3
352.305	37.2
352.517	20.82
352.728	84.31
352.94	10.58
353.152	121.17
353.363	16.73
353.575	65.88
353.787	-5.8
353.999	49.49
354.21	61.78
354.422	-32.43
354.633	92.5
354.845	82.26
355.057	2.39
355.268	94.55
355.48	-9.9
355.692	-28.33
355.903	90.45
356.115	57.68
356.326	-20.14
356.538	67.92
356.749	35.16
356.961	106.84
357.172	24.92
357.384	35.16
357.595	57.68
357.807	31.06
358.018	18.77
358.23	65.88
358.441	80.21
358.653	26.96
358.864	74.07
359.075	51.54
359.287	-32.43
359.498	63.83
359.709	41.3
359.921	65.88
360.132	88.4
360.344	57.68
360.555	-46.76
360.766	67.92
360.977	26.96
361.189	-24.23
361.4	29.01
361.611	98.64
361.823	63.83
362.034	33.11
362.245	112.98
362.456	121.17
362.667	84.31
362.879	10.58
363.09	-26.28
363.301	100.69
363.512	41.3
363.723	92.5
363.935	-22.19
364.146	8.53
364.357	24.92
364.568	119.12
364.779	55.64
364.99	115.03
365.201	76.12
365.412	94.55
365.623	90.45
365.834	78.16
366.045	24.92
366.256	57.68
366.467	59.73
366.678	59.73
366.889	-16.04
367.1	67.92
367.311	53.59
367.522	29.01
367.733	82.26
367.944	59.73
368.155	12.63
368.366	100.69
368.577	18.77
368.788	129.36
368.999	65.88
369.209	29.01
369.42	47.44
369.631	110.93
369.842	2.39
370.053	24.92
370.264	-44.71
370.474	47.44
370.685	47.44
370.896	67.92
371.107	26.96
371.317	63.83
371.528	26.96
371.739	80.21
371.95	80.21
372.16	72.02
372.371	49.49
372.582	84.31
372.792	102.74
373.003	63.83
373.214	80.21
373.424	80.21
373.635	61.78
373.846	43.35
374.056	45.4
374.267	63.83
374.477	53.59
374.688	65.88
374.898	94.55
375.109	98.64
375.319	63.83
375.53	59.73
375.74	26.96
375.951	74.07
376.161	31.06
376.372	63.83
376.582	0.34
376.793	41.3
377.003	-7.85
377.214	108.88
377.424	45.4
377.635	78.16
377.845	43.35
378.055	92.5
378.266	4.44
378.476	20.82
378.686	59.73
378.897	43.35
379.107	31.06
379.317	127.32
379.528	-24.23
379.738	51.54
379.948	31.06
380.158	98.64
380.369	88.4
380.579	35.16
380.789	84.31
380.999	53.59
381.21	-61.1
381.42	22.87
381.63	31.06
381.84	51.54
382.05	72.02
382.261	90.45
382.471	33.11
382.681	57.68
382.891	35.16
383.101	14.68
383.311	61.78
383.521	127.32
383.731	45.4
383.941	74.07
384.151	41.3
384.361	86.36
384.571	74.07
384.781	98.64
384.991	26.96
385.201	-5.8
385.411	51.54
385.621	90.45
385.831	61.78
386.041	45.4
386.251	61.78
386.461	41.3
386.671	33.11
386.881	-48.81
387.091	47.44
387.301	35.16
387.511	16.73
387.72	84.31
387.93	35.16
388.14	47.44
388.35	31.06
388.56	98.64
388.769	76.12
388.979	45.4
389.189	57.68
389.399	55.64
389.609	76.12
389.818	100.69
390.028	6.49
390.238	80.21
390.447	-32.43
390.657	131.41
390.867	90.45
391.076	49.49
391.286	80.21
391.496	96.6
391.705	69.97
391.915	8.53
392.125	104.79
392.334	80.21
392.544	129.36
392.753	53.59
392.963	-5.8
393.172	41.3
393.382	67.92
393.591	78.16
393.801	53.59
394.01	53.59
394.22	135.51
394.429	74.07
394.639	37.2
394.848	110.93
395.058	16.73
395.267	72.02
395.477	84.31
395.686	69.97
395.895	-30.38
396.105	90.45
396.314	69.97
396.524	53.59
396.733	45.4
396.942	84.31
397.152	82.26
397.361	102.74
397.57	129.36
397.78	92.5
397.989	59.73
398.198	117.08
398.407	106.84
398.617	72.02
398.826	51.54
399.035	22.87
399.244	72.02
399.453	61.78
399.663	72.02
399.872	76.12
400.081	59.73
400.29	82.26
400.499	117.08
400.708	65.88
400.917	115.03
401.127	31.06
401.336	125.27
401.545	74.07
401.754	67.92
401.963	104.79
402.172	43.35
402.381	72.02
402.59	55.64
402.799	174.42
403.008	65.88
403.217	90.45
403.426	133.46
403.635	106.84
403.844	80.21
404.053	61.78
404.262	94.55
404.471	151.89
404.68	164.18
404.888	125.27
405.097	127.32
405.306	94.55
405.515	86.36
405.724	84.31
405.933	76.12
406.142	190.8
406.35	117.08
406.559	139.6
406.768	174.42
406.977	102.74
407.185	96.6
407.394	96.6
407.603	164.18
407.812	151.89
408.02	178.51
408.229	149.84
408.438	174.42
408.646	135.51
408.855	168.27
409.064	168.27
409.272	82.26
409.481	209.23
409.69	237.91
409.898	149.84
410.107	201.04
410.315	215.38
410.524	231.76
410.733	233.81
410.941	239.95
411.15	274.77
411.358	254.29
411.567	254.29
411.775	244.05
411.984	231.76
412.192	285.01
412.401	311.63
412.609	340.3
412.818	340.3
413.026	332.11
413.234	336.21
413.443	323.92
413.651	340.3
413.86	364.88
414.068	340.3
414.276	483.66
414.485	436.56
414.693	459.09
414.901	424.27
415.11	479.57
415.318	541.01
415.526	467.28
415.734	459.09
415.943	536.91
416.151	567.63
416.359	592.2
416.567	520.53
416.776	620.88
416.984	692.55
417.192	647.5
417.4	596.3
417.608	612.68
417.817	680.27
418.025	770.38
418.233	770.38
418.441	708.94
418.649	745.8
418.857	794.95
419.065	780.62
419.273	778.57
419.481	930.12
419.689	889.16
419.897	926.02
420.105	962.89
420.313	989.51
420.521	1083.72
420.729	1132.87
420.937	1036.61
421.145	1222.98
421.353	1134.92
421.561	1196.36
421.769	1200.45
421.977	1208.64
422.185	1333.57
422.393	1388.86
422.601	1433.92
422.809	1397.06
423.017	1411.39
423.224	1608
423.432	1534.27
423.64	1644.86
423.848	1737.02
424.056	1642.81
424.263	1800.51
424.471	1806.65
424.679	1913.14
424.887	1962.3
425.094	2015.54
425.302	1972.54
425.51	2146.61
425.718	2148.66
425.925	2185.52
426.133	2345.27
426.341	2339.12
426.548	2439.47
426.756	2486.58
426.964	2560.3
427.171	2765.1
427.379	2681.13
427.586	2763.05
427.794	2865.45
428.001	2957.61
428.209	3154.21
428.417	3035.43
428.624	3201.32
428.832	3361.06
429.039	3244.32
429.247	3090.73
429.454	3725.6
429.662	3784.99
429.869	3504.42
430.076	3899.67
430.284	3819.8
430.491	3879.19
430.699	4292.88
430.906	4026.65
431.114	4112.66
431.321	4327.7
431.528	4339.99
431.736	4587.79
431.943	4823.31
432.15	4661.52
432.358	4851.98
432.565	4940.04
432.772	5058.82
432.979	5267.72
433.187	5363.97
433.394	5488.9
433.601	5818.62
433.808	5705.98
434.016	5558.53
434.223	5918.97
434.43	6383.86
434.637	6273.27
434.844	6758.64
435.052	6631.66
435.259	6824.17
435.466	6822.13
435.673	6715.63
435.88	7198.95
436.087	7467.24
436.294	7465.19
436.501	7377.12
436.708	7618.79
436.915	7717.09
437.122	8155.35
437.329	8159.45
437.537	8169.69
437.743	8556.75
437.95	8190.17
438.157	8874.19
438.364	9165
438.571	9013.45
438.778	9193.67
438.985	10172.6
439.192	9701.57
439.399	9949.37
439.606	9957.57
439.813	10148.03
440.02	10860.72
440.227	10715.31
440.433	10410.17
440.64	10979.5
440.847	11079.85
441.054	10987.69
441.261	11835.55
441.467	11542.69
441.674	12007.58
441.881	12349.59
442.088	12538.01
442.294	12392.6
442.501	12763.28
442.708	12746.9
442.914	13174.92
443.121	14020.74
443.328	13631.62
443.534	14399.61
443.741	13967.49
443.948	13605
444.154	15122.54
444.361	14798.96
444.568	14862.45
444.774	14760.05
444.981	15153.26
445.187	15327.34
445.394	16310.36
445.6	15818.85
445.807	17399.88
446.013	16797.78
446.22	16982.1
446.426	17723.46
446.633	17496.14
446.839	18477.12
447.046	17727.56
447.252	18837.56
447.459	18423.87
447.665	18483.26
447.871	19404.85
448.078	20203.55
448.284	19038.26
448.491	19814.44
448.697	20355.1
448.903	20783.13
449.11	20924.44
449.316	20338.72
449.522	20848.66
449.728	21413.9
449.935	21725.19
450.141	21600.27
450.347	21927.94
450.553	21235.73
450.76	21493.77
450.966	22249.47
451.172	21557.26
451.378	22290.43
451.584	22335.49
451.791	22669.31
451.997	22290.43
452.203	22730.75
452.409	22927.35
452.615	22624.25
452.821	21886.98
453.027	21469.2
453.233	22523.9
453.44	21678.09
453.646	22147.08
453.852	21954.57
454.058	22333.44
454.264	21714.95
454.47	22171.65
454.676	21504.01
454.882	22110.21
455.088	20527.13
455.294	20770.84
455.5	20768.79
455.705	20824.09
455.911	19888.17
456.117	19863.59
456.323	19585.07
456.529	18389.05
456.735	19198
456.941	18741.3
457.147	18200.64
457.352	17625.16
457.558	17535.05
457.764	17954.88
457.97	17158.22
458.176	16851.03
458.381	16848.98
458.587	15851.62
458.793	15986.79
458.999	15245.42
459.204	16353.37
459.41	15636.58
459.616	14598.26
459.821	14811.25
460.027	14821.49
460.233	14385.27
460.438	13885.57
460.644	13744.26
460.85	13273.23
461.055	13002.89
461.261	13029.52
461.466	12329.11
461.672	11761.83
461.878	12527.77
462.083	11923.62
462.289	11505.83
462.494	11350.18
462.7	10821.81
462.905	10688.69
463.111	11088.04
463.316	11188.39
463.522	10725.55
463.727	10873.01
463.932	10811.57
464.138	10721.46
464.343	10606.77
464.549	10258.62
464.754	10713.27
464.959	10535.09
465.165	10696.88
465.37	10201.27
465.575	9902.27
465.781	10352.82
465.986	10268.86
466.191	10053.82
466.397	9836.74
466.602	9418.95
466.807	9787.58
467.012	9832.64
467.218	9625.79
467.423	9611.46
467.628	9633.99
467.833	9914.56
468.038	9640.13
468.244	9412.81
468.449	9722.05
468.654	9281.74
468.859	9259.21
469.064	9320.65
469.269	9033.93
469.474	8859.85
469.679	9189.58
469.885	8970.44
470.09	9181.39
470.295	9121.99
470.5	8804.56
470.705	8839.37
470.91	8659.15
471.115	8392.92
471.32	8628.43
471.525	8706.26
471.73	8433.88
471.935	8243.42
472.139	7823.58
472.344	8130.78
472.549	8235.22
472.754	8132.83
472.959	7739.62
473.164	7620.83
473.369	7581.92
473.574	7803.1
473.778	7950.56
473.983	7635.17
474.188	7520.48
474.393	7364.84
474.598	7508.19
474.802	7252.2
475.007	7133.42
475.212	7336.17
475.417	6979.82
475.621	6908.14
475.826	6971.63
476.031	6867.18
476.235	6818.03
476.44	6897.9
476.645	6744.3
476.849	6869.23
477.054	6455.54
477.259	6402.29
477.463	6451.44
477.668	6402.29
477.872	6412.53
478.077	6514.93
478.282	6351.09
478.486	6267.13
478.691	6140.15
478.895	6054.14
479.1	6179.06
479.304	6150.39
479.509	5951.74
479.713	5961.98
479.918	5814.52
480.122	5869.82
480.326	5800.19
480.531	5781.76
480.735	5796.09
480.94	5742.85
481.144	5908.73
481.348	5712.13
481.553	5632.26
481.757	5658.88
481.961	5714.17
482.166	5841.15
482.37	5763.33
482.574	5705.98
482.778	5597.44
482.983	5837.05
483.187	5853.44
483.391	5714.17
483.595	5599.49
483.8	5540.1
484.004	5632.26
484.208	5806.33
484.412	5675.26
484.616	5699.84
484.821	5773.57
485.025	5615.87
485.229	5777.66
485.433	5683.45
485.637	5644.54
485.841	5646.59
486.045	5638.4
486.249	5691.65
486.453	5742.85
486.657	5607.68
486.861	5619.97
487.065	5476.61
487.269	5718.27
487.473	5523.71
487.677	5798.14
487.881	5673.21
488.085	5751.04
488.289	5685.5
488.493	5675.26
488.697	5705.98
488.901	5667.07
489.105	5572.86
489.309	5689.6
489.512	5822.72
489.716	5787.9
489.92	5718.27
490.124	5773.57
490.328	5943.55
490.531	5701.89
490.735	5826.81
490.939	6025.47
491.143	5841.15
491.346	5773.57
491.55	5968.12
491.754	5867.77
491.958	5927.16
492.161	6111.48
492.365	6029.56
492.569	5898.49
492.772	5898.49
492.976	6029.56
493.18	6164.73
493.383	6111.48
493.587	6156.54
493.79	6263.03
493.994	6191.35
494.197	6281.46
494.401	6394.1
494.605	6232.31
494.808	6523.12
495.012	6457.59
495.215	6502.64
495.419	6627.57
495.622	6467.83
495.825	6664.43
496.029	6641.9
496.232	6766.83
496.436	6713.58
496.639	6828.27
496.843	6871.28
497.046	7082.22
497.249	7213.29
497.453	7237.86
497.656	7338.21
497.859	7143.66
498.063	7346.41
498.266	7354.6
498.469	7461.09
498.673	7524.58
498.876	7688.42
499.079	7848.16
499.282	7563.49
499.485	7975.13
499.689	8065.24
499.892	8104.15
500.095	8159.45
500.298	8417.49
500.501	8329.43
500.705	8440.02
500.908	8581.33
501.111	8636.63
501.314	8536.28
501.517	8712.4
501.72	8876.24
501.923	8741.07
502.126	9464
502.329	9160.91
502.532	9373.89
502.735	9410.76
502.938	9496.77
503.141	9517.25
503.344	9834.69
503.547	9814.21
503.75	9963.71
503.953	10221.75
504.156	10154.17
504.359	10277.05
504.562	10332.34
504.765	10739.89
504.968	10592.44
505.17	10823.86
505.373	10995.89
505.576	11167.91
505.779	11139.24
505.982	11235.5
506.185	11741.35
506.387	11573.41
506.59	11571.36
506.793	11663.52
506.996	11546.79
507.198	12212.38
507.401	12222.62
507.604	12239
507.807	12535.96
508.009	12621.97
508.212	12726.42
508.415	12806.29
508.617	13088.91
508.82	13123.73
509.022	13058.19
509.225	13392.01
509.428	13561.99
509.63	13736.07
509.833	13801.6
510.035	13957.25
510.238	13860.99
510.44	14368.89
510.643	14225.53
510.845	14592.12
511.048	14710.9
511.25	14772.34
511.453	14872.69
511.655	15505.51
511.858	15360.11
512.06	15399.02
512.262	15652.97
512.465	15673.45
512.667	15788.13
512.87	16179.29
513.072	16197.73
513.274	16810.07
513.477	16808.02
513.679	16945.23
513.881	16877.65
514.084	17033.3
514.286	17162.32
514.488	17295.44
514.69	17967.17
514.893	17811.53
515.095	17973.32
515.297	18260.03
515.499	18214.98
515.701	18507.83
515.904	18735.16
516.106	18944.05
516.308	19144.75
516.51	19556.39
516.712	19691.56
516.914	19497
517.116	20295.71
517.318	20140.07
517.52	19963.94
517.722	20285.47
517.925	20410.4
518.127	20879.38
518.329	20975.64
518.531	20830.23
518.733	21506.06
518.935	21651.47
519.136	21524.49
519.338	21850.12
519.54	21837.83
519.742	22646.78
519.944	22214.66
520.146	23126
520.348	22847.48
520.55	22999.03
520.752	23298.03
520.954	23382
521.155	23402.48
521.357	23668.72
521.559	24131.56
521.761	24240.1
521.963	24532.96
522.164	24496.1
522.366	24725.47
522.568	24782.81
522.77	25051.1
522.971	25141.21
523.173	25081.81
523.375	25491.41
523.576	25376.72
523.778	25587.66
523.98	26011.59
524.181	25894.86
524.383	26060.74
524.584	26281.92
524.786	26324.93
524.988	26271.68
525.189	26714.05
525.391	27205.56
525.592	27137.98
525.794	26890.17
525.995	27082.68
526.197	27277.24
526.398	27449.27
526.6	27838.38
526.801	27377.59
527.003	27873.2
527.204	27799.47
527.406	27985.83
527.607	27977.64
527.808	28520.35
528.01	27885.48
528.211	28207.01
528.412	29101.98
528.614	28229.54
528.815	28526.5
529.016	28669.86
529.218	28387.24
529.419	28764.06
529.62	29013.91
529.822	28589.99
530.023	29063.07
530.224	28778.4
530.425	29022.11
530.626	28727.2
530.828	29120.41
531.029	29360.02
531.23	28917.66
531.431	28770.21
531.632	29466.52
531.833	29400.98
532.035	29433.75
532.236	29124.5
532.437	29575.06
532.638	29321.11
532.839	29398.93
533.04	29405.08
533.241	29427.6
533.442	30293.9
533.643	29663.12
533.844	29665.17
534.045	29611.92
534.246	29534.1
534.447	29667.22
534.648	29632.4
534.849	29810.57
535.05	29372.31
535.251	29683.6
535.451	29646.74
535.652	29861.77
535.853	29867.92
536.054	29724.56
536.255	29722.51
536.456	29556.63
536.657	30158.73
536.857	29874.06
537.058	29638.55
537.259	29462.42
537.46	29974.41
537.66	29282.2
537.861	30005.13
538.062	29480.85
538.263	29618.07
538.463	29573.01
538.664	29820.81
538.865	29884.3
539.065	29902.73
539.266	29585.3
539.466	29925.26
539.667	29312.92
539.868	30203.78
540.068	29964.17
540.269	29575.06
540.469	29826.96
540.67	29665.17
540.87	29794.19
541.071	30078.86
541.271	29941.64
541.472	29767.57
541.672	29288.34
541.873	29771.66
542.073	29306.77
542.274	29706.13
542.474	29663.12
542.675	29605.78
542.875	29812.62
543.075	29884.3
543.276	29443.99
543.476	29704.08
543.676	29501.33
543.877	29771.66
544.077	29955.98
544.277	29380.5
544.478	29435.8
544.678	29886.35
544.878	29573.01
545.078	29552.53
545.279	29378.45
545.479	29532.05
545.679	29982.6
545.879	29945.74
546.079	29585.3
546.28	29847.44
546.48	29396.88
546.68	29751.18
546.88	29429.65
547.08	29740.94
547.28	29347.73
547.48	29171.61
547.68	29581.2
547.88	29413.27
548.081	29564.82
548.281	29853.58
548.481	29435.8
548.681	29487
548.881	29450.13
549.081	29196.18
549.28	29898.64
549.48	29722.51
549.68	29300.63
549.88	30074.76
550.08	29196.18
550.28	29691.79
550.48	29038.49
550.68	29312.92
550.88	29274.01
551.08	29626.26
551.279	29265.81
551.479	29138.84
551.679	29611.92
551.879	29523.86
552.079	29446.04
552.278	29448.08
552.478	29241.24
552.678	29505.43
552.878	29333.4
553.077	29321.11
553.277	29157.27
553.477	29697.94
553.676	29169.56
553.876	29341.59
554.076	28977.05
554.275	28932
554.475	28872.6
554.674	29421.46
554.874	29050.78
555.074	28913.56
555.273	29306.77
555.473	28925.85
555.672	29190.04
555.872	29048.73
556.071	28936.09
556.271	29415.32
556.47	28768.16
556.67	28788.64
556.869	28823.45
557.068	29073.31
557.268	28356.52
557.467	28696.48
557.667	28579.75
557.866	28735.39
558.065	28641.18
558.265	28413.86
558.464	28139.43
558.663	29065.11
558.863	28325.8
559.062	28602.27
559.261	28686.24
559.461	28940.19
559.66	28456.87
559.859	28258.21
560.058	28426.15
560.258	28264.36
560.457	28174.25
560.656	28356.52
560.855	27879.34
561.054	27953.07
561.253	27797.42
561.453	28077.99
561.652	28331.94
561.851	28037.03
562.05	28018.6
562.249	28002.22
562.448	28077.99
562.647	27711.41
562.846	28094.38
563.045	27797.42
563.244	27676.59
563.443	27908.01
563.642	27400.12
563.841	27424.69
564.04	27213.75
564.239	27699.12
564.438	27436.98
564.637	27566
564.836	27338.68
565.035	27367.35
565.234	27365.3
565.432	27109.3
565.631	26972.09
565.83	27234.23
566.029	27140.02
566.228	26638.27
566.427	26939.32
566.625	26890.17
566.824	26728.38
567.023	27023.29
567.222	26503.1
567.42	26896.31
567.619	26822.59
567.818	26533.82
568.016	26529.73
568.215	26654.65
568.414	26421.19
568.612	26752.96
568.811	26558.4
569.01	26619.84
569.208	25853.9
569.407	25972.68
569.605	25999.3
569.804	26249.16
570.002	25683.92
570.201	26130.37
570.4	25780.17
570.598	25743.31
570.797	25800.65
570.995	25593.81
571.193	25290.71
571.392	25769.93
571.59	25454.54
571.789	25368.53
571.987	25184.21
572.186	25225.17
572.384	25069.53
572.582	25259.99
572.781	25212.88
572.979	25016.28
573.177	24834.01
573.376	24793.05
573.574	24793.05
573.772	24844.25
573.971	24428.51
574.169	24487.9
574.367	24711.13
574.565	24649.69
574.763	24322.02
574.962	24301.54
575.16	24149.99
575.358	24541.15
575.556	23900.14
575.754	24145.89
575.952	23908.33
576.151	23977.96
576.349	23746.54
576.547	23588.85
576.745	23967.72
576.943	23945.19
577.141	23795.69
577.339	23382
577.537	23398.38
577.735	23513.07
577.933	23295.99
578.131	23468.02
578.329	23316.47
578.527	23021.56
578.725	23240.69
578.923	23373.81
579.121	23017.46
579.319	22855.67
579.516	22804.47
579.714	22859.77
579.912	22986.74
580.11	22720.51
580.308	22728.7
580.506	22601.72
580.704	22339.58
580.901	22599.68
581.099	22974.45
581.297	22325.25
581.495	22163.46
581.692	22374.4
581.89	22089.73
582.088	22185.99
582.285	22067.2
582.483	22431.74
582.681	21891.08
582.878	21710.86
583.076	21753.87
583.274	21909.51
583.471	21694.47
583.669	21469.2
583.866	21518.35
584.064	21624.84
584.262	21356.56
584.459	21553.16
584.657	21282.83
584.854	21458.96
585.052	21041.17
585.249	21477.39
585.447	21299.22
585.644	20903.96
585.841	20920.34
586.039	21104.66
586.236	20922.39
586.434	20617.24
586.631	20787.22
586.828	20805.66
587.026	20594.72
587.223	20555.8
587.42	20639.77
587.618	20748.31
587.815	20512.8
588.012	20170.79
588.21	20271.14
588.407	20346.91
588.604	19984.42
588.801	20006.95
588.999	20152.35
589.196	20041.76
589.393	19906.6
589.59	19753
589.787	19836.97
589.984	19648.55
590.182	19613.74
590.379	19818.53
590.576	19484.72
590.773	19652.65
590.97	19355.69
591.167	19249.2
591.364	19087.41
591.561	19136.56
591.758	19124.27
591.955	18993.2
592.152	19312.69
592.349	19202.1
592.546	19011.64
592.743	19081.27
592.94	18700.34
593.137	19034.16
593.334	18860.09
593.531	18524.22
593.727	18860.09
593.924	18901.04
594.121	18507.83
594.318	18720.82
594.515	18223.17
594.712	18571.32
594.908	18444.35
595.105	18458.68
595.302	18190.4
595.499	18466.88
595.696	18128.96
595.892	18110.53
596.089	18368.57
596.286	18292.8
596.482	17868.87
596.679	18231.36
596.876	18063.43
597.072	17680.46
597.269	17834.05
597.466	17811.53
597.662	17555.53
597.859	17745.99
598.055	17731.65
598.252	17514.57
598.448	17418.32
598.645	17492.04
598.841	17274.96
599.038	17274.96
599.234	17391.69
599.431	17395.79
599.627	17117.26
599.824	17164.37
600.02	17016.91
600.217	17260.62
600.413	17018.96
600.609	16891.99
600.806	16728.15
601.002	16975.95
601.198	16715.86
601.395	16627.8
601.591	16621.66
601.787	16611.42
601.984	16402.52
602.18	16963.67
602.376	16459.87
602.572	16445.53
602.769	16433.24
602.965	16099.42
603.161	16281.69
603.357	16234.59
603.553	16193.63
603.75	16158.81
603.946	15880.29
604.142	15976.55
604.338	15614.06
604.534	15853.67
604.73	15677.54
604.926	15763.56
605.122	15577.19
605.318	15667.3
605.514	15704.17
605.71	15642.73
605.906	15423.59
606.102	15755.36
606.298	15460.46
606.494	15450.22
606.69	15497.32
606.886	15413.35
607.082	15310.96
607.278	15370.35
607.474	15143.02
607.67	15317.1
607.866	15032.43
608.062	15100.01
608.257	14919.79
608.453	15212.65
608.649	15048.82
608.845	14934.13
609.041	14780.53
609.236	14776.44
609.432	14772.34
609.628	14725.24
609.824	14661.75
610.019	14450.81
610.215	14764.15
610.411	14770.29
610.606	14784.63
610.802	14575.73
610.998	14428.28
611.193	14432.38
611.389	14375.03
611.584	14311.55
611.78	14246.01
611.976	14172.29
612.171	14329.98
612.367	14346.36
612.562	14452.86
612.758	13844.61
612.953	14139.52
613.149	14379.13
613.344	14006.4
613.539	14200.96
613.735	13906.05
613.93	14092.41
614.126	14137.47
614.321	14033.02
614.517	13985.92
614.712	13729.92
614.907	13729.92
615.103	13545.61
615.298	13738.12
615.493	13869.19
615.688	13711.49
615.884	13951.1
616.079	13435.02
616.274	13721.73
616.47	13662.34
616.665	13531.27
616.86	13607.05
617.055	13613.19
617.25	13457.54
617.445	13449.35
617.641	13523.08
617.836	13592.71
618.031	13219.98
618.226	13506.7
618.421	13191.31
618.616	13500.55
618.811	12943.5
619.006	13127.82
619.201	12953.74
619.396	13039.76
619.591	12937.36
619.786	12961.94
619.981	12845.2
620.176	12812.43
620.371	12521.62
620.566	12654.74
620.761	12556.44
620.956	12683.41
621.151	12417.18
621.346	12490.9
621.541	12341.4
621.735	12275.87
621.93	12316.83
622.125	12443.8
622.32	11894.94
622.515	12204.19
622.709	11944.1
622.904	11827.36
623.099	11798.69
623.294	11819.17
623.488	11911.33
623.683	11681.96
623.878	11567.27
624.072	11583.65
624.267	11501.73
624.462	11385
624.656	11407.53
624.851	11413.67
625.046	11034.8
625.24	11149.48
625.435	11120.81
625.629	11153.58
625.824	11167.91
626.018	10987.69
626.213	10682.55
626.407	10799.28
626.602	10752.18
626.796	10707.12
626.991	10600.63
627.185	10766.51
627.38	10641.59
627.574	10436.79
627.768	10365.11
627.963	10297.53
628.157	10129.59
628.352	10338.49
628.546	10188.99
628.74	10174.65
628.935	10084.54
629.129	10143.93
629.323	10074.3
629.517	10113.21
629.712	9924.8
629.906	9959.61
630.1	9685.19
630.294	9717.95
630.489	9851.07
630.683	9679.04
630.877	9556.16
631.071	9539.78
631.265	9457.86
631.459	9408.71
631.653	9222.34
631.848	9312.46
632.042	9328.84
632.236	9390.28
632.43	9310.41
632.624	9212.1
632.818	9152.71
633.012	8886.48
633.206	9175.24
633.4	8904.91
633.594	8855.76
633.788	8931.53
633.982	9033.93
634.176	9038.03
634.369	8702.16
634.563	8800.46
634.757	8777.94
634.951	8485.08
635.145	8540.37
635.339	8478.93
635.533	8384.73
635.726	8546.51
635.92	8278.23
636.114	8370.39
636.308	8362.2
636.501	8317.14
636.695	8181.98
636.889	8311
637.083	8224.98
637.276	8167.64
637.47	7958.75
637.664	7995.61
637.857	7858.4
638.051	7911.64
638.244	7827.68
638.438	7704.8
638.632	7622.88
638.825	7635.17
639.019	7794.91
639.212	7520.48
639.406	7651.55
639.599	7598.31
639.793	7737.57
639.986	7360.74
640.18	7567.59
640.373	7483.62
640.567	7211.24
640.76	7280.87
640.954	7235.81
641.147	7149.8
641.34	7180.52
641.534	7147.75
641.727	7127.27
641.92	7121.13
642.114	7221.48
642.307	6877.42
642.5	6975.72
642.694	6883.56
642.887	6852.84
643.08	7037.16
643.273	6924.52
643.467	6768.88
643.66	6412.53
643.853	6568.18
644.046	6551.79
644.239	6602.99
644.432	6564.08
644.626	6646
644.819	6502.64
645.012	6379.76
645.205	6332.66
645.398	6504.69
645.591	6150.39
645.784	6377.72
645.977	6197.49
646.17	6334.71
646.363	6043.9
646.556	6041.85
646.749	6134.01
646.942	6101.24
647.135	5945.59
647.328	6058.23
647.521	6023.42
647.714	6011.13
647.907	6033.66
648.099	5787.9
648.292	5884.16
648.485	5769.47
648.678	5675.26
648.871	5773.57
649.064	5759.23
649.256	5759.23
649.449	5775.61
649.642	5759.23
649.835	5548.29
650.027	5507.33
650.22	5478.66
650.413	5488.9
650.605	5497.09
650.798	5423.36
650.991	5175.56
651.183	5443.84
651.376	5349.64
651.568	5417.22
651.761	5314.82
651.954	5415.17
652.146	5300.48
652.339	5249.29
652.531	5155.08
652.724	5052.68
652.916	5048.58
653.109	4956.43
653.301	5083.4
653.494	5099.78
653.686	4989.19
653.879	4919.56
654.071	4983.05
654.263	4849.93
654.456	4940.04
654.648	4854.03
654.84	4831.5
655.033	4735.25
655.225	4735.25
655.417	4841.74
655.61	4897.03
655.802	4604.18
655.994	4583.7
656.186	4643.09
656.379	4612.37
656.571	4612.37
656.763	4487.44
656.955	4544.78
657.148	4528.4
657.34	4530.45
657.532	4552.98
657.724	4366.61
657.916	4401.43
658.108	4481.3
658.3	4464.91
658.492	4194.58
658.684	4329.75
658.876	4380.95
659.068	4296.98
659.26	4194.58
659.452	4163.86
659.644	4161.81
659.836	4282.64
660.028	4116.76
660.22	4124.95
660.412	4147.48
660.604	4131.09
660.796	3942.68
660.988	3997.98
661.18	4045.08
661.372	3995.93
661.563	3991.83
661.755	3903.77
661.947	4049.18
662.139	3944.73
662.331	3821.85
662.522	3811.61
662.714	3711.26
662.906	3670.3
663.097	3789.08
663.289	3754.27
663.481	3764.51
663.673	3645.73
663.864	3584.29
664.056	3741.98
664.247	3600.67
664.439	3643.68
664.631	3754.27
664.822	3492.13
665.014	3619.1
665.205	3543.33
665.397	3469.6
665.588	3522.85
665.78	3578.14
665.971	3445.02
666.163	3498.27
666.354	3442.98
666.546	3404.07
666.737	3404.07
666.929	3404.07
667.12	3406.11
667.311	3352.87
667.503	3313.95
667.694	3387.68
667.885	3361.06
668.077	3311.91
668.268	3422.5
668.459	3283.24
668.651	3258.66
668.842	3209.51
669.033	3164.45
669.224	3262.76
669.416	3383.59
669.607	3223.84
669.798	3080.49
669.989	3164.45
670.18	3051.81
670.371	3086.63
670.563	3010.86
670.754	3098.92
670.945	3094.82
671.136	3021.1
671.327	3031.34
671.518	3051.81
671.709	3006.76
671.9	3029.29
672.091	3021.1
672.282	2984.23
672.473	2939.18
672.664	2943.27
672.855	2945.32
673.046	2879.79
673.237	2867.5
673.428	2890.03
673.619	2928.94
673.809	2871.59
674	2916.65
674.191	2887.98
674.382	2793.77
674.573	2906.41
674.764	2742.57
674.954	2781.48
675.145	2767.15
675.336	2748.72
675.527	2728.24
675.717	2781.48
675.908	2808.11
676.099	2810.15
676.289	2943.27
676.48	2578.73
676.671	2707.76
676.861	2701.61
677.052	2701.61
677.243	2605.36
677.433	2636.08
677.624	2648.36
677.814	2621.74
678.005	2648.36
678.195	2691.37
678.386	2674.99
678.576	2597.17
678.767	2554.16
678.957	2554.16
679.148	2681.13
679.338	2531.63
679.529	2584.88
679.719	2502.96
679.909	2509.1
680.1	2445.62
680.29	2462
680.481	2578.73
680.671	2486.58
680.861	2543.92
681.052	2427.18
681.242	2572.59
681.432	2462
681.622	2545.97
681.813	2525.49
682.003	2496.82
682.193	2462
682.383	2523.44
682.573	2468.14
682.764	2404.66
682.954	2402.61
683.144	2484.53
683.334	2328.88
683.524	2349.36
683.714	2509.1
683.904	2433.33
684.094	2478.38
684.284	2418.99
684.474	2414.9
684.664	2388.27
684.854	2279.73
685.044	2324.79
685.234	2322.74
685.424	2353.46
685.614	2388.27
685.804	2416.94
685.994	2406.7
686.184	2421.04
686.374	2302.26
686.564	2351.41
686.753	2249.01
686.943	2310.45
687.133	2326.83
687.323	2259.25
687.513	2330.93
687.702	2249.01
687.892	2246.96
688.082	2191.67
688.272	2152.76
688.461	2341.17
688.651	2302.26
688.841	2339.12
689.03	2220.34
689.22	2330.93
689.41	2287.92
689.599	2218.29
689.789	2392.37
689.979	2224.44
690.168	2171.19
690.358	2292.02
690.547	2185.52
690.737	2140.47
690.926	2122.04
691.116	2128.18
691.305	2335.03
691.495	2093.37
691.684	2154.8
691.874	2259.25
692.063	2076.98
692.252	2126.13
692.442	2048.31
692.631	2144.56
692.82	2058.55
693.01	2142.52
693.199	2117.94
693.388	2124.08
693.578	2140.47
693.767	2038.07
693.956	2087.22
694.146	2025.78
694.335	2183.48
694.524	2191.67
694.713	2134.32
694.902	2203.96
695.092	2132.28
695.281	2003.25
695.47	2234.68
695.659	2072.89
695.848	2054.45
696.037	2124.08
696.226	2060.6
696.415	2064.69
696.604	2054.45
696.793	1997.11
696.982	2064.69
697.171	2009.4
697.36	2003.25
697.549	2019.64
697.738	2079.03
697.927	2021.69
698.116	2013.49
698.305	1986.87
698.494	2050.36
698.683	2005.3
698.872	2058.55
699.061	1896.76
699.25	2036.02
699.438	1950.01
699.627	2085.17
699.816	1976.63
700.005	2042.17
700.193	2064.69
700.382	1861.94
700.571	2111.8
700.76	2054.45
700.948	2113.85
701.137	1974.58
701.326	2064.69
701.514	2068.79
701.703	2005.3
701.892	2005.3
702.08	2029.88
702.269	1894.71
702.457	1958.2
702.646	1976.63
702.834	2044.21
703.023	2009.4
703.212	1956.15
703.4	1929.53
703.589	1966.39
703.777	1945.91
703.965	1859.9
704.154	1958.2
704.342	1919.29
704.531	1960.25
704.719	1915.19
704.907	1927.48
705.096	2005.3
705.284	1853.75
705.472	1892.66
705.661	1820.99
705.849	1988.92
706.037	1931.58
706.226	1952.06
706.414	1857.85
706.602	1919.29
706.79	1927.48
706.979	1863.99
707.167	1886.52
707.355	1792.31
707.543	1882.42
707.731	1800.51
707.919	1874.23
708.107	1755.45
708.296	1780.03
708.484	1741.11
708.672	1749.31
708.86	1863.99
709.048	1843.51
709.236	1714.49
709.424	1706.3
709.612	1855.8
709.8	1749.31
709.988	1800.51
710.176	1804.6
710.364	1861.94
710.551	1802.55
710.739	1691.96
710.927	1769.79
711.115	1694.01
711.303	1673.53
711.491	1802.55
711.679	1737.02
711.866	1704.25
712.054	1792.31
712.242	1616.19
712.43	1694.01
712.617	1769.79
712.805	1642.81
712.993	1704.25
713.181	1657.15
713.368	1708.35
713.556	1694.01
713.744	1671.48
713.931	1610.04
714.119	1681.72
714.306	1751.35
714.494	1655.1
714.682	1622.33
714.869	1605.95
715.057	1679.68
715.244	1618.24
715.432	1597.76
715.619	1589.57
715.807	1626.43
715.994	1685.82
716.182	1589.57
716.369	1601.85
716.556	1599.8
716.744	1571.13
716.931	1603.9
717.119	1460.54
717.306	1567.04
717.493	1509.69
717.681	1493.31
717.868	1456.45
718.055	1548.61
718.242	1577.28
718.43	1470.78
718.617	1546.56
718.804	1454.4
718.991	1528.13
719.179	1503.55
719.366	1528.13
719.553	1478.97
719.74	1440.06
719.927	1501.5
720.114	1413.44
720.301	1446.21
720.488	1421.63
720.676	1567.04
720.863	1411.39
721.05	1489.21
721.237	1311.04
721.424	1515.84
721.611	1405.25
721.798	1458.5
721.985	1483.07
722.172	1407.3
722.358	1364.29
722.545	1407.3
722.732	1425.73
722.919	1390.91
723.106	1403.2
723.293	1239.36
723.48	1456.45
723.667	1456.45
723.853	1407.3
724.04	1423.68
724.227	1395.01
724.414	1325.38
724.6	1392.96
724.787	1390.91
724.974	1448.26
725.161	1372.48
725.347	1343.81
725.534	1251.65
725.72	1341.76
725.907	1302.85
726.094	1308.99
726.28	1405.25
726.467	1259.84
726.653	1288.51
726.84	1427.78
727.027	1306.95
727.213	1302.85
727.4	1265.99
727.586	1298.75
727.773	1321.28
727.959	1237.31
728.145	1356.1
728.332	1292.61
728.518	1313.09
728.705	1302.85
728.891	1204.55
729.077	1159.49
729.264	1233.22
729.45	1243.46
729.636	1368.38
729.823	1196.36
730.009	1169.73
730.195	1231.17
730.382	1341.76
730.568	1214.79
730.754	1204.55
730.94	1233.22
731.126	1177.92
731.313	1202.5
731.499	1120.58
731.685	1229.12
731.871	1182.02
732.057	1163.59
732.243	1165.64
732.429	1177.92
732.615	1261.89
732.801	1292.61
732.987	1229.12
733.173	1108.29
733.359	1276.23
733.545	1112.39
733.731	1270.08
733.917	1233.22
734.103	1114.44
734.289	1161.54
734.475	1212.74
734.661	1257.79
734.847	1073.48
735.033	1147.2
735.219	1206.59
735.404	1153.35
735.59	1208.64
735.776	1128.77
735.962	1179.97
736.148	1265.99
736.333	1235.27
736.519	1069.38
736.705	1128.77
736.89	1124.68
737.076	1079.62
737.262	1184.07
737.447	1149.25
737.633	1155.4
737.819	1118.53
738.004	1083.72
738.19	1108.29
738.375	1093.96
738.561	993.61
738.747	1063.24
738.932	991.56
739.118	1124.68
739.303	1028.42
739.489	1128.77
739.674	973.13
739.859	1087.81
740.045	1030.47
740.23	1063.24
740.416	1053
740.601	1038.66
740.786	1055.05
740.972	1096
741.157	1020.23
741.342	1012.04
741.528	1007.94
741.713	995.65
741.898	1028.42
742.084	938.31
742.269	1014.09
742.454	1024.33
742.639	971.08
742.824	1030.47
743.01	958.79
743.195	921.93
743.38	991.56
743.565	909.64
743.75	1007.94
743.935	977.22
744.12	1001.8
744.305	825.67
744.49	973.13
744.675	944.45
744.86	936.26
745.045	897.35
745.23	954.69
745.415	903.5
745.6	823.62
745.785	868.68
745.97	858.44
746.155	786.76
746.34	923.98
746.525	891.21
746.71	928.07
746.895	794.95
747.079	852.3
747.264	860.49
747.449	837.96
747.634	774.47
747.819	833.86
748.003	852.3
748.188	866.63
748.373	721.23
748.557	805.19
748.742	870.73
748.927	799.05
749.111	809.29
749.296	860.49
749.481	844.1
749.665	866.63
749.85	774.47
750.034	706.89
750.219	776.52
750.404	764.23
750.588	723.27
750.773	799.05
750.957	825.67
751.141	876.87
751.326	772.43
751.51	737.61
751.695	768.33
751.879	809.29
752.064	756.04
752.248	751.95
752.432	690.51
752.617	721.23
752.801	848.2
752.985	747.85
753.17	678.22
753.354	723.27
753.538	706.89
753.722	661.84
753.907	659.79
754.091	731.47
754.275	727.37
754.459	710.99
754.643	715.08
754.828	684.36
755.012	633.16
755.196	655.69
755.38	645.45
755.564	657.74
755.748	655.69
755.932	641.36
756.116	633.16
756.3	682.31
756.484	686.41
756.668	622.92
756.852	596.3
757.036	684.36
757.22	667.98
757.404	643.4
757.588	653.64
757.772	678.22
757.956	534.86
758.14	553.29
758.323	594.25
758.507	567.63
758.691	579.92
758.875	624.97
759.059	670.03
759.242	545.1
759.426	610.64
759.61	534.86
759.794	612.68
759.977	612.68
760.161	561.48
760.345	620.88
760.528	586.06
760.712	553.29
760.895	551.24
761.079	575.82
761.263	526.67
761.446	518.48
761.63	493.9
761.813	534.86
761.997	573.77
762.18	541.01
762.364	586.06
762.547	586.06
762.731	551.24
762.914	549.2
763.098	512.33
763.281	504.14
763.464	657.74
763.648	465.23
763.831	559.44
764.015	618.83
764.198	526.67
764.381	522.57
764.564	477.52
764.748	534.86
764.931	516.43
765.114	467.28
765.297	553.29
765.481	434.51
765.664	498
765.847	483.66
766.03	471.37
766.213	475.47
766.397	483.66
766.58	528.72
766.763	409.94
766.946	428.37
767.129	477.52
767.312	485.71
767.495	452.94
767.678	418.13
767.861	549.2
768.044	454.99
768.227	434.51
768.41	491.85
768.593	512.33
768.776	416.08
768.959	428.37
769.142	450.89
769.324	434.51
769.507	448.85
769.69	463.18
769.873	403.79
770.056	498
770.239	436.56
770.421	463.18
770.604	440.65
770.787	471.37
770.97	526.67
771.152	401.74
771.335	432.46
771.518	534.86
771.7	448.85
771.883	450.89
772.066	399.7
772.248	434.51
772.431	489.81
772.613	461.13
772.796	502.09
772.978	457.04
773.161	416.08
773.343	383.31
773.526	391.5
773.708	391.5
773.891	448.85
774.073	371.02
774.256	428.37
774.438	473.42
774.621	424.27
774.803	434.51
774.985	405.84
775.168	428.37
775.35	350.54
775.532	358.74
775.715	354.64
775.897	325.97
776.079	373.07
776.261	457.04
776.444	280.91
776.626	414.03
776.808	356.69
776.99	383.31
777.173	383.31
777.355	287.06
777.537	336.21
777.719	461.13
777.901	411.98
778.083	401.74
778.265	321.87
778.447	325.97
778.629	289.1
778.811	375.12
778.993	313.68
779.175	346.45
779.357	395.6
779.539	440.65
779.721	309.58
779.903	252.24
780.085	334.16
780.267	235.86
780.449	309.58
780.631	301.39
780.812	352.59
780.994	303.44
781.176	303.44
781.358	336.21
781.54	336.21
781.721	330.06
781.903	278.87
782.085	287.06
782.267	305.49
782.448	334.16
782.63	321.87
782.812	319.82
782.993	256.34
783.175	362.83
783.357	289.1
783.538	272.72
783.72	285.01
783.901	237.91
784.083	280.91
784.264	285.01
784.446	205.14
784.627	293.2
784.809	317.78
784.99	268.63
785.172	256.34
785.353	285.01
785.535	262.48
785.716	280.91
785.897	336.21
786.079	334.16
786.26	190.8
786.441	221.52
786.623	250.19
786.804	250.19
786.985	237.91
787.167	285.01
787.348	258.39
787.529	295.25
787.71	276.82
787.891	215.38
788.073	293.2
788.254	239.95
788.435	254.29
788.616	299.34
788.797	205.14
788.978	239.95
789.159	207.19
789.34	229.71
789.522	242
789.703	196.95
789.884	205.14
790.065	274.77
790.246	223.57
790.427	209.23
790.607	205.14
790.788	184.66
790.969	242
791.15	205.14
791.331	203.09
791.512	168.27
791.693	172.37
791.874	188.75
792.054	211.28
792.235	180.56
792.416	207.19
792.597	198.99
792.778	192.85
792.958	250.19
793.139	209.23
793.32	248.15
793.5	102.74
793.681	192.85
793.862	201.04
794.042	213.33
794.223	153.94
794.404	207.19
794.584	174.42
794.765	178.51
794.945	145.75
795.126	160.08
795.306	182.61
795.487	209.23
795.667	158.03
795.848	211.28
796.028	219.47
796.209	205.14
796.389	112.98
796.57	139.6
796.75	143.7
796.93	166.23
797.111	123.22
797.291	158.03
797.471	164.18
797.652	149.84
797.832	119.12
798.012	196.95
798.192	86.36
798.373	162.13
798.553	205.14
798.733	164.18
798.913	149.84
799.093	170.32
799.274	153.94
799.454	106.84
799.634	205.14
799.814	121.17
799.994	174.42
800.174	164.18
800.354	178.51
800.534	207.19
800.714	158.03
800.894	115.03
801.074	125.27
801.254	115.03
801.434	164.18
801.614	115.03
801.794	160.08
801.974	358.74
802.154	176.47
802.334	133.46
802.514	125.27
802.693	100.69
802.873	80.21
803.053	143.7
803.233	168.27
803.413	72.02
803.592	143.7
803.772	168.27
803.952	78.16
804.131	164.18
804.311	221.52
804.491	80.21
804.67	96.6
804.85	63.83
805.03	127.32
805.209	127.32
805.389	160.08
805.568	153.94
805.748	112.98
805.928	127.32
806.107	96.6
806.287	139.6
806.466	74.07
806.646	90.45
806.825	115.03
807.004	90.45
807.184	92.5
807.363	112.98
807.543	131.41
807.722	143.7
807.901	166.23
808.081	158.03
808.26	78.16
808.439	102.74
808.619	123.22
808.798	16.73
808.977	127.32
809.156	172.37
809.336	92.5
809.515	90.45
809.694	57.68
809.873	84.31
810.052	131.41
810.231	192.85
810.411	129.36
810.59	96.6
810.769	41.3
810.948	129.36
811.127	80.21
811.306	80.21
811.485	131.41
811.664	104.79
811.843	198.99
812.022	145.75
812.201	96.6
812.38	82.26
812.559	67.92
812.737	110.93
812.916	74.07
813.095	112.98
813.274	53.59
813.453	90.45
813.632	33.11
813.811	112.98
813.989	102.74
814.168	88.4
814.347	90.45
814.526	65.88
814.704	139.6
814.883	74.07
815.062	139.6
815.24	112.98
815.419	84.31
815.598	166.23
815.776	57.68
815.955	92.5
816.133	43.35
816.312	106.84
816.49	12.63
816.669	63.83
816.847	35.16
817.026	86.36
817.204	123.22
817.383	94.55
817.561	74.07
817.74	2.39
817.918	155.99
818.097	141.65
818.275	61.78
818.453	88.4
818.632	102.74
818.81	129.36
818.988	69.97
819.167	94.55
819.345	155.99
819.523	57.68
819.701	123.22
819.879	139.6
820.058	121.17
820.236	26.96
820.414	100.69
820.592	53.59
820.77	96.6
820.948	31.06
821.127	74.07
821.305	43.35
821.483	51.54
821.661	143.7
821.839	57.68
822.017	63.83
822.195	102.74
822.373	102.74
822.551	90.45
822.729	129.36
822.907	51.54
823.085	100.69
823.262	41.3
823.44	20.82
823.618	106.84
823.796	80.21
823.974	96.6
824.152	141.65
824.329	65.88
824.507	72.02
824.685	115.03
824.863	49.49
825.04	72.02
825.218	117.08
825.396	67.92
825.574	90.45
825.751	57.68
825.929	121.17
826.107	45.4
826.284	133.46
826.462	94.55
826.639	94.55
826.817	51.54
826.994	72.02
827.172	37.2
827.349	22.87
827.527	-5.8
827.704	125.27
827.882	22.87
828.059	31.06
828.237	-34.47
828.414	26.96
828.591	92.5
828.769	127.32
828.946	43.35
829.124	59.73
829.301	22.87
829.478	102.74
829.655	41.3
829.833	8.53
830.01	37.2
830.187	49.49
830.364	72.02
830.542	57.68
830.719	74.07
830.896	69.97
831.073	37.2
831.25	10.58
831.427	18.77
831.604	33.11
831.782	102.74
831.959	76.12
832.136	121.17
832.313	57.68
832.49	94.55
832.667	47.44
832.844	-1.71
833.021	67.92
833.198	65.88
833.374	33.11
833.551	104.79
833.728	96.6
833.905	26.96
834.082	106.84
834.259	10.58
834.436	72.02
834.612	2.39
834.789	88.4
834.966	16.73
835.143	100.69
835.319	29.01
835.496	53.59
835.673	96.6
835.85	151.89
836.026	53.59
836.203	84.31
836.38	10.58
836.556	51.54
836.733	14.68
836.909	47.44
837.086	6.49
837.262	49.49
837.439	104.79
837.616	74.07
837.792	61.78
837.968	47.44
838.145	16.73
838.321	51.54
838.498	-20.14
838.674	86.36
838.851	35.16
839.027	-40.62
839.203	61.78
839.38	112.98
839.556	88.4
839.732	33.11
839.909	76.12
840.085	43.35
840.261	47.44
840.437	92.5
840.614	72.02
840.79	76.12
840.966	78.16
841.142	123.22
841.318	100.69
841.494	55.64
841.671	41.3
841.847	55.64
842.023	57.68
842.199	96.6
842.375	39.25
842.551	16.73
842.727	29.01
842.903	65.88
843.079	53.59
843.255	0.34
843.431	135.51
843.607	49.49
843.783	24.92
843.959	115.03
844.134	137.56
844.31	16.73
844.486	-30.38
844.662	-1.71
844.838	37.2
845.013	47.44
845.189	26.96
845.365	84.31
845.541	33.11
845.716	92.5
845.892	33.11
846.068	76.12
846.244	96.6
846.419	137.56
846.595	53.59
846.77	-9.9
846.946	8.53
847.122	57.68
847.297	74.07
847.473	72.02
847.648	14.68
847.824	37.2
847.999	-11.95
848.175	112.98
848.35	-38.57
848.526	129.36
848.701	26.96
848.876	104.79
849.052	92.5
849.227	-1.71
849.403	20.82
849.578	-13.99
849.753	22.87
849.929	4.44
850.104	86.36
850.279	16.73
850.454	45.4
850.63	35.16
850.805	65.88
850.98	63.83
851.155	47.44
851.33	39.25
851.505	49.49
851.681	33.11
851.856	67.92
852.031	49.49
852.206	43.35
852.381	55.64
852.556	63.83
852.731	55.64
852.906	53.59
853.081	-13.99
853.256	6.49
853.431	10.58
853.606	31.06
853.781	31.06
853.956	33.11
854.131	-9.9
854.305	-20.14
854.48	53.59
854.655	45.4
854.83	67.92
855.005	22.87
855.18	59.73
855.354	14.68
855.529	31.06
855.704	-1.71
855.879	-3.75
856.053	78.16
856.228	72.02
856.403	33.11
856.577	45.4
856.752	106.84
856.926	39.25
857.101	65.88
857.276	47.44
857.45	106.84
857.625	69.97
857.799	-13.99
857.974	-16.04
858.148	55.64
858.323	63.83
858.497	14.68
858.672	10.58
858.846	49.49
859.02	69.97
859.195	20.82
859.369	92.5
859.543	67.92
859.718	41.3
859.892	41.3
860.066	43.35
860.241	41.3
860.415	59.73
860.589	-38.57
860.763	20.82
860.938	53.59
861.112	108.88
861.286	-26.28
861.46	26.96
861.634	41.3
861.808	82.26
861.982	45.4
862.157	33.11
862.331	-26.28
862.505	33.11
862.679	55.64
862.853	-13.99
863.027	69.97
863.201	45.4
863.375	106.84
863.549	55.64
863.722	6.49
863.896	35.16
864.07	76.12
864.244	51.54
864.418	6.49
864.592	33.11
864.766	35.16
864.939	12.63
865.113	43.35
865.287	65.88
865.461	8.53
865.634	74.07
865.808	80.21
865.982	14.68
866.156	26.96
866.329	43.35
866.503	53.59
866.676	131.41
866.85	43.35
867.024	72.02
867.197	22.87
867.371	59.73
867.544	-44.71
867.718	6.49
867.891	-7.85
868.065	10.58
868.238	-32.43
868.412	22.87
868.585	59.73
868.759	76.12
868.932	45.4
869.105	16.73
869.279	-7.85
869.452	69.97
869.625	-26.28
869.799	16.73
869.972	24.92
870.145	37.2
870.319	-16.04
870.492	18.77
870.665	-20.14
870.838	12.63
871.011	26.96
871.185	100.69
871.358	80.21
871.531	78.16
871.704	16.73
871.877	55.64
872.05	39.25
872.223	35.16
872.396	51.54
872.569	102.74
872.742	-3.75
872.915	88.4
873.088	20.82
873.261	37.2
873.434	29.01
873.607	45.4
873.78	53.59
873.953	57.68
874.126	8.53
874.299	63.83
874.471	41.3
874.644	2.39
874.817	100.69
874.99	59.73
875.163	84.31
875.335	20.82
875.508	31.06
875.681	86.36
875.853	55.64
876.026	14.68
876.199	33.11
876.371	18.77
876.544	24.92
876.717	53.59
876.889	-9.9
877.062	92.5
877.234	8.53
877.407	-11.95
877.579	29.01
877.752	31.06
877.924	119.12
878.097	-13.99
878.269	49.49
878.442	-7.85
878.614	24.92
878.786	55.64
878.959	94.55
879.131	84.31
879.303	65.88
879.476	78.16
879.648	35.16
879.82	39.25
879.993	-22.19
880.165	12.63
880.337	24.92
880.509	49.49
880.681	14.68
880.854	59.73
881.026	86.36
881.198	94.55
881.37	69.97
881.542	55.64
881.714	-5.8
881.886	22.87
882.058	53.59
882.23	104.79
882.402	-36.52
882.574	33.11
882.746	43.35
882.918	33.11
883.09	18.77
883.262	-32.43
883.434	22.87
883.606	16.73
883.778	-42.67
883.95	100.69
884.122	22.87
884.293	31.06
884.465	-42.67
884.637	-18.09
884.809	6.49
884.98	57.68
885.152	37.2
885.324	16.73
885.496	-18.09
885.667	16.73
885.839	43.35
886.011	39.25
886.182	-42.67
886.354	51.54
886.525	63.83
886.697	59.73
886.869	12.63
887.04	47.44
887.212	61.78
887.383	-11.95
887.555	-18.09
887.726	94.55
887.897	12.63
888.069	35.16
888.24	-13.99
888.412	92.5
888.583	-102.06
888.754	29.01
888.926	72.02
889.097	6.49
889.268	22.87
889.44	24.92
889.611	-26.28
889.782	55.64
889.953	20.82
890.125	61.78
890.296	59.73
890.467	10.58
890.638	-59.05
890.809	47.44
890.98	14.68
891.151	41.3
891.323	-18.09
891.494	67.92
891.665	-36.52
891.836	74.07
892.007	-3.75
892.178	80.21
892.349	51.54
892.52	4.44
892.691	57.68
892.862	-32.43
893.032	-11.95
893.203	39.25
893.374	55.64
893.545	59.73
893.716	-28.33
893.887	53.59
894.057	18.77
894.228	20.82
894.399	47.44
894.57	53.59
894.74	18.77
894.911	72.02
895.082	-52.91
895.253	18.77
895.423	55.64
895.594	90.45
895.764	-30.38
895.935	37.2
896.106	-9.9
896.276	92.5
896.447	-24.23
896.617	22.87
896.788	35.16
896.958	20.82
897.129	-22.19
897.299	18.77
897.47	76.12
897.64	-3.75
897.81	-5.8
897.981	47.44
898.151	14.68
898.322	12.63
898.492	33.11
898.662	43.35
898.832	94.55
899.003	24.92
899.173	74.07
899.343	61.78
899.513	-9.9
