Data from USB4F104151__222__14-00-15-943.txt Node

Date: Thu Mar 13 14:00:15 EDT 2025
User: louis
Spectrometer: USB4F10415
Trigger mode: 4
Integration Time (sec): 1.000000E-2
Scans to average: 1
Electric dark correction enabled: true
Nonlinearity correction enabled: false
Boxcar width: 0
XAxis mode: Wavelengths
Number of Pixels in Spectrum: 3648
>>>>>Begin Spectral Data<<<<<
178.204	-30.21
178.424	-30.21
178.644	-30.21
178.864	-7.68
179.084	-67.07
179.304	8.7
179.524	2.56
179.744	-56.83
179.964	51.71
180.184	12.8
180.404	-1.54
180.624	-11.78
180.844	-60.93
181.064	-5.63
181.283	33.28
181.503	-13.82
181.723	41.47
181.943	16.9
182.163	18.94
182.383	0.51
182.602	37.38
182.822	29.18
183.042	33.28
183.262	0.51
183.482	8.7
183.701	72.19
183.921	6.66
184.141	64
184.361	-19.97
184.58	45.57
184.8	20.99
185.02	-7.68
185.239	78.33
185.459	55.81
185.679	37.38
185.898	14.85
186.118	-26.11
186.338	27.14
186.557	4.61
186.777	29.18
186.997	-42.5
187.216	-3.58
187.436	20.99
187.655	86.53
187.875	119.29
188.095	82.43
188.314	23.04
188.534	86.53
188.753	37.38
188.973	-38.4
189.192	25.09
189.412	49.66
189.631	14.85
189.851	90.62
190.07	27.14
190.29	23.04
190.509	6.66
190.729	37.38
190.948	-7.68
191.168	76.29
191.387	78.33
191.607	-69.12
191.826	70.14
192.045	12.8
192.265	59.9
192.484	64
192.704	-7.68
192.923	49.66
193.142	27.14
193.362	53.76
193.581	76.29
193.8	102.91
194.02	125.44
194.239	8.7
194.458	-11.78
194.678	25.09
194.897	86.53
195.116	0.51
195.335	-15.87
195.555	-5.63
195.774	33.28
195.993	-15.87
196.212	49.66
196.432	53.76
196.651	64
196.87	47.62
197.089	59.9
197.308	-3.58
197.528	-13.82
197.747	51.71
197.966	-7.68
198.185	6.66
198.404	61.95
198.623	33.28
198.842	78.33
199.062	-32.26
199.281	8.7
199.5	6.66
199.719	8.7
199.938	29.18
200.157	70.14
200.376	16.9
200.595	76.29
200.814	-17.92
201.033	53.76
201.252	16.9
201.471	31.23
201.69	20.99
201.909	29.18
202.128	-1.54
202.347	-15.87
202.566	57.86
202.785	70.14
203.004	-7.68
203.223	47.62
203.442	-9.73
203.661	6.66
203.879	25.09
204.098	39.42
204.317	-26.11
204.536	154.11
204.755	90.62
204.974	47.62
205.193	47.62
205.411	47.62
205.63	-32.26
205.849	-1.54
206.068	72.19
206.287	78.33
206.505	53.76
206.724	51.71
206.943	45.57
207.162	84.48
207.381	37.38
207.599	20.99
207.818	107.01
208.037	29.18
208.255	-11.78
208.474	88.57
208.693	80.38
208.911	29.18
209.13	53.76
209.349	16.9
209.567	18.94
209.786	53.76
210.005	39.42
210.223	53.76
210.442	-5.63
210.661	20.99
210.879	-15.87
211.098	66.05
211.316	0.51
211.535	-1.54
211.753	23.04
211.972	37.38
212.191	14.85
212.409	-40.45
212.628	29.18
212.846	45.57
213.065	12.8
213.283	41.47
213.502	8.7
213.72	86.53
213.938	66.05
214.157	16.9
214.375	0.51
214.594	31.23
214.812	37.38
215.031	-5.63
215.249	59.9
215.467	-19.97
215.686	33.28
215.904	-15.87
216.122	160.25
216.341	82.43
216.559	74.24
216.778	29.18
216.996	-7.68
217.214	47.62
217.432	-11.78
217.651	14.85
217.869	-11.78
218.087	49.66
218.306	10.75
218.524	68.09
218.742	31.23
218.96	16.9
219.179	-7.68
219.397	39.42
219.615	53.76
219.833	104.96
220.051	12.8
220.27	80.38
220.488	66.05
220.706	86.53
220.924	31.23
221.142	78.33
221.36	94.72
221.578	23.04
221.796	25.09
222.015	18.94
222.233	29.18
222.451	78.33
222.669	4.61
222.887	90.62
223.105	57.86
223.323	4.61
223.541	102.91
223.759	156.16
223.977	31.23
224.195	66.05
224.413	31.23
224.631	29.18
224.849	86.53
225.067	14.85
225.285	61.95
225.503	2.56
225.721	16.9
225.939	33.28
226.157	16.9
226.375	78.33
226.592	-11.78
226.81	-9.73
227.028	4.61
227.246	74.24
227.464	-5.63
227.682	55.81
227.9	37.38
228.117	20.99
228.335	66.05
228.553	92.67
228.771	18.94
228.989	-54.78
229.206	37.38
229.424	72.19
229.642	-1.54
229.86	45.57
230.077	51.71
230.295	29.18
230.513	20.99
230.731	29.18
230.948	53.76
231.166	41.47
231.384	20.99
231.601	78.33
231.819	47.62
232.037	10.75
232.254	-9.73
232.472	-3.58
232.689	53.76
232.907	16.9
233.125	43.52
233.342	27.14
233.56	70.14
233.777	66.05
233.995	47.62
234.213	88.57
234.43	23.04
234.648	14.85
234.865	92.67
235.083	-19.97
235.3	-11.78
235.518	-7.68
235.735	72.19
235.953	68.09
236.17	35.33
236.388	-19.97
236.605	41.47
236.822	20.99
237.04	-30.21
237.257	59.9
237.475	4.61
237.692	64
237.909	0.51
238.127	53.76
238.344	27.14
238.562	125.44
238.779	16.9
238.996	35.33
239.214	33.28
239.431	86.53
239.648	-22.02
239.865	64
240.083	6.66
240.3	70.14
240.517	39.42
240.735	104.96
240.952	53.76
241.169	-11.78
241.386	70.14
241.603	20.99
241.821	-17.92
242.038	31.23
242.255	-42.5
242.472	2.56
242.689	43.52
242.907	10.75
243.124	-1.54
243.341	41.47
243.558	-7.68
243.775	74.24
243.992	72.19
244.209	57.86
244.426	64
244.643	66.05
244.86	-30.21
245.078	6.66
245.295	80.38
245.512	53.76
245.729	4.61
245.946	-7.68
246.163	23.04
246.38	27.14
246.597	43.52
246.814	94.72
247.031	-7.68
247.248	-17.92
247.464	37.38
247.681	6.66
247.898	25.09
248.115	49.66
248.332	102.91
248.549	86.53
248.766	27.14
248.983	-19.97
249.2	80.38
249.417	82.43
249.633	96.77
249.85	23.04
250.067	-54.78
250.284	33.28
250.501	64
250.717	-24.06
250.934	-13.82
251.151	86.53
251.368	-34.3
251.585	72.19
251.801	-15.87
252.018	80.38
252.235	-1.54
252.451	45.57
252.668	70.14
252.885	20.99
253.102	-11.78
253.318	41.47
253.535	-7.68
253.752	12.8
253.968	31.23
254.185	-30.21
254.401	43.52
254.618	31.23
254.835	45.57
255.051	47.62
255.268	6.66
255.484	37.38
255.701	-9.73
255.917	61.95
256.134	-7.68
256.351	-5.63
256.567	0.51
256.784	-3.58
257	12.8
257.217	6.66
257.433	-7.68
257.65	2.56
257.866	14.85
258.082	6.66
258.299	0.51
258.515	35.33
258.732	96.77
258.948	-17.92
259.165	20.99
259.381	113.15
259.597	-9.73
259.814	41.47
260.03	64
260.246	76.29
260.463	45.57
260.679	43.52
260.895	14.85
261.112	-5.63
261.328	2.56
261.544	61.95
261.761	23.04
261.977	49.66
262.193	-7.68
262.409	61.95
262.626	37.38
262.842	41.47
263.058	-36.35
263.274	8.7
263.49	57.86
263.707	29.18
263.923	33.28
264.139	-11.78
264.355	0.51
264.571	55.81
264.787	-5.63
265.004	102.91
265.22	57.86
265.436	20.99
265.652	33.28
265.868	37.38
266.084	23.04
266.3	61.95
266.516	-42.5
266.732	12.8
266.948	29.18
267.164	25.09
267.38	37.38
267.596	78.33
267.812	119.29
268.028	102.91
268.244	25.09
268.46	4.61
268.676	39.42
268.892	43.52
269.108	47.62
269.324	90.62
269.54	20.99
269.756	96.77
269.972	27.14
270.188	-1.54
270.403	41.47
270.619	33.28
270.835	20.99
271.051	41.47
271.267	45.57
271.483	-77.31
271.698	49.66
271.914	45.57
272.13	29.18
272.346	29.18
272.562	16.9
272.777	47.62
272.993	14.85
273.209	104.96
273.425	23.04
273.64	80.38
273.856	102.91
274.072	61.95
274.287	66.05
274.503	92.67
274.719	86.53
274.934	6.66
275.15	-1.54
275.366	2.56
275.581	29.18
275.797	82.43
276.012	82.43
276.228	37.38
276.444	-26.11
276.659	86.53
276.875	80.38
277.09	96.77
277.306	55.81
277.521	51.71
277.737	23.04
277.952	70.14
278.168	37.38
278.383	29.18
278.599	20.99
278.814	14.85
279.03	-19.97
279.245	29.18
279.461	41.47
279.676	-22.02
279.892	12.8
280.107	8.7
280.322	49.66
280.538	72.19
280.753	20.99
280.969	107.01
281.184	-3.58
281.399	43.52
281.615	31.23
281.83	23.04
282.045	12.8
282.26	57.86
282.476	18.94
282.691	82.43
282.906	64
283.122	23.04
283.337	-50.69
283.552	18.94
283.767	78.33
283.983	57.86
284.198	35.33
284.413	39.42
284.628	-7.68
284.843	59.9
285.058	-34.3
285.274	2.56
285.489	18.94
285.704	96.77
285.919	-19.97
286.134	14.85
286.349	23.04
286.564	12.8
286.779	10.75
286.995	72.19
287.21	72.19
287.425	47.62
287.64	33.28
287.855	59.9
288.07	29.18
288.285	6.66
288.5	41.47
288.715	86.53
288.93	57.86
289.145	51.71
289.36	78.33
289.575	57.86
289.79	100.86
290.004	23.04
290.219	37.38
290.434	64
290.649	-26.11
290.864	37.38
291.079	98.81
291.294	4.61
291.509	31.23
291.724	78.33
291.938	59.9
292.153	53.76
292.368	66.05
292.583	10.75
292.798	-9.73
293.012	55.81
293.227	107.01
293.442	31.23
293.657	49.66
293.871	27.14
294.086	31.23
294.301	45.57
294.516	37.38
294.73	39.42
294.945	18.94
295.16	86.53
295.374	100.86
295.589	72.19
295.804	49.66
296.018	88.57
296.233	88.57
296.447	37.38
296.662	20.99
296.877	-9.73
297.091	10.75
297.306	64
297.52	47.62
297.735	51.71
297.949	-11.78
298.164	47.62
298.378	57.86
298.593	27.14
298.807	2.56
299.022	49.66
299.236	12.8
299.451	-32.26
299.665	55.81
299.88	-19.97
300.094	47.62
300.309	35.33
300.523	33.28
300.737	20.99
300.952	37.38
301.166	94.72
301.381	-19.97
301.595	-30.21
301.809	64
302.024	86.53
302.238	47.62
302.452	37.38
302.667	29.18
302.881	49.66
303.095	12.8
303.309	12.8
303.524	45.57
303.738	53.76
303.952	8.7
304.166	49.66
304.381	-52.74
304.595	29.18
304.809	-1.54
305.023	53.76
305.237	25.09
305.452	20.99
305.666	84.48
305.88	117.25
306.094	-32.26
306.308	61.95
306.522	61.95
306.736	45.57
306.95	-17.92
307.164	100.86
307.379	86.53
307.593	47.62
307.807	-19.97
308.021	57.86
308.235	4.61
308.449	12.8
308.663	80.38
308.877	78.33
309.091	25.09
309.305	-7.68
309.519	-19.97
309.733	102.91
309.947	47.62
310.161	98.81
310.374	64
310.588	53.76
310.802	23.04
311.016	109.05
311.23	8.7
311.444	20.99
311.658	-30.21
311.872	98.81
312.085	47.62
312.299	43.52
312.513	43.52
312.727	27.14
312.941	-17.92
313.154	55.81
313.368	70.14
313.582	119.29
313.796	-85.5
314.009	70.14
314.223	14.85
314.437	80.38
314.651	70.14
314.864	53.76
315.078	18.94
315.292	53.76
315.505	33.28
315.719	39.42
315.933	82.43
316.146	74.24
316.36	14.85
316.573	31.23
316.787	57.86
317.001	39.42
317.214	6.66
317.428	96.77
317.641	-50.69
317.855	61.95
318.068	64
318.282	76.29
318.495	66.05
318.709	104.96
318.922	66.05
319.136	57.86
319.349	53.76
319.563	127.49
319.776	59.9
319.99	78.33
320.203	-7.68
320.417	45.57
320.63	70.14
320.843	18.94
321.057	45.57
321.27	23.04
321.483	96.77
321.697	78.33
321.91	47.62
322.124	55.81
322.337	78.33
322.55	90.62
322.763	68.09
322.977	31.23
323.19	45.57
323.403	37.38
323.617	45.57
323.83	86.53
324.043	76.29
324.256	49.66
324.469	70.14
324.683	88.57
324.896	66.05
325.109	72.19
325.322	61.95
325.535	-7.68
325.748	88.57
325.962	39.42
326.175	41.47
326.388	51.71
326.601	43.52
326.814	43.52
327.027	-11.78
327.24	119.29
327.453	80.38
327.666	18.94
327.879	-13.82
328.092	-9.73
328.305	12.8
328.518	61.95
328.731	37.38
328.944	6.66
329.157	70.14
329.37	53.76
329.583	64
329.796	68.09
330.009	51.71
330.222	37.38
330.435	39.42
330.648	64
330.861	74.24
331.073	125.44
331.286	41.47
331.499	25.09
331.712	74.24
331.925	61.95
332.138	49.66
332.35	-26.11
332.563	8.7
332.776	76.29
332.989	37.38
333.202	80.38
333.414	55.81
333.627	64
333.84	51.71
334.053	80.38
334.265	45.57
334.478	-3.58
334.691	31.23
334.903	70.14
335.116	27.14
335.329	78.33
335.541	96.77
335.754	127.49
335.966	0.51
336.179	78.33
336.392	68.09
336.604	49.66
336.817	86.53
337.029	80.38
337.242	86.53
337.454	78.33
337.667	39.42
337.88	35.33
338.092	18.94
338.305	107.01
338.517	20.99
338.729	78.33
338.942	78.33
339.154	74.24
339.367	33.28
339.579	78.33
339.792	66.05
340.004	-9.73
340.217	-11.78
340.429	104.96
340.641	80.38
340.854	55.81
341.066	14.85
341.278	74.24
341.491	57.86
341.703	14.85
341.915	92.67
342.128	121.34
342.34	100.86
342.552	-28.16
342.764	37.38
342.977	29.18
343.189	33.28
343.401	43.52
343.613	39.42
343.826	82.43
344.038	23.04
344.25	45.57
344.462	45.57
344.674	49.66
344.886	66.05
345.099	86.53
345.311	82.43
345.523	61.95
345.735	53.76
345.947	76.29
346.159	14.85
346.371	86.53
346.583	57.86
346.795	61.95
347.007	78.33
347.219	20.99
347.431	37.38
347.643	139.77
347.855	39.42
348.067	2.56
348.279	-19.97
348.491	80.38
348.703	-3.58
348.915	104.96
349.127	-9.73
349.339	88.57
349.551	-24.06
349.763	31.23
349.975	43.52
350.187	39.42
350.399	27.14
350.61	88.57
350.822	47.62
351.034	35.33
351.246	-15.87
351.458	57.86
351.669	4.61
351.881	88.57
352.093	80.38
352.305	51.71
352.517	33.28
352.728	86.53
352.94	49.66
353.152	88.57
353.363	145.92
353.575	94.72
353.787	-17.92
353.999	64
354.21	80.38
354.422	82.43
354.633	37.38
354.845	45.57
355.057	-1.54
355.268	-19.97
355.48	57.86
355.692	31.23
355.903	57.86
356.115	70.14
356.326	78.33
356.538	127.49
356.749	43.52
356.961	51.71
357.172	23.04
357.384	64
357.595	72.19
357.807	61.95
358.018	4.61
358.23	57.86
358.441	41.47
358.653	102.91
358.864	35.33
359.075	37.38
359.287	43.52
359.498	53.76
359.709	78.33
359.921	107.01
360.132	27.14
360.344	164.35
360.555	35.33
360.766	88.57
360.977	45.57
361.189	20.99
361.4	47.62
361.611	104.96
361.823	53.76
362.034	33.28
362.245	113.15
362.456	86.53
362.667	41.47
362.879	74.24
363.09	102.91
363.301	70.14
363.512	61.95
363.723	107.01
363.935	51.71
364.146	57.86
364.357	98.81
364.568	66.05
364.779	115.2
364.99	90.62
365.201	8.7
365.412	64
365.623	90.62
365.834	70.14
366.045	74.24
366.256	-32.26
366.467	31.23
366.678	61.95
366.889	41.47
367.1	4.61
367.311	72.19
367.522	14.85
367.733	72.19
367.944	82.43
368.155	84.48
368.366	61.95
368.577	23.04
368.788	31.23
368.999	-52.74
369.209	37.38
369.42	-7.68
369.631	80.38
369.842	111.1
370.053	27.14
370.264	43.52
370.474	43.52
370.685	160.25
370.896	57.86
371.107	20.99
371.317	31.23
371.528	41.47
371.739	102.91
371.95	102.91
372.16	12.8
372.371	-1.54
372.582	45.57
372.792	70.14
373.003	53.76
373.214	55.81
373.424	41.47
373.635	43.52
373.846	80.38
374.056	90.62
374.267	70.14
374.477	76.29
374.688	90.62
374.898	45.57
375.109	39.42
375.319	98.81
375.53	119.29
375.74	61.95
375.951	59.9
376.161	78.33
376.372	102.91
376.582	61.95
376.793	45.57
377.003	51.71
377.214	84.48
377.424	57.86
377.635	82.43
377.845	66.05
378.055	107.01
378.266	90.62
378.476	72.19
378.686	64
378.897	66.05
379.107	61.95
379.317	31.23
379.528	49.66
379.738	57.86
379.948	45.57
380.158	51.71
380.369	37.38
380.579	76.29
380.789	78.33
380.999	70.14
381.21	82.43
381.42	104.96
381.63	64
381.84	64
382.05	39.42
382.261	29.18
382.471	57.86
382.681	12.8
382.891	68.09
383.101	96.77
383.311	-24.06
383.521	78.33
383.731	141.82
383.941	78.33
384.151	43.52
384.361	119.29
384.571	100.86
384.781	119.29
384.991	100.86
385.201	96.77
385.411	94.72
385.621	76.29
385.831	23.04
386.041	-9.73
386.251	8.7
386.461	102.91
386.671	113.15
386.881	90.62
387.091	64
387.301	39.42
387.511	61.95
387.72	92.67
387.93	107.01
388.14	41.47
388.35	96.77
388.56	64
388.769	90.62
388.979	98.81
389.189	33.28
389.399	94.72
389.609	29.18
389.818	61.95
390.028	70.14
390.238	135.68
390.447	72.19
390.657	123.39
390.867	-17.92
391.076	59.9
391.286	113.15
391.496	145.92
391.705	41.47
391.915	68.09
392.125	64
392.334	72.19
392.544	72.19
392.753	4.61
392.963	59.9
393.172	150.01
393.382	57.86
393.591	59.9
393.801	61.95
394.01	135.68
394.22	104.96
394.429	139.77
394.639	104.96
394.848	64
395.058	57.86
395.267	53.76
395.477	188.93
395.686	68.09
395.895	96.77
396.105	195.07
396.314	131.58
396.524	121.34
396.733	100.86
396.942	84.48
397.152	115.2
397.361	90.62
397.57	59.9
397.78	160.25
397.989	102.91
398.198	164.35
398.407	94.72
398.617	117.25
398.826	94.72
399.035	88.57
399.244	193.02
399.453	72.19
399.663	195.07
399.872	123.39
400.081	76.29
400.29	107.01
400.499	168.45
400.708	188.93
400.917	131.58
401.127	174.59
401.336	137.73
401.545	172.54
401.754	168.45
401.963	129.53
402.172	96.77
402.381	125.44
402.59	80.38
402.799	115.2
403.008	111.1
403.217	176.64
403.426	131.58
403.635	117.25
403.844	86.53
404.053	213.5
404.262	145.92
404.471	195.07
404.68	166.4
404.888	156.16
405.097	104.96
405.306	199.16
405.515	256.51
405.724	143.87
405.933	197.12
406.142	203.26
406.35	199.16
406.559	209.4
406.768	213.5
406.977	176.64
407.185	256.51
407.394	289.28
407.603	188.93
407.812	315.9
408.02	258.56
408.229	217.6
408.438	293.37
408.646	227.84
408.855	229.88
409.064	242.17
409.272	369.15
409.481	332.28
409.69	291.32
409.898	375.29
410.107	346.62
410.315	340.47
410.524	274.94
410.733	291.32
410.941	311.8
411.15	313.85
411.358	332.28
411.567	375.29
411.775	383.48
411.984	457.21
412.192	395.77
412.401	442.87
412.609	516.6
412.818	438.78
413.026	477.69
413.234	545.27
413.443	512.5
413.651	473.59
413.86	502.26
414.068	655.86
414.276	655.86
414.485	633.33
414.693	582.14
414.901	709.11
415.11	694.77
415.318	578.04
415.526	737.78
415.734	692.73
415.943	758.26
416.151	823.8
416.359	791.03
416.567	905.71
416.776	918
416.984	895.47
417.192	940.53
417.4	963.06
417.608	1022.45
417.817	1044.98
418.025	1118.7
418.233	1055.22
418.441	1139.18
418.649	1188.33
418.857	1200.62
419.065	1210.86
419.273	1270.25
419.481	1386.99
419.689	1429.99
419.897	1397.23
420.105	1440.23
420.313	1429.99
420.521	1589.74
420.729	1618.41
420.937	1612.26
421.145	1720.81
421.353	1827.3
421.561	1993.19
421.769	1839.59
421.977	2048.48
422.185	2066.91
422.393	2183.65
422.601	2079.2
422.809	2077.15
423.017	2114.02
423.224	2324.96
423.432	2351.58
423.64	2464.22
423.848	2646.49
424.056	2537.95
424.263	2742.74
424.471	2861.52
424.679	2808.28
424.887	3092.94
425.094	3117.52
425.302	3135.95
425.51	3242.45
425.718	3115.47
425.925	3314.13
426.133	3400.14
426.341	3557.83
426.548	3738.05
426.756	3762.63
426.964	3809.73
427.171	4096.45
427.379	4114.88
427.586	4121.03
427.794	4276.67
428.001	4565.43
428.209	4700.6
428.417	4637.11
428.624	5206.45
428.832	4987.32
429.039	4919.73
429.247	4934.07
429.454	5386.67
429.662	5810.6
429.869	5411.25
430.076	5716.39
430.284	5728.68
430.491	5919.14
430.699	6238.62
430.906	6089.12
431.114	6304.16
431.321	6668.7
431.528	6637.98
431.736	7041.43
431.943	7510.41
432.15	7090.58
432.358	7395.73
432.565	7514.51
432.772	7772.55
432.979	8006.02
433.187	8198.53
433.394	8249.73
433.601	8728.95
433.808	8837.5
434.016	8757.63
434.223	9363.83
434.43	9752.94
434.637	9251.19
434.844	10064.23
435.052	10363.23
435.259	10244.45
435.466	10094.95
435.673	10131.81
435.88	10785.12
436.087	11415.89
436.294	11342.16
436.501	10998.1
436.708	11219.28
436.915	11702.61
437.122	12177.73
437.329	11923.79
437.537	12675.39
437.743	12863.8
437.95	12599.62
438.157	13529.39
438.364	13498.67
438.571	13650.22
438.778	13785.39
438.985	15259.93
439.192	14403.88
439.399	15163.67
439.606	14661.92
439.813	15675.66
440.02	16496.9
440.227	16089.35
440.433	16052.49
440.64	16609.54
440.847	16353.54
441.054	16800
441.261	17754.35
441.467	17539.32
441.674	18098.41
441.881	18559.2
442.088	18546.92
442.294	18145.52
442.501	19169.5
442.708	19237.08
442.914	20062.41
443.121	21176.51
443.328	20435.14
443.534	21848.24
443.741	21219.52
443.948	20943.04
444.154	22421.67
444.361	22155.44
444.568	22358.19
444.774	22505.64
444.981	22900.9
445.187	23167.13
445.394	24322.19
445.6	24283.28
445.807	26421.36
446.013	25294.97
446.22	26019.95
446.426	26820.71
446.633	26835.05
446.839	27820.12
447.046	26564.71
447.252	28192.85
447.459	28037.2
447.665	28170.32
447.871	29616.19
448.078	30447.66
448.284	29272.13
448.491	29835.32
448.697	30863.4
448.903	31584.29
449.11	31574.05
449.316	30896.17
449.522	31924.25
449.728	32546.83
449.935	32376.85
450.141	32669.71
450.347	33409.03
450.553	32405.52
450.76	32944.14
450.966	33730.56
451.172	33511.42
451.378	34457.59
451.584	33544.19
451.791	34662.38
451.997	34334.71
452.203	35160.04
452.409	34586.61
452.615	34635.76
452.821	33435.65
453.027	33136.65
453.233	34678.77
453.44	33282.05
453.646	33755.13
453.852	33990.65
454.058	34484.21
454.264	33177.61
454.47	34238.45
454.676	33294.34
454.882	34349.04
455.088	31361.06
455.294	32133.14
455.5	32192.53
455.705	32450.58
455.911	31361.06
456.117	30742.57
456.323	30412.85
456.529	28459.09
456.735	29956.15
456.941	29046.85
457.147	28475.47
457.352	27803.74
457.558	27779.16
457.764	27877.46
457.97	27220.06
458.176	26255.47
458.381	26607.72
458.587	25319.55
458.793	25100.42
458.999	24058
459.204	25632.89
459.41	24909.96
459.616	23615.64
459.821	23296.16
460.027	23429.27
460.233	22757.54
460.438	21551.29
460.644	22028.46
460.85	21051.58
461.055	20461.77
461.261	20777.15
461.466	19046.62
461.672	18497.77
461.878	19970.26
462.083	18415.85
462.289	18020.59
462.494	18145.52
462.7	17156.35
462.905	16625.92
463.111	17514.74
463.316	17543.41
463.522	16855.29
463.727	17119.48
463.932	16914.69
464.138	16910.59
464.343	16632.07
464.549	16437.51
464.754	17205.5
464.959	16886.01
465.165	16957.69
465.37	16304.39
465.575	15714.58
465.781	16435.46
465.986	16204.04
466.191	15749.39
466.397	15472.92
466.602	14692.64
466.807	15483.16
467.012	15325.46
467.218	15169.82
467.423	14885.15
467.628	15020.31
467.833	15544.59
468.038	15202.58
468.244	15048.99
468.449	15153.43
468.654	14770.46
468.859	14709.02
469.064	14696.74
469.269	14057.77
469.474	14371.11
469.679	14391.59
469.885	14166.31
470.09	14115.11
470.295	14250.28
470.5	13973.8
470.705	14018.86
470.91	13734.19
471.115	13631.79
471.32	13588.78
471.525	13402.42
471.73	13207.86
471.935	13277.49
472.139	12880.19
472.344	12910.91
472.549	12929.34
472.754	12693.82
472.959	12503.36
473.164	12220.74
473.369	12169.54
473.574	12472.64
473.778	12187.97
473.983	12132.68
474.188	12259.65
474.393	11776.33
474.598	11845.96
474.802	11602.25
475.007	11385.17
475.212	11385.17
475.417	11237.72
475.621	11106.65
475.826	11114.84
476.031	10793.31
476.235	10752.35
476.44	10824.03
476.645	10701.15
476.849	10668.38
477.054	10502.5
477.259	10240.36
477.463	10377.57
477.668	10461.54
477.872	10281.32
478.077	9974.12
478.282	9931.11
478.486	9826.67
478.691	9681.26
478.895	9625.97
479.1	9673.07
479.304	9765.23
479.509	9439.6
479.713	9642.35
479.918	9167.22
480.122	9341.3
480.326	9355.63
480.531	9572.72
480.735	9306.48
480.94	9052.53
481.144	9429.36
481.348	9056.63
481.553	9128.31
481.757	8991.09
481.961	9042.29
482.166	9288.05
482.37	9249.14
482.574	8989.05
482.778	8894.84
482.983	9144.69
483.187	9056.63
483.391	9122.16
483.595	8976.76
483.8	8952.18
484.004	9113.97
484.208	9079.16
484.412	8896.89
484.616	9027.96
484.821	9017.72
485.025	8960.38
485.229	9093.49
485.433	8956.28
485.637	8991.09
485.841	8921.46
486.045	8821.11
486.249	9073.01
486.453	8800.63
486.657	9058.68
486.861	9042.29
487.065	8827.26
487.269	8808.83
487.473	8753.53
487.677	9060.73
487.881	9085.3
488.085	9013.62
488.289	8798.59
488.493	8970.62
488.697	9083.25
488.901	9120.12
489.105	8927.61
489.309	9120.12
489.512	9320.82
489.716	9058.68
489.92	9089.4
490.124	8855.93
490.328	9265.52
490.531	9253.23
490.735	9148.79
490.939	9247.09
491.143	9386.35
491.346	9496.94
491.55	9494.9
491.754	9494.9
491.958	9519.47
492.161	9408.88
492.365	9638.25
492.569	9417.07
492.772	9654.64
492.976	9666.92
493.18	9736.56
493.383	9711.98
493.587	9853.29
493.79	10002.79
493.994	9972.07
494.197	10070.37
494.401	10064.23
494.605	10117.48
494.808	10473.82
495.012	10129.77
495.215	10371.43
495.419	10522.98
495.622	10408.29
495.825	10441.06
496.029	10727.77
496.232	10801.5
496.436	10922.33
496.639	10875.23
496.843	10932.57
497.046	11211.09
497.249	11299.16
497.453	11299.16
497.656	11475.28
497.859	11456.85
498.063	11628.88
498.266	12075.34
498.469	12030.28
498.673	11964.75
498.876	12370.24
499.079	12693.82
499.282	12568.9
499.485	12589.38
499.689	12648.77
499.892	12654.91
500.095	13017.4
500.298	13201.72
500.501	13261.11
500.705	13605.17
500.908	13875.5
501.111	13906.22
501.314	13660.46
501.517	14041.39
501.72	14209.32
501.923	14293.29
502.126	14672.16
502.329	14799.13
502.532	15014.17
502.735	15069.47
502.938	15450.39
503.141	15560.98
503.344	15868.17
503.547	15616.27
503.75	16050.44
503.953	16122.12
504.156	16388.36
504.359	16488.71
504.562	16572.68
504.765	17271.03
504.968	17457.4
505.17	17527.03
505.373	17611
505.576	17889.52
505.779	18151.66
505.982	18159.85
506.185	18641.12
506.387	18690.27
506.59	18733.28
506.793	19206.36
506.996	19241.18
507.198	20023.5
507.401	19632.34
507.604	20015.31
507.807	20117.71
508.009	20558.02
508.212	20574.41
508.415	21143.74
508.617	21254.33
508.82	21577.91
509.022	21350.59
509.225	21657.78
509.428	22253.74
509.63	22409.39
509.833	22212.78
510.035	22911.14
510.238	23187.61
510.44	23285.92
510.643	23566.49
510.845	23859.35
511.048	23908.5
511.25	24416.4
511.453	24588.42
511.655	25428.09
511.858	25131.14
512.06	25323.65
512.262	25653.37
512.465	25794.68
512.667	26439.79
512.87	26654.83
513.072	26882.15
513.274	27136.1
513.477	27486.3
513.679	27707.48
513.881	28006.48
514.084	28375.12
514.286	28352.59
514.488	28745.8
514.69	29702.2
514.893	29290.56
515.095	29802.55
515.297	30457.9
515.499	30275.63
515.701	30789.67
515.904	31152.16
516.106	31178.79
516.308	31318.05
516.51	32036.89
516.712	32313.36
516.914	32571.41
517.116	32964.62
517.318	33660.93
517.52	33255.43
517.722	33298.44
517.925	34140.15
518.127	34318.32
518.329	34877.42
518.531	34893.8
518.733	35418.08
518.935	35846.11
519.136	35872.73
519.338	36458.45
519.54	36863.95
519.742	37027.79
519.944	36945.87
520.146	38170.55
520.348	38084.54
520.55	37937.09
520.752	38555.57
520.954	39024.56
521.155	38786.99
521.357	39735.2
521.559	39597.99
521.761	40347.54
521.963	40214.43
522.164	40812.43
522.366	41009.04
522.568	41271.18
522.77	41238.41
522.971	42067.84
523.173	42014.59
523.375	42585.97
523.576	42481.53
523.778	42407.8
523.98	43204.46
524.181	43347.82
524.383	42874.74
524.584	44214.11
524.786	43870.05
524.988	43880.29
525.189	44640.09
525.391	44771.16
525.592	44756.82
525.794	45274.96
525.995	45487.95
526.197	45072.21
526.398	45500.23
526.6	45803.33
526.801	46221.12
527.003	46294.85
527.204	46315.33
527.406	46942
527.607	46696.25
527.808	47210.29
528.01	46604.09
528.211	47050.55
528.412	47910.69
528.614	47466.28
528.815	47607.59
529.016	47832.87
529.218	47327.02
529.419	47748.9
529.62	48238.37
529.822	47920.93
530.023	47978.28
530.224	48537.37
530.425	48250.66
530.626	48381.73
530.828	47744.81
531.029	49452.81
531.23	47945.51
531.431	48389.92
531.632	48549.66
531.833	49022.74
532.035	49028.88
532.236	48852.76
532.437	48985.88
532.638	48791.32
532.839	49159.95
533.04	49327.89
533.241	48394.01
533.442	49354.51
533.643	49159.95
533.844	49067.8
534.045	49532.68
534.246	48791.32
534.447	49557.26
534.648	49239.82
534.849	49301.26
535.05	49209.11
535.251	49497.87
535.451	49532.68
535.652	49329.94
535.853	49112.85
536.054	49970.95
536.255	49579.79
536.456	49626.89
536.657	50456.32
536.857	49452.81
537.058	49444.62
537.259	49786.63
537.46	50165.51
537.66	49456.91
537.861	49561.36
538.062	49442.57
538.263	50067.2
538.463	49686.28
538.664	49395.47
538.865	49856.26
539.065	50218.75
539.266	49073.94
539.466	49872.65
539.667	49465.1
539.868	50061.06
540.068	49753.86
540.269	49760.01
540.469	49620.75
540.67	49819.4
540.87	49663.75
541.071	49526.54
541.271	49948.42
541.472	49587.98
541.672	49379.09
541.873	49196.82
542.073	49229.58
542.274	50089.73
542.474	49461.01
542.675	49168.15
542.875	49907.46
543.075	49864.46
543.276	48965.4
543.476	50155.27
543.676	49200.91
543.877	49768.2
544.077	49807.11
544.277	49426.19
544.478	49690.38
544.678	49964.81
544.878	49499.92
545.078	49729.29
545.279	49262.35
545.479	49118.99
545.679	49514.25
545.879	49424.14
546.079	49809.16
546.28	49557.26
546.48	49420.05
546.68	49606.41
546.88	49514.25
547.08	49356.56
547.28	49233.68
547.48	49000.21
547.68	49579.79
547.88	49184.53
548.081	49389.33
548.281	49493.77
548.481	49411.85
548.681	49411.85
548.881	49450.77
549.081	49399.57
549.28	49063.7
549.48	49504.01
549.68	49309.46
549.88	49669.9
550.08	49293.07
550.28	49655.56
550.48	49114.9
550.68	49473.29
550.88	49393.42
551.08	49190.67
551.279	49379.09
551.479	48906.01
551.679	49405.71
551.879	49440.53
552.079	49452.81
552.278	49303.31
552.478	49243.92
552.678	49262.35
552.878	49882.89
553.077	48992.02
553.277	48705.3
553.477	49452.81
553.676	48883.48
553.876	48791.32
554.076	48942.87
554.275	48607
554.475	48586.52
554.674	49250.06
554.874	48949.01
555.074	48908.05
555.273	48879.38
555.473	48998.16
555.672	48684.83
555.872	48707.35
556.071	48627.48
556.271	49221.39
556.47	48559.9
556.67	48219.94
556.869	48486.17
557.068	48525.08
557.268	48174.88
557.467	48711.45
557.667	48095.01
557.866	48140.07
558.065	48598.81
558.265	48226.08
558.464	48514.84
558.663	47976.23
558.863	48033.57
559.062	48297.76
559.261	47623.98
559.461	48160.55
559.66	47392.56
559.859	47882.02
560.058	47400.75
560.258	47984.42
560.457	47185.71
560.656	47707.94
560.855	47490.86
561.054	47927.08
561.253	47331.12
561.453	47324.97
561.652	47400.75
561.851	47814.44
562.05	47253.29
562.249	46790.45
562.448	47712.04
562.647	47218.48
562.846	47034.16
563.045	47083.31
563.244	46395.2
563.443	47367.98
563.642	46593.85
563.841	47017.78
564.04	46651.19
564.239	47204.14
564.438	46620.47
564.637	46767.93
564.836	46901.04
565.035	46530.36
565.234	46143.3
565.432	46325.57
565.631	45868.87
565.83	46432.06
566.029	46030.66
566.228	46085.95
566.427	45875.01
566.625	45803.33
566.824	45743.94
567.023	45928.26
567.222	45227.85
567.42	45602.63
567.619	45410.12
567.818	45858.63
568.016	45074.26
568.215	45748.04
568.414	45299.53
568.612	45461.32
568.811	45225.81
569.01	45174.61
569.208	44203.87
569.407	44992.34
569.605	44189.53
569.804	44910.42
570.002	44408.67
570.201	44590.94
570.4	43904.87
570.598	44144.48
570.797	44115.81
570.995	44492.63
571.193	43853.67
571.392	44379.99
571.59	43749.22
571.789	43636.58
571.987	43722.6
572.186	43581.29
572.384	43374.44
572.582	43294.57
572.781	43343.72
572.979	43106.16
573.177	43151.21
573.376	42938.22
573.574	42540.92
573.772	42796.91
573.971	42631.03
574.169	42669.94
574.367	42098.56
574.565	42758
574.763	42155.9
574.962	41990.02
575.16	42008.45
575.358	41895.81
575.556	41492.36
575.754	42076.03
575.952	41482.12
576.151	41830.27
576.349	41326.47
576.547	41275.27
576.745	41095.05
576.943	41226.12
577.141	41265.03
577.339	41076.62
577.537	40816.53
577.735	40585.11
577.933	40388.5
578.131	40671.12
578.329	40114.08
578.527	40480.66
578.725	40671.12
578.923	40462.23
579.121	39841.7
579.319	39880.61
579.516	40009.63
579.714	39923.61
579.912	39561.12
580.11	39712.67
580.308	39552.93
580.506	39489.45
580.704	38840.24
580.901	39258.02
581.099	39718.82
581.297	38877.1
581.495	38846.38
581.692	39182.25
581.89	38496.18
582.088	39137.19
582.285	38588.34
582.483	38721.46
582.681	38297.53
582.878	38707.12
583.076	38049.72
583.274	38006.72
583.471	37834.69
583.669	37654.47
583.866	37369.8
584.064	38070.2
584.262	37173.19
584.459	37902.27
584.657	37318.6
584.854	37662.66
585.052	36700.11
585.249	37148.62
585.447	37144.52
585.644	36650.96
585.841	36884.43
586.039	36954.06
586.236	36286.42
586.434	36325.33
586.631	36151.26
586.828	36198.36
587.026	36216.79
587.223	36034.52
587.42	35870.68
587.618	35911.64
587.815	35600.35
588.012	35665.89
588.21	35532.77
588.407	35966.94
588.604	35428.32
588.801	35448.8
588.999	35487.71
589.196	35092.46
589.393	35223.53
589.59	34824.17
589.787	34680.81
589.984	34471.92
590.182	34590.7
590.379	34908.14
590.576	34256.89
590.773	34494.45
590.97	34306.04
591.167	34594.8
591.364	33806.33
591.561	34392.05
591.758	33880.06
591.955	33804.28
592.152	33941.5
592.349	33839.1
592.546	33945.59
592.743	33550.34
592.94	33032.2
593.137	33282.05
593.334	33271.81
593.531	32759.82
593.727	33165.32
593.924	33056.78
594.121	32626.7
594.318	32886.79
594.515	31969.3
594.712	32811.02
594.908	32260.12
595.105	32241.68
595.302	32217.11
595.499	32276.5
595.696	32444.43
595.892	31973.4
596.089	32505.87
596.286	31977.5
596.482	31541.28
596.679	31668.25
596.876	31821.85
597.072	31664.16
597.269	31631.39
597.466	31111.21
597.662	31039.53
597.859	31621.15
598.055	31299.62
598.252	31098.92
598.448	31117.35
598.645	30799.91
598.841	30451.76
599.038	30863.4
599.234	30697.52
599.431	30259.25
599.627	30402.61
599.824	30353.46
600.02	30195.76
600.217	30240.82
600.413	29962.29
600.609	29978.68
600.806	29468.73
601.002	29640.76
601.198	29749.31
601.395	29407.3
601.591	29581.37
601.787	29706.3
601.984	29190.21
602.18	29429.82
602.376	28954.69
602.572	29093.96
602.769	28971.08
602.965	28411.98
603.161	28729.42
603.357	28790.86
603.553	28502.09
603.75	28907.59
603.946	28321.87
604.142	28702.79
604.338	27916.37
604.534	28330.06
604.73	27695.19
604.926	27861.08
605.122	27887.7
605.318	27721.82
605.514	27873.37
605.71	27431.01
605.906	27271.26
606.102	27551.84
606.298	27447.39
606.494	27244.64
606.69	27314.27
606.886	27566.17
607.082	26902.63
607.278	27164.77
607.474	26642.54
607.67	26808.42
607.866	26927.21
608.062	26751.08
608.257	26429.55
608.453	26775.66
608.649	26304.62
608.845	26331.25
609.041	26396.78
609.236	26237.04
609.432	26163.31
609.628	26148.98
609.824	26265.71
610.019	26091.63
610.215	25985.14
610.411	25929.84
610.606	25636.98
610.802	25516.15
610.998	25639.03
611.193	25626.74
611.389	25462.91
611.584	25442.43
611.78	25276.54
611.976	25280.64
612.171	25129.09
612.367	25405.56
612.562	24905.86
612.758	24785.03
612.953	24776.84
613.149	24995.97
613.344	24545.42
613.539	25331.84
613.735	24666.25
613.93	24625.29
614.126	24359.05
614.321	25043.07
614.517	24285.33
614.712	24635.53
614.907	24291.47
615.103	24649.86
615.298	24332.43
615.493	24416.4
615.688	23736.47
615.884	24475.79
616.079	24014.99
616.274	23873.68
616.47	24021.14
616.665	23754.9
616.86	23781.53
617.055	23726.23
617.25	23656.6
617.445	23793.81
617.641	23214.24
617.836	23713.94
618.031	23148.7
618.226	23466.14
618.421	23228.57
618.616	23369.88
618.811	23079.07
619.006	23124.13
619.201	22753.44
619.396	22909.09
619.591	22311.08
619.786	22907.04
619.981	22294.7
620.176	22605.99
620.371	22204.59
620.566	22276.27
620.761	21999.79
620.956	22091.95
621.151	21840.05
621.346	21917.87
621.541	21403.83
621.735	22038.7
621.93	21395.64
622.125	21508.28
622.32	21379.26
622.515	21244.09
622.709	21135.55
622.904	20971.71
623.099	20908.22
623.294	21123.26
623.488	20396.23
623.683	20560.07
623.878	20224.2
624.072	20373.71
624.267	20472.01
624.462	20191.44
624.656	20173
624.851	20070.61
625.046	19833.04
625.24	19720.4
625.435	19550.42
625.629	19411.16
625.824	19566.81
626.018	19454.17
626.213	19114.2
626.407	19183.84
626.602	18753.76
626.796	18917.6
626.991	18864.35
627.185	18661.6
627.38	18729.19
627.574	18594.02
627.768	18307.3
627.963	18512.1
628.157	18278.63
628.352	18153.71
628.546	17844.46
628.74	17965.29
628.935	17615.09
629.129	17670.39
629.323	17604.85
629.517	17383.67
629.712	17467.64
629.906	17504.5
630.1	16994.56
630.294	17047.8
630.489	17172.73
630.683	17019.13
630.877	16781.57
631.071	16955.65
631.265	16771.33
631.459	16759.04
631.653	16621.83
631.848	16654.59
632.042	16451.84
632.236	16511.24
632.43	16034.06
632.624	16255.24
632.818	16048.4
633.012	15851.79
633.206	15726.86
633.4	15825.17
633.594	15771.92
633.788	15560.98
633.982	15831.31
634.176	15804.69
634.369	15513.88
634.563	15413.52
634.757	15292.69
634.951	15323.41
635.145	15171.86
635.339	15206.68
635.533	15032.6
635.726	14856.48
635.92	14659.87
636.114	14975.26
636.308	14780.7
636.501	14616.86
636.695	14571.81
636.889	14600.48
637.083	14498.08
637.276	14147.88
637.47	14272.81
637.664	14221.61
637.857	14201.13
638.051	13852.97
638.244	14000.43
638.438	13943.08
638.632	13652.27
638.825	13656.37
639.019	13646.13
639.212	13580.59
639.406	13576.5
639.599	13762.86
639.793	13474.1
639.986	13189.43
640.18	13218.1
640.373	13230.39
640.567	13046.07
640.76	13308.21
640.954	12990.78
641.147	12933.43
641.34	12939.58
641.534	12861.76
641.727	12775.74
641.92	12589.38
642.114	12685.63
642.307	12378.44
642.5	12583.23
642.694	12448.07
642.887	12362.05
643.08	12507.46
643.273	12355.91
643.467	12110.15
643.66	12032.33
643.853	11956.55
644.046	11923.79
644.239	11970.89
644.432	12058.95
644.626	11718.99
644.819	11686.22
645.012	11815.24
645.205	11272.53
645.398	11413.84
645.591	11432.27
645.784	11460.95
645.977	11131.22
646.17	11163.99
646.363	11022.68
646.556	10969.43
646.749	10994.01
646.942	10813.79
647.135	10744.16
647.328	10725.72
647.521	10697.05
647.714	10690.91
647.907	10869.08
648.099	10559.84
648.292	10676.57
648.485	10459.49
648.678	10275.17
648.871	10367.33
649.064	10285.41
649.256	10414.43
649.449	10389.86
649.642	10053.99
649.835	9832.81
650.027	9746.8
650.22	9959.78
650.413	9851.24
650.605	9687.4
650.798	9771.37
650.991	9605.49
651.183	9630.06
651.376	9556.33
651.568	9550.19
651.761	9503.09
651.954	9423.22
652.146	9468.27
652.339	9400.69
652.531	9277.81
652.724	9179.51
652.916	9124.21
653.109	9042.29
653.301	9122.16
653.494	8903.03
653.686	8954.23
653.879	8923.51
654.071	8860.02
654.263	8663.42
654.456	8651.13
654.648	8821.11
654.84	8384.9
655.033	8569.21
655.225	8528.25
655.417	8386.94
655.61	8239.49
655.802	8264.07
655.994	8221.06
656.186	8321.41
656.379	8274.31
656.571	8171.91
656.763	8180.1
656.955	8051.08
657.148	7917.96
657.34	7840.14
657.532	7774.6
657.724	7782.79
657.916	7680.39
658.108	7524.75
658.3	7637.39
658.492	7635.34
658.684	7549.32
658.876	7547.28
659.068	7516.56
659.26	7530.89
659.452	7436.69
659.644	7377.3
659.836	7299.47
660.028	7168.4
660.22	7092.63
660.412	7233.94
660.604	7059.86
660.796	7260.56
660.988	6871.45
661.18	6912.41
661.372	6836.63
661.563	6916.5
661.755	6803.86
661.947	6795.67
662.139	6666.65
662.331	6611.36
662.522	6521.24
662.714	6572.44
662.906	6699.42
663.097	6320.54
663.289	6490.52
663.481	6384.03
663.673	6488.48
663.864	6287.78
664.056	6293.92
664.247	6277.54
664.439	6246.82
664.631	6195.62
664.822	6074.79
665.014	6023.59
665.205	6093.22
665.397	6050.21
665.588	5976.48
665.78	5904.81
665.971	5933.48
666.163	5882.28
666.354	5966.24
666.546	5798.31
666.737	5710.25
666.929	5859.75
667.12	5697.96
667.311	5691.82
667.503	5601.71
667.694	5648.81
667.885	5570.99
668.077	5640.62
668.268	5534.12
668.459	5550.51
668.651	5360.05
668.842	5325.23
669.033	5267.89
669.224	5452.2
669.416	5249.46
669.607	5355.95
669.798	5265.84
669.989	5456.3
670.18	5292.46
670.371	5194.16
670.563	5169.59
670.754	5120.43
670.945	5116.34
671.136	5065.14
671.327	5024.18
671.518	4958.64
671.709	5046.71
671.9	5204.4
672.091	4960.69
672.282	4843.96
672.473	4954.55
672.664	4854.2
672.855	5003.7
673.046	4960.69
673.237	4880.82
673.428	5030.32
673.619	4626.87
673.809	4790.71
674	4917.68
674.191	4841.91
674.382	4714.94
674.573	4653.5
674.764	4618.68
674.954	4782.52
675.145	4614.59
675.336	4600.25
675.527	4608.44
675.717	4657.59
675.908	4495.8
676.099	4528.57
676.289	4551.1
676.48	4413.88
676.671	4405.69
676.861	4536.76
677.052	4415.93
677.243	4514.24
677.433	4452.8
677.624	4413.88
677.814	4348.35
678.005	4569.53
678.195	4413.88
678.386	4276.67
678.576	4219.33
678.767	4176.32
678.957	4168.13
679.148	4143.55
679.338	4207.04
679.529	4280.77
679.719	4094.4
679.909	4288.96
680.1	4258.24
680.29	4219.33
680.481	4207.04
680.671	4264.38
680.861	4069.83
681.052	4172.22
681.242	4053.44
681.432	4139.46
681.622	4121.03
681.813	3979.72
682.003	3852.74
682.193	3946.95
682.383	4145.6
682.573	4002.24
682.764	3969.48
682.954	3944.9
683.144	3932.61
683.334	3955.14
683.524	3862.98
683.714	3981.76
683.904	3946.95
684.094	3764.68
684.284	3955.14
684.474	3901.89
684.664	3883.46
684.854	3738.05
685.044	3848.65
685.234	3817.93
685.424	3834.31
685.614	3840.45
685.804	3797.45
685.994	3838.41
686.184	3688.9
686.374	3742.15
686.564	3693
686.753	3750.34
686.943	3668.42
687.133	3787.21
687.323	3625.42
687.513	3652.04
687.702	3766.73
687.892	3627.46
688.082	3748.29
688.272	3676.62
688.461	3736.01
688.651	3580.36
688.841	3693
689.03	3762.63
689.22	3645.9
689.41	3682.76
689.599	3480.01
689.789	3606.98
689.979	3590.6
690.168	3541.45
690.358	3623.37
690.547	3609.03
690.737	3584.46
690.926	3488.2
691.116	3510.73
691.305	3461.58
691.495	3549.64
691.684	3537.35
691.874	3527.11
692.063	3453.39
692.252	3437
692.442	3512.78
692.631	3545.55
692.82	3412.43
693.01	3492.3
693.199	3453.39
693.388	3377.61
693.578	3527.11
693.767	3463.63
693.956	3441.1
694.146	3461.58
694.335	3449.29
694.524	3293.65
694.713	3428.81
694.902	3477.96
695.092	3465.68
695.281	3402.19
695.47	3400.14
695.659	3500.49
695.848	3363.28
696.037	3418.57
696.226	3412.43
696.415	3322.32
696.604	3344.84
696.793	3412.43
696.982	3418.57
697.171	3275.21
697.36	3443.15
697.549	3209.68
697.738	3297.74
697.927	3285.45
698.116	3322.32
698.305	3260.88
698.494	3324.37
698.683	3256.78
698.872	3293.65
699.061	3246.54
699.25	3181.01
699.438	3297.74
699.627	3283.41
699.816	3338.7
700.005	3115.47
700.193	3260.88
700.382	3260.88
700.571	3316.17
700.76	3078.61
700.948	3262.93
701.137	3150.29
701.326	3291.6
701.514	3185.1
701.703	3125.71
701.892	3238.35
702.08	3117.52
702.269	3211.73
702.457	3181.01
702.646	3162.58
702.834	3025.36
703.023	3230.16
703.212	3054.03
703.4	3043.79
703.589	3131.86
703.777	3121.62
703.965	3129.81
704.154	2980.31
704.342	2955.73
704.531	2941.4
704.719	3002.83
704.907	2986.45
705.096	3058.13
705.284	2982.35
705.472	2984.4
705.661	3072.47
705.849	3033.55
706.037	2949.59
706.226	2951.63
706.414	2965.97
706.602	2849.24
706.79	3002.83
706.979	2920.92
707.167	2916.82
707.355	2914.77
707.543	2908.63
707.731	2925.01
707.919	2798.04
708.107	2847.19
708.296	2769.37
708.484	2861.52
708.672	2900.44
708.86	2839
709.048	2834.9
709.236	2718.17
709.424	2660.82
709.612	2830.8
709.8	2750.93
709.988	2728.41
710.176	2634.2
710.364	2744.79
710.551	2785.75
710.739	2677.21
710.927	2662.87
711.115	2636.25
711.303	2656.73
711.491	2560.47
711.679	2628.06
711.866	2546.14
712.054	2642.39
712.242	2564.57
712.43	2572.76
712.617	2626.01
712.805	2593.24
712.993	2486.75
713.181	2464.22
713.368	2427.35
713.556	2486.75
713.744	2464.22
713.931	2599.38
714.119	2413.02
714.306	2548.19
714.494	2472.41
714.682	2294.24
714.869	2365.92
715.057	2367.96
715.244	2327
715.432	2363.87
715.619	2384.35
715.807	2335.2
715.994	2320.86
716.182	2243.04
716.369	2314.72
716.556	2265.57
716.744	2161.12
716.931	2226.65
717.119	2304.48
717.306	2150.88
717.493	2222.56
717.681	2193.89
717.868	2154.98
718.055	2204.13
718.242	2226.65
718.43	2146.78
718.617	2181.6
718.804	2177.5
718.991	2136.54
719.179	2097.63
719.366	2118.11
719.553	2107.87
719.74	2154.98
719.927	2150.88
720.114	2105.82
720.301	2126.3
720.488	2046.43
720.676	2007.52
720.863	1978.85
721.05	1956.32
721.237	2040.29
721.424	2036.19
721.611	2077.15
721.798	2001.38
721.985	2019.81
722.172	1872.36
722.358	1964.51
722.545	1993.19
722.732	1962.47
722.919	1898.98
723.106	1860.07
723.293	1831.4
723.48	1888.74
723.667	1864.16
723.853	1874.4
724.04	1888.74
724.227	1790.44
724.414	1864.16
724.6	1812.96
724.787	1878.5
724.974	1806.82
725.161	1880.55
725.347	1653.22
725.534	1864.16
725.72	1769.96
725.907	1821.16
726.094	1733.09
726.28	1792.48
726.467	1702.37
726.653	1747.43
726.84	1837.54
727.027	1759.72
727.213	1667.56
727.4	1708.52
727.586	1690.09
727.773	1659.37
727.959	1659.37
728.145	1743.33
728.332	1694.18
728.518	1591.78
728.705	1540.58
728.891	1616.36
729.077	1677.8
729.264	1554.92
729.45	1694.18
729.636	1741.29
729.823	1683.94
730.009	1620.46
730.195	1657.32
730.382	1616.36
730.568	1645.03
730.754	1597.93
730.94	1556.97
731.126	1628.65
731.313	1511.91
731.499	1587.69
731.685	1485.29
731.871	1614.31
732.057	1468.91
732.243	1538.54
732.429	1550.82
732.615	1507.82
732.801	1544.68
732.987	1452.52
733.173	1520.1
733.359	1429.99
733.545	1382.89
733.731	1526.25
733.917	1511.91
734.103	1419.75
734.289	1487.34
734.475	1485.29
734.661	1503.72
734.847	1456.62
735.033	1423.85
735.219	1423.85
735.404	1446.38
735.59	1528.3
735.776	1425.9
735.962	1417.71
736.148	1415.66
736.333	1429.99
736.519	1389.03
736.705	1421.8
736.89	1348.08
737.076	1401.32
737.262	1395.18
737.447	1331.69
737.633	1331.69
737.819	1286.64
738.004	1333.74
738.19	1298.92
738.375	1307.12
738.561	1268.2
738.747	1321.45
738.932	1323.5
739.118	1255.92
739.303	1343.98
739.489	1382.89
739.674	1225.2
739.859	1333.74
740.045	1235.44
740.23	1219.05
740.416	1235.44
740.601	1278.44
740.786	1159.66
740.972	1247.72
741.157	1217.01
741.342	1225.2
741.528	1137.13
741.713	1262.06
741.898	1212.91
742.084	1212.91
742.269	1210.86
742.454	1192.43
742.639	1190.38
742.824	1178.09
743.01	1190.38
743.195	1143.28
743.38	1208.81
743.565	1137.13
743.75	1139.18
743.935	1188.33
744.12	1130.99
744.305	1161.71
744.49	1028.59
744.675	1077.74
744.86	1090.03
745.045	1143.28
745.23	1057.26
745.415	1081.84
745.6	1053.17
745.785	944.63
745.97	1065.46
746.155	1077.74
746.34	1090.03
746.525	1063.41
746.71	1044.98
746.895	1077.74
747.079	1047.02
747.264	1028.59
747.449	1051.12
747.634	1032.69
747.819	1022.45
748.003	985.58
748.188	1044.98
748.373	977.39
748.557	938.48
748.742	967.15
748.927	950.77
749.111	926.19
749.296	938.48
749.481	1020.4
749.665	946.67
749.85	899.57
750.034	901.62
750.219	967.15
750.404	997.87
750.588	946.67
750.773	897.52
750.957	881.14
751.141	877.04
751.326	934.39
751.51	889.33
751.695	934.39
751.879	870.9
752.064	885.23
752.248	938.48
752.432	856.56
752.617	791.03
752.801	770.55
752.985	866.8
753.17	791.03
753.354	838.13
753.538	784.88
753.722	825.84
753.907	741.88
754.091	836.08
754.275	791.03
754.459	795.12
754.643	782.84
754.828	782.84
755.012	748.02
755.196	776.69
755.38	723.44
755.564	774.64
755.748	760.31
755.932	715.25
756.116	758.26
756.3	684.53
756.484	727.54
756.668	743.92
756.852	750.07
757.036	731.64
757.22	707.06
757.404	707.06
757.588	705.01
757.772	705.01
757.956	651.77
758.14	711.16
758.323	668.15
758.507	584.18
758.691	715.25
758.875	750.07
759.059	676.34
759.242	619
759.426	637.43
759.61	573.94
759.794	647.67
759.977	705.01
760.161	639.48
760.345	758.26
760.528	678.39
760.712	643.57
760.895	668.15
761.079	715.25
761.263	655.86
761.446	707.06
761.63	614.9
761.813	670.2
761.997	625.14
762.18	629.24
762.364	563.7
762.547	571.9
762.731	627.19
762.914	619
763.098	686.58
763.281	666.1
763.464	655.86
763.648	647.67
763.831	586.23
764.015	586.23
764.198	559.61
764.381	614.9
764.564	522.74
764.748	616.95
764.931	621.05
765.114	569.85
765.297	580.09
765.481	586.23
765.664	504.31
765.847	539.13
766.03	582.14
766.213	510.46
766.397	559.61
766.58	573.94
766.763	506.36
766.946	545.27
767.129	635.38
767.312	520.7
767.495	520.7
767.678	551.42
767.861	571.9
768.044	582.14
768.227	596.47
768.41	567.8
768.593	522.74
768.776	494.07
768.959	541.18
769.142	469.5
769.324	537.08
769.507	539.13
769.69	520.7
769.873	520.7
770.056	567.8
770.239	573.94
770.421	596.47
770.604	494.07
770.787	489.98
770.97	475.64
771.152	442.87
771.335	571.9
771.518	561.66
771.7	582.14
771.883	457.21
772.066	498.17
772.248	565.75
772.431	526.84
772.613	449.02
772.796	487.93
772.978	504.31
773.161	430.59
773.343	496.12
773.526	528.89
773.708	498.17
773.891	483.83
774.073	455.16
774.256	471.54
774.438	438.78
774.621	442.87
774.803	510.46
774.985	459.26
775.168	451.07
775.35	483.83
775.532	463.35
775.715	473.59
775.897	487.93
776.079	412.15
776.261	430.59
776.444	477.69
776.626	350.71
776.808	436.73
776.99	373.24
777.173	481.78
777.355	426.49
777.537	408.06
777.719	416.25
777.901	418.3
778.083	389.63
778.265	389.63
778.447	461.3
778.629	317.95
778.811	428.54
778.993	395.77
779.175	477.69
779.357	430.59
779.539	365.05
779.721	406.01
779.903	406.01
780.085	334.33
780.267	379.39
780.449	391.67
780.631	416.25
780.812	379.39
780.994	373.24
781.176	328.19
781.358	498.17
781.54	416.25
781.721	369.15
781.903	387.58
782.085	375.29
782.267	315.9
782.448	334.33
782.63	344.57
782.812	346.62
782.993	375.29
783.175	297.47
783.357	307.71
783.538	346.62
783.72	322.04
783.901	338.43
784.083	336.38
784.264	346.62
784.446	254.46
784.627	246.27
784.809	346.62
784.99	367.1
785.172	303.61
785.353	399.87
785.535	332.28
785.716	287.23
785.897	307.71
786.079	326.14
786.26	274.94
786.441	270.84
786.623	283.13
786.804	279.04
786.985	293.37
787.167	336.38
787.348	266.75
787.529	270.84
787.71	254.46
787.891	283.13
788.073	266.75
788.254	195.07
788.435	266.75
788.616	285.18
788.797	297.47
788.978	279.04
789.159	266.75
789.34	225.79
789.522	201.21
789.703	270.84
789.884	283.13
790.065	258.56
790.246	229.88
790.427	225.79
790.607	301.56
790.788	301.56
790.969	299.52
791.15	221.69
791.331	201.21
791.512	227.84
791.693	193.02
791.874	201.21
792.054	313.85
792.235	219.64
792.416	283.13
792.597	281.08
792.778	166.4
792.958	250.36
793.139	219.64
793.32	172.54
793.5	227.84
793.681	258.56
793.862	211.45
794.042	225.79
794.223	242.17
794.404	229.88
794.584	236.03
794.765	190.97
794.945	244.22
795.126	227.84
795.306	203.26
795.487	207.36
795.667	127.49
795.848	246.27
796.028	250.36
796.209	211.45
796.389	125.44
796.57	219.64
796.75	225.79
796.93	162.3
797.111	240.12
797.291	162.3
797.471	238.08
797.652	193.02
797.832	160.25
798.012	266.75
798.192	150.01
798.373	143.87
798.553	186.88
798.733	154.11
798.913	221.69
799.093	184.83
799.274	225.79
799.454	240.12
799.634	166.4
799.814	195.07
799.994	166.4
800.174	211.45
800.354	195.07
800.534	129.53
800.714	166.4
800.894	119.29
801.074	164.35
801.254	145.92
801.434	217.6
801.614	176.64
801.794	113.15
801.974	334.33
802.154	170.49
802.334	154.11
802.514	164.35
802.693	164.35
802.873	205.31
803.053	125.44
803.233	160.25
803.413	172.54
803.592	96.77
803.772	182.78
803.952	156.16
804.131	94.72
804.311	141.82
804.491	160.25
804.67	102.91
804.85	193.02
805.03	174.59
805.209	227.84
805.389	158.21
805.568	139.77
805.748	217.6
805.928	217.6
806.107	162.3
806.287	88.57
806.466	143.87
806.646	137.73
806.825	96.77
807.004	119.29
807.184	111.1
807.363	66.05
807.543	170.49
807.722	172.54
807.901	119.29
808.081	154.11
808.26	98.81
808.439	150.01
808.619	64
808.798	145.92
808.977	158.21
809.156	102.91
809.336	119.29
809.515	133.63
809.694	131.58
809.873	178.69
810.052	170.49
810.231	162.3
810.411	147.97
810.59	115.2
810.769	150.01
810.948	178.69
811.127	141.82
811.306	88.57
811.485	78.33
811.664	129.53
811.843	190.97
812.022	135.68
812.201	123.39
812.38	145.92
812.559	90.62
812.737	129.53
812.916	111.1
813.095	158.21
813.274	145.92
813.453	139.77
813.632	123.39
813.811	193.02
813.989	115.2
814.168	168.45
814.347	135.68
814.526	84.48
814.704	131.58
814.883	135.68
815.062	72.19
815.24	96.77
815.419	111.1
815.598	53.76
815.776	96.77
815.955	94.72
816.133	74.24
816.312	129.53
816.49	49.66
816.669	111.1
816.847	66.05
817.026	98.81
817.204	64
817.383	121.34
817.561	107.01
817.74	78.33
817.918	102.91
818.097	96.77
818.275	158.21
818.453	90.62
818.632	45.57
818.81	143.87
818.988	121.34
819.167	23.04
819.345	113.15
819.523	66.05
819.701	78.33
819.879	59.9
820.058	78.33
820.236	129.53
820.414	141.82
820.592	90.62
820.77	76.29
820.948	94.72
821.127	131.58
821.305	123.39
821.483	39.42
821.661	104.96
821.839	131.58
822.017	18.94
822.195	53.76
822.373	111.1
822.551	127.49
822.729	8.7
822.907	51.71
823.085	80.38
823.262	139.77
823.44	125.44
823.618	119.29
823.796	135.68
823.974	123.39
824.152	51.71
824.329	88.57
824.507	88.57
824.685	51.71
824.863	113.15
825.04	49.66
825.218	61.95
825.396	31.23
825.574	61.95
825.751	51.71
825.929	143.87
826.107	33.28
826.284	100.86
826.462	74.24
826.639	98.81
826.817	78.33
826.994	133.63
827.172	41.47
827.349	127.49
827.527	80.38
827.704	96.77
827.882	45.57
828.059	47.62
828.237	64
828.414	154.11
828.591	31.23
828.769	45.57
828.946	35.33
829.124	82.43
829.301	125.44
829.478	100.86
829.655	4.61
829.833	16.9
830.01	61.95
830.187	90.62
830.364	107.01
830.542	82.43
830.719	53.76
830.896	145.92
831.073	86.53
831.25	49.66
831.427	113.15
831.604	76.29
831.782	98.81
831.959	88.57
832.136	129.53
832.313	39.42
832.49	86.53
832.667	31.23
832.844	86.53
833.021	78.33
833.198	23.04
833.374	18.94
833.551	18.94
833.728	78.33
833.905	74.24
834.082	74.24
834.259	12.8
834.436	55.81
834.612	16.9
834.789	74.24
834.966	86.53
835.143	53.76
835.319	90.62
835.496	78.33
835.673	31.23
835.85	18.94
836.026	47.62
836.203	29.18
836.38	49.66
836.556	68.09
836.733	53.76
836.909	78.33
837.086	119.29
837.262	16.9
837.439	31.23
837.616	-19.97
837.792	102.91
837.968	102.91
838.145	-15.87
838.321	82.43
838.498	25.09
838.674	68.09
838.851	80.38
839.027	74.24
839.203	88.57
839.38	-11.78
839.556	16.9
839.732	61.95
839.909	66.05
840.085	20.99
840.261	10.75
840.437	25.09
840.614	66.05
840.79	74.24
840.966	74.24
841.142	66.05
841.318	100.86
841.494	37.38
841.671	84.48
841.847	23.04
842.023	61.95
842.199	49.66
842.375	-13.82
842.551	-9.73
842.727	49.66
842.903	10.75
843.079	-19.97
843.255	74.24
843.431	111.1
843.607	41.47
843.783	0.51
843.959	61.95
844.134	55.81
844.31	61.95
844.486	78.33
844.662	39.42
844.838	-5.63
845.013	92.67
845.189	61.95
845.365	90.62
845.541	-15.87
845.716	16.9
845.892	82.43
846.068	39.42
846.244	66.05
846.419	59.9
846.595	70.14
846.77	57.86
846.946	2.56
847.122	27.14
847.297	8.7
847.473	35.33
847.648	39.42
847.824	74.24
847.999	6.66
848.175	86.53
848.35	-24.06
848.526	74.24
848.701	-11.78
848.876	82.43
849.052	64
849.227	49.66
849.403	76.29
849.578	53.76
849.753	53.76
849.929	-13.82
850.104	53.76
850.279	64
850.454	27.14
850.63	-17.92
850.805	70.14
850.98	64
851.155	47.62
851.33	47.62
851.505	14.85
851.681	98.81
851.856	23.04
852.031	45.57
852.206	59.9
852.381	2.56
852.556	96.77
852.731	66.05
852.906	-13.82
853.081	35.33
853.256	61.95
853.431	41.47
853.606	-3.58
853.781	23.04
853.956	8.7
854.131	64
854.305	-17.92
854.48	8.7
854.655	59.9
854.83	64
855.005	-3.58
855.18	-3.58
855.354	-17.92
855.529	33.28
855.704	20.99
855.879	68.09
856.053	-1.54
856.228	12.8
856.403	51.71
856.577	6.66
856.752	29.18
856.926	16.9
857.101	37.38
857.276	-24.06
857.45	20.99
857.625	53.76
857.799	18.94
857.974	39.42
858.148	-9.73
858.323	37.38
858.497	-38.4
858.672	8.7
858.846	31.23
859.02	100.86
859.195	8.7
859.369	66.05
859.543	25.09
859.718	47.62
859.892	37.38
860.066	88.57
860.241	-5.63
860.415	80.38
860.589	49.66
860.763	29.18
860.938	-26.11
861.112	55.81
861.286	51.71
861.46	100.86
861.634	33.28
861.808	-5.63
861.982	33.28
862.157	6.66
862.331	4.61
862.505	37.38
862.679	-52.74
862.853	27.14
863.027	37.38
863.201	74.24
863.375	84.48
863.549	51.71
863.722	90.62
863.896	39.42
864.07	-7.68
864.244	25.09
864.418	49.66
864.592	61.95
864.766	76.29
864.939	82.43
865.113	31.23
865.287	57.86
865.461	61.95
865.634	47.62
865.808	94.72
865.982	41.47
866.156	8.7
866.329	-15.87
866.503	55.81
866.676	45.57
866.85	86.53
867.024	-11.78
867.197	-7.68
867.371	43.52
867.544	-3.58
867.718	-1.54
867.891	4.61
868.065	43.52
868.238	53.76
868.412	-11.78
868.585	35.33
868.759	57.86
868.932	6.66
869.105	88.57
869.279	-1.54
869.452	-32.26
869.625	-1.54
869.799	25.09
869.972	-32.26
870.145	12.8
870.319	-17.92
870.492	49.66
870.665	68.09
870.838	-42.5
871.011	-36.35
871.185	4.61
871.358	35.33
871.531	39.42
871.704	41.47
871.877	12.8
872.05	16.9
872.223	-22.02
872.396	37.38
872.569	4.61
872.742	20.99
872.915	-1.54
873.088	10.75
873.261	35.33
873.434	74.24
873.607	68.09
873.78	14.85
873.953	18.94
874.126	84.48
874.299	45.57
874.471	43.52
874.644	12.8
874.817	43.52
874.99	70.14
875.163	31.23
875.335	61.95
875.508	72.19
875.681	86.53
875.853	12.8
876.026	-7.68
876.199	4.61
876.371	76.29
876.544	-54.78
876.717	18.94
876.889	39.42
877.062	18.94
877.234	0.51
877.407	31.23
877.579	78.33
877.752	-1.54
877.924	74.24
878.097	-19.97
878.269	72.19
878.442	53.76
878.614	-5.63
878.786	25.09
878.959	14.85
879.131	78.33
879.303	33.28
879.476	12.8
879.648	41.47
879.82	18.94
879.993	-11.78
880.165	47.62
880.337	-30.21
880.509	53.76
880.681	29.18
880.854	-34.3
881.026	2.56
881.198	72.19
881.37	35.33
881.542	6.66
881.714	-9.73
881.886	-17.92
882.058	20.99
882.23	47.62
882.402	47.62
882.574	111.1
882.746	6.66
882.918	8.7
883.09	18.94
883.262	78.33
883.434	55.81
883.606	16.9
883.778	-17.92
883.95	121.34
884.122	6.66
884.293	0.51
884.465	64
884.637	20.99
884.809	6.66
884.98	-11.78
885.152	20.99
885.324	29.18
885.496	35.33
885.667	14.85
885.839	29.18
886.011	-54.78
886.182	16.9
886.354	39.42
886.525	43.52
886.697	14.85
886.869	31.23
887.04	-11.78
887.212	29.18
887.383	14.85
887.555	-91.65
887.726	57.86
887.897	6.66
888.069	53.76
888.24	49.66
888.412	-13.82
888.583	6.66
888.754	-19.97
888.926	-36.35
889.097	4.61
889.268	-26.11
889.44	57.86
889.611	-81.41
889.782	25.09
889.953	2.56
890.125	64
890.296	-36.35
890.467	16.9
890.638	-3.58
890.809	53.76
890.98	-65.02
891.151	49.66
891.323	-3.58
891.494	27.14
891.665	43.52
891.836	-28.16
892.007	-7.68
892.178	82.43
892.349	-32.26
892.52	0.51
892.691	72.19
892.862	-7.68
893.032	86.53
893.203	-1.54
893.374	-65.02
893.545	94.72
893.716	12.8
893.887	20.99
894.057	98.81
894.228	-19.97
894.399	-7.68
894.57	2.56
894.74	61.95
894.911	-19.97
895.082	8.7
895.253	-65.02
895.423	27.14
895.594	-36.35
895.764	-13.82
895.935	-34.3
896.106	-44.54
896.276	12.8
896.447	70.14
896.617	14.85
896.788	0.51
896.958	25.09
897.129	12.8
897.299	-19.97
897.47	20.99
897.64	-11.78
897.81	-69.12
897.981	39.42
898.151	-26.11
898.322	8.7
898.492	43.52
898.662	33.28
898.832	39.42
899.003	4.61
899.173	59.9
899.343	-34.3
899.513	-9.73
