Data from USB4F104151__207__13-59-55-645.txt Node

Date: Thu Mar 13 13:59:55 EDT 2025
User: louis
Spectrometer: USB4F10415
Trigger mode: 4
Integration Time (sec): 1.000000E-2
Scans to average: 1
Electric dark correction enabled: true
Nonlinearity correction enabled: false
Boxcar width: 0
XAxis mode: Wavelengths
Number of Pixels in Spectrum: 3648
>>>>>Begin Spectral Data<<<<<
178.204	19.11
178.424	19.11
178.644	19.11
178.864	-62.8
179.084	8.87
179.304	51.88
179.524	4.78
179.744	-3.41
179.964	-36.18
180.184	-42.32
180.404	29.35
180.624	-21.85
180.844	29.35
181.064	-1.37
181.283	31.4
181.503	-17.75
181.723	-23.89
181.943	53.93
182.163	43.69
182.383	111.27
182.602	121.51
182.822	31.4
183.042	51.88
183.262	53.93
183.482	-19.8
183.701	66.22
183.921	25.26
184.141	-25.94
184.361	94.89
184.58	-5.46
184.8	-9.56
185.02	86.7
185.239	103.08
185.459	27.31
185.679	60.07
185.898	64.17
186.118	6.83
186.338	45.74
186.557	60.07
186.777	4.78
186.997	119.46
187.216	-3.41
187.436	-1.37
187.655	58.03
187.875	45.74
188.095	-3.41
188.314	92.84
188.534	98.99
188.753	60.07
188.973	92.84
189.192	25.26
189.412	111.27
189.631	55.98
189.851	68.27
190.07	115.37
190.29	19.11
190.509	15.02
190.729	60.07
190.948	60.07
191.168	119.46
191.387	27.31
191.607	80.55
191.826	49.83
192.045	62.12
192.265	15.02
192.484	35.5
192.704	84.65
192.923	21.16
193.142	12.97
193.362	45.74
193.581	68.27
193.8	111.27
194.02	125.61
194.239	12.97
194.458	47.79
194.678	-7.51
194.897	68.27
195.116	21.16
195.335	49.83
195.555	31.4
195.774	23.21
195.993	62.12
196.212	68.27
196.432	-48.47
196.651	86.7
196.87	53.93
197.089	51.88
197.308	86.7
197.528	51.88
197.747	27.31
197.966	12.97
198.185	45.74
198.404	68.27
198.623	74.41
198.842	141.99
199.062	105.13
199.281	70.31
199.5	4.78
199.719	23.21
199.938	37.55
200.157	43.69
200.376	49.83
200.595	12.97
200.814	60.07
201.033	78.51
201.252	53.93
201.471	60.07
201.69	94.89
201.909	43.69
202.128	35.5
202.347	127.66
202.566	70.31
202.785	101.03
203.004	41.64
203.223	78.51
203.442	62.12
203.661	6.83
203.879	-62.8
204.098	60.07
204.317	105.13
204.536	66.22
204.755	53.93
204.974	6.83
205.193	60.07
205.411	35.5
205.63	-7.51
205.849	29.35
206.068	58.03
206.287	45.74
206.505	62.12
206.724	37.55
206.943	49.83
207.162	35.5
207.381	43.69
207.599	23.21
207.818	84.65
208.037	68.27
208.255	49.83
208.474	37.55
208.693	-13.65
208.911	74.41
209.13	45.74
209.349	37.55
209.567	29.35
209.786	37.55
210.005	53.93
210.223	41.64
210.442	27.31
210.661	6.83
210.879	51.88
211.098	35.5
211.316	70.31
211.535	109.22
211.753	76.46
211.972	19.11
212.191	53.93
212.409	72.36
212.628	105.13
212.846	66.22
213.065	76.46
213.283	68.27
213.502	37.55
213.72	55.98
213.938	37.55
214.157	47.79
214.375	45.74
214.594	88.75
214.812	19.11
215.031	62.12
215.249	62.12
215.467	92.84
215.686	101.03
215.904	-44.37
216.122	-5.46
216.341	76.46
216.559	27.31
216.778	19.11
216.996	84.65
217.214	55.98
217.432	62.12
217.651	62.12
217.869	33.45
218.087	68.27
218.306	21.16
218.524	39.59
218.742	152.23
218.96	109.22
219.179	76.46
219.397	101.03
219.615	72.36
219.833	92.84
220.051	49.83
220.27	43.69
220.488	64.17
220.706	39.59
220.924	70.31
221.142	84.65
221.36	29.35
221.578	53.93
221.796	66.22
222.015	49.83
222.233	66.22
222.451	72.36
222.669	103.08
222.887	6.83
223.105	66.22
223.323	103.08
223.541	47.79
223.759	92.84
223.977	45.74
224.195	70.31
224.413	27.31
224.631	-19.8
224.849	10.92
225.067	43.69
225.285	68.27
225.503	135.85
225.721	98.99
225.939	92.84
226.157	23.21
226.375	76.46
226.592	23.21
226.81	51.88
227.028	58.03
227.246	37.55
227.464	105.13
227.682	51.88
227.9	90.79
228.117	103.08
228.335	-15.7
228.553	43.69
228.771	70.31
228.989	115.37
229.206	119.46
229.424	66.22
229.642	107.18
229.86	80.55
230.077	2.73
230.295	135.85
230.513	78.51
230.731	105.13
230.948	19.11
231.166	78.51
231.384	-25.94
231.601	64.17
231.819	115.37
232.037	80.55
232.254	8.87
232.472	45.74
232.689	27.31
232.907	111.27
233.125	35.5
233.342	76.46
233.56	64.17
233.777	51.88
233.995	37.55
234.213	47.79
234.43	35.5
234.648	96.94
234.865	60.07
235.083	117.42
235.3	15.02
235.518	103.08
235.735	64.17
235.953	64.17
236.17	-23.89
236.388	92.84
236.605	74.41
236.822	107.18
237.04	10.92
237.257	88.75
237.475	17.07
237.692	66.22
237.909	72.36
238.127	109.22
238.344	86.7
238.562	70.31
238.779	60.07
238.996	55.98
239.214	51.88
239.431	84.65
239.648	35.5
239.865	41.64
240.083	10.92
240.3	21.16
240.517	76.46
240.735	88.75
240.952	4.78
241.169	58.03
241.386	35.5
241.603	109.22
241.821	47.79
242.038	51.88
242.255	80.55
242.472	80.55
242.689	92.84
242.907	62.12
243.124	80.55
243.341	8.87
243.558	19.11
243.775	25.26
243.992	60.07
244.209	27.31
244.426	94.89
244.643	45.74
244.86	68.27
245.078	88.75
245.295	39.59
245.512	94.89
245.729	84.65
245.946	107.18
246.163	53.93
246.38	-7.51
246.597	84.65
246.814	129.7
247.031	109.22
247.248	101.03
247.464	39.59
247.681	78.51
247.898	70.31
248.115	51.88
248.332	66.22
248.549	70.31
248.766	39.59
248.983	45.74
249.2	47.79
249.417	60.07
249.633	191.14
249.85	66.22
250.067	117.42
250.284	2.73
250.501	70.31
250.717	115.37
250.934	84.65
251.151	88.75
251.368	47.79
251.585	39.59
251.801	39.59
252.018	98.99
252.235	74.41
252.451	117.42
252.668	76.46
252.885	125.61
253.102	10.92
253.318	12.97
253.535	64.17
253.752	62.12
253.968	117.42
254.185	8.87
254.401	17.07
254.618	58.03
254.835	137.9
255.051	88.75
255.268	19.11
255.484	-11.61
255.701	33.45
255.917	131.75
256.134	51.88
256.351	96.94
256.567	-13.65
256.784	39.59
257	55.98
257.217	58.03
257.433	92.84
257.65	107.18
257.866	41.64
258.082	70.31
258.299	166.57
258.515	70.31
258.732	43.69
258.948	41.64
259.165	70.31
259.381	62.12
259.597	33.45
259.814	74.41
260.03	45.74
260.246	64.17
260.463	70.31
260.679	80.55
260.895	64.17
261.112	23.21
261.328	10.92
261.544	53.93
261.761	101.03
261.977	51.88
262.193	78.51
262.409	113.32
262.626	51.88
262.842	51.88
263.058	70.31
263.274	76.46
263.49	55.98
263.707	103.08
263.923	109.22
264.139	154.28
264.355	84.65
264.571	111.27
264.787	98.99
265.004	78.51
265.22	29.35
265.436	78.51
265.652	53.93
265.868	60.07
266.084	66.22
266.3	111.27
266.516	55.98
266.732	53.93
266.948	64.17
267.164	60.07
267.38	53.93
267.596	39.59
267.812	12.97
268.028	49.83
268.244	21.16
268.46	162.47
268.676	29.35
268.892	45.74
269.108	98.99
269.324	27.31
269.54	78.51
269.756	64.17
269.972	37.55
270.188	55.98
270.403	21.16
270.619	96.94
270.835	62.12
271.051	92.84
271.267	17.07
271.483	111.27
271.698	12.97
271.914	86.7
272.13	33.45
272.346	82.6
272.562	84.65
272.777	-15.7
272.993	62.12
273.209	113.32
273.425	92.84
273.64	55.98
273.856	152.23
274.072	101.03
274.287	88.75
274.503	37.55
274.719	37.55
274.934	117.42
275.15	96.94
275.366	76.46
275.581	137.9
275.797	84.65
276.012	96.94
276.228	88.75
276.444	43.69
276.659	64.17
276.875	68.27
277.09	47.79
277.306	62.12
277.521	-25.94
277.737	131.75
277.952	82.6
278.168	66.22
278.383	27.31
278.599	49.83
278.814	60.07
279.03	6.83
279.245	68.27
279.461	15.02
279.676	70.31
279.892	35.5
280.107	31.4
280.322	80.55
280.538	49.83
280.753	47.79
280.969	12.97
281.184	72.36
281.399	129.7
281.615	17.07
281.83	105.13
282.045	66.22
282.26	78.51
282.476	10.92
282.691	47.79
282.906	80.55
283.122	70.31
283.337	96.94
283.552	107.18
283.767	19.11
283.983	45.74
284.198	70.31
284.413	119.46
284.628	29.35
284.843	-3.41
285.058	19.11
285.274	103.08
285.489	29.35
285.704	84.65
285.919	90.79
286.134	-27.99
286.349	70.31
286.564	47.79
286.779	66.22
286.995	-1.37
287.21	74.41
287.425	35.5
287.64	105.13
287.855	12.97
288.07	90.79
288.285	117.42
288.5	90.79
288.715	60.07
288.93	107.18
289.145	64.17
289.36	68.27
289.575	39.59
289.79	109.22
290.004	90.79
290.219	23.21
290.434	60.07
290.649	72.36
290.864	88.75
291.079	55.98
291.294	109.22
291.509	12.97
291.724	-1.37
291.938	92.84
292.153	35.5
292.368	58.03
292.583	94.89
292.798	19.11
293.012	80.55
293.227	113.32
293.442	10.92
293.657	39.59
293.871	113.32
294.086	53.93
294.301	27.31
294.516	74.41
294.73	88.75
294.945	29.35
295.16	109.22
295.374	64.17
295.589	123.56
295.804	105.13
296.018	103.08
296.233	66.22
296.447	96.94
296.662	86.7
296.877	115.37
297.091	123.56
297.306	35.5
297.52	-3.41
297.735	74.41
297.949	35.5
298.164	80.55
298.378	98.99
298.593	53.93
298.807	35.5
299.022	-15.7
299.236	66.22
299.451	66.22
299.665	64.17
299.88	115.37
300.094	74.41
300.309	137.9
300.523	29.35
300.737	164.52
300.952	15.02
301.166	156.33
301.381	45.74
301.595	86.7
301.809	66.22
302.024	111.27
302.238	51.88
302.452	64.17
302.667	92.84
302.881	109.22
303.095	88.75
303.309	109.22
303.524	12.97
303.738	51.88
303.952	90.79
304.166	68.27
304.381	-34.13
304.595	66.22
304.809	109.22
305.023	82.6
305.237	117.42
305.452	64.17
305.666	72.36
305.88	88.75
306.094	109.22
306.308	78.51
306.522	64.17
306.736	74.41
306.95	51.88
307.164	121.51
307.379	27.31
307.593	80.55
307.807	70.31
308.021	88.75
308.235	29.35
308.449	10.92
308.663	49.83
308.877	49.83
309.091	15.02
309.305	98.99
309.519	39.59
309.733	53.93
309.947	6.83
310.161	144.04
310.374	45.74
310.588	-5.46
310.802	76.46
311.016	117.42
311.23	47.79
311.444	86.7
311.658	96.94
311.872	98.99
312.085	101.03
312.299	158.38
312.513	109.22
312.727	31.4
312.941	92.84
313.154	141.99
313.368	60.07
313.582	19.11
313.796	131.75
314.009	23.21
314.223	103.08
314.437	37.55
314.651	133.8
314.864	62.12
315.078	41.64
315.292	51.88
315.505	109.22
315.719	105.13
315.933	43.69
316.146	92.84
316.36	139.94
316.573	66.22
316.787	80.55
317.001	92.84
317.214	94.89
317.428	64.17
317.641	58.03
317.855	27.31
318.068	68.27
318.282	101.03
318.495	86.7
318.709	68.27
318.922	25.26
319.136	113.32
319.349	105.13
319.563	60.07
319.776	39.59
319.99	109.22
320.203	64.17
320.417	92.84
320.63	107.18
320.843	96.94
321.057	84.65
321.27	55.98
321.483	76.46
321.697	98.99
321.91	117.42
322.124	55.98
322.337	55.98
322.55	88.75
322.763	115.37
322.977	148.14
323.19	105.13
323.403	39.59
323.617	62.12
323.83	76.46
324.043	25.26
324.256	92.84
324.469	80.55
324.683	90.79
324.896	64.17
325.109	139.94
325.322	51.88
325.535	62.12
325.748	55.98
325.962	19.11
326.175	78.51
326.388	109.22
326.601	117.42
326.814	-21.85
327.027	96.94
327.24	168.62
327.453	68.27
327.666	62.12
327.879	62.12
328.092	92.84
328.305	139.94
328.518	101.03
328.731	-1.37
328.944	129.7
329.157	68.27
329.37	-1.37
329.583	64.17
329.796	68.27
330.009	133.8
330.222	43.69
330.435	43.69
330.648	53.93
330.861	101.03
331.073	105.13
331.286	152.23
331.499	137.9
331.712	82.6
331.925	158.38
332.138	82.6
332.35	119.46
332.563	101.03
332.776	117.42
332.989	66.22
333.202	31.4
333.414	15.02
333.627	60.07
333.84	127.66
334.053	135.85
334.265	60.07
334.478	156.33
334.691	31.4
334.903	80.55
335.116	170.66
335.329	45.74
335.541	92.84
335.754	39.59
335.966	43.69
336.179	92.84
336.392	37.55
336.604	66.22
336.817	70.31
337.029	-5.46
337.242	70.31
337.454	84.65
337.667	88.75
337.88	109.22
338.092	94.89
338.305	125.61
338.517	70.31
338.729	66.22
338.942	49.83
339.154	111.27
339.367	51.88
339.579	94.89
339.792	45.74
340.004	123.56
340.217	146.09
340.429	72.36
340.641	82.6
340.854	86.7
341.066	17.07
341.278	178.86
341.491	58.03
341.703	68.27
341.915	123.56
342.128	101.03
342.34	94.89
342.552	80.55
342.764	21.16
342.977	113.32
343.189	23.21
343.401	156.33
343.613	78.51
343.826	74.41
344.038	119.46
344.25	41.64
344.462	88.75
344.674	37.55
344.886	76.46
345.099	45.74
345.311	45.74
345.523	-3.41
345.735	152.23
345.947	144.04
346.159	113.32
346.371	103.08
346.583	101.03
346.795	86.7
347.007	78.51
347.219	62.12
347.431	74.41
347.643	125.61
347.855	96.94
348.067	84.65
348.279	137.9
348.491	68.27
348.703	72.36
348.915	62.12
349.127	74.41
349.339	76.46
349.551	78.51
349.763	92.84
349.975	-13.65
350.187	94.89
350.399	131.75
350.61	76.46
350.822	62.12
351.034	90.79
351.246	109.22
351.458	64.17
351.669	103.08
351.881	78.51
352.093	53.93
352.305	35.5
352.517	107.18
352.728	94.89
352.94	103.08
353.152	129.7
353.363	92.84
353.575	62.12
353.787	27.31
353.999	119.46
354.21	43.69
354.422	76.46
354.633	62.12
354.845	60.07
355.057	15.02
355.268	78.51
355.48	98.99
355.692	109.22
355.903	78.51
356.115	15.02
356.326	82.6
356.538	113.32
356.749	90.79
356.961	39.59
357.172	88.75
357.384	109.22
357.595	98.99
357.807	55.98
358.018	72.36
358.23	41.64
358.441	70.31
358.653	103.08
358.864	123.56
359.075	68.27
359.287	103.08
359.498	51.88
359.709	72.36
359.921	103.08
360.132	72.36
360.344	78.51
360.555	105.13
360.766	10.92
360.977	64.17
361.189	0.68
361.4	82.6
361.611	80.55
361.823	72.36
362.034	60.07
362.245	78.51
362.456	148.14
362.667	66.22
362.879	125.61
363.09	109.22
363.301	78.51
363.512	150.18
363.723	84.65
363.935	2.73
364.146	109.22
364.357	49.83
364.568	92.84
364.779	90.79
364.99	107.18
365.201	62.12
365.412	94.89
365.623	-3.41
365.834	66.22
366.045	150.18
366.256	109.22
366.467	29.35
366.678	60.07
366.889	92.84
367.1	47.79
367.311	68.27
367.522	98.99
367.733	43.69
367.944	80.55
368.155	82.6
368.366	103.08
368.577	111.27
368.788	88.75
368.999	84.65
369.209	129.7
369.42	78.51
369.631	111.27
369.842	166.57
370.053	27.31
370.264	101.03
370.474	115.37
370.685	74.41
370.896	125.61
371.107	103.08
371.317	117.42
371.528	107.18
371.739	84.65
371.95	90.79
372.16	119.46
372.371	123.56
372.582	96.94
372.792	68.27
373.003	111.27
373.214	66.22
373.424	43.69
373.635	70.31
373.846	103.08
374.056	158.38
374.267	86.7
374.477	125.61
374.688	98.99
374.898	117.42
375.109	21.16
375.319	60.07
375.53	164.52
375.74	76.46
375.951	111.27
376.161	82.6
376.372	103.08
376.582	-7.51
376.793	193.19
377.003	150.18
377.214	39.59
377.424	43.69
377.635	88.75
377.845	90.79
378.055	111.27
378.266	101.03
378.476	64.17
378.686	64.17
378.897	66.22
379.107	96.94
379.317	72.36
379.528	101.03
379.738	33.45
379.948	49.83
380.158	144.04
380.369	68.27
380.579	37.55
380.789	62.12
380.999	146.09
381.21	84.65
381.42	178.86
381.63	51.88
381.84	166.57
382.05	166.57
382.261	123.56
382.471	45.74
382.681	115.37
382.891	78.51
383.101	135.85
383.311	86.7
383.521	80.55
383.731	35.5
383.941	82.6
384.151	49.83
384.361	8.87
384.571	160.42
384.781	82.6
384.991	139.94
385.201	113.32
385.411	98.99
385.621	119.46
385.831	109.22
386.041	133.8
386.251	84.65
386.461	78.51
386.671	111.27
386.881	166.57
387.091	74.41
387.301	162.47
387.511	166.57
387.72	92.84
387.93	51.88
388.14	144.04
388.35	80.55
388.56	98.99
388.769	80.55
388.979	76.46
389.189	121.51
389.399	25.26
389.609	137.9
389.818	185
390.028	51.88
390.238	55.98
390.447	109.22
390.657	72.36
390.867	113.32
391.076	94.89
391.286	105.13
391.496	68.27
391.705	84.65
391.915	133.8
392.125	101.03
392.334	156.33
392.544	103.08
392.753	109.22
392.963	53.93
393.172	135.85
393.382	121.51
393.591	113.32
393.801	146.09
394.01	121.51
394.22	55.98
394.429	94.89
394.639	29.35
394.848	223.91
395.058	88.75
395.267	103.08
395.477	125.61
395.686	160.42
395.895	170.66
396.105	168.62
396.314	168.62
396.524	137.9
396.733	150.18
396.942	86.7
397.152	144.04
397.361	127.66
397.57	113.32
397.78	164.52
397.989	115.37
398.198	154.28
398.407	201.38
398.617	146.09
398.826	182.95
399.035	176.81
399.244	203.43
399.453	150.18
399.663	180.9
399.872	205.48
400.081	201.38
400.29	201.38
400.499	180.9
400.708	152.23
400.917	187.05
401.127	127.66
401.336	219.82
401.545	133.8
401.754	164.52
401.963	201.38
402.172	152.23
402.381	195.24
402.59	207.53
402.799	168.62
403.008	191.14
403.217	193.19
403.426	199.34
403.635	166.57
403.844	127.66
404.053	219.82
404.262	146.09
404.471	187.05
404.68	178.86
404.888	189.1
405.097	135.85
405.306	185
405.515	209.58
405.724	207.53
405.933	258.73
406.142	273.06
406.35	185
406.559	291.49
406.768	277.16
406.977	281.25
407.185	283.3
407.394	299.69
407.603	244.39
407.812	297.64
408.02	316.07
408.229	361.13
408.438	330.41
408.646	258.73
408.855	395.94
409.064	445.09
409.272	309.93
409.481	391.84
409.69	379.56
409.898	266.92
410.107	365.22
410.315	428.71
410.524	469.67
410.733	416.42
410.941	422.56
411.15	510.63
411.358	510.63
411.567	475.81
411.775	500.39
411.984	656.03
412.192	527.01
412.401	469.67
412.609	584.35
412.818	590.5
413.026	666.27
413.234	686.75
413.443	723.62
413.651	713.38
413.86	735.9
414.068	735.9
414.276	805.53
414.485	903.84
414.693	756.38
414.901	924.32
415.11	852.64
415.318	871.07
415.526	879.26
415.734	1063.58
415.943	1051.29
416.151	996
416.359	952.99
416.567	1133.21
416.776	1141.4
416.984	1165.98
417.192	1204.89
417.4	1258.14
417.608	1243.8
417.817	1305.24
418.025	1362.58
418.233	1510.04
418.441	1409.69
418.649	1585.81
418.857	1641.11
419.065	1606.29
419.273	1583.76
419.481	1684.11
419.689	1747.6
419.897	1800.85
420.105	1866.38
420.313	1966.73
420.521	1956.49
420.729	2040.46
420.937	2124.43
421.145	2171.53
421.353	2259.59
421.561	2480.77
421.769	2402.95
421.977	2675.33
422.185	2464.39
422.393	2648.71
422.601	2761.34
422.809	2853.5
423.017	2822.78
423.224	2863.74
423.432	3068.54
423.64	3058.3
423.848	3381.88
424.056	3289.72
424.263	3553.91
424.471	3601.01
424.679	3615.35
424.887	3803.76
425.094	3785.33
425.302	3996.27
425.51	4125.29
425.718	4063.85
425.925	4184.68
426.133	4344.42
426.341	4600.42
426.548	4823.65
426.756	4870.75
426.964	4911.71
427.171	5360.22
427.379	5220.95
427.586	5399.13
427.794	5495.38
428.001	5974.61
428.209	6054.48
428.417	5892.69
428.624	6328.91
428.832	6406.73
429.039	6384.2
429.247	6392.39
429.454	7078.46
429.662	7412.28
429.869	6957.63
430.076	7463.48
430.284	7182.91
430.491	7565.88
430.699	7762.48
430.906	7901.75
431.114	7954.99
431.321	8184.37
431.528	8540.71
431.736	8915.49
431.943	9327.13
432.15	9040.42
432.358	9163.29
432.565	9804.31
432.772	9697.81
432.979	10244.62
433.187	10396.17
433.394	10394.12
433.601	11145.73
433.808	11180.54
434.016	11190.78
434.223	11463.16
434.43	12159.47
434.637	11950.58
434.844	12663.27
435.052	12970.47
435.259	12874.21
435.466	13003.24
435.673	12931.56
435.88	13722.07
436.087	14268.88
436.294	14438.86
436.501	14119.38
436.708	14268.88
436.915	14766.54
437.122	15444.42
437.329	15473.09
437.537	15968.69
437.743	16380.34
437.95	15811
438.157	17136.04
438.364	17697.18
438.571	17525.15
438.778	17811.87
438.985	19358.08
439.192	18248.08
439.399	18934.15
439.606	18702.73
439.813	19587.46
440.02	20769.13
440.227	20420.98
440.433	20302.2
440.64	20760.94
440.847	20672.88
441.054	21401.96
441.261	22483.28
441.467	22440.28
441.674	22788.43
441.881	23599.43
442.088	23880
442.294	23261.51
442.501	23902.53
442.708	24543.54
442.914	25467.17
443.121	26513.69
443.328	26007.84
443.534	27537.67
443.741	26548.5
443.948	26470.68
444.154	28332.28
444.361	28379.39
444.568	28293.37
444.774	28516.6
444.981	29042.93
445.187	29479.14
445.394	31035.6
445.6	30460.12
445.807	33042.61
446.013	31744.2
446.22	32452.8
446.426	33376.43
446.633	33996.96
446.839	35242.13
447.046	34005.16
447.252	35756.17
447.459	35537.04
447.665	35422.35
447.871	36798.59
448.078	38508.64
448.284	36878.46
448.491	37595.24
448.697	38922.33
448.903	39786.57
449.11	40147.01
449.316	39532.62
449.522	39911.5
449.728	40874.04
449.935	41351.22
450.141	41216.05
450.347	42022.95
450.553	40618.05
450.76	41476.15
450.966	42393.64
451.172	42100.78
451.378	43231.25
451.584	42448.93
451.791	43268.12
451.997	43135
452.203	44005.39
452.409	44087.31
452.615	43333.65
452.821	42008.62
453.027	41474.1
453.233	43708.43
453.44	42285.09
453.646	42643.49
453.852	42663.97
454.058	43823.12
454.264	42518.56
454.47	43200.54
454.676	41822.25
454.882	43548.69
455.088	39706.7
455.294	40026.18
455.5	40808.51
455.705	40941.63
455.911	39598.16
456.117	38924.38
456.323	38226.02
456.529	36292.74
456.735	37812.33
456.941	37021.81
457.147	36546.68
457.352	35528.84
457.558	34920.6
457.764	34955.41
457.97	34234.53
458.176	33540.27
458.381	33441.96
458.587	32118.98
458.793	31776.97
458.999	30499.03
459.204	32741.56
459.41	31553.74
459.616	29796.58
459.821	29665.51
460.027	29538.54
460.233	28942.58
460.438	27693.32
460.644	27797.76
460.85	26759.44
461.055	26335.51
461.261	26136.86
461.466	24242.49
461.672	23472.45
461.878	25114.92
462.083	23693.63
462.289	23327.05
462.494	22702.42
462.7	22002.01
462.905	21148.01
463.111	21789.02
463.316	21875.04
463.522	21885.28
463.727	21479.78
463.932	21664.1
464.138	21584.23
464.343	21621.09
464.549	20820.33
464.754	21637.47
464.959	21471.59
465.165	21160.3
465.37	20590.96
465.575	19743.1
465.781	20670.83
465.986	21078.38
466.191	19919.23
466.397	19452.29
466.602	18878.86
466.807	19323.27
467.012	19265.92
467.218	19255.68
467.423	18975.11
467.628	18823.56
467.833	20115.83
468.038	19179.91
468.244	18792.84
468.449	19538.3
468.654	18934.15
468.859	18618.77
469.064	18581.9
469.269	17754.52
469.474	18008.47
469.679	18334.1
469.885	17910.17
470.09	18049.43
470.295	17801.63
470.5	17379.75
470.705	17656.22
470.91	17097.13
471.115	17156.52
471.32	17412.51
471.525	17244.58
471.73	16976.3
471.935	16757.16
472.139	16288.18
472.344	16200.12
472.549	16124.34
472.754	15940.02
472.959	15821.24
473.164	15512
473.369	15536.57
473.574	15659.45
473.778	15567.29
473.983	15450.56
474.188	15172.04
474.393	14711.24
474.598	14684.62
474.802	14590.41
475.007	14367.18
475.212	14621.13
475.417	14045.65
475.621	14084.56
475.826	14207.44
476.031	13648.35
476.235	13373.92
476.44	13720.03
476.645	13324.77
476.849	13515.23
477.054	13089.25
477.259	12863.97
477.463	13199.84
477.668	12435.95
477.872	12882.41
478.077	12663.27
478.282	12515.82
478.486	12251.63
478.691	12171.76
478.895	12134.9
479.1	12085.75
479.304	12157.43
479.509	11811.32
479.713	12057.07
479.918	11772.41
480.122	11751.93
480.326	11741.69
480.531	11710.97
480.735	11454.97
480.94	11583.99
481.144	11743.74
481.348	11098.63
481.553	11268.61
481.757	11024.9
481.961	11282.94
482.166	11272.7
482.37	11399.68
482.574	11043.33
482.778	11323.9
482.983	11528.7
483.187	11219.46
483.391	11323.9
483.595	11096.58
483.8	10914.31
484.004	11229.7
484.208	11289.09
484.412	11241.98
484.616	11143.68
484.821	11614.71
485.025	11155.97
485.229	11328
485.433	10988.03
485.637	11303.42
485.841	10965.51
486.045	11074.05
486.249	11178.5
486.453	11188.74
486.657	11323.9
486.861	11319.81
487.065	10930.69
487.269	11291.13
487.473	10951.17
487.677	11119.1
487.881	11354.62
488.085	11051.52
488.289	11481.6
488.493	11123.2
488.697	11205.12
488.901	11287.04
489.105	11133.44
489.309	11284.99
489.512	11450.88
489.716	11401.72
489.92	11315.71
490.124	11233.79
490.328	11432.44
490.531	11360.77
490.735	11510.27
490.939	11450.88
491.143	11692.54
491.346	11491.84
491.55	11796.98
491.754	11602.43
491.958	11725.3
492.161	11930.1
492.365	11983.35
492.569	11799.03
492.772	11827.7
492.976	12155.38
493.18	11926
493.383	12282.35
493.587	12268.02
493.79	12411.37
493.994	12388.85
494.197	12517.87
494.401	12601.83
494.605	12446.19
494.808	12786.15
495.012	12663.27
495.215	12810.73
495.419	13087.2
495.622	13064.68
495.825	13107.68
496.029	13337.06
496.232	13439.45
496.436	13144.55
496.639	13736.41
496.843	13693.4
497.046	14195.15
497.249	14107.09
497.453	13941.21
497.656	14215.63
497.859	14275.02
498.063	14502.35
498.266	14881.22
498.469	14979.53
498.673	14873.03
498.876	14899.66
499.079	15307.2
499.282	15270.34
499.485	15907.26
499.689	15630.78
499.892	16075.19
500.095	15983.03
500.298	16425.39
500.501	16329.14
500.705	16945.58
500.908	16806.31
501.111	17125.8
501.314	17400.23
501.517	17594.78
501.72	17949.08
501.923	17684.89
502.126	18125.21
502.329	18696.59
502.532	18409.87
502.735	18973.07
502.938	19210.63
503.141	19106.18
503.344	19556.74
503.547	19698.05
503.75	20005.24
503.953	20076.92
504.156	20523.38
504.359	20638.06
504.562	20961.64
504.765	21254.5
504.968	21627.23
505.17	21743.97
505.373	21688.67
505.576	22331.73
505.779	22460.76
505.982	22743.38
506.185	23325
506.387	23126.35
506.59	23429.45
506.793	24203.58
506.996	23802.18
507.198	24787.25
507.401	24379.7
507.604	24871.22
507.807	25606.44
508.009	25674.02
508.212	25917.73
508.415	26081.56
508.617	26775.83
508.82	26558.74
509.022	26736.91
509.225	27564.29
509.428	27832.58
509.63	27922.69
509.833	28158.2
510.035	28743.92
510.238	29055.22
510.44	29319.4
510.643	29653.22
510.845	29954.27
511.048	29864.16
511.25	30884.05
511.453	30613.72
511.655	31922.37
511.858	31213.77
512.06	31903.94
512.262	32082.11
512.465	31750.34
512.667	32680.12
512.87	33360.05
513.072	33331.37
513.274	33906.85
513.477	34439.33
513.679	34201.76
513.881	34746.52
514.084	35694.73
514.286	35764.36
514.488	35940.49
514.69	36749.43
514.893	37073.01
515.095	36960.37
515.297	37597.29
515.499	37666.92
515.701	38652
515.904	38942.81
516.106	39555.15
516.308	39225.43
516.51	39888.97
516.712	40200.26
516.914	40484.93
517.116	41365.56
517.318	41152.57
517.52	41488.43
517.722	41682.99
517.925	42620.96
518.127	42674.21
518.329	43429.91
518.531	43485.2
518.733	44066.83
518.935	44361.73
519.136	44574.72
519.338	45146.11
519.54	45391.86
519.742	46014.44
519.944	45922.29
520.146	46909.41
520.348	47251.42
520.55	47677.4
520.752	47673.3
520.954	48476.1
521.155	48160.72
521.357	48865.22
521.559	49270.71
521.761	50106.29
521.963	49887.15
522.164	50499.5
522.366	50300.84
522.568	51214.24
522.77	51160.99
522.971	52031.38
523.173	51285.92
523.375	52428.68
523.576	52387.72
523.778	52336.52
523.98	53372.8
524.181	53245.82
524.383	53499.77
524.584	54294.38
524.786	54697.83
524.988	54253.42
525.189	54957.92
525.391	55181.15
525.592	55291.74
525.794	55412.57
525.995	55584.6
526.197	55867.22
526.398	55527.26
526.6	56182.61
526.801	56393.55
527.003	56627.02
527.204	56606.54
527.406	57263.94
527.607	57100.1
527.808	57368.38
528.01	56932.17
528.211	57675.58
528.412	58335.02
528.614	58165.04
528.815	58406.7
529.016	59023.14
529.218	58349.36
529.419	58552.11
529.62	58443.57
529.822	58566.44
530.023	58810.15
530.224	58695.47
530.425	58853.16
530.626	58488.62
530.828	58767.15
531.029	59617.05
531.23	58939.18
531.431	59316
531.632	59481.89
531.833	59795.23
532.035	59404.06
532.236	59469.6
532.437	59752.22
532.638	59406.11
532.839	60208.92
533.04	59969.3
533.241	59027.24
533.442	60464.91
533.643	59705.12
533.844	60077.85
534.045	60507.92
534.246	59698.97
534.447	60512.02
534.648	60225.3
534.849	60077.85
535.05	59606.81
535.251	59926.3
535.451	59649.82
535.652	60147.48
535.853	60399.38
536.054	60505.87
536.255	60243.73
536.456	59827.99
536.657	60933.9
536.857	60456.72
537.058	60213.01
537.259	60792.59
537.46	60493.58
537.66	60405.52
537.861	60245.78
538.062	60376.85
538.263	60428.05
538.463	59848.47
538.664	60253.97
538.865	60473.1
539.065	60692.24
539.266	60170
539.466	60217.11
539.667	59586.33
539.868	60579.6
540.068	60454.67
540.269	60153.62
540.469	60868.36
540.67	59752.22
540.87	60086.04
541.071	60151.57
541.271	60720.91
541.472	60411.66
541.672	59971.35
541.873	60088.09
542.073	59801.37
542.274	60739.34
542.474	60266.26
542.675	59682.59
542.875	60325.65
543.075	60190.48
543.276	59787.03
543.476	60620.56
543.676	60100.37
543.877	60647.18
544.077	59819.8
544.277	60055.32
544.478	60192.53
544.678	60378.9
544.878	60245.78
545.078	60096.28
545.279	59840.28
545.479	60016.41
545.679	60086.04
545.879	59948.82
546.079	60028.69
546.28	60077.85
546.48	59631.39
546.68	59952.92
546.88	59727.64
547.08	59856.67
547.28	59621.15
547.48	59131.68
547.68	59852.57
547.88	59615
548.081	60352.27
548.281	59580.19
548.481	59578.14
548.681	60301.07
548.881	59760.41
549.081	59567.9
549.28	59907.86
549.48	60229.4
549.68	59365.15
549.88	60385.04
550.08	59731.74
550.28	59756.31
550.48	59531.04
550.68	60464.91
550.88	59782.94
551.08	59412.26
551.279	60020.5
551.479	59113.25
551.679	59451.17
551.879	59629.34
552.079	59625.24
552.278	59746.07
552.478	59678.49
552.678	59420.45
552.878	59576.09
553.077	59877.14
553.277	58935.08
553.477	59572
553.676	59068.2
553.876	59533.09
554.076	59252.51
554.275	59062.05
554.475	58629.93
554.674	59612.96
554.874	58951.46
555.074	58986.28
555.273	59262.75
555.473	59449.12
555.672	58220.34
555.872	58787.63
556.071	59029.29
556.271	59424.54
556.47	58642.22
556.67	58617.64
556.869	58873.64
557.068	58703.66
557.268	58373.94
557.467	58558.25
557.667	58525.49
557.866	58404.66
558.065	58160.95
558.265	58238.77
558.464	57847.61
558.663	58660.65
558.863	57526.08
559.062	58545.97
559.261	57882.42
559.461	58588.97
559.66	57483.07
559.859	57876.28
560.058	57509.69
560.258	58148.66
560.457	57075.52
560.656	57861.94
560.855	57263.94
561.054	57360.19
561.253	56905.54
561.453	57534.27
561.652	57462.59
561.851	57704.25
562.05	57290.56
562.249	56532.81
562.448	57268.03
562.647	57061.19
562.846	56835.91
563.045	56975.17
563.244	56551.24
563.443	57409.34
563.642	56207.18
563.841	56852.3
564.04	56620.87
564.239	56864.58
564.438	56432.46
564.637	56520.52
564.836	56338.25
565.035	55721.82
565.234	56631.11
565.432	55998.29
565.631	55859.03
565.83	56008.53
566.029	55578.46
566.228	55902.04
566.427	55664.47
566.625	55656.28
566.824	55521.12
567.023	55670.62
567.222	54681.45
567.42	55824.21
567.619	55066.47
567.818	54933.35
568.016	54996.84
568.215	55324.51
568.414	54542.19
568.612	55209.82
568.811	54740.84
569.01	54937.44
569.208	54204.27
569.407	54392.68
569.605	54089.59
569.804	54753.13
570.002	53782.39
570.201	53905.27
570.4	53548.92
570.598	53886.84
570.797	53168
570.995	53272.45
571.193	53323.64
571.392	53753.72
571.59	52920.2
571.789	53233.53
571.987	52938.63
572.186	52963.2
572.384	53008.26
572.582	52430.73
572.781	52899.72
572.979	52213.65
573.177	52592.52
573.376	52789.13
573.574	51857.3
573.772	52688.77
573.971	51802
574.169	51644.31
574.367	51527.58
574.565	51642.26
574.763	51812.24
574.962	51265.44
575.16	50835.36
575.358	50837.41
575.556	50126.77
575.754	51255.2
575.952	50274.22
576.151	51132.32
576.349	50192.3
576.547	50223.02
576.745	50100.14
576.943	50122.67
577.141	50112.43
577.339	50216.88
577.537	49678.26
577.735	49917.87
577.933	49625.01
578.131	49573.81
578.329	49342.39
578.527	48830.4
578.725	49283
578.923	49422.26
579.121	49033.15
579.319	48832.45
579.516	48488.39
579.714	48990.14
579.912	48478.15
580.11	48553.93
580.308	48134.09
580.506	48134.09
580.704	47482.84
580.901	47947.73
581.099	48000.97
581.297	47681.49
581.495	47736.79
581.692	47063
581.89	47042.52
582.088	47390.68
582.285	46735.33
582.483	46913.5
582.681	46745.57
582.878	46702.56
583.076	46245.86
583.274	46313.45
583.471	45789.17
583.669	46122.99
583.866	45975.53
584.064	46372.84
584.262	45428.73
584.459	45598.71
584.657	45266.94
584.854	45752.3
585.052	44859.39
585.249	45326.33
585.447	45514.74
585.644	44834.81
585.841	44853.25
586.039	45043.71
586.236	44130.31
586.434	44625.92
586.631	44257.29
586.828	44320.77
587.026	44234.76
587.223	44402.69
587.42	43933.71
587.618	43866.13
587.815	43698.19
588.012	43696.14
588.21	43538.45
588.407	43946
588.604	43118.62
588.801	42907.68
588.999	42954.78
589.196	43003.93
589.393	43040.79
589.59	42252.33
589.787	42412.07
589.984	42168.36
590.182	41977.9
590.379	42446.88
590.576	41613.36
590.773	42276.9
590.97	41719.85
591.167	42137.64
591.364	41048.12
591.561	41603.12
591.758	41011.26
591.955	41173.05
592.152	41097.27
592.349	41211.96
592.546	40886.33
592.743	40869.95
592.94	40376.39
593.137	40489.02
593.334	40349.76
593.531	40118.34
593.727	40353.86
593.924	40099.91
594.121	39348.31
594.318	40310.85
594.515	39563.34
594.712	39880.78
594.908	39233.62
595.105	39669.84
595.302	39389.27
595.499	39352.4
595.696	39100.5
595.892	38907.99
596.089	39317.59
596.286	39276.63
596.482	38711.39
596.679	38561.89
596.876	38688.86
597.072	38506.59
597.269	38342.75
597.466	38215.78
597.662	37933.16
597.859	38297.7
598.055	38164.58
598.252	37505.13
598.448	37881.96
598.645	37791.85
598.841	37382.26
599.038	37742.7
599.234	37167.22
599.431	37068.92
599.627	37107.83
599.824	37220.47
600.02	36841.59
600.217	37048.44
600.413	36692.09
600.609	36683.9
600.806	36305.02
601.002	36468.86
601.198	35899.53
601.395	35825.8
601.591	35735.69
601.787	36085.89
601.984	35657.87
602.18	36079.75
602.376	35573.9
602.572	35510.41
602.769	35803.27
602.965	35307.66
603.161	35451.02
603.357	35031.19
603.553	34963.61
603.75	34764.95
603.946	34576.54
604.142	34838.68
604.338	33910.95
604.534	34359.45
604.73	34121.89
604.926	33521.84
605.122	34238.62
605.318	33478.83
605.514	33425.58
605.71	33609.9
605.906	33773.74
606.102	33366.19
606.298	33769.64
606.494	33310.89
606.69	33384.62
606.886	33392.81
607.082	32436.41
607.278	33235.12
607.474	32401.6
607.67	32526.52
607.866	32096.45
608.062	32626.87
608.257	32465.08
608.453	32286.91
608.649	32225.47
608.845	32014.53
609.041	32301.25
609.236	32217.28
609.432	31938.76
609.628	31830.21
609.824	31807.69
610.019	31428.81
610.215	31439.05
610.411	31719.62
610.606	31232.21
610.802	31527.11
610.998	31359.18
611.193	31533.26
611.389	31078.61
611.584	31023.31
611.78	30691.54
611.976	30802.13
612.171	30695.64
612.367	30779.6
612.562	30437.59
612.758	30195.93
612.953	30083.3
613.149	30701.78
613.344	29923.55
613.539	30613.72
613.735	30173.41
613.93	30333.15
614.126	29749.48
614.321	30224.61
614.517	29802.72
614.712	29688.04
614.907	29395.18
615.103	29735.14
615.298	29384.94
615.493	29749.48
615.688	29214.96
615.884	29616.36
616.079	29102.32
616.274	29098.22
616.47	29210.86
616.665	28983.54
616.86	29006.06
617.055	28954.86
617.25	28836.08
617.445	28610.81
617.641	28174.59
617.836	28637.43
618.031	28242.17
618.226	28530.94
618.421	27912.45
618.616	28313.85
618.811	27859.2
619.006	28309.75
619.201	27500.81
619.396	27676.93
619.591	27412.74
619.786	27728.13
619.981	27158.8
620.176	27373.83
620.371	26945.81
620.566	27101.45
620.761	26822.93
620.956	26906.9
621.151	26222.87
621.346	26218.78
621.541	26288.41
621.735	26501.4
621.93	25854.24
622.125	25823.52
622.32	25669.92
622.515	25786.66
622.709	25362.73
622.904	25639.2
623.099	25270.57
623.294	25219.37
623.488	25016.62
623.683	24910.13
623.878	24314.17
624.072	24789.3
624.267	24443.19
624.462	24213.82
624.656	24154.43
624.851	23984.44
625.046	23968.06
625.24	23972.16
625.435	23460.16
625.629	23806.27
625.824	23540.04
626.018	23513.41
626.213	23009.61
626.407	23251.27
626.602	22845.77
626.796	23185.74
626.991	22927.69
627.185	22786.38
627.38	22714.7
627.574	22413.65
627.768	22231.38
627.963	22047.07
628.157	21825.89
628.352	21983.58
628.546	21629.28
628.74	22055.26
628.935	21561.7
629.129	21457.25
629.323	21279.08
629.517	21213.54
629.712	21141.86
629.906	20803.95
630.1	20701.55
630.294	20851.05
630.489	20900.2
630.683	20916.59
630.877	20498.8
631.071	20474.23
631.265	20502.9
631.459	20119.93
631.653	20007.29
631.848	19913.08
632.042	19833.21
632.236	19964.28
632.43	19630.46
632.624	19835.26
632.818	19380.61
633.012	19233.16
633.206	19265.92
633.4	19323.27
633.594	18928.01
633.788	19243.4
633.982	19067.27
634.176	18721.16
634.369	18786.7
634.563	18614.67
634.757	18520.46
634.951	18729.36
635.145	18452.88
635.339	18555.28
635.533	18174.36
635.726	18039.19
635.92	17811.87
636.114	18067.86
636.308	18196.88
636.501	17568.16
636.695	17643.93
636.889	17607.07
637.083	17566.11
637.276	17453.47
637.47	17492.38
637.664	17187.24
637.857	17377.7
638.051	17021.35
638.244	16880.04
638.438	16626.09
638.632	16728.49
638.825	16656.81
639.019	16599.47
639.212	16609.71
639.406	16546.22
639.599	16333.23
639.793	16439.73
639.986	16075.19
640.18	16159.16
640.373	16185.78
640.567	15559.1
640.76	15722.94
640.954	15780.28
641.147	15692.22
641.34	15690.17
641.534	15372.74
641.727	15485.37
641.92	15360.45
642.114	15174.08
642.307	15411.65
642.5	15139.27
642.694	14766.54
642.887	14873.03
643.08	14864.84
643.273	14741.96
643.467	14782.92
643.66	14752.2
643.853	14490.06
644.046	14172.63
644.239	14242.26
644.432	14299.6
644.626	14412.24
644.819	14246.35
645.012	14043.6
645.205	14113.24
645.398	14002.64
645.591	13861.34
645.784	13969.88
645.977	13492.7
646.17	13605.34
646.363	13394.4
646.556	13396.45
646.749	13429.21
646.942	13255.14
647.135	13248.99
647.328	13167.07
647.521	12986.85
647.714	13027.81
647.907	12827.11
648.099	12737
648.292	12784.1
648.485	12767.72
648.678	12390.89
648.871	12528.11
649.064	12472.81
649.256	12268.02
649.449	12237.3
649.642	12225.01
649.835	12259.82
650.027	11954.68
650.22	11749.88
650.413	11907.57
650.605	11698.68
650.798	11655.67
650.991	11627
651.183	11608.57
651.376	11377.15
651.568	11342.33
651.761	11289.09
651.954	11358.72
652.146	11334.14
652.339	11213.31
652.531	11201.02
652.724	10727.94
652.916	10912.26
653.109	10752.52
653.301	10930.69
653.494	10881.54
653.686	10781.19
653.879	10758.66
654.071	10547.72
654.263	10519.05
654.456	10519.05
654.648	10394.12
654.84	10189.33
655.033	10125.84
655.225	10232.33
655.417	9980.43
655.61	9781.78
655.802	10113.55
655.994	9685.53
656.186	9914.9
656.379	9984.53
656.571	9847.32
656.763	9792.02
656.955	9495.07
657.148	9544.22
657.34	9398.81
657.532	9320.99
657.724	9210.4
657.916	9245.21
658.108	9087.52
658.3	9122.34
658.492	9028.13
658.684	8974.88
658.876	8882.72
659.068	8968.74
659.26	8825.38
659.452	8735.27
659.644	8813.09
659.836	8608.3
660.028	8604.2
660.22	8440.36
660.412	8532.52
660.604	8239.66
660.796	8340.01
660.988	8409.64
661.18	8202.8
661.372	8024.62
661.563	8340.01
661.755	8022.58
661.947	7985.71
662.139	7909.94
662.331	7879.22
662.522	8004.14
662.714	7856.69
662.906	7578.17
663.097	7500.34
663.289	7655.99
663.481	7637.56
663.673	7612.98
663.864	7434.81
664.056	7369.27
664.247	7520.82
664.439	7133.76
664.631	7379.51
664.822	7055.93
665.014	7060.03
665.205	7105.09
665.397	7031.36
665.588	7082.56
665.78	6957.63
665.971	6812.23
666.163	6863.43
666.354	6984.26
666.546	6881.86
666.737	6711.88
666.929	6611.53
667.12	6584.9
667.311	6677.06
667.503	6505.03
667.694	6472.26
667.885	6355.53
668.077	6474.31
668.268	6398.54
668.459	6279.75
668.651	6351.43
668.842	6285.9
669.033	6330.95
669.224	6181.45
669.416	6257.23
669.607	6251.08
669.798	6191.69
669.989	6058.57
670.18	6005.33
670.371	6001.23
670.563	5958.22
670.754	5954.13
670.945	5845.59
671.136	5810.77
671.327	5771.86
671.518	5900.88
671.709	5882.45
671.9	5851.73
672.091	5849.68
672.282	5810.77
672.473	5601.88
672.664	5710.42
672.855	5587.54
673.046	5743.19
673.237	5542.49
673.428	5661.27
673.619	5622.36
673.809	5667.41
674	5354.07
674.191	5427.8
674.382	5429.85
674.573	5405.27
674.764	5458.52
674.954	5403.22
675.145	5450.33
675.336	5370.46
675.527	5290.59
675.717	5399.13
675.908	5204.57
676.099	5204.57
676.289	5116.51
676.48	5225.05
676.671	5014.11
676.861	5036.64
677.052	5001.82
677.243	5014.11
677.433	5210.72
677.624	5028.45
677.814	4831.84
678.005	5044.83
678.195	4942.43
678.386	5012.06
678.576	4751.97
678.767	4950.62
678.957	4897.38
679.148	4995.68
679.338	4870.75
679.529	4960.86
679.719	4805.22
679.909	4995.68
680.1	4776.55
680.29	4948.58
680.481	4854.37
680.671	4674.15
680.861	4620.9
681.052	4731.49
681.242	4647.52
681.432	4844.13
681.622	4741.73
681.813	4637.28
682.003	4665.96
682.193	4588.13
682.383	4698.72
682.573	4647.52
682.764	4561.51
682.954	4491.88
683.144	4549.22
683.334	4483.69
683.524	4571.75
683.714	4532.84
683.904	4379.24
684.094	4504.17
684.284	4573.8
684.474	4559.46
684.664	4446.82
684.854	4395.62
685.044	4452.97
685.234	4483.69
685.424	4479.59
685.614	4315.75
685.804	4346.47
685.994	4493.93
686.184	4428.39
686.374	4395.62
686.564	4252.27
686.753	4344.42
686.943	4264.55
687.133	4455.01
687.323	4291.18
687.513	4350.57
687.702	4280.94
687.892	4346.47
688.082	4323.94
688.272	4192.87
688.461	4409.96
688.651	4340.33
688.841	4244.07
689.03	4262.51
689.22	4252.27
689.41	4209.26
689.599	4078.19
689.789	4211.31
689.979	4311.66
690.168	4141.68
690.358	4172.39
690.547	4250.22
690.737	4287.08
690.926	4172.39
691.116	4164.2
691.305	4094.57
691.495	4242.03
691.684	4149.87
691.874	4190.83
692.063	4182.63
692.252	4098.67
692.442	4178.54
692.631	4074.09
692.82	4115.05
693.01	4217.45
693.199	4156.01
693.388	4104.81
693.578	4125.29
693.767	4223.59
693.956	4096.62
694.146	3975.79
694.335	4045.42
694.524	4088.43
694.713	4119.15
694.902	4084.33
695.092	4012.65
695.281	4078.19
695.47	4026.99
695.659	3992.17
695.848	3969.65
696.037	4074.09
696.226	4057.71
696.415	3953.26
696.604	3969.65
696.793	4020.85
696.982	3887.73
697.171	4065.9
697.36	3943.02
697.549	3961.45
697.738	3908.21
697.927	4057.71
698.116	3830.38
698.305	3910.26
698.494	3854.96
698.683	3764.85
698.872	3846.77
699.061	3787.38
699.25	3844.72
699.438	3717.75
699.627	3854.96
699.816	3854.96
700.005	3670.64
700.193	3918.45
700.382	3861.1
700.571	3699.31
700.76	3730.03
700.948	3791.47
701.137	3633.78
701.326	3822.19
701.514	3678.83
701.703	3789.42
701.892	3818.1
702.08	3758.71
702.269	3639.92
702.457	3629.68
702.646	3625.59
702.834	3801.71
703.023	3605.11
703.212	3697.27
703.4	3633.78
703.589	3531.38
703.777	3560.05
703.965	3553.91
704.154	3517.05
704.342	3531.38
704.531	3500.66
704.719	3369.59
704.907	3476.09
705.096	3568.24
705.284	3494.52
705.472	3418.74
705.661	3469.94
705.849	3383.93
706.037	3439.22
706.226	3412.6
706.414	3385.97
706.602	3283.58
706.79	3328.63
706.979	3375.74
707.167	3404.41
707.355	3254.9
707.543	3152.51
707.731	3236.47
707.919	3320.44
708.107	3207.8
708.296	3164.79
708.484	3230.33
708.672	3105.4
708.86	3123.84
709.048	3111.55
709.236	3220.09
709.424	3189.37
709.612	3172.99
709.8	3078.78
709.988	3019.39
710.176	3070.59
710.364	3093.12
710.551	3074.68
710.739	2910.85
710.927	3013.24
711.115	2988.67
711.303	3164.79
711.491	3027.58
711.679	3082.88
711.866	2890.37
712.054	3099.26
712.242	2871.93
712.43	2919.04
712.617	2982.53
712.805	2792.06
712.993	2865.79
713.181	2818.69
713.368	2855.55
713.556	2845.31
713.744	2871.93
713.931	2894.46
714.119	2937.47
714.306	2779.78
714.494	2804.35
714.682	2757.25
714.869	2787.97
715.057	2763.39
715.244	2634.37
715.432	2665.09
715.619	2757.25
715.807	2585.22
715.994	2685.57
716.182	2632.32
716.369	2632.32
716.556	2540.16
716.744	2521.73
716.931	2503.3
717.119	2634.37
717.306	2673.28
717.493	2529.92
717.681	2566.79
717.868	2503.3
718.055	2554.5
718.242	2521.73
718.43	2468.48
718.617	2544.26
718.804	2402.95
718.991	2421.38
719.179	2572.93
719.366	2357.89
719.553	2378.37
719.74	2341.51
719.927	2263.69
720.114	2435.72
720.301	2378.37
720.488	2374.28
720.676	2247.3
720.863	2409.09
721.05	2388.61
721.237	2296.46
721.424	2292.36
721.611	2181.77
721.798	2282.12
721.985	2255.5
722.172	2114.19
722.358	2316.94
722.545	2105.99
722.732	2314.89
722.919	2153.1
723.106	2237.06
723.293	2130.57
723.48	2095.75
723.667	2140.81
723.853	2120.33
724.04	2204.3
724.227	2048.65
724.414	2073.23
724.6	2044.56
724.787	2132.62
724.974	2075.27
725.161	2056.84
725.347	2140.81
725.534	2085.51
725.72	1968.78
725.907	1997.45
726.094	2011.79
726.28	1931.92
726.467	1948.3
726.653	2044.56
726.84	1942.16
727.027	2022.03
727.213	1845.9
727.4	1964.68
727.586	2003.6
727.773	1946.25
727.959	1933.97
728.145	1919.63
728.332	1917.58
728.518	1753.74
728.705	1850
728.891	1946.25
729.077	1833.61
729.264	1897.1
729.45	1825.42
729.636	1841.81
729.823	1796.75
730.009	1827.47
730.195	1856.14
730.382	1772.18
730.568	1741.46
730.754	1751.7
730.94	1772.18
731.126	1700.5
731.313	1784.46
731.499	1735.31
731.685	1829.52
731.871	1725.07
732.057	1723.02
732.243	1620.63
732.429	1729.17
732.615	1700.5
732.801	1733.26
732.987	1647.25
733.173	1606.29
733.359	1725.07
733.545	1516.18
733.731	1571.47
733.917	1634.96
734.103	1567.38
734.289	1634.96
734.475	1555.09
734.661	1577.62
734.847	1473.17
735.033	1671.83
735.219	1542.8
735.404	1577.62
735.59	1522.32
735.776	1573.52
735.962	1505.94
736.148	1553.04
736.333	1512.08
736.519	1514.13
736.705	1516.18
736.89	1387.16
737.076	1557.14
737.262	1602.19
737.447	1510.04
737.633	1477.27
737.819	1407.64
738.004	1510.04
738.19	1378.97
738.375	1489.56
738.561	1510.04
738.747	1424.02
738.932	1467.03
739.118	1378.97
739.303	1456.79
739.489	1487.51
739.674	1510.04
739.859	1358.49
740.045	1297.05
740.23	1383.06
740.416	1299.09
740.601	1428.12
740.786	1393.3
740.972	1305.24
741.157	1378.97
741.342	1315.48
741.528	1407.64
741.713	1399.45
741.898	1264.28
742.084	1301.14
742.269	1395.35
742.454	1239.7
742.639	1323.67
742.824	1305.24
743.01	1313.43
743.195	1397.4
743.38	1286.81
743.565	1280.66
743.75	1258.14
743.935	1256.09
744.12	1256.09
744.305	1231.51
744.49	1186.46
744.675	1256.09
744.86	1143.45
745.045	1258.14
745.23	1188.5
745.415	1157.78
745.6	1127.07
745.785	1231.51
745.97	1147.55
746.155	1077.91
746.34	1045.15
746.525	1112.73
746.71	1178.26
746.895	1133.21
747.079	1190.55
747.264	1135.26
747.449	1026.71
747.634	1092.25
747.819	1176.22
748.003	1028.76
748.188	1129.11
748.373	1014.43
748.557	955.04
748.742	1065.63
748.927	961.18
749.111	1071.77
749.296	977.56
749.481	1002.14
749.665	1036.95
749.85	977.56
750.034	998.04
750.219	938.65
750.404	1053.34
750.588	983.71
750.773	1059.48
750.957	975.52
751.141	952.99
751.326	1002.14
751.51	977.56
751.695	963.23
751.879	907.93
752.064	883.36
752.248	936.6
752.432	938.65
752.617	983.71
752.801	897.69
752.985	1024.67
753.17	922.27
753.354	848.54
753.538	928.41
753.722	860.83
753.907	905.88
754.091	789.15
754.275	840.35
754.459	862.88
754.643	805.53
754.828	887.45
755.012	815.77
755.196	807.58
755.38	830.11
755.564	838.3
755.748	809.63
755.932	805.53
756.116	860.83
756.3	866.97
756.484	791.2
756.668	783.01
756.852	752.29
757.036	783.01
757.22	723.62
757.404	703.14
757.588	793.25
757.772	785.05
757.956	821.92
758.14	688.8
758.323	809.63
758.507	756.38
758.691	764.57
758.875	817.82
759.059	742.05
759.242	645.79
759.426	789.15
759.61	801.44
759.794	719.52
759.977	666.27
760.161	758.43
760.345	684.7
760.528	723.62
760.712	744.1
760.895	721.57
761.079	656.03
761.263	682.66
761.446	733.86
761.63	715.42
761.813	666.27
761.997	676.51
762.18	752.29
762.364	651.94
762.547	645.79
762.731	649.89
762.914	637.6
763.098	719.52
763.281	653.98
763.464	645.79
763.648	649.89
763.831	666.27
764.015	690.85
764.198	645.79
764.381	639.65
764.564	688.8
764.748	627.36
764.931	602.79
765.114	625.31
765.297	633.5
765.481	627.36
765.664	590.5
765.847	643.74
766.03	610.98
766.213	598.69
766.397	647.84
766.58	647.84
766.763	651.94
766.946	619.17
767.129	613.03
767.312	619.17
767.495	674.46
767.678	514.72
767.861	656.03
768.044	563.87
768.227	619.17
768.41	643.74
768.593	613.03
768.776	606.88
768.959	588.45
769.142	586.4
769.324	557.73
769.507	572.07
769.69	705.18
769.873	633.5
770.056	637.6
770.239	576.16
770.421	561.83
770.604	604.83
770.787	539.3
770.97	686.75
771.152	502.43
771.335	527.01
771.518	502.43
771.7	623.27
771.883	527.01
772.066	533.15
772.248	582.31
772.431	613.03
772.613	486.05
772.796	455.33
772.978	545.44
773.161	617.12
773.343	608.93
773.526	539.3
773.708	559.78
773.891	512.67
774.073	512.67
774.256	531.11
774.438	594.59
774.621	469.67
774.803	547.49
774.985	518.82
775.168	486.05
775.35	529.06
775.532	502.43
775.715	475.81
775.897	537.25
776.079	471.72
776.261	574.11
776.444	537.25
776.626	541.35
776.808	481.96
776.99	457.38
777.173	512.67
777.355	584.35
777.537	486.05
777.719	502.43
777.901	459.43
778.083	430.76
778.265	465.57
778.447	510.63
778.629	402.08
778.811	508.58
778.993	508.58
779.175	453.28
779.357	447.14
779.539	449.19
779.721	363.17
779.903	371.36
780.085	447.14
780.267	412.32
780.449	432.8
780.631	459.43
780.812	363.17
780.994	354.98
781.176	406.18
781.358	424.61
781.54	428.71
781.721	414.37
781.903	340.65
782.085	395.94
782.267	363.17
782.448	422.56
782.63	422.56
782.812	406.18
782.993	369.32
783.175	428.71
783.357	361.13
783.538	412.32
783.72	285.35
783.901	400.04
784.083	342.69
784.264	318.12
784.446	412.32
784.627	412.32
784.809	418.47
784.99	391.84
785.172	334.5
785.353	301.73
785.535	287.4
785.716	316.07
785.897	426.66
786.079	320.17
786.26	344.74
786.441	391.84
786.623	303.78
786.804	346.79
786.985	330.41
787.167	324.26
787.348	289.45
787.529	377.51
787.71	330.41
787.891	361.13
788.073	268.97
788.254	258.73
788.435	293.54
788.616	311.97
788.797	350.89
788.978	340.65
789.159	309.93
789.34	354.98
789.522	221.86
789.703	334.5
789.884	346.79
790.065	287.4
790.246	264.87
790.427	330.41
790.607	201.38
790.788	365.22
790.969	271.01
791.15	242.34
791.331	338.6
791.512	240.29
791.693	207.53
791.874	307.88
792.054	334.5
792.235	279.21
792.416	275.11
792.597	264.87
792.778	248.49
792.958	252.58
793.139	328.36
793.32	295.59
793.5	234.15
793.681	318.12
793.862	275.11
794.042	260.77
794.223	299.69
794.404	207.53
794.584	180.9
794.765	316.07
794.945	152.23
795.126	305.83
795.306	244.39
795.487	303.78
795.667	223.91
795.848	244.39
796.028	303.78
796.209	205.48
796.389	277.16
796.57	281.25
796.75	193.19
796.93	234.15
797.111	279.21
797.291	236.2
797.471	242.34
797.652	162.47
797.832	223.91
798.012	287.4
798.192	248.49
798.373	182.95
798.553	277.16
798.733	273.06
798.913	203.43
799.093	166.57
799.274	236.2
799.454	217.77
799.634	182.95
799.814	211.62
799.994	238.25
800.174	201.38
800.354	199.34
800.534	232.1
800.714	180.9
800.894	158.38
801.074	152.23
801.254	213.67
801.434	187.05
801.614	144.04
801.794	193.19
801.974	381.6
802.154	144.04
802.334	182.95
802.514	228.01
802.693	201.38
802.873	164.52
803.053	189.1
803.233	199.34
803.413	201.38
803.592	211.62
803.772	182.95
803.952	174.76
804.131	166.57
804.311	137.9
804.491	152.23
804.67	193.19
804.85	187.05
805.03	166.57
805.209	141.99
805.389	168.62
805.568	234.15
805.748	207.53
805.928	166.57
806.107	135.85
806.287	256.68
806.466	158.38
806.646	107.18
806.825	215.72
807.004	92.84
807.184	185
807.363	234.15
807.543	187.05
807.722	117.42
807.901	148.14
808.081	70.31
808.26	172.71
808.439	166.57
808.619	168.62
808.798	101.03
808.977	101.03
809.156	133.8
809.336	111.27
809.515	109.22
809.694	152.23
809.873	141.99
810.052	182.95
810.231	133.8
810.411	119.46
810.59	76.46
810.769	164.52
810.948	121.51
811.127	242.34
811.306	168.62
811.485	119.46
811.664	242.34
811.843	137.9
812.022	92.84
812.201	101.03
812.38	135.85
812.559	180.9
812.737	55.98
812.916	125.61
813.095	86.7
813.274	101.03
813.453	152.23
813.632	223.91
813.811	164.52
813.989	113.32
814.168	146.09
814.347	94.89
814.526	152.23
814.704	107.18
814.883	174.76
815.062	117.42
815.24	150.18
815.419	123.56
815.598	172.71
815.776	125.61
815.955	101.03
816.133	152.23
816.312	94.89
816.49	209.58
816.669	127.66
816.847	154.28
817.026	144.04
817.204	139.94
817.383	72.36
817.561	107.18
817.74	176.81
817.918	166.57
818.097	127.66
818.275	98.99
818.453	60.07
818.632	244.39
818.81	68.27
818.988	135.85
819.167	152.23
819.345	154.28
819.523	170.66
819.701	117.42
819.879	82.6
820.058	127.66
820.236	131.75
820.414	101.03
820.592	137.9
820.77	137.9
820.948	137.9
821.127	117.42
821.305	105.13
821.483	119.46
821.661	158.38
821.839	162.47
822.017	117.42
822.195	123.56
822.373	96.94
822.551	176.81
822.729	137.9
822.907	146.09
823.085	166.57
823.262	88.75
823.44	49.83
823.618	109.22
823.796	160.42
823.974	68.27
824.152	96.94
824.329	88.75
824.507	101.03
824.685	137.9
824.863	148.14
825.04	105.13
825.218	172.71
825.396	53.93
825.574	86.7
825.751	82.6
825.929	109.22
826.107	115.37
826.284	94.89
826.462	96.94
826.639	33.45
826.817	88.75
826.994	86.7
827.172	82.6
827.349	109.22
827.527	45.74
827.704	80.55
827.882	131.75
828.059	117.42
828.237	84.65
828.414	182.95
828.591	152.23
828.769	168.62
828.946	96.94
829.124	103.08
829.301	78.51
829.478	92.84
829.655	68.27
829.833	111.27
830.01	92.84
830.187	103.08
830.364	62.12
830.542	141.99
830.719	55.98
830.896	76.46
831.073	62.12
831.25	51.88
831.427	187.05
831.604	76.46
831.782	55.98
831.959	82.6
832.136	131.75
832.313	92.84
832.49	25.26
832.667	86.7
832.844	74.41
833.021	41.64
833.198	182.95
833.374	129.7
833.551	150.18
833.728	117.42
833.905	64.17
834.082	43.69
834.259	27.31
834.436	170.66
834.612	88.75
834.789	141.99
834.966	27.31
835.143	137.9
835.319	74.41
835.496	68.27
835.673	23.21
835.85	117.42
836.026	27.31
836.203	141.99
836.38	43.69
836.556	82.6
836.733	55.98
836.909	72.36
837.086	49.83
837.262	58.03
837.439	176.81
837.616	51.88
837.792	43.69
837.968	148.14
838.145	92.84
838.321	15.02
838.498	98.99
838.674	39.59
838.851	55.98
839.027	137.9
839.203	86.7
839.38	121.51
839.556	58.03
839.732	154.28
839.909	37.55
840.085	76.46
840.261	45.74
840.437	105.13
840.614	115.37
840.79	133.8
840.966	31.4
841.142	60.07
841.318	146.09
841.494	51.88
841.671	58.03
841.847	43.69
842.023	96.94
842.199	25.26
842.375	10.92
842.551	62.12
842.727	49.83
842.903	111.27
843.079	31.4
843.255	94.89
843.431	58.03
843.607	35.5
843.783	70.31
843.959	111.27
844.134	35.5
844.31	111.27
844.486	58.03
844.662	117.42
844.838	62.12
845.013	109.22
845.189	27.31
845.365	72.36
845.541	105.13
845.716	70.31
845.892	92.84
846.068	53.93
846.244	39.59
846.419	133.8
846.595	84.65
846.77	135.85
846.946	103.08
847.122	76.46
847.297	137.9
847.473	123.56
847.648	53.93
847.824	78.51
847.999	55.98
848.175	117.42
848.35	51.88
848.526	55.98
848.701	94.89
848.876	39.59
849.052	27.31
849.227	35.5
849.403	21.16
849.578	103.08
849.753	53.93
849.929	76.46
850.104	37.55
850.279	162.47
850.454	72.36
850.63	88.75
850.805	74.41
850.98	21.16
851.155	35.5
851.33	125.61
851.505	66.22
851.681	47.79
851.856	45.74
852.031	-13.65
852.206	74.41
852.381	31.4
852.556	86.7
852.731	70.31
852.906	119.46
853.081	62.12
853.256	41.64
853.431	10.92
853.606	62.12
853.781	51.88
853.956	2.73
854.131	70.31
854.305	-34.13
854.48	51.88
854.655	29.35
854.83	39.59
855.005	41.64
855.18	4.78
855.354	-11.61
855.529	101.03
855.704	51.88
855.879	-1.37
856.053	98.99
856.228	53.93
856.403	80.55
856.577	62.12
856.752	55.98
856.926	41.64
857.101	41.64
857.276	123.56
857.45	31.4
857.625	19.11
857.799	47.79
857.974	4.78
858.148	72.36
858.323	12.97
858.497	31.4
858.672	68.27
858.846	58.03
859.02	23.21
859.195	37.55
859.369	156.33
859.543	76.46
859.718	96.94
859.892	109.22
860.066	64.17
860.241	76.46
860.415	51.88
860.589	82.6
860.763	-30.04
860.938	-46.42
861.112	101.03
861.286	123.56
861.46	70.31
861.634	86.7
861.808	45.74
861.982	64.17
862.157	74.41
862.331	10.92
862.505	53.93
862.679	62.12
862.853	72.36
863.027	53.93
863.201	4.78
863.375	25.26
863.549	31.4
863.722	55.98
863.896	-17.75
864.07	51.88
864.244	29.35
864.418	17.07
864.592	12.97
864.766	76.46
864.939	25.26
865.113	72.36
865.287	60.07
865.461	-25.94
865.634	19.11
865.808	88.75
865.982	35.5
866.156	53.93
866.329	8.87
866.503	6.83
866.676	45.74
866.85	29.35
867.024	101.03
867.197	78.51
867.371	-3.41
867.544	25.26
867.718	68.27
867.891	109.22
868.065	31.4
868.238	68.27
868.412	25.26
868.585	10.92
868.759	-3.41
868.932	21.16
869.105	-1.37
869.279	76.46
869.452	64.17
869.625	-34.13
869.799	4.78
869.972	43.69
870.145	62.12
870.319	39.59
870.492	47.79
870.665	-9.56
870.838	21.16
871.011	2.73
871.185	98.99
871.358	60.07
871.531	94.89
871.704	39.59
871.877	76.46
872.05	64.17
872.223	107.18
872.396	64.17
872.569	51.88
872.742	-1.37
872.915	60.07
873.088	8.87
873.261	35.5
873.434	47.79
873.607	111.27
873.78	51.88
873.953	17.07
874.126	17.07
874.299	35.5
874.471	111.27
874.644	88.75
874.817	-13.65
874.99	4.78
875.163	21.16
875.335	101.03
875.508	8.87
875.681	-32.08
875.853	58.03
876.026	94.89
876.199	76.46
876.371	70.31
876.544	-11.61
876.717	72.36
876.889	94.89
877.062	60.07
877.234	129.7
877.407	66.22
877.579	2.73
877.752	35.5
877.924	62.12
878.097	55.98
878.269	0.68
878.442	39.59
878.614	-13.65
878.786	45.74
878.959	43.69
879.131	74.41
879.303	31.4
879.476	55.98
879.648	41.64
879.82	51.88
879.993	15.02
880.165	84.65
880.337	47.79
880.509	43.69
880.681	60.07
880.854	29.35
881.026	43.69
881.198	68.27
881.37	70.31
881.542	41.64
881.714	-1.37
881.886	19.11
882.058	21.16
882.23	17.07
882.402	-1.37
882.574	12.97
882.746	119.46
882.918	51.88
883.09	21.16
883.262	37.55
883.434	39.59
883.606	43.69
883.778	2.73
883.95	70.31
884.122	-5.46
884.293	84.65
884.465	23.21
884.637	-13.65
884.809	47.79
884.98	35.5
885.152	-7.51
885.324	72.36
885.496	51.88
885.667	62.12
885.839	60.07
886.011	29.35
886.182	64.17
886.354	12.97
886.525	70.31
886.697	66.22
886.869	29.35
887.04	60.07
887.212	86.7
887.383	43.69
887.555	39.59
887.726	68.27
887.897	80.55
888.069	43.69
888.24	51.88
888.412	103.08
888.583	41.64
888.754	-34.13
888.926	47.79
889.097	45.74
889.268	4.78
889.44	62.12
889.611	15.02
889.782	15.02
889.953	31.4
890.125	68.27
890.296	23.21
890.467	17.07
890.638	53.93
890.809	115.37
890.98	-38.23
891.151	33.45
891.323	55.98
891.494	66.22
891.665	98.99
891.836	78.51
892.007	19.11
892.178	103.08
892.349	45.74
892.52	53.93
892.691	86.7
892.862	31.4
893.032	23.21
893.203	15.02
893.374	21.16
893.545	53.93
893.716	4.78
893.887	60.07
894.057	45.74
894.228	109.22
894.399	51.88
894.57	70.31
894.74	4.78
894.911	49.83
895.082	82.6
895.253	39.59
895.423	27.31
895.594	58.03
895.764	29.35
895.935	64.17
896.106	-3.41
896.276	49.83
896.447	66.22
896.617	35.5
896.788	-42.32
896.958	15.02
897.129	60.07
897.299	10.92
897.47	8.87
897.64	51.88
897.81	53.93
897.981	39.59
898.151	23.21
898.322	39.59
898.492	68.27
898.662	76.46
898.832	15.02
899.003	101.03
899.173	66.22
899.343	51.88
899.513	19.11
