Data from USB4F104151__149__13-58-23-975.txt Node

Date: Thu Mar 13 13:58:23 EDT 2025
User: louis
Spectrometer: USB4F10415
Trigger mode: 4
Integration Time (sec): 1.000000E-2
Scans to average: 1
Electric dark correction enabled: true
Nonlinearity correction enabled: false
Boxcar width: 0
XAxis mode: Wavelengths
Number of Pixels in Spectrum: 3648
>>>>>Begin Spectral Data<<<<<
178.204	-105.81
178.424	-105.81
178.644	-105.81
178.864	-34.13
179.084	-25.94
179.304	6.83
179.524	-34.13
179.744	39.59
179.964	31.4
180.184	41.64
180.404	-30.04
180.624	-34.13
180.844	2.73
181.064	-56.66
181.283	21.16
181.503	-9.56
181.723	21.16
181.943	-103.76
182.163	-42.32
182.383	23.21
182.602	-32.08
182.822	25.26
183.042	76.46
183.262	25.26
183.482	35.5
183.701	-21.84
183.921	-5.46
184.141	-95.57
184.361	-15.7
184.58	35.5
184.8	-7.51
185.02	-38.23
185.239	15.02
185.459	-23.89
185.679	-7.51
185.898	2.73
186.118	6.83
186.338	-30.04
186.557	21.16
186.777	39.59
186.997	-7.51
187.216	-7.51
187.436	45.74
187.655	-52.56
187.875	2.73
188.095	-85.33
188.314	10.92
188.534	51.88
188.753	17.07
188.973	12.97
189.192	39.59
189.412	8.87
189.631	15.02
189.851	27.31
190.07	-27.99
190.29	-3.41
190.509	-34.13
190.729	31.4
190.948	8.87
191.168	27.31
191.387	8.87
191.607	53.93
191.826	29.35
192.045	-58.71
192.265	0.68
192.484	-23.89
192.704	53.93
192.923	-21.84
193.142	41.64
193.362	-54.61
193.581	17.07
193.8	-9.56
194.02	23.21
194.239	-46.42
194.458	39.59
194.678	-58.71
194.897	-42.32
195.116	-46.42
195.335	21.16
195.555	19.11
195.774	49.83
195.993	2.73
196.212	39.59
196.432	-9.56
196.651	-3.41
196.87	-13.65
197.089	60.07
197.308	17.07
197.528	-44.37
197.747	-68.95
197.966	-25.94
198.185	-13.65
198.404	21.16
198.623	-9.56
198.842	-15.7
199.062	21.16
199.281	60.07
199.5	-54.61
199.719	-25.94
199.938	-23.89
200.157	35.5
200.376	-25.94
200.595	-5.46
200.814	-13.65
201.033	-1.37
201.252	6.83
201.471	53.93
201.69	21.16
201.909	62.12
202.128	2.73
202.347	-34.13
202.566	6.83
202.785	-56.66
203.004	43.69
203.223	-21.84
203.442	49.83
203.661	19.11
203.879	25.26
204.098	27.31
204.317	-32.08
204.536	2.73
204.755	-25.94
204.974	49.83
205.193	-1.37
205.411	66.22
205.63	-46.42
205.849	-15.7
206.068	8.87
206.287	12.97
206.505	2.73
206.724	-3.41
206.943	-19.8
207.162	27.31
207.381	6.83
207.599	8.87
207.818	41.64
208.037	33.45
208.255	-19.8
208.474	49.83
208.693	-9.56
208.911	94.89
209.13	-11.61
209.349	6.83
209.567	-1.37
209.786	21.16
210.005	-40.28
210.223	-34.13
210.442	-87.38
210.661	-42.32
210.879	6.83
211.098	12.97
211.316	-66.9
211.535	-9.56
211.753	-38.23
211.972	-44.37
212.191	-50.52
212.409	-7.51
212.628	-23.89
212.846	-15.7
213.065	-54.61
213.283	49.83
213.502	31.4
213.72	58.03
213.938	19.11
214.157	49.83
214.375	-7.51
214.594	-32.08
214.812	0.68
215.031	-11.61
215.249	-11.61
215.467	10.92
215.686	-40.28
215.904	-7.51
216.122	10.92
216.341	-15.7
216.559	19.11
216.778	-118.1
216.996	10.92
217.214	-13.65
217.432	23.21
217.651	31.4
217.869	55.98
218.087	-3.41
218.306	-9.56
218.524	-15.7
218.742	-11.61
218.96	15.02
219.179	10.92
219.397	39.59
219.615	43.69
219.833	39.59
220.051	-34.13
220.27	4.78
220.488	-42.32
220.706	-54.61
220.924	-89.43
221.142	123.56
221.36	41.64
221.578	-21.84
221.796	2.73
222.015	-7.51
222.233	17.07
222.451	17.07
222.669	-3.41
222.887	-7.51
223.105	47.79
223.323	45.74
223.541	21.16
223.759	15.02
223.977	4.78
224.195	29.35
224.413	-1.37
224.631	-58.71
224.849	-7.51
225.067	39.59
225.285	6.83
225.503	66.22
225.721	-73.04
225.939	-34.13
226.157	2.73
226.375	94.89
226.592	-44.37
226.81	29.35
227.028	-40.28
227.246	-44.37
227.464	-15.7
227.682	82.6
227.9	-46.42
228.117	41.64
228.335	39.59
228.553	6.83
228.771	35.5
228.989	55.98
229.206	76.46
229.424	31.4
229.642	45.74
229.86	17.07
230.077	49.83
230.295	15.02
230.513	23.21
230.731	-48.47
230.948	94.89
231.166	4.78
231.384	2.73
231.601	49.83
231.819	19.11
232.037	-3.41
232.254	-25.94
232.472	-7.51
232.689	-62.8
232.907	6.83
233.125	0.68
233.342	53.93
233.56	-56.66
233.777	29.35
233.995	-1.37
234.213	41.64
234.43	-23.89
234.648	-5.46
234.865	35.5
235.083	27.31
235.3	10.92
235.518	-3.41
235.735	25.26
235.953	6.83
236.17	-30.04
236.388	-21.84
236.605	27.31
236.822	8.87
237.04	-19.8
237.257	-17.75
237.475	-27.99
237.692	19.11
237.909	-21.84
238.127	121.51
238.344	45.74
238.562	35.5
238.779	-3.41
238.996	25.26
239.214	-32.08
239.431	15.02
239.648	19.11
239.865	-15.7
240.083	-38.23
240.3	96.94
240.517	-48.47
240.735	45.74
240.952	6.83
241.169	19.11
241.386	12.97
241.603	8.87
241.821	-21.84
242.038	-7.51
242.255	-36.18
242.472	10.92
242.689	-42.32
242.907	-7.51
243.124	37.55
243.341	-15.7
243.558	-66.9
243.775	8.87
243.992	-19.8
244.209	43.69
244.426	15.02
244.643	-52.56
244.86	47.79
245.078	15.02
245.295	-36.18
245.512	-25.94
245.729	33.45
245.946	-46.42
246.163	-38.23
246.38	2.73
246.597	-1.37
246.814	80.55
247.031	-13.65
247.248	-38.23
247.464	64.17
247.681	41.64
247.898	-17.75
248.115	35.5
248.332	17.07
248.549	31.4
248.766	-13.65
248.983	-5.46
249.2	-32.08
249.417	23.21
249.633	-21.84
249.85	6.83
250.067	41.64
250.284	-7.51
250.501	8.87
250.717	-11.61
250.934	-19.8
251.151	-34.13
251.368	23.21
251.585	23.21
251.801	-9.56
252.018	66.22
252.235	10.92
252.451	41.64
252.668	-30.04
252.885	-3.41
253.102	17.07
253.318	-34.13
253.535	-40.28
253.752	25.26
253.968	-62.8
254.185	-5.46
254.401	31.4
254.618	-54.61
254.835	8.87
255.051	-40.28
255.268	-11.61
255.484	-58.71
255.701	-7.51
255.917	15.02
256.134	-38.23
256.351	2.73
256.567	39.59
256.784	31.4
257	-66.9
257.217	-15.7
257.433	-9.56
257.65	72.36
257.866	17.07
258.082	-5.46
258.299	-23.89
258.515	-5.46
258.732	0.68
258.948	-34.13
259.165	-32.08
259.381	2.73
259.597	-42.32
259.814	-7.51
260.03	35.5
260.246	6.83
260.463	49.83
260.679	74.41
260.895	-44.37
261.112	-38.23
261.328	-32.08
261.544	-50.52
261.761	27.31
261.977	8.87
262.193	15.02
262.409	76.46
262.626	-83.28
262.842	35.5
263.058	-81.24
263.274	35.5
263.49	-30.04
263.707	0.68
263.923	17.07
264.139	29.35
264.355	-75.09
264.571	25.26
264.787	-58.71
265.004	-36.18
265.22	74.41
265.436	-5.46
265.652	15.02
265.868	-21.84
266.084	51.88
266.3	55.98
266.516	-89.43
266.732	37.55
266.948	35.5
267.164	-58.71
267.38	15.02
267.596	39.59
267.812	25.26
268.028	-13.65
268.244	-50.52
268.46	4.78
268.676	19.11
268.892	12.97
269.108	33.45
269.324	-44.37
269.54	-27.99
269.756	-1.37
269.972	-66.9
270.188	-36.18
270.403	6.83
270.619	-77.14
270.835	33.45
271.051	-25.94
271.267	109.23
271.483	62.12
271.698	-13.65
271.914	53.93
272.13	10.92
272.346	2.73
272.562	68.27
272.777	-1.37
272.993	-79.19
273.209	37.55
273.425	27.31
273.64	-91.48
273.856	-9.56
274.072	74.41
274.287	-5.46
274.503	55.98
274.719	-3.41
274.934	-42.32
275.15	31.4
275.366	-56.66
275.581	-68.95
275.797	70.31
276.012	25.26
276.228	39.59
276.444	-62.8
276.659	19.11
276.875	33.45
277.09	-48.47
277.306	23.21
277.521	72.36
277.737	-7.51
277.952	68.27
278.168	31.4
278.383	-7.51
278.599	21.16
278.814	-23.89
279.03	-48.47
279.245	-7.51
279.461	23.21
279.676	17.07
279.892	-30.04
280.107	-9.56
280.322	-32.08
280.538	10.92
280.753	0.68
280.969	17.07
281.184	19.11
281.399	8.87
281.615	-17.75
281.83	-44.37
282.045	-13.65
282.26	-81.24
282.476	-38.23
282.691	25.26
282.906	-13.65
283.122	10.92
283.337	-15.7
283.552	43.69
283.767	12.97
283.983	-27.99
284.198	-13.65
284.413	-15.7
284.628	21.16
284.843	15.02
285.058	0.68
285.274	-17.75
285.489	-1.37
285.704	90.79
285.919	62.12
286.134	-32.08
286.349	66.22
286.564	-48.47
286.779	25.26
286.995	33.45
287.21	-44.37
287.425	31.4
287.64	19.11
287.855	41.64
288.07	4.78
288.285	31.4
288.5	-23.89
288.715	-27.99
288.93	-13.65
289.145	23.21
289.36	41.64
289.575	-44.37
289.79	-68.95
290.004	37.55
290.219	64.17
290.434	35.5
290.649	10.92
290.864	25.26
291.079	-1.37
291.294	6.83
291.509	31.4
291.724	45.74
291.938	-23.89
292.153	-13.65
292.368	45.74
292.583	41.64
292.798	-5.46
293.012	0.68
293.227	45.74
293.442	15.02
293.657	12.97
293.871	41.64
294.086	-15.7
294.301	31.4
294.516	10.92
294.73	-58.71
294.945	41.64
295.16	2.73
295.374	2.73
295.589	0.68
295.804	-36.18
296.018	2.73
296.233	4.78
296.447	29.35
296.662	-44.37
296.877	-52.56
297.091	15.02
297.306	-42.32
297.52	-13.65
297.735	0.68
297.949	-36.18
298.164	-62.8
298.378	8.87
298.593	-17.75
298.807	-71
299.022	-21.84
299.236	23.21
299.451	-11.61
299.665	-54.61
299.88	4.78
300.094	-3.41
300.309	37.55
300.523	10.92
300.737	29.35
300.952	23.21
301.166	25.26
301.381	58.03
301.595	-27.99
301.809	-7.51
302.024	39.59
302.238	-30.04
302.452	49.83
302.667	-9.56
302.881	-42.32
303.095	35.5
303.309	-15.7
303.524	78.51
303.738	0.68
303.952	17.07
304.166	-21.84
304.381	43.69
304.595	33.45
304.809	4.78
305.023	55.98
305.237	31.4
305.452	6.83
305.666	-9.56
305.88	-34.13
306.094	19.11
306.308	17.07
306.522	47.79
306.736	-1.37
306.95	39.59
307.164	0.68
307.379	21.16
307.593	2.73
307.807	-44.37
308.021	15.02
308.235	27.31
308.449	4.78
308.663	8.87
308.877	68.27
309.091	53.93
309.305	-25.94
309.519	-46.42
309.733	125.61
309.947	-19.8
310.161	15.02
310.374	2.73
310.588	43.69
310.802	0.68
311.016	41.64
311.23	25.26
311.444	-15.7
311.658	-48.47
311.872	21.16
312.085	31.4
312.299	68.27
312.513	80.55
312.727	-44.37
312.941	-46.42
313.154	31.4
313.368	-79.19
313.582	17.07
313.796	17.07
314.009	-32.08
314.223	-42.32
314.437	6.83
314.651	-21.84
314.864	4.78
315.078	27.31
315.292	12.97
315.505	-30.04
315.719	25.26
315.933	-13.65
316.146	-15.7
316.36	23.21
316.573	2.73
316.787	-36.18
317.001	15.02
317.214	37.55
317.428	25.26
317.641	-25.94
317.855	25.26
318.068	-9.56
318.282	-1.37
318.495	-32.08
318.709	53.93
318.922	12.97
319.136	8.87
319.349	23.21
319.563	23.21
319.776	0.68
319.99	35.5
320.203	12.97
320.417	33.45
320.63	-34.13
320.843	41.64
321.057	68.27
321.27	-25.94
321.483	-5.46
321.697	58.03
321.91	31.4
322.124	-56.66
322.337	121.51
322.55	-25.94
322.763	49.83
322.977	6.83
323.19	29.35
323.403	-9.56
323.617	10.92
323.83	21.16
324.043	6.83
324.256	41.64
324.469	10.92
324.683	55.98
324.896	-9.56
325.109	23.21
325.322	8.87
325.535	-38.23
325.748	39.59
325.962	-58.71
326.175	31.4
326.388	64.17
326.601	39.59
326.814	-15.7
327.027	-32.08
327.24	68.27
327.453	41.64
327.666	35.5
327.879	-23.89
328.092	25.26
328.305	53.93
328.518	64.17
328.731	8.87
328.944	-42.32
329.157	-19.8
329.37	-7.51
329.583	12.97
329.796	6.83
330.009	-13.65
330.222	21.16
330.435	-58.71
330.648	-1.37
330.861	15.02
331.073	-23.89
331.286	51.88
331.499	2.73
331.712	-52.56
331.925	21.16
332.138	35.5
332.35	-21.84
332.563	0.68
332.776	47.79
332.989	-40.28
333.202	37.55
333.414	-30.04
333.627	-32.08
333.84	-32.08
334.053	23.21
334.265	76.46
334.478	51.88
334.691	-19.8
334.903	94.89
335.116	-68.95
335.329	41.64
335.541	-11.61
335.754	29.35
335.966	0.68
336.179	23.21
336.392	-5.46
336.604	-17.75
336.817	19.11
337.029	21.16
337.242	-91.48
337.454	80.55
337.667	49.83
337.88	66.22
338.092	117.42
338.305	68.27
338.517	15.02
338.729	33.45
338.942	12.97
339.154	49.83
339.367	-64.85
339.579	51.88
339.792	27.31
340.004	39.59
340.217	-5.46
340.429	-5.46
340.641	-46.42
340.854	31.4
341.066	-1.37
341.278	17.07
341.491	23.21
341.703	-40.28
341.915	-68.95
342.128	0.68
342.34	-25.94
342.552	-23.89
342.764	-48.47
342.977	-13.65
343.189	23.21
343.401	-7.51
343.613	-36.18
343.826	72.36
344.038	17.07
344.25	17.07
344.462	35.5
344.674	-42.32
344.886	-7.51
345.099	15.02
345.311	15.02
345.523	-11.61
345.735	-25.94
345.947	8.87
346.159	15.02
346.371	10.92
346.583	-42.32
346.795	78.51
347.007	-5.46
347.219	64.17
347.431	-17.75
347.643	2.73
347.855	15.02
348.067	23.21
348.279	8.87
348.491	-3.41
348.703	17.07
348.915	-9.56
349.127	-3.41
349.339	47.79
349.551	23.21
349.763	51.88
349.975	23.21
350.187	-9.56
350.399	-68.95
350.61	62.12
350.822	-40.28
351.034	-15.7
351.246	-38.23
351.458	70.31
351.669	-17.75
351.881	25.26
352.093	60.07
352.305	47.79
352.517	6.83
352.728	35.5
352.94	-1.37
353.152	78.51
353.363	-9.56
353.575	37.55
353.787	68.27
353.999	4.78
354.21	31.4
354.422	19.11
354.633	80.55
354.845	68.27
355.057	-9.56
355.268	-17.75
355.48	-89.43
355.692	90.79
355.903	39.59
356.115	60.07
356.326	-73.04
356.538	76.46
356.749	109.23
356.961	74.41
357.172	39.59
357.384	-1.37
357.595	41.64
357.807	-73.04
358.018	45.74
358.23	27.31
358.441	45.74
358.653	33.45
358.864	-42.32
359.075	19.11
359.287	53.93
359.498	4.78
359.709	23.21
359.921	4.78
360.132	47.79
360.344	72.36
360.555	53.93
360.766	-13.65
360.977	-11.61
361.189	15.02
361.4	41.64
361.611	49.83
361.823	31.4
362.034	17.07
362.245	10.92
362.456	29.35
362.667	-23.89
362.879	-50.52
363.09	15.02
363.301	-38.23
363.512	-23.89
363.723	10.92
363.935	2.73
364.146	64.17
364.357	-60.76
364.568	80.55
364.779	-27.99
364.99	25.26
365.201	31.4
365.412	-52.56
365.623	66.22
365.834	-1.37
366.045	10.92
366.256	25.26
366.467	144.04
366.678	-23.89
366.889	-30.04
367.1	33.45
367.311	15.02
367.522	-34.13
367.733	53.93
367.944	23.21
368.155	23.21
368.366	-48.47
368.577	80.55
368.788	64.17
368.999	33.45
369.209	-79.19
369.42	25.26
369.631	31.4
369.842	8.87
370.053	58.03
370.264	25.26
370.474	17.07
370.685	-7.51
370.896	-15.7
371.107	-3.41
371.317	-9.56
371.528	25.26
371.739	41.64
371.95	25.26
372.16	43.69
372.371	-58.71
372.582	-11.61
372.792	0.68
373.003	-3.41
373.214	31.4
373.424	45.74
373.635	80.55
373.846	27.31
374.056	17.07
374.267	27.31
374.477	49.83
374.688	-56.66
374.898	60.07
375.109	-30.04
375.319	2.73
375.53	-17.75
375.74	8.87
375.951	55.98
376.161	6.83
376.372	70.31
376.582	19.11
376.793	47.79
377.003	72.36
377.214	25.26
377.424	12.97
377.635	27.31
377.845	58.03
378.055	58.03
378.266	0.68
378.476	86.7
378.686	10.92
378.897	82.6
379.107	-15.7
379.317	49.83
379.528	12.97
379.738	15.02
379.948	15.02
380.158	66.22
380.369	47.79
380.579	27.31
380.789	21.16
380.999	-11.61
381.21	4.78
381.42	47.79
381.63	43.69
381.84	74.41
382.05	55.98
382.261	131.75
382.471	10.92
382.681	33.45
382.891	27.31
383.101	41.64
383.311	15.02
383.521	29.35
383.731	-25.94
383.941	23.21
384.151	-19.8
384.361	39.59
384.571	88.75
384.781	6.83
384.991	8.87
385.201	-3.41
385.411	68.27
385.621	80.55
385.831	-9.56
386.041	84.65
386.251	45.74
386.461	101.03
386.671	55.98
386.881	-30.04
387.091	2.73
387.301	58.03
387.511	-5.46
387.72	88.75
387.93	58.03
388.14	-21.84
388.35	-1.37
388.56	64.17
388.769	10.92
388.979	-17.75
389.189	-3.41
389.399	43.69
389.609	53.93
389.818	12.97
390.028	49.83
390.238	39.59
390.447	-17.75
390.657	121.51
390.867	-25.94
391.076	51.88
391.286	33.45
391.496	-30.04
391.705	10.92
391.915	4.78
392.125	25.26
392.334	101.03
392.544	121.51
392.753	45.74
392.963	2.73
393.172	-19.8
393.382	-30.04
393.591	10.92
393.801	39.59
394.01	103.08
394.22	82.6
394.429	92.84
394.639	47.79
394.848	31.4
395.058	-60.76
395.267	23.21
395.477	27.31
395.686	25.26
395.895	27.31
396.105	33.45
396.314	84.65
396.524	55.98
396.733	35.5
396.942	12.97
397.152	109.23
397.361	113.32
397.57	-13.65
397.78	90.79
397.989	47.79
398.198	105.13
398.407	39.59
398.617	94.89
398.826	33.45
399.035	-34.13
399.244	12.97
399.453	43.69
399.663	31.4
399.872	53.93
400.081	47.79
400.29	117.42
400.499	35.5
400.708	19.11
400.917	86.7
401.127	51.88
401.336	51.88
401.545	29.35
401.754	150.18
401.963	55.98
402.172	76.46
402.381	60.07
402.59	47.79
402.799	49.83
403.008	45.74
403.217	92.84
403.426	105.13
403.635	10.92
403.844	137.9
404.053	199.34
404.262	70.31
404.471	170.66
404.68	109.23
404.888	123.56
405.097	66.22
405.306	107.18
405.515	137.9
405.724	111.27
405.933	158.38
406.142	115.37
406.35	172.71
406.559	141.99
406.768	148.14
406.977	88.75
407.185	152.23
407.394	185
407.603	105.13
407.812	125.61
408.02	170.66
408.229	213.67
408.438	137.9
408.646	137.9
408.855	156.33
409.064	203.43
409.272	146.09
409.481	146.09
409.69	170.66
409.898	174.76
410.107	205.48
410.315	285.35
410.524	203.43
410.733	248.49
410.941	205.48
411.15	311.97
411.358	273.06
411.567	268.97
411.775	246.44
411.984	340.65
412.192	297.64
412.401	264.87
412.609	328.36
412.818	340.65
413.026	379.56
413.234	342.69
413.443	303.78
413.651	354.98
413.86	434.85
414.068	311.97
414.276	434.85
414.485	475.81
414.693	490.15
414.901	473.76
415.11	434.85
415.318	506.53
415.526	457.38
415.734	604.83
415.943	520.87
416.151	563.87
416.359	586.4
416.567	559.78
416.776	641.7
416.984	641.7
417.192	692.9
417.4	670.37
417.608	631.46
417.817	813.73
418.025	682.66
418.233	834.21
418.441	805.53
418.649	811.68
418.857	905.88
419.065	899.74
419.273	887.45
419.481	996
419.689	989.85
419.897	1084.06
420.105	1145.5
420.313	1016.48
420.521	1165.98
420.729	1084.06
420.937	1180.31
421.145	1254.04
421.353	1274.52
421.561	1411.73
421.769	1399.45
421.977	1360.53
422.185	1434.26
422.393	1389.21
422.601	1616.53
422.809	1622.67
423.017	1589.91
423.224	1761.94
423.432	1747.6
423.64	1876.62
423.848	1772.18
424.056	1825.42
424.263	2056.84
424.471	2089.61
424.679	2007.69
424.887	2177.67
425.094	2292.36
425.302	2269.83
425.51	2345.61
425.718	2542.21
425.925	2437.77
426.133	2529.92
426.341	2652.8
426.548	2787.97
426.756	2785.92
426.964	2804.35
427.171	3027.58
427.379	3062.4
427.586	3062.4
427.794	3220.09
428.001	3277.43
428.209	3570.29
428.417	3297.91
428.624	3633.78
428.832	3762.8
429.039	3738.23
429.247	3637.88
429.454	4080.24
429.662	4235.88
429.869	3867.25
430.076	4186.73
430.284	4231.79
430.491	4272.75
430.699	4766.31
430.906	4487.78
431.114	4680.29
431.321	4973.15
431.528	4921.95
431.736	5149.28
431.943	5386.84
432.15	5202.52
432.358	5360.22
432.565	5546.58
432.772	5620.31
432.979	5929.55
433.187	6177.36
433.394	6046.29
433.601	6339.15
433.808	6451.78
434.016	6349.39
434.223	6787.65
434.43	7094.85
434.637	6890.05
434.844	7330.36
435.052	7526.97
435.259	7506.49
435.466	7457.34
435.673	7395.9
435.88	8024.62
436.087	8254
436.294	8432.17
436.501	8104.49
436.708	8364.59
436.915	8659.49
437.122	9060.9
437.329	8974.88
437.537	9540.12
437.743	9531.93
437.95	9347.61
438.157	9998.87
438.364	10215.95
438.571	10134.03
438.778	10295.82
438.985	11266.56
439.192	10773
439.399	11125.25
439.606	10840.58
439.813	11583.99
440.02	12136.95
440.227	11997.68
440.433	11782.65
440.64	12155.38
440.847	12087.79
441.054	12417.52
441.261	13126.11
441.467	12993
441.674	13611.48
441.881	13885.91
442.088	13564.38
442.294	13806.04
442.501	14037.46
442.708	14449.1
442.914	14756.3
443.121	15419.84
443.328	15077.83
443.534	16146.87
443.741	15727.03
443.948	15352.26
444.154	16544.17
444.361	16449.97
444.568	16763.31
444.774	16490.93
444.981	17002.92
445.187	17306.02
445.394	18018.71
445.6	17971.61
445.807	19556.74
446.013	18809.23
446.22	19038.6
446.426	19681.66
446.633	19667.33
446.839	20670.83
447.046	19634.56
447.252	21043.56
447.459	20865.39
447.665	20695.41
447.871	21774.69
448.078	22587.73
448.284	21504.35
448.491	21887.32
448.697	22915.4
448.903	23105.87
449.11	23462.21
449.316	23142.73
449.522	23521.6
449.728	23963.97
449.935	24121.66
450.141	24039.74
450.347	24652.08
450.553	23863.61
450.76	24451.38
450.966	24781.1
451.172	24748.34
451.378	25319.72
451.584	24805.68
451.791	25477.41
451.997	25057.58
452.203	25712.93
452.409	25700.64
452.615	25534.76
452.821	24746.29
453.027	24379.7
453.233	25633.06
453.44	24715.57
453.646	24590.64
453.852	24734
454.058	25243.95
454.264	24299.83
454.47	25004.33
454.676	24398.13
454.882	25094.44
455.088	22972.75
455.294	23163.21
455.5	23454.02
455.705	23603.52
455.911	22751.57
456.117	22405.46
456.323	22192.47
456.529	21080.42
456.735	21889.37
456.941	21264.74
457.147	20830.57
457.352	19851.64
457.558	20132.22
457.764	19937.66
457.97	19364.23
458.176	19396.99
458.381	19071.37
458.587	18219.41
458.793	18147.73
458.999	17242.53
459.204	18602.38
459.41	18174.36
459.616	16875.95
459.821	16824.75
460.027	16587.18
460.233	16306.61
460.438	15677.88
460.644	15677.88
460.85	15401.41
461.055	14858.7
461.261	14991.81
461.466	13730.27
461.672	13277.66
461.878	14324.18
462.083	13414.88
462.289	13089.25
462.494	12956.13
462.7	12274.16
462.905	11938.29
463.111	12546.54
463.316	12526.06
463.522	12354.03
463.727	12358.13
463.932	12368.37
464.138	12167.66
464.343	12165.62
464.549	12302.83
464.754	12188.14
464.959	12128.75
465.165	12188.14
465.37	11612.67
465.575	11475.45
465.781	11725.3
465.986	11928.05
466.191	11526.65
466.397	11244.03
466.602	10750.47
466.807	11188.74
467.012	10955.27
467.218	11131.39
467.423	11182.59
467.628	10998.27
467.833	11467.26
468.038	11115.01
468.244	10729.99
468.449	11235.84
468.654	10809.86
468.859	10600.97
469.064	10566.15
469.269	10230.29
469.474	10322.45
469.679	10555.91
469.885	10310.16
470.09	10445.32
470.295	10174.99
470.5	9947.67
470.705	10043.92
470.91	9749.01
471.115	9992.72
471.32	9820.69
471.525	9855.51
471.73	9724.44
471.935	9558.55
472.139	9296.41
472.344	9484.83
472.549	9073.18
472.754	9251.36
472.959	9116.19
473.164	8876.58
473.369	8815.14
473.574	8878.63
473.778	8864.29
473.983	8751.65
474.188	8854.05
474.393	8299.05
474.598	8319.53
474.802	8374.83
475.007	8268.33
475.212	8331.82
475.417	8108.59
475.621	7938.61
475.826	8036.91
476.031	7834.16
476.235	7699
476.44	7920.18
476.645	7645.75
476.849	7692.85
477.054	7717.43
477.259	7430.71
477.463	7418.43
477.668	7242.3
477.872	7424.57
478.077	7459.38
478.282	7043.65
478.486	7109.18
478.691	7035.46
478.895	6959.68
479.1	7019.07
479.304	6920.77
479.509	6851.14
479.713	6847.04
479.918	6795.84
480.122	6711.88
480.326	6863.43
480.531	6732.36
480.735	6502.98
480.94	6832.71
481.144	6744.64
481.348	6400.59
481.553	6492.74
481.757	6455.88
481.961	6601.29
482.166	6664.77
482.37	6646.34
482.574	6500.94
482.778	6562.37
482.983	6683.2
483.187	6584.9
483.391	6576.71
483.595	6640.2
483.8	6408.78
484.004	6558.28
484.208	6500.94
484.412	6701.64
484.616	6550.09
484.821	6607.43
485.025	6480.46
485.229	6605.38
485.433	6328.91
485.637	6517.32
485.841	6453.83
486.045	6586.95
486.249	6650.44
486.453	6369.87
486.657	6537.8
486.861	6500.94
487.065	6312.52
487.269	6482.5
487.473	6394.44
487.677	6468.17
487.881	6670.92
488.085	6470.22
488.289	6468.17
488.493	6373.96
488.697	6529.61
488.901	6572.61
489.105	6423.11
489.309	6609.48
489.512	6519.37
489.716	6709.83
489.92	6652.49
490.124	6554.18
490.328	6793.8
490.531	6527.56
490.735	6707.78
490.939	6789.7
491.143	6744.64
491.346	6580.81
491.55	6877.76
491.754	6656.58
491.958	6857.28
492.161	6775.36
492.365	6953.54
492.569	6801.99
492.772	6824.51
492.976	6900.29
493.18	7086.65
493.383	7100.99
493.587	7041.6
493.79	7088.7
493.994	7092.8
494.197	6992.45
494.401	7359.03
494.605	7295.55
494.808	7379.51
495.012	7537.21
495.215	7567.93
495.419	7627.32
495.622	7572.02
495.825	7615.03
496.029	7608.89
496.232	7838.26
496.436	7754.29
496.639	8217.13
496.843	7764.53
497.046	8135.21
497.249	8258.09
497.453	8217.13
497.656	8346.16
497.859	8337.96
498.063	8198.7
498.266	8624.68
498.469	8428.07
498.673	8688.17
498.876	8903.2
499.079	8989.22
499.282	8952.35
499.485	9210.4
499.689	9202.21
499.892	9175.58
500.095	9267.74
500.298	9482.78
500.501	9400.86
500.705	9847.32
500.908	9714.2
501.111	9847.32
501.314	10029.59
501.517	10058.26
501.72	10277.39
501.923	10177.04
502.126	10529.29
502.329	10406.41
502.532	10631.69
502.735	10766.85
502.938	11033.09
503.141	11002.37
503.344	11301.37
503.547	11213.31
503.75	11356.67
503.953	11690.49
504.156	11737.59
504.359	11715.06
504.562	11696.63
504.765	12227.06
504.968	12356.08
505.17	12405.23
505.373	12599.79
505.576	12642.79
505.779	12610.03
505.982	12800.49
506.185	13167.07
506.387	13181.41
506.59	13418.97
506.793	13482.46
506.996	13449.69
507.198	13785.56
507.401	13617.63
507.604	14221.78
507.807	14471.63
508.009	14578.12
508.212	14479.82
508.415	14846.41
508.617	15004.1
508.82	15126.98
509.022	15071.68
509.225	15679.93
509.428	15419.84
509.63	15645.12
509.833	15770.04
510.035	16132.53
510.238	15995.32
510.44	16345.52
510.643	16607.66
510.845	16798.12
511.048	16824.75
511.25	16947.62
511.453	17191.33
511.655	17922.46
511.858	17531.3
512.06	17750.43
512.262	18102.68
512.465	18098.58
512.667	18178.45
512.87	18284.95
513.072	18680.21
513.274	19001.74
513.477	19106.18
513.679	19067.27
513.881	19505.54
514.084	19448.19
514.286	19732.86
514.488	20099.45
514.69	20529.52
514.893	20451.7
515.095	20638.06
515.297	20820.33
515.499	21014.89
515.701	21332.33
515.904	21447.01
516.106	21700.96
516.308	21961.05
516.51	22341.97
516.712	22159.7
516.914	22382.93
517.116	22966.6
517.318	22790.48
517.52	22982.99
517.722	23216.46
517.925	23814.46
518.127	23882.05
518.329	23996.73
518.531	24090.94
518.733	24623.41
518.935	24738.1
519.136	24799.54
519.338	24844.59
519.54	25209.13
519.742	25588
519.944	25557.28
520.146	25870.62
520.348	26229.02
520.55	26317.08
520.752	26642.71
520.954	26833.17
521.155	26716.43
521.357	27218.19
521.559	27388.17
521.761	27961.6
521.963	27898.11
522.164	27894.02
522.366	27820.29
522.568	28236.03
522.77	28731.64
522.971	29186.29
523.173	28608.76
523.375	29006.06
523.576	29079.79
523.778	29096.17
523.98	29481.19
524.181	29898.98
524.383	29499.62
524.584	30255.32
524.786	29982.95
524.988	30265.56
525.189	30357.72
525.391	30728.41
525.592	31064.27
525.794	31181.01
525.995	31269.07
526.197	31205.58
526.398	31193.29
526.6	31598.79
526.801	31940.8
527.003	31844.55
527.204	31989.95
527.406	32245.95
527.607	31838.4
527.808	32282.81
528.01	31805.64
528.211	31822.02
528.412	32960.69
528.614	32956.6
528.815	32503.99
529.016	32903.35
529.218	32700.6
529.419	33106.1
529.62	33030.32
529.822	32915.64
530.023	33288.37
530.224	33261.74
530.425	33323.18
530.626	32968.88
530.828	33007.79
531.029	33933.48
531.23	33099.95
531.431	33329.33
531.632	33781.93
531.833	34050.21
532.035	33802.41
532.236	33581.23
532.437	33833.13
532.638	33917.09
532.839	34035.88
533.04	34056.35
533.241	34056.35
533.442	34601.11
533.643	33732.78
533.844	33796.26
534.045	34246.82
534.246	33476.78
534.447	34287.78
534.648	33667.24
534.849	34031.78
535.05	34089.12
535.251	34300.06
535.451	34013.35
535.652	34445.47
535.853	34128.03
536.054	34379.93
536.255	34222.24
536.456	33609.9
536.657	34568.35
536.857	33913
537.058	33790.12
537.259	34388.13
537.46	34599.07
537.66	34050.21
537.861	34193.57
538.062	34121.89
538.263	34615.45
538.463	33904.81
538.664	34242.72
538.865	34414.75
539.065	34457.76
539.266	34146.47
539.466	34437.28
539.667	33931.43
539.868	34693.27
540.068	34334.88
540.269	34216.1
540.469	34932.89
540.67	33833.13
540.87	34175.14
541.071	34220.19
541.271	34523.29
541.472	34119.84
541.672	34238.62
541.873	34183.33
542.073	33831.08
542.274	34525.34
542.474	34115.75
542.675	34224.29
542.875	34252.96
543.075	34287.78
543.276	33603.75
543.476	34238.62
543.676	34191.52
543.877	34318.49
544.077	34187.42
544.277	33921.19
544.478	34365.6
544.678	34201.76
544.878	34042.02
545.078	34062.5
545.279	33892.52
545.479	33968.29
545.679	34404.51
545.879	34513.05
546.079	34250.91
546.28	34068.64
546.48	34162.85
546.68	34574.49
546.88	34203.81
547.08	34320.54
547.28	34312.35
547.48	33857.7
547.68	34246.82
547.88	33986.72
548.081	34255.01
548.281	34291.87
548.481	34148.51
548.681	34451.61
548.881	33718.44
549.081	33988.77
549.28	33906.85
549.48	34334.88
549.68	34240.67
549.88	34183.33
550.08	33745.06
550.28	34341.02
550.48	34306.21
550.68	34427.04
550.88	34359.45
551.08	33689.77
551.279	34519.2
551.479	33933.48
551.679	33978.53
551.879	34273.44
552.079	34158.75
552.278	33999.01
552.478	34076.83
552.678	34250.91
552.878	34437.28
553.077	34132.13
553.277	33908.9
553.477	34470.04
553.676	33988.77
553.876	33773.74
554.076	34031.78
554.275	33738.92
554.475	33806.5
554.674	33984.68
554.874	34037.92
555.074	33763.5
555.273	33861.8
555.473	34054.31
555.672	33472.68
555.872	33847.46
556.071	33917.09
556.271	33835.17
556.47	33413.29
556.67	33245.36
556.869	33577.13
557.068	33931.43
557.268	33085.62
557.467	33331.37
557.667	33370.29
557.866	33081.52
558.065	33702.06
558.265	33124.53
558.464	32958.64
558.663	33431.72
558.863	32970.93
559.062	32929.97
559.261	33188.02
559.461	33235.12
559.66	32411.84
559.859	33136.82
560.058	33036.47
560.258	32770.23
560.457	32643.26
560.656	32626.87
560.855	32803
561.054	32852.15
561.253	32643.26
561.453	32864.44
561.652	32723.13
561.851	32909.49
562.05	32248
562.249	32413.88
562.448	32673.98
562.647	32227.52
562.846	32227.52
563.045	32577.72
563.244	32131.26
563.443	32555.19
563.642	31832.26
563.841	31723.72
564.04	31824.07
564.239	32340.16
564.438	31881.41
564.637	32063.68
564.836	31967.43
565.035	31551.69
565.234	31764.68
565.432	31488.2
565.631	31549.64
565.83	31633.61
566.029	31357.13
566.228	31500.49
566.427	31496.39
566.625	31600.84
566.824	31011.03
567.023	31348.94
567.222	30968.02
567.42	31758.53
567.619	31310.03
567.818	30914.77
568.016	31105.23
568.215	31111.38
568.414	30869.72
568.612	31219.92
568.811	30632.15
569.01	31115.47
569.208	30556.38
569.407	30660.82
569.605	30349.53
569.804	30621.91
570.002	30413.02
570.201	30318.81
570.4	30021.86
570.598	30114.02
570.797	29815.01
570.995	30177.5
571.193	29679.85
571.392	30195.93
571.59	29823.2
571.789	29896.93
571.987	29860.07
572.186	29413.61
572.384	29409.51
572.582	29518.06
572.781	29595.88
572.979	28795.12
573.177	29339.88
573.376	29268.2
573.574	29130.99
573.772	29212.91
573.971	28834.03
574.169	28743.92
574.367	28569.85
574.565	29247.72
574.763	28612.85
574.962	28827.89
575.16	28352.76
575.358	28778.74
575.556	28211.45
575.754	28530.94
575.952	28264.7
576.151	28217.6
576.349	28107.01
576.547	27990.27
576.745	28279.04
576.943	27855.11
577.141	27654.4
577.339	28043.52
577.537	27914.5
577.735	27918.59
577.933	27527.43
578.131	27822.34
578.329	27287.82
578.527	27439.37
578.725	27318.54
578.923	27314.44
579.121	27025.68
579.319	26962.19
579.516	26847.5
579.714	27031.82
579.912	26827.03
580.11	26999.05
580.308	26784.02
580.506	26728.72
580.704	26296.6
580.901	26556.69
581.099	26616.08
581.297	26149.15
581.495	26233.11
581.692	26433.82
581.89	25899.3
582.088	26304.79
582.285	25989.41
582.483	26151.2
582.681	25946.4
582.878	25755.94
583.076	25440.55
583.274	26085.66
583.471	25583.91
583.669	25612.58
583.866	25327.91
584.064	25395.5
584.262	25245.99
584.459	25665.83
584.657	24996.14
584.854	25342.25
585.052	24977.71
585.249	25002.29
585.447	25039.15
585.644	24596.79
585.841	25055.53
586.039	25063.72
586.236	24437.05
586.434	24275.26
586.631	24308.02
586.828	24570.16
587.026	24324.41
587.223	24439.09
587.42	24142.14
587.618	24189.24
587.815	24207.67
588.012	24160.57
588.21	23941.44
588.407	24232.25
588.604	23916.86
588.801	23793.98
588.999	23779.65
589.196	23775.55
589.393	23675.2
589.59	23560.52
589.787	23480.64
589.984	23359.81
590.182	23359.81
590.379	23320.9
590.576	23101.77
590.773	23120.2
590.97	23085.39
591.167	23191.88
591.364	22821.2
591.561	22776.14
591.758	22731.09
591.955	22624.59
592.152	22817.1
592.349	22497.62
592.546	22511.96
592.743	22788.43
592.94	22198.62
593.137	22430.04
593.334	22313.3
593.531	22032.73
593.727	22352.21
593.924	22030.68
594.121	22061.4
594.318	22206.81
594.515	21635.42
594.712	21694.82
594.908	21934.43
595.105	21903.71
595.302	21322.09
595.499	21829.98
595.696	21694.82
595.892	21258.6
596.089	21350.76
596.286	21592.42
596.482	21635.42
596.679	21401.96
596.876	21465.44
597.072	20986.22
597.269	21072.23
597.466	20916.59
597.662	21025.13
597.859	20971.88
598.055	21182.82
598.252	20599.15
598.448	20904.3
598.645	20726.13
598.841	20554.1
599.038	20693.36
599.234	20386.16
599.431	20394.36
599.627	20341.11
599.824	20732.27
600.02	20093.3
600.217	20089.21
600.413	20164.98
600.609	20232.57
600.806	19913.08
601.002	20044.15
601.198	19882.36
601.395	19765.63
601.591	20085.11
601.787	19726.72
601.984	19700.09
602.18	19906.94
602.376	19743.1
602.572	19390.85
602.769	19345.8
602.965	19546.5
603.161	19235.21
603.357	19184.01
603.553	19124.61
603.75	19374.47
603.946	19005.83
604.142	19095.94
604.338	19069.32
604.534	18805.13
604.73	18620.81
604.926	18850.19
605.122	18932.11
605.318	18622.86
605.514	18391.44
605.71	18694.54
605.906	18614.67
606.102	18442.64
606.298	18362.77
606.494	18317.72
606.69	18340.24
606.886	18424.21
607.082	18182.55
607.278	18323.86
607.474	18004.38
607.67	18303.38
607.866	17707.42
608.062	17934.74
608.257	17705.37
608.453	17938.84
608.649	17756.57
608.845	17600.93
609.041	17695.13
609.236	17570.21
609.432	17752.48
609.628	17645.98
609.824	17672.6
610.019	17549.73
610.215	17617.31
610.411	17482.14
610.606	17328.55
610.802	17344.93
610.998	17430.94
611.193	17269.16
611.389	17283.49
611.584	17058.21
611.78	17084.84
611.976	17037.73
612.171	17152.42
612.367	17070.5
612.562	17185.19
612.758	16695.72
612.953	16619.95
613.149	16701.87
613.344	16552.37
613.539	16939.43
613.735	16705.96
613.93	16857.51
614.126	16529.84
614.321	16837.03
614.517	16734.64
614.712	16605.61
614.907	16204.21
615.103	16673.2
615.298	16556.46
615.493	16581.04
615.688	16179.64
615.884	16468.4
616.079	16112.05
616.274	16333.23
616.47	16353.71
616.665	16155.06
616.86	16085.43
617.055	16093.62
617.25	16001.46
617.445	16130.48
617.641	15978.93
617.836	15872.44
618.031	15796.67
618.226	15940.02
618.421	15849.91
618.616	15749.56
618.811	15647.16
619.006	15905.21
619.201	15294.91
619.396	15636.92
619.591	15212.99
619.786	15364.54
619.981	14954.95
620.176	15135.17
620.371	15098.31
620.566	15002.05
620.761	14997.96
620.956	15282.63
621.151	14698.95
621.346	14797.26
621.541	14741.96
621.735	14680.52
621.93	14416.33
622.125	14653.9
622.32	14191.06
622.515	14520.78
622.709	14461.39
622.904	14141.91
623.099	14303.7
623.294	14404.05
623.488	14076.37
623.683	14139.86
623.878	13849.05
624.072	13871.57
624.267	13701.59
624.462	13783.51
624.656	13418.97
624.851	13396.45
625.046	13400.54
625.24	13552.09
625.435	13119.97
625.629	13224.42
625.824	13320.67
626.018	13066.72
626.213	12597.74
626.407	12923.37
626.602	12816.87
626.796	13152.74
626.991	12634.6
627.185	12325.36
627.38	12376.56
627.574	12472.81
627.768	12456.43
627.963	12562.92
628.157	12384.75
628.352	12562.92
628.546	12163.57
628.74	12227.06
628.935	11983.35
629.129	11790.84
629.323	11870.71
629.517	11952.63
629.712	11753.98
629.906	11969.01
630.1	11653.62
630.294	11747.83
630.489	11561.47
630.683	11604.47
630.877	11352.57
631.071	11526.65
631.265	11530.75
631.459	11295.23
631.653	11444.73
631.848	11190.78
632.042	10926.6
632.236	11190.78
632.43	11123.2
632.624	10951.17
632.818	10992.13
633.012	10676.74
633.206	10748.42
633.4	10709.51
633.594	10406.41
633.788	10725.9
633.982	10617.35
634.176	10459.66
634.369	10492.43
634.563	10455.56
634.757	10293.77
634.951	10353.16
635.145	10224.14
635.339	10152.46
635.533	10056.21
635.726	10287.63
635.92	10166.8
636.114	10076.69
636.308	10005.01
636.501	9968.15
636.695	9769.49
636.889	10119.7
637.083	9663
637.276	9742.87
637.47	9832.98
637.664	9685.53
637.857	9560.6
638.051	9427.48
638.244	9482.78
638.438	9617.94
638.632	9234.97
638.825	9323.04
639.019	9316.89
639.212	9146.91
639.406	9165.34
639.599	9101.86
639.793	9042.46
639.986	8800.8
640.18	8935.97
640.373	8837.67
640.567	8731.17
640.76	8796.71
640.954	8698.41
641.147	8610.34
641.34	8694.31
641.534	8669.73
641.727	8501.8
641.92	8598.06
642.114	8624.68
642.307	8542.76
642.5	8462.89
642.694	8401.45
642.887	8192.56
643.08	8383.02
643.273	8262.19
643.467	8366.64
643.66	7914.03
643.853	8051.25
644.046	7938.61
644.239	8071.73
644.432	7928.37
644.626	7936.56
644.819	7809.59
645.012	7916.08
645.205	7791.16
645.398	7891.51
645.591	7844.4
645.784	7553.59
645.977	7469.62
646.17	7549.5
646.363	7526.97
646.556	7531.06
646.749	7356.99
646.942	7592.5
647.135	7340.6
647.328	7270.97
647.521	7248.44
647.714	7107.13
647.907	7213.63
648.099	6812.23
648.292	7250.49
648.485	7068.22
648.678	6933.06
648.871	7055.93
649.064	6844.99
649.256	6801.99
649.449	6982.21
649.642	6826.56
649.835	6695.49
650.027	6828.61
650.22	6597.19
650.413	6625.86
650.605	6535.75
650.798	6576.71
650.991	6357.58
651.183	6601.29
651.376	6373.96
651.568	6548.04
651.761	6384.2
651.954	6437.45
652.146	6365.77
652.339	6244.94
652.531	6259.28
652.724	6054.48
652.916	6107.73
653.109	6283.85
653.301	6226.51
653.494	6036.05
653.686	5868.11
653.879	5995.09
654.071	5933.65
654.263	6029.9
654.456	5954.13
654.648	5847.63
654.84	5794.39
655.033	5714.52
655.225	5669.46
655.417	5677.65
655.61	5640.79
655.802	5622.36
655.994	5614.16
656.186	5679.7
656.379	5675.6
656.571	5466.71
656.763	5458.52
656.955	5481.05
657.148	5438.04
657.34	5362.26
657.532	5298.78
657.724	5431.9
657.916	5329.5
658.108	5339.74
658.3	5292.63
658.492	5323.35
658.684	5169.76
658.876	5110.36
659.068	5282.39
659.26	5104.22
659.452	5100.12
659.644	5083.74
659.836	5145.18
660.028	5040.73
660.22	5032.54
660.412	4858.46
660.604	4876.9
660.796	4751.97
660.988	4915.81
661.18	4946.53
661.372	4620.9
661.563	4799.07
661.755	4719.2
661.947	4743.78
662.139	4567.65
662.331	4678.24
662.522	4579.94
662.714	4659.81
662.906	4618.85
663.097	4543.08
663.289	4528.74
663.481	4393.58
663.673	4592.23
663.864	4442.73
664.056	4461.16
664.247	4321.9
664.439	4336.23
664.631	4389.48
664.822	4338.28
665.014	4336.23
665.205	4348.52
665.397	4098.67
665.588	4215.4
665.78	4147.82
665.971	4137.58
666.163	4192.87
666.354	4078.19
666.546	4057.71
666.737	4092.52
666.929	4063.85
667.12	4090.48
667.311	4014.7
667.503	4018.8
667.694	4094.57
667.885	3990.13
668.077	3936.88
668.268	3973.74
668.459	3904.11
668.651	3832.43
668.842	3725.94
669.033	3869.3
669.224	3807.86
669.416	3830.38
669.607	3875.44
669.798	3695.22
669.989	3795.57
670.18	3603.06
670.371	3805.81
670.563	3824.24
670.754	3637.88
670.945	3584.63
671.136	3719.79
671.327	3527.28
671.518	3629.68
671.709	3588.72
671.9	3625.59
672.091	3537.52
672.282	3576.44
672.473	3383.93
672.664	3566.2
672.855	3498.61
673.046	3502.71
673.237	3582.58
673.428	3420.79
673.619	3295.86
673.809	3377.78
674	3318.39
674.191	3418.74
674.382	3439.22
674.573	3330.68
674.764	3328.63
674.954	3394.17
675.145	3150.46
675.336	3351.16
675.527	3308.15
675.717	3172.99
675.908	3308.15
676.099	3314.3
676.289	3297.91
676.48	3164.79
676.671	3230.33
676.861	3154.55
677.052	3197.56
677.243	3066.49
677.433	3238.52
677.624	3236.47
677.814	2943.61
678.005	3142.27
678.195	3078.78
678.386	3183.23
678.576	3003
678.767	2908.8
678.957	3086.97
679.148	3027.58
679.338	3043.96
679.529	3007.1
679.719	3078.78
679.909	2882.17
680.1	3074.68
680.29	3027.58
680.481	2976.38
680.671	3013.24
680.861	3068.54
681.052	2929.28
681.242	2966.14
681.432	2966.14
681.622	2845.31
681.813	2949.76
682.003	2810.5
682.193	2851.46
682.383	2818.69
682.573	2996.86
682.764	2910.85
682.954	2779.78
683.144	2837.12
683.334	2757.25
683.524	2810.5
683.714	2804.35
683.904	2820.74
684.094	2843.26
684.284	2808.45
684.474	2654.85
684.664	2667.14
684.854	2747.01
685.044	2730.62
685.234	2775.68
685.424	2726.53
685.614	2677.38
685.804	2718.34
685.994	2642.56
686.184	2771.58
686.374	2712.19
686.564	2476.68
686.753	2562.69
686.943	2656.9
687.133	2693.76
687.323	2626.18
687.513	2572.93
687.702	2540.16
687.892	2554.5
688.082	2431.62
688.272	2597.51
688.461	2515.59
688.651	2511.49
688.841	2472.58
689.03	2546.31
689.22	2556.55
689.41	2456.2
689.599	2579.08
689.789	2507.4
689.979	2407.05
690.168	2534.02
690.358	2400.9
690.547	2548.36
690.737	2556.55
690.926	2421.38
691.116	2468.49
691.305	2370.18
691.495	2443.91
691.684	2398.85
691.874	2517.64
692.063	2380.42
692.252	2519.68
692.442	2464.39
692.631	2611.84
692.82	2513.54
693.01	2376.33
693.199	2439.81
693.388	2296.46
693.578	2400.9
693.767	2357.89
693.956	2306.7
694.146	2398.85
694.335	2261.64
694.524	2314.89
694.713	2400.9
694.902	2542.21
695.092	2318.98
695.281	2333.32
695.47	2316.94
695.659	2394.76
695.848	2333.32
696.037	2351.75
696.226	2333.32
696.415	2261.64
696.604	2284.17
696.793	2302.6
696.982	2392.71
697.171	2245.26
697.36	2378.37
697.549	2472.58
697.738	2316.94
697.927	2398.85
698.116	2196.11
698.305	2251.4
698.494	2177.67
698.683	2280.07
698.872	2312.84
699.061	2306.7
699.25	2263.69
699.438	2302.6
699.627	2235.02
699.816	2351.75
700.005	2390.66
700.193	2243.21
700.382	2331.27
700.571	2245.26
700.76	2300.55
700.948	2220.68
701.137	2239.11
701.326	2284.17
701.514	2128.52
701.703	2306.7
701.892	2194.06
702.08	2239.11
702.269	2105.99
702.457	2208.39
702.646	2157.19
702.834	2171.53
703.023	2099.85
703.212	2159.24
703.4	2130.57
703.589	2228.87
703.777	2214.54
703.965	2153.1
704.154	2132.62
704.342	2091.66
704.531	2226.82
704.719	2124.43
704.907	2079.37
705.096	2118.28
705.284	2048.65
705.472	2058.89
705.661	2138.76
705.849	2015.88
706.037	2116.23
706.226	2048.65
706.414	2017.93
706.602	2112.14
706.79	2069.13
706.979	2030.22
707.167	1993.36
707.355	2050.7
707.543	1970.83
707.731	2044.56
707.919	2085.51
708.107	2058.89
708.296	1868.43
708.484	2091.66
708.672	2073.23
708.86	2081.42
709.048	1964.68
709.236	1942.16
709.424	2028.17
709.612	1929.87
709.8	1886.86
709.988	1989.26
710.176	1981.07
710.364	1829.52
710.551	1835.66
710.739	1839.76
710.927	1905.29
711.115	1950.35
711.303	1876.62
711.491	1927.82
711.679	1991.31
711.866	1768.08
712.054	1890.96
712.242	1850
712.43	1837.71
712.617	1833.61
712.805	1884.81
712.993	1811.09
713.181	1735.31
713.368	1876.62
713.556	1792.66
713.744	1776.27
713.931	1839.76
714.119	1747.6
714.306	1747.6
714.494	1741.46
714.682	1792.66
714.869	1751.7
715.057	1700.5
715.244	1741.46
715.432	1854.09
715.619	1770.13
715.807	1708.69
715.994	1784.46
716.182	1661.59
716.369	1735.31
716.556	1720.98
716.744	1665.68
716.931	1688.21
717.119	1671.83
717.306	1671.83
717.493	1688.21
717.681	1710.74
717.868	1632.91
718.055	1655.44
718.242	1626.77
718.43	1587.86
718.617	1579.67
718.804	1604.24
718.991	1575.57
719.179	1559.19
719.366	1596.05
719.553	1673.87
719.74	1548.95
719.927	1571.47
720.114	1544.85
720.301	1557.14
720.488	1540.76
720.676	1596.05
720.863	1563.28
721.05	1473.17
721.237	1485.46
721.424	1548.95
721.611	1507.99
721.798	1467.03
721.985	1432.21
722.172	1454.74
722.358	1497.75
722.545	1440.4
722.732	1415.83
722.919	1448.6
723.106	1366.68
723.293	1434.26
723.48	1452.69
723.667	1507.99
723.853	1448.6
724.04	1559.19
724.227	1325.72
724.414	1407.64
724.6	1374.87
724.787	1428.12
724.974	1364.63
725.161	1419.93
725.347	1331.86
725.534	1350.29
725.72	1383.06
725.907	1301.14
726.094	1370.77
726.28	1325.72
726.467	1393.3
726.653	1315.48
726.84	1276.57
727.027	1385.11
727.213	1335.96
727.4	1356.44
727.586	1268.38
727.773	1233.56
727.959	1385.11
728.145	1213.08
728.332	1258.14
728.518	1327.77
728.705	1350.29
728.891	1342.1
729.077	1325.72
729.264	1301.14
729.45	1208.98
729.636	1260.18
729.823	1223.32
730.009	1192.6
730.195	1141.4
730.382	1276.57
730.568	1303.19
730.754	1186.46
730.94	1313.43
731.126	1251.99
731.313	1301.14
731.499	1254.04
731.685	1262.23
731.871	1239.7
732.057	1333.91
732.243	1200.79
732.429	1286.81
732.615	1200.79
732.801	1213.08
732.987	1229.46
733.173	1245.85
733.359	1084.06
733.545	1215.13
733.731	1139.35
733.917	1120.92
734.103	1241.75
734.289	1174.17
734.475	1211.03
734.661	1188.5
734.847	1168.02
735.033	1192.6
735.219	1096.35
735.404	1133.21
735.59	1139.35
735.776	1114.78
735.962	1161.88
736.148	1110.68
736.333	1131.16
736.519	1120.92
736.705	1026.72
736.89	955.04
737.076	1157.79
737.262	1028.76
737.447	1188.5
737.633	1120.92
737.819	1075.87
738.004	1100.44
738.19	1000.09
738.375	993.95
738.561	1108.63
738.747	1041.05
738.932	1057.43
739.118	1010.33
739.303	1006.24
739.489	1041.05
739.674	989.85
739.859	1032.86
740.045	950.94
740.23	1045.15
740.416	930.46
740.601	952.99
740.786	981.66
740.972	977.56
741.157	993.95
741.342	1002.14
741.528	914.08
741.713	981.66
741.898	885.41
742.084	893.6
742.269	989.85
742.454	975.52
742.639	922.27
742.824	981.66
743.01	1030.81
743.195	909.98
743.38	916.12
743.565	950.94
743.75	889.5
743.935	926.36
744.12	971.42
744.305	957.08
744.49	944.8
744.675	922.27
744.86	905.88
745.045	871.07
745.23	909.98
745.415	907.93
745.6	875.17
745.785	905.88
745.97	844.45
746.155	793.25
746.34	821.92
746.525	860.83
746.71	774.81
746.895	828.06
747.079	830.11
747.264	838.3
747.449	907.93
747.634	805.53
747.819	803.49
748.003	869.02
748.188	821.92
748.373	834.21
748.557	823.97
748.742	752.29
748.927	746.14
749.111	778.91
749.296	735.9
749.481	881.31
749.665	727.71
749.85	791.2
750.034	758.43
750.219	844.45
750.404	774.81
750.588	670.37
750.773	756.38
750.957	754.34
751.141	723.62
751.326	686.75
751.51	723.62
751.695	649.89
751.879	709.28
752.064	639.65
752.248	764.58
752.432	662.18
752.617	543.39
752.801	705.18
752.985	692.9
753.17	686.75
753.354	662.18
753.538	688.8
753.722	629.41
753.907	678.56
754.091	598.69
754.275	703.14
754.459	688.8
754.643	651.94
754.828	621.22
755.012	680.61
755.196	631.46
755.38	674.46
755.564	617.12
755.748	637.6
755.932	627.36
756.116	594.59
756.3	621.22
756.484	584.35
756.668	572.07
756.852	535.2
757.036	653.98
757.22	588.45
757.404	582.31
757.588	500.39
757.772	543.39
757.956	539.3
758.14	518.82
758.323	516.77
758.507	565.92
758.691	529.06
758.875	584.35
759.059	557.73
759.242	565.92
759.426	557.73
759.61	504.48
759.794	522.91
759.977	518.82
760.161	563.87
760.345	555.68
760.528	516.77
760.712	545.44
760.895	514.72
761.079	457.38
761.263	473.76
761.446	453.28
761.63	416.42
761.813	463.52
761.997	531.11
762.18	377.51
762.364	520.87
762.547	393.89
762.731	547.49
762.914	416.42
763.098	451.24
763.281	496.29
763.464	481.96
763.648	455.33
763.831	467.62
764.015	459.43
764.198	465.57
764.381	426.66
764.564	498.34
764.748	445.09
764.931	492.2
765.114	373.41
765.297	533.15
765.481	438.95
765.664	459.43
765.847	537.25
766.03	481.96
766.213	402.08
766.397	428.71
766.58	471.72
766.763	479.91
766.946	418.47
767.129	473.76
767.312	395.94
767.495	479.91
767.678	481.96
767.861	367.27
768.044	463.52
768.227	402.08
768.41	400.04
768.593	428.71
768.776	506.53
768.959	479.91
769.142	465.57
769.324	514.72
769.507	369.32
769.69	418.47
769.873	428.71
770.056	424.61
770.239	375.46
770.421	373.41
770.604	371.37
770.787	430.76
770.97	391.84
771.152	467.62
771.335	357.03
771.518	445.09
771.7	434.85
771.883	420.52
772.066	385.7
772.248	400.04
772.431	443.04
772.613	457.38
772.796	326.31
772.978	363.17
773.161	391.84
773.343	387.75
773.526	393.89
773.708	348.84
773.891	406.18
774.073	416.42
774.256	395.94
774.438	367.27
774.621	383.65
774.803	342.69
774.985	303.78
775.168	375.46
775.35	393.89
775.532	434.85
775.715	434.85
775.897	350.89
776.079	303.78
776.261	381.6
776.444	404.13
776.626	346.79
776.808	316.07
776.99	361.13
777.173	301.73
777.355	289.45
777.537	344.74
777.719	334.5
777.901	262.82
778.083	367.27
778.265	293.54
778.447	391.84
778.629	348.84
778.811	279.21
778.993	252.58
779.175	299.69
779.357	309.93
779.539	295.59
779.721	275.11
779.903	369.32
780.085	301.73
780.267	291.49
780.449	309.93
780.631	254.63
780.812	283.3
780.994	211.62
781.176	285.35
781.358	281.25
781.54	260.77
781.721	244.39
781.903	264.87
782.085	250.53
782.267	291.49
782.448	293.54
782.63	250.53
782.812	271.01
782.993	258.73
783.175	285.35
783.357	203.43
783.538	268.97
783.72	213.67
783.901	281.25
784.083	260.77
784.264	176.81
784.446	203.43
784.627	209.58
784.809	185
784.99	228.01
785.172	326.31
785.353	248.49
785.535	230.06
785.716	199.34
785.897	193.19
786.079	203.43
786.26	225.96
786.441	271.01
786.623	189.1
786.804	221.86
786.985	248.49
787.167	238.25
787.348	201.38
787.529	199.34
787.71	271.01
787.891	234.15
788.073	180.9
788.254	191.14
788.435	240.3
788.616	195.24
788.797	213.67
788.978	154.28
789.159	180.9
789.34	107.18
789.522	236.2
789.703	178.86
789.884	146.09
790.065	211.62
790.246	187.05
790.427	230.06
790.607	189.1
790.788	105.13
790.969	178.86
791.15	162.47
791.331	131.75
791.512	135.85
791.693	187.05
791.874	176.81
792.054	195.24
792.235	213.67
792.416	197.29
792.597	170.66
792.778	115.37
792.958	105.13
793.139	133.8
793.32	160.42
793.5	166.57
793.681	234.15
793.862	154.28
794.042	133.8
794.223	78.51
794.404	172.71
794.584	121.51
794.765	101.03
794.945	98.99
795.126	195.24
795.306	174.76
795.487	162.47
795.667	111.27
795.848	101.03
796.028	80.55
796.209	156.33
796.389	121.51
796.57	135.85
796.75	172.71
796.93	209.58
797.111	107.18
797.291	170.66
797.471	139.94
797.652	162.47
797.832	133.8
798.012	133.8
798.192	105.13
798.373	211.62
798.553	113.32
798.733	80.55
798.913	123.56
799.093	109.23
799.274	146.09
799.454	156.33
799.634	123.56
799.814	139.94
799.994	129.7
800.174	158.38
800.354	156.33
800.534	160.42
800.714	144.04
800.894	84.65
801.074	96.94
801.254	98.99
801.434	144.04
801.614	107.18
801.794	41.64
801.974	334.5
802.154	82.6
802.334	178.86
802.514	129.7
802.693	107.18
802.873	27.31
803.053	113.32
803.233	113.32
803.413	96.94
803.592	127.66
803.772	76.46
803.952	141.99
804.131	94.89
804.311	58.03
804.491	137.9
804.67	129.7
804.85	131.75
805.03	51.88
805.209	80.55
805.389	98.99
805.568	90.79
805.748	105.13
805.928	76.46
806.107	119.46
806.287	115.37
806.466	105.13
806.646	70.31
806.825	88.75
807.004	47.79
807.184	76.46
807.363	49.83
807.543	66.22
807.722	123.56
807.901	43.69
808.081	86.7
808.26	41.64
808.439	94.89
808.619	31.4
808.798	105.13
808.977	39.59
809.156	146.09
809.336	86.7
809.515	146.09
809.694	51.88
809.873	39.59
810.052	82.6
810.231	170.66
810.411	19.11
810.59	129.7
810.769	55.98
810.948	29.35
811.127	72.36
811.306	62.12
811.485	152.23
811.664	37.55
811.843	125.61
812.022	176.81
812.201	49.83
812.38	72.36
812.559	-42.32
812.737	88.75
812.916	72.36
813.095	66.22
813.274	72.36
813.453	98.99
813.632	58.03
813.811	96.94
813.989	60.07
814.168	74.41
814.347	39.59
814.526	45.74
814.704	129.7
814.883	119.46
815.062	15.02
815.24	76.46
815.419	133.8
815.598	29.35
815.776	31.4
815.955	43.69
816.133	66.22
816.312	96.94
816.49	60.07
816.669	6.83
816.847	41.64
817.026	43.69
817.204	94.89
817.383	84.65
817.561	23.21
817.74	125.61
817.918	39.59
818.097	66.22
818.275	41.64
818.453	96.94
818.632	96.94
818.81	17.07
818.988	-36.18
819.167	58.03
819.345	-5.46
819.523	35.5
819.701	19.11
819.879	82.6
820.058	41.64
820.236	98.99
820.414	31.4
820.592	-15.7
820.77	98.99
820.948	31.4
821.127	41.64
821.305	25.26
821.483	33.45
821.661	66.22
821.839	39.59
822.017	55.98
822.195	129.7
822.373	72.36
822.551	58.03
822.729	41.64
822.907	31.4
823.085	33.45
823.262	90.79
823.44	37.55
823.618	39.59
823.796	15.02
823.974	55.98
824.152	-9.56
824.329	84.65
824.507	31.4
824.685	51.88
824.863	19.11
825.04	78.51
825.218	23.21
825.396	51.88
825.574	90.79
825.751	29.35
825.929	4.78
826.107	15.02
826.284	119.46
826.462	35.5
826.639	35.5
826.817	64.17
826.994	64.17
827.172	53.93
827.349	84.65
827.527	98.99
827.704	41.64
827.882	96.94
828.059	6.83
828.237	117.42
828.414	41.64
828.591	15.02
828.769	39.59
828.946	10.92
829.124	94.89
829.301	72.36
829.478	33.45
829.655	19.11
829.833	74.41
830.01	17.07
830.187	43.69
830.364	37.55
830.542	33.45
830.719	39.59
830.896	53.93
831.073	64.17
831.25	72.36
831.427	-34.13
831.604	29.35
831.782	-34.13
831.959	-32.08
832.136	19.11
832.313	23.21
832.49	4.78
832.667	96.94
832.844	43.69
833.021	45.74
833.198	10.92
833.374	25.26
833.551	51.88
833.728	82.6
833.905	64.17
834.082	49.83
834.259	19.11
834.436	0.68
834.612	6.83
834.789	-17.75
834.966	51.88
835.143	27.31
835.319	0.68
835.496	-40.28
835.673	76.46
835.85	35.5
836.026	-34.13
836.203	15.02
836.38	96.94
836.556	60.07
836.733	31.4
836.909	2.73
837.086	-21.84
837.262	10.92
837.439	-5.46
837.616	-50.52
837.792	49.83
837.968	66.22
838.145	-42.32
838.321	10.92
838.498	-11.61
838.674	21.16
838.851	17.07
839.027	49.83
839.203	-11.61
839.38	68.27
839.556	70.31
839.732	66.22
839.909	-15.7
840.085	-9.56
840.261	55.98
840.437	-17.75
840.614	-5.46
840.79	47.79
840.966	17.07
841.142	72.36
841.318	23.21
841.494	41.64
841.671	-7.51
841.847	27.31
842.023	-36.18
842.199	41.64
842.375	55.98
842.551	-34.13
842.727	0.68
842.903	-3.41
843.079	-5.46
843.255	47.79
843.431	12.97
843.607	6.83
843.783	51.88
843.959	66.22
844.134	-7.51
844.31	51.88
844.486	90.79
844.662	43.69
844.838	35.5
845.013	4.78
845.189	80.55
845.365	-23.89
845.541	45.74
845.716	-9.56
845.892	76.46
846.068	31.4
846.244	-5.46
846.419	68.27
846.595	-62.8
846.77	-9.56
846.946	80.55
847.122	35.5
847.297	-50.52
847.473	92.84
847.648	15.02
847.824	4.78
847.999	21.16
848.175	0.68
848.35	31.4
848.526	12.97
848.701	27.31
848.876	-13.65
849.052	47.79
849.227	19.11
849.403	-7.51
849.578	47.79
849.753	12.97
849.929	-7.51
850.104	-44.37
850.279	-21.84
850.454	-23.89
850.63	72.36
850.805	-44.37
850.98	45.74
851.155	37.55
851.33	6.83
851.505	90.79
851.681	-11.61
851.856	-3.41
852.031	-58.71
852.206	-11.61
852.381	0.68
852.556	-52.56
852.731	15.02
852.906	-23.89
853.081	-25.94
853.256	25.26
853.431	-40.28
853.606	-21.84
853.781	17.07
853.956	64.17
854.131	35.5
854.305	-13.65
854.48	-32.08
854.655	39.59
854.83	43.69
855.005	-1.37
855.18	-7.51
855.354	-48.47
855.529	6.83
855.704	-3.41
855.879	-27.99
856.053	-89.43
856.228	17.07
856.403	-7.51
856.577	17.07
856.752	-62.8
856.926	-19.8
857.101	0.68
857.276	-56.66
857.45	-40.28
857.625	62.12
857.799	4.78
857.974	-40.28
858.148	23.21
858.323	17.07
858.497	33.45
858.672	23.21
858.846	-15.7
859.02	25.26
859.195	8.87
859.369	25.26
859.543	-27.99
859.718	-36.18
859.892	-5.46
860.066	-25.94
860.241	-11.61
860.415	10.92
860.589	49.83
860.763	-1.37
860.938	-21.84
861.112	-32.08
861.286	-62.8
861.46	37.55
861.634	19.11
861.808	58.03
861.982	15.02
862.157	23.21
862.331	10.92
862.505	8.87
862.679	-60.76
862.853	37.55
863.027	-25.94
863.201	10.92
863.375	-1.37
863.549	25.26
863.722	-27.99
863.896	60.07
864.07	-15.7
864.244	31.4
864.418	0.68
864.592	10.92
864.766	-58.71
864.939	-9.56
865.113	12.97
865.287	17.07
865.461	-9.56
865.634	8.87
865.808	27.31
865.982	-15.7
866.156	-42.32
866.329	-87.38
866.503	0.68
866.676	21.16
866.85	21.16
867.024	43.69
867.197	43.69
867.371	21.16
867.544	-42.32
867.718	-7.51
867.891	6.83
868.065	19.11
868.238	23.21
868.412	55.98
868.585	-7.51
868.759	12.97
868.932	-21.84
869.105	84.65
869.279	6.83
869.452	-38.23
869.625	-1.37
869.799	-19.8
869.972	-17.75
870.145	-21.84
870.319	-50.52
870.492	-1.37
870.665	68.27
870.838	-21.84
871.011	-1.37
871.185	0.68
871.358	-30.04
871.531	-25.94
871.704	31.4
871.877	-9.56
872.05	21.16
872.223	0.68
872.396	-56.66
872.569	-32.08
872.742	-77.14
872.915	17.07
873.088	35.5
873.261	-44.37
873.434	-1.37
873.607	66.22
873.78	8.87
873.953	-58.71
874.126	-25.94
874.299	4.78
874.471	19.11
874.644	62.12
874.817	-5.46
874.99	37.55
875.163	0.68
875.335	10.92
875.508	-5.46
875.681	-56.66
875.853	-11.61
876.026	4.78
876.199	-21.84
876.371	55.98
876.544	-15.7
876.717	4.78
876.889	-46.42
877.062	-13.65
877.234	-17.75
877.407	6.83
877.579	15.02
877.752	-11.61
877.924	-30.04
878.097	72.36
878.269	-30.04
878.442	35.5
878.614	-23.89
878.786	-73.04
878.959	-13.65
879.131	33.45
879.303	-13.65
879.476	23.21
879.648	-34.13
879.82	35.5
879.993	6.83
880.165	-60.76
880.337	-19.8
880.509	2.73
880.681	-21.84
880.854	-42.32
881.026	-77.14
881.198	27.31
881.37	47.79
881.542	-44.37
881.714	-34.13
881.886	33.45
882.058	41.64
882.23	10.92
882.402	-3.41
882.574	0.68
882.746	-5.46
882.918	-1.37
883.09	74.41
883.262	49.83
883.434	-25.94
883.606	-75.09
883.778	-60.76
883.95	-32.08
884.122	-15.7
884.293	-32.08
884.465	37.55
884.637	19.11
884.809	33.45
884.98	-13.65
885.152	-7.51
885.324	-23.89
885.496	-5.46
885.667	-13.65
885.839	35.5
886.011	10.92
886.182	2.73
886.354	33.45
886.525	-54.61
886.697	10.92
886.869	-9.56
887.04	8.87
887.212	6.83
887.383	27.31
887.555	-1.37
887.726	-1.37
887.897	0.68
888.069	-58.71
888.24	4.78
888.412	12.97
888.583	-40.28
888.754	15.02
888.926	-56.66
889.097	-42.32
889.268	-21.84
889.44	-68.95
889.611	19.11
889.782	-64.85
889.953	-5.46
890.125	-15.7
890.296	-7.51
890.467	23.21
890.638	-9.56
890.809	33.45
890.98	-99.67
891.151	37.55
891.323	-73.04
891.494	-25.94
891.665	31.4
891.836	-46.42
892.007	-25.94
892.178	8.87
892.349	-15.7
892.52	-3.41
892.691	-5.46
892.862	-27.99
893.032	-77.14
893.203	-25.94
893.374	-25.94
893.545	-25.94
893.716	-36.18
893.887	-15.7
894.057	27.31
894.228	2.73
894.399	-11.61
894.57	-15.7
894.74	-66.9
894.911	-23.89
895.082	-91.48
895.253	-58.71
895.423	12.97
895.594	10.92
895.764	-3.41
895.935	-58.71
896.106	-1.37
896.276	0.68
896.447	-38.23
896.617	-19.8
896.788	-32.08
896.958	-9.56
897.129	-15.7
897.299	8.87
897.47	8.87
897.64	47.79
897.81	-48.47
897.981	-13.65
898.151	-66.9
898.322	-54.61
898.492	0.68
898.662	29.35
898.832	-1.37
899.003	35.5
899.173	45.74
899.343	-42.32
899.513	-38.23
