Data from USB4F104151__20__13-52-32-923.txt Node

Date: Thu Mar 13 13:52:32 EDT 2025
User: louis
Spectrometer: USB4F10415
Trigger mode: 4
Integration Time (sec): 1.000000E-2
Scans to average: 1
Electric dark correction enabled: true
Nonlinearity correction enabled: false
Boxcar width: 0
XAxis mode: Wavelengths
Number of Pixels in Spectrum: 3648
>>>>>Begin Spectral Data<<<<<
178.204	12.12
178.424	12.12
178.644	12.12
178.864	-57.51
179.084	-49.32
179.304	-22.7
179.524	-26.79
179.744	-22.7
179.964	18.26
180.184	32.6
180.404	-0.17
180.624	-22.7
180.844	-4.27
181.064	14.17
181.283	12.12
181.503	-0.17
181.723	22.36
181.943	14.17
182.163	61.27
182.383	-10.41
182.602	-88.23
182.822	5.97
183.042	-18.6
183.262	34.64
183.482	53.08
183.701	-12.46
183.921	44.88
184.141	5.97
184.361	-12.46
184.58	-4.27
184.8	-0.17
185.02	20.31
185.239	44.88
185.459	32.6
185.679	18.26
185.898	108.37
186.118	48.98
186.338	14.17
186.557	44.88
186.777	48.98
186.997	14.17
187.216	18.26
187.436	18.26
187.655	48.98
187.875	-14.51
188.095	77.65
188.314	-20.65
188.534	-6.31
188.753	-4.27
188.973	14.17
189.192	38.74
189.412	16.21
189.631	22.36
189.851	-26.79
190.07	48.98
190.29	-12.46
190.509	40.79
190.729	16.21
190.948	22.36
191.168	89.94
191.387	3.93
191.607	-4.27
191.826	-0.17
192.045	-67.75
192.265	18.26
192.484	-26.79
192.704	-24.75
192.923	40.79
193.142	59.22
193.362	5.97
193.581	91.99
193.8	48.98
194.02	22.36
194.239	-39.08
194.458	-12.46
194.678	18.26
194.897	46.93
195.116	-28.84
195.335	79.7
195.555	-2.22
195.774	-26.79
195.993	-73.9
196.212	53.08
196.432	34.64
196.651	-12.46
196.87	73.56
197.089	36.69
197.308	12.12
197.528	44.88
197.747	63.32
197.966	38.74
198.185	34.64
198.404	-16.55
198.623	8.02
198.842	26.45
199.062	-57.51
199.281	8.02
199.5	51.03
199.719	-8.36
199.938	1.88
200.157	22.36
200.376	16.21
200.595	91.99
200.814	75.6
201.033	-28.84
201.252	22.36
201.471	44.88
201.69	-20.65
201.909	-24.75
202.128	63.32
202.347	46.93
202.566	22.36
202.785	28.5
203.004	16.21
203.223	-16.55
203.442	-10.41
203.661	-8.36
203.879	18.26
204.098	34.64
204.317	-63.66
204.536	59.22
204.755	-6.31
204.974	22.36
205.193	-10.41
205.411	18.26
205.63	-4.27
205.849	28.5
206.068	8.02
206.287	36.69
206.505	-41.13
206.724	-2.22
206.943	20.31
207.162	79.7
207.381	40.79
207.599	-18.6
207.818	36.69
208.037	46.93
208.255	-8.36
208.474	73.56
208.693	1.88
208.911	69.46
209.13	30.55
209.349	34.64
209.567	5.97
209.786	-6.31
210.005	8.02
210.223	48.98
210.442	-71.85
210.661	55.12
210.879	-6.31
211.098	-10.41
211.316	46.93
211.535	-10.41
211.753	5.97
211.972	51.03
212.191	40.79
212.409	-24.75
212.628	28.5
212.846	26.45
213.065	53.08
213.283	26.45
213.502	22.36
213.72	51.03
213.938	14.17
214.157	-18.6
214.375	89.94
214.594	-4.27
214.812	38.74
215.031	-28.84
215.249	-28.84
215.467	-30.89
215.686	83.8
215.904	61.27
216.122	57.17
216.341	8.02
216.559	10.07
216.778	-26.79
216.996	40.79
217.214	73.56
217.432	28.5
217.651	-28.84
217.869	63.32
218.087	42.84
218.306	40.79
218.524	-30.89
218.742	-16.55
218.96	57.17
219.179	26.45
219.397	-12.46
219.615	61.27
219.833	-16.55
220.051	-26.79
220.27	34.64
220.488	-30.89
220.706	61.27
220.924	53.08
221.142	30.55
221.36	48.98
221.578	34.64
221.796	32.6
222.015	-26.79
222.233	-6.31
222.451	42.84
222.669	18.26
222.887	36.69
223.105	-41.13
223.323	36.69
223.541	22.36
223.759	-26.79
223.977	-10.41
224.195	46.93
224.413	38.74
224.631	26.45
224.849	20.31
225.067	51.03
225.285	20.31
225.503	-53.42
225.721	-34.99
225.939	18.26
226.157	22.36
226.375	73.56
226.592	5.97
226.81	-73.9
227.028	18.26
227.246	36.69
227.464	14.17
227.682	-26.79
227.9	139.09
228.117	46.93
228.335	3.93
228.553	3.93
228.771	48.98
228.989	71.51
229.206	48.98
229.424	14.17
229.642	-6.31
229.86	32.6
230.077	1.88
230.295	94.04
230.513	1.88
230.731	40.79
230.948	-6.31
231.166	48.98
231.384	1.88
231.601	59.22
231.819	18.26
232.037	63.32
232.254	75.6
232.472	55.12
232.689	-28.84
232.907	5.97
233.125	-24.75
233.342	120.66
233.56	-24.75
233.777	28.5
233.995	28.5
234.213	89.94
234.43	28.5
234.648	-18.6
234.865	-12.46
235.083	24.4
235.3	67.41
235.518	128.85
235.735	55.12
235.953	3.93
236.17	34.64
236.388	73.56
236.605	8.02
236.822	28.5
237.04	73.56
237.257	-30.89
237.475	32.6
237.692	1.88
237.909	42.84
238.127	-16.55
238.344	28.5
238.562	57.17
238.779	18.26
238.996	8.02
239.214	34.64
239.431	59.22
239.648	57.17
239.865	55.12
240.083	48.98
240.3	-53.42
240.517	38.74
240.735	34.64
240.952	34.64
241.169	20.31
241.386	-14.51
241.603	34.64
241.821	102.23
242.038	36.69
242.255	77.65
242.472	61.27
242.689	48.98
242.907	83.8
243.124	44.88
243.341	28.5
243.558	-18.6
243.775	22.36
243.992	42.84
244.209	63.32
244.426	91.99
244.643	28.5
244.86	24.4
245.078	3.93
245.295	-2.22
245.512	67.41
245.729	-10.41
245.946	46.93
246.163	22.36
246.38	28.5
246.597	-0.17
246.814	36.69
247.031	30.55
247.248	77.65
247.464	22.36
247.681	34.64
247.898	40.79
248.115	65.36
248.332	14.17
248.549	57.17
248.766	-10.41
248.983	14.17
249.2	-63.66
249.417	55.12
249.633	85.84
249.85	81.75
250.067	1.88
250.284	30.55
250.501	34.64
250.717	89.94
250.934	-24.75
251.151	14.17
251.368	55.12
251.585	79.7
251.801	51.03
252.018	-6.31
252.235	32.6
252.451	30.55
252.668	-32.94
252.885	12.12
253.102	87.89
253.318	51.03
253.535	-6.31
253.752	-20.65
253.968	44.88
254.185	20.31
254.401	63.32
254.618	18.26
254.835	59.22
255.051	79.7
255.268	44.88
255.484	10.07
255.701	20.31
255.917	28.5
256.134	77.65
256.351	26.45
256.567	14.17
256.784	30.55
257	-0.17
257.217	55.12
257.433	16.21
257.65	14.17
257.866	38.74
258.082	-16.55
258.299	16.21
258.515	55.12
258.732	12.12
258.948	-8.36
259.165	8.02
259.381	34.64
259.597	83.8
259.814	12.12
260.03	26.45
260.246	14.17
260.463	34.64
260.679	3.93
260.895	46.93
261.112	28.5
261.328	1.88
261.544	5.97
261.761	67.41
261.977	24.4
262.193	10.07
262.409	26.45
262.626	40.79
262.842	65.36
263.058	44.88
263.274	30.55
263.49	83.8
263.707	44.88
263.923	36.69
264.139	40.79
264.355	38.74
264.571	-14.51
264.787	5.97
265.004	91.99
265.22	-14.51
265.436	63.32
265.652	-6.31
265.868	51.03
266.084	67.41
266.3	34.64
266.516	-30.89
266.732	-8.36
266.948	53.08
267.164	34.64
267.38	22.36
267.596	-18.6
267.812	-8.36
268.028	-26.79
268.244	28.5
268.46	81.75
268.676	3.93
268.892	32.6
269.108	-20.65
269.324	-6.31
269.54	-14.51
269.756	-20.65
269.972	26.45
270.188	28.5
270.403	-8.36
270.619	-10.41
270.835	30.55
271.051	36.69
271.267	28.5
271.483	-12.46
271.698	46.93
271.914	32.6
272.13	-16.55
272.346	40.79
272.562	-6.31
272.777	122.71
272.993	38.74
273.209	-26.79
273.425	-2.22
273.64	-71.85
273.856	36.69
274.072	-12.46
274.287	57.17
274.503	44.88
274.719	59.22
274.934	22.36
275.15	48.98
275.366	-6.31
275.581	91.99
275.797	38.74
276.012	98.13
276.228	61.27
276.444	46.93
276.659	28.5
276.875	-10.41
277.09	46.93
277.306	-6.31
277.521	65.36
277.737	22.36
277.952	14.17
278.168	104.28
278.383	112.47
278.599	-34.99
278.814	65.36
279.03	48.98
279.245	63.32
279.461	57.17
279.676	53.08
279.892	10.07
280.107	67.41
280.322	85.84
280.538	24.4
280.753	79.7
280.969	42.84
281.184	8.02
281.399	120.66
281.615	-34.99
281.83	36.69
282.045	65.36
282.26	106.32
282.476	26.45
282.691	85.84
282.906	51.03
283.122	63.32
283.337	-2.22
283.552	44.88
283.767	61.27
283.983	1.88
284.198	77.65
284.413	67.41
284.628	-4.27
284.843	16.21
285.058	-26.79
285.274	-10.41
285.489	51.03
285.704	32.6
285.919	3.93
286.134	10.07
286.349	51.03
286.564	-0.17
286.779	40.79
286.995	-6.31
287.21	-26.79
287.425	-32.94
287.64	10.07
287.855	24.4
288.07	40.79
288.285	51.03
288.5	63.32
288.715	77.65
288.93	18.26
289.145	12.12
289.36	5.97
289.575	69.46
289.79	55.12
290.004	8.02
290.219	36.69
290.434	46.93
290.649	-8.36
290.864	10.07
291.079	-28.84
291.294	126.8
291.509	26.45
291.724	55.12
291.938	24.4
292.153	42.84
292.368	73.56
292.583	42.84
292.798	5.97
293.012	8.02
293.227	-0.17
293.442	-61.61
293.657	44.88
293.871	65.36
294.086	-20.65
294.301	61.27
294.516	20.31
294.73	61.27
294.945	3.93
295.16	71.51
295.374	32.6
295.589	94.04
295.804	-8.36
296.018	73.56
296.233	51.03
296.447	51.03
296.662	-0.17
296.877	73.56
297.091	55.12
297.306	75.6
297.52	26.45
297.735	1.88
297.949	28.5
298.164	53.08
298.378	-12.46
298.593	-8.36
298.807	73.56
299.022	59.22
299.236	48.98
299.451	18.26
299.665	12.12
299.88	-16.55
300.094	18.26
300.309	40.79
300.523	22.36
300.737	30.55
300.952	12.12
301.166	16.21
301.381	30.55
301.595	24.4
301.809	155.47
302.024	55.12
302.238	71.51
302.452	65.36
302.667	34.64
302.881	102.23
303.095	63.32
303.309	20.31
303.524	55.12
303.738	14.17
303.952	87.89
304.166	57.17
304.381	-22.7
304.595	63.32
304.809	20.31
305.023	91.99
305.237	69.46
305.452	30.55
305.666	87.89
305.88	106.32
306.094	-94.38
306.308	20.31
306.522	75.6
306.736	71.51
306.95	-0.17
307.164	51.03
307.379	18.26
307.593	34.64
307.807	-14.51
308.021	3.93
308.235	12.12
308.449	77.65
308.663	8.02
308.877	-16.55
309.091	48.98
309.305	77.65
309.519	22.36
309.733	26.45
309.947	26.45
310.161	46.93
310.374	51.03
310.588	57.17
310.802	-32.94
311.016	24.4
311.23	1.88
311.444	48.98
311.658	75.6
311.872	91.99
312.085	77.65
312.299	71.51
312.513	40.79
312.727	48.98
312.941	67.41
313.154	94.04
313.368	94.04
313.582	5.97
313.796	51.03
314.009	32.6
314.223	67.41
314.437	87.89
314.651	91.99
314.864	22.36
315.078	22.36
315.292	-14.51
315.505	69.46
315.719	51.03
315.933	194.39
316.146	77.65
316.36	-2.22
316.573	3.93
316.787	51.03
317.001	116.56
317.214	-0.17
317.428	28.5
317.641	12.12
317.855	126.8
318.068	-6.31
318.282	59.22
318.495	24.4
318.709	5.97
318.922	-0.17
319.136	51.03
319.349	8.02
319.563	132.95
319.776	59.22
319.99	57.17
320.203	46.93
320.417	22.36
320.63	44.88
320.843	-0.17
321.057	1.88
321.27	-34.99
321.483	32.6
321.697	96.08
321.91	20.31
322.124	44.88
322.337	44.88
322.55	75.6
322.763	44.88
322.977	5.97
323.19	67.41
323.403	85.84
323.617	22.36
323.83	24.4
324.043	59.22
324.256	53.08
324.469	-14.51
324.683	20.31
324.896	-6.31
325.109	24.4
325.322	-43.18
325.535	48.98
325.748	30.55
325.962	32.6
326.175	-6.31
326.388	38.74
326.601	48.98
326.814	34.64
327.027	53.08
327.24	1.88
327.453	-18.6
327.666	55.12
327.879	57.17
328.092	20.31
328.305	20.31
328.518	96.08
328.731	42.84
328.944	51.03
329.157	14.17
329.37	48.98
329.583	-49.32
329.796	38.74
330.009	48.98
330.222	46.93
330.435	57.17
330.648	69.46
330.861	71.51
331.073	38.74
331.286	-28.84
331.499	71.51
331.712	48.98
331.925	-8.36
332.138	77.65
332.35	26.45
332.563	24.4
332.776	-12.46
332.989	18.26
333.202	87.89
333.414	48.98
333.627	87.89
333.84	59.22
334.053	18.26
334.265	34.64
334.478	55.12
334.691	-22.7
334.903	48.98
335.116	46.93
335.329	55.12
335.541	-63.66
335.754	14.17
335.966	48.98
336.179	26.45
336.392	46.93
336.604	-12.46
336.817	106.32
337.029	132.95
337.242	32.6
337.454	38.74
337.667	-12.46
337.88	51.03
338.092	12.12
338.305	53.08
338.517	14.17
338.729	30.55
338.942	51.03
339.154	-0.17
339.367	-45.23
339.579	36.69
339.792	18.26
340.004	22.36
340.217	12.12
340.429	-8.36
340.641	96.08
340.854	85.84
341.066	137.04
341.278	83.8
341.491	48.98
341.703	38.74
341.915	63.32
342.128	51.03
342.34	57.17
342.552	98.13
342.764	71.51
342.977	46.93
343.189	16.21
343.401	94.04
343.613	61.27
343.826	26.45
344.038	83.8
344.25	-22.7
344.462	34.64
344.674	42.84
344.886	-16.55
345.099	12.12
345.311	73.56
345.523	30.55
345.735	42.84
345.947	77.65
346.159	28.5
346.371	22.36
346.583	77.65
346.795	22.36
347.007	44.88
347.219	48.98
347.431	5.97
347.643	55.12
347.855	34.64
348.067	69.46
348.279	44.88
348.491	-20.65
348.703	-6.31
348.915	28.5
349.127	51.03
349.339	91.99
349.551	24.4
349.763	53.08
349.975	67.41
350.187	48.98
350.399	48.98
350.61	69.46
350.822	40.79
351.034	94.04
351.246	28.5
351.458	-24.75
351.669	26.45
351.881	67.41
352.093	26.45
352.305	36.69
352.517	67.41
352.728	69.46
352.94	61.27
353.152	22.36
353.363	10.07
353.575	87.89
353.787	46.93
353.999	57.17
354.21	-16.55
354.422	-0.17
354.633	46.93
354.845	51.03
355.057	-8.36
355.268	34.64
355.48	18.26
355.692	46.93
355.903	-49.32
356.115	38.74
356.326	22.36
356.538	18.26
356.749	-30.89
356.961	104.28
357.172	20.31
357.384	28.5
357.595	85.84
357.807	5.97
358.018	79.7
358.23	38.74
358.441	18.26
358.653	63.32
358.864	59.22
359.075	34.64
359.287	48.98
359.498	26.45
359.709	-28.84
359.921	77.65
360.132	-26.79
360.344	40.79
360.555	1.88
360.766	65.36
360.977	53.08
361.189	69.46
361.4	61.27
361.611	124.76
361.823	67.41
362.034	40.79
362.245	81.75
362.456	-0.17
362.667	8.02
362.879	69.46
363.09	81.75
363.301	42.84
363.512	57.17
363.723	53.08
363.935	98.13
364.146	22.36
364.357	44.88
364.568	71.51
364.779	63.32
364.99	57.17
365.201	22.36
365.412	44.88
365.623	75.6
365.834	69.46
366.045	69.46
366.256	18.26
366.467	8.02
366.678	104.28
366.889	36.69
367.1	65.36
367.311	51.03
367.522	42.84
367.733	28.5
367.944	79.7
368.155	38.74
368.366	18.26
368.577	69.46
368.788	-12.46
368.999	40.79
369.209	1.88
369.42	91.99
369.631	69.46
369.842	46.93
370.053	1.88
370.264	3.93
370.474	71.51
370.685	-16.55
370.896	26.45
371.107	65.36
371.317	100.18
371.528	16.21
371.739	22.36
371.95	75.6
372.16	106.32
372.371	32.6
372.582	30.55
372.792	59.22
373.003	55.12
373.214	36.69
373.424	61.27
373.635	32.6
373.846	12.12
374.056	46.93
374.267	100.18
374.477	26.45
374.688	48.98
374.898	16.21
375.109	120.66
375.319	32.6
375.53	77.65
375.74	48.98
375.951	77.65
376.161	28.5
376.372	14.17
376.582	67.41
376.793	53.08
377.003	98.13
377.214	46.93
377.424	65.36
377.635	38.74
377.845	-12.46
378.055	3.93
378.266	100.18
378.476	98.13
378.686	32.6
378.897	30.55
379.107	16.21
379.317	130.9
379.528	69.46
379.738	91.99
379.948	32.6
380.158	61.27
380.369	96.08
380.579	118.61
380.789	57.17
380.999	28.5
381.21	36.69
381.42	48.98
381.63	3.93
381.84	108.37
382.05	-30.89
382.261	46.93
382.471	71.51
382.681	110.42
382.891	94.04
383.101	5.97
383.311	46.93
383.521	53.08
383.731	18.26
383.941	124.76
384.151	-55.47
384.361	32.6
384.571	108.37
384.781	81.75
384.991	24.4
385.201	98.13
385.411	130.9
385.621	73.56
385.831	108.37
386.041	24.4
386.251	30.55
386.461	55.12
386.671	-4.27
386.881	79.7
387.091	42.84
387.301	28.5
387.511	96.08
387.72	102.23
387.93	22.36
388.14	44.88
388.35	12.12
388.56	96.08
388.769	100.18
388.979	94.04
389.189	-10.41
389.399	91.99
389.609	75.6
389.818	71.51
390.028	14.17
390.238	10.07
390.447	81.75
390.657	104.28
390.867	57.17
391.076	44.88
391.286	65.36
391.496	34.64
391.705	85.84
391.915	116.56
392.125	59.22
392.334	67.41
392.544	89.94
392.753	67.41
392.963	132.95
393.172	91.99
393.382	106.32
393.591	40.79
393.801	126.8
394.01	71.51
394.22	40.79
394.429	139.09
394.639	81.75
394.848	38.74
395.058	14.17
395.267	75.6
395.477	61.27
395.686	57.17
395.895	75.6
396.105	130.9
396.314	42.84
396.524	98.13
396.733	51.03
396.942	91.99
397.152	85.84
397.361	110.42
397.57	51.03
397.78	104.28
397.989	118.61
398.198	132.95
398.407	77.65
398.617	42.84
398.826	96.08
399.035	126.8
399.244	98.13
399.453	135
399.663	130.9
399.872	63.32
400.081	102.23
400.29	147.28
400.499	69.46
400.708	186.19
400.917	106.32
401.127	55.12
401.336	91.99
401.545	135
401.754	87.89
401.963	157.52
402.172	81.75
402.381	96.08
402.59	120.66
402.799	135
403.008	155.47
403.217	139.09
403.426	124.76
403.635	163.67
403.844	151.38
404.053	118.61
404.262	91.99
404.471	178
404.68	135
404.888	157.52
405.097	157.52
405.306	171.86
405.515	182.1
405.724	202.58
405.933	178
406.142	139.09
406.35	182.1
406.559	173.91
406.768	198.48
406.977	188.24
407.185	124.76
407.394	192.34
407.603	188.24
407.812	132.95
408.02	208.72
408.229	261.97
408.438	288.59
408.646	268.11
408.855	194.39
409.064	264.02
409.272	261.97
409.481	323.41
409.69	235.35
409.898	339.79
410.107	317.26
410.315	333.65
410.524	304.98
410.733	386.9
410.941	345.94
411.15	356.18
411.358	405.33
411.567	423.76
411.775	440.14
411.984	429.9
412.192	477.01
412.401	425.81
412.609	444.24
412.818	534.35
413.026	524.11
413.234	638.8
413.443	470.86
413.651	573.26
413.86	603.98
414.068	655.18
414.276	593.74
414.485	608.08
414.693	649.04
414.901	708.43
415.11	702.28
415.318	741.19
415.526	700.23
415.734	788.3
415.943	884.55
416.151	853.83
416.359	806.73
416.567	976.71
416.776	984.9
416.984	952.13
417.192	1081.16
417.4	1081.16
417.608	1007.43
417.817	1070.92
418.025	1089.35
418.233	1244.99
418.441	1167.17
418.649	1208.13
418.857	1261.38
419.065	1324.87
419.273	1398.59
419.481	1437.5
419.689	1453.89
419.897	1644.35
420.105	1605.44
420.313	1668.92
420.521	1783.61
420.729	1742.65
420.937	1886.01
421.145	1806.14
421.353	1924.92
421.561	1955.64
421.769	2135.86
421.977	2133.81
422.185	2158.39
422.393	2240.31
422.601	2303.79
422.809	2383.66
423.017	2451.25
423.224	2443.06
423.432	2600.75
423.64	2613.04
423.848	2725.68
424.056	2869.03
424.263	3075.88
424.471	2938.66
424.679	3088.17
424.887	3192.61
425.094	3311.39
425.302	3383.07
425.51	3491.62
425.718	3581.73
425.925	3608.35
426.133	3794.72
426.341	3962.65
426.548	4106.01
426.756	4073.24
426.964	4136.73
427.171	4380.43
427.379	4601.62
427.586	4675.34
427.794	4679.44
428.001	4912.91
428.209	5189.38
428.417	5060.36
428.624	5332.74
428.832	5562.11
429.039	5472
429.247	5576.45
429.454	5994.23
429.662	6285.05
429.869	5844.73
430.076	6366.96
430.284	6129.4
430.491	6487.79
430.699	6751.98
430.906	6821.61
431.114	6815.47
431.321	7214.82
431.528	7290.6
431.736	7718.62
431.943	8187.61
432.15	7829.21
432.358	8140.51
432.565	8314.58
432.772	8224.47
432.979	8853.2
433.187	8939.21
433.394	9033.42
433.601	9686.72
433.808	9842.37
434.016	9576.13
434.223	10026.68
434.43	10522.29
434.637	10415.8
434.844	11212.46
435.052	11501.22
435.259	11181.74
435.466	11445.93
435.673	11388.58
435.88	11808.42
436.087	12492.44
436.294	12592.79
436.501	12177.05
436.708	12672.66
436.915	12949.14
437.122	13565.57
437.329	13217.42
437.537	13641.35
437.743	14247.55
437.95	13932.16
438.157	14628.47
438.364	15107.69
438.571	15244.91
438.778	15396.46
438.985	16737.88
439.192	15879.78
439.399	16629.34
439.606	16053.86
439.813	17364.56
440.02	17968.71
440.227	17880.64
440.433	17700.42
440.64	18384.44
440.847	18085.44
441.054	18540.09
441.261	19672.62
441.467	19514.92
441.674	19973.67
441.881	20921.88
442.088	20633.11
442.294	20477.47
442.501	21059.09
442.708	21798.41
442.914	22490.62
443.121	23168.5
443.328	22488.57
443.534	24131.05
443.741	23500.27
443.948	23332.34
444.154	25138.65
444.361	24810.97
444.568	24966.62
444.774	24729.05
444.981	24942.04
445.187	26105.29
445.394	26811.84
445.6	26795.45
445.807	29390.23
446.013	28069.29
446.22	28745.12
446.426	29709.71
446.633	29916.56
446.839	30985.6
447.046	29396.37
447.252	31112.57
447.459	31118.71
447.665	31014.27
447.871	32253.29
448.078	34141.52
448.284	32144.75
448.491	33060.19
448.697	34037.07
448.903	34831.68
449.11	35009.86
449.316	34553.16
449.522	34884.93
449.728	35925.3
449.935	36498.73
450.141	36232.49
450.347	36887.84
450.553	36207.92
450.76	36801.83
450.966	37481.75
451.172	37236
451.378	38016.27
451.584	37039.39
451.791	38184.21
451.997	38434.06
452.203	38550.79
452.409	38526.22
452.615	37725.46
452.821	36908.32
453.027	36300.08
453.233	38497.55
453.44	36431.15
453.646	37221.66
453.852	37256.48
454.058	37688.6
454.264	36574.5
454.47	37072.16
454.676	36545.83
454.882	37836.05
455.088	34327.88
455.294	35061.05
455.5	35378.49
455.705	35876.15
455.911	34510.15
456.117	33670.48
456.323	32884.06
456.529	31223.16
456.735	32656.74
456.941	31786.35
457.147	31260.02
457.352	30092.68
457.558	30047.63
457.764	30506.37
457.97	29642.13
458.176	28501.41
458.381	28964.25
458.587	27540.91
458.793	27747.76
458.999	26021.32
459.204	27833.77
459.41	26936.76
459.616	25286.1
459.821	25075.16
460.027	25515.47
460.233	24618.46
460.438	23586.29
460.644	24057.32
460.85	22978.04
461.055	22175.23
461.261	22236.67
461.466	20715.03
461.672	20002.34
461.878	21511.69
462.083	20127.27
462.289	19697.19
462.494	19566.12
462.7	18679.35
462.905	18134.59
463.111	18816.57
463.316	18751.03
463.522	18617.91
463.727	18462.27
463.932	18468.41
464.138	18349.63
464.343	18435.64
464.549	17841.73
464.754	18529.85
464.959	18116.16
465.165	18226.75
465.37	17604.17
465.575	17106.51
465.781	17507.91
465.986	17616.46
466.191	17104.46
466.397	16541.27
466.602	16002.66
466.807	16868.95
467.012	16784.98
467.218	16438.87
467.423	16402.01
467.628	16399.96
467.833	17151.57
468.038	16418.39
468.244	15943.27
468.449	16590.42
468.654	16127.58
468.859	16072.29
469.064	15840.87
469.269	14976.62
469.474	15089.26
469.679	15736.42
469.885	15191.66
470.09	15302.25
470.295	15087.22
470.5	15023.73
470.705	15109.74
470.91	14808.69
471.115	14425.72
471.32	14675.57
471.525	14751.35
471.73	14380.67
471.935	14413.43
472.139	13852.29
472.344	13876.87
472.549	13721.22
472.754	13915.78
472.959	13172.36
473.164	13125.26
473.369	12908.18
473.574	13274.76
473.778	13362.83
473.983	13102.73
474.188	13061.77
474.393	12557.97
474.598	12695.19
474.802	12557.97
475.007	12488.34
475.212	12295.83
475.417	11980.45
475.621	11898.53
475.826	11931.3
476.031	11736.74
476.235	11515.56
476.44	11628.2
476.645	11417.26
476.849	11550.37
477.054	11300.52
477.259	11224.75
477.463	11110.06
477.668	10890.93
477.872	10991.28
478.077	10864.3
478.282	10536.63
478.486	10340.02
478.691	10481.33
478.895	10536.63
479.1	10319.54
479.304	10333.88
479.509	10057.4
479.713	10319.54
479.918	9883.33
480.122	9868.99
480.326	10094.27
480.531	9952.96
480.735	10086.08
480.94	9709.25
481.144	10139.32
481.348	9680.58
481.553	9737.92
481.757	9787.07
481.961	9766.59
482.166	9825.98
482.37	9729.73
482.574	9672.39
482.778	9500.36
482.983	9750.21
483.187	9656
483.391	9721.54
483.595	9680.58
483.8	9508.55
484.004	9516.74
484.208	9707.2
484.412	9653.95
484.616	9502.4
484.821	9805.5
485.025	9582.28
485.229	9696.96
485.433	9643.71
485.637	9592.51
485.841	9574.08
486.045	9434.82
486.249	9447.11
486.453	9371.33
486.657	9479.88
486.861	9604.8
487.065	9297.61
487.269	9686.72
487.473	9500.36
487.677	9535.17
487.881	9660.1
488.085	9486.02
488.289	9516.74
488.493	9471.68
488.697	9754.3
488.901	9645.76
489.105	9692.87
489.309	9873.09
489.512	9508.55
489.716	9709.25
489.92	9801.41
490.124	9764.54
490.328	9973.44
490.531	9785.02
490.735	9920.19
490.939	9871.04
491.143	9856.7
491.346	9844.42
491.55	10049.21
491.754	10014.4
491.958	10213.05
492.161	10100.41
492.365	10299.06
492.569	10153.66
492.772	10182.33
492.976	10346.17
493.18	10264.25
493.383	10577.59
493.587	10557.11
493.79	10716.85
493.994	10557.11
494.197	10608.31
494.401	10790.58
494.605	10727.09
494.808	10956.46
495.012	10786.48
495.215	10880.69
495.419	11194.03
495.622	11124.4
495.825	11251.37
496.029	11140.78
496.232	11636.39
496.436	11486.89
496.639	11787.94
496.843	11624.1
497.046	11853.47
497.249	11910.82
497.453	12109.47
497.656	12209.82
497.859	12469.91
498.063	12707.48
498.266	12768.91
498.469	12846.74
498.673	12596.89
498.876	13127.31
499.079	13168.27
499.282	13176.46
499.485	13545.09
499.689	13694.6
499.892	13811.33
500.095	13856.39
500.298	13985.41
500.501	14085.76
500.705	14407.29
500.908	14395
501.111	14546.55
501.314	14673.53
501.517	14911.09
501.72	15267.44
501.923	15044.21
502.126	15574.63
502.329	15711.85
502.532	15799.91
502.735	16254.56
502.938	16414.3
503.141	16514.65
503.344	16748.12
503.547	16721.49
503.75	16934.48
503.953	17387.08
504.156	17704.52
504.359	17552.97
504.562	17602.12
504.765	18294.33
504.968	18552.38
505.17	18501.18
505.373	18509.37
505.576	19068.47
505.779	19252.78
505.982	19254.83
506.185	19598.89
506.387	19861.03
506.59	19906.09
506.793	20233.76
506.996	20022.82
507.198	20915.73
507.401	20868.63
507.604	21011.99
507.807	21585.42
508.009	21708.3
508.212	21732.87
508.415	22076.93
508.617	22468.09
508.82	22873.59
509.022	22740.47
509.225	23313.91
509.428	23533.04
509.63	23596.53
509.833	23428.59
510.035	24384.99
510.238	24298.98
510.44	24798.68
510.643	24954.33
510.845	25261.52
511.048	25124.31
511.25	25560.53
511.453	25855.43
511.655	26848.7
511.858	25970.12
512.06	26691.01
512.262	27102.65
512.465	27262.39
512.667	27377.08
512.87	28202.41
513.072	27981.23
513.274	28718.5
513.477	29193.62
513.679	29173.14
513.881	29457.81
514.084	29875.6
514.286	29965.71
514.488	30233.99
514.69	30948.73
514.893	31331.7
515.095	30999.93
515.297	31657.33
515.499	31542.64
515.701	32189.8
515.904	32619.88
516.106	32554.34
516.308	33267.03
516.51	33797.46
516.712	33418.58
516.914	34446.66
517.116	34809.15
517.318	34960.7
517.52	34968.9
517.722	34968.9
517.925	35478.84
518.127	36226.35
518.329	36439.34
518.531	36590.89
518.733	37416.22
518.935	37393.69
519.136	37547.29
519.338	38296.84
519.54	38163.73
519.742	38956.29
519.944	38808.84
520.146	39488.76
520.348	39881.97
520.55	39935.22
520.752	40148.21
520.954	40711.4
521.155	40719.59
521.357	41161.95
521.559	41805.02
521.761	42243.28
521.963	42458.32
522.164	42607.82
522.366	42575.05
522.568	43271.36
522.77	43355.33
522.971	43906.23
523.173	43504.83
523.375	44174.52
523.576	44268.72
523.778	44520.62
523.98	45112.48
524.181	45237.41
524.383	45096.1
524.584	45935.77
524.786	45978.78
524.988	45522.08
525.189	46720.14
525.391	46697.61
525.592	47101.06
525.794	47170.69
525.995	47090.82
526.197	47342.72
526.398	47477.89
526.6	47787.13
526.801	48147.57
527.003	48161.91
527.204	48018.55
527.406	48839.79
527.607	48493.68
527.808	48890.99
528.01	48794.73
528.211	48966.76
528.412	49822.81
528.614	49503.33
528.815	49124.46
529.016	49628.26
529.218	49634.4
529.419	49669.22
529.62	50043.99
529.822	49945.69
530.023	49824.86
530.224	50111.58
530.425	50089.05
530.626	49564.77
530.828	50140.25
531.029	50883.66
531.23	50433.11
531.431	50656.34
531.632	50854.99
531.833	50648.14
532.035	50814.03
532.236	50814.03
532.437	51387.46
532.638	51045.45
532.839	51059.79
533.04	51033.16
533.241	50941
533.442	51711.04
533.643	51262.54
533.844	51102.79
534.045	51555.39
534.246	51014.73
534.447	51704.9
534.648	50879.56
534.849	51481.67
535.05	51190.86
535.251	51412.04
535.451	51663.94
535.652	51797.05
535.853	51139.66
536.054	51285.06
536.255	51749.95
536.456	51096.65
536.657	51987.52
536.857	51305.54
537.058	51250.25
537.259	51999.8
537.46	51442.76
537.66	51129.42
537.861	51631.17
538.062	51459.14
538.263	51764.29
538.463	51168.33
538.664	51573.83
538.865	52075.58
539.065	51876.93
539.266	51371.08
539.466	52100.15
539.667	50904.14
539.868	51776.58
540.068	51801.15
540.269	51399.75
540.469	52026.43
540.67	51246.15
540.87	51467.33
541.071	51700.8
541.271	51561.54
541.472	51457.09
541.672	51141.7
541.873	51203.14
542.073	50754.64
542.274	52202.55
542.474	51395.65
542.675	51332.17
542.875	51989.56
543.075	51317.83
543.276	50594.9
543.476	52083.77
543.676	50979.92
543.877	51188.81
544.077	51653.7
544.277	51008.59
544.478	51100.75
544.678	51500.1
544.878	51377.22
545.078	51248.2
545.279	51201.1
545.479	51012.68
545.679	51438.66
545.879	51358.79
546.079	51147.85
546.28	51266.63
546.48	50695.25
546.68	50768.97
546.88	51412.04
547.08	51360.84
547.28	51008.59
547.48	50916.43
547.68	50988.11
547.88	51012.68
548.081	51631.17
548.281	51283.01
548.481	51211.34
548.681	51188.81
548.881	51235.91
549.081	51393.61
549.28	50961.48
549.48	51047.5
549.68	50777.17
549.88	51399.75
550.08	51096.65
550.28	51047.5
550.48	51072.07
550.68	51240.01
550.88	50725.97
551.08	51047.5
551.279	51209.29
551.479	50992.2
551.679	51063.88
551.879	50431.06
552.079	51350.6
552.278	50656.34
552.478	51018.83
552.678	50945.1
552.878	50678.86
553.077	51067.98
553.277	50709.58
553.477	51680.32
553.676	50711.63
553.876	50474.07
554.076	50861.13
554.275	50416.72
554.475	50132.06
554.674	50680.91
554.874	50519.12
555.074	50388.05
555.273	50678.86
555.473	50549.84
555.672	50263.13
555.872	50207.83
556.071	50637.9
556.271	50488.4
556.47	49804.38
556.67	49773.66
556.869	50070.62
557.068	50181.21
557.268	49603.68
557.467	49736.8
557.667	49880.16
557.866	50013.27
558.065	50297.94
558.265	49445.99
558.464	49552.48
558.663	49826.91
558.863	49237.09
559.062	50193.5
559.261	49359.97
559.461	50000.99
559.66	48933.99
559.859	49325.16
560.058	48983.15
560.258	49001.58
560.457	49046.63
560.656	49058.92
560.855	48897.13
561.054	48811.12
561.253	48815.21
561.453	48911.47
561.652	49065.06
561.851	49114.22
562.05	48778.35
562.249	48954.47
562.448	48702.57
562.647	48544.88
562.846	48422
563.045	48499.83
563.244	48387.19
563.443	49048.68
563.642	47961.21
563.841	48303.22
564.04	48082.04
564.239	48639.09
564.438	47660.16
564.637	48145.53
564.836	48047.22
565.035	47547.52
565.234	47819.9
565.432	47400.07
565.631	47158.41
565.83	47717.5
566.029	47082.63
566.228	46984.33
566.427	46920.84
566.625	46910.6
566.824	46611.6
567.023	47162.5
567.222	46310.55
567.42	47062.15
567.619	46771.34
567.818	46613.65
568.016	46328.98
568.215	46883.98
568.414	46253.2
568.612	46437.52
568.811	46066.84
569.01	46199.96
569.208	45384.86
569.407	46017.69
569.605	45626.53
569.804	46091.41
570.002	45702.3
570.201	46081.17
570.4	45747.36
570.598	45405.34
570.797	45053.09
570.995	45540.51
571.193	44668.08
571.392	45315.23
571.59	44850.34
571.789	44897.45
571.987	44500.14
572.186	44637.36
572.384	44883.11
572.582	44749.99
572.781	44733.61
572.979	43951.29
573.177	44336.3
573.376	44289.2
573.574	43760.83
573.772	44393.65
573.971	43732.15
574.169	43764.92
574.367	43371.71
574.565	43412.67
574.763	43105.48
574.962	42882.25
575.16	42499.28
575.358	43062.47
575.556	42243.28
575.754	43441.34
575.952	42829
576.151	43136.2
576.349	42114.26
576.547	42507.47
576.745	41696.47
576.943	42462.41
577.141	42081.49
577.339	41985.24
577.537	41637.08
577.735	42003.67
577.933	41430.24
578.131	41669.85
578.329	41753.82
578.527	40959.2
578.725	41084.13
578.923	41415.9
579.121	40883.43
579.319	40705.26
579.516	40928.48
579.714	40641.77
579.912	40742.12
580.11	40490.22
580.308	40256.75
580.506	40381.68
580.704	39689.46
580.901	39935.22
581.099	40404.2
581.297	39552.25
581.495	39884.02
581.692	39562.49
581.89	39017.73
582.088	39505.15
582.285	39169.28
582.483	39261.44
582.681	39462.14
582.878	38931.72
583.076	38776.07
583.274	38804.74
583.471	38581.51
583.669	38548.75
583.866	38227.21
584.064	38571.27
584.262	38292.75
584.459	38497.55
584.657	37938.45
584.854	38511.88
585.052	37453.08
585.249	37678.36
585.447	37887.25
585.644	37434.65
585.841	37135.65
586.039	37967.12
586.236	37356.83
586.434	37704.98
586.631	37434.65
586.828	37068.06
587.026	37020.96
587.223	36998.43
587.42	36678.95
587.618	36341.03
587.815	35951.92
588.012	36515.11
588.21	36056.37
588.407	36396.33
588.604	35886.39
588.801	35620.15
588.999	35831.09
589.196	35624.25
589.393	35614.01
589.59	35532.09
589.787	35487.03
589.984	35321.15
590.182	34979.14
590.379	35224.89
590.576	35036.48
590.773	35188.03
590.97	34616.65
591.167	34960.7
591.364	34655.56
591.561	34506.05
591.758	34075.98
591.955	34504.01
592.152	34487.62
592.349	34127.18
592.546	34391.37
592.743	34073.93
592.94	33670.48
593.137	33834.32
593.334	33881.42
593.531	33260.89
593.727	33795.41
593.924	33523.03
594.121	33299.8
594.318	33381.72
594.515	33049.95
594.712	33348.95
594.908	32834.91
595.105	33152.35
595.302	32929.12
595.499	32746.85
595.696	32787.81
595.892	32492.9
596.089	32619.88
596.286	32593.25
596.482	32109.93
596.679	32116.08
596.876	32499.05
597.072	31763.82
597.269	32161.13
597.466	31561.08
597.662	31808.88
597.859	32056.68
598.055	31636.85
598.252	31645.04
598.448	31608.18
598.645	31196.54
598.841	31194.49
599.038	31227.26
599.234	31155.58
599.431	30711.17
599.627	30707.07
599.824	30932.35
600.02	30756.22
600.217	30498.18
600.413	30535.04
600.609	30600.58
600.806	30193.03
601.002	30465.41
601.198	30145.93
601.395	29756.82
601.591	30217.61
601.787	30107.02
601.984	29775.25
602.18	30104.97
602.376	29625.75
602.572	29488.53
602.769	29715.86
602.965	29136.28
603.161	29345.17
603.357	28915.1
603.553	29066.65
603.75	29001.11
603.946	28577.19
604.142	28702.11
604.338	28286.37
604.534	28743.07
604.73	28405.16
604.926	28507.55
605.122	28362.15
605.318	28345.76
605.514	28220.84
605.71	27835.82
605.906	27968.94
606.102	27917.74
606.298	27868.59
606.494	27792.81
606.69	27674.03
606.886	27866.54
607.082	27170.23
607.278	27741.61
607.474	26877.37
607.67	27354.55
607.866	26797.5
608.062	27471.28
608.257	26936.76
608.453	26981.82
608.649	27037.11
608.845	26787.26
609.041	26926.52
609.236	26811.84
609.432	26406.34
609.628	26631.61
609.824	26336.71
610.019	26308.04
610.215	26512.83
610.411	26373.57
610.606	25773.52
610.802	26340.8
610.998	26291.65
611.193	26260.93
611.389	25818.57
611.584	25785.8
611.78	25658.83
611.976	26009.03
612.171	25755.08
612.367	25529.81
612.562	25595.34
612.758	24939.99
612.953	25415.12
613.149	25476.56
613.344	25380.31
613.539	25644.49
613.735	25478.61
613.93	25417.17
614.126	24858.07
614.321	25462.22
614.517	25159.13
614.712	24853.98
614.907	25003.48
615.103	24454.62
615.298	24788.44
615.493	24856.03
615.688	24298.98
615.884	25071.06
616.079	24423.9
616.274	24595.93
616.47	24063.46
616.665	24374.75
616.86	24030.69
617.055	24313.31
617.25	24301.03
617.445	24333.79
617.641	23979.5
617.836	24161.76
618.031	23494.13
618.226	23885.29
618.421	23829.99
618.616	23797.23
618.811	23543.28
619.006	23578.09
619.201	23557.61
619.396	23571.95
619.591	22887.93
619.786	23365.1
619.981	22490.62
620.176	23145.97
620.371	22631.93
620.566	22769.15
620.761	22461.95
620.956	22588.92
621.151	22281.73
621.346	22568.44
621.541	22038.02
621.735	22218.24
621.93	21880.33
622.125	22023.69
622.32	21329.42
622.515	21691.91
622.709	21558.8
622.904	21542.41
623.099	21300.75
623.294	21194.26
623.488	20960.79
623.683	20829.72
623.878	20819.48
624.072	20921.88
624.267	20571.68
624.462	20753.94
624.656	20497.95
624.851	20262.43
625.046	20182.56
625.24	20192.8
625.435	19985.96
625.629	20131.36
625.824	19555.88
626.018	19652.14
626.213	19387.95
626.407	19486.25
626.602	19471.92
626.796	19564.07
626.991	18994.74
627.185	19246.64
627.38	18888.25
627.574	18832.95
627.768	18552.38
627.963	18722.36
628.157	18189.89
628.352	18583.1
628.546	17937.99
628.74	18277.95
628.935	18032.19
629.129	18056.77
629.323	17800.77
629.517	17819.21
629.712	17575.5
629.906	17770.05
630.1	17489.48
630.294	17747.53
630.489	17610.31
630.683	17491.53
630.877	17129.04
631.071	17106.51
631.265	17153.62
631.459	16750.17
631.653	16795.22
631.848	16729.69
632.042	16569.94
632.236	17006.16
632.43	16285.28
632.624	16645.72
632.818	16324.19
633.012	16324.19
633.206	16088.67
633.4	16283.23
633.594	16002.66
633.788	15896.16
633.982	15902.31
634.176	15892.07
634.369	15621.73
634.563	15740.52
634.757	15494.76
634.951	15453.8
635.145	15429.23
635.339	15363.69
635.533	15011.44
635.726	15046.26
635.92	15023.73
636.114	15007.34
636.308	14863.99
636.501	14917.23
636.695	14841.46
636.889	14675.57
637.083	14532.22
637.276	14579.32
637.47	14403.19
637.664	14319.23
637.857	14261.88
638.051	14212.73
638.244	14110.33
638.438	14145.15
638.632	13921.92
638.825	13940.35
639.019	13803.14
639.212	13649.54
639.406	13684.36
639.599	13692.55
639.793	13495.94
639.986	13612.68
640.18	13313.67
640.373	13510.28
640.567	13186.7
640.76	13221.52
640.954	13053.58
641.147	13039.25
641.34	12918.42
641.534	12934.8
641.727	12701.33
641.92	12736.15
642.114	12770.96
642.307	12502.68
642.5	12439.19
642.694	12400.28
642.887	12304.03
643.08	12547.73
643.273	12250.78
643.467	12263.07
643.66	12281.5
643.853	12021.41
644.046	11916.96
644.239	11982.49
644.432	11880.1
644.626	11921.06
644.819	11622.05
645.012	11734.69
645.205	11538.09
645.398	11388.58
645.591	11423.4
645.784	11447.97
645.977	11288.23
646.17	11282.09
646.363	11234.99
646.556	11142.83
646.749	11194.03
646.942	11089.58
647.135	10950.32
647.328	10841.78
647.521	10884.78
647.714	10679.99
647.907	10790.58
648.099	10653.36
648.292	10647.22
648.485	10512.05
648.678	10286.78
648.871	10354.36
649.064	10251.96
649.256	10299.06
649.449	9963.2
649.642	10069.69
649.835	10053.31
650.027	9938.62
650.22	10049.21
650.413	9977.53
650.605	9785.02
650.798	9871.04
650.991	9549.51
651.183	9518.79
651.376	9492.16
651.568	9666.24
651.761	9553.6
651.954	9352.9
652.146	9395.91
652.339	9266.89
652.531	9127.63
652.724	9400.01
652.916	8980.17
653.109	9055.95
653.301	9092.81
653.494	9316.04
653.686	9043.66
653.879	8957.64
654.071	8896.21
654.263	8769.23
654.456	8601.3
654.648	8697.55
654.84	8427.22
655.033	8617.68
655.225	8552.15
655.417	8298.2
655.61	8439.51
655.802	8330.97
655.994	8261.34
656.186	8091.35
656.379	8287.96
656.571	8216.28
656.763	8177.37
656.955	7923.42
657.148	8214.23
657.34	8031.96
657.532	8056.54
657.724	7923.42
657.916	7976.67
658.108	7843.55
658.3	7732.96
658.492	7728.86
658.684	7730.91
658.876	7630.56
659.068	7692
659.26	7409.38
659.452	7616.23
659.644	7388.9
659.836	7259.88
660.028	7218.92
660.22	7245.54
660.412	7245.54
660.604	7087.85
660.796	7085.8
660.988	7040.75
661.18	6903.53
661.372	6971.11
661.563	7007.98
661.755	6946.54
661.947	6887.15
662.139	6874.86
662.331	6760.17
662.522	6653.68
662.714	6887.15
662.906	6545.14
663.097	6571.76
663.289	6500.08
663.481	6358.77
663.673	6557.43
663.864	6285.05
664.056	6514.42
664.247	6508.27
664.439	6229.75
664.631	6166.26
664.822	6254.33
665.014	6260.47
665.205	6010.62
665.397	6205.17
665.588	6223.61
665.78	6041.34
665.971	5891.84
666.163	6018.81
666.354	5902.08
666.546	5949.18
666.737	5842.68
666.929	5926.65
667.12	5951.23
667.311	5836.54
667.503	5785.34
667.694	5760.77
667.885	5730.05
668.077	5641.98
668.268	5426.95
668.459	5558.02
668.651	5508.87
668.842	5478.15
669.033	5465.86
669.224	5433.09
669.416	5435.14
669.607	5320.45
669.798	5328.64
669.989	5500.67
670.18	5259.01
670.371	5261.06
670.563	5189.38
670.754	5275.4
670.945	5263.11
671.136	5263.11
671.327	5185.29
671.518	4935.43
671.709	5056.26
671.9	5111.56
672.091	5218.05
672.282	5125.9
672.473	4966.15
672.664	5093.13
672.855	4921.1
673.046	5048.07
673.237	4917
673.428	4830.99
673.619	4802.32
673.809	4904.71
674	4814.6
674.191	4890.38
674.382	4847.37
674.573	4724.49
674.764	4695.82
674.954	4728.59
675.145	4699.92
675.336	4583.18
675.527	4656.91
675.717	4706.06
675.908	4642.57
676.099	4550.42
676.289	4605.71
676.48	4441.87
676.671	4415.25
676.861	4599.57
677.052	4687.63
677.243	4472.59
677.433	4476.69
677.624	4515.6
677.814	4357.91
678.005	4421.39
678.195	4441.87
678.386	4513.55
678.576	4343.57
678.767	4337.43
678.957	4298.52
679.148	4392.72
679.338	4304.66
679.529	4300.56
679.719	4296.47
679.909	4261.65
680.1	4273.94
680.29	4218.64
680.481	4290.32
680.671	4165.4
680.861	4144.92
681.052	4095.77
681.242	4120.34
681.432	4271.89
681.622	4071.19
681.813	4239.12
682.003	4044.57
682.193	4112.15
682.383	4093.72
682.573	4044.57
682.764	4056.86
682.954	4065.05
683.144	4022.04
683.334	4011.8
683.524	3893.02
683.714	3921.69
683.904	3931.93
684.094	3827.48
684.284	3913.5
684.474	3847.96
684.664	3897.11
684.854	3807
685.044	3880.73
685.234	3979.03
685.424	3831.58
685.614	3839.77
685.804	3903.26
685.994	3868.44
686.184	3733.28
686.374	3821.34
686.564	3862.3
686.753	3884.83
686.943	3876.63
687.133	3731.23
687.323	3702.56
687.513	3682.08
687.702	3817.24
687.892	3796.76
688.082	3655.45
688.272	3634.97
688.461	3622.69
688.651	3643.17
688.841	3673.89
689.03	3598.11
689.22	3688.22
689.41	3632.93
689.599	3634.97
689.789	3657.5
689.979	3608.35
690.168	3659.55
690.358	3620.64
690.547	3594.01
690.737	3628.83
690.926	3686.17
691.116	3530.53
691.305	3680.03
691.495	3725.08
691.684	3553.06
691.874	3626.78
692.063	3522.34
692.252	3591.97
692.442	3581.73
692.631	3491.62
692.82	3475.23
693.01	3540.77
693.199	3546.91
693.388	3485.47
693.578	3581.73
693.767	3405.6
693.956	3563.29
694.146	3581.73
694.335	3311.39
694.524	3387.17
694.713	3499.81
694.902	3381.03
695.092	3557.15
695.281	3598.11
695.47	3483.42
695.659	3495.71
695.848	3536.67
696.037	3358.5
696.226	3471.14
696.415	3553.06
696.604	3401.51
696.793	3464.99
696.982	3477.28
697.171	3364.64
697.36	3514.14
697.549	3485.47
697.738	3460.9
697.927	3338.02
698.116	3497.76
698.305	3401.51
698.494	3276.58
698.683	3387.17
698.872	3329.83
699.061	3288.87
699.25	3333.92
699.438	3249.96
699.627	3469.09
699.816	3438.37
700.005	3381.03
700.193	3274.53
700.382	3348.26
700.571	3204.9
700.76	3385.12
700.948	3331.87
701.137	3264.29
701.326	3194.66
701.514	3206.95
701.703	3200.8
701.892	3276.58
702.08	3374.88
702.269	3309.35
702.457	3086.12
702.646	3286.82
702.834	3227.43
703.023	3247.91
703.212	3147.56
703.4	3157.8
703.589	3194.66
703.777	3116.84
703.965	3049.25
704.154	3174.18
704.342	3079.97
704.531	3102.5
704.719	3039.01
704.907	3155.75
705.096	2928.42
705.284	3010.34
705.472	3141.41
705.661	2987.82
705.849	3229.48
706.037	2946.86
706.226	3172.13
706.414	3010.34
706.602	2942.76
706.79	2948.9
706.979	2946.86
707.167	2975.53
707.355	2854.7
707.543	3045.16
707.731	2823.98
707.919	2987.82
708.107	2897.71
708.296	2869.03
708.484	2869.03
708.672	2934.57
708.86	2707.24
709.048	2914.09
709.236	2778.92
709.424	2869.03
709.612	2772.78
709.8	2830.12
709.988	2821.93
710.176	2848.55
710.364	2748.2
710.551	2819.88
710.739	2684.72
710.927	2703.15
711.115	2760.49
711.303	2795.31
711.491	2723.63
711.679	2742.06
711.866	2711.34
712.054	2668.33
712.242	2627.37
712.43	2811.69
712.617	2547.5
712.805	2748.2
712.993	2682.67
713.181	2619.18
713.368	2580.27
713.556	2582.32
713.744	2418.48
713.931	2592.56
714.119	2527.02
714.306	2651.95
714.494	2592.56
714.682	2463.54
714.869	2453.3
715.057	2510.64
715.244	2469.68
715.432	2514.73
715.619	2377.52
715.807	2514.73
715.994	2496.3
716.182	2463.54
716.369	2363.19
716.556	2398
716.744	2342.71
716.931	2324.27
717.119	2264.88
717.306	2354.99
717.493	2285.36
717.681	2430.77
717.868	2311.99
718.055	2344.75
718.242	2414.38
718.43	2383.66
718.617	2324.27
718.804	2387.76
718.991	2207.54
719.179	2281.27
719.366	2158.39
719.553	2316.08
719.74	2340.66
719.927	2281.27
720.114	2176.82
720.301	2176.82
720.488	2228.02
720.676	2043.7
720.863	2178.87
721.05	2019.13
721.237	2142
721.424	2123.57
721.611	2103.09
721.798	2139.96
721.985	2021.17
722.172	1935.16
722.358	2068.28
722.545	2154.29
722.732	2002.74
722.919	2064.18
723.106	2094.9
723.293	2025.27
723.48	2045.75
723.667	1935.16
723.853	2010.93
724.04	1890.1
724.227	1980.22
724.414	1892.15
724.6	2006.84
724.787	1853.24
724.974	1982.26
725.161	1892.15
725.347	1910.58
725.534	1883.96
725.72	1892.15
725.907	1904.44
726.094	1789.75
726.28	1802.04
726.467	1797.95
726.653	1867.58
726.84	1929.02
727.027	1949.5
727.213	1756.99
727.4	1877.82
727.586	1783.61
727.773	1853.24
727.959	1752.89
728.145	1746.75
728.332	1763.13
728.518	1695.55
728.705	1740.6
728.891	1769.27
729.077	1816.38
729.264	1795.9
729.45	1828.67
729.636	1722.17
729.823	1728.31
730.009	1630.01
730.195	1709.88
730.382	1662.78
730.568	1623.87
730.754	1720.12
730.94	1693.5
731.126	1703.74
731.313	1748.79
731.499	1658.68
731.685	1679.16
731.871	1707.84
732.057	1756.99
732.243	1664.83
732.429	1539.9
732.615	1578.81
732.801	1703.74
732.987	1587.01
733.173	1558.33
733.359	1552.19
733.545	1658.68
733.731	1544
733.917	1560.38
734.103	1578.81
734.289	1535.81
734.475	1535.81
734.661	1488.7
734.847	1539.9
735.033	1544
735.219	1597.24
735.404	1544
735.59	1537.85
735.776	1462.08
735.962	1445.7
736.148	1525.57
736.333	1685.31
736.519	1437.5
736.705	1353.54
736.89	1535.81
737.076	1457.98
737.262	1574.72
737.447	1513.28
737.633	1439.55
737.819	1507.13
738.004	1496.89
738.19	1439.55
738.375	1404.74
738.561	1451.84
738.747	1402.69
738.932	1367.87
739.118	1472.32
739.303	1394.5
739.489	1371.97
739.674	1414.98
739.859	1449.79
740.045	1249.09
740.23	1367.87
740.416	1322.82
740.601	1378.11
740.786	1283.91
740.972	1347.39
741.157	1382.21
741.342	1353.54
741.528	1279.81
741.713	1261.38
741.898	1251.14
742.084	1210.18
742.269	1302.34
742.454	1275.71
742.639	1175.36
742.824	1244.99
743.01	1306.43
743.195	1331.01
743.38	1165.12
743.565	1273.67
743.75	1238.85
743.935	1326.91
744.12	1310.53
744.305	1251.14
744.49	1130.31
744.675	1230.66
744.86	1191.75
745.045	1247.04
745.23	1206.08
745.415	1144.64
745.6	1189.7
745.785	1173.32
745.97	1181.51
746.155	1181.51
746.34	1046.34
746.525	1097.54
746.71	1128.26
746.895	1115.97
747.079	1105.73
747.264	1111.88
747.449	1079.11
747.634	1036.1
747.819	1038.15
748.003	1075.01
748.188	1075.01
748.373	1056.58
748.557	964.42
748.742	1109.83
748.927	1007.43
749.111	1101.64
749.296	1052.49
749.481	1038.15
749.665	1054.53
749.85	1009.48
750.034	974.66
750.219	1003.33
750.404	939.85
750.588	937.8
750.773	972.61
750.957	958.28
751.141	915.27
751.326	1007.43
751.51	894.79
751.695	868.17
751.879	919.37
752.064	993.09
752.248	968.52
752.432	849.74
752.617	1005.38
752.801	954.18
752.985	999.24
753.17	909.13
753.354	878.41
753.538	902.98
753.722	921.42
753.907	849.74
754.091	905.03
754.275	960.33
754.459	814.92
754.643	839.5
754.828	976.71
755.012	851.78
755.196	862.02
755.38	829.26
755.564	847.69
755.748	847.69
755.932	894.79
756.116	831.3
756.3	823.11
756.484	790.35
756.668	812.87
756.852	765.77
757.036	794.44
757.22	788.3
757.404	792.39
757.588	827.21
757.772	714.57
757.956	810.82
758.14	733
758.323	778.06
758.507	728.91
758.691	720.71
758.875	716.62
759.059	821.06
759.242	761.67
759.426	794.44
759.61	653.13
759.794	700.23
759.977	710.47
760.161	737.1
760.345	708.43
760.528	755.53
760.712	706.38
760.895	675.66
761.079	671.56
761.263	728.91
761.446	679.75
761.63	671.56
761.813	608.08
761.997	714.57
762.18	698.19
762.364	622.41
762.547	636.75
762.731	683.85
762.914	659.28
763.098	653.13
763.281	630.6
763.464	595.79
763.648	632.65
763.831	601.93
764.015	608.08
764.198	612.17
764.381	632.65
764.564	624.46
764.748	634.7
764.931	603.98
765.114	612.17
765.297	601.93
765.481	661.32
765.664	603.98
765.847	649.04
766.03	597.84
766.213	659.28
766.397	720.71
766.58	599.88
766.763	532.3
766.946	548.68
767.129	552.78
767.312	563.02
767.495	622.41
767.678	599.88
767.861	583.5
768.044	542.54
768.227	595.79
768.41	556.88
768.593	644.94
768.776	552.78
768.959	651.08
769.142	585.55
769.324	640.84
769.507	595.79
769.69	622.41
769.873	573.26
770.056	550.73
770.239	538.45
770.421	696.14
770.604	599.88
770.787	612.17
770.97	585.55
771.152	534.35
771.335	546.64
771.518	489.29
771.7	560.97
771.883	606.03
772.066	624.46
772.248	544.59
772.431	526.16
772.613	552.78
772.796	534.35
772.978	593.74
773.161	552.78
773.343	528.21
773.526	526.16
773.708	536.4
773.891	499.53
774.073	601.93
774.256	485.2
774.438	567.12
774.621	507.73
774.803	485.2
774.985	567.12
775.168	520.01
775.35	528.21
775.532	571.21
775.715	442.19
775.897	497.49
776.079	503.63
776.261	513.87
776.444	507.73
776.626	515.92
776.808	477.01
776.99	507.73
777.173	499.53
777.355	440.14
777.537	454.48
777.719	429.9
777.901	477.01
778.083	431.95
778.265	464.72
778.447	440.14
778.629	401.23
778.811	423.76
778.993	436.05
779.175	415.57
779.357	520.01
779.539	417.61
779.721	376.66
779.903	444.24
780.085	454.48
780.267	460.62
780.449	413.52
780.631	368.46
780.812	431.95
780.994	427.85
781.176	352.08
781.358	380.75
781.54	395.09
781.721	356.18
781.903	411.47
782.085	350.03
782.267	481.1
782.448	376.66
782.63	362.32
782.812	323.41
782.993	372.56
783.175	339.79
783.357	390.99
783.538	300.88
783.72	405.33
783.901	341.84
784.083	378.7
784.264	358.22
784.446	198.48
784.627	317.26
784.809	331.6
784.99	366.42
785.172	393.04
785.353	327.5
785.535	388.94
785.716	354.13
785.897	302.93
786.079	366.42
786.26	345.94
786.441	347.98
786.623	300.88
786.804	333.65
786.985	233.3
787.167	307.02
787.348	247.63
787.529	360.27
787.71	261.97
787.891	319.31
788.073	331.6
788.254	300.88
788.435	270.16
788.616	302.93
788.797	261.97
788.978	323.41
789.159	321.36
789.34	268.11
789.522	302.93
789.703	307.02
789.884	288.59
790.065	323.41
790.246	315.22
790.427	237.39
790.607	221.01
790.788	296.78
790.969	300.88
791.15	235.35
791.331	231.25
791.512	216.91
791.693	163.67
791.874	317.26
792.054	276.31
792.235	292.69
792.416	311.12
792.597	257.87
792.778	274.26
792.958	141.14
793.139	286.54
793.32	268.11
793.5	194.39
793.681	216.91
793.862	288.59
794.042	229.2
794.223	261.97
794.404	184.15
794.584	259.92
794.765	163.67
794.945	190.29
795.126	221.01
795.306	200.53
795.487	173.91
795.667	194.39
795.848	274.26
796.028	251.73
796.209	257.87
796.389	296.78
796.57	171.86
796.75	157.52
796.93	206.67
797.111	173.91
797.291	231.25
797.471	132.95
797.652	204.63
797.832	278.35
798.012	182.1
798.192	163.67
798.373	190.29
798.553	200.53
798.733	255.83
798.913	190.29
799.093	149.33
799.274	202.58
799.454	259.92
799.634	163.67
799.814	208.72
799.994	165.71
800.174	186.19
800.354	151.38
800.534	231.25
800.714	153.43
800.894	196.43
801.074	120.66
801.254	151.38
801.434	194.39
801.614	206.67
801.794	126.8
801.974	378.7
802.154	143.19
802.334	173.91
802.514	202.58
802.693	169.81
802.873	128.85
803.053	278.35
803.233	145.24
803.413	180.05
803.592	91.99
803.772	190.29
803.952	143.19
804.131	143.19
804.311	212.82
804.491	135
804.67	128.85
804.85	198.48
805.03	132.95
805.209	190.29
805.389	192.34
805.568	145.24
805.748	77.65
805.928	198.48
806.107	141.14
806.287	192.34
806.466	171.86
806.646	137.04
806.825	175.95
807.004	153.43
807.184	198.48
807.363	87.89
807.543	165.71
807.722	159.57
807.901	173.91
808.081	157.52
808.26	110.42
808.439	112.47
808.619	137.04
808.798	55.12
808.977	135
809.156	132.95
809.336	143.19
809.515	180.05
809.694	155.47
809.873	171.86
810.052	65.36
810.231	151.38
810.411	79.7
810.59	137.04
810.769	116.56
810.948	128.85
811.127	124.76
811.306	126.8
811.485	128.85
811.664	73.56
811.843	151.38
812.022	110.42
812.201	112.47
812.38	100.18
812.559	73.56
812.737	155.47
812.916	96.08
813.095	147.28
813.274	114.52
813.453	198.48
813.632	163.67
813.811	227.15
813.989	83.8
814.168	141.14
814.347	48.98
814.526	81.75
814.704	132.95
814.883	98.13
815.062	165.71
815.24	186.19
815.419	77.65
815.598	132.95
815.776	116.56
815.955	141.14
816.133	18.26
816.312	87.89
816.49	100.18
816.669	118.61
816.847	122.71
817.026	83.8
817.204	77.65
817.383	132.95
817.561	96.08
817.74	137.04
817.918	96.08
818.097	106.32
818.275	36.69
818.453	32.6
818.632	61.27
818.81	104.28
818.988	89.94
819.167	104.28
819.345	147.28
819.523	32.6
819.701	118.61
819.879	22.36
820.058	77.65
820.236	104.28
820.414	65.36
820.592	89.94
820.77	128.85
820.948	130.9
821.127	67.41
821.305	116.56
821.483	57.17
821.661	69.46
821.839	77.65
822.017	46.93
822.195	51.03
822.373	69.46
822.551	91.99
822.729	81.75
822.907	46.93
823.085	132.95
823.262	44.88
823.44	77.65
823.618	96.08
823.796	108.37
823.974	18.26
824.152	128.85
824.329	135
824.507	122.71
824.685	81.75
824.863	169.81
825.04	91.99
825.218	57.17
825.396	81.75
825.574	132.95
825.751	91.99
825.929	77.65
826.107	57.17
826.284	79.7
826.462	28.5
826.639	57.17
826.817	77.65
826.994	51.03
827.172	81.75
827.349	34.64
827.527	67.41
827.704	87.89
827.882	67.41
828.059	67.41
828.237	100.18
828.414	67.41
828.591	36.69
828.769	14.17
828.946	-49.32
829.124	67.41
829.301	48.98
829.478	-2.22
829.655	28.5
829.833	30.55
830.01	12.12
830.187	110.42
830.364	-2.22
830.542	85.84
830.719	44.88
830.896	51.03
831.073	-41.13
831.25	79.7
831.427	20.31
831.604	55.12
831.782	96.08
831.959	104.28
832.136	79.7
832.313	40.79
832.49	69.46
832.667	79.7
832.844	46.93
833.021	28.5
833.198	55.12
833.374	85.84
833.551	51.03
833.728	104.28
833.905	10.07
834.082	94.04
834.259	89.94
834.436	14.17
834.612	26.45
834.789	26.45
834.966	63.32
835.143	32.6
835.319	108.37
835.496	-2.22
835.673	59.22
835.85	91.99
836.026	98.13
836.203	28.5
836.38	83.8
836.556	87.89
836.733	20.31
836.909	89.94
837.086	28.5
837.262	79.7
837.439	28.5
837.616	51.03
837.792	75.6
837.968	77.65
838.145	91.99
838.321	32.6
838.498	77.65
838.674	38.74
838.851	36.69
839.027	-12.46
839.203	118.61
839.38	57.17
839.556	-24.75
839.732	36.69
839.909	-69.8
840.085	42.84
840.261	22.36
840.437	46.93
840.614	-2.22
840.79	-14.51
840.966	38.74
841.142	22.36
841.318	-39.08
841.494	-4.27
841.671	89.94
841.847	16.21
842.023	59.22
842.199	85.84
842.375	32.6
842.551	42.84
842.727	26.45
842.903	91.99
843.079	87.89
843.255	135
843.431	55.12
843.607	28.5
843.783	51.03
843.959	75.6
844.134	79.7
844.31	22.36
844.486	5.97
844.662	102.23
844.838	8.02
845.013	51.03
845.189	32.6
845.365	26.45
845.541	63.32
845.716	28.5
845.892	85.84
846.068	108.37
846.244	-53.42
846.419	18.26
846.595	12.12
846.77	10.07
846.946	-8.36
847.122	30.55
847.297	81.75
847.473	87.89
847.648	22.36
847.824	24.4
847.999	-30.89
848.175	10.07
848.35	34.64
848.526	-30.89
848.701	-37.03
848.876	65.36
849.052	71.51
849.227	14.17
849.403	42.84
849.578	141.14
849.753	57.17
849.929	77.65
850.104	-14.51
850.279	-28.84
850.454	18.26
850.63	12.12
850.805	38.74
850.98	16.21
851.155	28.5
851.33	-8.36
851.505	-8.36
851.681	24.4
851.856	5.97
852.031	40.79
852.206	32.6
852.381	34.64
852.556	5.97
852.731	65.36
852.906	14.17
853.081	71.51
853.256	-32.94
853.431	61.27
853.606	-8.36
853.781	81.75
853.956	12.12
854.131	63.32
854.305	89.94
854.48	55.12
854.655	5.97
854.83	69.46
855.005	55.12
855.18	44.88
855.354	67.41
855.529	75.6
855.704	40.79
855.879	85.84
856.053	28.5
856.228	-45.23
856.403	-51.37
856.577	81.75
856.752	-71.85
856.926	-0.17
857.101	26.45
857.276	24.4
857.45	16.21
857.625	16.21
857.799	-2.22
857.974	-16.55
858.148	12.12
858.323	32.6
858.497	-22.7
858.672	69.46
858.846	3.93
859.02	18.26
859.195	-45.23
859.369	36.69
859.543	48.98
859.718	-0.17
859.892	51.03
860.066	36.69
860.241	16.21
860.415	55.12
860.589	3.93
860.763	5.97
860.938	67.41
861.112	-12.46
861.286	-22.7
861.46	96.08
861.634	-0.17
861.808	81.75
861.982	-18.6
862.157	75.6
862.331	-75.95
862.505	36.69
862.679	-59.56
862.853	16.21
863.027	30.55
863.201	-8.36
863.375	71.51
863.549	-8.36
863.722	48.98
863.896	141.14
864.07	5.97
864.244	1.88
864.418	42.84
864.592	-55.47
864.766	-49.32
864.939	24.4
865.113	38.74
865.287	77.65
865.461	-22.7
865.634	32.6
865.808	-30.89
865.982	59.22
866.156	67.41
866.329	3.93
866.503	-28.84
866.676	42.84
866.85	46.93
867.024	34.64
867.197	22.36
867.371	67.41
867.544	14.17
867.718	22.36
867.891	16.21
868.065	22.36
868.238	48.98
868.412	44.88
868.585	-22.7
868.759	42.84
868.932	87.89
869.105	-37.03
869.279	48.98
869.452	10.07
869.625	-20.65
869.799	55.12
869.972	-16.55
870.145	36.69
870.319	59.22
870.492	-8.36
870.665	12.12
870.838	1.88
871.011	5.97
871.185	-6.31
871.358	-0.17
871.531	5.97
871.704	59.22
871.877	-2.22
872.05	-6.31
872.223	16.21
872.396	61.27
872.569	40.79
872.742	3.93
872.915	24.4
873.088	18.26
873.261	30.55
873.434	-14.51
873.607	14.17
873.78	-18.6
873.953	34.64
874.126	30.55
874.299	30.55
874.471	34.64
874.644	14.17
874.817	-8.36
874.99	53.08
875.163	44.88
875.335	-45.23
875.508	-14.51
875.681	36.69
875.853	-18.6
876.026	40.79
876.199	-0.17
876.371	18.26
876.544	1.88
876.717	59.22
876.889	30.55
877.062	28.5
877.234	5.97
877.407	73.56
877.579	-39.08
877.752	1.88
877.924	71.51
878.097	38.74
878.269	53.08
878.442	1.88
878.614	12.12
878.786	-37.03
878.959	-41.13
879.131	8.02
879.303	48.98
879.476	-20.65
879.648	36.69
879.82	3.93
879.993	-43.18
880.165	65.36
880.337	-53.42
880.509	-45.23
880.681	-41.13
880.854	12.12
881.026	48.98
881.198	32.6
881.37	67.41
881.542	-10.41
881.714	81.75
881.886	32.6
882.058	-16.55
882.23	-12.46
882.402	-18.6
882.574	22.36
882.746	55.12
882.918	24.4
883.09	-26.79
883.262	79.7
883.434	16.21
883.606	-2.22
883.778	-28.84
883.95	55.12
884.122	-14.51
884.293	8.02
884.465	18.26
884.637	14.17
884.809	10.07
884.98	38.74
885.152	-22.7
885.324	-10.41
885.496	-20.65
885.667	-37.03
885.839	-45.23
886.011	85.84
886.182	38.74
886.354	34.64
886.525	-71.85
886.697	-10.41
886.869	-6.31
887.04	53.08
887.212	24.4
887.383	-6.31
887.555	-28.84
887.726	-4.27
887.897	48.98
888.069	32.6
888.24	20.31
888.412	26.45
888.583	-0.17
888.754	22.36
888.926	-84.14
889.097	30.55
889.268	-61.61
889.44	1.88
889.611	-28.84
889.782	83.8
889.953	18.26
890.125	57.17
890.296	8.02
890.467	67.41
890.638	14.17
890.809	42.84
890.98	-10.41
891.151	24.4
891.323	-8.36
891.494	42.84
891.665	-28.84
891.836	63.32
892.007	44.88
892.178	-32.94
892.349	24.4
892.52	57.17
892.691	44.88
892.862	42.84
893.032	44.88
893.203	24.4
893.374	-8.36
893.545	-12.46
893.716	3.93
893.887	14.17
894.057	98.13
894.228	87.89
894.399	-22.7
894.57	51.03
894.74	18.26
894.911	-22.7
895.082	57.17
895.253	-18.6
895.423	10.07
895.594	-16.55
895.764	28.5
895.935	-47.27
896.106	26.45
896.276	20.31
896.447	32.6
896.617	32.6
896.788	55.12
896.958	30.55
897.129	22.36
897.299	-18.6
897.47	12.12
897.64	44.88
897.81	-4.27
897.981	36.69
898.151	18.26
898.322	108.37
898.492	-4.27
898.662	-22.7
898.832	-43.18
899.003	32.6
899.173	22.36
899.343	14.17
899.513	14.17
