Data from USB4F104151__95__13-54-33-890.txt Node

Date: Thu Mar 13 13:54:33 EDT 2025
User: louis
Spectrometer: USB4F10415
Trigger mode: 4
Integration Time (sec): 1.000000E-2
Scans to average: 1
Electric dark correction enabled: true
Nonlinearity correction enabled: false
Boxcar width: 0
XAxis mode: Wavelengths
Number of Pixels in Spectrum: 3648
>>>>>Begin Spectral Data<<<<<
178.204	-14.34
178.424	-14.34
178.644	-14.34
178.864	22.53
179.084	-10.24
179.304	-45.06
179.524	-4.1
179.744	43.01
179.964	51.2
180.184	-6.14
180.404	18.43
180.624	75.77
180.844	8.19
181.064	-28.67
181.283	-6.14
181.503	-63.49
181.723	-43.01
181.943	12.29
182.163	53.25
182.383	-24.58
182.602	16.38
182.822	38.91
183.042	22.53
183.262	-28.67
183.482	-32.77
183.701	24.58
183.921	-2.05
184.141	53.25
184.361	10.24
184.58	10.24
184.8	24.58
185.02	-10.24
185.239	22.53
185.459	4.1
185.679	18.43
185.898	14.34
186.118	-24.58
186.338	-32.77
186.557	57.34
186.777	65.53
186.997	40.96
187.216	55.3
187.436	10.24
187.655	73.73
187.875	22.53
188.095	-28.67
188.314	-4.1
188.534	40.96
188.753	20.48
188.973	14.34
189.192	6.14
189.412	-20.48
189.631	-12.29
189.851	26.62
190.07	18.43
190.29	28.67
190.509	12.29
190.729	40.96
190.948	20.48
191.168	69.63
191.387	40.96
191.607	92.16
191.826	43.01
192.045	10.24
192.265	24.58
192.484	-20.48
192.704	34.82
192.923	40.96
193.142	24.58
193.362	96.25
193.581	22.53
193.8	10.24
194.02	51.2
194.239	55.3
194.458	18.43
194.678	59.39
194.897	18.43
195.116	-4.1
195.335	4.1
195.555	4.1
195.774	40.96
195.993	51.2
196.212	-63.49
196.432	2.05
196.651	55.3
196.87	-69.63
197.089	43.01
197.308	4.1
197.528	38.91
197.747	38.91
197.966	26.62
198.185	32.77
198.404	-26.62
198.623	10.24
198.842	53.25
199.062	12.29
199.281	40.96
199.5	34.82
199.719	-40.96
199.938	88.06
200.157	4.1
200.376	77.82
200.595	-10.24
200.814	-36.86
201.033	18.43
201.252	-14.34
201.471	55.3
201.69	-28.67
201.909	-14.34
202.128	-14.34
202.347	30.72
202.566	47.1
202.785	-24.58
203.004	-4.1
203.223	16.38
203.442	53.25
203.661	-30.72
203.879	-8.19
204.098	92.16
204.317	-22.53
204.536	40.96
204.755	4.1
204.974	38.91
205.193	12.29
205.411	98.3
205.63	-12.29
205.849	-14.34
206.068	8.19
206.287	55.3
206.505	12.29
206.724	-51.2
206.943	0
207.162	-30.72
207.381	65.53
207.599	8.19
207.818	2.05
208.037	24.58
208.255	-18.43
208.474	51.2
208.693	-8.19
208.911	10.24
209.13	32.77
209.349	59.39
209.567	10.24
209.786	12.29
210.005	36.86
210.223	16.38
210.442	-20.48
210.661	51.2
210.879	28.67
211.098	81.92
211.316	8.19
211.535	59.39
211.753	28.67
211.972	10.24
212.191	16.38
212.409	-71.68
212.628	-55.3
212.846	-18.43
213.065	28.67
213.283	59.39
213.502	16.38
213.72	77.82
213.938	51.2
214.157	10.24
214.375	45.06
214.594	12.29
214.812	-14.34
215.031	69.63
215.249	16.38
215.467	6.14
215.686	34.82
215.904	8.19
216.122	-8.19
216.341	12.29
216.559	61.44
216.778	-40.96
216.996	51.2
217.214	34.82
217.432	-10.24
217.651	47.1
217.869	26.62
218.087	83.97
218.306	57.34
218.524	30.72
218.742	32.77
218.96	57.34
219.179	-38.91
219.397	26.62
219.615	43.01
219.833	-28.67
220.051	14.34
220.27	81.92
220.488	-30.72
220.706	-6.14
220.924	26.62
221.142	63.49
221.36	20.48
221.578	24.58
221.796	-16.38
222.015	12.29
222.233	-6.14
222.451	57.34
222.669	-28.67
222.887	67.58
223.105	38.91
223.323	51.2
223.541	26.62
223.759	8.19
223.977	12.29
224.195	16.38
224.413	-8.19
224.631	4.1
224.849	-55.3
225.067	28.67
225.285	79.87
225.503	-100.35
225.721	8.19
225.939	92.16
226.157	83.97
226.375	81.92
226.592	34.82
226.81	59.39
227.028	-59.39
227.246	32.77
227.464	0
227.682	92.16
227.9	32.77
228.117	-10.24
228.335	-30.72
228.553	98.3
228.771	20.48
228.989	-20.48
229.206	14.34
229.424	40.96
229.642	16.38
229.86	14.34
230.077	40.96
230.295	116.73
230.513	49.15
230.731	40.96
230.948	-22.53
231.166	59.39
231.384	14.34
231.601	59.39
231.819	20.48
232.037	-22.53
232.254	26.62
232.472	40.96
232.689	12.29
232.907	61.44
233.125	20.48
233.342	67.58
233.56	-53.25
233.777	4.1
233.995	71.68
234.213	-8.19
234.43	106.49
234.648	14.34
234.865	8.19
235.083	4.1
235.3	28.67
235.518	77.82
235.735	96.25
235.953	20.48
236.17	-53.25
236.388	12.29
236.605	26.62
236.822	61.44
237.04	-8.19
237.257	22.53
237.475	45.06
237.692	43.01
237.909	92.16
238.127	26.62
238.344	57.34
238.562	45.06
238.779	18.43
238.996	18.43
239.214	28.67
239.431	75.77
239.648	14.34
239.865	16.38
240.083	6.14
240.3	-14.34
240.517	63.49
240.735	49.15
240.952	122.88
241.169	96.25
241.386	26.62
241.603	8.19
241.821	24.58
242.038	63.49
242.255	30.72
242.472	34.82
242.689	34.82
242.907	12.29
243.124	-6.14
243.341	-73.73
243.558	6.14
243.775	20.48
243.992	0
244.209	43.01
244.426	98.3
244.643	75.77
244.86	61.44
245.078	135.17
245.295	-28.67
245.512	34.82
245.729	-49.15
245.946	81.92
246.163	-14.34
246.38	57.34
246.597	63.49
246.814	83.97
247.031	38.91
247.248	114.69
247.464	51.2
247.681	36.86
247.898	10.24
248.115	69.63
248.332	24.58
248.549	40.96
248.766	8.19
248.983	81.92
249.2	20.48
249.417	-45.06
249.633	0
249.85	34.82
250.067	-2.05
250.284	-69.63
250.501	2.05
250.717	36.86
250.934	-6.14
251.151	79.87
251.368	-10.24
251.585	12.29
251.801	43.01
252.018	53.25
252.235	51.2
252.451	63.49
252.668	38.91
252.885	-43.01
253.102	-20.48
253.318	8.19
253.535	-63.49
253.752	73.73
253.968	40.96
254.185	79.87
254.401	28.67
254.618	88.06
254.835	10.24
255.051	53.25
255.268	18.43
255.484	135.17
255.701	-2.05
255.917	32.77
256.134	12.29
256.351	-36.86
256.567	-38.91
256.784	79.87
257	81.92
257.217	-12.29
257.433	-12.29
257.65	51.2
257.866	47.1
258.082	59.39
258.299	-22.53
258.515	32.77
258.732	6.14
258.948	2.05
259.165	22.53
259.381	-14.34
259.597	86.01
259.814	18.43
260.03	12.29
260.246	-20.48
260.463	0
260.679	43.01
260.895	-77.82
261.112	2.05
261.328	36.86
261.544	24.58
261.761	69.63
261.977	-4.1
262.193	0
262.409	-24.58
262.626	-8.19
262.842	32.77
263.058	-57.34
263.274	155.65
263.49	6.14
263.707	69.63
263.923	28.67
264.139	38.91
264.355	18.43
264.571	24.58
264.787	8.19
265.004	63.49
265.22	-2.05
265.436	-14.34
265.652	26.62
265.868	75.77
266.084	-40.96
266.3	-6.14
266.516	34.82
266.732	6.14
266.948	47.1
267.164	69.63
267.38	79.87
267.596	10.24
267.812	-49.15
268.028	-18.43
268.244	79.87
268.46	57.34
268.676	90.11
268.892	16.38
269.108	26.62
269.324	-4.1
269.54	-2.05
269.756	20.48
269.972	-38.91
270.188	-57.34
270.403	24.58
270.619	40.96
270.835	-2.05
271.051	59.39
271.267	65.53
271.483	-4.1
271.698	24.58
271.914	-8.19
272.13	-8.19
272.346	32.77
272.562	63.49
272.777	12.29
272.993	30.72
273.209	0
273.425	-61.44
273.64	77.82
273.856	16.38
274.072	86.01
274.287	67.58
274.503	71.68
274.719	63.49
274.934	2.05
275.15	8.19
275.366	18.43
275.581	22.53
275.797	32.77
276.012	32.77
276.228	24.58
276.444	43.01
276.659	47.1
276.875	-14.34
277.09	36.86
277.306	104.45
277.521	6.14
277.737	-22.53
277.952	18.43
278.168	-12.29
278.383	-18.43
278.599	0
278.814	86.01
279.03	40.96
279.245	88.06
279.461	65.53
279.676	98.3
279.892	18.43
280.107	67.58
280.322	53.25
280.538	75.77
280.753	2.05
280.969	-10.24
281.184	81.92
281.399	-6.14
281.615	-8.19
281.83	32.77
282.045	59.39
282.26	51.2
282.476	-16.38
282.691	30.72
282.906	10.24
283.122	63.49
283.337	-22.53
283.552	92.16
283.767	2.05
283.983	55.3
284.198	30.72
284.413	-49.15
284.628	28.67
284.843	32.77
285.058	45.06
285.274	69.63
285.489	0
285.704	-6.14
285.919	-26.62
286.134	16.38
286.349	2.05
286.564	-14.34
286.779	51.2
286.995	-28.67
287.21	-8.19
287.425	12.29
287.64	22.53
287.855	24.58
288.07	55.3
288.285	10.24
288.5	22.53
288.715	112.64
288.93	8.19
289.145	16.38
289.36	-32.77
289.575	20.48
289.79	71.68
290.004	34.82
290.219	4.1
290.434	53.25
290.649	30.72
290.864	71.68
291.079	36.86
291.294	53.25
291.509	18.43
291.724	8.19
291.938	22.53
292.153	32.77
292.368	57.34
292.583	-16.38
292.798	102.4
293.012	-6.14
293.227	14.34
293.442	24.58
293.657	69.63
293.871	135.17
294.086	-4.1
294.301	26.62
294.516	28.67
294.73	71.68
294.945	34.82
295.16	120.83
295.374	63.49
295.589	57.34
295.804	57.34
296.018	71.68
296.233	81.92
296.447	-4.1
296.662	-24.58
296.877	-18.43
297.091	12.29
297.306	59.39
297.52	4.1
297.735	75.77
297.949	-20.48
298.164	47.1
298.378	55.3
298.593	63.49
298.807	49.15
299.022	10.24
299.236	-18.43
299.451	20.48
299.665	-18.43
299.88	6.14
300.094	-28.67
300.309	38.91
300.523	79.87
300.737	0
300.952	-18.43
301.166	40.96
301.381	26.62
301.595	43.01
301.809	73.73
302.024	-10.24
302.238	20.48
302.452	32.77
302.667	63.49
302.881	51.2
303.095	18.43
303.309	-8.19
303.524	40.96
303.738	-8.19
303.952	122.88
304.166	63.49
304.381	10.24
304.595	55.3
304.809	-18.43
305.023	73.73
305.237	-20.48
305.452	18.43
305.666	26.62
305.88	8.19
306.094	-4.1
306.308	81.92
306.522	43.01
306.736	-24.58
306.95	34.82
307.164	24.58
307.379	-18.43
307.593	79.87
307.807	6.14
308.021	61.44
308.235	59.39
308.449	18.43
308.663	6.14
308.877	65.53
309.091	14.34
309.305	26.62
309.519	-49.15
309.733	43.01
309.947	32.77
310.161	69.63
310.374	114.69
310.588	16.38
310.802	45.06
311.016	36.86
311.23	20.48
311.444	30.72
311.658	-26.62
311.872	77.82
312.085	16.38
312.299	120.83
312.513	-12.29
312.727	-43.01
312.941	18.43
313.154	53.25
313.368	38.91
313.582	-36.86
313.796	8.19
314.009	32.77
314.223	22.53
314.437	-32.77
314.651	34.82
314.864	40.96
315.078	-24.58
315.292	12.29
315.505	14.34
315.719	8.19
315.933	-30.72
316.146	-20.48
316.36	67.58
316.573	43.01
316.787	-22.53
317.001	-16.38
317.214	86.01
317.428	-20.48
317.641	-16.38
317.855	69.63
318.068	-28.67
318.282	18.43
318.495	55.3
318.709	53.25
318.922	30.72
319.136	59.39
319.349	14.34
319.563	26.62
319.776	47.1
319.99	4.1
320.203	73.73
320.417	49.15
320.63	-20.48
320.843	-6.14
321.057	47.1
321.27	-22.53
321.483	59.39
321.697	63.49
321.91	30.72
322.124	81.92
322.337	16.38
322.55	118.78
322.763	20.48
322.977	86.01
323.19	12.29
323.403	47.1
323.617	69.63
323.83	18.43
324.043	83.97
324.256	59.39
324.469	49.15
324.683	2.05
324.896	4.1
325.109	61.44
325.322	18.43
325.535	32.77
325.748	-10.24
325.962	4.1
326.175	36.86
326.388	61.44
326.601	61.44
326.814	10.24
327.027	57.34
327.24	55.3
327.453	18.43
327.666	88.06
327.879	67.58
328.092	63.49
328.305	100.35
328.518	14.34
328.731	55.3
328.944	18.43
329.157	36.86
329.37	57.34
329.583	61.44
329.796	49.15
330.009	67.58
330.222	77.82
330.435	-4.1
330.648	43.01
330.861	22.53
331.073	51.2
331.286	45.06
331.499	-12.29
331.712	10.24
331.925	20.48
332.138	4.1
332.35	61.44
332.563	65.53
332.776	8.19
332.989	0
333.202	0
333.414	32.77
333.627	-6.14
333.84	53.25
334.053	45.06
334.265	-57.34
334.478	55.3
334.691	-4.1
334.903	79.87
335.116	-2.05
335.329	59.39
335.541	45.06
335.754	59.39
335.966	12.29
336.179	63.49
336.392	40.96
336.604	28.67
336.817	-12.29
337.029	10.24
337.242	77.82
337.454	34.82
337.667	2.05
337.88	86.01
338.092	47.1
338.305	65.53
338.517	24.58
338.729	32.77
338.942	67.58
339.154	57.34
339.367	-94.21
339.579	20.48
339.792	-30.72
340.004	51.2
340.217	75.77
340.429	45.06
340.641	36.86
340.854	-4.1
341.066	-36.86
341.278	69.63
341.491	59.39
341.703	92.16
341.915	32.77
342.128	53.25
342.34	59.39
342.552	71.68
342.764	14.34
342.977	12.29
343.189	16.38
343.401	32.77
343.613	-14.34
343.826	18.43
344.038	51.2
344.25	-18.43
344.462	-18.43
344.674	83.97
344.886	24.58
345.099	34.82
345.311	8.19
345.523	69.63
345.735	61.44
345.947	69.63
346.159	114.69
346.371	0
346.583	22.53
346.795	69.63
347.007	16.38
347.219	8.19
347.431	59.39
347.643	18.43
347.855	24.58
348.067	38.91
348.279	-22.53
348.491	51.2
348.703	32.77
348.915	43.01
349.127	-10.24
349.339	59.39
349.551	16.38
349.763	102.4
349.975	69.63
350.187	0
350.399	102.4
350.61	24.58
350.822	8.19
351.034	4.1
351.246	28.67
351.458	6.14
351.669	32.77
351.881	120.83
352.093	10.24
352.305	51.2
352.517	83.97
352.728	51.2
352.94	36.86
353.152	53.25
353.363	36.86
353.575	114.69
353.787	-6.14
353.999	30.72
354.21	45.06
354.422	43.01
354.633	-38.91
354.845	-4.1
355.057	32.77
355.268	49.15
355.48	28.67
355.692	28.67
355.903	12.29
356.115	43.01
356.326	75.77
356.538	77.82
356.749	2.05
356.961	-2.05
357.172	20.48
357.384	38.91
357.595	43.01
357.807	51.2
358.018	-8.19
358.23	18.43
358.441	20.48
358.653	108.54
358.864	73.73
359.075	83.97
359.287	45.06
359.498	4.1
359.709	57.34
359.921	-2.05
360.132	79.87
360.344	67.58
360.555	51.2
360.766	55.3
360.977	-4.1
361.189	73.73
361.4	98.3
361.611	-18.43
361.823	59.39
362.034	-22.53
362.245	65.53
362.456	32.77
362.667	10.24
362.879	28.67
363.09	-6.14
363.301	-32.77
363.512	22.53
363.723	36.86
363.935	12.29
364.146	-10.24
364.357	51.2
364.568	2.05
364.779	-28.67
364.99	137.21
365.201	30.72
365.412	73.73
365.623	47.1
365.834	4.1
366.045	-18.43
366.256	4.1
366.467	-61.44
366.678	83.97
366.889	-10.24
367.1	20.48
367.311	36.86
367.522	63.49
367.733	18.43
367.944	4.1
368.155	40.96
368.366	83.97
368.577	47.1
368.788	43.01
368.999	-16.38
369.209	51.2
369.42	38.91
369.631	129.02
369.842	14.34
370.053	57.34
370.264	20.48
370.474	90.11
370.685	51.2
370.896	40.96
371.107	24.58
371.317	83.97
371.528	12.29
371.739	75.77
371.95	28.67
372.16	59.39
372.371	49.15
372.582	98.3
372.792	40.96
373.003	22.53
373.214	30.72
373.424	10.24
373.635	-36.86
373.846	24.58
374.056	98.3
374.267	6.14
374.477	14.34
374.688	32.77
374.898	81.92
375.109	49.15
375.319	8.19
375.53	77.82
375.74	30.72
375.951	69.63
376.161	-8.19
376.372	116.73
376.582	55.3
376.793	-18.43
377.003	90.11
377.214	28.67
377.424	43.01
377.635	36.86
377.845	10.24
378.055	67.58
378.266	-57.34
378.476	73.73
378.686	2.05
378.897	-2.05
379.107	-20.48
379.317	61.44
379.528	-18.43
379.738	40.96
379.948	36.86
380.158	114.69
380.369	32.77
380.579	43.01
380.789	-43.01
380.999	81.92
381.21	8.19
381.42	28.67
381.63	-28.67
381.84	65.53
382.05	79.87
382.261	61.44
382.471	102.4
382.681	30.72
382.891	18.43
383.101	57.34
383.311	-6.14
383.521	32.77
383.731	28.67
383.941	16.38
384.151	55.3
384.361	73.73
384.571	-22.53
384.781	22.53
384.991	65.53
385.201	34.82
385.411	73.73
385.621	8.19
385.831	135.17
386.041	-22.53
386.251	53.25
386.461	61.44
386.671	73.73
386.881	45.06
387.091	26.62
387.301	0
387.511	22.53
387.72	40.96
387.93	90.11
388.14	38.91
388.35	2.05
388.56	108.54
388.769	88.06
388.979	81.92
389.189	22.53
389.399	30.72
389.609	83.97
389.818	-38.91
390.028	114.69
390.238	63.49
390.447	69.63
390.657	14.34
390.867	79.87
391.076	18.43
391.286	81.92
391.496	118.78
391.705	30.72
391.915	100.35
392.125	90.11
392.334	24.58
392.544	67.58
392.753	96.25
392.963	61.44
393.172	98.3
393.382	32.77
393.591	61.44
393.801	71.68
394.01	38.91
394.22	75.77
394.429	24.58
394.639	57.34
394.848	65.53
395.058	12.29
395.267	83.97
395.477	6.14
395.686	77.82
395.895	51.2
396.105	137.21
396.314	24.58
396.524	22.53
396.733	77.82
396.942	38.91
397.152	98.3
397.361	100.35
397.57	108.54
397.78	32.77
397.989	-6.14
398.198	153.6
398.407	43.01
398.617	73.73
398.826	108.54
399.035	100.35
399.244	73.73
399.453	86.01
399.663	116.73
399.872	135.17
400.081	108.54
400.29	65.53
400.499	133.12
400.708	34.82
400.917	61.44
401.127	-6.14
401.336	43.01
401.545	45.06
401.754	61.44
401.963	94.21
402.172	69.63
402.381	43.01
402.59	38.91
402.799	81.92
403.008	34.82
403.217	118.78
403.426	28.67
403.635	6.14
403.844	38.91
404.053	65.53
404.262	30.72
404.471	118.78
404.68	94.21
404.888	73.73
405.097	55.3
405.306	90.11
405.515	83.97
405.724	114.69
405.933	124.93
406.142	122.88
406.35	38.91
406.559	75.77
406.768	145.41
406.977	90.11
407.185	67.58
407.394	98.3
407.603	90.11
407.812	129.02
408.02	102.4
408.229	104.45
408.438	83.97
408.646	129.02
408.855	131.07
409.064	4.1
409.272	163.84
409.481	227.32
409.69	190.46
409.898	176.13
410.107	139.26
410.315	182.27
410.524	186.37
410.733	208.89
410.941	133.12
411.15	243.71
411.358	180.22
411.567	108.54
411.775	219.13
411.984	194.56
412.192	225.28
412.401	210.94
412.609	227.32
412.818	268.28
413.026	231.42
413.234	243.71
413.443	217.08
413.651	292.86
413.86	284.67
414.068	296.96
414.276	239.61
414.485	282.62
414.693	288.76
414.901	395.26
415.11	274.43
415.318	344.06
415.526	296.96
415.734	372.73
415.943	350.2
416.151	387.07
416.359	436.22
416.567	417.79
416.776	335.87
416.984	499.7
417.192	483.32
417.4	477.18
417.608	407.55
417.817	473.08
418.025	452.6
418.233	565.24
418.441	536.57
418.649	585.72
418.857	565.24
419.065	602.1
419.273	591.86
419.481	626.68
419.689	688.12
419.897	673.78
420.105	741.36
420.313	720.88
420.521	786.42
420.729	739.32
420.937	669.69
421.145	880.63
421.353	790.52
421.561	878.58
421.769	858.1
421.977	933.87
422.185	944.11
422.393	1017.84
422.601	1023.98
422.809	1023.98
423.017	1075.18
423.224	1110
423.432	1114.1
423.64	1085.42
423.848	1288.17
424.056	1277.93
424.263	1357.8
424.471	1378.28
424.679	1359.85
424.887	1398.76
425.094	1515.5
425.302	1472.49
425.51	1521.64
425.718	1593.32
425.925	1589.22
426.133	1593.32
426.341	1615.85
426.548	1742.82
426.756	1859.56
426.964	1759.21
427.171	1953.76
427.379	1892.32
427.586	2062.3
427.794	2054.11
428.001	2101.22
428.209	2248.67
428.417	2209.76
428.624	2252.77
428.832	2461.66
429.039	2324.44
429.247	2295.77
429.454	2557.91
429.662	2678.74
429.869	2654.17
430.076	2738.13
430.284	2539.48
430.491	2699.22
430.699	2881.49
430.906	2875.35
431.114	3012.56
431.321	3100.62
431.528	3157.97
431.736	3336.14
431.943	3401.68
432.15	3256.27
432.358	3342.28
432.565	3600.33
432.772	3430.35
432.979	3676.1
433.187	3872.71
433.394	3815.37
433.601	4145.09
433.808	4044.74
434.016	3899.33
434.223	4274.11
434.43	4427.71
434.637	4247.49
434.844	4575.16
435.052	4646.84
435.259	4698.04
435.466	4671.42
435.673	4695.99
435.88	5048.24
436.087	5283.76
436.294	5046.19
436.501	5146.55
436.708	5289.9
436.915	5396.4
437.122	5560.24
437.329	5582.76
437.537	5679.02
437.743	6016.93
437.95	5849
438.157	6250.4
438.364	6389.66
438.571	6365.09
438.778	6410.14
438.985	6827.93
439.192	6746.01
439.399	6934.42
439.606	6920.09
439.813	7126.93
440.02	7624.59
440.227	7387.02
440.433	7307.15
440.64	7722.89
440.847	7669.64
441.054	7708.55
441.261	8245.12
441.467	8216.45
441.674	8316.8
441.881	8580.99
442.088	8597.37
442.294	8531.84
442.501	8630.14
442.708	8939.38
442.914	9193.33
443.121	9824.11
443.328	9547.63
443.534	10053.48
443.741	9840.49
443.948	9635.69
444.154	10358.63
444.361	10350.43
444.568	10350.43
444.774	10577.76
444.981	10311.52
445.187	10567.52
445.394	11298.64
445.6	11061.08
445.807	12171.08
446.013	11761.48
446.22	11796.3
446.426	12347.2
446.633	12549.95
446.839	12808
447.046	12175.17
447.252	12994.36
447.459	12746.56
447.665	12941.11
447.871	13373.24
448.078	14028.59
448.284	13371.19
448.491	13805.36
448.697	14214.95
448.903	14442.28
449.11	14626.59
449.316	14274.34
449.522	14698.27
449.728	14825.25
449.935	15013.66
450.141	14937.88
450.347	15367.96
450.553	14831.39
450.76	14944.03
450.966	15580.95
451.172	15267.61
451.378	16056.07
451.584	15384.34
451.791	15951.63
451.997	15585.04
452.203	15982.35
452.409	15836.94
452.615	15808.27
452.821	15378.2
453.027	15056.67
453.233	15861.52
453.44	15126.3
453.646	15478.55
453.852	15521.56
454.058	15724.3
454.264	15091.48
454.47	15382.29
454.676	15015.71
454.882	15830.8
455.088	14438.18
455.294	14225.19
455.5	14821.15
455.705	14716.7
455.911	14081.83
456.117	14020.39
456.323	13498.16
456.529	12986.17
456.735	13494.07
456.941	13039.42
457.147	12758.85
457.352	12500.8
457.558	12529.47
457.764	12560.19
457.97	12312.39
458.176	12007.24
458.381	11919.18
458.587	11163.48
458.793	11261.78
458.999	10788.7
459.204	11497.3
459.41	11239.25
459.616	10372.96
459.821	10434.4
460.027	10389.35
460.233	10006.38
460.438	9740.14
460.644	9863.02
460.85	9416.56
461.055	9082.74
461.261	9092.98
461.466	8468.35
461.672	8193.92
461.878	8869.75
462.083	8195.97
462.289	8157.06
462.494	8048.52
462.7	7769.99
462.905	7405.45
463.111	7739.27
463.316	7776.14
463.522	7528.33
463.727	7712.65
463.932	7595.92
464.138	7683.98
464.343	7546.76
464.549	7405.45
464.754	7675.79
464.959	7464.85
465.165	7692.17
465.37	7245.71
465.575	7118.74
465.781	7264.15
465.986	7315.34
466.191	6942.61
466.397	6793.11
466.602	6557.6
466.807	6815.64
467.012	6881.18
467.218	6797.21
467.423	6772.63
467.628	6735.77
467.833	7116.69
468.038	6922.13
468.244	6721.43
468.449	6893.46
468.654	6680.47
468.859	6655.9
469.064	6676.38
469.269	6387.61
469.474	6320.03
469.679	6469.53
469.885	6459.29
470.09	6309.79
470.295	6358.94
470.5	6164.39
470.705	6051.75
470.91	6170.53
471.115	5838.76
471.32	6166.43
471.525	6008.74
471.73	5928.87
471.935	5881.77
472.139	5859.24
472.344	5709.74
472.549	5787.56
472.754	5719.98
472.959	5642.15
473.164	5400.49
473.369	5431.21
473.574	5564.33
473.778	5537.71
473.983	5171.12
474.188	5533.61
474.393	5044.15
474.598	5345.2
474.802	5185.46
475.007	5240.75
475.212	5193.65
475.417	4913.08
475.621	4886.45
475.826	5158.83
476.031	4855.73
476.235	4872.12
476.44	4804.53
476.645	4784.05
476.849	4917.17
477.054	4581.31
477.259	4763.58
477.463	4640.7
477.668	4564.92
477.872	4609.98
478.077	4589.5
478.282	4388.8
478.486	4452.28
478.691	4292.54
478.895	4298.69
479.1	4335.55
479.304	4212.67
479.509	4175.81
479.713	4364.22
479.918	4192.19
480.122	4194.24
480.326	4259.77
480.531	4276.16
480.735	4184
480.94	4009.92
481.144	4296.64
481.348	4052.93
481.553	4059.07
481.757	3956.68
481.961	4009.92
482.166	4032.45
482.37	3925.96
482.574	3962.82
482.778	3889.09
482.983	4059.07
483.187	4143.04
483.391	3985.35
483.595	4034.5
483.8	4026.31
484.004	3973.06
484.208	4181.95
484.412	4009.92
484.616	4016.07
484.821	4120.51
485.025	4009.92
485.229	4040.64
485.433	4052.93
485.637	4009.92
485.841	4061.12
486.045	3958.72
486.249	3983.3
486.453	3950.53
486.657	3975.11
486.861	4077.51
487.065	3885
487.269	4016.07
487.473	4095.94
487.677	4069.31
487.881	4181.95
488.085	4087.75
488.289	3905.48
488.493	4079.55
488.697	4097.99
488.901	3985.35
489.105	4054.98
489.309	4128.7
489.512	4130.75
489.716	4126.66
489.92	4136.9
490.124	3923.91
490.328	4126.66
490.531	4165.57
490.735	4218.82
490.939	4210.62
491.143	4095.94
491.346	4208.58
491.55	4229.06
491.754	4300.73
491.958	4224.96
492.161	4179.9
492.365	4396.99
492.569	4282.3
492.772	4239.3
492.976	4145.09
493.18	4419.52
493.383	4370.37
493.587	4370.37
493.79	4483
493.994	4405.18
494.197	4450.24
494.401	4523.96
494.605	4538.3
494.808	4708.28
495.012	4642.75
495.215	4685.75
495.419	4722.62
495.622	4825.01
495.825	4648.89
496.029	4769.72
496.232	4759.48
496.436	4726.71
496.639	5107.63
496.843	4943.8
497.046	5070.77
497.249	5242.8
497.453	5234.61
497.656	5164.98
497.859	5261.23
498.063	5472.17
498.266	5267.38
498.469	5423.02
498.673	5523.37
498.876	5443.5
499.079	5588.91
499.282	5539.76
499.485	5580.71
499.689	5728.17
499.892	5986.21
500.095	5885.86
500.298	6053.8
500.501	5918.63
500.705	6287.26
500.908	6219.68
501.111	6311.84
501.314	6576.03
501.517	6350.75
501.72	6473.63
501.923	6518.68
502.126	6698.91
502.329	6705.05
502.532	6727.58
502.735	6750.1
502.938	6895.51
503.141	7042.96
503.344	7069.59
503.547	7112.6
503.75	7374.74
503.953	7296.91
504.156	7413.65
504.359	7538.57
504.562	7636.88
504.765	7929.73
504.968	7886.73
505.17	7999.37
505.373	8120.2
505.576	8281.99
505.779	8269.7
505.982	8327.04
506.185	8365.95
506.387	8591.23
506.59	8740.73
506.793	8920.95
506.996	8744.83
507.198	8935.29
507.401	8953.72
507.604	9174.9
507.807	9584.49
508.009	9494.38
508.212	9451.38
508.415	9643.88
508.617	9729.9
508.82	9795.43
509.022	9885.55
509.225	10004.33
509.428	10282.85
509.63	10323.81
509.833	10395.49
510.035	10764.12
510.238	10588
510.44	10946.39
510.643	11052.89
510.845	10903.39
511.048	11042.65
511.25	11394.9
511.453	11343.7
511.655	11718.48
511.858	11763.53
512.06	11749.2
512.262	12134.21
512.465	11910.99
512.667	12347.2
512.87	12377.92
513.072	12394.31
513.274	12975.93
513.477	12752.7
513.679	13233.97
513.881	13188.92
514.084	13162.3
514.286	13190.97
514.488	13440.82
514.69	13928.24
514.893	14051.11
515.095	14092.07
515.297	14348.07
515.499	13860.65
515.701	14577.44
515.904	14647.07
516.106	14806.81
516.308	14872.35
516.51	15255.32
516.712	15386.39
516.914	15499.03
517.116	15556.37
517.318	15718.16
517.52	15851.28
517.722	15898.38
517.925	16420.61
518.127	16529.16
518.329	16862.97
518.531	16516.87
518.733	16805.63
518.935	16965.37
519.136	17262.33
519.338	17657.59
519.54	17729.27
519.742	17944.3
519.944	17870.58
520.146	18208.49
520.348	18530.02
520.55	18378.47
520.752	18794.21
520.954	18933.47
521.155	18878.18
521.357	19304.15
521.559	19408.6
521.761	19685.08
521.963	19652.31
522.164	19891.92
522.366	20215.5
522.568	20360.91
522.77	20367.05
522.971	20680.39
523.173	20621
523.375	20684.48
523.576	20891.33
523.778	20942.53
523.98	21323.45
524.181	21622.45
524.383	21503.67
524.584	21585.59
524.786	21759.67
524.988	21573.3
525.189	22087.34
525.391	22128.3
525.592	22171.31
525.794	22531.75
525.995	22943.39
526.197	22650.53
526.398	22437.55
526.6	22998.69
526.801	23066.27
527.003	23021.22
527.204	23066.27
527.406	23623.32
527.607	23492.25
527.808	23760.53
528.01	23217.82
528.211	23543.45
528.412	23787.16
528.614	23740.05
528.815	23768.73
529.016	23899.8
529.218	23871.12
529.419	24116.88
529.62	23994
529.822	24383.12
530.023	24223.37
530.224	24338.06
530.425	24407.69
530.626	24336.01
530.828	24358.54
531.029	24874.63
531.23	24364.68
531.431	24567.43
531.632	24977.03
531.833	24653.45
532.035	24786.57
532.236	24823.43
532.437	24823.43
532.638	24723.08
532.839	25224.83
533.04	25282.17
533.241	24878.72
533.442	25484.92
533.643	25151.1
533.844	25192.06
534.045	25247.36
534.246	24802.95
534.447	25220.74
534.648	25177.73
534.849	25124.48
535.05	25226.88
535.251	25519.74
535.451	25151.1
535.652	25273.98
535.853	24897.16
536.054	25230.97
536.255	25468.54
536.456	25228.93
536.657	25316.99
536.857	25314.94
537.058	25448.06
537.259	25448.06
537.46	25691.77
537.66	25536.12
537.861	25462.4
538.062	25521.79
538.263	25595.51
538.463	25360
538.664	25351.81
538.865	25640.57
539.065	25904.76
539.266	25058.95
539.466	25650.81
539.667	25364.09
539.868	25591.42
540.068	25667.19
540.269	25204.35
540.469	25511.55
540.67	25695.86
540.87	25353.85
541.071	25511.55
541.271	25558.65
541.472	25450.11
541.672	25618.04
541.873	25343.61
542.073	24716.93
542.274	26060.4
542.474	25577.08
542.675	25327.23
542.875	25458.3
543.075	25493.11
543.276	25009.79
543.476	25695.86
543.676	25263.74
543.877	25546.36
544.077	25464.44
544.277	25587.32
544.478	25595.51
544.678	25763.45
544.878	25296.51
545.078	25661.05
545.279	25302.65
545.479	25310.85
545.679	25560.7
545.879	25611.9
546.079	25532.03
546.28	25581.18
546.48	25198.21
546.68	25572.99
546.88	25312.89
547.08	25529.98
547.28	25607.8
547.48	25446.01
547.68	25615.99
547.88	25386.62
548.081	25910.9
548.281	26037.87
548.481	25378.43
548.681	25691.77
548.881	25396.86
549.081	25659
549.28	25390.72
549.48	25538.17
549.68	25304.7
549.88	25861.75
550.08	25403
550.28	25456.25
550.48	25521.79
550.68	25669.24
550.88	25433.72
551.08	25403
551.279	25425.53
551.479	25638.52
551.679	25615.99
551.879	25548.41
552.079	25562.75
552.278	25073.28
552.478	25306.75
552.678	25343.61
552.878	25427.58
553.077	25542.27
553.277	25222.78
553.477	25566.84
553.676	25337.47
553.876	25370.24
554.076	25187.97
554.275	25427.58
554.475	24938.12
554.674	25392.76
554.874	25378.43
555.074	25116.29
555.273	24761.99
555.473	25200.26
555.672	25114.24
555.872	25110.14
556.071	25116.29
556.271	25355.9
556.47	25071.23
556.67	24936.07
556.869	25112.19
557.068	24876.68
557.268	24524.43
557.467	24573.58
557.667	24692.36
557.866	24637.06
558.065	24710.79
558.265	24841.86
558.464	24618.63
558.663	24614.54
558.863	24209.04
559.062	25190.02
559.261	24544.91
559.461	24796.81
559.66	24315.53
559.859	24897.16
560.058	24446.6
560.258	24663.69
560.457	24368.78
560.656	24411.79
560.855	24137.36
561.054	24250
561.253	23946.9
561.453	24176.27
561.652	24161.94
561.851	24206.99
562.05	24149.65
562.249	23871.12
562.448	24108.69
562.647	24041.11
562.846	24006.29
563.045	24024.72
563.244	23879.32
563.443	23932.56
563.642	23436.95
563.841	23897.75
564.04	23637.66
564.239	23756.44
564.438	23377.56
564.637	23611.03
564.836	23791.25
565.035	23408.28
565.234	23305.88
565.432	23377.56
565.631	23199.39
565.83	23602.84
566.029	23137.95
566.228	23209.63
566.427	23338.65
566.625	23121.57
566.824	22910.63
567.023	23238.3
567.222	22832.8
567.42	22906.53
567.619	22695.59
567.818	22648.49
568.016	23084.7
568.215	22732.45
568.414	22380.2
568.612	22988.45
568.811	22404.78
569.01	22841
569.208	22349.48
569.407	22589.1
569.605	22126.25
569.804	22527.66
570.002	22030
570.201	22142.64
570.4	22085.29
570.598	22148.78
570.797	21792.44
570.995	21599.93
571.193	21515.96
571.392	21919.41
571.59	21620.41
571.789	21792.44
571.987	21456.57
572.186	21302.97
572.384	21286.59
572.582	21571.25
572.781	21378.75
572.979	20864.71
573.177	21237.44
573.376	21194.43
573.574	20649.67
573.772	21014.21
573.971	20969.15
574.169	21040.83
574.367	20922.05
574.565	20778.69
574.763	20610.76
574.962	20715.2
575.16	20174.54
575.358	20612.81
575.556	20446.92
575.754	20633.29
575.952	20147.92
576.151	20254.41
576.349	20154.06
576.547	19773.14
576.745	19973.84
576.943	20158.16
577.141	19891.92
577.339	20190.92
577.537	19711.7
577.735	20074.19
577.933	19656.4
578.131	19795.67
578.329	19408.6
578.527	19396.31
578.725	19537.62
578.923	19478.23
579.121	19263.19
579.319	19132.12
579.516	19326.68
579.714	19214.04
579.912	19130.08
580.11	19056.35
580.308	18972.38
580.506	18771.68
580.704	18466.53
580.901	18726.63
581.099	18978.53
581.297	18687.71
581.495	18824.93
581.692	18847.46
581.89	18538.21
582.088	18591.46
582.285	18302.7
582.483	18493.16
582.681	18370.28
582.878	18206.44
583.076	18220.78
583.274	18247.4
583.471	17966.83
583.669	17809.14
583.866	17860.34
584.064	18138.86
584.262	17772.27
584.459	17964.78
584.657	17590
584.854	17886.96
585.052	17241.85
585.249	17440.5
585.447	17495.8
585.644	17274.62
585.841	17481.46
586.039	17542.9
586.236	17219.32
586.434	17137.4
586.631	17372.92
586.828	17342.2
587.026	17225.47
587.223	17149.69
587.42	17063.68
587.618	17108.73
587.815	16830.21
588.012	16959.23
588.21	16639.75
588.407	16899.84
588.604	16666.37
588.801	16645.89
588.999	16498.44
589.196	16475.91
589.393	16402.18
589.59	16406.28
589.787	16520.96
589.984	16434.95
590.182	16076.55
590.379	16439.05
590.576	16160.52
590.773	16199.43
590.97	15900.43
591.167	16199.43
591.364	15814.41
591.561	15988.49
591.758	16011.02
591.955	15902.48
592.152	15669.01
592.349	15851.28
592.546	15849.23
592.743	15789.84
592.94	15337.24
593.137	15671.06
593.334	15474.45
593.531	15296.28
593.727	15163.16
593.924	15390.49
594.121	15191.83
594.318	15361.81
594.515	15085.34
594.712	15197.98
594.908	15124.25
595.105	15075.1
595.302	15011.61
595.499	15011.61
595.696	14997.28
595.892	14927.64
596.089	15329.05
596.286	14647.07
596.482	14815.01
596.679	14659.36
596.876	14880.54
597.072	14548.77
597.269	14675.74
597.466	14567.2
597.662	14554.91
597.859	14647.07
598.055	14548.77
598.252	14384.93
598.448	14540.58
598.645	14397.22
598.841	14499.62
599.038	14235.43
599.234	14165.8
599.431	14096.17
599.627	14075.69
599.824	14284.58
600.02	13905.71
600.217	14149.42
600.413	13809.45
600.609	13918
600.806	13901.61
601.002	13993.77
601.198	13367.09
601.395	13645.62
601.591	13666.1
601.787	13594.42
601.984	13520.69
602.18	13711.15
602.376	13510.45
602.572	13512.5
602.769	13551.41
602.965	13209.4
603.161	13342.52
603.357	13160.25
603.553	13326.13
603.75	13299.51
603.946	13090.62
604.142	13102.9
604.338	12816.19
604.534	13154.1
604.73	12730.17
604.926	12994.36
605.122	12779.33
605.318	12828.48
605.514	12621.63
605.71	12584.77
605.906	12660.54
606.102	12592.96
606.298	12773.18
606.494	12582.72
606.69	12576.58
606.886	12511.04
607.082	12361.54
607.278	12590.91
607.474	12275.52
607.67	12457.79
607.866	12173.13
608.062	12457.79
608.257	12207.94
608.453	12154.69
608.649	12281.67
608.845	12199.75
609.041	12115.78
609.236	12074.82
609.432	11976.52
609.628	12040.01
609.824	11841.36
610.019	12083.02
610.215	11845.45
610.411	11820.88
610.606	11890.51
610.802	11806.54
610.998	11650.89
611.193	11734.86
611.389	11718.48
611.584	11622.22
611.78	11521.87
611.976	11552.59
612.171	11501.39
612.367	11544.4
612.562	11425.62
612.758	11181.91
612.953	11237.2
613.149	11333.46
613.344	11247.44
613.539	11368.27
613.735	11272.02
613.93	11208.53
614.126	11186.01
614.321	11134.81
614.517	11061.08
614.712	11063.13
614.907	11067.22
615.103	10919.77
615.298	10800.99
615.493	11147.09
615.688	10823.51
615.884	11024.22
616.079	10757.98
616.274	10725.21
616.47	10792.8
616.665	10936.15
616.86	10731.36
617.055	10678.11
617.25	10524.51
617.445	10596.19
617.641	10608.48
617.836	10426.21
618.031	10477.41
618.226	10499.94
618.421	10463.07
618.616	10463.07
618.811	10366.82
619.006	10327.91
619.201	10391.39
619.396	10227.56
619.591	9881.45
619.786	10059.62
619.981	10100.58
620.176	10119.01
620.371	9834.35
620.566	9811.82
620.761	10143.59
620.956	10000.23
621.151	9592.69
621.346	9877.35
621.541	9783.15
621.735	9750.38
621.93	9602.93
622.125	9656.17
622.32	9269.11
622.515	9555.82
622.709	9416.56
622.904	9258.87
623.099	9285.49
623.294	9303.92
623.488	9092.98
623.683	9140.08
623.878	9109.36
624.072	9082.74
624.267	9011.06
624.462	9080.69
624.656	8822.65
624.851	8912.76
625.046	8683.39
625.24	8904.57
625.435	8652.67
625.629	8759.16
625.824	8576.89
626.018	8759.16
626.213	8445.82
626.407	8638.33
626.602	8449.92
626.796	8476.54
626.991	8273.79
627.185	8161.16
627.38	8236.93
627.574	8251.27
627.768	8212.35
627.963	8054.66
628.157	8073.09
628.352	7907.21
628.546	8040.33
628.74	7964.55
628.935	7991.17
629.129	7921.54
629.323	7708.55
629.517	7870.34
629.712	7851.91
629.906	7722.89
630.1	7544.72
630.294	7618.44
630.489	7694.22
630.683	7665.55
630.877	7366.54
631.071	7624.59
631.265	7542.67
631.459	7464.85
631.653	7427.98
631.848	7391.12
632.042	7196.56
632.236	7212.95
632.43	7387.02
632.624	7219.09
632.818	7305.1
633.012	7153.55
633.206	6915.99
633.4	6946.71
633.594	6971.29
633.788	7038.87
633.982	6913.94
634.176	6946.71
634.369	6932.37
634.563	6770.58
634.757	6866.84
634.951	6786.97
635.145	6727.58
635.339	6909.85
635.533	6700.95
635.726	6576.03
635.92	6471.58
636.114	6455.2
636.308	6455.2
636.501	6612.89
636.695	6582.17
636.889	6305.7
637.083	6506.4
637.276	6303.65
637.47	6137.76
637.664	6426.53
637.857	6270.88
638.051	6213.54
638.244	6127.52
638.438	6156.19
638.632	6035.36
638.825	6125.47
639.019	5928.87
639.212	6023.08
639.406	5996.45
639.599	5705.64
639.793	5896.1
639.986	5801.9
640.18	5861.29
640.373	5877.67
640.567	5828.52
640.76	5662.63
640.954	5785.51
641.147	5578.67
641.34	5652.39
641.534	5533.61
641.727	5580.71
641.92	5580.71
642.114	5382.06
642.307	5382.06
642.5	5441.45
642.694	5412.78
642.887	5433.26
643.08	5332.91
643.273	5234.61
643.467	5132.21
643.66	5248.94
643.853	5328.81
644.046	5199.79
644.239	5236.66
644.432	4960.18
644.626	5019.57
644.819	4974.52
645.012	5087.15
645.205	5038
645.398	4951.99
645.591	4782.01
645.784	4908.98
645.977	4769.72
646.17	4853.69
646.363	4835.25
646.556	4581.31
646.749	4734.9
646.942	4712.38
647.135	4548.54
647.328	4655.03
647.521	4661.18
647.714	4630.46
647.907	4542.39
648.099	4589.5
648.292	4726.71
648.485	4444.09
648.678	4382.65
648.871	4251.58
649.064	4478.91
649.256	4347.84
649.449	4394.94
649.642	4222.91
649.835	4261.82
650.027	4331.45
650.22	4239.3
650.413	4136.9
650.605	4237.25
650.798	4239.3
650.991	4087.75
651.183	4069.31
651.376	4034.5
651.568	4009.92
651.761	4044.74
651.954	4001.73
652.146	3866.56
652.339	3977.16
652.531	3895.24
652.724	3815.37
652.916	3747.78
653.109	3776.45
653.301	3882.95
653.494	3792.84
653.686	3663.82
653.879	3860.42
654.071	3651.53
654.263	3665.86
654.456	3751.88
654.648	3680.2
654.84	3721.16
655.033	3620.81
655.225	3637.19
655.417	3551.18
655.61	3637.19
655.802	3491.79
655.994	3508.17
656.186	3442.64
656.379	3436.49
656.571	3411.92
656.763	3375.05
656.955	3375.05
657.148	3420.11
657.34	3336.14
657.532	3350.48
657.724	3186.64
657.916	3231.69
658.108	3071.95
658.3	3256.27
658.492	3141.58
658.684	3119.06
658.876	3037.14
659.068	3061.71
659.26	3147.73
659.452	3145.68
659.644	3057.62
659.836	3078.1
660.028	3155.92
660.22	3026.9
660.412	3002.32
660.604	2920.4
660.796	2924.5
660.988	2877.4
661.18	2930.64
661.372	2842.58
661.563	2883.54
661.755	2856.92
661.947	2854.87
662.139	2901.97
662.331	2738.13
662.522	2838.48
662.714	2725.85
662.906	2770.9
663.097	2723.8
663.289	2775
663.481	2680.79
663.673	2707.41
663.864	2697.17
664.056	2703.32
664.247	2633.69
664.439	2586.58
664.631	2539.48
664.822	2572.25
665.014	2521.05
665.205	2508.76
665.397	2459.61
665.588	2521.05
665.78	2596.82
665.971	2306.01
666.163	2453.47
666.354	2396.12
666.546	2437.08
666.737	2467.8
666.929	2461.66
667.12	2418.65
667.311	2435.03
667.503	2351.07
667.694	2314.2
667.885	2322.4
668.077	2318.3
668.268	2400.22
668.459	2199.52
668.651	2287.58
668.842	2396.12
669.033	2168.8
669.224	2367.45
669.416	2234.33
669.607	2299.87
669.798	2244.57
669.989	2320.35
670.18	2248.67
670.371	2355.16
670.563	2170.85
670.754	2125.79
670.945	2109.41
671.136	2222.05
671.327	2138.08
671.518	2111.46
671.709	2127.84
671.9	2158.56
672.091	2136.03
672.282	2090.98
672.473	1980.39
672.664	2039.78
672.855	2097.12
673.046	2209.76
673.237	2047.97
673.428	1998.82
673.619	2027.49
673.809	2127.84
674	2082.78
674.191	2054.11
674.382	2004.96
674.573	1984.48
674.764	1964
674.954	1951.71
675.145	2086.88
675.336	2013.15
675.527	1992.67
675.717	1937.38
675.908	1894.37
676.099	1949.67
676.289	1974.24
676.48	1871.84
676.671	1990.63
676.861	1941.47
677.052	1912.8
677.243	1982.43
677.433	1908.71
677.624	1820.64
677.814	1914.85
678.005	1939.43
678.195	2000.87
678.386	1918.95
678.576	1945.57
678.767	1880.04
678.957	1892.32
679.148	2043.87
679.338	1869.8
679.529	1900.51
679.719	1898.47
679.909	1920.99
680.1	1828.84
680.29	1841.12
680.481	1900.51
680.671	1888.23
680.861	1834.98
681.052	1843.17
681.242	1804.26
681.432	1814.5
681.622	1855.46
681.813	1865.7
682.003	1869.8
682.193	1875.94
682.383	1818.6
682.573	1812.45
682.764	1849.32
682.954	1808.36
683.144	1783.78
683.334	1777.64
683.524	1828.84
683.714	1820.64
683.904	1744.87
684.094	1736.68
684.284	1781.73
684.474	1853.41
684.664	1841.12
684.854	1802.21
685.044	1781.73
685.234	1765.35
685.424	1884.13
685.614	1734.63
685.804	1834.98
685.994	1677.29
686.184	1697.77
686.374	1804.26
686.564	1740.77
686.753	1744.87
686.943	1904.61
687.133	1716.2
687.323	1712.1
687.513	1718.25
687.702	1763.3
687.892	1693.67
688.082	1775.59
688.272	1728.49
688.461	1748.97
688.651	1648.61
688.841	1683.43
689.03	1650.66
689.22	1818.6
689.41	1759.21
689.599	1699.81
689.789	1734.63
689.979	1656.81
690.168	1757.16
690.358	1765.35
690.547	1691.62
690.737	1736.68
690.926	1671.14
691.116	1619.94
691.305	1783.78
691.495	1607.66
691.684	1695.72
691.874	1683.43
692.063	1734.63
692.252	1662.95
692.442	1601.51
692.631	1775.59
692.82	1591.27
693.01	1761.25
693.199	1640.42
693.388	1615.85
693.578	1650.66
693.767	1769.44
693.956	1746.92
694.146	1667.05
694.335	1669.09
694.524	1656.81
694.713	1783.78
694.902	1755.11
695.092	1642.47
695.281	1671.14
695.47	1730.53
695.659	1710.05
695.848	1697.77
696.037	1689.57
696.226	1703.91
696.415	1693.67
696.604	1673.19
696.793	1734.63
696.982	1746.92
697.171	1796.07
697.36	1656.81
697.549	1771.49
697.738	1777.64
697.927	1703.91
698.116	1654.76
698.305	1701.86
698.494	1746.92
698.683	1722.34
698.872	1712.1
699.061	1681.38
699.25	1857.51
699.438	1605.61
699.627	1689.57
699.816	1669.09
700.005	1708.01
700.193	1628.14
700.382	1697.77
700.571	1675.24
700.76	1726.44
700.948	1673.19
701.137	1673.19
701.326	1683.43
701.514	1585.13
701.703	1744.87
701.892	1814.5
702.08	1796.07
702.269	1597.42
702.457	1607.66
702.646	1681.38
702.834	1689.57
703.023	1777.64
703.212	1638.37
703.4	1787.88
703.589	1720.29
703.777	1708.01
703.965	1665
704.154	1654.76
704.342	1662.95
704.531	1644.52
704.719	1644.52
704.907	1632.23
705.096	1652.71
705.284	1671.14
705.472	1615.85
705.661	1689.57
705.849	1671.14
706.037	1634.28
706.226	1617.9
706.414	1697.77
706.602	1650.66
706.79	1624.04
706.979	1634.28
707.167	1640.42
707.355	1564.65
707.543	1681.38
707.731	1710.05
707.919	1595.37
708.107	1642.47
708.296	1548.26
708.484	1581.03
708.672	1507.3
708.86	1581.03
709.048	1599.46
709.236	1470.44
709.424	1517.54
709.612	1603.56
709.8	1576.94
709.988	1558.5
710.176	1585.13
710.364	1574.89
710.551	1632.23
710.739	1521.64
710.927	1509.35
711.115	1517.54
711.303	1546.22
711.491	1548.26
711.679	1681.38
711.866	1513.45
712.054	1540.07
712.242	1488.87
712.43	1652.71
712.617	1497.07
712.805	1458.15
712.993	1478.63
713.181	1409
713.368	1396.71
713.556	1396.71
713.744	1458.15
713.931	1484.78
714.119	1415.15
714.306	1619.94
714.494	1384.43
714.682	1406.95
714.869	1454.06
715.057	1546.22
715.244	1341.42
715.432	1452.01
715.619	1402.86
715.807	1454.06
715.994	1374.19
716.182	1335.28
716.369	1456.11
716.556	1417.19
716.744	1296.36
716.931	1316.84
717.119	1355.76
717.306	1378.28
717.493	1265.64
717.681	1331.18
717.868	1322.99
718.055	1357.8
718.242	1351.66
718.43	1273.84
718.617	1378.28
718.804	1345.52
718.991	1343.47
719.179	1361.9
719.366	1216.49
719.553	1339.37
719.74	1300.46
719.927	1277.93
720.114	1335.28
720.301	1097.71
720.488	1298.41
720.676	1261.55
720.863	1265.64
721.05	1314.8
721.237	1263.6
721.424	1308.65
721.611	1222.64
721.798	1288.17
721.985	1167.34
722.172	1224.69
722.358	1331.18
722.545	1220.59
722.732	1105.9
722.919	1232.88
723.106	1142.77
723.293	1212.4
723.48	1269.74
723.667	1157.1
723.853	1196.01
724.04	1208.3
724.227	1120.24
724.414	1148.91
724.6	1089.52
724.787	1128.43
724.974	1226.73
725.161	1148.91
725.347	1204.21
725.534	1075.18
725.72	1302.51
725.907	1191.92
726.094	1173.49
726.28	1134.57
726.467	1105.9
726.653	1103.86
726.84	1077.23
727.027	1124.33
727.213	1130.48
727.4	1107.95
727.586	1132.53
727.773	1054.7
727.959	1153.01
728.145	1173.49
728.332	1034.22
728.518	1138.67
728.705	1163.25
728.891	1140.72
729.077	1085.42
729.264	1081.33
729.45	1085.42
729.636	1148.91
729.823	1079.28
730.009	1048.56
730.195	1066.99
730.382	1032.18
730.568	944.11
730.754	1105.9
730.94	1114.1
731.126	1050.61
731.313	1009.65
731.499	1036.27
731.685	1032.18
731.871	989.17
732.057	1064.94
732.243	983.02
732.429	1026.03
732.615	1054.7
732.801	1089.52
732.987	1023.98
733.173	960.5
733.359	952.31
733.545	970.74
733.731	960.5
733.917	1009.65
734.103	985.07
734.289	995.31
734.475	962.55
734.661	993.26
734.847	1015.79
735.033	946.16
735.219	937.97
735.404	870.39
735.59	978.93
735.776	985.07
735.962	1011.7
736.148	1044.46
736.333	985.07
736.519	917.49
736.705	915.44
736.89	944.11
737.076	927.73
737.262	1001.46
737.447	882.67
737.633	911.35
737.819	944.11
738.004	935.92
738.19	905.2
738.375	962.55
738.561	954.35
738.747	1026.03
738.932	884.72
739.118	954.35
739.303	886.77
739.489	1017.84
739.674	854
739.859	833.52
740.045	872.43
740.23	911.35
740.416	837.62
740.601	886.77
740.786	800.76
740.972	929.78
741.157	849.91
741.342	886.77
741.528	849.91
741.713	929.78
741.898	864.24
742.084	876.53
742.269	755.7
742.454	827.38
742.639	819.19
742.824	813.04
743.01	786.42
743.195	802.8
743.38	843.76
743.565	819.19
743.75	747.51
743.935	784.37
744.12	722.93
744.305	788.47
744.49	782.32
744.675	745.46
744.86	827.38
745.045	749.56
745.23	653.3
745.415	772.08
745.6	788.47
745.785	804.85
745.97	741.36
746.155	749.56
746.34	806.9
746.525	778.23
746.71	866.29
746.895	710.65
747.079	665.59
747.264	720.88
747.449	720.88
747.634	767.99
747.819	661.49
748.003	704.5
748.188	653.3
748.373	679.93
748.557	641.01
748.742	690.17
748.927	690.17
749.111	628.73
749.296	745.46
749.481	755.7
749.665	688.12
749.85	610.29
750.034	706.55
750.219	684.02
750.404	722.93
750.588	632.82
750.773	614.39
750.957	720.88
751.141	657.4
751.326	647.16
751.51	657.4
751.695	675.83
751.879	630.77
752.064	669.69
752.248	669.69
752.432	655.35
752.617	681.97
752.801	620.53
752.985	602.1
753.17	630.77
753.354	688.12
753.538	567.29
753.722	645.11
753.907	604.15
754.091	557.05
754.275	557.05
754.459	618.49
754.643	538.62
754.828	569.34
755.012	458.74
755.196	581.62
755.38	557.05
755.564	534.52
755.748	487.42
755.932	595.96
756.116	591.86
756.3	518.14
756.484	526.33
756.668	538.62
756.852	479.22
757.036	479.22
757.22	593.91
757.404	538.62
757.588	466.94
757.772	579.58
757.956	532.47
758.14	495.61
758.323	536.57
758.507	475.13
758.691	454.65
758.875	507.9
759.059	550.9
759.242	448.51
759.426	473.08
759.61	471.03
759.794	511.99
759.977	507.9
760.161	495.61
760.345	503.8
760.528	425.98
760.712	460.79
760.895	456.7
761.079	466.94
761.263	337.91
761.446	468.98
761.63	544.76
761.813	458.74
761.997	475.13
762.18	409.59
762.364	499.7
762.547	380.92
762.731	317.44
762.914	440.31
763.098	405.5
763.281	499.7
763.464	501.75
763.648	442.36
763.831	417.79
764.015	473.08
764.198	399.35
764.381	432.12
764.564	477.18
764.748	454.65
764.931	421.88
765.114	491.51
765.297	413.69
765.481	352.25
765.664	407.55
765.847	403.45
766.03	407.55
766.213	428.03
766.397	522.23
766.58	415.74
766.763	425.98
766.946	444.41
767.129	294.91
767.312	444.41
767.495	405.5
767.678	421.88
767.861	368.63
768.044	385.02
768.227	409.59
768.41	405.5
768.593	399.35
768.776	299
768.959	348.15
769.142	430.07
769.324	493.56
769.507	397.31
769.69	450.55
769.873	342.01
770.056	366.59
770.239	411.64
770.421	399.35
770.604	425.98
770.787	462.84
770.97	370.68
771.152	370.68
771.335	368.63
771.518	331.77
771.7	368.63
771.883	327.67
772.066	374.78
772.248	411.64
772.431	348.15
772.613	337.91
772.796	366.59
772.978	299
773.161	376.83
773.343	325.63
773.526	339.96
773.708	280.57
773.891	393.21
774.073	256
774.256	370.68
774.438	333.82
774.621	282.62
774.803	368.63
774.985	315.39
775.168	286.72
775.35	319.48
775.532	278.52
775.715	368.63
775.897	364.54
776.079	354.3
776.261	346.11
776.444	354.3
776.626	366.59
776.808	309.24
776.99	303.1
777.173	284.67
777.355	319.48
777.537	276.48
777.719	352.25
777.901	329.72
778.083	313.34
778.265	268.28
778.447	292.86
778.629	258.04
778.811	368.63
778.993	241.66
779.175	286.72
779.357	303.1
779.539	219.13
779.721	256
779.903	235.52
780.085	231.42
780.267	307.2
780.449	311.29
780.631	253.95
780.812	266.24
780.994	268.28
781.176	270.33
781.358	249.85
781.54	249.85
781.721	325.63
781.903	280.57
782.085	217.08
782.267	311.29
782.448	253.95
782.63	200.7
782.812	266.24
782.993	319.48
783.175	231.42
783.357	258.04
783.538	202.75
783.72	284.67
783.901	299
784.083	227.32
784.264	219.13
784.446	260.09
784.627	225.28
784.809	155.65
784.99	151.55
785.172	157.69
785.353	221.18
785.535	219.13
785.716	210.94
785.897	231.42
786.079	253.95
786.26	253.95
786.441	163.84
786.623	135.17
786.804	151.55
786.985	212.99
787.167	174.08
787.348	225.28
787.529	256
787.71	147.45
787.891	219.13
788.073	227.32
788.254	204.8
788.435	243.71
788.616	190.46
788.797	126.97
788.978	219.13
789.159	182.27
789.34	190.46
789.522	178.17
789.703	180.22
789.884	192.51
790.065	245.76
790.246	180.22
790.427	120.83
790.607	137.21
790.788	225.28
790.969	149.5
791.15	194.56
791.331	81.92
791.512	114.69
791.693	137.21
791.874	161.79
792.054	174.08
792.235	184.32
792.416	129.02
792.597	163.84
792.778	155.65
792.958	108.54
793.139	225.28
793.32	169.98
793.5	143.36
793.681	204.8
793.862	196.6
794.042	114.69
794.223	131.07
794.404	106.49
794.584	49.15
794.765	124.93
794.945	139.26
795.126	129.02
795.306	264.19
795.487	217.08
795.667	122.88
795.848	200.7
796.028	143.36
796.209	131.07
796.389	86.01
796.57	159.74
796.75	116.73
796.93	161.79
797.111	137.21
797.291	196.6
797.471	151.55
797.652	102.4
797.832	145.41
798.012	188.41
798.192	61.44
798.373	149.5
798.553	71.68
798.733	174.08
798.913	131.07
799.093	137.21
799.274	49.15
799.454	176.13
799.634	145.41
799.814	139.26
799.994	227.32
800.174	55.3
800.354	75.77
800.534	53.25
800.714	116.73
800.894	77.82
801.074	198.65
801.254	102.4
801.434	114.69
801.614	145.41
801.794	92.16
801.974	335.87
802.154	143.36
802.334	73.73
802.514	112.64
802.693	116.73
802.873	110.59
803.053	180.22
803.233	69.63
803.413	73.73
803.592	30.72
803.772	83.97
803.952	86.01
804.131	131.07
804.311	98.3
804.491	129.02
804.67	102.4
804.85	106.49
805.03	153.6
805.209	110.59
805.389	73.73
805.568	69.63
805.748	108.54
805.928	139.26
806.107	98.3
806.287	57.34
806.466	55.3
806.646	49.15
806.825	96.25
807.004	110.59
807.184	43.01
807.363	110.59
807.543	14.34
807.722	63.49
807.901	86.01
808.081	133.12
808.26	75.77
808.439	38.91
808.619	112.64
808.798	69.63
808.977	137.21
809.156	81.92
809.336	77.82
809.515	108.54
809.694	98.3
809.873	79.87
810.052	69.63
810.231	108.54
810.411	108.54
810.59	81.92
810.769	133.12
810.948	94.21
811.127	139.26
811.306	65.53
811.485	18.43
811.664	38.91
811.843	75.77
812.022	71.68
812.201	92.16
812.38	110.59
812.559	28.67
812.737	86.01
812.916	94.21
813.095	90.11
813.274	120.83
813.453	75.77
813.632	73.73
813.811	90.11
813.989	83.97
814.168	30.72
814.347	122.88
814.526	61.44
814.704	40.96
814.883	178.17
815.062	28.67
815.24	102.4
815.419	100.35
815.598	90.11
815.776	-16.38
815.955	90.11
816.133	20.48
816.312	83.97
816.49	157.69
816.669	38.91
816.847	26.62
817.026	104.45
817.204	77.82
817.383	55.3
817.561	98.3
817.74	32.77
817.918	108.54
818.097	24.58
818.275	34.82
818.453	61.44
818.632	49.15
818.81	38.91
818.988	83.97
819.167	77.82
819.345	77.82
819.523	38.91
819.701	98.3
819.879	32.77
820.058	94.21
820.236	47.1
820.414	71.68
820.592	24.58
820.77	131.07
820.948	-14.34
821.127	40.96
821.305	88.06
821.483	94.21
821.661	90.11
821.839	92.16
822.017	43.01
822.195	38.91
822.373	18.43
822.551	40.96
822.729	110.59
822.907	43.01
823.085	73.73
823.262	153.6
823.44	57.34
823.618	26.62
823.796	83.97
823.974	65.53
824.152	110.59
824.329	16.38
824.507	67.58
824.685	139.26
824.863	12.29
825.04	34.82
825.218	24.58
825.396	12.29
825.574	174.08
825.751	57.34
825.929	32.77
826.107	73.73
826.284	69.63
826.462	86.01
826.639	94.21
826.817	57.34
826.994	79.87
827.172	32.77
827.349	47.1
827.527	40.96
827.704	32.77
827.882	147.45
828.059	20.48
828.237	69.63
828.414	75.77
828.591	53.25
828.769	36.86
828.946	61.44
829.124	69.63
829.301	28.67
829.478	43.01
829.655	45.06
829.833	45.06
830.01	55.3
830.187	63.49
830.364	34.82
830.542	63.49
830.719	100.35
830.896	118.78
831.073	86.01
831.25	55.3
831.427	83.97
831.604	100.35
831.782	38.91
831.959	124.93
832.136	63.49
832.313	34.82
832.49	77.82
832.667	0
832.844	14.34
833.021	69.63
833.198	67.58
833.374	79.87
833.551	86.01
833.728	88.06
833.905	49.15
834.082	20.48
834.259	47.1
834.436	36.86
834.612	4.1
834.789	32.77
834.966	75.77
835.143	69.63
835.319	-6.14
835.496	77.82
835.673	-2.05
835.85	26.62
836.026	10.24
836.203	63.49
836.38	12.29
836.556	110.59
836.733	-12.29
836.909	30.72
837.086	47.1
837.262	43.01
837.439	16.38
837.616	16.38
837.792	75.77
837.968	30.72
838.145	38.91
838.321	32.77
838.498	-8.19
838.674	49.15
838.851	51.2
839.027	114.69
839.203	49.15
839.38	30.72
839.556	65.53
839.732	63.49
839.909	65.53
840.085	69.63
840.261	106.49
840.437	30.72
840.614	73.73
840.79	32.77
840.966	51.2
841.142	83.97
841.318	8.19
841.494	59.39
841.671	34.82
841.847	43.01
842.023	28.67
842.199	51.2
842.375	-30.72
842.551	45.06
842.727	28.67
842.903	-2.05
843.079	-2.05
843.255	-6.14
843.431	75.77
843.607	26.62
843.783	65.53
843.959	32.77
844.134	34.82
844.31	43.01
844.486	43.01
844.662	67.58
844.838	53.25
845.013	67.58
845.189	18.43
845.365	30.72
845.541	65.53
845.716	67.58
845.892	18.43
846.068	47.1
846.244	79.87
846.419	47.1
846.595	61.44
846.77	45.06
846.946	18.43
847.122	53.25
847.297	36.86
847.473	2.05
847.648	38.91
847.824	18.43
847.999	69.63
848.175	59.39
848.35	38.91
848.526	18.43
848.701	51.2
848.876	-36.86
849.052	-51.2
849.227	120.83
849.403	-47.1
849.578	65.53
849.753	24.58
849.929	57.34
850.104	4.1
850.279	-6.14
850.454	18.43
850.63	10.24
850.805	28.67
850.98	47.1
851.155	32.77
851.33	43.01
851.505	32.77
851.681	112.64
851.856	51.2
852.031	38.91
852.206	18.43
852.381	63.49
852.556	-22.53
852.731	43.01
852.906	22.53
853.081	-2.05
853.256	-34.82
853.431	73.73
853.606	75.77
853.781	75.77
853.956	-40.96
854.131	30.72
854.305	40.96
854.48	79.87
854.655	12.29
854.83	86.01
855.005	18.43
855.18	133.12
855.354	6.14
855.529	75.77
855.704	4.1
855.879	14.34
856.053	-26.62
856.228	-6.14
856.403	8.19
856.577	10.24
856.752	-2.05
856.926	12.29
857.101	102.4
857.276	38.91
857.45	-16.38
857.625	47.1
857.799	-38.91
857.974	67.58
858.148	20.48
858.323	4.1
858.497	67.58
858.672	2.05
858.846	49.15
859.02	22.53
859.195	-30.72
859.369	90.11
859.543	-18.43
859.718	4.1
859.892	18.43
860.066	6.14
860.241	-61.44
860.415	-24.58
860.589	43.01
860.763	45.06
860.938	55.3
861.112	16.38
861.286	8.19
861.46	83.97
861.634	94.21
861.808	-16.38
861.982	79.87
862.157	32.77
862.331	88.06
862.505	-40.96
862.679	8.19
862.853	0
863.027	-6.14
863.201	51.2
863.375	-6.14
863.549	45.06
863.722	92.16
863.896	-18.43
864.07	-30.72
864.244	40.96
864.418	22.53
864.592	-34.82
864.766	14.34
864.939	8.19
865.113	-24.58
865.287	40.96
865.461	24.58
865.634	43.01
865.808	36.86
865.982	73.73
866.156	51.2
866.329	12.29
866.503	73.73
866.676	79.87
866.85	-47.1
867.024	61.44
867.197	57.34
867.371	47.1
867.544	-47.1
867.718	32.77
867.891	88.06
868.065	51.2
868.238	63.49
868.412	77.82
868.585	38.91
868.759	40.96
868.932	45.06
869.105	75.77
869.279	12.29
869.452	-6.14
869.625	26.62
869.799	-2.05
869.972	0
870.145	12.29
870.319	16.38
870.492	14.34
870.665	2.05
870.838	20.48
871.011	-28.67
871.185	-12.29
871.358	47.1
871.531	51.2
871.704	30.72
871.877	6.14
872.05	18.43
872.223	12.29
872.396	65.53
872.569	-4.1
872.742	-16.38
872.915	-28.67
873.088	-18.43
873.261	38.91
873.434	-12.29
873.607	-43.01
873.78	40.96
873.953	28.67
874.126	22.53
874.299	-30.72
874.471	-2.05
874.644	36.86
874.817	-10.24
874.99	53.25
875.163	-47.1
875.335	36.86
875.508	-16.38
875.681	83.97
875.853	32.77
876.026	53.25
876.199	63.49
876.371	106.49
876.544	-10.24
876.717	-24.58
876.889	8.19
877.062	86.01
877.234	18.43
877.407	-16.38
877.579	2.05
877.752	-32.77
877.924	0
878.097	47.1
878.269	53.25
878.442	14.34
878.614	8.19
878.786	81.92
878.959	18.43
879.131	-6.14
879.303	-32.77
879.476	-26.62
879.648	43.01
879.82	-18.43
879.993	-14.34
880.165	14.34
880.337	45.06
880.509	-12.29
880.681	16.38
880.854	47.1
881.026	24.58
881.198	114.69
881.37	45.06
881.542	24.58
881.714	12.29
881.886	49.15
882.058	30.72
882.23	40.96
882.402	20.48
882.574	14.34
882.746	4.1
882.918	30.72
883.09	26.62
883.262	92.16
883.434	28.67
883.606	57.34
883.778	57.34
883.95	-2.05
884.122	-14.34
884.293	49.15
884.465	-49.15
884.637	34.82
884.809	20.48
884.98	51.2
885.152	47.1
885.324	20.48
885.496	26.62
885.667	34.82
885.839	10.24
886.011	59.39
886.182	-36.86
886.354	81.92
886.525	-12.29
886.697	0
886.869	2.05
887.04	45.06
887.212	-26.62
887.383	24.58
887.555	32.77
887.726	26.62
887.897	-77.82
888.069	38.91
888.24	-4.1
888.412	94.21
888.583	-2.05
888.754	-30.72
888.926	30.72
889.097	86.01
889.268	10.24
889.44	0
889.611	34.82
889.782	24.58
889.953	-2.05
890.125	6.14
890.296	-12.29
890.467	43.01
890.638	30.72
890.809	-36.86
890.98	8.19
891.151	32.77
891.323	0
891.494	40.96
891.665	-63.49
891.836	-30.72
892.007	20.48
892.178	53.25
892.349	57.34
892.52	-8.19
892.691	6.14
892.862	2.05
893.032	10.24
893.203	2.05
893.374	34.82
893.545	8.19
893.716	0
893.887	-28.67
894.057	-12.29
894.228	47.1
894.399	12.29
894.57	65.53
894.74	-4.1
894.911	-22.53
895.082	6.14
895.253	-34.82
895.423	24.58
895.594	100.35
895.764	-2.05
895.935	28.67
896.106	-16.38
896.276	43.01
896.447	16.38
896.617	12.29
896.788	-38.91
896.958	0
897.129	57.34
897.299	59.39
897.47	-14.34
897.64	45.06
897.81	32.77
897.981	102.4
898.151	-2.05
898.322	61.44
898.492	40.96
898.662	30.72
898.832	28.67
899.003	-63.49
899.173	-36.86
899.343	36.86
899.513	-49.15
