Data from USB4F104151__201__13-59-49-145.txt Node

Date: Thu Mar 13 13:59:49 EDT 2025
User: louis
Spectrometer: USB4F10415
Trigger mode: 4
Integration Time (sec): 1.000000E-2
Scans to average: 1
Electric dark correction enabled: true
Nonlinearity correction enabled: false
Boxcar width: 0
XAxis mode: Wavelengths
Number of Pixels in Spectrum: 3648
>>>>>Begin Spectral Data<<<<<
178.204	-102.91
178.424	-102.91
178.644	-102.91
178.864	-39.42
179.084	-37.38
179.304	-64
179.524	-31.23
179.744	32.26
179.964	-64
180.184	-14.85
180.404	73.21
180.624	75.26
180.844	-16.9
181.064	-18.94
181.283	44.54
181.503	-25.09
181.723	9.73
181.943	11.78
182.163	19.97
182.383	42.5
182.602	9.73
182.822	126.46
183.042	-6.66
183.262	65.02
183.482	91.65
183.701	-6.66
183.921	97.79
184.141	1.54
184.361	50.69
184.58	-0.51
184.8	-20.99
185.02	-33.28
185.239	34.3
185.459	-23.04
185.679	77.31
185.898	3.58
186.118	52.74
186.338	9.73
186.557	-14.85
186.777	-12.8
186.997	1.54
187.216	7.68
187.436	7.68
187.655	-37.38
187.875	-29.18
188.095	81.41
188.314	5.63
188.534	75.26
188.753	26.11
188.973	50.69
189.192	26.11
189.412	91.65
189.631	48.64
189.851	36.35
190.07	-23.04
190.29	58.88
190.509	24.06
190.729	-72.19
190.948	65.02
191.168	75.26
191.387	73.21
191.607	54.78
191.826	32.26
192.045	-0.51
192.265	69.12
192.484	7.68
192.704	15.87
192.923	34.3
193.142	26.11
193.362	15.87
193.581	24.06
193.8	-4.61
194.02	60.93
194.239	56.83
194.458	97.79
194.678	-2.56
194.897	110.08
195.116	-2.56
195.335	67.07
195.555	73.21
195.774	-78.33
195.993	28.16
196.212	3.58
196.432	-12.8
196.651	32.26
196.87	19.97
197.089	58.88
197.308	60.93
197.528	24.06
197.747	36.35
197.966	7.68
198.185	58.88
198.404	54.78
198.623	75.26
198.842	1.54
199.062	9.73
199.281	30.21
199.5	42.5
199.719	24.06
199.938	-35.33
200.157	105.98
200.376	40.45
200.595	71.17
200.814	40.45
201.033	38.4
201.252	-0.51
201.471	44.54
201.69	11.78
201.909	5.63
202.128	75.26
202.347	36.35
202.566	79.36
202.785	48.64
203.004	9.73
203.223	54.78
203.442	9.73
203.661	-25.09
203.879	30.21
204.098	-0.51
204.317	83.45
204.536	7.68
204.755	-37.38
204.974	50.69
205.193	1.54
205.411	97.79
205.63	52.74
205.849	32.26
206.068	38.4
206.287	-55.81
206.505	-0.51
206.724	103.93
206.943	48.64
207.162	67.07
207.381	32.26
207.599	-41.47
207.818	17.92
208.037	32.26
208.255	87.55
208.474	28.16
208.693	71.17
208.911	58.88
209.13	56.83
209.349	36.35
209.567	-2.56
209.786	44.54
210.005	83.45
210.223	105.98
210.442	-18.94
210.661	24.06
210.879	-35.33
211.098	-12.8
211.316	-8.7
211.535	58.88
211.753	24.06
211.972	65.02
212.191	-16.9
212.409	81.41
212.628	62.98
212.846	65.02
213.065	40.45
213.283	26.11
213.502	42.5
213.72	-27.14
213.938	22.02
214.157	-20.99
214.375	17.92
214.594	-14.85
214.812	26.11
215.031	15.87
215.249	-76.29
215.467	73.21
215.686	30.21
215.904	79.36
216.122	-6.66
216.341	28.16
216.559	40.45
216.778	32.26
216.996	-43.52
217.214	42.5
217.432	-10.75
217.651	17.92
217.869	-39.42
218.087	1.54
218.306	17.92
218.524	-2.56
218.742	48.64
218.96	15.87
219.179	65.02
219.397	65.02
219.615	52.74
219.833	38.4
220.051	34.3
220.27	30.21
220.488	97.79
220.706	-66.05
220.924	40.45
221.142	36.35
221.36	44.54
221.578	71.17
221.796	-45.57
222.015	67.07
222.233	-39.42
222.451	81.41
222.669	-14.85
222.887	58.88
223.105	-64
223.323	62.98
223.541	-6.66
223.759	40.45
223.977	9.73
224.195	-31.23
224.413	-4.61
224.631	136.7
224.849	24.06
225.067	54.78
225.285	52.74
225.503	-8.7
225.721	-0.51
225.939	67.07
226.157	26.11
226.375	28.16
226.592	-23.04
226.81	1.54
227.028	52.74
227.246	97.79
227.464	17.92
227.682	24.06
227.9	24.06
228.117	62.98
228.335	-10.75
228.553	44.54
228.771	52.74
228.989	71.17
229.206	5.63
229.424	44.54
229.642	-20.99
229.86	56.83
230.077	22.02
230.295	79.36
230.513	62.98
230.731	56.83
230.948	65.02
231.166	24.06
231.384	-39.42
231.601	-6.66
231.819	65.02
232.037	-25.09
232.254	11.78
232.472	36.35
232.689	26.11
232.907	11.78
233.125	-8.7
233.342	-66.05
233.56	58.88
233.777	9.73
233.995	11.78
234.213	69.12
234.43	-61.95
234.648	46.59
234.865	13.82
235.083	-51.71
235.3	-8.7
235.518	32.26
235.735	3.58
235.953	-47.62
236.17	30.21
236.388	26.11
236.605	26.11
236.822	-2.56
237.04	85.5
237.257	38.4
237.475	17.92
237.692	77.31
237.909	7.68
238.127	73.21
238.344	85.5
238.562	34.3
238.779	60.93
238.996	36.35
239.214	19.97
239.431	17.92
239.648	-20.99
239.865	75.26
240.083	-4.61
240.3	19.97
240.517	75.26
240.735	81.41
240.952	40.45
241.169	138.75
241.386	40.45
241.603	34.3
241.821	24.06
242.038	48.64
242.255	75.26
242.472	56.83
242.689	-25.09
242.907	56.83
243.124	22.02
243.341	19.97
243.558	36.35
243.775	89.6
243.992	-2.56
244.209	32.26
244.426	15.87
244.643	81.41
244.86	-27.14
245.078	105.98
245.295	-14.85
245.512	30.21
245.729	34.3
245.946	75.26
246.163	24.06
246.38	-20.99
246.597	13.82
246.814	65.02
247.031	-6.66
247.248	120.32
247.464	28.16
247.681	89.6
247.898	52.74
248.115	62.98
248.332	48.64
248.549	48.64
248.766	11.78
248.983	3.58
249.2	-33.28
249.417	40.45
249.633	67.07
249.85	5.63
250.067	15.87
250.284	38.4
250.501	-31.23
250.717	83.45
250.934	-90.62
251.151	89.6
251.368	-23.04
251.585	-12.8
251.801	7.68
252.018	89.6
252.235	79.36
252.451	28.16
252.668	-10.75
252.885	19.97
253.102	65.02
253.318	-16.9
253.535	22.02
253.752	7.68
253.968	24.06
254.185	-25.09
254.401	67.07
254.618	3.58
254.835	7.68
255.051	69.12
255.268	9.73
255.484	75.26
255.701	28.16
255.917	54.78
256.134	58.88
256.351	40.45
256.567	40.45
256.784	-4.61
257	-18.94
257.217	-14.85
257.433	13.82
257.65	65.02
257.866	11.78
258.082	46.59
258.299	-16.9
258.515	116.22
258.732	32.26
258.948	52.74
259.165	19.97
259.381	28.16
259.597	7.68
259.814	-20.99
260.03	52.74
260.246	-35.33
260.463	17.92
260.679	-27.14
260.895	46.59
261.112	56.83
261.328	32.26
261.544	30.21
261.761	67.07
261.977	26.11
262.193	-16.9
262.409	-45.57
262.626	24.06
262.842	-23.04
263.058	28.16
263.274	15.87
263.49	7.68
263.707	110.08
263.923	42.5
264.139	11.78
264.355	32.26
264.571	15.87
264.787	44.54
265.004	34.3
265.22	-16.9
265.436	48.64
265.652	-31.23
265.868	65.02
266.084	-14.85
266.3	42.5
266.516	-20.99
266.732	42.5
266.948	42.5
267.164	-16.9
267.38	46.59
267.596	9.73
267.812	54.78
268.028	73.21
268.244	1.54
268.46	32.26
268.676	32.26
268.892	15.87
269.108	-0.51
269.324	28.16
269.54	17.92
269.756	58.88
269.972	-2.56
270.188	48.64
270.403	22.02
270.619	56.83
270.835	-6.66
271.051	-6.66
271.267	11.78
271.483	89.6
271.698	83.45
271.914	52.74
272.13	22.02
272.346	40.45
272.562	62.98
272.777	7.68
272.993	52.74
273.209	73.21
273.425	65.02
273.64	19.97
273.856	-27.14
274.072	-25.09
274.287	-39.42
274.503	24.06
274.719	-20.99
274.934	-8.7
275.15	46.59
275.366	81.41
275.581	-59.9
275.797	69.12
276.012	-0.51
276.228	32.26
276.444	-12.8
276.659	62.98
276.875	-20.99
277.09	124.41
277.306	67.07
277.521	24.06
277.737	-0.51
277.952	124.41
278.168	-33.28
278.383	3.58
278.599	26.11
278.814	65.02
279.03	38.4
279.245	3.58
279.461	34.3
279.676	40.45
279.892	-8.7
280.107	11.78
280.322	40.45
280.538	36.35
280.753	52.74
280.969	17.92
281.184	-27.14
281.399	32.26
281.615	-6.66
281.83	58.88
282.045	24.06
282.26	7.68
282.476	3.58
282.691	155.13
282.906	83.45
283.122	81.41
283.337	19.97
283.552	81.41
283.767	-37.38
283.983	17.92
284.198	-0.51
284.413	44.54
284.628	-27.14
284.843	26.11
285.058	-4.61
285.274	26.11
285.489	67.07
285.704	118.27
285.919	34.3
286.134	-25.09
286.349	32.26
286.564	44.54
286.779	-8.7
286.995	19.97
287.21	91.65
287.425	79.36
287.64	24.06
287.855	52.74
288.07	17.92
288.285	-57.86
288.5	32.26
288.715	46.59
288.93	11.78
289.145	56.83
289.36	97.79
289.575	81.41
289.79	126.46
290.004	93.69
290.219	54.78
290.434	-6.66
290.649	34.3
290.864	83.45
291.079	15.87
291.294	71.17
291.509	36.35
291.724	48.64
291.938	7.68
292.153	13.82
292.368	11.78
292.583	67.07
292.798	-2.56
293.012	52.74
293.227	7.68
293.442	36.35
293.657	75.26
293.871	40.45
294.086	-25.09
294.301	46.59
294.516	42.5
294.73	83.45
294.945	52.74
295.16	36.35
295.374	44.54
295.589	105.98
295.804	40.45
296.018	32.26
296.233	54.78
296.447	9.73
296.662	24.06
296.877	26.11
297.091	89.6
297.306	-4.61
297.52	48.64
297.735	77.31
297.949	22.02
298.164	-14.85
298.378	52.74
298.593	81.41
298.807	-8.7
299.022	42.5
299.236	42.5
299.451	77.31
299.665	-6.66
299.88	83.45
300.094	-31.23
300.309	-12.8
300.523	3.58
300.737	89.6
300.952	81.41
301.166	34.3
301.381	65.02
301.595	65.02
301.809	44.54
302.024	69.12
302.238	52.74
302.452	58.88
302.667	83.45
302.881	50.69
303.095	71.17
303.309	9.73
303.524	5.63
303.738	62.98
303.952	30.21
304.166	69.12
304.381	22.02
304.595	58.88
304.809	-27.14
305.023	40.45
305.237	73.21
305.452	73.21
305.666	58.88
305.88	34.3
306.094	67.07
306.308	101.89
306.522	15.87
306.736	73.21
306.95	15.87
307.164	108.03
307.379	58.88
307.593	15.87
307.807	42.5
308.021	-10.75
308.235	77.31
308.449	40.45
308.663	32.26
308.877	122.37
309.091	13.82
309.305	67.07
309.519	54.78
309.733	19.97
309.947	40.45
310.161	40.45
310.374	3.58
310.588	85.5
310.802	81.41
311.016	7.68
311.23	79.36
311.444	44.54
311.658	-20.99
311.872	-8.7
312.085	75.26
312.299	62.98
312.513	58.88
312.727	105.98
312.941	11.78
313.154	122.37
313.368	13.82
313.582	120.32
313.796	36.35
314.009	52.74
314.223	24.06
314.437	60.93
314.651	-2.56
314.864	17.92
315.078	11.78
315.292	48.64
315.505	54.78
315.719	15.87
315.933	15.87
316.146	1.54
316.36	48.64
316.573	56.83
316.787	-25.09
317.001	60.93
317.214	52.74
317.428	52.74
317.641	75.26
317.855	56.83
318.068	34.3
318.282	-8.7
318.495	40.45
318.709	73.21
318.922	40.45
319.136	108.03
319.349	34.3
319.563	7.68
319.776	48.64
319.99	69.12
320.203	60.93
320.417	130.56
320.63	75.26
320.843	30.21
321.057	5.63
321.27	81.41
321.483	75.26
321.697	85.5
321.91	69.12
322.124	15.87
322.337	105.98
322.55	5.63
322.763	19.97
322.977	50.69
323.19	62.98
323.403	-33.28
323.617	52.74
323.83	-4.61
324.043	97.79
324.256	65.02
324.469	42.5
324.683	15.87
324.896	93.69
325.109	52.74
325.322	-68.09
325.535	77.31
325.748	32.26
325.962	81.41
326.175	83.45
326.388	52.74
326.601	-29.18
326.814	48.64
327.027	50.69
327.24	69.12
327.453	7.68
327.666	56.83
327.879	26.11
328.092	26.11
328.305	-25.09
328.518	48.64
328.731	50.69
328.944	7.68
329.157	81.41
329.37	9.73
329.583	44.54
329.796	40.45
330.009	69.12
330.222	56.83
330.435	52.74
330.648	56.83
330.861	69.12
331.073	3.58
331.286	-0.51
331.499	65.02
331.712	-10.75
331.925	79.36
332.138	15.87
332.35	26.11
332.563	60.93
332.776	73.21
332.989	9.73
333.202	36.35
333.414	-20.99
333.627	85.5
333.84	-29.18
334.053	77.31
334.265	-25.09
334.478	126.46
334.691	30.21
334.903	52.74
335.116	-12.8
335.329	-16.9
335.541	-23.04
335.754	50.69
335.966	22.02
336.179	-6.66
336.392	56.83
336.604	42.5
336.817	19.97
337.029	22.02
337.242	42.5
337.454	101.89
337.667	-33.28
337.88	62.98
338.092	9.73
338.305	54.78
338.517	91.65
338.729	40.45
338.942	79.36
339.154	89.6
339.367	26.11
339.579	28.16
339.792	65.02
340.004	48.64
340.217	58.88
340.429	28.16
340.641	28.16
340.854	13.82
341.066	38.4
341.278	19.97
341.491	69.12
341.703	65.02
341.915	7.68
342.128	69.12
342.34	75.26
342.552	50.69
342.764	81.41
342.977	122.37
343.189	50.69
343.401	81.41
343.613	60.93
343.826	87.55
344.038	-35.33
344.25	77.31
344.462	38.4
344.674	58.88
344.886	65.02
345.099	73.21
345.311	-39.42
345.523	22.02
345.735	58.88
345.947	73.21
346.159	114.17
346.371	97.79
346.583	46.59
346.795	24.06
347.007	-23.04
347.219	79.36
347.431	-23.04
347.643	24.06
347.855	67.07
348.067	65.02
348.279	91.65
348.491	81.41
348.703	52.74
348.915	108.03
349.127	13.82
349.339	50.69
349.551	58.88
349.763	11.78
349.975	-12.8
350.187	99.84
350.399	-16.9
350.61	65.02
350.822	7.68
351.034	36.35
351.246	95.74
351.458	77.31
351.669	58.88
351.881	9.73
352.093	73.21
352.305	-74.24
352.517	36.35
352.728	38.4
352.94	-0.51
353.152	32.26
353.363	24.06
353.575	-10.75
353.787	60.93
353.999	44.54
354.21	7.68
354.422	97.79
354.633	48.64
354.845	56.83
355.057	122.37
355.268	28.16
355.48	89.6
355.692	-74.24
355.903	67.07
356.115	60.93
356.326	36.35
356.538	79.36
356.749	58.88
356.961	15.87
357.172	34.3
357.384	58.88
357.595	56.83
357.807	65.02
358.018	83.45
358.23	89.6
358.441	65.02
358.653	-8.7
358.864	36.35
359.075	44.54
359.287	91.65
359.498	28.16
359.709	83.45
359.921	99.84
360.132	26.11
360.344	40.45
360.555	36.35
360.766	114.17
360.977	48.64
361.189	38.4
361.4	46.59
361.611	56.83
361.823	19.97
362.034	85.5
362.245	-12.8
362.456	83.45
362.667	58.88
362.879	99.84
363.09	73.21
363.301	9.73
363.512	56.83
363.723	36.35
363.935	134.65
364.146	24.06
364.357	67.07
364.568	34.3
364.779	15.87
364.99	97.79
365.201	-20.99
365.412	48.64
365.623	48.64
365.834	110.08
366.045	79.36
366.256	40.45
366.467	48.64
366.678	32.26
366.889	81.41
367.1	17.92
367.311	138.75
367.522	99.84
367.733	60.93
367.944	65.02
368.155	13.82
368.366	60.93
368.577	42.5
368.788	105.98
368.999	32.26
369.209	7.68
369.42	116.22
369.631	93.69
369.842	75.26
370.053	50.69
370.264	50.69
370.474	3.58
370.685	58.88
370.896	69.12
371.107	81.41
371.317	32.26
371.528	19.97
371.739	-14.85
371.95	40.45
372.16	40.45
372.371	93.69
372.582	28.16
372.792	17.92
373.003	24.06
373.214	81.41
373.424	54.78
373.635	148.99
373.846	48.64
374.056	36.35
374.267	9.73
374.477	36.35
374.688	120.32
374.898	11.78
375.109	30.21
375.319	40.45
375.53	112.13
375.74	116.22
375.951	56.83
376.161	40.45
376.372	5.63
376.582	36.35
376.793	99.84
377.003	46.59
377.214	79.36
377.424	75.26
377.635	42.5
377.845	38.4
378.055	93.69
378.266	11.78
378.476	17.92
378.686	77.31
378.897	54.78
379.107	114.17
379.317	97.79
379.528	56.83
379.738	52.74
379.948	75.26
380.158	114.17
380.369	13.82
380.579	116.22
380.789	26.11
380.999	105.98
381.21	91.65
381.42	40.45
381.63	42.5
381.84	48.64
382.05	116.22
382.261	17.92
382.471	105.98
382.681	52.74
382.891	54.78
383.101	81.41
383.311	36.35
383.521	56.83
383.731	85.5
383.941	73.21
384.151	65.02
384.361	140.8
384.571	40.45
384.781	67.07
384.991	40.45
385.201	101.89
385.411	-27.14
385.621	-0.51
385.831	105.98
386.041	73.21
386.251	42.5
386.461	151.04
386.671	65.02
386.881	30.21
387.091	108.03
387.301	77.31
387.511	97.79
387.72	38.4
387.93	71.17
388.14	114.17
388.35	97.79
388.56	69.12
388.769	136.7
388.979	56.83
389.189	65.02
389.399	42.5
389.609	79.36
389.818	87.55
390.028	91.65
390.238	54.78
390.447	28.16
390.657	118.27
390.867	58.88
391.076	99.84
391.286	67.07
391.496	42.5
391.705	32.26
391.915	56.83
392.125	146.94
392.334	105.98
392.544	97.79
392.753	91.65
392.963	85.5
393.172	52.74
393.382	118.27
393.591	130.56
393.801	116.22
394.01	124.41
394.22	83.45
394.429	73.21
394.639	136.7
394.848	163.33
395.058	56.83
395.267	110.08
395.477	103.93
395.686	85.5
395.895	11.78
396.105	116.22
396.314	32.26
396.524	13.82
396.733	65.02
396.942	148.99
397.152	136.7
397.361	112.13
397.57	81.41
397.78	128.51
397.989	87.55
398.198	163.33
398.407	114.17
398.617	108.03
398.826	85.5
399.035	136.7
399.244	95.74
399.453	179.71
399.663	83.45
399.872	114.17
400.081	108.03
400.29	140.8
400.499	167.42
400.708	179.71
400.917	87.55
401.127	130.56
401.336	140.8
401.545	155.13
401.754	110.08
401.963	206.33
402.172	7.68
402.381	58.88
402.59	122.37
402.799	146.94
403.008	124.41
403.217	148.99
403.426	116.22
403.635	138.75
403.844	159.23
404.053	110.08
404.262	67.07
404.471	118.27
404.68	142.85
404.888	155.13
405.097	163.33
405.306	159.23
405.515	101.89
405.724	165.37
405.933	181.76
406.142	206.33
406.35	230.91
406.559	235
406.768	153.09
406.977	196.09
407.185	138.75
407.394	237.05
407.603	200.19
407.812	251.39
408.02	189.95
408.229	267.77
408.438	263.68
408.646	202.24
408.855	247.29
409.064	259.58
409.272	278.01
409.481	396.79
409.69	263.68
409.898	296.44
410.107	359.93
410.315	384.51
410.524	329.21
410.733	329.21
410.941	327.16
411.15	382.46
411.358	343.55
411.567	335.35
411.775	474.62
411.984	458.23
412.192	472.57
412.401	404.99
412.609	404.99
412.818	486.9
413.026	554.49
413.234	519.67
413.443	491
413.651	546.3
413.86	540.15
414.068	540.15
414.276	626.17
414.485	607.73
414.693	605.69
414.901	640.5
415.11	738.8
415.318	681.46
415.526	712.18
415.734	826.87
415.943	849.4
416.151	828.92
416.359	753.14
416.567	843.25
416.776	781.81
416.984	935.41
417.192	916.98
417.4	957.94
417.608	953.84
417.817	1009.14
418.025	953.84
418.233	1103.34
418.441	1103.34
418.649	1148.4
418.857	1299.95
419.065	1250.8
419.273	1222.13
419.481	1328.62
419.689	1406.44
419.897	1451.5
420.105	1404.39
420.313	1570.28
420.521	1557.99
420.729	1629.67
420.937	1656.29
421.145	1754.6
421.353	1840.61
421.561	1887.72
421.769	1891.81
421.977	1918.43
422.185	2049.5
422.393	2158.05
422.601	2282.97
422.809	2223.58
423.017	2264.54
423.224	2459.1
423.432	2383.32
423.64	2530.78
423.848	2602.46
424.056	2616.79
424.263	2729.43
424.471	2696.66
424.679	2801.11
424.887	2899.41
425.094	3091.92
425.302	3104.21
425.51	3126.74
425.718	3251.66
425.925	3237.33
426.133	3343.82
426.341	3526.09
426.548	3773.89
426.756	3808.71
426.964	3894.72
427.171	4138.43
427.379	4089.28
427.586	4249.02
427.794	4283.84
428.001	4584.89
428.209	4810.17
428.417	4515.26
428.624	5082.55
428.832	5014.96
429.039	4945.33
429.247	5064.11
429.454	5455.28
429.662	5746.09
429.869	5492.14
430.076	5871.01
430.284	5684.65
430.491	5909.93
430.699	6100.39
430.906	6051.24
431.114	6307.23
431.321	6493.6
431.528	6606.24
431.736	7042.45
431.943	7462.29
432.15	7003.54
432.358	7275.92
432.565	7669.13
432.772	7540.11
432.979	7968.13
433.187	8148.36
433.394	8248.71
433.601	8729.98
433.808	8826.23
434.016	8795.51
434.223	9203.06
434.43	9641.32
434.637	9538.93
434.844	9973.1
435.052	9958.76
435.259	10216.8
435.466	10190.18
435.673	10143.08
435.88	11103.57
436.087	11361.62
436.294	11316.56
436.501	11083.09
436.708	11300.18
436.915	11765.07
437.122	12465.47
437.329	12260.68
437.537	12651.84
437.743	12657.98
437.95	12862.78
438.157	13331.76
438.364	13759.79
438.571	13634.86
438.778	13733.17
438.985	15000.86
439.192	14597.41
439.399	14935.32
439.606	14644.51
439.813	15273.24
440.02	16190.73
440.227	16272.65
440.433	15936.78
440.64	16475.4
440.847	16350.47
441.054	16565.51
441.261	17892.59
441.467	17612.02
441.674	18097.39
441.881	18799.84
442.088	18599.14
442.294	18232.55
442.501	19084.51
442.708	19459.29
442.914	19997.9
443.121	20909.25
443.328	20524.23
443.534	21970.1
443.741	21112
443.948	20991.17
444.154	22557.86
444.361	22035.63
444.568	22535.34
444.774	22379.69
444.981	23028.9
445.187	23340.19
445.394	24695.94
445.6	24122.51
445.807	26350.7
446.013	25171.07
446.22	25801.85
446.426	26442.86
446.633	26932.33
446.839	27853.91
447.046	26854.5
447.252	28460.11
447.459	28058.71
447.665	28040.28
447.871	29285.44
448.078	30598.19
448.284	28996.68
448.491	29889.59
448.697	30946.34
448.903	31374.37
449.11	31628.32
449.316	31194.15
449.522	31628.32
449.728	32773.13
449.935	33078.28
450.141	32736.27
450.347	33469.44
450.553	32480.27
450.76	33231.88
450.966	34053.11
451.172	33682.43
451.378	34368.5
451.584	33864.7
451.791	34843.63
451.997	34638.83
452.203	35073
452.409	35070.95
452.615	34675.69
452.821	33637.37
453.027	33481.73
453.233	34982.89
453.44	33752.06
453.646	33879.04
453.852	34429.94
454.058	34917.36
454.264	33930.23
454.47	34700.27
454.676	33283.08
454.882	35124.2
455.088	31816.73
455.294	32554
455.5	32302.1
455.705	33192.97
455.911	31663.13
456.117	31288.35
456.323	30938.15
456.529	29045.83
456.735	30309.43
456.941	29615.16
457.147	29346.88
457.352	28384.33
457.558	28052.56
457.764	28083.28
457.97	27415.65
458.176	27069.54
458.381	26965.09
458.587	25902.2
458.793	25691.26
458.999	24341.64
459.204	26014.84
459.41	25541.75
459.616	23960.72
459.821	24009.87
460.027	23698.58
460.233	23364.76
460.438	22293.68
460.644	22584.49
460.85	21408.95
461.055	21030.08
461.261	21130.43
461.466	19789.01
461.672	18775.27
461.878	20358.35
462.083	18875.62
462.289	18590.95
462.494	18517.22
462.7	17812.72
462.905	17179.9
463.111	17620.21
463.316	17923.31
463.522	17376.5
463.727	17536.24
463.932	17569.01
464.138	17509.62
464.343	17599.73
464.549	17036.54
464.754	17325.3
464.959	17073.4
465.165	17243.38
465.37	16383.24
465.575	15965.45
465.781	16508.16
465.986	16817.41
466.191	16039.18
466.397	15697.17
466.602	15011.1
466.807	15762.7
467.012	15797.52
467.218	15465.75
467.423	15592.72
467.628	15437.08
467.833	16221.45
468.038	15299.86
468.244	15047.96
468.449	15594.77
468.654	15344.92
468.859	15033.63
469.064	14968.09
469.269	14359.84
469.474	14708
469.679	14873.89
469.885	14345.51
470.09	14771.49
470.295	14589.22
470.5	14183.72
470.705	14335.27
470.91	13749.55
471.115	13798.7
471.32	14130.47
471.525	13993.26
471.73	13417.78
471.935	13446.45
472.139	13053.24
472.344	13210.93
472.549	13264.18
472.754	12969.27
472.959	12731.71
473.164	12334.4
473.369	12293.44
473.574	12799.29
473.778	12574.02
473.983	12496.19
474.188	12473.67
474.393	11855.18
474.598	12137.8
474.802	11695.44
475.007	11734.35
475.212	11789.64
475.417	11515.22
475.621	11373.91
475.826	11369.81
476.031	11128.15
476.235	10982.74
476.44	10939.74
476.645	10861.91
476.849	10947.93
477.054	10702.17
477.259	10616.16
477.463	10560.86
477.668	10302.82
477.872	10259.81
478.077	10382.69
478.282	10136.93
478.486	10026.34
478.691	9942.38
478.895	10034.53
479.1	9702.76
479.304	9776.49
479.509	9547.12
479.713	9903.46
479.918	9547.12
480.122	9352.56
480.326	9497.97
480.531	9559.41
480.735	9475.44
480.94	9334.13
481.144	9626.99
481.348	9162.1
481.553	9303.41
481.757	9270.64
481.961	9342.32
482.166	9420.14
482.37	9510.25
482.574	9047.41
482.778	9190.77
482.983	9192.82
483.187	9340.27
483.391	9268.59
483.595	9178.48
483.8	9092.47
484.004	9219.44
484.208	8965.5
484.412	9061.75
484.616	9186.68
484.821	9203.06
485.025	9006.45
485.229	9227.64
485.433	9190.77
485.637	9037.17
485.841	9127.28
486.045	8990.07
486.249	9233.78
486.453	9035.13
486.657	9203.06
486.861	9053.56
487.065	8934.78
487.269	9071.99
487.473	8983.93
487.677	9151.86
487.881	9231.73
488.085	9078.13
488.289	9051.51
488.493	9078.13
488.697	9319.79
488.901	9315.7
489.105	9174.39
489.309	9274.74
489.512	9287.03
489.716	9383.28
489.92	9233.78
490.124	9166.2
490.328	9411.95
490.531	9508.21
490.735	9360.75
490.939	9407.86
491.143	9327.99
491.346	9600.37
491.55	9645.42
491.754	9403.76
491.958	9807.21
492.161	9549.17
492.365	9682.28
492.569	9698.67
492.772	9944.42
492.976	9997.67
493.18	9874.79
493.383	9977.19
493.587	10198.37
493.79	10245.48
493.994	9913.7
494.197	10323.3
494.401	10159.46
494.605	10161.51
494.808	10626.4
495.012	10419.55
495.215	10679.65
495.419	10634.59
495.622	10716.51
495.825	10784.09
496.029	10906.97
496.232	11044.18
496.436	11087.19
496.639	11238.74
496.843	11504.98
497.046	11509.07
497.249	11767.12
497.453	11838.8
497.656	11781.45
497.859	12016.97
498.063	12051.78
498.266	12258.63
498.469	12297.54
498.673	12485.95
498.876	12598.59
499.079	12903.74
499.282	12725.57
499.485	13098.3
499.689	13251.89
499.892	13495.6
500.095	13667.63
500.298	14050.6
500.501	13626.67
500.705	14132.52
500.908	14361.89
501.111	14241.06
501.314	14452
501.517	14740.77
501.72	14796.06
501.923	15201.56
502.126	15217.94
502.329	15416.6
502.532	15600.91
502.735	15656.21
502.938	16123.15
503.141	16241.93
503.344	16444.68
503.547	16452.87
503.75	16833.79
503.953	17005.82
504.156	17179.9
504.359	17251.58
504.562	17513.72
504.765	17894.64
504.968	17972.46
505.17	18291.94
505.373	18578.66
505.576	18742.5
505.779	19262.68
505.982	19440.86
506.185	19778.77
506.387	19776.72
506.59	20002
506.793	20391.11
506.996	20229.32
507.198	20845.76
507.401	20946.11
507.604	21017.79
507.807	21718.2
508.009	21691.57
508.212	22056.11
508.415	22451.37
508.617	22742.18
508.82	22787.24
509.022	22756.52
509.225	23483.55
509.428	23372.96
509.63	23893.14
509.833	23917.72
510.035	24890.5
510.238	24591.5
510.44	25230.46
510.643	25345.15
510.845	25853.05
511.048	25654.39
511.25	26317.93
511.453	26293.36
511.655	27188.32
511.858	27063.4
512.06	27442.27
512.262	27982.93
512.465	27718.75
512.667	28402.77
512.87	28359.76
513.072	28712.01
513.274	29305.92
513.477	29875.26
513.679	30055.48
513.881	30381.1
514.084	30477.36
514.286	30985.26
514.488	31304.74
514.69	32064.53
514.893	31851.55
515.095	32132.12
515.297	32549.9
515.499	32715.79
515.701	33156.1
515.904	33948.67
516.106	33618.94
516.308	34638.83
516.51	34874.35
516.712	34626.54
516.914	35337.19
517.116	35738.59
517.318	35732.45
517.52	35965.92
517.722	36443.09
517.925	37055.43
518.127	37616.58
518.329	37759.94
518.531	37555.14
518.733	38339.51
518.935	38726.58
519.136	39132.07
519.338	39715.75
519.54	39861.15
519.742	40090.52
519.944	39992.22
520.146	41083.79
520.348	41304.97
520.55	41515.91
520.752	41839.49
520.954	42193.79
521.155	42251.13
521.357	42451.83
521.559	43084.65
521.761	43740
521.963	43518.82
522.164	43963.23
522.366	44036.96
522.568	44704.6
522.77	44288.86
522.971	45474.63
523.173	45366.09
523.375	45505.35
523.576	45839.17
523.778	46000.96
523.98	46551.87
524.181	46707.51
524.383	46785.33
524.584	48073.51
524.786	47928.1
524.988	47051.57
525.189	48069.41
525.391	48558.88
525.592	49048.34
525.794	48712.47
525.995	48952.09
526.197	48730.9
526.398	49070.87
526.6	49472.27
526.801	49666.83
527.003	49949.45
527.204	49810.18
527.406	50836.22
527.607	49984.26
527.808	50602.75
528.01	49976.07
528.211	50838.26
528.412	51524.33
528.614	51159.8
528.815	51139.32
529.016	51659.5
529.218	51358.45
529.419	51948.26
529.62	51892.97
529.822	51587.82
530.023	52187.88
530.224	52318.95
530.425	51604.2
530.626	52126.44
530.828	51405.55
531.029	53142.23
531.23	51817.19
531.431	52196.07
531.632	52630.24
531.833	52722.4
532.035	52515.55
532.236	53205.72
532.437	53121.75
532.638	53025.49
532.839	53476.05
533.04	53500.62
533.241	52708.06
533.442	53369.55
533.643	53347.03
533.844	52966.1
534.045	53400.27
534.246	53267.16
534.447	53406.42
534.648	53054.17
534.849	53252.82
535.05	52826.84
535.251	53373.65
535.451	53105.37
535.652	53512.91
535.853	53607.12
536.054	53578.45
536.255	53519.06
536.456	53244.63
536.657	53856.97
536.857	53562.06
537.058	53181.14
537.259	54088.39
537.46	53856.97
537.66	53437.14
537.861	53514.96
538.062	53232.34
538.263	53586.64
538.463	53295.83
538.664	53426.9
538.865	53650.13
539.065	53920.46
539.266	53246.68
539.466	54383.3
539.667	53201.62
539.868	54149.83
540.068	53942.98
540.269	53924.55
540.469	53949.13
540.67	53439.18
540.87	53713.61
541.071	53856.97
541.271	53787.34
541.472	53646.03
541.672	53734.09
541.873	53252.82
542.073	53162.71
542.274	54139.59
542.474	53467.86
542.675	53336.79
542.875	53908.17
543.075	54031.05
543.276	53131.99
543.476	53951.18
543.676	52976.34
543.877	54280.9
544.077	53662.41
544.277	53672.65
544.478	53521.1
544.678	53279.44
544.878	53881.55
545.078	53799.63
545.279	53506.77
545.479	53656.27
545.679	53590.73
545.879	53406.42
546.079	53453.52
546.28	53519.06
546.48	53066.45
546.68	53437.14
546.88	53623.5
547.08	53732.04
547.28	53686.99
547.48	53193.43
547.68	53666.51
547.88	53299.92
548.081	53676.75
548.281	53158.61
548.481	53293.78
548.681	53689.04
548.881	53449.42
549.081	53457.62
549.28	52818.65
549.48	53291.73
549.68	53242.58
549.88	53945.03
550.08	52986.58
550.28	53168.85
550.48	52908.76
550.68	53861.07
550.88	53131.99
551.08	53375.7
551.279	53232.34
551.479	53228.24
551.679	52916.95
551.879	53408.47
552.079	53326.55
552.278	53230.29
552.478	53215.96
552.678	53394.13
552.878	53207.76
553.077	53291.73
553.277	52830.94
553.477	53412.56
553.676	52837.08
553.876	53263.06
554.076	52683.48
554.275	52730.59
554.475	52339.43
554.674	52955.86
554.874	53037.78
555.074	52906.71
555.273	53009.11
555.473	52804.31
555.672	52734.68
555.872	52429.54
556.071	52779.74
556.271	52785.88
556.47	52349.67
556.67	51983.08
556.869	52429.54
557.068	52671.2
557.268	52277.99
557.467	52495.07
557.667	51895.02
557.866	51917.54
558.065	52216.55
558.265	51921.64
558.464	51733.23
558.663	52237.03
558.863	51919.59
559.062	52808.41
559.261	51593.96
559.461	52161.25
559.66	51383.02
559.859	51606.25
560.058	51204.85
560.258	51616.49
560.457	50940.66
560.656	51833.58
560.855	51213.04
561.054	51362.54
561.253	50664.19
561.453	51174.13
561.652	51323.63
561.851	51415.79
562.05	51223.28
562.249	50389.76
562.448	51094.26
562.647	51030.77
562.846	50979.57
563.045	51053.3
563.244	50952.95
563.443	51528.43
563.642	50264.83
563.841	50553.6
564.04	50346.75
564.239	51133.17
564.438	50504.45
564.637	51075.83
564.836	50531.07
565.035	49914.63
565.234	50453.25
565.432	50434.81
565.631	49756.94
565.83	50426.62
566.029	49990.41
566.228	49853.19
566.427	49738.51
566.625	49584.91
566.824	49416.97
567.023	50191.11
567.222	49259.28
567.42	50072.32
567.619	49472.27
567.818	49464.08
568.016	49199.89
568.215	49531.66
568.414	49363.73
568.612	49163.03
568.811	49003.28
569.01	49099.54
569.208	48458.52
569.407	49255.18
569.605	48528.16
569.804	49310.48
570.002	48575.26
570.201	49060.63
570.4	48405.28
570.598	48173.86
570.797	48169.76
570.995	48276.26
571.193	47450.92
571.392	48067.36
571.59	47733.54
571.789	47848.23
571.987	47432.49
572.186	47958.82
572.384	47160.11
572.582	47526.7
572.781	47737.64
572.979	46998.32
573.177	47102.77
573.376	47106.87
573.574	46469.95
573.772	46727.99
573.971	46588.73
574.169	46449.47
574.367	46172.99
574.565	46668.6
574.763	46486.33
574.962	46144.32
575.16	45658.95
575.358	46021.44
575.556	45720.39
575.754	46463.8
575.952	45620.04
576.151	45914.95
576.349	45065.04
576.547	45142.86
576.745	45501.26
576.943	45392.72
577.141	45323.08
577.339	44856.15
577.537	44473.18
577.735	44784.47
577.933	44458.84
578.131	44837.72
578.329	44213.09
578.527	44360.54
578.725	44313.44
578.923	44417.88
579.121	43932.51
579.319	43729.76
579.516	44272.48
579.714	43447.15
579.912	43592.55
580.11	43557.74
580.308	43875.17
580.506	43326.31
580.704	42851.19
580.901	43107.18
581.099	43283.31
581.297	42457.98
581.495	42992.5
581.692	43111.28
581.89	42560.37
582.088	42543.99
582.285	42154.88
582.483	42806.13
582.681	42093.44
582.878	42025.85
583.076	41571.21
583.274	42165.12
583.471	41429.9
583.669	41573.25
583.866	41315.21
584.064	41210.76
584.262	41120.65
584.459	41200.52
584.657	40649.62
584.854	41415.56
585.052	40242.07
585.249	40745.87
585.447	40852.37
585.644	40201.11
585.841	40700.82
586.039	40663.96
586.236	40180.63
586.434	39975.84
586.631	39830.43
586.828	39795.62
587.026	39881.63
587.223	40006.56
587.42	39543.72
587.618	39848.86
587.815	39224.23
588.012	38884.27
588.21	39091.12
588.407	39584.68
588.604	39152.55
588.801	38675.38
588.999	39185.32
589.196	38876.08
589.393	38642.61
589.59	38329.27
589.787	38210.49
589.984	38321.08
590.182	37766.08
590.379	38417.33
590.576	37710.78
590.773	37897.15
590.97	37675.97
591.167	37911.49
591.364	37321.67
591.561	37741.5
591.758	37026.76
591.955	37376.97
592.152	37379.01
592.349	36985.8
592.546	37237.7
592.743	37227.46
592.94	36492.24
593.137	36807.63
593.334	36457.43
593.531	36168.66
593.727	36531.15
593.924	36355.03
594.121	36254.68
594.318	36389.84
594.515	35888.09
594.712	36056.03
594.908	35924.96
595.105	35873.76
595.302	35369.96
595.499	35877.85
595.696	35664.86
595.892	35156.97
596.089	35441.64
596.286	35513.31
596.482	34950.12
596.679	34956.27
596.876	34890.73
597.072	34796.53
597.269	34911.21
597.466	34225.14
597.662	34501.62
597.859	34679.79
598.055	34618.35
598.252	34083.83
598.448	34225.14
598.645	34348.02
598.841	34036.73
599.038	34008.06
599.234	34163.7
599.431	33299.46
599.627	33666.05
599.824	33692.67
600.02	33123.33
600.217	33678.33
600.413	32992.26
600.609	32953.35
600.806	32850.95
601.002	33035.27
601.198	32773.13
601.395	32627.73
601.591	32709.64
601.787	32754.7
601.984	32242.71
602.18	32220.18
602.376	32177.17
602.572	32103.45
602.769	32191.51
602.965	31853.59
603.161	32017.43
603.357	31689.76
603.553	31501.34
603.75	31788.06
603.946	31444
604.142	31665.18
604.338	30962.73
604.534	31052.84
604.73	30637.1
604.926	30587.95
605.122	31136.8
605.318	30432.3
605.514	30321.71
605.71	30481.45
605.906	30641.2
606.102	30428.21
606.298	30008.37
606.494	30104.63
606.69	30014.52
606.886	30020.66
607.082	29922.36
607.278	29750.33
607.474	29422.66
607.67	29672.51
607.866	29326.4
608.062	29717.56
608.257	29273.15
608.453	29488.19
608.649	29506.62
608.845	28732.49
609.041	29248.58
609.236	28843.08
609.432	28834.89
609.628	29000.77
609.824	28808.26
610.019	28402.77
610.215	28435.53
610.411	28425.29
610.606	28212.31
610.802	28466.25
610.998	28542.03
611.193	28384.33
611.389	28034.13
611.584	27483.23
611.78	27804.76
611.976	27882.58
612.171	28009.56
612.367	27790.42
612.562	27585.63
612.758	27389.02
612.953	27346.01
613.149	27595.87
613.344	27112.55
613.539	27671.64
613.735	27161.7
613.93	27655.26
614.126	27016.29
614.321	27505.76
614.517	26954.85
614.712	27026.53
614.907	26723.43
615.103	27026.53
615.298	26750.06
615.493	26750.06
615.688	26444.91
615.884	26756.2
616.079	26186.86
616.274	26387.57
616.47	26207.34
616.665	26442.86
616.86	26270.83
617.055	26248.3
617.25	26018.93
617.445	26014.84
617.641	25459.84
617.836	25670.78
618.031	25382.01
618.226	25715.83
618.421	25488.51
618.616	25463.93
618.811	24820.87
619.006	25676.92
619.201	25017.47
619.396	24927.36
619.591	24829.06
619.786	24777.86
619.981	24431.76
620.176	24704.14
620.371	24476.81
620.566	24069.26
620.761	24274.06
620.956	24323.21
621.151	23995.54
621.346	23803.03
621.541	23518.36
621.735	23999.63
621.93	23282.84
622.125	23721.11
622.32	23344.28
622.515	23202.97
622.709	23063.71
622.904	22914.21
623.099	22817.96
623.294	23090.34
623.488	22398.12
623.683	22547.62
623.878	21925.04
624.072	22391.98
624.267	22152.37
624.462	21822.64
624.656	21748.92
624.851	21664.95
625.046	21759.16
625.24	21652.66
625.435	21398.71
625.629	21490.87
625.824	20997.31
626.018	21181.63
626.213	20720.84
626.407	20749.51
626.602	20618.44
626.796	20624.58
626.991	20225.23
627.185	20313.29
627.38	20364.49
627.574	20110.54
627.768	20042.96
627.963	20014.29
628.157	19829.97
628.352	20008.14
628.546	19590.36
628.74	19965.14
628.935	19659.99
629.129	19520.73
629.323	19016.93
629.517	19221.72
629.712	19182.81
629.906	18922.72
630.1	18787.55
630.294	18810.08
630.489	18554.08
630.683	19070.17
630.877	18453.73
631.071	18410.73
631.265	18484.45
631.459	18185.45
631.653	18089.2
631.848	18201.83
632.042	17646.83
632.236	17784.05
632.43	17810.67
632.624	17841.39
632.818	17634.55
633.012	17448.18
633.206	17362.17
633.4	17374.45
633.594	17009.92
633.788	17083.64
633.982	17261.82
634.176	17112.31
634.369	16852.22
634.563	17020.16
634.757	16866.56
634.951	16809.22
635.145	16575.75
635.339	16657.67
635.533	16164.11
635.726	16286.98
635.92	16276.74
636.114	16571.65
636.308	16141.58
636.501	16207.11
636.695	16073.99
636.889	15824.14
637.083	15916.3
637.276	15506.71
637.47	15758.61
637.664	15719.7
637.857	15682.83
638.051	15844.62
638.244	15131.93
638.438	15453.46
638.632	15195.42
638.825	15002.91
639.019	15136.03
639.212	14859.55
639.406	14669.09
639.599	14851.36
639.793	14945.56
639.986	14482.72
640.18	14746.91
640.373	14531.87
640.567	14298.41
640.76	14355.75
640.954	14286.12
641.147	14365.99
641.34	14069.03
641.534	14429.48
641.727	14126.38
641.92	13917.48
642.114	13835.56
642.307	13872.43
642.5	13751.6
642.694	13686.06
642.887	13735.21
643.08	13577.52
643.273	13647.15
643.467	13411.64
643.66	13319.48
643.853	13217.08
644.046	13253.94
644.239	13108.54
644.432	12901.69
644.626	12801.34
644.819	12905.79
645.012	12987.71
645.205	12789.05
645.398	12811.58
645.591	12535.1
645.784	12383.56
645.977	12444.99
646.17	12318.02
646.363	12158.28
646.556	12287.3
646.749	12299.59
646.942	12219.72
647.135	11801.93
647.328	12045.64
647.521	11787.6
647.714	11844.94
647.907	11861.32
648.099	11742.54
648.292	11742.54
648.485	11605.33
648.678	11263.32
648.871	11388.24
649.064	11318.61
649.256	11412.82
649.449	11300.18
649.642	11042.14
649.835	11122.01
650.027	10780
650.22	10825.05
650.413	10831.19
650.605	10816.86
650.798	10610.01
650.991	10618.21
651.183	10657.12
651.376	10509.66
651.568	10610.01
651.761	10413.41
651.954	10356.07
652.146	10286.44
652.339	10200.42
652.531	10014.06
652.724	9882.99
652.916	9678.19
653.109	10108.26
653.301	9977.19
653.494	9962.86
653.686	9639.28
653.879	9823.59
654.071	9586.03
654.263	9641.32
654.456	9536.88
654.648	9467.25
654.84	9284.98
655.033	9411.95
655.225	9262.45
655.417	9291.12
655.61	9008.5
655.802	9121.14
655.994	8928.63
656.186	8979.83
656.379	8924.54
656.571	8904.06
656.763	8617.34
656.955	8643.96
657.148	8547.71
657.34	8449.41
657.532	8553.85
657.724	8324.48
657.916	8193.41
658.108	8179.08
658.3	8166.79
658.492	8273.28
658.684	8166.79
658.876	8050.05
659.068	7826.82
659.26	7888.26
659.452	7914.89
659.644	7751.05
659.836	7703.95
660.028	7662.99
660.22	7697.8
660.412	7513.49
660.604	7415.18
660.796	7427.47
660.988	7417.23
661.18	7222.67
661.372	7046.55
661.563	7085.46
661.755	7208.34
661.947	7517.58
662.139	7120.28
662.331	7144.85
662.522	6897.05
662.714	6882.71
662.906	6772.12
663.097	6618.52
663.289	6600.09
663.481	6639
663.673	6727.07
663.864	6704.54
664.056	6466.97
664.247	6483.36
664.439	6309.28
664.631	6397.34
664.822	6280.61
665.014	6233.5
665.205	6194.59
665.397	6047.14
665.588	6124.96
665.78	6165.92
665.971	6006.18
666.163	6102.43
666.354	6028.71
666.546	5825.96
666.737	5830.06
666.929	5825.96
667.12	5877.16
667.311	5770.66
667.503	5555.63
667.694	5617.07
667.885	5551.53
668.077	5574.06
668.268	5586.35
668.459	5483.95
668.651	5600.68
668.842	5440.94
669.033	5377.45
669.224	5324.21
669.416	5490.09
669.607	5180.85
669.798	5254.58
669.989	5270.96
670.18	5197.23
670.371	5152.18
670.563	5125.55
670.754	5277.1
670.945	5039.54
671.136	5111.22
671.327	5055.92
671.518	4890.04
671.709	4967.86
671.9	5103.03
672.091	4982.2
672.282	4826.55
672.473	4763.06
672.664	4902.33
672.855	4738.49
673.046	4748.73
673.237	4910.52
673.428	4785.59
673.619	4701.62
673.809	4767.16
674	4666.81
674.191	4724.15
674.382	4548.03
674.573	4580.79
674.764	4613.56
674.954	4586.94
675.145	4521.4
675.336	4644.28
675.527	4545.98
675.717	4416.96
675.908	4373.95
676.099	4517.31
676.289	4351.42
676.48	4466.11
676.671	4455.87
676.861	4474.3
677.052	4201.92
677.243	4246.98
677.433	4224.45
677.624	4353.47
677.814	4197.82
678.005	4314.56
678.195	4191.68
678.386	4298.17
678.576	4103.62
678.767	4177.34
678.957	4060.61
679.148	4144.58
679.338	4212.16
679.529	4173.25
679.719	3982.79
679.909	4052.42
680.1	4052.42
680.29	4025.79
680.481	3861.96
680.671	3947.97
680.861	3866.05
681.052	3990.98
681.242	3976.64
681.432	4056.51
681.622	3911.11
681.813	3972.55
682.003	3937.73
682.193	3769.8
682.383	3868.1
682.573	3802.57
682.764	3923.4
682.954	3923.4
683.144	3915.2
683.334	3818.95
683.524	3812.81
683.714	3884.48
683.904	3935.68
684.094	3886.53
684.284	3833.29
684.474	3937.73
684.664	3712.46
684.854	3763.65
685.044	3771.85
685.234	3659.21
685.424	3642.82
685.614	3818.95
685.804	3696.07
685.994	3706.31
686.184	3800.52
686.374	3753.41
686.564	3712.46
686.753	3661.26
686.943	3612.1
687.133	3851.72
687.323	3782.09
687.513	3612.1
687.702	3622.34
687.892	3720.65
688.082	3548.62
688.272	3702.22
688.461	3714.5
688.651	3538.38
688.841	3734.98
689.03	3714.5
689.22	3601.87
689.41	3651.02
689.599	3657.16
689.789	3685.83
689.979	3585.48
690.168	3706.31
690.358	3632.58
690.547	3612.1
690.737	3433.93
690.926	3634.63
691.116	3585.48
691.305	3771.85
691.495	3552.71
691.684	3599.82
691.874	3622.34
692.063	3673.54
692.252	3446.22
692.442	3552.71
692.631	3386.83
692.82	3575.24
693.01	3550.67
693.199	3562.95
693.388	3657.16
693.578	3546.57
693.767	3558.86
693.956	3571.15
694.146	3521.99
694.335	3591.63
694.524	3503.56
694.713	3530.19
694.902	3583.43
695.092	3591.63
695.281	3519.95
695.47	3497.42
695.659	3372.49
695.848	3530.19
696.037	3567.05
696.226	3524.04
696.415	3372.49
696.604	3425.74
696.793	3503.56
696.982	3415.5
697.171	3530.19
697.36	3427.79
697.549	3446.22
697.738	3446.22
697.927	3407.31
698.116	3440.08
698.305	3368.4
698.494	3358.16
698.683	3442.12
698.872	3399.12
699.061	3417.55
699.25	3427.79
699.438	3356.11
699.627	3286.48
699.816	3374.54
700.005	3362.25
700.193	3392.97
700.382	3304.91
700.571	3378.64
700.76	3331.53
700.948	3423.69
701.137	3311.05
701.326	3091.92
701.514	3194.32
701.703	3155.41
701.892	3294.67
702.08	3280.33
702.269	3169.74
702.457	2989.52
702.646	3108.3
702.834	3311.05
703.023	3210.7
703.212	3136.98
703.4	3077.59
703.589	3071.44
703.777	3108.3
703.965	3020.24
704.154	3055.06
704.342	3145.17
704.531	3055.06
704.719	2975.19
704.907	2979.28
705.096	2944.47
705.284	3055.06
705.472	3024.34
705.661	2946.52
705.849	2946.52
706.037	2989.52
706.226	2913.75
706.414	2932.18
706.602	2942.42
706.79	2776.53
706.979	2842.07
707.167	2770.39
707.355	2833.88
707.543	2862.55
707.731	2825.68
707.919	2719.19
708.107	2852.31
708.296	2723.29
708.484	2678.23
708.672	2780.63
708.86	2776.53
709.048	2741.72
709.236	2723.29
709.424	2754.01
709.612	2633.18
709.8	2637.27
709.988	2594.26
710.176	2674.14
710.364	2579.93
710.551	2690.52
710.739	2637.27
710.927	2624.98
711.115	2596.31
711.303	2584.02
711.491	2659.8
711.679	2653.66
711.866	2579.93
712.054	2498.01
712.242	2426.33
712.43	2446.81
712.617	2493.91
712.805	2432.47
712.993	2600.41
713.181	2323.93
713.368	2459.1
713.556	2338.27
713.744	2481.63
713.931	2461.15
714.119	2366.94
714.306	2360.8
714.494	2424.28
714.682	2301.4
714.869	2432.47
715.057	2360.8
715.244	2317.79
715.432	2317.79
715.619	2280.93
715.807	2319.84
715.994	2272.73
716.182	2225.63
716.369	2373.08
716.556	2166.24
716.744	2227.68
716.931	2186.72
717.119	2315.74
717.306	2276.83
717.493	2196.96
717.681	2147.81
717.868	2274.78
718.055	2029.03
718.242	1996.26
718.43	2110.94
718.617	2207.2
718.804	2192.86
718.991	1990.11
719.179	2086.37
719.366	2252.25
719.553	2061.79
719.74	2074.08
719.927	2112.99
720.114	2035.17
720.301	1967.59
720.488	2088.42
720.676	1879.52
720.863	1951.2
721.05	2033.12
721.237	1928.67
721.424	1811.94
721.611	1820.13
721.798	1854.95
721.985	1830.37
722.172	1904.1
722.358	1918.43
722.545	1940.96
722.732	1873.38
722.919	1914.34
723.106	1857
723.293	1875.43
723.48	1857
723.667	1781.22
723.853	1719.78
724.04	1734.12
724.227	1738.21
724.414	1676.77
724.6	1727.97
724.787	1975.78
724.974	1711.59
725.161	1676.77
725.347	1666.53
725.534	1748.45
725.72	1713.64
725.907	1781.22
726.094	1754.6
726.28	1697.25
726.467	1748.45
726.653	1648.1
726.84	1768.93
727.027	1654.25
727.213	1545.7
727.4	1664.49
727.586	1594.86
727.773	1502.7
727.959	1590.76
728.145	1484.27
728.332	1580.52
728.518	1596.9
728.705	1611.24
728.891	1535.46
729.077	1584.62
729.264	1547.75
729.45	1607.14
729.636	1654.25
729.823	1451.5
730.009	1461.74
730.195	1465.83
730.382	1521.13
730.568	1568.23
730.754	1486.31
730.94	1441.26
731.126	1465.83
731.313	1498.6
731.499	1494.51
731.685	1549.8
731.871	1377.77
732.057	1463.79
732.243	1457.64
732.429	1517.03
732.615	1433.07
732.801	1381.87
732.987	1369.58
733.173	1306.09
733.359	1312.24
733.545	1320.43
733.731	1353.2
733.917	1297.9
734.103	1355.24
734.289	1267.18
734.475	1334.76
734.661	1345
734.847	1379.82
735.033	1320.43
735.219	1314.28
735.404	1252.84
735.59	1285.61
735.776	1162.73
735.962	1289.71
736.148	1277.42
736.333	1283.56
736.519	1265.13
736.705	1195.5
736.89	1289.71
737.076	1281.52
737.262	1197.55
737.447	1203.69
737.633	1164.78
737.819	1222.13
738.004	1306.09
738.19	1154.54
738.375	1205.74
738.561	1240.56
738.747	1263.08
738.932	1220.08
739.118	1134.06
739.303	1132.01
739.489	1289.71
739.674	1179.12
739.859	1199.6
740.045	1066.48
740.23	1048.05
740.416	1154.54
740.601	1166.83
740.786	1101.3
740.972	1076.72
741.157	1068.53
741.342	1103.34
741.528	1068.53
741.713	1162.73
741.898	1056.24
742.084	1052.14
742.269	994.8
742.454	1132.01
742.639	1054.19
742.824	998.9
743.01	1011.18
743.195	1082.86
743.38	984.56
743.565	1031.66
743.75	1064.43
743.935	1000.94
744.12	982.51
744.305	919.03
744.49	951.79
744.675	964.08
744.86	964.08
745.045	949.75
745.23	933.36
745.415	976.37
745.6	996.85
745.785	947.7
745.97	1070.58
746.155	919.03
746.34	869.87
746.525	853.49
746.71	910.83
746.895	935.41
747.079	1033.71
747.264	896.5
747.449	945.65
747.634	886.26
747.819	919.03
748.003	962.03
748.188	876.02
748.373	921.07
748.557	914.93
748.742	837.11
748.927	839.16
749.111	888.31
749.296	779.76
749.481	921.07
749.665	869.87
749.85	790
750.034	904.69
750.219	716.28
750.404	876.02
750.588	792.05
750.773	802.29
750.957	914.93
751.141	859.63
751.326	835.06
751.51	736.76
751.695	695.8
751.879	785.91
752.064	775.67
752.248	824.82
752.432	792.05
752.617	763.38
752.801	777.72
752.985	712.18
753.17	718.33
753.354	802.29
753.538	712.18
753.722	663.03
753.907	585.21
754.091	816.63
754.275	685.56
754.459	675.32
754.643	654.84
754.828	677.37
755.012	695.8
755.196	640.5
755.38	658.93
755.564	620.02
755.748	689.65
755.932	718.33
756.116	691.7
756.3	710.13
756.484	622.07
756.668	593.4
756.852	615.93
757.036	697.85
757.22	663.03
757.404	558.58
757.588	589.3
757.772	613.88
757.956	613.88
758.14	697.85
758.323	626.17
758.507	511.48
758.691	703.99
758.875	587.26
759.059	669.17
759.242	556.54
759.426	652.79
759.61	581.11
759.794	564.73
759.977	579.06
760.161	646.65
760.345	605.69
760.528	572.92
760.712	476.66
760.895	634.36
761.079	540.15
761.263	542.2
761.446	572.92
761.63	536.06
761.813	474.62
761.997	564.73
762.18	536.06
762.364	585.21
762.547	558.58
762.731	620.02
762.914	560.63
763.098	538.1
763.281	513.53
763.464	515.58
763.648	509.43
763.831	599.54
764.015	534.01
764.198	540.15
764.381	429.56
764.564	564.73
764.748	564.73
764.931	525.82
765.114	550.39
765.297	523.77
765.481	505.34
765.664	503.29
765.847	466.42
766.03	513.53
766.213	441.85
766.397	566.78
766.58	456.19
766.763	560.63
766.946	480.76
767.129	515.58
767.312	486.9
767.495	458.23
767.678	499.19
767.861	597.49
768.044	558.58
768.227	515.58
768.41	499.19
768.593	540.15
768.776	474.62
768.959	495.1
769.142	495.1
769.324	482.81
769.507	513.53
769.69	441.85
769.873	421.37
770.056	464.38
770.239	501.24
770.421	499.19
770.604	482.81
770.787	495.1
770.97	478.71
771.152	402.94
771.335	429.56
771.518	470.52
771.7	452.09
771.883	460.28
772.066	470.52
772.248	488.95
772.431	364.03
772.613	501.24
772.796	488.95
772.978	503.29
773.161	507.38
773.343	456.19
773.526	450.04
773.708	439.8
773.891	378.36
774.073	460.28
774.256	376.31
774.438	447.99
774.621	480.76
774.803	478.71
774.985	390.65
775.168	450.04
775.35	376.31
775.532	439.8
775.715	384.51
775.897	359.93
776.079	425.47
776.261	443.9
776.444	374.27
776.626	441.85
776.808	392.7
776.99	402.94
777.173	394.75
777.355	347.64
777.537	388.6
777.719	364.03
777.901	366.07
778.083	425.47
778.265	327.16
778.447	386.55
778.629	437.75
778.811	353.79
778.993	407.03
779.175	378.36
779.357	411.13
779.539	382.46
779.721	386.55
779.903	398.84
780.085	366.07
780.267	302.59
780.449	372.22
780.631	460.28
780.812	323.07
780.994	433.66
781.176	337.4
781.358	345.59
781.54	321.02
781.721	284.16
781.903	349.69
782.085	343.55
782.267	265.72
782.448	345.59
782.63	288.25
782.812	304.64
782.993	341.5
783.175	286.2
783.357	321.02
783.538	339.45
783.72	253.44
783.901	312.83
784.083	282.11
784.264	245.24
784.446	232.96
784.627	325.12
784.809	290.3
784.99	314.88
785.172	339.45
785.353	304.64
785.535	263.68
785.716	259.58
785.897	235
786.079	300.54
786.26	243.2
786.441	325.12
786.623	218.62
786.804	249.34
786.985	263.68
787.167	359.93
787.348	286.2
787.529	222.72
787.71	239.1
787.891	261.63
788.073	200.19
788.254	282.11
788.435	169.47
788.616	343.55
788.797	142.85
788.978	282.11
789.159	237.05
789.34	278.01
789.522	220.67
789.703	204.28
789.884	177.66
790.065	183.81
790.246	218.62
790.427	173.57
790.607	286.2
790.788	220.67
790.969	196.09
791.15	224.76
791.331	269.82
791.512	212.48
791.693	214.52
791.874	216.57
792.054	269.82
792.235	222.72
792.416	200.19
792.597	163.33
792.778	282.11
792.958	192
793.139	173.57
793.32	214.52
793.5	159.23
793.681	214.52
793.862	249.34
794.042	200.19
794.223	196.09
794.404	177.66
794.584	204.28
794.765	218.62
794.945	208.38
795.126	155.13
795.306	183.81
795.487	202.24
795.667	200.19
795.848	165.37
796.028	200.19
796.209	198.14
796.389	85.5
796.57	204.28
796.75	103.93
796.93	118.27
797.111	194.05
797.291	120.32
797.471	144.89
797.652	175.61
797.832	118.27
798.012	198.14
798.192	220.67
798.373	89.6
798.553	105.98
798.733	196.09
798.913	136.7
799.093	138.75
799.274	228.86
799.454	159.23
799.634	155.13
799.814	159.23
799.994	157.18
800.174	181.76
800.354	112.13
800.534	140.8
800.714	140.8
800.894	181.76
801.074	228.86
801.254	69.12
801.434	105.98
801.614	171.52
801.794	157.18
801.974	427.51
802.154	108.03
802.334	232.96
802.514	151.04
802.693	99.84
802.873	110.08
803.053	155.13
803.233	157.18
803.413	153.09
803.592	99.84
803.772	110.08
803.952	91.65
804.131	185.85
804.311	32.26
804.491	105.98
804.67	122.37
804.85	159.23
805.03	153.09
805.209	120.32
805.389	138.75
805.568	130.56
805.748	167.42
805.928	163.33
806.107	97.79
806.287	89.6
806.466	146.94
806.646	85.5
806.825	126.46
807.004	132.61
807.184	118.27
807.363	138.75
807.543	206.33
807.722	134.65
807.901	120.32
808.081	124.41
808.26	46.59
808.439	144.89
808.619	52.74
808.798	108.03
808.977	108.03
809.156	130.56
809.336	97.79
809.515	146.94
809.694	48.64
809.873	126.46
810.052	126.46
810.231	26.11
810.411	122.37
810.59	118.27
810.769	93.69
810.948	73.21
811.127	26.11
811.306	81.41
811.485	93.69
811.664	122.37
811.843	56.83
812.022	116.22
812.201	87.55
812.38	112.13
812.559	128.51
812.737	165.37
812.916	67.07
813.095	136.7
813.274	120.32
813.453	56.83
813.632	140.8
813.811	65.02
813.989	5.63
814.168	93.69
814.347	40.45
814.526	108.03
814.704	56.83
814.883	40.45
815.062	-8.7
815.24	105.98
815.419	54.78
815.598	62.98
815.776	73.21
815.955	73.21
816.133	-29.18
816.312	77.31
816.49	34.3
816.669	95.74
816.847	124.41
817.026	144.89
817.204	60.93
817.383	148.99
817.561	52.74
817.74	116.22
817.918	56.83
818.097	136.7
818.275	3.58
818.453	79.36
818.632	110.08
818.81	134.65
818.988	83.45
819.167	105.98
819.345	83.45
819.523	73.21
819.701	36.35
819.879	62.98
820.058	22.02
820.236	-4.61
820.414	81.41
820.592	114.17
820.77	110.08
820.948	140.8
821.127	103.93
821.305	146.94
821.483	52.74
821.661	105.98
821.839	54.78
822.017	48.64
822.195	54.78
822.373	75.26
822.551	36.35
822.729	26.11
822.907	71.17
823.085	52.74
823.262	54.78
823.44	52.74
823.618	50.69
823.796	81.41
823.974	32.26
824.152	9.73
824.329	-18.94
824.507	52.74
824.685	142.85
824.863	187.9
825.04	58.88
825.218	69.12
825.396	93.69
825.574	71.17
825.751	-0.51
825.929	138.75
826.107	9.73
826.284	56.83
826.462	11.78
826.639	-66.05
826.817	48.64
826.994	75.26
827.172	24.06
827.349	140.8
827.527	34.3
827.704	101.89
827.882	110.08
828.059	85.5
828.237	56.83
828.414	71.17
828.591	24.06
828.769	62.98
828.946	56.83
829.124	81.41
829.301	22.02
829.478	81.41
829.655	130.56
829.833	22.02
830.01	9.73
830.187	75.26
830.364	-29.18
830.542	93.69
830.719	69.12
830.896	32.26
831.073	65.02
831.25	110.08
831.427	17.92
831.604	36.35
831.782	24.06
831.959	105.98
832.136	89.6
832.313	28.16
832.49	58.88
832.667	42.5
832.844	9.73
833.021	34.3
833.198	32.26
833.374	128.51
833.551	77.31
833.728	38.4
833.905	60.93
834.082	32.26
834.259	99.84
834.436	67.07
834.612	-70.14
834.789	15.87
834.966	30.21
835.143	40.45
835.319	-6.66
835.496	28.16
835.673	42.5
835.85	87.55
836.026	36.35
836.203	32.26
836.38	26.11
836.556	89.6
836.733	60.93
836.909	97.79
837.086	56.83
837.262	67.07
837.439	48.64
837.616	120.32
837.792	56.83
837.968	44.54
838.145	-2.56
838.321	54.78
838.498	67.07
838.674	52.74
838.851	79.36
839.027	65.02
839.203	73.21
839.38	97.79
839.556	-6.66
839.732	67.07
839.909	58.88
840.085	85.5
840.261	77.31
840.437	56.83
840.614	36.35
840.79	24.06
840.966	-51.71
841.142	40.45
841.318	28.16
841.494	46.59
841.671	77.31
841.847	34.3
842.023	26.11
842.199	89.6
842.375	67.07
842.551	50.69
842.727	44.54
842.903	36.35
843.079	32.26
843.255	77.31
843.431	46.59
843.607	-14.85
843.783	46.59
843.959	65.02
844.134	3.58
844.31	22.02
844.486	73.21
844.662	15.87
844.838	48.64
845.013	32.26
845.189	48.64
845.365	15.87
845.541	122.37
845.716	-4.61
845.892	50.69
846.068	9.73
846.244	7.68
846.419	36.35
846.595	-8.7
846.77	75.26
846.946	7.68
847.122	11.78
847.297	79.36
847.473	97.79
847.648	9.73
847.824	24.06
847.999	40.45
848.175	77.31
848.35	95.74
848.526	-8.7
848.701	32.26
848.876	32.26
849.052	46.59
849.227	97.79
849.403	-2.56
849.578	-16.9
849.753	-70.14
849.929	-0.51
850.104	54.78
850.279	-8.7
850.454	32.26
850.63	-31.23
850.805	28.16
850.98	50.69
851.155	-16.9
851.33	56.83
851.505	65.02
851.681	67.07
851.856	-4.61
852.031	48.64
852.206	50.69
852.381	9.73
852.556	24.06
852.731	9.73
852.906	22.02
853.081	-6.66
853.256	52.74
853.431	19.97
853.606	54.78
853.781	34.3
853.956	-6.66
854.131	62.98
854.305	48.64
854.48	19.97
854.655	52.74
854.83	-6.66
855.005	-72.19
855.18	26.11
855.354	54.78
855.529	24.06
855.704	32.26
855.879	24.06
856.053	-43.52
856.228	30.21
856.403	50.69
856.577	73.21
856.752	-39.42
856.926	32.26
857.101	48.64
857.276	93.69
857.45	34.3
857.625	15.87
857.799	40.45
857.974	32.26
858.148	30.21
858.323	40.45
858.497	87.55
858.672	89.6
858.846	-18.94
859.02	-14.85
859.195	-70.14
859.369	32.26
859.543	44.54
859.718	19.97
859.892	24.06
860.066	-47.62
860.241	-18.94
860.415	48.64
860.589	24.06
860.763	52.74
860.938	48.64
861.112	60.93
861.286	7.68
861.46	42.5
861.634	-33.28
861.808	60.93
861.982	3.58
862.157	93.69
862.331	-4.61
862.505	138.75
862.679	32.26
862.853	-10.75
863.027	24.06
863.201	32.26
863.375	46.59
863.549	36.35
863.722	-10.75
863.896	34.3
864.07	1.54
864.244	-10.75
864.418	24.06
864.592	-0.51
864.766	-33.28
864.939	38.4
865.113	-12.8
865.287	50.69
865.461	11.78
865.634	7.68
865.808	71.17
865.982	42.5
866.156	5.63
866.329	3.58
866.503	65.02
866.676	46.59
866.85	-12.8
867.024	95.74
867.197	-43.52
867.371	60.93
867.544	65.02
867.718	38.4
867.891	-41.47
868.065	9.73
868.238	-31.23
868.412	28.16
868.585	36.35
868.759	105.98
868.932	60.93
869.105	-31.23
869.279	-20.99
869.452	17.92
869.625	26.11
869.799	26.11
869.972	34.3
870.145	-39.42
870.319	85.5
870.492	24.06
870.665	-4.61
870.838	-33.28
871.011	48.64
871.185	56.83
871.358	-0.51
871.531	-18.94
871.704	30.21
871.877	46.59
872.05	42.5
872.223	79.36
872.396	-14.85
872.569	28.16
872.742	-35.33
872.915	22.02
873.088	-45.57
873.261	24.06
873.434	40.45
873.607	60.93
873.78	95.74
873.953	-64
874.126	17.92
874.299	44.54
874.471	24.06
874.644	-6.66
874.817	-39.42
874.99	3.58
875.163	67.07
875.335	-47.62
875.508	-14.85
875.681	22.02
875.853	-39.42
876.026	-45.57
876.199	15.87
876.371	42.5
876.544	-37.38
876.717	-18.94
876.889	7.68
877.062	40.45
877.234	32.26
877.407	7.68
877.579	-8.7
877.752	-14.85
877.924	-18.94
878.097	5.63
878.269	-0.51
878.442	30.21
878.614	-29.18
878.786	40.45
878.959	-37.38
879.131	-6.66
879.303	75.26
879.476	65.02
879.648	75.26
879.82	-10.75
879.993	17.92
880.165	40.45
880.337	-29.18
880.509	40.45
880.681	7.68
880.854	50.69
881.026	-0.51
881.198	3.58
881.37	22.02
881.542	11.78
881.714	79.36
881.886	48.64
882.058	36.35
882.23	-25.09
882.402	50.69
882.574	11.78
882.746	-37.38
882.918	22.02
883.09	17.92
883.262	28.16
883.434	-2.56
883.606	24.06
883.778	-23.04
883.95	48.64
884.122	-49.66
884.293	-29.18
884.465	5.63
884.637	32.26
884.809	24.06
884.98	-23.04
885.152	65.02
885.324	26.11
885.496	-8.7
885.667	40.45
885.839	24.06
886.011	38.4
886.182	50.69
886.354	-29.18
886.525	17.92
886.697	-47.62
886.869	-66.05
887.04	34.3
887.212	13.82
887.383	124.41
887.555	138.75
887.726	-41.47
887.897	22.02
888.069	48.64
888.24	28.16
888.412	-35.33
888.583	-2.56
888.754	3.58
888.926	-57.86
889.097	-12.8
889.268	-16.9
889.44	-25.09
889.611	-6.66
889.782	-41.47
889.953	40.45
890.125	-16.9
890.296	-25.09
890.467	32.26
890.638	46.59
890.809	48.64
890.98	7.68
891.151	40.45
891.323	26.11
891.494	28.16
891.665	5.63
891.836	9.73
892.007	5.63
892.178	17.92
892.349	28.16
892.52	-33.28
892.691	-10.75
892.862	9.73
893.032	-35.33
893.203	11.78
893.374	9.73
893.545	-2.56
893.716	22.02
893.887	11.78
894.057	-43.52
894.228	-16.9
894.399	48.64
894.57	46.59
894.74	-2.56
894.911	73.21
895.082	42.5
895.253	-31.23
895.423	26.11
895.594	19.97
895.764	5.63
895.935	-20.99
896.106	7.68
896.276	89.6
896.447	17.92
896.617	-0.51
896.788	-6.66
896.958	101.89
897.129	48.64
897.299	-12.8
897.47	-53.76
897.64	-37.38
897.81	-29.18
897.981	30.21
898.151	15.87
898.322	81.41
898.492	1.54
898.662	9.73
898.832	-8.7
899.003	83.45
899.173	46.59
899.343	42.5
899.513	-6.66
