Data from USB4F104151__23__13-52-38-203.txt Node

Date: Thu Mar 13 13:52:38 EDT 2025
User: louis
Spectrometer: USB4F10415
Trigger mode: 4
Integration Time (sec): 1.000000E-2
Scans to average: 1
Electric dark correction enabled: true
Nonlinearity correction enabled: false
Boxcar width: 0
XAxis mode: Wavelengths
Number of Pixels in Spectrum: 3648
>>>>>Begin Spectral Data<<<<<
178.204	-54.61
178.424	-54.61
178.644	-54.61
178.864	-93.52
179.084	-21.85
179.304	-5.46
179.524	-5.46
179.744	25.26
179.964	35.5
180.184	-5.46
180.404	-7.51
180.624	25.26
180.844	51.88
181.064	-68.95
181.283	25.26
181.503	-44.37
181.723	-25.94
181.943	-30.04
182.163	31.4
182.383	-85.33
182.602	127.66
182.822	23.21
183.042	0.68
183.262	-50.52
183.482	2.73
183.701	-46.42
183.921	35.5
184.141	12.97
184.361	-36.18
184.58	-50.52
184.8	21.16
185.02	33.45
185.239	-13.65
185.459	-5.46
185.679	33.45
185.898	-25.94
186.118	49.83
186.338	2.73
186.557	15.02
186.777	68.27
186.997	-40.28
187.216	6.83
187.436	39.59
187.655	-5.46
187.875	74.41
188.095	-5.46
188.314	58.03
188.534	78.51
188.753	60.07
188.973	-30.04
189.192	27.31
189.412	39.59
189.631	49.83
189.851	-5.46
190.07	0.68
190.29	-23.89
190.509	62.12
190.729	2.73
190.948	-1.37
191.168	27.31
191.387	27.31
191.607	-7.51
191.826	-15.7
192.045	19.11
192.265	39.59
192.484	10.92
192.704	64.17
192.923	74.41
193.142	66.22
193.362	-42.32
193.581	39.59
193.8	80.55
194.02	23.21
194.239	-27.99
194.458	17.07
194.678	0.68
194.897	-79.19
195.116	-9.56
195.335	21.16
195.555	66.22
195.774	70.31
195.993	-52.56
196.212	6.83
196.432	4.78
196.651	-46.42
196.87	53.93
197.089	58.03
197.308	8.87
197.528	-3.41
197.747	-1.37
197.966	-64.85
198.185	-42.32
198.404	35.5
198.623	49.83
198.842	68.27
199.062	66.22
199.281	-11.61
199.5	-23.89
199.719	55.98
199.938	35.5
200.157	-23.89
200.376	17.07
200.595	64.17
200.814	25.26
201.033	39.59
201.252	6.83
201.471	72.36
201.69	31.4
201.909	29.35
202.128	6.83
202.347	8.87
202.566	-5.46
202.785	29.35
203.004	60.07
203.223	-15.7
203.442	-1.37
203.661	-40.28
203.879	21.16
204.098	-27.99
204.317	-34.13
204.536	25.26
204.755	-58.71
204.974	41.64
205.193	0.68
205.411	58.03
205.63	47.79
205.849	-32.08
206.068	-52.56
206.287	12.97
206.505	23.21
206.724	19.11
206.943	-1.37
207.162	-75.09
207.381	8.87
207.599	33.45
207.818	-27.99
208.037	33.45
208.255	12.97
208.474	19.11
208.693	17.07
208.911	17.07
209.13	23.21
209.349	4.78
209.567	98.99
209.786	23.21
210.005	6.83
210.223	60.07
210.442	29.35
210.661	82.6
210.879	-21.85
211.098	33.45
211.316	-1.37
211.535	76.46
211.753	41.64
211.972	47.79
212.191	2.73
212.409	12.97
212.628	-17.75
212.846	39.59
213.065	68.27
213.283	-3.41
213.502	15.02
213.72	17.07
213.938	2.73
214.157	17.07
214.375	64.17
214.594	39.59
214.812	-19.8
215.031	39.59
215.249	-79.19
215.467	17.07
215.686	43.69
215.904	45.74
216.122	49.83
216.341	0.68
216.559	-19.8
216.778	17.07
216.996	0.68
217.214	-13.65
217.432	-23.89
217.651	0.68
217.869	-32.08
218.087	43.69
218.306	-36.18
218.524	-42.32
218.742	17.07
218.96	25.26
219.179	70.31
219.397	4.78
219.615	-11.61
219.833	64.17
220.051	35.5
220.27	66.22
220.488	17.07
220.706	25.26
220.924	37.55
221.142	0.68
221.36	49.83
221.578	60.07
221.796	-27.99
222.015	23.21
222.233	-21.85
222.451	35.5
222.669	21.16
222.887	41.64
223.105	-9.56
223.323	64.17
223.541	37.55
223.759	-34.13
223.977	-40.28
224.195	47.79
224.413	23.21
224.631	94.89
224.849	-38.23
225.067	-1.37
225.285	66.22
225.503	72.36
225.721	-13.65
225.939	-32.08
226.157	60.07
226.375	8.87
226.592	33.45
226.81	-40.28
227.028	62.12
227.246	-48.47
227.464	35.5
227.682	17.07
227.9	35.5
228.117	-27.99
228.335	10.92
228.553	10.92
228.771	-32.08
228.989	15.02
229.206	43.69
229.424	-1.37
229.642	-9.56
229.86	-1.37
230.077	12.97
230.295	-5.46
230.513	19.11
230.731	10.92
230.948	66.22
231.166	19.11
231.384	8.87
231.601	55.98
231.819	23.21
232.037	41.64
232.254	2.73
232.472	2.73
232.689	51.88
232.907	29.35
233.125	-19.8
233.342	21.16
233.56	39.59
233.777	29.35
233.995	-15.7
234.213	33.45
234.43	0.68
234.648	33.45
234.865	82.6
235.083	41.64
235.3	-52.56
235.518	51.88
235.735	60.07
235.953	-7.51
236.17	72.36
236.388	51.88
236.605	2.73
236.822	68.27
237.04	51.88
237.257	68.27
237.475	-21.85
237.692	37.55
237.909	82.6
238.127	-75.09
238.344	-13.65
238.562	105.13
238.779	0.68
238.996	-3.41
239.214	109.22
239.431	70.31
239.648	-7.51
239.865	-34.13
240.083	27.31
240.3	10.92
240.517	27.31
240.735	-81.24
240.952	23.21
241.169	25.26
241.386	-17.75
241.603	-5.46
241.821	-40.28
242.038	-21.85
242.255	-13.65
242.472	-23.89
242.689	45.74
242.907	15.02
243.124	-11.61
243.341	0.68
243.558	-5.46
243.775	107.18
243.992	76.46
244.209	72.36
244.426	12.97
244.643	23.21
244.86	23.21
245.078	51.88
245.295	-27.99
245.512	-15.7
245.729	51.88
245.946	15.02
246.163	21.16
246.38	17.07
246.597	37.55
246.814	27.31
247.031	-17.75
247.248	6.83
247.464	21.16
247.681	21.16
247.898	96.94
248.115	10.92
248.332	-46.42
248.549	-7.51
248.766	-25.94
248.983	78.51
249.2	-3.41
249.417	53.93
249.633	-11.61
249.85	19.11
250.067	29.35
250.284	68.27
250.501	-15.7
250.717	51.88
250.934	12.97
251.151	29.35
251.368	-1.37
251.585	43.69
251.801	86.7
252.018	31.4
252.235	-9.56
252.451	-7.51
252.668	-44.37
252.885	37.55
253.102	-58.71
253.318	0.68
253.535	4.78
253.752	70.31
253.968	-68.95
254.185	12.97
254.401	47.79
254.618	-5.46
254.835	-36.18
255.051	-5.46
255.268	-30.04
255.484	-15.7
255.701	74.41
255.917	17.07
256.134	35.5
256.351	25.26
256.567	31.4
256.784	-34.13
257	-44.37
257.217	43.69
257.433	64.17
257.65	29.35
257.866	51.88
258.082	-46.42
258.299	60.07
258.515	12.97
258.732	25.26
258.948	82.6
259.165	-48.47
259.381	2.73
259.597	10.92
259.814	37.55
260.03	2.73
260.246	15.02
260.463	43.69
260.679	76.46
260.895	-19.8
261.112	66.22
261.328	17.07
261.544	17.07
261.761	0.68
261.977	39.59
262.193	19.11
262.409	58.03
262.626	-19.8
262.842	80.55
263.058	-13.65
263.274	25.26
263.49	33.45
263.707	19.11
263.923	19.11
264.139	29.35
264.355	19.11
264.571	70.31
264.787	21.16
265.004	-44.37
265.22	47.79
265.436	-25.94
265.652	-32.08
265.868	4.78
266.084	-1.37
266.3	-23.89
266.516	27.31
266.732	39.59
266.948	58.03
267.164	-5.46
267.38	64.17
267.596	0.68
267.812	-19.8
268.028	-46.42
268.244	43.69
268.46	64.17
268.676	51.88
268.892	60.07
269.108	53.93
269.324	6.83
269.54	10.92
269.756	35.5
269.972	23.21
270.188	-23.89
270.403	64.17
270.619	33.45
270.835	23.21
271.051	51.88
271.267	6.83
271.483	-32.08
271.698	76.46
271.914	-3.41
272.13	-1.37
272.346	35.5
272.562	51.88
272.777	0.68
272.993	31.4
273.209	47.79
273.425	80.55
273.64	-13.65
273.856	76.46
274.072	12.97
274.287	58.03
274.503	105.13
274.719	-1.37
274.934	55.98
275.15	72.36
275.366	-32.08
275.581	-34.13
275.797	-13.65
276.012	-1.37
276.228	-3.41
276.444	-7.51
276.659	66.22
276.875	17.07
277.09	80.55
277.306	72.36
277.521	2.73
277.737	74.41
277.952	74.41
278.168	-5.46
278.383	0.68
278.599	64.17
278.814	115.37
279.03	53.93
279.245	33.45
279.461	62.12
279.676	4.78
279.892	10.92
280.107	-38.23
280.322	-27.99
280.538	58.03
280.753	12.97
280.969	103.08
281.184	35.5
281.399	-1.37
281.615	72.36
281.83	51.88
282.045	-11.61
282.26	80.55
282.476	72.36
282.691	0.68
282.906	-27.99
283.122	35.5
283.337	-5.46
283.552	80.55
283.767	-25.94
283.983	-7.51
284.198	60.07
284.413	-27.99
284.628	-15.7
284.843	6.83
285.058	-27.99
285.274	39.59
285.489	-5.46
285.704	8.87
285.919	51.88
286.134	19.11
286.349	-17.75
286.564	-5.46
286.779	4.78
286.995	10.92
287.21	2.73
287.425	-7.51
287.64	0.68
287.855	21.16
288.07	12.97
288.285	33.45
288.5	4.78
288.715	21.16
288.93	49.83
289.145	-9.56
289.36	8.87
289.575	-1.37
289.79	-25.94
290.004	72.36
290.219	33.45
290.434	21.16
290.649	-23.89
290.864	-17.75
291.079	55.98
291.294	101.03
291.509	15.02
291.724	70.31
291.938	-30.04
292.153	-1.37
292.368	47.79
292.583	78.51
292.798	-21.85
293.012	12.97
293.227	68.27
293.442	-52.56
293.657	119.46
293.871	66.22
294.086	27.31
294.301	88.75
294.516	15.02
294.73	6.83
294.945	39.59
295.16	45.74
295.374	68.27
295.589	45.74
295.804	41.64
296.018	-7.51
296.233	49.83
296.447	107.18
296.662	55.98
296.877	25.26
297.091	8.87
297.306	-5.46
297.52	-23.89
297.735	-7.51
297.949	-3.41
298.164	80.55
298.378	-25.94
298.593	80.55
298.807	-9.56
299.022	4.78
299.236	27.31
299.451	84.65
299.665	-25.94
299.88	60.07
300.094	-19.8
300.309	29.35
300.523	84.65
300.737	15.02
300.952	-17.75
301.166	55.98
301.381	21.16
301.595	-13.65
301.809	19.11
302.024	105.13
302.238	-32.08
302.452	45.74
302.667	84.65
302.881	35.5
303.095	19.11
303.309	4.78
303.524	-30.04
303.738	-42.32
303.952	-48.47
304.166	58.03
304.381	-38.23
304.595	58.03
304.809	-1.37
305.023	41.64
305.237	-3.41
305.452	-1.37
305.666	31.4
305.88	72.36
306.094	33.45
306.308	37.55
306.522	55.98
306.736	-11.61
306.95	27.31
307.164	27.31
307.379	43.69
307.593	12.97
307.807	82.6
308.021	-25.94
308.235	27.31
308.449	45.74
308.663	-11.61
308.877	19.11
309.091	6.83
309.305	-3.41
309.519	15.02
309.733	41.64
309.947	51.88
310.161	39.59
310.374	47.79
310.588	23.21
310.802	39.59
311.016	-25.94
311.23	39.59
311.444	53.93
311.658	-1.37
311.872	6.83
312.085	-42.32
312.299	45.74
312.513	6.83
312.727	39.59
312.941	88.75
313.154	45.74
313.368	2.73
313.582	-71
313.796	6.83
314.009	86.7
314.223	-21.85
314.437	105.13
314.651	33.45
314.864	4.78
315.078	-44.37
315.292	21.16
315.505	43.69
315.719	43.69
315.933	49.83
316.146	27.31
316.36	19.11
316.573	-42.32
316.787	41.64
317.001	51.88
317.214	8.87
317.428	12.97
317.641	8.87
317.855	45.74
318.068	35.5
318.282	74.41
318.495	41.64
318.709	39.59
318.922	125.61
319.136	-36.18
319.349	41.64
319.563	49.83
319.776	39.59
319.99	62.12
320.203	10.92
320.417	47.79
320.63	-5.46
320.843	107.18
321.057	29.35
321.27	19.11
321.483	43.69
321.697	37.55
321.91	19.11
322.124	29.35
322.337	-21.85
322.55	64.17
322.763	17.07
322.977	119.46
323.19	-5.46
323.403	4.78
323.617	68.27
323.83	45.74
324.043	10.92
324.256	10.92
324.469	-15.7
324.683	70.31
324.896	25.26
325.109	2.73
325.322	66.22
325.535	8.87
325.748	29.35
325.962	31.4
326.175	6.83
326.388	-13.65
326.601	-13.65
326.814	103.08
327.027	-11.61
327.24	-7.51
327.453	49.83
327.666	39.59
327.879	10.92
328.092	35.5
328.305	21.16
328.518	17.07
328.731	70.31
328.944	19.11
329.157	-5.46
329.37	68.27
329.583	6.83
329.796	45.74
330.009	-13.65
330.222	8.87
330.435	94.89
330.648	29.35
330.861	-34.13
331.073	68.27
331.286	39.59
331.499	25.26
331.712	64.17
331.925	-34.13
332.138	-30.04
332.35	76.46
332.563	-42.32
332.776	47.79
332.989	-17.75
333.202	47.79
333.414	6.83
333.627	43.69
333.84	84.65
334.053	-7.51
334.265	19.11
334.478	35.5
334.691	-9.56
334.903	27.31
335.116	53.93
335.329	12.97
335.541	27.31
335.754	135.85
335.966	-58.71
336.179	17.07
336.392	-13.65
336.604	-32.08
336.817	6.83
337.029	23.21
337.242	23.21
337.454	66.22
337.667	80.55
337.88	64.17
338.092	101.03
338.305	53.93
338.517	25.26
338.729	84.65
338.942	-30.04
339.154	43.69
339.367	6.83
339.579	31.4
339.792	-54.61
340.004	-1.37
340.217	6.83
340.429	33.45
340.641	23.21
340.854	-19.8
341.066	62.12
341.278	55.98
341.491	8.87
341.703	84.65
341.915	68.27
342.128	76.46
342.34	53.93
342.552	-21.85
342.764	43.69
342.977	53.93
343.189	-5.46
343.401	-9.56
343.613	43.69
343.826	53.93
344.038	62.12
344.25	90.79
344.462	41.64
344.674	51.88
344.886	6.83
345.099	10.92
345.311	86.7
345.523	-30.04
345.735	15.02
345.947	17.07
346.159	55.98
346.371	49.83
346.583	35.5
346.795	94.89
347.007	10.92
347.219	119.46
347.431	27.31
347.643	23.21
347.855	17.07
348.067	23.21
348.279	-17.75
348.491	47.79
348.703	-71
348.915	64.17
349.127	58.03
349.339	80.55
349.551	-13.65
349.763	94.89
349.975	39.59
350.187	12.97
350.399	62.12
350.61	49.83
350.822	64.17
351.034	-11.61
351.246	70.31
351.458	19.11
351.669	53.93
351.881	2.73
352.093	49.83
352.305	4.78
352.517	0.68
352.728	35.5
352.94	43.69
353.152	37.55
353.363	31.4
353.575	47.79
353.787	-5.46
353.999	37.55
354.21	55.98
354.422	31.4
354.633	55.98
354.845	70.31
355.057	8.87
355.268	68.27
355.48	-1.37
355.692	80.55
355.903	78.51
356.115	72.36
356.326	-40.28
356.538	23.21
356.749	-17.75
356.961	19.11
357.172	-27.99
357.384	-21.85
357.595	41.64
357.807	15.02
358.018	-17.75
358.23	35.5
358.441	68.27
358.653	55.98
358.864	45.74
359.075	-1.37
359.287	-9.56
359.498	45.74
359.709	35.5
359.921	74.41
360.132	31.4
360.344	-17.75
360.555	8.87
360.766	23.21
360.977	58.03
361.189	94.89
361.4	15.02
361.611	6.83
361.823	64.17
362.034	82.6
362.245	33.45
362.456	58.03
362.667	-48.47
362.879	23.21
363.09	31.4
363.301	12.97
363.512	10.92
363.723	-36.18
363.935	6.83
364.146	2.73
364.357	62.12
364.568	88.75
364.779	49.83
364.99	53.93
365.201	43.69
365.412	86.7
365.623	33.45
365.834	84.65
366.045	31.4
366.256	-1.37
366.467	84.65
366.678	109.22
366.889	41.64
367.1	6.83
367.311	88.75
367.522	-3.41
367.733	-11.61
367.944	90.79
368.155	-21.85
368.366	66.22
368.577	74.41
368.788	98.99
368.999	17.07
369.209	58.03
369.42	39.59
369.631	62.12
369.842	43.69
370.053	84.65
370.264	47.79
370.474	49.83
370.685	37.55
370.896	15.02
371.107	10.92
371.317	37.55
371.528	74.41
371.739	-13.65
371.95	51.88
372.16	68.27
372.371	60.07
372.582	82.6
372.792	25.26
373.003	64.17
373.214	45.74
373.424	78.51
373.635	8.87
373.846	27.31
374.056	39.59
374.267	31.4
374.477	4.78
374.688	80.55
374.898	37.55
375.109	-9.56
375.319	98.99
375.53	51.88
375.74	70.31
375.951	-13.65
376.161	21.16
376.372	49.83
376.582	41.64
376.793	39.59
377.003	76.46
377.214	72.36
377.424	55.98
377.635	66.22
377.845	12.97
378.055	51.88
378.266	4.78
378.476	27.31
378.686	-62.8
378.897	82.6
379.107	19.11
379.317	82.6
379.528	17.07
379.738	10.92
379.948	23.21
380.158	0.68
380.369	31.4
380.579	-9.56
380.789	68.27
380.999	17.07
381.21	39.59
381.42	29.35
381.63	25.26
381.84	43.69
382.05	-40.28
382.261	39.59
382.471	76.46
382.681	17.07
382.891	-19.8
383.101	-19.8
383.311	10.92
383.521	43.69
383.731	84.65
383.941	33.45
384.151	25.26
384.361	55.98
384.571	82.6
384.781	10.92
384.991	41.64
385.201	55.98
385.411	-13.65
385.621	35.5
385.831	68.27
386.041	123.56
386.251	2.73
386.461	74.41
386.671	-19.8
386.881	2.73
387.091	129.7
387.301	62.12
387.511	23.21
387.72	78.51
387.93	-5.46
388.14	51.88
388.35	10.92
388.56	39.59
388.769	49.83
388.979	66.22
389.189	8.87
389.399	66.22
389.609	84.65
389.818	-13.65
390.028	41.64
390.238	88.75
390.447	39.59
390.657	33.45
390.867	-3.41
391.076	53.93
391.286	150.18
391.496	-5.46
391.705	29.35
391.915	-42.32
392.125	84.65
392.334	25.26
392.544	68.27
392.753	-1.37
392.963	41.64
393.172	29.35
393.382	23.21
393.591	55.98
393.801	92.84
394.01	70.31
394.22	35.5
394.429	105.13
394.639	51.88
394.848	70.31
395.058	58.03
395.267	125.61
395.477	76.46
395.686	55.98
395.895	144.04
396.105	131.75
396.314	-11.61
396.524	19.11
396.733	74.41
396.942	35.5
397.152	64.17
397.361	47.79
397.57	94.89
397.78	55.98
397.989	15.02
398.198	78.51
398.407	78.51
398.617	47.79
398.826	60.07
399.035	129.7
399.244	88.75
399.453	15.02
399.663	82.6
399.872	21.16
400.081	-7.51
400.29	84.65
400.499	47.79
400.708	27.31
400.917	88.75
401.127	86.7
401.336	101.03
401.545	82.6
401.754	82.6
401.963	127.66
402.172	80.55
402.381	107.18
402.59	107.18
402.799	25.26
403.008	37.55
403.217	88.75
403.426	70.31
403.635	74.41
403.844	129.7
404.053	74.41
404.262	2.73
404.471	92.84
404.68	98.99
404.888	58.03
405.097	68.27
405.306	168.62
405.515	111.27
405.724	64.17
405.933	68.27
406.142	150.18
406.35	117.42
406.559	166.57
406.768	166.57
406.977	98.99
407.185	74.41
407.394	148.14
407.603	76.46
407.812	109.22
408.02	197.29
408.229	105.13
408.438	117.42
408.646	273.06
408.855	170.66
409.064	209.58
409.272	193.19
409.481	221.86
409.69	221.86
409.898	160.42
410.107	189.1
410.315	252.58
410.524	250.53
410.733	154.28
410.941	271.01
411.15	250.53
411.358	225.96
411.567	252.58
411.775	248.49
411.984	246.44
412.192	260.77
412.401	236.2
412.609	342.69
412.818	273.06
413.026	363.17
413.234	363.17
413.443	359.08
413.651	326.31
413.86	389.8
414.068	361.13
414.276	387.75
414.485	418.47
414.693	432.8
414.901	434.85
415.11	420.52
415.318	406.18
415.526	494.24
415.734	463.52
415.943	449.19
416.151	520.87
416.359	512.67
416.567	535.2
416.776	598.69
416.984	590.5
417.192	637.6
417.4	629.41
417.608	580.26
417.817	717.47
418.025	723.62
418.233	774.81
418.441	737.95
418.649	805.53
418.857	869.02
419.065	848.54
419.273	793.25
419.481	912.03
419.689	940.7
419.897	944.8
420.105	934.56
420.313	1082.01
420.521	1041.05
420.729	1069.72
420.937	1096.35
421.145	1217.18
421.353	1190.55
421.561	1217.18
421.769	1327.77
421.977	1333.91
422.185	1362.58
422.393	1438.36
422.601	1501.84
422.809	1516.18
423.017	1450.64
423.224	1583.76
423.432	1729.17
423.64	1786.51
423.848	1792.66
424.056	1815.18
424.263	1923.73
424.471	1890.96
424.679	1866.38
424.887	1931.92
425.094	2114.19
425.302	2103.95
425.51	2101.9
425.718	2194.06
425.925	2198.15
426.133	2355.85
426.341	2378.37
426.548	2527.88
426.756	2474.63
426.964	2622.08
427.171	2689.67
427.379	2738.82
427.586	2902.65
427.794	2982.53
428.001	3013.24
428.209	3289.72
428.417	3084.92
428.624	3410.55
428.832	3359.35
429.039	3428.98
429.247	3443.32
429.454	3674.74
429.662	3922.54
429.869	3592.82
430.076	3959.41
430.284	3914.35
430.491	3885.68
430.699	4102.76
430.906	4151.92
431.114	4254.31
431.321	4334.18
431.528	4598.37
431.736	4747.87
431.943	4999.77
432.15	4840.03
432.358	5016.16
432.565	5251.67
432.772	5284.44
432.979	5384.79
433.187	5524.05
433.394	5573.21
433.601	6017.61
433.808	5890.64
434.016	6068.81
434.223	6318.67
434.43	6494.79
434.637	6357.58
434.844	6736.45
435.052	6914.63
435.259	6748.74
435.466	6963.78
435.673	6859.33
435.88	7244.35
436.087	7850.55
436.294	7811.64
436.501	7371.32
436.708	7721.52
436.915	7971.38
437.122	8297
437.329	8364.59
437.537	8579.62
437.743	8749.61
437.95	8624.68
438.157	9108
438.364	9329.18
438.571	9335.32
438.778	9613.85
438.985	10295.82
439.192	9912.85
439.399	10240.53
439.606	9929.24
439.813	10541.58
440.02	10963.46
440.227	11016.71
440.433	10879.49
440.64	11235.84
440.847	11254.27
441.054	11645.43
441.261	12157.43
441.467	11969.01
441.674	12175.86
441.881	12773.86
442.088	12569.07
442.294	12569.07
442.501	12880.36
442.708	13015.52
442.914	13607.39
443.121	14348.75
443.328	13877.72
443.534	14952.9
443.741	14565.84
443.948	14311.89
444.154	15387.07
444.361	15079.88
444.568	15471.04
444.774	15514.05
444.981	15616.44
445.187	15993.27
445.394	16558.51
445.6	16470.45
445.807	18237.84
446.013	17207.72
446.22	17645.98
446.426	18299.28
446.633	18280.85
446.839	18995.59
447.046	18270.61
447.252	19448.19
447.459	19128.71
447.665	19513.73
447.871	19876.22
448.078	20777.33
448.284	20046.2
448.491	20646.26
448.697	21416.29
448.903	22030.68
449.11	21602.66
449.316	21582.18
449.522	21791.07
449.728	22425.94
449.935	22528.34
450.141	22405.46
450.347	22786.38
450.553	22139.22
450.76	22636.88
450.966	23107.91
451.172	23109.96
451.378	23505.22
451.584	23069
451.791	23693.63
451.997	23357.77
452.203	24109.37
452.409	23757.12
452.615	23836.99
452.821	22694.22
453.027	22460.76
453.233	23804.22
453.44	22645.07
453.646	23212.36
453.852	23212.36
454.058	23523.65
454.264	22853.97
454.47	23353.67
454.676	22788.43
454.882	23716.16
455.088	21461.35
455.294	21991.77
455.5	21991.77
455.705	22366.55
455.911	21385.57
456.117	20713.84
456.323	20498.8
456.529	19474.82
456.735	20273.53
456.941	19868.03
457.147	19708.29
457.352	19112.33
457.558	18860.43
457.764	18737.55
457.97	18172.31
458.176	17875.35
458.381	17942.94
458.587	16912.81
458.793	17277.35
458.999	16599.47
459.204	17457.57
459.41	17084.84
459.616	15778.23
459.821	15636.92
460.027	15833.53
460.233	15509.95
460.438	14719.43
460.644	15020.49
460.85	14123.48
461.055	14045.65
461.261	13773.27
461.466	12818.92
461.672	12351.98
461.878	13386.21
462.083	12726.76
462.289	12321.26
462.494	12464.62
462.7	11581.95
462.905	11426.3
463.111	11758.07
463.316	11749.88
463.522	11745.78
463.727	11618.81
463.932	11397.63
464.138	11471.36
464.343	11659.77
464.549	11198.98
464.754	11661.82
464.959	11450.88
465.165	11428.35
465.37	11192.83
465.575	10555.91
465.781	11006.47
465.986	11227.65
466.191	10902.02
466.397	10494.47
466.602	10123.79
466.807	10263.05
467.012	10267.15
467.218	10471.95
467.423	10172.94
467.628	10439.18
467.833	10732.04
468.038	10396.17
468.244	10158.61
468.449	10498.57
468.654	10387.98
468.859	10201.61
469.064	10074.64
469.269	9777.69
469.474	9749.01
469.679	10013.2
469.885	9714.2
470.09	9841.17
470.295	9669.14
470.5	9275.93
470.705	9562.65
470.91	9208.35
471.115	9177.63
471.32	9296.41
471.525	9333.28
471.73	9103.9
471.935	9146.91
472.139	8835.62
472.344	8868.39
472.549	8831.52
472.754	8671.78
472.959	8559.14
473.164	8540.71
473.369	8163.89
473.574	8663.59
473.778	8446.51
473.983	8342.06
474.188	8301.1
474.393	7793.2
474.598	7873.07
474.802	7946.8
475.007	7918.13
475.212	7733.81
475.417	7725.62
475.621	7563.83
475.826	7508.54
476.031	7344.7
476.235	7180.86
476.44	7371.32
476.645	7291.45
476.849	7293.5
477.054	7328.31
477.259	7160.38
477.463	7139.9
477.668	6953.54
477.872	7225.92
478.077	6898.24
478.282	6744.64
478.486	6668.87
478.691	6664.77
478.895	6552.13
479.1	6734.4
479.304	6662.72
479.509	6447.69
479.713	6675.01
479.918	6388.3
480.122	6402.63
480.326	6437.45
480.531	6365.77
480.735	6382.15
480.94	6259.28
481.144	6412.87
481.348	6109.77
481.553	6314.57
481.757	6099.53
481.961	6281.8
482.166	6376.01
482.37	6203.98
482.574	6099.53
482.778	6150.73
482.983	6304.33
483.187	6154.83
483.391	6271.56
483.595	6163.02
483.8	6249.04
484.004	6206.03
484.208	6322.76
484.412	6101.58
484.616	6253.13
484.821	5984.85
485.025	6146.64
485.229	6240.84
485.433	6027.85
485.637	6189.64
485.841	6216.27
486.045	6160.97
486.249	6177.36
486.453	6154.83
486.657	6283.85
486.861	6218.32
487.065	6081.1
487.269	6128.21
487.473	6115.92
487.677	6146.64
487.881	6294.09
488.085	6097.49
488.289	6273.61
488.493	6187.6
488.697	6314.57
488.901	6283.85
489.105	6328.91
489.309	6306.38
489.512	6191.69
489.716	6314.57
489.92	6398.54
490.124	6253.13
490.328	6509.13
490.531	6386.25
490.735	6611.53
490.939	6398.54
491.143	6378.06
491.346	6412.87
491.55	6541.89
491.754	6595.14
491.958	6632.01
492.161	6605.38
492.365	6718.02
492.569	6738.5
492.772	6500.94
492.976	6619.72
493.18	6828.61
493.383	6849.09
493.587	6697.54
493.79	6799.94
493.994	6865.47
494.197	6949.44
494.401	7019.07
494.605	7047.74
494.808	7268.92
495.012	7150.14
495.215	7103.04
495.419	7256.64
495.622	7227.96
495.825	7488.06
496.029	7529.02
496.232	7488.06
496.436	7516.73
496.639	7801.4
496.843	7797.3
497.046	8024.62
497.249	7893.55
497.453	8137.26
497.656	8206.89
497.859	8157.74
498.063	8174.13
498.266	8501.8
498.469	8469.03
498.673	8665.64
498.876	8620.58
499.079	8790.56
499.282	8903.2
499.485	8845.86
499.689	9069.09
499.892	9271.84
500.095	9335.32
500.298	9490.97
500.501	9421.34
500.705	9560.6
500.908	9894.42
501.111	9775.64
501.314	9990.67
501.517	10039.83
501.72	10158.61
501.923	10306.06
502.126	10545.67
502.329	10816.01
502.532	10705.42
502.735	10734.09
502.938	11203.07
503.141	10967.56
503.344	11379.2
503.547	11282.94
503.75	11579.9
503.953	11561.47
504.156	11909.62
504.359	11952.63
504.562	12108.27
504.765	12327.41
504.968	12536.3
505.17	12554.73
505.373	12726.76
505.576	12917.22
505.779	13085.15
505.982	13210.08
506.185	13267.42
506.387	13724.12
506.59	13504.99
506.793	14004.69
506.996	13949.4
507.198	14287.31
507.401	14399.95
507.604	14356.94
507.807	14836.17
508.009	14936.52
508.212	15229.38
508.415	15413.7
508.617	15534.53
508.82	15694.27
509.022	15540.67
509.225	16175.54
509.428	16529.84
509.63	16593.33
509.833	16490.93
510.035	16765.35
510.238	16902.57
510.44	17150.37
510.643	17768.86
510.845	17672.6
511.048	17760.67
511.25	18012.57
511.453	18293.14
511.655	18987.4
511.858	18499.98
512.06	18772.36
512.262	18989.45
512.465	18954.63
512.667	19663.23
512.87	19771.77
513.072	19773.82
513.274	20404.6
513.477	20586.86
513.679	20898.16
513.881	21156.2
514.084	21301.61
514.286	21272.93
514.488	21715.3
514.69	22180.18
514.893	22280.53
515.095	22157.66
515.297	22970.7
515.499	22982.99
515.701	23423.3
515.904	23576.9
516.106	23798.08
516.308	23724.35
516.51	24072.51
516.712	24314.17
516.914	24697.14
517.116	25235.75
517.318	25260.33
517.52	25612.58
517.722	25633.06
517.925	25807.14
518.127	26489.11
518.329	26353.94
518.531	26679.57
518.733	27037.97
518.935	27441.42
519.136	27422.98
519.338	27994.37
519.54	28076.29
519.742	28358.91
519.944	28426.49
520.146	29186.29
520.348	29012.21
520.55	29442.28
520.752	30060.77
520.954	30259.42
521.155	30167.26
521.357	30615.77
521.559	31232.21
521.761	31092.94
521.963	31246.54
522.164	31533.26
522.366	31598.79
522.568	32028.87
522.77	32321.73
522.971	32536.76
523.173	32377.02
523.375	33005.75
523.576	33157.3
523.778	33202.35
523.98	33820.84
524.181	34029.73
524.383	34261.15
524.584	34072.74
524.786	34459.8
524.988	34590.87
525.189	34689.18
525.391	34908.31
525.592	35391.63
525.794	35369.1
525.995	35627.15
526.197	35709.07
526.398	35758.22
526.6	35987.59
526.801	36128.9
527.003	36425.85
527.204	36296.83
527.406	36935.8
527.607	37113.97
527.808	37425.26
528.01	36534.4
528.211	37023.86
528.412	37398.64
528.614	37539.95
528.815	37490.8
529.016	37892.2
529.218	37683.31
529.419	37998.69
529.62	38201.44
529.822	38338.66
530.023	37949.54
530.224	38164.58
530.425	38453.34
530.626	37951.59
530.828	38490.21
531.029	38864.99
531.23	38486.11
531.431	38520.93
531.632	38680.67
531.833	39049.3
532.035	39018.58
532.236	38821.98
532.437	39368.79
532.638	38733.92
532.839	39569.49
533.04	39417.94
533.241	38785.11
533.442	39723.08
533.643	39485.52
533.844	39293.01
534.045	39372.88
534.246	39116.89
534.447	39538.77
534.648	39233.62
534.849	39411.79
535.05	39290.96
535.251	39630.93
535.451	39567.44
535.652	39559.25
535.853	39422.03
536.054	39714.89
536.255	39600.21
536.456	39262.29
536.657	39782.48
536.857	39827.53
537.058	39542.86
537.259	39682.13
537.46	39870.54
537.66	39284.82
537.861	39723.08
538.062	39565.39
538.263	39952.46
538.463	39555.15
538.664	39518.29
538.865	39712.84
539.065	39778.38
539.266	39368.79
539.466	40181.83
539.667	39579.73
539.868	39755.85
540.068	39651.41
540.269	39772.24
540.469	39620.69
540.67	39993.42
540.87	39688.27
541.071	39708.75
541.271	40261.7
541.472	39675.98
541.672	39860.3
541.873	39555.15
542.073	39219.28
542.274	39778.38
542.474	39907.4
542.675	39323.73
542.875	40087.62
543.075	39895.11
543.276	39667.79
543.476	39876.68
543.676	39710.8
543.877	40009.8
544.077	39688.27
544.277	39888.97
544.478	39837.77
544.678	39934.03
544.878	39522.38
545.078	39729.23
545.279	39573.58
545.479	40001.61
545.679	39829.58
545.879	39454.8
546.079	39886.92
546.28	39727.18
546.48	39071.83
546.68	39983.18
546.88	39610.45
547.08	39907.4
547.28	39571.53
547.48	39397.46
547.68	39778.38
547.88	39561.29
548.081	39608.4
548.281	39534.67
548.481	39497.81
548.681	40001.61
548.881	39825.48
549.081	39620.69
549.28	39444.56
549.48	39925.83
549.68	39809.1
549.88	40091.72
550.08	39145.56
550.28	40243.27
550.48	39477.33
550.68	40136.77
550.88	39774.28
551.08	39751.76
551.279	39870.54
551.479	39546.96
551.679	39809.1
551.879	39776.33
552.079	39653.45
552.278	39293.01
552.478	39651.41
552.678	39639.12
552.878	39628.88
553.077	39114.84
553.277	39354.45
553.477	39784.52
553.676	39424.08
553.876	39352.4
554.076	39450.7
554.275	39479.38
554.475	39049.3
554.674	39870.54
554.874	39219.28
555.074	39581.77
555.273	39366.74
555.473	39538.77
555.672	39075.93
555.872	39225.43
556.071	39405.65
556.271	39520.34
556.47	39174.23
556.67	38991.96
556.869	39069.78
557.068	39159.89
557.268	38725.72
557.467	38801.5
557.667	38895.71
557.866	38887.51
558.065	38721.63
558.265	38957.14
558.464	38492.26
558.663	38895.71
558.863	38266.98
559.062	38670.43
559.261	38402.14
559.461	38760.54
559.66	38359.14
559.859	38041.7
560.058	38426.72
560.258	38144.1
560.457	38146.15
560.656	38369.38
560.855	38109.29
561.054	38008.93
561.253	37714.03
561.453	38277.22
561.652	38479.97
561.851	38346.85
562.05	38262.88
562.249	37802.09
562.448	37992.55
562.647	37871.72
562.846	37922.92
563.045	38019.17
563.244	37466.22
563.443	37941.35
563.642	37247.09
563.841	37238.9
564.04	37298.29
564.239	37771.37
564.438	37312.63
564.637	37238.9
564.836	37269.62
565.035	37124.21
565.234	37386.35
565.432	36984.95
565.631	37136.5
565.83	37116.02
566.029	37081.2
566.228	36993.14
566.427	36788.35
566.625	36282.5
566.824	36407.42
567.023	36419.71
567.222	36184.19
567.42	36606.08
567.619	36651.13
567.818	36300.93
568.016	36204.67
568.215	36491.39
568.414	35852.42
568.612	36368.51
568.811	35651.72
569.01	36317.31
569.208	35358.86
569.407	36128.9
569.605	35317.9
569.804	35922.05
570.002	35115.15
570.201	35633.29
570.4	35055.76
570.598	35252.37
570.797	34982.04
570.995	35489.93
571.193	34705.56
571.392	34746.52
571.59	34613.4
571.789	34701.47
571.987	34455.71
572.186	34498.72
572.384	34396.32
572.582	34898.07
572.781	34336.93
572.979	33853.61
573.177	34336.93
573.376	34470.04
573.574	33806.5
573.772	33882.28
573.971	34052.26
574.169	33411.24
574.367	33409.2
574.565	33740.97
574.763	33501.36
574.962	33124.53
575.16	32741.56
575.358	33347.76
575.556	32958.64
575.754	32966.84
575.952	32790.71
576.151	32913.59
576.349	32590.01
576.547	32940.21
576.745	32745.65
576.943	32383.16
577.141	32647.35
577.339	32227.52
577.537	32147.65
577.735	32123.07
577.933	31879.36
578.131	32202.94
578.329	31834.31
578.527	31664.33
578.725	31891.65
578.923	31715.53
579.121	31056.08
579.319	31539.4
579.516	31551.69
579.714	31523.02
579.912	31267.02
580.11	31058.13
580.308	31125.71
580.506	31092.94
580.704	30513.37
580.901	30617.82
581.099	31475.91
581.297	30367.96
581.495	30865.62
581.692	30501.08
581.89	30144.73
582.088	30402.78
582.285	29954.27
582.483	30058.72
582.681	30275.8
582.878	30089.44
583.076	29489.38
583.274	30101.73
583.471	29634.79
583.669	29616.36
583.866	29470.95
584.064	29862.11
584.262	29139.18
584.459	29692.13
584.657	29303.02
584.854	29458.67
585.052	28506.36
585.249	29163.76
585.447	29178.09
585.644	28928.24
585.841	29004.02
586.039	28887.28
586.236	28348.67
586.434	28547.32
586.631	28164.35
586.828	28307.71
587.026	28393.72
587.223	28111.1
587.42	28000.51
587.618	28258.56
587.815	27953.41
588.012	27715.84
588.21	27697.41
588.407	27728.13
588.604	27781.38
588.801	27369.74
588.999	27351.31
589.196	27324.68
589.393	27463.94
589.59	27357.45
589.787	27363.59
589.984	27017.49
590.182	27037.97
590.379	27283.72
590.576	26917.14
590.773	26874.13
590.97	26638.61
591.167	26874.13
591.364	26566.93
591.561	26730.77
591.758	26169.63
591.955	26489.11
592.152	26558.74
592.349	26165.53
592.546	26202.39
592.743	26274.07
592.94	25645.35
593.137	26036.51
593.334	26136.86
593.531	25393.45
593.727	25680.16
593.924	25729.31
594.121	25467.17
594.318	25657.64
594.515	25260.33
594.712	25766.18
594.908	25467.17
595.105	25434.41
595.302	25131.31
595.499	25176.36
595.696	25102.64
595.892	24770.86
596.089	25145.64
596.286	24869.17
596.482	24940.85
596.679	24852.78
596.876	24820.02
597.072	24729.91
597.269	24842.54
597.466	24222.01
597.662	24365.37
597.859	24707.38
598.055	24375.61
598.252	23982.4
598.448	24099.13
598.645	23996.73
598.841	23853.37
599.038	23970.11
599.234	24039.74
599.431	23773.5
599.627	23730.5
599.824	23931.2
600.02	23511.36
600.217	23691.59
600.413	23494.98
600.609	23177.54
600.806	23116.11
601.002	23339.33
601.198	23138.63
601.395	23054.67
601.591	23028.04
601.787	23007.56
601.984	22864.21
602.18	23122.25
602.376	22614.35
602.572	22434.13
602.769	22665.55
602.965	22309.21
603.161	22593.87
603.357	22075.74
603.553	22337.88
603.75	22102.36
603.946	21999.96
604.142	22126.94
604.338	21639.52
604.534	22018.39
604.73	21801.31
604.926	21868.89
605.122	21920.09
605.318	21537.12
605.514	21668.19
605.71	21363.04
605.906	21270.89
606.102	21461.35
606.298	21352.8
606.494	21162.34
606.69	21338.47
606.886	21348.71
607.082	20885.87
607.278	21465.44
607.474	20767.09
607.67	21086.57
607.866	20715.89
608.062	21031.27
608.257	20631.92
608.453	20685.17
608.649	20939.12
608.845	20195.7
609.041	20631.92
609.236	20699.5
609.432	20191.61
609.628	20210.04
609.824	20316.53
610.019	19941.75
610.215	20345.2
610.411	20205.94
610.606	20029.82
610.802	20005.24
610.998	20009.34
611.193	20021.63
611.389	19841.4
611.584	19872.12
611.78	19736.96
611.976	19620.22
612.171	19788.16
612.367	19792.25
612.562	19440
612.758	19237.25
612.953	19151.24
613.149	19753.34
613.344	19265.92
613.539	19534.21
613.735	19270.02
613.93	19296.64
614.126	18796.94
614.321	19167.62
614.517	19005.83
614.712	18958.73
614.907	19106.18
615.103	18919.82
615.298	18928.01
615.493	19165.57
615.688	18688.4
615.884	18858.38
616.079	18428.31
616.274	18502.03
616.47	18704.78
616.665	18833.8
616.86	18334.1
617.055	18473.36
617.25	18227.6
617.445	18518.42
617.641	18299.28
617.836	18311.57
618.031	17973.66
618.226	18047.38
618.421	17897.88
618.616	18110.87
618.811	17811.87
619.006	18000.28
619.201	17578.4
619.396	17834.39
619.591	17502.62
619.786	17623.45
619.981	17377.7
620.176	17396.13
620.371	16921
620.566	17385.89
620.761	17150.37
620.956	17336.74
621.151	17129.89
621.346	17107.37
621.541	16892.33
621.735	16882.09
621.93	16576.94
622.125	16378.29
622.32	16542.13
622.515	16583.09
622.709	16503.21
622.904	16200.12
623.099	16050.61
623.294	16282.03
623.488	15983.03
623.683	15931.83
623.878	15571.39
624.072	15747.51
624.267	15897.02
624.462	15856.06
624.656	15688.12
624.851	15399.36
625.046	15585.72
625.24	15434.18
625.435	14950.85
625.629	15030.73
625.824	15137.22
626.018	15280.58
626.213	14721.48
626.407	14778.83
626.602	14451.15
626.796	14625.23
626.991	14668.23
627.185	14350.8
627.38	14213.59
627.574	14346.7
627.768	14000.6
627.963	14141.91
628.157	13933.01
628.352	14031.32
628.546	13568.48
628.74	13900.25
628.935	13746.65
629.129	13545.95
629.323	13650.39
629.517	13386.21
629.712	13408.73
629.906	13388.25
630.1	13158.88
630.294	13410.78
630.489	13091.3
630.683	13277.66
630.877	13210.08
631.071	12896.74
631.265	13183.46
631.459	12949.99
631.653	12728.81
631.848	12882.41
632.042	12734.95
632.236	12665.32
632.43	12382.7
632.624	12528.11
632.818	12456.43
633.012	12292.59
633.206	12274.16
633.4	12190.19
633.594	12214.77
633.788	12175.86
633.982	12161.52
634.176	11780.6
634.369	11999.73
634.563	11721.21
634.757	11973.11
634.951	11913.72
635.145	11839.99
635.339	11684.34
635.533	11618.81
635.726	11831.8
635.92	11188.74
636.114	11448.83
636.308	11459.07
636.501	11567.61
636.695	11293.18
636.889	11350.53
637.083	11241.98
637.276	11155.97
637.47	11325.95
637.664	11000.32
637.857	10965.51
638.051	11155.97
638.244	10816.01
638.438	10846.73
638.632	10549.77
638.825	10736.13
639.019	10408.46
639.212	10519.05
639.406	10545.67
639.599	10285.58
639.793	10471.95
639.986	10181.14
640.18	10404.36
640.373	10060.31
640.567	10060.31
640.76	10039.83
640.954	10166.8
641.147	9914.9
641.34	9767.45
641.534	9726.49
641.727	9921.04
641.92	9671.19
642.114	9630.23
642.307	9667.1
642.5	9423.39
642.694	9392.67
642.887	9404.96
643.08	9421.34
643.273	9335.32
643.467	9304.6
643.66	9140.77
643.853	9226.78
644.046	9009.7
644.239	9093.66
644.432	9163.29
644.626	8690.21
644.819	8852
645.012	8765.99
645.205	9040.42
645.398	8903.2
645.591	8487.47
645.784	8821.28
645.977	8651.3
646.17	8438.31
646.363	8323.63
646.556	8421.93
646.749	8350.25
646.942	8409.64
647.135	8368.68
647.328	8260.14
647.521	8133.17
647.714	8063.54
647.907	8184.37
648.099	7922.23
648.292	8049.2
648.485	8106.54
648.678	7836.21
648.871	7832.12
649.064	7752.24
649.256	7793.2
649.449	7729.72
649.642	7977.52
649.835	7703.09
650.027	7494.2
650.22	7467.58
650.413	7531.06
650.605	7373.37
650.798	7191.1
650.991	7205.44
651.183	7459.38
651.376	7334.46
651.568	7211.58
651.761	7242.3
651.954	7193.15
652.146	7160.38
652.339	7076.41
652.531	6943.3
652.724	7002.69
652.916	6795.84
653.109	6875.71
653.301	6842.95
653.494	6902.34
653.686	6683.2
653.879	6894.15
654.071	6791.75
654.263	6711.88
654.456	6466.12
654.648	6517.32
654.84	6443.59
655.033	6412.87
655.225	6408.78
655.417	6419.02
655.61	6412.87
655.802	6429.26
655.994	6060.62
656.186	6322.76
656.379	6185.55
656.571	6083.15
656.763	6197.84
656.955	6244.94
657.148	6044.24
657.34	5800.53
657.532	5773.91
657.724	5792.34
657.916	5999.18
658.108	5898.83
658.3	5767.76
658.492	5757.52
658.684	5726.8
658.876	5587.54
659.068	5825.11
659.26	5595.73
659.452	5661.27
659.644	5479
659.836	5390.94
660.028	5538.39
660.22	5358.17
660.412	5421.66
660.604	5302.87
660.796	5368.41
660.988	5216.86
661.18	5313.11
661.372	5175.9
661.563	5241.43
661.755	5151.32
661.947	5089.88
662.139	4987.49
662.331	4948.58
662.522	4967.01
662.714	4901.47
662.906	5010.01
663.097	4944.48
663.289	4872.8
663.481	4760.16
663.673	4825.7
663.864	4835.94
664.056	4655.72
664.247	4747.87
664.439	4512.36
664.631	4678.24
664.822	4635.24
665.014	4530.79
665.205	4641.38
665.397	4502.12
665.588	4504.17
665.78	4455.01
665.971	4534.89
666.163	4379.24
666.354	4455.01
666.546	4457.06
666.737	4420.2
666.929	4377.19
667.12	4252.27
667.311	4278.89
667.503	4201.07
667.694	4338.28
667.885	4119.15
668.077	4188.78
668.268	4145.77
668.459	4141.68
668.651	4164.2
668.842	4115.05
669.033	3998.32
669.224	4074.09
669.416	4049.52
669.607	4067.95
669.798	3932.78
669.989	3979.89
670.18	3943.02
670.371	3904.11
670.563	3938.93
670.754	3779.18
670.945	3840.62
671.136	3754.61
671.327	3854.96
671.518	3930.73
671.709	3773.04
671.9	3711.6
672.091	3668.59
672.282	3707.51
672.473	3689.07
672.664	3633.78
672.855	3697.27
673.046	3707.51
673.237	3695.22
673.428	3596.92
673.619	3662.45
673.809	3639.92
674	3656.31
674.191	3644.02
674.382	3578.48
674.573	3605.11
674.764	3611.25
674.954	3584.63
675.145	3447.41
675.336	3553.91
675.527	3463.8
675.717	3623.54
675.908	3435.13
676.099	3340.92
676.289	3375.74
676.48	3504.76
676.671	3322.49
676.861	3381.88
677.052	3404.41
677.243	3367.54
677.433	3289.72
677.624	3414.65
677.814	3218.04
678.005	3254.9
678.195	3250.81
678.386	3357.3
678.576	3236.47
678.767	3277.43
678.957	3222.14
679.148	3132.03
679.338	3256.95
679.529	3324.54
679.719	3209.85
679.909	3273.34
680.1	3291.77
680.29	3281.53
680.481	3043.96
680.671	3191.42
680.861	3048.06
681.052	3191.42
681.242	3070.59
681.432	3113.6
681.622	3187.32
681.813	3160.7
682.003	3152.51
682.193	3103.36
682.383	3129.98
682.573	3119.74
682.764	3009.15
682.954	3125.88
683.144	3060.35
683.334	3091.07
683.524	3138.17
683.714	2996.86
683.904	3121.79
684.094	3021.44
684.284	2925.18
684.474	3025.53
684.664	3052.16
684.854	3015.29
685.044	3043.96
685.234	2970.24
685.424	2935.42
685.614	2923.13
685.804	3156.6
685.994	3041.92
686.184	3103.36
686.374	2968.19
686.564	3074.68
686.753	2878.08
686.943	3070.59
687.133	3048.06
687.323	2927.23
687.513	2964.09
687.702	2947.71
687.892	2865.79
688.082	2904.7
688.272	2876.03
688.461	2904.7
688.651	2898.56
688.841	2818.69
689.03	2955.9
689.22	2871.93
689.41	2935.42
689.599	2916.99
689.789	2916.99
689.979	2865.79
690.168	2923.13
690.358	2839.17
690.547	2929.28
690.737	2828.93
690.926	2837.12
691.116	2876.03
691.305	2849.41
691.495	2890.37
691.684	2896.51
691.874	3041.92
692.063	2849.41
692.252	2914.94
692.442	2974.33
692.631	2851.46
692.82	2888.32
693.01	2810.5
693.199	2912.89
693.388	2822.78
693.578	2763.39
693.767	2835.07
693.956	2923.13
694.146	2814.59
694.335	2800.26
694.524	2822.78
694.713	2896.51
694.902	2734.72
695.092	2916.99
695.281	2771.58
695.47	2906.75
695.659	2734.72
695.848	2847.36
696.037	2804.35
696.226	3015.29
696.415	2667.14
696.604	2695.81
696.793	2675.33
696.982	2728.58
697.171	2775.68
697.36	2816.64
697.549	2806.4
697.738	2771.58
697.927	2841.22
698.116	2816.64
698.305	2785.92
698.494	2820.74
698.683	2683.52
698.872	2660.99
699.061	2847.36
699.25	2710.15
699.438	2810.5
699.627	2781.82
699.816	2835.07
700.005	2683.52
700.193	2785.92
700.382	2704
700.571	2611.84
700.76	2704
700.948	2654.85
701.137	2839.17
701.326	2628.23
701.514	2542.21
701.703	2581.12
701.892	2562.69
702.08	2744.96
702.269	2644.61
702.457	2701.95
702.646	2704
702.834	2673.28
703.023	2552.45
703.212	2630.27
703.4	2577.03
703.589	2564.74
703.777	2558.6
703.965	2448.01
704.154	2585.22
704.342	2572.93
704.531	2544.26
704.719	2517.64
704.907	2595.46
705.096	2529.92
705.284	2542.21
705.472	2607.75
705.661	2423.43
705.849	2437.77
706.037	2454.15
706.226	2509.44
706.414	2439.81
706.602	2427.53
706.79	2372.23
706.979	2495.11
707.167	2570.88
707.355	2382.47
707.543	2511.49
707.731	2429.57
707.919	2388.61
708.107	2337.41
708.296	2429.57
708.484	2345.61
708.672	2364.04
708.86	2495.11
709.048	2361.99
709.236	2409.09
709.424	2278.02
709.612	2364.04
709.8	2402.95
709.988	2435.72
710.176	2368.13
710.364	2230.92
710.551	2386.57
710.739	2196.11
710.927	2288.26
711.115	2075.27
711.303	2101.9
711.491	2321.03
711.679	2312.84
711.866	2155.15
712.054	2194.06
712.242	2204.3
712.43	2216.58
712.617	2177.67
712.805	2267.78
712.993	2151.05
713.181	2155.15
713.368	2224.78
713.556	2128.52
713.744	2120.33
713.931	2218.63
714.119	2085.51
714.306	2128.52
714.494	2097.8
714.682	2124.43
714.869	2085.51
715.057	2105.99
715.244	2099.85
715.432	2114.19
715.619	2034.32
715.807	2105.99
715.994	2067.08
716.182	1960.59
716.369	1970.83
716.556	1936.01
716.744	2038.41
716.931	1960.59
717.119	2054.8
717.306	1964.68
717.493	1905.29
717.681	2054.8
717.868	2013.84
718.055	1948.3
718.242	1970.83
718.43	1925.77
718.617	1868.43
718.804	1940.11
718.991	1731.22
719.179	1899.15
719.366	1847.95
719.553	1735.31
719.74	1792.66
719.927	1817.23
720.114	1856.14
720.301	1815.18
720.488	1798.8
720.676	1737.36
720.863	1839.76
721.05	1737.36
721.237	1757.84
721.424	1739.41
721.611	1757.84
721.798	1763.98
721.985	1823.37
722.172	1850
722.358	1718.93
722.545	1759.89
722.732	1655.44
722.919	1655.44
723.106	1708.69
723.293	1708.69
723.48	1620.63
723.667	1727.12
723.853	1536.66
724.04	1702.54
724.227	1598.1
724.414	1583.76
724.6	1614.48
724.787	1651.35
724.974	1659.54
725.161	1499.8
725.347	1659.54
725.534	1645.2
725.72	1618.58
725.907	1571.47
726.094	1626.77
726.28	1639.06
726.467	1454.74
726.653	1542.8
726.84	1493.65
727.027	1565.33
727.213	1458.84
727.4	1585.81
727.586	1546.9
727.773	1571.47
727.959	1397.4
728.145	1471.12
728.332	1495.7
728.518	1522.32
728.705	1536.66
728.891	1479.32
729.077	1469.08
729.264	1460.88
729.45	1415.83
729.636	1469.08
729.823	1323.67
730.009	1464.98
730.195	1469.08
730.382	1497.75
730.568	1348.25
730.754	1528.47
730.94	1403.54
731.126	1421.97
731.313	1424.02
731.499	1374.87
731.685	1356.44
731.871	1385.11
732.057	1350.29
732.243	1417.88
732.429	1436.31
732.615	1344.15
732.801	1374.87
732.987	1413.78
733.173	1407.64
733.359	1303.19
733.545	1276.57
733.731	1350.29
733.917	1360.53
734.103	1342.1
734.289	1376.92
734.475	1307.29
734.661	1292.95
734.847	1340.05
735.033	1317.53
735.219	1307.29
735.404	1268.38
735.59	1256.09
735.776	1198.74
735.962	1335.96
736.148	1274.52
736.333	1243.8
736.519	1270.42
736.705	1295
736.89	1262.23
737.076	1258.14
737.262	1219.22
737.447	1260.18
737.633	1194.65
737.819	1221.27
738.004	1239.7
738.19	1239.7
738.375	1219.22
738.561	1239.7
738.747	1235.61
738.932	1157.78
739.118	1215.13
739.303	1272.47
739.489	1184.41
739.674	1196.7
739.859	1112.73
740.045	1161.88
740.23	1034.91
740.416	1157.78
740.601	1139.35
740.786	1182.36
740.972	1092.25
741.157	1112.73
741.342	1149.59
741.528	1090.2
741.713	1163.93
741.898	1176.22
742.084	1151.64
742.269	1104.54
742.454	1120.92
742.639	1034.91
742.824	1067.67
743.01	1055.39
743.195	1077.91
743.38	1176.22
743.565	1069.72
743.75	1051.29
743.935	1016.48
744.12	1045.15
744.305	1041.05
744.49	975.52
744.675	1049.24
744.86	1065.63
745.045	955.04
745.23	1028.76
745.415	1036.95
745.6	979.61
745.785	957.08
745.97	1069.72
746.155	1022.62
746.34	977.56
746.525	993.95
746.71	996
746.895	989.85
747.079	950.94
747.264	924.32
747.449	848.54
747.634	979.61
747.819	926.36
748.003	889.5
748.188	901.79
748.373	985.76
748.557	920.22
748.742	918.17
748.927	852.64
749.111	844.45
749.296	869.02
749.481	957.08
749.665	860.83
749.85	899.74
750.034	957.08
750.219	852.64
750.404	762.53
750.588	961.18
750.773	836.25
750.957	879.26
751.141	836.25
751.326	844.45
751.51	797.34
751.695	780.96
751.879	783.01
752.064	828.06
752.248	787.1
752.432	789.15
752.617	740
752.801	723.62
752.985	725.66
753.17	836.25
753.354	709.28
753.538	709.28
753.722	717.47
753.907	787.1
754.091	696.99
754.275	711.33
754.459	752.29
754.643	686.75
754.828	668.32
755.012	707.23
755.196	711.33
755.38	701.09
755.564	617.12
755.748	723.62
755.932	635.55
756.116	694.94
756.3	694.94
756.484	690.85
756.668	658.08
756.852	684.7
757.036	731.81
757.22	666.27
757.404	637.6
757.588	610.98
757.772	592.55
757.956	653.98
758.14	647.84
758.323	680.61
758.507	604.83
758.691	688.8
758.875	551.59
759.059	649.89
759.242	572.07
759.426	594.59
759.61	578.21
759.794	645.79
759.977	594.59
760.161	594.59
760.345	543.39
760.528	629.41
760.712	586.4
760.895	608.93
761.079	602.79
761.263	537.25
761.446	488.1
761.63	547.49
761.813	570.02
761.997	557.73
762.18	570.02
762.364	576.16
762.547	541.35
762.731	610.98
762.914	473.76
763.098	600.74
763.281	574.11
763.464	492.2
763.648	486.05
763.831	594.59
764.015	524.96
764.198	586.4
764.381	502.43
764.564	500.39
764.748	504.48
764.931	475.81
765.114	539.3
765.297	576.16
765.481	449.19
765.664	502.43
765.847	547.49
766.03	529.06
766.213	508.58
766.397	537.25
766.58	486.05
766.763	535.2
766.946	486.05
767.129	518.82
767.312	533.15
767.495	434.85
767.678	477.86
767.861	586.4
768.044	537.25
768.227	504.48
768.41	424.61
768.593	582.31
768.776	490.15
768.959	416.42
769.142	512.67
769.324	537.25
769.507	500.39
769.69	426.66
769.873	512.67
770.056	533.15
770.239	461.48
770.421	436.9
770.604	488.1
770.787	498.34
770.97	477.86
771.152	512.67
771.335	473.76
771.518	522.91
771.7	557.73
771.883	455.33
772.066	449.19
772.248	492.2
772.431	471.72
772.613	441
772.796	354.98
772.978	592.55
773.161	443.04
773.343	422.56
773.526	522.91
773.708	488.1
773.891	451.24
774.073	404.13
774.256	449.19
774.438	406.18
774.621	393.89
774.803	494.24
774.985	443.04
775.168	393.89
775.35	443.04
775.532	416.42
775.715	416.42
775.897	348.84
776.079	404.13
776.261	471.72
776.444	400.04
776.626	438.95
776.808	350.89
776.99	342.69
777.173	254.63
777.355	381.6
777.537	426.66
777.719	426.66
777.901	443.04
778.083	451.24
778.265	369.32
778.447	348.84
778.629	330.41
778.811	412.32
778.993	359.08
779.175	291.49
779.357	305.83
779.539	412.32
779.721	332.45
779.903	314.02
780.085	359.08
780.267	369.32
780.449	344.74
780.631	318.12
780.812	322.21
780.994	391.84
781.176	346.79
781.358	291.49
781.54	330.41
781.721	387.75
781.903	324.26
782.085	365.22
782.267	277.16
782.448	283.3
782.63	316.07
782.812	334.5
782.993	266.92
783.175	277.16
783.357	379.56
783.538	299.69
783.72	314.02
783.901	344.74
784.083	318.12
784.264	236.2
784.446	305.83
784.627	309.93
784.809	336.55
784.99	305.83
785.172	201.38
785.353	252.58
785.535	279.21
785.716	314.02
785.897	248.49
786.079	209.58
786.26	258.73
786.441	219.82
786.623	260.77
786.804	277.16
786.985	273.06
787.167	291.49
787.348	225.96
787.529	307.88
787.71	242.34
787.891	209.58
788.073	230.06
788.254	213.67
788.435	180.9
788.616	195.24
788.797	232.1
788.978	236.2
789.159	221.86
789.34	211.62
789.522	262.82
789.703	238.25
789.884	236.2
790.065	238.25
790.246	178.86
790.427	219.82
790.607	193.19
790.788	209.58
790.969	152.23
791.15	248.49
791.331	238.25
791.512	205.48
791.693	154.28
791.874	185
792.054	197.29
792.235	205.48
792.416	166.57
792.597	252.58
792.778	185
792.958	207.53
793.139	201.38
793.32	236.2
793.5	215.72
793.681	197.29
793.862	164.52
794.042	232.1
794.223	199.34
794.404	170.66
794.584	166.57
794.765	168.62
794.945	133.8
795.126	205.48
795.306	191.14
795.487	240.29
795.667	129.7
795.848	156.33
796.028	191.14
796.209	156.33
796.389	139.94
796.57	162.47
796.75	152.23
796.93	240.29
797.111	101.03
797.291	197.29
797.471	129.7
797.652	123.56
797.832	92.84
798.012	129.7
798.192	195.24
798.373	166.57
798.553	156.33
798.733	125.61
798.913	133.8
799.093	113.32
799.274	150.18
799.454	164.52
799.634	193.19
799.814	121.51
799.994	113.32
800.174	146.09
800.354	182.95
800.534	115.37
800.714	185
800.894	160.42
801.074	135.85
801.254	148.14
801.434	113.32
801.614	176.81
801.794	154.28
801.974	334.5
802.154	96.94
802.334	117.42
802.514	123.56
802.693	201.38
802.873	107.18
803.053	109.22
803.233	232.1
803.413	127.66
803.592	125.61
803.772	133.8
803.952	133.8
804.131	117.42
804.311	166.57
804.491	146.09
804.67	107.18
804.85	121.51
805.03	125.61
805.209	150.18
805.389	168.62
805.568	129.7
805.748	105.13
805.928	96.94
806.107	101.03
806.287	98.99
806.466	139.94
806.646	154.28
806.825	137.9
807.004	35.5
807.184	92.84
807.363	139.94
807.543	129.7
807.722	103.08
807.901	152.23
808.081	146.09
808.26	88.75
808.439	74.41
808.619	94.89
808.798	164.52
808.977	105.13
809.156	141.99
809.336	82.6
809.515	101.03
809.694	53.93
809.873	58.03
810.052	74.41
810.231	146.09
810.411	84.65
810.59	127.66
810.769	156.33
810.948	103.08
811.127	109.22
811.306	133.8
811.485	141.99
811.664	94.89
811.843	146.09
812.022	45.74
812.201	66.22
812.38	86.7
812.559	88.75
812.737	105.13
812.916	78.51
813.095	49.83
813.274	117.42
813.453	51.88
813.632	96.94
813.811	135.85
813.989	66.22
814.168	72.36
814.347	66.22
814.526	78.51
814.704	64.17
814.883	60.07
815.062	98.99
815.24	23.21
815.419	86.7
815.598	88.75
815.776	103.08
815.955	109.22
816.133	96.94
816.312	117.42
816.49	12.97
816.669	127.66
816.847	137.9
817.026	74.41
817.204	51.88
817.383	88.75
817.561	84.65
817.74	35.5
817.918	49.83
818.097	88.75
818.275	68.27
818.453	49.83
818.632	70.31
818.81	62.12
818.988	86.7
819.167	60.07
819.345	98.99
819.523	101.03
819.701	43.69
819.879	92.84
820.058	78.51
820.236	88.75
820.414	27.31
820.592	135.85
820.77	35.5
820.948	78.51
821.127	133.8
821.305	55.98
821.483	64.17
821.661	45.74
821.839	27.31
822.017	12.97
822.195	111.27
822.373	70.31
822.551	72.36
822.729	117.42
822.907	25.26
823.085	82.6
823.262	86.7
823.44	47.79
823.618	60.07
823.796	144.04
823.974	115.37
824.152	66.22
824.329	90.79
824.507	101.03
824.685	62.12
824.863	43.69
825.04	90.79
825.218	47.79
825.396	43.69
825.574	60.07
825.751	92.84
825.929	-11.61
826.107	82.6
826.284	43.69
826.462	31.4
826.639	47.79
826.817	84.65
826.994	80.55
827.172	-15.7
827.349	111.27
827.527	76.46
827.704	111.27
827.882	-15.7
828.059	90.79
828.237	45.74
828.414	117.42
828.591	-32.08
828.769	6.83
828.946	80.55
829.124	43.69
829.301	17.07
829.478	107.18
829.655	10.92
829.833	156.33
830.01	45.74
830.187	60.07
830.364	68.27
830.542	33.45
830.719	31.4
830.896	88.75
831.073	74.41
831.25	107.18
831.427	82.6
831.604	41.64
831.782	33.45
831.959	41.64
832.136	21.16
832.313	51.88
832.49	19.11
832.667	92.84
832.844	35.5
833.021	72.36
833.198	82.6
833.374	101.03
833.551	49.83
833.728	88.75
833.905	39.59
834.082	78.51
834.259	37.55
834.436	66.22
834.612	55.98
834.789	39.59
834.966	-36.18
835.143	33.45
835.319	51.88
835.496	27.31
835.673	68.27
835.85	76.46
836.026	51.88
836.203	86.7
836.38	21.16
836.556	25.26
836.733	4.78
836.909	72.36
837.086	19.11
837.262	68.27
837.439	19.11
837.616	23.21
837.792	53.93
837.968	41.64
838.145	62.12
838.321	27.31
838.498	6.83
838.674	64.17
838.851	-13.65
839.027	45.74
839.203	19.11
839.38	62.12
839.556	8.87
839.732	72.36
839.909	29.35
840.085	66.22
840.261	25.26
840.437	109.22
840.614	45.74
840.79	62.12
840.966	8.87
841.142	76.46
841.318	-23.89
841.494	15.02
841.671	17.07
841.847	76.46
842.023	31.4
842.199	35.5
842.375	27.31
842.551	70.31
842.727	-23.89
842.903	58.03
843.079	37.55
843.255	17.07
843.431	8.87
843.607	33.45
843.783	72.36
843.959	84.65
844.134	-7.51
844.31	82.6
844.486	37.55
844.662	64.17
844.838	27.31
845.013	53.93
845.189	0.68
845.365	17.07
845.541	8.87
845.716	15.02
845.892	86.7
846.068	23.21
846.244	-5.46
846.419	74.41
846.595	31.4
846.77	29.35
846.946	35.5
847.122	-1.37
847.297	-25.94
847.473	45.74
847.648	51.88
847.824	12.97
847.999	-19.8
848.175	31.4
848.35	90.79
848.526	2.73
848.701	25.26
848.876	-13.65
849.052	68.27
849.227	47.79
849.403	-7.51
849.578	29.35
849.753	4.78
849.929	6.83
850.104	49.83
850.279	-11.61
850.454	-9.56
850.63	-21.85
850.805	19.11
850.98	90.79
851.155	29.35
851.33	35.5
851.505	6.83
851.681	58.03
851.856	45.74
852.031	55.98
852.206	74.41
852.381	23.21
852.556	76.46
852.731	-1.37
852.906	-13.65
853.081	29.35
853.256	33.45
853.431	72.36
853.606	-7.51
853.781	41.64
853.956	37.55
854.131	39.59
854.305	27.31
854.48	-3.41
854.655	-46.42
854.83	55.98
855.005	-13.65
855.18	-25.94
855.354	-11.61
855.529	51.88
855.704	0.68
855.879	10.92
856.053	-1.37
856.228	-19.8
856.403	29.35
856.577	33.45
856.752	-50.52
856.926	107.18
857.101	-3.41
857.276	8.87
857.45	-54.61
857.625	-15.7
857.799	-30.04
857.974	8.87
858.148	88.75
858.323	70.31
858.497	17.07
858.672	10.92
858.846	4.78
859.02	-32.08
859.195	31.4
859.369	15.02
859.543	0.68
859.718	58.03
859.892	15.02
860.066	6.83
860.241	31.4
860.415	53.93
860.589	37.55
860.763	6.83
860.938	66.22
861.112	35.5
861.286	-21.85
861.46	33.45
861.634	31.4
861.808	68.27
861.982	25.26
862.157	19.11
862.331	2.73
862.505	4.78
862.679	-25.94
862.853	25.26
863.027	47.79
863.201	19.11
863.375	15.02
863.549	-11.61
863.722	62.12
863.896	68.27
864.07	-21.85
864.244	78.51
864.418	-27.99
864.592	43.69
864.766	-38.23
864.939	23.21
865.113	19.11
865.287	-5.46
865.461	17.07
865.634	49.83
865.808	25.26
865.982	15.02
866.156	-32.08
866.329	-1.37
866.503	117.42
866.676	60.07
866.85	-19.8
867.024	29.35
867.197	2.73
867.371	113.32
867.544	2.73
867.718	6.83
867.891	43.69
868.065	25.26
868.238	6.83
868.412	-1.37
868.585	53.93
868.759	-1.37
868.932	-21.85
869.105	29.35
869.279	-40.28
869.452	-7.51
869.625	23.21
869.799	74.41
869.972	-66.9
870.145	19.11
870.319	-56.66
870.492	80.55
870.665	10.92
870.838	39.59
871.011	-73.04
871.185	55.98
871.358	-3.41
871.531	-1.37
871.704	-5.46
871.877	19.11
872.05	23.21
872.223	78.51
872.396	10.92
872.569	-19.8
872.742	15.02
872.915	-13.65
873.088	27.31
873.261	-5.46
873.434	8.87
873.607	-32.08
873.78	6.83
873.953	45.74
874.126	21.16
874.299	23.21
874.471	6.83
874.644	39.59
874.817	-40.28
874.99	0.68
875.163	39.59
875.335	53.93
875.508	19.11
875.681	2.73
875.853	8.87
876.026	-17.75
876.199	-73.04
876.371	53.93
876.544	27.31
876.717	2.73
876.889	29.35
877.062	21.16
877.234	-13.65
877.407	37.55
877.579	31.4
877.752	55.98
877.924	27.31
878.097	70.31
878.269	-34.13
878.442	23.21
878.614	-32.08
878.786	33.45
878.959	58.03
879.131	-11.61
879.303	6.83
879.476	37.55
879.648	29.35
879.82	4.78
879.993	-9.56
880.165	-46.42
880.337	-58.71
880.509	6.83
880.681	76.46
880.854	-7.51
881.026	-21.85
881.198	10.92
881.37	-7.51
881.542	72.36
881.714	39.59
881.886	-3.41
882.058	6.83
882.23	19.11
882.402	-19.8
882.574	15.02
882.746	-13.65
882.918	84.65
883.09	31.4
883.262	-25.94
883.434	2.73
883.606	17.07
883.778	-3.41
883.95	66.22
884.122	25.26
884.293	-15.7
884.465	-48.47
884.637	-11.61
884.809	43.69
884.98	72.36
885.152	58.03
885.324	47.79
885.496	41.64
885.667	21.16
885.839	90.79
886.011	94.89
886.182	23.21
886.354	-25.94
886.525	33.45
886.697	33.45
886.869	10.92
887.04	-25.94
887.212	-27.99
887.383	19.11
887.555	82.6
887.726	23.21
887.897	8.87
888.069	-15.7
888.24	29.35
888.412	-1.37
888.583	-15.7
888.754	105.13
888.926	53.93
889.097	70.31
889.268	25.26
889.44	10.92
889.611	-3.41
889.782	27.31
889.953	-11.61
890.125	12.97
890.296	55.98
890.467	19.11
890.638	-19.8
890.809	-40.28
890.98	27.31
891.151	84.65
891.323	64.17
891.494	10.92
891.665	39.59
891.836	6.83
892.007	-3.41
892.178	72.36
892.349	82.6
892.52	-11.61
892.691	8.87
892.862	21.16
893.032	-40.28
893.203	39.59
893.374	33.45
893.545	37.55
893.716	-3.41
893.887	15.02
894.057	-38.23
894.228	-21.85
894.399	-21.85
894.57	49.83
894.74	31.4
894.911	33.45
895.082	-3.41
895.253	-32.08
895.423	-5.46
895.594	27.31
895.764	-30.04
895.935	-21.85
896.106	51.88
896.276	60.07
896.447	-23.89
896.617	66.22
896.788	45.74
896.958	60.07
897.129	49.83
897.299	21.16
897.47	41.64
897.64	2.73
897.81	-11.61
897.981	39.59
898.151	10.92
898.322	41.64
898.492	2.73
898.662	21.16
898.832	15.02
899.003	4.78
899.173	74.41
899.343	-11.61
899.513	-15.7
