Data from USB4F104151__257__14-01-40-944.txt Node

Date: Thu Mar 13 14:01:40 EDT 2025
User: louis
Spectrometer: USB4F10415
Trigger mode: 4
Integration Time (sec): 1.000000E-2
Scans to average: 1
Electric dark correction enabled: true
Nonlinearity correction enabled: false
Boxcar width: 0
XAxis mode: Wavelengths
Number of Pixels in Spectrum: 3648
>>>>>Begin Spectral Data<<<<<
178.204	-30.21
178.424	-30.21
178.644	-30.21
178.864	-28.16
179.084	-22.02
179.304	10.75
179.524	-26.11
179.744	-50.69
179.964	-1.54
180.184	-3.58
180.404	4.61
180.624	-30.21
180.844	10.75
181.064	-7.68
181.283	-13.82
181.503	33.28
181.723	74.24
181.943	-24.06
182.163	47.62
182.383	-95.74
182.602	-28.16
182.822	59.9
183.042	14.85
183.262	59.9
183.482	-13.82
183.701	47.62
183.921	-1.54
184.141	12.8
184.361	10.75
184.58	27.14
184.8	23.04
185.02	-5.63
185.239	35.33
185.459	10.75
185.679	-3.58
185.898	27.14
186.118	4.61
186.338	-19.97
186.557	27.14
186.777	29.18
186.997	-19.97
187.216	94.72
187.436	47.62
187.655	25.09
187.875	-44.54
188.095	29.18
188.314	39.42
188.534	-17.92
188.753	35.33
188.973	72.19
189.192	31.23
189.412	-19.97
189.631	-5.63
189.851	6.66
190.07	-30.21
190.29	-9.73
190.509	82.43
190.729	-19.97
190.948	2.56
191.168	14.85
191.387	2.56
191.607	16.9
191.826	70.14
192.045	55.81
192.265	72.19
192.484	10.75
192.704	68.09
192.923	-48.64
193.142	12.8
193.362	66.05
193.581	31.23
193.8	-13.82
194.02	88.57
194.239	10.75
194.458	2.56
194.678	-34.3
194.897	96.77
195.116	10.75
195.335	35.33
195.555	-15.87
195.774	-3.58
195.993	6.66
196.212	37.38
196.432	72.19
196.651	-5.63
196.87	55.81
197.089	10.75
197.308	-11.78
197.528	14.85
197.747	18.94
197.966	33.28
198.185	31.23
198.404	12.8
198.623	-19.97
198.842	20.99
199.062	68.09
199.281	2.56
199.5	-54.78
199.719	35.33
199.938	80.38
200.157	68.09
200.376	10.75
200.595	51.71
200.814	-22.02
201.033	-3.58
201.252	27.14
201.471	61.95
201.69	39.42
201.909	43.52
202.128	29.18
202.347	31.23
202.566	20.99
202.785	76.29
203.004	-3.58
203.223	70.14
203.442	4.61
203.661	-30.21
203.879	29.18
204.098	20.99
204.317	61.95
204.536	31.23
204.755	-17.92
204.974	18.94
205.193	27.14
205.411	6.66
205.63	-3.58
205.849	6.66
206.068	53.76
206.287	-5.63
206.505	16.9
206.724	14.85
206.943	-46.59
207.162	-3.58
207.381	72.19
207.599	59.9
207.818	-34.3
208.037	23.04
208.255	-93.69
208.474	10.75
208.693	0.51
208.911	10.75
209.13	-22.02
209.349	-15.87
209.567	37.38
209.786	27.14
210.005	8.7
210.223	4.61
210.442	-22.02
210.661	10.75
210.879	119.29
211.098	-38.4
211.316	86.53
211.535	-44.54
211.753	8.7
211.972	10.75
212.191	72.19
212.409	10.75
212.628	78.33
212.846	-3.58
213.065	76.29
213.283	12.8
213.502	41.47
213.72	-7.68
213.938	88.57
214.157	47.62
214.375	18.94
214.594	-13.82
214.812	16.9
215.031	45.57
215.249	-17.92
215.467	14.85
215.686	39.42
215.904	-3.58
216.122	31.23
216.341	-3.58
216.559	94.72
216.778	74.24
216.996	18.94
217.214	61.95
217.432	41.47
217.651	45.57
217.869	-11.78
218.087	23.04
218.306	8.7
218.524	27.14
218.742	-19.97
218.96	14.85
219.179	-38.4
219.397	25.09
219.615	47.62
219.833	41.47
220.051	-38.4
220.27	51.71
220.488	20.99
220.706	35.33
220.924	49.66
221.142	12.8
221.36	33.28
221.578	18.94
221.796	39.42
222.015	86.53
222.233	70.14
222.451	18.94
222.669	18.94
222.887	35.33
223.105	18.94
223.323	12.8
223.541	-40.45
223.759	-3.58
223.977	18.94
224.195	43.52
224.413	49.66
224.631	86.53
224.849	-38.4
225.067	-19.97
225.285	61.95
225.503	33.28
225.721	-36.35
225.939	-52.74
226.157	18.94
226.375	86.53
226.592	-48.64
226.81	-22.02
227.028	82.43
227.246	72.19
227.464	82.43
227.682	27.14
227.9	-1.54
228.117	10.75
228.335	-26.11
228.553	14.85
228.771	43.52
228.989	98.81
229.206	18.94
229.424	35.33
229.642	14.85
229.86	-11.78
230.077	10.75
230.295	18.94
230.513	12.8
230.731	16.9
230.948	14.85
231.166	43.52
231.384	-69.12
231.601	61.95
231.819	68.09
232.037	35.33
232.254	-13.82
232.472	59.9
232.689	-1.54
232.907	-5.63
233.125	61.95
233.342	12.8
233.56	6.66
233.777	57.86
233.995	-34.3
234.213	35.33
234.43	-3.58
234.648	20.99
234.865	-22.02
235.083	59.9
235.3	6.66
235.518	70.14
235.735	53.76
235.953	33.28
236.17	29.18
236.388	-30.21
236.605	25.09
236.822	31.23
237.04	-13.82
237.257	18.94
237.475	12.8
237.692	100.86
237.909	20.99
238.127	76.29
238.344	8.7
238.562	-38.4
238.779	39.42
238.996	12.8
239.214	23.04
239.431	94.72
239.648	35.33
239.865	84.48
240.083	49.66
240.3	47.62
240.517	80.38
240.735	-17.92
240.952	-15.87
241.169	31.23
241.386	-13.82
241.603	29.18
241.821	-34.3
242.038	10.75
242.255	45.57
242.472	-7.68
242.689	51.71
242.907	6.66
243.124	18.94
243.341	66.05
243.558	-3.58
243.775	45.57
243.992	-38.4
244.209	14.85
244.426	20.99
244.643	10.75
244.86	20.99
245.078	2.56
245.295	-3.58
245.512	23.04
245.729	86.53
245.946	-38.4
246.163	-24.06
246.38	59.9
246.597	47.62
246.814	-40.45
247.031	6.66
247.248	29.18
247.464	37.38
247.681	-54.78
247.898	25.09
248.115	43.52
248.332	27.14
248.549	31.23
248.766	94.72
248.983	47.62
249.2	92.67
249.417	23.04
249.633	-7.68
249.85	35.33
250.067	92.67
250.284	37.38
250.501	74.24
250.717	16.9
250.934	25.09
251.151	12.8
251.368	20.99
251.585	29.18
251.801	12.8
252.018	-22.02
252.235	59.9
252.451	-30.21
252.668	45.57
252.885	80.38
253.102	-1.54
253.318	-9.73
253.535	25.09
253.752	12.8
253.968	25.09
254.185	43.52
254.401	18.94
254.618	8.7
254.835	25.09
255.051	8.7
255.268	18.94
255.484	18.94
255.701	76.29
255.917	55.81
256.134	84.48
256.351	10.75
256.567	53.76
256.784	35.33
257	-79.36
257.217	33.28
257.433	47.62
257.65	-34.3
257.866	41.47
258.082	68.09
258.299	8.7
258.515	27.14
258.732	-62.98
258.948	12.8
259.165	39.42
259.381	2.56
259.597	25.09
259.814	-17.92
260.03	55.81
260.246	18.94
260.463	27.14
260.679	-5.63
260.895	4.61
261.112	-13.82
261.328	-36.35
261.544	88.57
261.761	35.33
261.977	37.38
262.193	90.62
262.409	49.66
262.626	55.81
262.842	10.75
263.058	-36.35
263.274	20.99
263.49	35.33
263.707	23.04
263.923	2.56
264.139	-15.87
264.355	53.76
264.571	45.57
264.787	51.71
265.004	29.18
265.22	61.95
265.436	-60.93
265.652	27.14
265.868	23.04
266.084	6.66
266.3	10.75
266.516	80.38
266.732	33.28
266.948	0.51
267.164	18.94
267.38	47.62
267.596	43.52
267.812	72.19
268.028	18.94
268.244	18.94
268.46	59.9
268.676	68.09
268.892	104.96
269.108	35.33
269.324	-50.69
269.54	35.33
269.756	61.95
269.972	35.33
270.188	12.8
270.403	49.66
270.619	10.75
270.835	-26.11
271.051	119.29
271.267	-46.59
271.483	80.38
271.698	6.66
271.914	2.56
272.13	49.66
272.346	18.94
272.562	20.99
272.777	43.52
272.993	4.61
273.209	-40.45
273.425	6.66
273.64	4.61
273.856	-9.73
274.072	-17.92
274.287	0.51
274.503	72.19
274.719	12.8
274.934	12.8
275.15	23.04
275.366	27.14
275.581	-52.74
275.797	35.33
276.012	18.94
276.228	35.33
276.444	45.57
276.659	25.09
276.875	2.56
277.09	29.18
277.306	-9.73
277.521	-30.21
277.737	33.28
277.952	100.86
278.168	4.61
278.383	84.48
278.599	35.33
278.814	53.76
279.03	37.38
279.245	39.42
279.461	51.71
279.676	29.18
279.892	-5.63
280.107	29.18
280.322	8.7
280.538	59.9
280.753	33.28
280.969	10.75
281.184	-54.78
281.399	53.76
281.615	-1.54
281.83	18.94
282.045	-17.92
282.26	0.51
282.476	33.28
282.691	6.66
282.906	68.09
283.122	-24.06
283.337	12.8
283.552	33.28
283.767	51.71
283.983	14.85
284.198	-11.78
284.413	2.56
284.628	53.76
284.843	70.14
285.058	43.52
285.274	100.86
285.489	14.85
285.704	64
285.919	49.66
286.134	61.95
286.349	-58.88
286.564	-15.87
286.779	2.56
286.995	27.14
287.21	-44.54
287.425	18.94
287.64	53.76
287.855	29.18
288.07	4.61
288.285	43.52
288.5	45.57
288.715	-22.02
288.93	43.52
289.145	51.71
289.36	-19.97
289.575	-28.16
289.79	49.66
290.004	16.9
290.219	41.47
290.434	-13.82
290.649	-46.59
290.864	55.81
291.079	-3.58
291.294	80.38
291.509	23.04
291.724	16.9
291.938	-54.78
292.153	29.18
292.368	-48.64
292.583	53.76
292.798	68.09
293.012	47.62
293.227	-34.3
293.442	8.7
293.657	72.19
293.871	12.8
294.086	39.42
294.301	96.77
294.516	-5.63
294.73	12.8
294.945	-1.54
295.16	20.99
295.374	74.24
295.589	-17.92
295.804	86.53
296.018	72.19
296.233	31.23
296.447	33.28
296.662	12.8
296.877	33.28
297.091	25.09
297.306	86.53
297.52	80.38
297.735	82.43
297.949	2.56
298.164	-58.88
298.378	35.33
298.593	59.9
298.807	10.75
299.022	6.66
299.236	-7.68
299.451	-19.97
299.665	76.29
299.88	39.42
300.094	53.76
300.309	82.43
300.523	-9.73
300.737	47.62
300.952	-5.63
301.166	-22.02
301.381	94.72
301.595	61.95
301.809	49.66
302.024	49.66
302.238	10.75
302.452	74.24
302.667	-19.97
302.881	18.94
303.095	37.38
303.309	-13.82
303.524	12.8
303.738	-7.68
303.952	2.56
304.166	96.77
304.381	37.38
304.595	-38.4
304.809	20.99
305.023	80.38
305.237	25.09
305.452	-11.78
305.666	12.8
305.88	45.57
306.094	57.86
306.308	25.09
306.522	29.18
306.736	41.47
306.95	6.66
307.164	-19.97
307.379	68.09
307.593	-5.63
307.807	-15.87
308.021	25.09
308.235	107.01
308.449	64
308.663	78.33
308.877	88.57
309.091	-1.54
309.305	113.15
309.519	4.61
309.733	-28.16
309.947	27.14
310.161	-7.68
310.374	61.95
310.588	70.14
310.802	76.29
311.016	45.57
311.23	6.66
311.444	137.73
311.658	6.66
311.872	18.94
312.085	2.56
312.299	-22.02
312.513	61.95
312.727	68.09
312.941	14.85
313.154	76.29
313.368	45.57
313.582	-22.02
313.796	2.56
314.009	59.9
314.223	2.56
314.437	59.9
314.651	55.81
314.864	51.71
315.078	31.23
315.292	-19.97
315.505	18.94
315.719	70.14
315.933	43.52
316.146	4.61
316.36	35.33
316.573	94.72
316.787	68.09
317.001	20.99
317.214	37.38
317.428	41.47
317.641	-15.87
317.855	27.14
318.068	39.42
318.282	6.66
318.495	90.62
318.709	25.09
318.922	10.75
319.136	68.09
319.349	2.56
319.563	-42.5
319.776	33.28
319.99	37.38
320.203	47.62
320.417	61.95
320.63	12.8
320.843	125.44
321.057	59.9
321.27	-5.63
321.483	39.42
321.697	47.62
321.91	27.14
322.124	35.33
322.337	53.76
322.55	37.38
322.763	41.47
322.977	90.62
323.19	6.66
323.403	31.23
323.617	14.85
323.83	82.43
324.043	31.23
324.256	37.38
324.469	55.81
324.683	70.14
324.896	-13.82
325.109	84.48
325.322	-13.82
325.535	61.95
325.748	-19.97
325.962	29.18
326.175	31.23
326.388	12.8
326.601	-40.45
326.814	49.66
327.027	31.23
327.24	29.18
327.453	59.9
327.666	27.14
327.879	-15.87
328.092	23.04
328.305	27.14
328.518	39.42
328.731	-1.54
328.944	18.94
329.157	20.99
329.37	100.86
329.583	94.72
329.796	92.67
330.009	10.75
330.222	121.34
330.435	43.52
330.648	37.38
330.861	27.14
331.073	102.91
331.286	10.75
331.499	-7.68
331.712	68.09
331.925	10.75
332.138	47.62
332.35	59.9
332.563	43.52
332.776	49.66
332.989	45.57
333.202	35.33
333.414	61.95
333.627	47.62
333.84	64
334.053	41.47
334.265	14.85
334.478	-13.82
334.691	41.47
334.903	70.14
335.116	14.85
335.329	14.85
335.541	57.86
335.754	61.95
335.966	51.71
336.179	18.94
336.392	-36.35
336.604	68.09
336.817	6.66
337.029	76.29
337.242	51.71
337.454	8.7
337.667	33.28
337.88	45.57
338.092	-9.73
338.305	35.33
338.517	64
338.729	27.14
338.942	74.24
339.154	23.04
339.367	-15.87
339.579	78.33
339.792	6.66
340.004	-11.78
340.217	-5.63
340.429	31.23
340.641	6.66
340.854	53.76
341.066	78.33
341.278	16.9
341.491	78.33
341.703	53.76
341.915	18.94
342.128	47.62
342.34	18.94
342.552	59.9
342.764	51.71
342.977	8.7
343.189	37.38
343.401	76.29
343.613	4.61
343.826	78.33
344.038	88.57
344.25	51.71
344.462	-71.17
344.674	29.18
344.886	20.99
345.099	29.18
345.311	61.95
345.523	59.9
345.735	10.75
345.947	72.19
346.159	43.52
346.371	37.38
346.583	88.57
346.795	92.67
347.007	39.42
347.219	76.29
347.431	8.7
347.643	74.24
347.855	-34.3
348.067	70.14
348.279	88.57
348.491	43.52
348.703	25.09
348.915	59.9
349.127	51.71
349.339	47.62
349.551	80.38
349.763	51.71
349.975	68.09
350.187	20.99
350.399	47.62
350.61	43.52
350.822	117.25
351.034	31.23
351.246	-32.26
351.458	33.28
351.669	33.28
351.881	35.33
352.093	0.51
352.305	18.94
352.517	2.56
352.728	-26.11
352.94	16.9
353.152	55.81
353.363	45.57
353.575	37.38
353.787	43.52
353.999	102.91
354.21	43.52
354.422	16.9
354.633	39.42
354.845	31.23
355.057	18.94
355.268	4.61
355.48	43.52
355.692	53.76
355.903	82.43
356.115	53.76
356.326	-34.3
356.538	31.23
356.749	0.51
356.961	66.05
357.172	72.19
357.384	-9.73
357.595	80.38
357.807	64
358.018	51.71
358.23	61.95
358.441	37.38
358.653	92.67
358.864	10.75
359.075	-13.82
359.287	47.62
359.498	35.33
359.709	47.62
359.921	-30.21
360.132	23.04
360.344	-11.78
360.555	-15.87
360.766	0.51
360.977	-19.97
361.189	-46.59
361.4	31.23
361.611	90.62
361.823	80.38
362.034	31.23
362.245	53.76
362.456	86.53
362.667	51.71
362.879	14.85
363.09	47.62
363.301	-9.73
363.512	10.75
363.723	80.38
363.935	41.47
364.146	70.14
364.357	39.42
364.568	33.28
364.779	141.82
364.99	64
365.201	35.33
365.412	147.97
365.623	18.94
365.834	4.61
366.045	43.52
366.256	12.8
366.467	59.9
366.678	20.99
366.889	113.15
367.1	66.05
367.311	18.94
367.522	86.53
367.733	43.52
367.944	74.24
368.155	-5.63
368.366	59.9
368.577	70.14
368.788	16.9
368.999	8.7
369.209	70.14
369.42	64
369.631	98.81
369.842	94.72
370.053	45.57
370.264	-19.97
370.474	92.67
370.685	115.2
370.896	39.42
371.107	61.95
371.317	33.28
371.528	64
371.739	131.58
371.95	37.38
372.16	80.38
372.371	6.66
372.582	45.57
372.792	55.81
373.003	51.71
373.214	37.38
373.424	92.67
373.635	59.9
373.846	150.01
374.056	47.62
374.267	27.14
374.477	29.18
374.688	78.33
374.898	129.53
375.109	2.56
375.319	80.38
375.53	68.09
375.74	2.56
375.951	76.29
376.161	57.86
376.372	8.7
376.582	55.81
376.793	-1.54
377.003	23.04
377.214	35.33
377.424	72.19
377.635	-30.21
377.845	43.52
378.055	-30.21
378.266	4.61
378.476	47.62
378.686	37.38
378.897	72.19
379.107	53.76
379.317	100.86
379.528	84.48
379.738	41.47
379.948	12.8
380.158	141.82
380.369	72.19
380.579	80.38
380.789	82.43
380.999	8.7
381.21	80.38
381.42	27.14
381.63	51.71
381.84	109.05
382.05	12.8
382.261	10.75
382.471	37.38
382.681	-15.87
382.891	61.95
383.101	18.94
383.311	57.86
383.521	88.57
383.731	-3.58
383.941	43.52
384.151	10.75
384.361	59.9
384.571	-3.58
384.781	25.09
384.991	51.71
385.201	41.47
385.411	66.05
385.621	37.38
385.831	57.86
386.041	72.19
386.251	74.24
386.461	76.29
386.671	18.94
386.881	4.61
387.091	66.05
387.301	76.29
387.511	96.77
387.72	47.62
387.93	131.58
388.14	-5.63
388.35	37.38
388.56	39.42
388.769	72.19
388.979	88.57
389.189	66.05
389.399	59.9
389.609	6.66
389.818	35.33
390.028	8.7
390.238	-28.16
390.447	47.62
390.657	88.57
390.867	111.1
391.076	41.47
391.286	53.76
391.496	55.81
391.705	33.28
391.915	68.09
392.125	98.81
392.334	37.38
392.544	59.9
392.753	18.94
392.963	16.9
393.172	70.14
393.382	35.33
393.591	23.04
393.801	33.28
394.01	37.38
394.22	39.42
394.429	92.67
394.639	47.62
394.848	-13.82
395.058	66.05
395.267	92.67
395.477	84.48
395.686	102.91
395.895	61.95
396.105	84.48
396.314	2.56
396.524	43.52
396.733	107.01
396.942	88.57
397.152	47.62
397.361	84.48
397.57	76.29
397.78	74.24
397.989	47.62
398.198	115.2
398.407	27.14
398.617	115.2
398.826	90.62
399.035	115.2
399.244	29.18
399.453	76.29
399.663	49.66
399.872	104.96
400.081	113.15
400.29	66.05
400.499	84.48
400.708	160.25
400.917	41.47
401.127	156.16
401.336	53.76
401.545	150.01
401.754	94.72
401.963	131.58
402.172	70.14
402.381	70.14
402.59	186.88
402.799	35.33
403.008	111.1
403.217	172.54
403.426	49.66
403.635	145.92
403.844	102.91
404.053	119.29
404.262	174.59
404.471	170.49
404.68	109.05
404.888	131.58
405.097	184.83
405.306	51.71
405.515	109.05
405.724	150.01
405.933	154.11
406.142	164.35
406.35	203.26
406.559	119.29
406.768	64
406.977	174.59
407.185	160.25
407.394	205.31
407.603	139.77
407.812	209.4
408.02	170.49
408.229	172.54
408.438	248.32
408.646	141.82
408.855	256.51
409.064	156.16
409.272	197.12
409.481	182.78
409.69	190.97
409.898	264.7
410.107	285.18
410.315	254.46
410.524	254.46
410.733	199.16
410.941	236.03
411.15	305.66
411.358	287.23
411.567	334.33
411.775	254.46
411.984	320
412.192	313.85
412.401	391.67
412.609	426.49
412.818	408.06
413.026	459.26
413.234	297.47
413.443	414.2
413.651	397.82
413.86	428.54
414.068	469.5
414.276	483.83
414.485	442.87
414.693	469.5
414.901	526.84
415.11	506.36
415.318	553.46
415.526	559.61
415.734	641.53
415.943	621.05
416.151	592.37
416.359	549.37
416.567	604.66
416.776	705.01
416.984	696.82
417.192	711.16
417.4	772.6
417.608	758.26
417.817	731.64
418.025	881.14
418.233	817.65
418.441	821.75
418.649	815.6
418.857	856.56
419.065	922.1
419.273	1044.98
419.481	1036.78
419.689	1051.12
419.897	1001.97
420.105	1055.22
420.313	1141.23
420.521	1163.76
420.729	1174
420.937	1214.96
421.145	1239.53
421.353	1382.89
421.561	1483.24
421.769	1370.6
421.977	1462.76
422.185	1522.15
422.393	1628.65
422.601	1667.56
422.809	1739.24
423.017	1706.47
423.224	1753.57
423.432	1829.35
423.64	1849.83
423.848	1913.31
424.056	2025.95
424.263	2128.35
424.471	1989.09
424.679	2095.58
424.887	2159.07
425.094	2222.56
425.302	2331.1
425.51	2437.59
425.718	2478.55
425.925	2476.51
426.133	2648.54
426.341	2634.2
426.548	2910.68
426.756	2918.87
426.964	2994.64
427.171	3013.07
427.379	3164.62
427.586	3142.1
427.794	3428.81
428.001	3500.49
428.209	3604.94
428.417	3533.26
428.624	3768.77
428.832	3862.98
429.039	3731.91
429.247	3760.58
429.454	4161.98
429.662	4368.83
429.869	4078.02
430.076	4317.63
430.284	4356.54
430.491	4495.8
430.699	4764.09
430.906	4706.74
431.114	4962.74
431.321	5013.94
431.528	5106.1
431.736	5540.27
431.943	5714.34
432.15	5319.09
432.358	5534.12
432.565	5728.68
432.772	5818.79
432.979	6164.9
433.187	6320.54
433.394	6154.66
433.601	6824.34
433.808	6695.32
434.016	6533.53
434.223	6885.78
434.43	7199.12
434.637	7227.79
434.844	7840.14
435.052	7805.32
435.259	7795.08
435.466	7811.46
435.673	7788.94
435.88	8325.5
436.087	8751.48
436.294	8571.26
436.501	8466.81
436.708	8577.41
436.915	9103.73
437.122	9324.91
437.329	9331.06
437.537	9582.96
437.743	9824.62
437.95	9830.76
438.157	9963.88
438.364	10721.63
438.571	10385.76
438.778	10525.02
438.985	11546.96
439.192	11030.87
439.399	11489.62
439.606	11204.95
439.813	11954.51
440.02	12568.9
440.227	12228.93
440.433	12067.14
440.64	12443.97
440.847	12601.66
441.054	12685.63
441.261	13701.42
441.467	13535.54
441.674	13769.01
441.881	14281
442.088	14209.32
442.294	14086.44
442.501	14434.6
442.708	14711.07
442.914	15444.24
443.121	16050.44
443.328	15540.5
443.534	16679.17
443.741	16046.35
443.948	16087.31
444.154	17139.96
444.361	17027.32
444.568	17119.48
444.774	17240.31
444.981	17389.81
445.187	17817.84
445.394	18725.09
445.6	18292.97
445.807	20246.73
446.013	19106.01
446.22	19519.7
446.426	20711.62
446.633	20406.47
446.839	21151.93
447.046	20383.94
447.252	21348.54
447.459	21436.6
447.665	21315.77
447.871	22339.76
448.078	23333.02
448.284	22118.57
448.491	22589.61
448.697	23683.22
448.903	23869.59
449.11	24023.19
449.316	23586.97
449.522	24211.6
449.728	24705.16
449.935	25047.17
450.141	25090.18
450.347	25428.09
450.553	24737.93
450.76	24934.53
450.966	25639.03
451.172	25632.89
451.378	26273.9
451.584	25573.5
451.791	26091.63
451.997	26173.55
452.203	26447.98
452.409	26617.96
452.615	26425.45
452.821	25368.7
453.027	25227.39
453.233	26519.66
453.44	25772.15
453.646	25671.8
453.852	25788.53
454.058	26321.01
454.264	25436.28
454.47	26253.42
454.676	25178.24
454.882	26312.81
455.088	23785.62
455.294	24330.38
455.5	24531.08
455.705	24705.16
455.911	23840.92
456.117	23464.09
456.323	23038.11
456.529	22036.66
456.735	22601.9
456.941	22061.23
457.147	21895.35
457.352	21252.28
457.558	21227.71
457.764	20996.29
457.97	20672.71
458.176	20250.83
458.381	20203.72
458.587	19046.62
458.793	19294.43
458.999	18319.59
459.204	19341.53
459.41	18942.17
459.616	17664.24
459.821	17750.26
460.027	17674.48
460.233	17185.02
460.438	16593.15
460.644	16337.16
460.85	15886.61
461.055	15622.42
461.261	15513.88
461.466	14334.25
461.672	14240.04
461.878	14909.72
462.083	14006.57
462.289	13619.5
462.494	13965.61
462.7	13347.12
462.905	12800.32
463.111	13435.19
463.316	13199.67
463.522	12986.68
463.727	12960.06
463.932	13183.29
464.138	12798.27
464.343	12794.17
464.549	12382.53
464.754	13021.5
464.959	12757.31
465.165	12847.42
465.37	12269.89
465.575	11811.15
465.781	12226.89
465.986	12329.28
466.191	12161.35
466.397	11921.74
466.602	11094.36
466.807	11876.68
467.012	11536.72
467.218	11718.99
467.423	11565.39
467.628	11360.59
467.833	12042.57
468.038	11483.47
468.244	11008.34
468.449	11755.85
468.654	11303.25
468.859	11147.61
469.064	11061.59
469.269	10834.27
469.474	10688.86
469.679	10799.45
469.885	10830.17
470.09	10793.31
470.295	10910.04
470.5	10502.5
470.705	10639.71
470.91	10283.36
471.115	10250.6
471.32	10307.94
471.525	10369.38
471.73	10066.28
471.935	10142.05
472.139	9603.44
472.344	9843.05
472.549	9746.8
472.754	9611.63
472.959	9689.45
473.164	9363.83
473.369	9001.33
473.574	9521.52
473.778	9439.6
473.983	9271.67
474.188	9329.01
474.393	8833.4
474.598	9079.16
474.802	8907.13
475.007	8688
475.212	8749.43
475.417	8499.58
475.621	8427.9
475.826	8491.39
476.031	8307.07
476.235	8157.57
476.44	8188.29
476.645	8098.18
476.849	8202.63
477.054	8030.6
477.259	7590.28
477.463	8133
477.668	7621
477.872	7649.68
478.077	7596.43
478.282	7592.33
478.486	7287.18
478.691	7278.99
478.895	7395.73
479.1	7377.3
479.304	7305.62
479.509	7213.46
479.713	7362.96
479.918	6949.27
480.122	7143.83
480.326	7043.48
480.531	7096.72
480.735	7061.91
480.94	6850.97
481.144	6988.18
481.348	6807.96
481.553	6846.87
481.757	6705.56
481.961	6889.88
482.166	6943.13
482.37	6801.82
482.574	6853.02
482.778	6656.41
482.983	6953.37
483.187	6857.11
483.391	6959.51
483.595	6830.49
483.8	6732.19
484.004	6828.44
484.208	6959.51
484.412	6871.45
484.616	6824.34
484.821	6889.88
485.025	6693.27
485.229	6900.12
485.433	6736.28
485.637	6861.21
485.841	6773.14
486.045	6918.55
486.249	6891.93
486.453	6566.3
486.657	6680.99
486.861	6797.72
487.065	6846.87
487.269	6785.43
487.473	6703.51
487.677	6764.95
487.881	6764.95
488.085	6623.64
488.289	6963.61
488.493	6820.25
488.697	6736.28
488.901	6754.71
489.105	6875.54
489.309	6803.86
489.512	6803.86
489.716	6973.85
489.92	6898.07
490.124	6891.93
490.328	6906.26
490.531	6973.85
490.735	6969.75
490.939	7094.68
491.143	6967.7
491.346	7025.04
491.55	7149.97
491.754	7086.48
491.958	7147.92
492.161	7197.07
492.365	7109.01
492.569	7346.58
492.772	7154.07
492.976	7276.94
493.18	7238.03
493.383	7418.25
493.587	7442.83
493.79	7647.63
493.994	7526.8
494.197	7664.01
494.401	7649.68
494.605	7426.45
494.808	7786.89
495.012	7870.86
495.215	7870.86
495.419	8014.21
495.622	7899.53
495.825	7877
496.029	8147.33
496.232	8157.57
496.436	8112.52
496.639	8311.17
496.843	8327.55
497.046	8452.48
497.249	8538.49
497.453	8581.5
497.656	8669.56
497.859	8737.15
498.063	8929.66
498.266	9048.44
498.469	9073.01
498.673	9148.79
498.876	9113.97
499.079	9234.8
499.282	9363.83
499.485	9511.28
499.689	9615.73
499.892	9687.4
500.095	9636.2
500.298	9972.07
500.501	9806.19
500.705	10172.77
500.908	10328.42
501.111	10389.86
501.314	10586.46
501.517	10637.66
501.72	10592.61
501.923	10914.14
502.126	10940.76
502.329	11217.24
502.532	11252.05
502.735	11295.06
502.938	11555.15
503.141	11549.01
503.344	11784.52
503.547	11723.09
503.75	11974.99
503.953	12173.64
504.156	12419.39
504.359	12552.51
504.562	12284.23
504.765	12855.61
504.968	13056.31
505.17	13254.97
505.373	13107.51
505.576	13125.94
505.779	13633.84
505.982	13672.75
506.185	13707.57
506.387	13676.85
506.59	13824.3
506.793	14317.86
506.996	14350.63
507.198	14551.33
507.401	14547.23
507.604	14856.48
507.807	14993.69
508.009	15040.79
508.212	15235.35
508.415	15581.46
508.617	15902.99
508.82	15700.24
509.022	15837.45
509.225	16269.58
509.428	16279.82
509.63	16431.37
509.833	16668.93
510.035	16754.94
510.238	17035.52
510.44	17322.23
510.643	17602.8
510.845	17395.96
511.048	17346.81
511.25	18006.25
511.453	18088.17
511.655	18540.77
511.858	18460.9
512.06	18573.54
512.262	18942.17
512.465	19077.34
512.667	19409.11
512.87	19632.34
513.072	19398.87
513.274	19966.16
513.477	20078.8
513.679	20392.14
513.881	20658.37
514.084	20949.18
514.286	20723.91
514.488	21094.59
514.69	21633.21
514.893	21620.92
515.095	21833.91
515.297	22376.62
515.499	22317.23
515.701	22417.58
515.904	22642.85
516.106	22890.66
516.308	23279.77
516.51	23353.5
516.712	23416.99
516.914	23795.86
517.116	24381.58
517.318	24209.55
517.52	24533.13
517.722	24719.49
517.925	25004.16
518.127	25397.37
518.329	25360.51
518.531	25356.41
518.733	25897.08
518.935	26132.59
519.136	26306.67
519.338	26894.44
519.54	26572.91
519.742	27080.8
519.944	27267.17
520.146	27861.08
520.348	27580.51
520.55	28108.88
520.752	28020.82
520.954	28760.14
521.155	28239.95
521.357	29104.2
521.559	29378.62
521.761	29829.18
521.963	29458.49
522.164	29741.11
522.366	30156.85
522.568	30277.68
522.77	30418.99
522.971	30885.93
523.173	30640.17
523.375	30922.79
523.576	31283.23
523.778	31258.66
523.98	31545.37
524.181	32167.96
524.383	32217.11
524.584	32225.3
524.786	32200.72
524.988	32280.6
525.189	32716.81
525.391	33095.69
525.592	32827.4
525.794	33310.72
525.995	33390.59
526.197	33513.47
526.398	33527.81
526.6	33912.83
526.801	33658.88
527.003	34101.24
527.204	34088.95
527.406	34551.79
527.607	34400.24
527.808	34740.21
528.01	34562.03
528.211	34260.98
528.412	35307.49
528.614	34992.11
528.815	35311.59
529.016	35575.78
529.218	35123.18
529.419	35424.23
529.62	35366.88
529.822	35366.88
530.023	35669.98
530.224	35776.48
530.425	35760.09
530.626	35616.74
530.828	35624.93
531.029	36669.39
531.23	35936.22
531.431	35624.93
531.632	35862.49
531.833	36173.78
532.035	36304.85
532.236	36177.88
532.437	36644.82
532.638	35985.37
532.839	36573.14
533.04	36573.14
533.241	36356.05
533.442	36913.1
533.643	36726.74
533.844	36444.12
534.045	36691.92
534.246	36476.88
534.447	36868.05
534.648	36263.89
534.849	36792.27
535.05	36612.05
535.251	36769.74
535.451	36724.69
535.652	36954.06
535.853	36724.69
536.054	36929.48
536.255	37085.13
536.456	36485.08
536.657	37760.96
536.857	36929.48
537.058	36730.83
537.259	36904.91
537.46	36730.83
537.66	36370.39
537.861	36890.57
538.062	36653.01
538.263	37267.4
538.463	37029.83
538.664	36857.81
538.865	37099.47
539.065	37224.39
539.266	36794.32
539.466	37103.56
539.667	36718.54
539.868	37531.59
540.068	36906.96
540.269	36802.51
540.469	37107.66
540.67	36571.09
540.87	36876.24
541.071	36806.61
541.271	37193.67
541.472	36980.68
541.672	36431.83
541.873	36538.32
542.073	36554.71
542.274	36984.78
542.474	36935.63
542.675	36394.96
542.875	37040.07
543.075	36587.47
543.276	36308.95
543.476	36929.48
543.676	36843.47
543.877	36431.83
544.077	36997.07
544.277	36980.68
544.478	36638.67
544.678	36859.85
544.878	36470.74
545.078	37334.98
545.279	36247.51
545.479	36626.39
545.679	36696.02
545.879	36841.42
546.079	36777.93
546.28	36409.3
546.48	36599.76
546.68	36947.92
546.88	36685.78
547.08	36898.76
547.28	36741.07
547.48	36425.68
547.68	36818.89
547.88	36530.13
548.081	36863.95
548.281	36802.51
548.481	36448.21
548.681	37261.26
548.881	37033.93
549.081	37121.99
549.28	36661.2
549.48	36761.55
549.68	36552.66
549.88	37382.09
550.08	36263.89
550.28	36698.06
550.48	36491.22
550.68	36728.78
550.88	36411.35
551.08	37072.84
551.279	36773.84
551.479	36661.2
551.679	36483.03
551.879	36595.67
552.079	36460.5
552.278	36872.14
552.478	36685.78
552.678	36681.68
552.878	36952.01
553.077	36423.64
553.277	35942.36
553.477	37062.6
553.676	36437.97
553.876	36267.99
554.076	36513.75
554.275	36261.85
554.475	35977.18
554.674	36747.22
554.874	36644.82
555.074	36313.05
555.273	36411.35
555.473	36650.96
555.672	35723.23
555.872	36136.92
556.071	36290.52
556.271	36345.81
556.47	36376.53
556.67	35651.55
556.869	35823.58
557.068	35878.88
557.268	35741.66
557.467	35919.84
557.667	35962.84
557.866	35674.08
558.065	35809.25
558.265	35706.85
558.464	35157.99
558.663	35899.36
558.863	35321.83
559.062	35903.45
559.261	35661.79
559.461	35768.29
559.66	34922.48
559.859	35373.03
560.058	35135.46
560.258	35153.9
560.457	35037.16
560.656	35385.32
560.855	34861.04
561.054	35342.31
561.253	34813.93
561.453	35086.31
561.652	35180.52
561.851	35239.91
562.05	34858.99
562.249	34592.75
562.448	34957.29
562.647	34842.6
562.846	34762.73
563.045	34777.07
563.244	34547.7
563.443	34709.49
563.642	34238.45
563.841	34439.15
564.04	34633.71
564.239	34205.69
564.438	34191.35
564.637	34531.31
564.836	34355.19
565.035	34095.1
565.234	34164.73
565.432	34215.93
565.631	33929.21
565.83	34043.9
566.029	33894.39
566.228	33644.54
566.427	34025.46
566.625	33492.99
566.824	33239.04
567.023	33536
567.222	33177.61
567.42	33759.23
567.619	33640.45
567.818	33112.07
568.016	33026.06
568.215	33589.25
568.414	33114.12
568.612	33253.38
568.811	33026.06
569.01	32909.32
569.208	32593.93
569.407	32899.08
569.605	32524.3
569.804	32722.96
570.002	32436.24
570.201	32483.34
570.4	32481.3
570.598	32565.26
570.797	32038.94
570.995	32507.92
571.193	31830.04
571.392	32241.68
571.59	32012.31
571.789	32225.3
571.987	31954.97
572.186	31748.12
572.384	31633.44
572.582	31840.28
572.781	31705.12
572.979	31037.48
573.177	31813.66
573.376	31434.78
573.574	30810.15
573.772	31342.63
573.971	30973.99
574.169	31068.2
574.367	30857.26
574.565	31043.62
574.763	30591.02
574.962	30687.28
575.16	30634.03
575.358	30595.12
575.556	30359.6
575.754	30912.55
575.952	30341.17
576.151	30634.03
576.349	30023.73
576.547	29962.29
576.745	30263.35
576.943	30173.24
577.141	29970.49
577.339	29882.42
577.537	29587.52
577.735	29716.54
577.933	29462.59
578.131	29411.39
578.329	28938.31
578.527	28973.13
578.725	29354.05
578.923	29071.43
579.121	29089.86
579.319	28989.51
579.516	28942.41
579.714	28858.44
579.912	28772.42
580.11	28799.05
580.308	28528.72
580.506	28743.75
580.704	28223.57
580.901	28461.13
581.099	28631.12
581.297	28029.01
581.495	28137.55
581.692	28454.99
581.89	27832.41
582.088	28043.35
582.285	28020.82
582.483	27859.03
582.681	27678.81
582.878	27523.16
583.076	27517.02
583.274	27514.97
583.471	27494.49
583.669	27588.7
583.866	27258.98
584.064	27299.94
584.262	27088.99
584.459	27029.6
584.657	26781.8
584.854	27187.3
585.052	26652.78
585.249	26787.94
585.447	26746.98
585.644	26562.67
585.841	26497.13
586.039	26833
586.236	26073.2
586.434	26259.57
586.631	26218.61
586.828	26265.71
587.026	26071.15
587.223	26198.13
587.42	25911.41
587.618	26019.95
587.815	25419.9
588.012	25593.98
588.21	25778.29
588.407	25833.59
588.604	25344.13
588.801	25340.03
588.999	25489.53
589.196	25303.17
589.393	25389.18
589.59	25163.9
589.787	25106.56
589.984	24934.53
590.182	25053.31
590.379	25116.8
590.576	24588.42
590.773	24830.09
590.97	24545.42
591.167	24635.53
591.364	24295.57
591.561	24490.12
591.758	24387.72
591.955	24406.16
592.152	24723.59
592.349	24230.03
592.546	24068.24
592.743	24404.11
592.94	23722.13
593.137	24246.41
593.334	24072.34
593.531	23726.23
593.727	23681.17
593.924	23586.97
594.121	23548.06
594.318	23492.76
594.515	23476.38
594.712	23830.68
594.908	23226.53
595.105	23439.51
595.302	23226.53
595.499	22984.87
595.696	23218.33
595.892	22937.76
596.089	23283.87
596.286	23117.98
596.482	22874.27
596.679	22870.18
596.876	22589.61
597.072	22788.26
597.269	22710.44
597.466	22753.44
597.662	22524.07
597.859	22587.56
598.055	22397.1
598.252	22130.86
598.448	22337.71
598.645	22188.21
598.841	22020.27
599.038	21967.02
599.234	22470.83
599.431	21899.44
599.627	22077.62
599.824	21856.43
600.02	21539
600.217	21643.45
600.413	21616.82
600.609	21534.9
600.806	21188.8
601.002	21207.23
601.198	21276.86
601.395	21135.55
601.591	21276.86
601.787	21254.33
601.984	21002.43
602.18	21149.89
602.376	21084.35
602.572	20730.05
602.769	20879.55
602.965	20535.49
603.161	20922.56
603.357	20826.31
603.553	20383.94
603.75	20437.19
603.946	20422.86
604.142	20388.04
604.338	20429
604.534	20267.21
604.73	19935.44
604.926	19935.44
605.122	20273.35
605.318	19923.15
605.514	19839.19
605.71	19685.59
605.906	19699.92
606.102	19724.5
606.298	19749.07
606.494	19771.6
606.69	19378.39
606.886	19544.28
607.082	19189.98
607.278	19521.75
607.474	19267.8
607.67	19558.61
607.866	19003.61
608.062	19351.77
608.257	19255.51
608.453	19146.97
608.649	19265.75
608.845	18712.8
609.041	18966.75
609.236	18780.39
609.432	18696.42
609.628	18784.48
609.824	18602.21
610.019	18690.27
610.215	18710.75
610.411	18620.64
610.606	18508.01
610.802	18477.29
610.998	18508.01
611.193	18622.69
611.389	18272.49
611.584	18276.59
611.78	18249.96
611.976	18180.33
612.171	18079.98
612.367	17987.82
612.562	17926.38
612.758	17645.81
612.953	18014.45
613.149	18127.08
613.344	18065.64
613.539	18276.59
613.735	17692.91
613.93	18022.64
614.126	17520.88
614.321	17729.78
614.517	17721.59
614.712	17594.61
614.907	17404.15
615.103	17527.03
615.298	17529.08
615.493	17680.63
615.688	17123.58
615.884	17584.37
616.079	17119.48
616.274	17547.51
616.47	17346.81
616.665	17471.73
616.86	17172.73
617.055	16990.46
617.25	17062.14
617.445	16955.65
617.641	16609.54
617.836	17086.72
618.031	16654.59
618.226	16777.47
618.421	16824.58
618.616	16836.86
618.811	16486.66
619.006	16767.23
619.201	16466.18
619.396	16617.73
619.591	16376.07
619.786	16490.76
619.981	16060.68
620.176	16161.03
620.371	15800.59
620.566	16122.12
620.761	15929.61
620.956	16283.91
621.151	15726.86
621.346	15886.61
621.541	15673.62
621.735	15829.26
621.93	15327.51
622.125	15583.51
622.32	15337.75
622.515	15542.55
622.709	15431.96
622.904	15061.27
623.099	15038.75
623.294	14928.16
623.488	14885.15
623.683	15016.22
623.878	14690.59
624.072	14774.56
624.267	14407.97
624.462	14702.88
624.656	14344.49
624.851	14399.78
625.046	14108.97
625.24	14309.67
625.435	13959.47
625.629	14025
625.824	13990.19
626.018	13953.32
626.213	13447.47
626.407	13682.99
626.602	13513.01
626.796	13791.53
626.991	13613.36
627.185	13656.37
627.38	13492.53
627.574	13211.96
627.768	13109.56
627.963	13265.21
628.157	13244.73
628.352	12904.76
628.546	12849.47
628.74	12937.53
628.935	12785.98
629.129	12898.62
629.323	12611.9
629.517	12751.17
629.712	12503.36
629.906	12632.38
630.1	12411.2
630.294	12419.39
630.489	12339.52
630.683	12486.98
630.877	12011.85
631.071	12003.66
631.265	12083.53
631.459	11977.03
631.653	11919.69
631.848	11954.51
632.042	11747.66
632.236	11868.49
632.43	11635.02
632.624	11749.71
632.818	11450.71
633.012	11637.07
633.206	11497.81
633.4	11479.38
633.594	11477.33
633.788	11485.52
633.982	11440.47
634.176	11286.87
634.369	11397.46
634.563	11159.89
634.757	10932.57
634.951	11108.69
635.145	11020.63
635.339	10948.95
635.533	10809.69
635.726	10676.57
635.92	10854.75
636.114	10717.53
636.308	10512.74
636.501	10654.05
636.695	10510.69
636.889	10266.98
637.083	10346.85
637.276	10332.51
637.47	10250.6
637.664	10348.9
637.857	10137.96
638.051	10142.05
638.244	10002.79
638.438	10072.42
638.632	9892.2
638.825	10039.65
639.019	9752.94
639.212	9791.85
639.406	9949.54
639.599	9900.39
639.793	9687.4
639.986	9464.18
640.18	9578.86
640.373	9492.85
640.567	9394.54
640.76	9542
640.954	9347.44
641.147	9267.57
641.34	9195.89
641.534	9107.83
641.727	9136.5
641.92	9206.13
642.114	9097.59
642.307	8954.23
642.5	8980.85
642.694	8878.46
642.887	8753.53
643.08	8909.18
643.273	8782.2
643.467	8767.87
643.66	8720.76
643.853	8546.69
644.046	8450.43
644.239	8583.55
644.432	8501.63
644.626	8419.71
644.819	8282.5
645.012	8436.1
645.205	8446.34
645.398	8364.42
645.591	8229.25
645.784	7997.83
645.977	7901.58
646.17	8120.71
646.363	8034.69
646.556	7905.67
646.749	7999.88
646.942	7930.25
647.135	7846.28
647.328	7590.28
647.521	7621
647.714	7489.93
647.907	7762.31
648.099	7530.89
648.292	7621
648.485	7707.02
648.678	7416.21
648.871	7453.07
649.064	7346.58
649.256	7317.9
649.449	7260.56
649.642	7164.31
649.835	7006.61
650.027	7115.16
650.22	7086.48
650.413	7023
650.605	6949.27
650.798	6994.33
650.991	6855.06
651.183	7016.85
651.376	6885.78
651.568	6838.68
651.761	6830.49
651.954	6812.06
652.146	6625.69
652.339	6769.05
652.531	6683.03
652.724	6461.85
652.916	6662.55
653.109	6424.99
653.301	6687.13
653.494	6470.05
653.686	6461.85
653.879	6443.42
654.071	6414.75
654.263	6257.06
654.456	6338.98
654.648	6277.54
654.84	6082.98
655.033	6068.64
655.225	6013.35
655.417	6056.36
655.61	5976.48
655.802	6007.2
655.994	6158.75
656.186	5984.68
656.379	5867.94
656.571	5976.48
656.763	5876.13
656.955	5835.17
657.148	5859.75
657.34	5642.67
657.532	5587.37
657.724	5689.77
657.916	5824.94
658.108	5679.53
658.3	5530.03
658.492	5665.19
658.684	5472.68
658.876	5478.83
659.068	5409.2
659.26	5433.77
659.452	5415.34
659.644	5425.58
659.836	5396.91
660.028	5405.1
660.22	5409.2
660.412	5171.63
660.604	5149.11
660.796	5163.44
660.988	5124.53
661.18	4983.22
661.372	4993.46
661.563	5173.68
661.755	4989.36
661.947	5102
662.139	4938.16
662.331	5075.38
662.522	4856.25
662.714	4932.02
662.906	4800.95
663.097	4839.86
663.289	4762.04
663.481	4860.34
663.673	4745.66
663.864	4667.83
664.056	4657.59
664.247	4755.9
664.439	4702.65
664.631	4755.9
664.822	4729.27
665.014	4733.37
665.205	4516.28
665.397	4626.87
665.588	4606.39
665.78	4491.71
665.971	4409.79
666.163	4465.08
666.354	4479.42
666.546	4528.57
666.737	4358.59
666.929	4274.62
667.12	4497.85
667.311	4256.19
667.503	4295.1
667.694	4360.64
667.885	4366.78
668.077	4149.7
668.268	4223.42
668.459	4051.39
668.651	4121.03
668.842	4168.13
669.033	4073.92
669.224	4110.79
669.416	4198.85
669.607	4057.54
669.798	3936.71
669.989	3936.71
670.18	4008.39
670.371	3955.14
670.563	3967.43
670.754	3942.85
670.945	3893.7
671.136	3664.33
671.327	4024.77
671.518	3918.28
671.709	3893.7
671.9	3819.97
672.091	3967.43
672.282	3883.46
672.473	3690.95
672.664	3830.21
672.855	3717.58
673.046	3705.29
673.237	3715.53
673.428	3758.53
673.619	3635.66
673.809	3611.08
674	3443.15
674.191	3559.88
674.382	3635.66
674.573	3551.69
674.764	3527.11
674.954	3551.69
675.145	3570.12
675.336	3541.45
675.527	3520.97
675.717	3520.97
675.908	3465.68
676.099	3512.78
676.289	3525.07
676.48	3418.57
676.671	3396.04
676.861	3381.71
677.052	3477.96
677.243	3297.74
677.433	3324.37
677.624	3391.95
677.814	3213.77
678.005	3459.53
678.195	3305.93
678.386	3303.89
678.576	3367.37
678.767	3350.99
678.957	3291.6
679.148	3279.31
679.338	3297.74
679.529	3281.36
679.719	3287.5
679.909	3221.97
680.1	3365.32
680.29	3283.41
680.481	3346.89
680.671	3205.58
680.861	3191.25
681.052	3258.83
681.242	3158.48
681.432	3224.01
681.622	3115.47
681.813	3125.71
682.003	3205.58
682.193	3250.64
682.383	3156.43
682.573	3191.25
682.764	3117.52
682.954	3217.87
683.144	2959.83
683.334	3004.88
683.524	3068.37
683.714	3111.38
683.904	2982.35
684.094	3011.03
684.284	3113.42
684.474	3160.53
684.664	3127.76
684.854	3041.75
685.044	2970.07
685.234	3011.03
685.424	3062.23
685.614	2968.02
685.804	2884.05
685.994	2992.59
686.184	2900.44
686.374	2906.58
686.564	2898.39
686.753	2877.91
686.943	2976.21
687.133	2845.14
687.323	2857.43
687.513	2914.77
687.702	2929.11
687.892	2824.66
688.082	2787.8
688.272	2832.85
688.461	2869.72
688.651	2750.93
688.841	2873.81
689.03	2857.43
689.22	2820.56
689.41	2812.37
689.599	2855.38
689.789	2804.18
689.979	2714.07
690.168	2806.23
690.358	2699.73
690.547	2861.52
690.737	2757.08
690.926	2638.3
691.116	2693.59
691.305	2783.7
691.495	2714.07
691.684	2777.56
691.874	2763.22
692.063	2632.15
692.252	2781.65
692.442	2689.49
692.631	2693.59
692.82	2808.28
693.01	2648.54
693.199	2666.97
693.388	2746.84
693.578	2697.69
693.767	2673.11
693.956	2679.26
694.146	2570.71
694.335	2650.58
694.524	2548.19
694.713	2587.1
694.902	2648.54
695.092	2709.97
695.281	2597.34
695.47	2574.81
695.659	2613.72
695.848	2664.92
696.037	2656.73
696.226	2712.02
696.415	2705.88
696.604	2580.95
696.793	2763.22
696.982	2709.97
697.171	2656.73
697.36	2570.71
697.549	2525.66
697.738	2585.05
697.927	2707.93
698.116	2671.06
698.305	2566.62
698.494	2591.19
698.683	2671.06
698.872	2675.16
699.061	2539.99
699.25	2568.66
699.438	2623.96
699.627	2556.38
699.816	2632.15
700.005	2511.32
700.193	2472.41
700.382	2525.66
700.571	2501.08
700.76	2445.79
700.948	2666.97
701.137	2585.05
701.326	2535.9
701.514	2519.51
701.703	2542.04
701.892	2558.42
702.08	2496.99
702.269	2568.66
702.457	2550.23
702.646	2503.13
702.834	2546.14
703.023	2513.37
703.212	2361.82
703.4	2443.74
703.589	2488.79
703.777	2447.83
703.965	2439.64
704.154	2445.79
704.342	2468.31
704.531	2408.92
704.719	2462.17
704.907	2458.07
705.096	2443.74
705.284	2419.16
705.472	2404.83
705.661	2167.26
705.849	2398.68
706.037	2312.67
706.226	2384.35
706.414	2402.78
706.602	2406.88
706.79	2410.97
706.979	2398.68
707.167	2253.28
707.355	2316.76
707.543	2370.01
707.731	2380.25
707.919	2232.8
708.107	2161.12
708.296	2304.48
708.484	2300.38
708.672	2425.31
708.86	2327
709.048	2245.09
709.236	2263.52
709.424	2324.96
709.612	2212.32
709.8	2204.13
709.988	2240.99
710.176	2288.09
710.364	2333.15
710.551	2183.65
710.739	2183.65
710.927	2212.32
711.115	2150.88
711.303	2240.99
711.491	2197.98
711.679	2191.84
711.866	2132.45
712.054	2193.89
712.242	2204.13
712.43	2134.5
712.617	2044.38
712.805	2103.78
712.993	2124.26
713.181	2159.07
713.368	1927.65
713.556	2095.58
713.744	2009.57
713.931	2089.44
714.119	2007.52
714.306	2134.5
714.494	2087.39
714.682	1993.19
714.869	1984.99
715.057	2087.39
715.244	2050.53
715.432	1892.84
715.619	1964.51
715.807	2066.91
715.994	1999.33
716.182	1939.94
716.369	1954.27
716.556	1939.94
716.744	1987.04
716.931	1858.02
717.119	1855.97
717.306	1952.23
717.493	1954.27
717.681	2021.86
717.868	1915.36
718.055	1937.89
718.242	1944.03
718.43	1878.5
718.617	1812.96
718.804	1884.64
718.991	1855.97
719.179	1839.59
719.366	1763.81
719.553	1905.12
719.74	1782.24
719.927	1796.58
720.114	1729
720.301	1751.53
720.488	1821.16
720.676	1761.77
720.863	1800.68
721.05	1784.29
721.237	1694.18
721.424	1753.57
721.611	1765.86
721.798	1823.2
721.985	1757.67
722.172	1790.44
722.358	1673.7
722.545	1718.76
722.732	1599.98
722.919	1679.85
723.106	1667.56
723.293	1747.43
723.48	1677.8
723.667	1698.28
723.853	1507.82
724.04	1604.07
724.227	1774.05
724.414	1583.59
724.6	1499.63
724.787	1612.26
724.974	1583.59
725.161	1649.13
725.347	1485.29
725.534	1647.08
725.72	1665.51
725.907	1569.26
726.094	1675.75
726.28	1587.69
726.467	1552.87
726.653	1569.26
726.84	1708.52
727.027	1565.16
727.213	1683.94
727.4	1579.5
727.586	1583.59
727.773	1532.39
727.959	1468.91
728.145	1493.48
728.332	1503.72
728.518	1473
728.705	1479.15
728.891	1526.25
729.077	1464.81
729.264	1475.05
729.45	1526.25
729.636	1411.56
729.823	1452.52
730.009	1452.52
730.195	1485.29
730.382	1466.86
730.568	1411.56
730.754	1464.81
730.94	1343.98
731.126	1423.85
731.313	1548.78
731.499	1501.67
731.685	1429.99
731.871	1391.08
732.057	1454.57
732.243	1448.43
732.429	1305.07
732.615	1503.72
732.801	1348.08
732.987	1354.22
733.173	1413.61
733.359	1374.7
733.545	1386.99
733.731	1249.77
733.917	1384.94
734.103	1460.71
734.289	1397.23
734.475	1378.79
734.661	1374.7
734.847	1294.83
735.033	1358.32
735.219	1325.55
735.404	1272.3
735.59	1341.93
735.776	1288.68
735.962	1319.4
736.148	1509.86
736.333	1311.21
736.519	1315.31
736.705	1319.4
736.89	1341.93
737.076	1233.39
737.262	1266.16
737.447	1286.64
737.633	1292.78
737.819	1386.99
738.004	1257.96
738.19	1235.44
738.375	1214.96
738.561	1214.96
738.747	1288.68
738.932	1192.43
739.118	1182.19
739.303	1217.01
739.489	1171.95
739.674	1204.72
739.859	1190.38
740.045	1194.48
740.23	1278.44
740.416	1223.15
740.601	1249.77
740.786	1130.99
740.972	1219.05
741.157	1206.77
741.342	1186.29
741.528	1145.33
741.713	1208.81
741.898	1143.28
742.084	1178.09
742.269	1153.52
742.454	1067.5
742.639	1141.23
742.824	1096.18
743.01	1176.05
743.195	1192.43
743.38	1178.09
743.565	1133.04
743.75	1178.09
743.935	1122.8
744.12	1075.7
744.305	1116.65
744.49	1067.5
744.675	1053.17
744.86	1049.07
745.045	1108.46
745.23	1030.64
745.415	1075.7
745.6	993.78
745.785	1022.45
745.97	999.92
746.155	1016.3
746.34	1067.5
746.525	995.82
746.71	1061.36
746.895	1010.16
747.079	1010.16
747.264	1044.98
747.449	1038.83
747.634	1001.97
747.819	981.49
748.003	926.19
748.188	950.77
748.373	1030.64
748.557	911.86
748.742	1014.26
748.927	895.47
749.111	932.34
749.296	866.8
749.481	874.99
749.665	928.24
749.85	971.25
750.034	989.68
750.219	905.71
750.404	975.35
750.588	997.87
750.773	858.61
750.957	834.04
751.141	899.57
751.326	850.42
751.51	858.61
751.695	883.19
751.879	733.68
752.064	889.33
752.248	858.61
752.432	874.99
752.617	862.71
752.801	829.94
752.985	739.83
753.17	846.32
753.354	737.78
753.538	897.52
753.722	805.36
753.907	848.37
754.091	752.12
754.275	743.92
754.459	801.27
754.643	870.9
754.828	721.4
755.012	698.87
755.196	793.08
755.38	795.12
755.564	735.73
755.748	733.68
755.932	745.97
756.116	725.49
756.3	772.6
756.484	709.11
756.668	764.4
756.852	569.85
757.036	674.29
757.22	741.88
757.404	600.57
757.588	684.53
757.772	692.73
757.956	705.01
758.14	635.38
758.323	686.58
758.507	662.01
758.691	619
758.875	700.92
759.059	602.61
759.242	594.42
759.426	709.11
759.61	657.91
759.794	684.53
759.977	645.62
760.161	688.63
760.345	729.59
760.528	651.77
760.712	623.09
760.895	569.85
761.079	635.38
761.263	696.82
761.446	592.37
761.63	592.37
761.813	528.89
761.997	600.57
762.18	690.68
762.364	643.57
762.547	600.57
762.731	657.91
762.914	563.7
763.098	563.7
763.281	584.18
763.464	502.26
763.648	575.99
763.831	602.61
764.015	563.7
764.198	559.61
764.381	592.37
764.564	606.71
764.748	483.83
764.931	578.04
765.114	578.04
765.297	600.57
765.481	545.27
765.664	561.66
765.847	592.37
766.03	543.22
766.213	551.42
766.397	592.37
766.58	565.75
766.763	584.18
766.946	596.47
767.129	526.84
767.312	596.47
767.495	541.18
767.678	598.52
767.861	471.54
768.044	473.59
768.227	461.3
768.41	608.76
768.593	508.41
768.776	551.42
768.959	549.37
769.142	440.83
769.324	553.46
769.507	487.93
769.69	469.5
769.873	487.93
770.056	504.31
770.239	461.3
770.421	543.22
770.604	537.08
770.787	520.7
770.97	530.94
771.152	494.07
771.335	492.02
771.518	487.93
771.7	461.3
771.883	424.44
772.066	504.31
772.248	440.83
772.431	520.7
772.613	469.5
772.796	459.26
772.978	559.61
773.161	446.97
773.343	477.69
773.526	444.92
773.708	526.84
773.891	379.39
774.073	500.22
774.256	479.74
774.438	461.3
774.621	401.91
774.803	453.11
774.985	436.73
775.168	504.31
775.35	465.4
775.532	395.77
775.715	444.92
775.897	422.39
776.079	416.25
776.261	428.54
776.444	408.06
776.626	444.92
776.808	379.39
776.99	346.62
777.173	465.4
777.355	393.72
777.537	442.87
777.719	408.06
777.901	373.24
778.083	340.47
778.265	373.24
778.447	399.87
778.629	363
778.811	371.19
778.993	350.71
779.175	330.23
779.357	385.53
779.539	356.86
779.721	393.72
779.903	363
780.085	356.86
780.267	315.9
780.449	322.04
780.631	397.82
780.812	317.95
780.994	340.47
781.176	426.49
781.358	403.96
781.54	406.01
781.721	424.44
781.903	274.94
782.085	244.22
782.267	348.67
782.448	336.38
782.63	276.99
782.812	322.04
782.993	289.28
783.175	303.61
783.357	393.72
783.538	207.36
783.72	322.04
783.901	297.47
784.083	346.62
784.264	320
784.446	238.08
784.627	295.42
784.809	254.46
784.99	391.67
785.172	274.94
785.353	246.27
785.535	242.17
785.716	297.47
785.897	248.32
786.079	279.04
786.26	272.89
786.441	264.7
786.623	301.56
786.804	260.6
786.985	258.56
787.167	297.47
787.348	264.7
787.529	242.17
787.71	307.71
787.891	242.17
788.073	240.12
788.254	281.08
788.435	227.84
788.616	248.32
788.797	227.84
788.978	264.7
789.159	150.01
789.34	256.51
789.522	238.08
789.703	236.03
789.884	227.84
790.065	229.88
790.246	244.22
790.427	166.4
790.607	279.04
790.788	231.93
790.969	221.69
791.15	260.6
791.331	211.45
791.512	283.13
791.693	242.17
791.874	182.78
792.054	231.93
792.235	211.45
792.416	170.49
792.597	215.55
792.778	223.74
792.958	141.82
793.139	195.07
793.32	231.93
793.5	242.17
793.681	195.07
793.862	180.73
794.042	102.91
794.223	162.3
794.404	158.21
794.584	190.97
794.765	203.26
794.945	211.45
795.126	213.5
795.306	215.55
795.487	158.21
795.667	213.5
795.848	182.78
796.028	131.58
796.209	139.77
796.389	152.06
796.57	274.94
796.75	238.08
796.93	201.21
797.111	229.88
797.291	133.63
797.471	178.69
797.652	193.02
797.832	139.77
798.012	160.25
798.192	133.63
798.373	176.64
798.553	244.22
798.733	143.87
798.913	145.92
799.093	158.21
799.274	184.83
799.454	160.25
799.634	123.39
799.814	176.64
799.994	152.06
800.174	145.92
800.354	180.73
800.534	117.25
800.714	199.16
800.894	154.11
801.074	154.11
801.254	199.16
801.434	125.44
801.614	125.44
801.794	174.59
801.974	358.91
802.154	186.88
802.334	113.15
802.514	94.72
802.693	199.16
802.873	102.91
803.053	137.73
803.233	78.33
803.413	156.16
803.592	193.02
803.772	88.57
803.952	137.73
804.131	125.44
804.311	100.86
804.491	156.16
804.67	158.21
804.85	111.1
805.03	98.81
805.209	107.01
805.389	86.53
805.568	57.86
805.748	104.96
805.928	111.1
806.107	176.64
806.287	180.73
806.466	117.25
806.646	145.92
806.825	125.44
807.004	127.49
807.184	123.39
807.363	160.25
807.543	154.11
807.722	141.82
807.901	109.05
808.081	100.86
808.26	80.38
808.439	90.62
808.619	49.66
808.798	125.44
808.977	113.15
809.156	82.43
809.336	125.44
809.515	49.66
809.694	133.63
809.873	121.34
810.052	215.55
810.231	162.3
810.411	66.05
810.59	137.73
810.769	92.67
810.948	121.34
811.127	72.19
811.306	100.86
811.485	135.68
811.664	104.96
811.843	111.1
812.022	143.87
812.201	137.73
812.38	92.67
812.559	102.91
812.737	68.09
812.916	102.91
813.095	131.58
813.274	90.62
813.453	127.49
813.632	127.49
813.811	61.95
813.989	8.7
814.168	104.96
814.347	43.52
814.526	107.01
814.704	127.49
814.883	139.77
815.062	90.62
815.24	86.53
815.419	193.02
815.598	14.85
815.776	84.48
815.955	47.62
816.133	74.24
816.312	84.48
816.49	80.38
816.669	121.34
816.847	104.96
817.026	115.2
817.204	25.09
817.383	68.09
817.561	27.14
817.74	45.57
817.918	78.33
818.097	10.75
818.275	59.9
818.453	61.95
818.632	94.72
818.81	115.2
818.988	27.14
819.167	55.81
819.345	94.72
819.523	49.66
819.701	84.48
819.879	104.96
820.058	47.62
820.236	152.06
820.414	100.86
820.592	84.48
820.77	74.24
820.948	35.33
821.127	96.77
821.305	45.57
821.483	90.62
821.661	125.44
821.839	10.75
822.017	68.09
822.195	14.85
822.373	45.57
822.551	113.15
822.729	117.25
822.907	160.25
823.085	35.33
823.262	88.57
823.44	88.57
823.618	53.76
823.796	-3.58
823.974	90.62
824.152	76.29
824.329	31.23
824.507	117.25
824.685	68.09
824.863	61.95
825.04	113.15
825.218	133.63
825.396	64
825.574	27.14
825.751	76.29
825.929	29.18
826.107	102.91
826.284	90.62
826.462	96.77
826.639	20.99
826.817	8.7
826.994	150.01
827.172	8.7
827.349	129.53
827.527	29.18
827.704	94.72
827.882	92.67
828.059	70.14
828.237	76.29
828.414	66.05
828.591	25.09
828.769	74.24
828.946	39.42
829.124	80.38
829.301	80.38
829.478	64
829.655	96.77
829.833	100.86
830.01	47.62
830.187	86.53
830.364	-34.3
830.542	18.94
830.719	135.68
830.896	55.81
831.073	102.91
831.25	18.94
831.427	72.19
831.604	78.33
831.782	53.76
831.959	111.1
832.136	2.56
832.313	33.28
832.49	92.67
832.667	70.14
832.844	47.62
833.021	-3.58
833.198	43.52
833.374	-3.58
833.551	139.77
833.728	59.9
833.905	35.33
834.082	68.09
834.259	78.33
834.436	76.29
834.612	100.86
834.789	96.77
834.966	39.42
835.143	70.14
835.319	-3.58
835.496	68.09
835.673	64
835.85	80.38
836.026	47.62
836.203	76.29
836.38	61.95
836.556	39.42
836.733	39.42
836.909	84.48
837.086	4.61
837.262	117.25
837.439	29.18
837.616	98.81
837.792	37.38
837.968	8.7
838.145	100.86
838.321	145.92
838.498	78.33
838.674	59.9
838.851	59.9
839.027	12.8
839.203	104.96
839.38	68.09
839.556	86.53
839.732	66.05
839.909	53.76
840.085	92.67
840.261	-7.68
840.437	25.09
840.614	70.14
840.79	18.94
840.966	4.61
841.142	78.33
841.318	59.9
841.494	43.52
841.671	-77.31
841.847	27.14
842.023	-40.45
842.199	29.18
842.375	51.71
842.551	16.9
842.727	137.73
842.903	51.71
843.079	6.66
843.255	45.57
843.431	43.52
843.607	51.71
843.783	4.61
843.959	84.48
844.134	55.81
844.31	45.57
844.486	12.8
844.662	72.19
844.838	-44.54
845.013	37.38
845.189	10.75
845.365	80.38
845.541	90.62
845.716	20.99
845.892	84.48
846.068	55.81
846.244	61.95
846.419	53.76
846.595	27.14
846.77	10.75
846.946	6.66
847.122	-28.16
847.297	72.19
847.473	59.9
847.648	25.09
847.824	20.99
847.999	-5.63
848.175	96.77
848.35	-22.02
848.526	18.94
848.701	68.09
848.876	51.71
849.052	0.51
849.227	29.18
849.403	35.33
849.578	55.81
849.753	12.8
849.929	47.62
850.104	6.66
850.279	86.53
850.454	-22.02
850.63	-9.73
850.805	23.04
850.98	-3.58
851.155	31.23
851.33	0.51
851.505	59.9
851.681	41.47
851.856	-11.78
852.031	18.94
852.206	12.8
852.381	-9.73
852.556	33.28
852.731	-15.87
852.906	-32.26
853.081	86.53
853.256	-11.78
853.431	-5.63
853.606	10.75
853.781	25.09
853.956	-5.63
854.131	35.33
854.305	41.47
854.48	88.57
854.655	47.62
854.83	18.94
855.005	37.38
855.18	92.67
855.354	10.75
855.529	6.66
855.704	47.62
855.879	53.76
856.053	55.81
856.228	27.14
856.403	-11.78
856.577	35.33
856.752	45.57
856.926	8.7
857.101	72.19
857.276	23.04
857.45	23.04
857.625	41.47
857.799	-32.26
857.974	-13.82
858.148	57.86
858.323	-9.73
858.497	14.85
858.672	-19.97
858.846	-28.16
859.02	86.53
859.195	6.66
859.369	-9.73
859.543	-34.3
859.718	39.42
859.892	29.18
860.066	51.71
860.241	20.99
860.415	4.61
860.589	-13.82
860.763	39.42
860.938	-17.92
861.112	-40.45
861.286	43.52
861.46	66.05
861.634	51.71
861.808	51.71
861.982	29.18
862.157	51.71
862.331	0.51
862.505	2.56
862.679	-9.73
862.853	61.95
863.027	25.09
863.201	23.04
863.375	-3.58
863.549	57.86
863.722	8.7
863.896	2.56
864.07	-42.5
864.244	18.94
864.418	55.81
864.592	174.59
864.766	-1.54
864.939	-9.73
865.113	-7.68
865.287	-7.68
865.461	25.09
865.634	20.99
865.808	25.09
865.982	25.09
866.156	6.66
866.329	61.95
866.503	-11.78
866.676	29.18
866.85	27.14
867.024	70.14
867.197	10.75
867.371	53.76
867.544	-40.45
867.718	23.04
867.891	61.95
868.065	27.14
868.238	20.99
868.412	59.9
868.585	6.66
868.759	-36.35
868.932	18.94
869.105	-28.16
869.279	18.94
869.452	12.8
869.625	35.33
869.799	6.66
869.972	4.61
870.145	10.75
870.319	18.94
870.492	51.71
870.665	-28.16
870.838	10.75
871.011	20.99
871.185	-5.63
871.358	25.09
871.531	35.33
871.704	29.18
871.877	35.33
872.05	39.42
872.223	-32.26
872.396	23.04
872.569	74.24
872.742	-73.21
872.915	78.33
873.088	43.52
873.261	35.33
873.434	-26.11
873.607	-13.82
873.78	61.95
873.953	-9.73
874.126	12.8
874.299	-9.73
874.471	37.38
874.644	-13.82
874.817	53.76
874.99	-13.82
875.163	-15.87
875.335	27.14
875.508	27.14
875.681	29.18
875.853	20.99
876.026	35.33
876.199	61.95
876.371	72.19
876.544	-1.54
876.717	-22.02
876.889	37.38
877.062	53.76
877.234	-50.69
877.407	45.57
877.579	43.52
877.752	78.33
877.924	8.7
878.097	20.99
878.269	-48.64
878.442	29.18
878.614	25.09
878.786	68.09
878.959	31.23
879.131	-19.97
879.303	10.75
879.476	86.53
879.648	37.38
879.82	16.9
879.993	-11.78
880.165	68.09
880.337	12.8
880.509	35.33
880.681	-11.78
880.854	23.04
881.026	57.86
881.198	100.86
881.37	92.67
881.542	-11.78
881.714	2.56
881.886	6.66
882.058	27.14
882.23	-5.63
882.402	-1.54
882.574	37.38
882.746	-38.4
882.918	-28.16
883.09	61.95
883.262	37.38
883.434	0.51
883.606	23.04
883.778	-42.5
883.95	47.62
884.122	47.62
884.293	45.57
884.465	86.53
884.637	-22.02
884.809	0.51
884.98	-3.58
885.152	47.62
885.324	61.95
885.496	-11.78
885.667	70.14
885.839	-7.68
886.011	37.38
886.182	-13.82
886.354	41.47
886.525	76.29
886.697	70.14
886.869	-58.88
887.04	4.61
887.212	-19.97
887.383	-3.58
887.555	-44.54
887.726	-3.58
887.897	-24.06
888.069	35.33
888.24	14.85
888.412	41.47
888.583	16.9
888.754	43.52
888.926	6.66
889.097	16.9
889.268	-19.97
889.44	-11.78
889.611	33.28
889.782	-62.98
889.953	37.38
890.125	102.91
890.296	-24.06
890.467	16.9
890.638	-54.78
890.809	18.94
890.98	49.66
891.151	80.38
891.323	59.9
891.494	-13.82
891.665	12.8
891.836	12.8
892.007	-22.02
892.178	59.9
892.349	55.81
892.52	20.99
892.691	10.75
892.862	74.24
893.032	4.61
893.203	45.57
893.374	8.7
893.545	53.76
893.716	10.75
893.887	-5.63
894.057	29.18
894.228	84.48
894.399	-26.11
894.57	23.04
894.74	-3.58
894.911	-89.6
895.082	-34.3
895.253	-5.63
895.423	-5.63
895.594	35.33
895.764	35.33
895.935	68.09
896.106	0.51
896.276	2.56
896.447	-22.02
896.617	4.61
896.788	-17.92
896.958	43.52
897.129	18.94
897.299	68.09
897.47	33.28
897.64	53.76
897.81	31.23
897.981	27.14
898.151	51.71
898.322	-9.73
898.492	41.47
898.662	-32.26
898.832	2.56
899.003	55.81
899.173	-15.87
899.343	29.18
899.513	4.61
