Data from USB4F104151__278__14-02-25-019.txt Node

Date: Thu Mar 13 14:02:25 EDT 2025
User: louis
Spectrometer: USB4F10415
Trigger mode: 4
Integration Time (sec): 1.000000E-2
Scans to average: 1
Electric dark correction enabled: true
Nonlinearity correction enabled: false
Boxcar width: 0
XAxis mode: Wavelengths
Number of Pixels in Spectrum: 3648
>>>>>Begin Spectral Data<<<<<
178.204	-85.16
178.424	-85.16
178.644	-85.16
178.864	0.85
179.084	-72.87
179.304	-40.11
179.524	23.38
179.744	-17.58
179.964	-62.63
180.184	-5.29
180.404	-33.96
180.624	-1.19
180.844	23.38
181.064	35.67
181.283	88.92
181.503	0.85
181.723	-11.43
181.943	-58.54
182.163	41.81
182.383	31.57
182.602	35.67
182.822	23.38
183.042	35.67
183.262	47.96
183.482	-27.82
183.701	23.38
183.921	37.72
184.141	17.24
184.361	37.72
184.58	31.57
184.8	-1.19
185.02	25.43
185.239	29.52
185.459	9.05
185.679	-11.43
185.898	-5.29
186.118	-19.63
186.338	39.76
186.557	109.4
186.777	-19.63
186.997	41.81
187.216	-15.53
187.436	86.87
187.655	11.09
187.875	74.58
188.095	-60.59
188.314	4.95
188.534	47.96
188.753	37.72
188.973	23.38
189.192	17.24
189.412	19.29
189.631	4.95
189.851	-62.63
190.07	0.85
190.29	11.09
190.509	11.09
190.729	-15.53
190.948	62.29
191.168	37.72
191.387	43.86
191.607	13.14
191.826	29.52
192.045	52.05
192.265	19.29
192.484	84.82
192.704	23.38
192.923	-70.83
193.142	54.1
193.362	-68.78
193.581	23.38
193.8	19.29
194.02	117.59
194.239	21.33
194.458	25.43
194.678	19.29
194.897	13.14
195.116	45.91
195.335	13.14
195.555	29.52
195.774	-76.97
195.993	41.81
196.212	-7.34
196.432	-3.24
196.651	11.09
196.87	-1.19
197.089	45.91
197.308	-9.39
197.528	-3.24
197.747	33.62
197.966	-64.68
198.185	58.2
198.404	21.33
198.623	13.14
198.842	11.09
199.062	31.57
199.281	29.52
199.5	13.14
199.719	45.91
199.938	19.29
200.157	-50.35
200.376	-11.43
200.595	29.52
200.814	-11.43
201.033	13.14
201.252	88.92
201.471	7
201.69	-52.39
201.909	-29.87
202.128	21.33
202.347	90.96
202.566	45.91
202.785	11.09
203.004	-19.63
203.223	41.81
203.442	-70.83
203.661	33.62
203.879	0.85
204.098	37.72
204.317	62.29
204.536	15.19
204.755	-42.15
204.974	64.34
205.193	-9.39
205.411	56.15
205.63	39.76
205.849	-23.72
206.068	-42.15
206.287	-36.01
206.505	21.33
206.724	39.76
206.943	-33.96
207.162	-38.06
207.381	-15.53
207.599	-15.53
207.818	80.72
208.037	13.14
208.255	-117.93
208.474	-11.43
208.693	-27.82
208.911	15.19
209.13	-19.63
209.349	-17.58
209.567	-17.58
209.786	88.92
210.005	62.29
210.223	35.67
210.442	-23.72
210.661	-7.34
210.879	-19.63
211.098	90.96
211.316	68.44
211.535	-7.34
211.753	-31.91
211.972	-9.39
212.191	33.62
212.409	25.43
212.628	86.87
212.846	23.38
213.065	33.62
213.283	62.29
213.502	13.14
213.72	68.44
213.938	-11.43
214.157	11.09
214.375	33.62
214.594	19.29
214.812	4.95
215.031	4.95
215.249	35.67
215.467	-36.01
215.686	52.05
215.904	82.77
216.122	31.57
216.341	60.24
216.559	29.52
216.778	23.38
216.996	86.87
217.214	7
217.432	-3.24
217.651	123.73
217.869	-1.19
218.087	60.24
218.306	-70.83
218.524	-5.29
218.742	-29.87
218.96	29.52
219.179	-5.29
219.397	-66.73
219.615	4.95
219.833	-1.19
220.051	11.09
220.27	9.05
220.488	-33.96
220.706	13.14
220.924	35.67
221.142	-15.53
221.36	11.09
221.578	-5.29
221.796	-29.87
222.015	86.87
222.233	17.24
222.451	4.95
222.669	-27.82
222.887	25.43
223.105	9.05
223.323	68.44
223.541	-19.63
223.759	54.1
223.977	54.1
224.195	39.76
224.413	-11.43
224.631	54.1
224.849	-7.34
225.067	-11.43
225.285	39.76
225.503	-11.43
225.721	-58.54
225.939	74.58
226.157	19.29
226.375	52.05
226.592	-27.82
226.81	62.29
227.028	29.52
227.246	25.43
227.464	-48.3
227.682	-5.29
227.9	33.62
228.117	29.52
228.335	-42.15
228.553	-62.63
228.771	37.72
228.989	-21.67
229.206	70.48
229.424	88.92
229.642	-68.78
229.86	11.09
230.077	-27.82
230.295	60.24
230.513	35.67
230.731	56.15
230.948	-5.29
231.166	13.14
231.384	-70.83
231.601	107.35
231.819	-13.48
232.037	-27.82
232.254	-9.39
232.472	21.33
232.689	31.57
232.907	11.09
233.125	35.67
233.342	72.53
233.56	50
233.777	43.86
233.995	9.05
234.213	-3.24
234.43	-3.24
234.648	54.1
234.865	33.62
235.083	-5.29
235.3	-7.34
235.518	7
235.735	37.72
235.953	99.16
236.17	-36.01
236.388	97.11
236.605	25.43
236.822	45.91
237.04	-52.39
237.257	33.62
237.475	29.52
237.692	21.33
237.909	54.1
238.127	39.76
238.344	-40.11
238.562	15.19
238.779	-44.2
238.996	4.95
239.214	50
239.431	56.15
239.648	-50.35
239.865	86.87
240.083	23.38
240.3	52.05
240.517	-40.11
240.735	21.33
240.952	43.86
241.169	31.57
241.386	54.1
241.603	13.14
241.821	-33.96
242.038	39.76
242.255	-42.15
242.472	64.34
242.689	-33.96
242.907	76.63
243.124	4.95
243.341	72.53
243.558	25.43
243.775	29.52
243.992	-19.63
244.209	33.62
244.426	17.24
244.643	29.52
244.86	-38.06
245.078	88.92
245.295	58.2
245.512	21.33
245.729	29.52
245.946	45.91
246.163	70.48
246.38	37.72
246.597	80.72
246.814	-15.53
247.031	31.57
247.248	66.39
247.464	-42.15
247.681	-7.34
247.898	-3.24
248.115	-17.58
248.332	21.33
248.549	31.57
248.766	54.1
248.983	54.1
249.2	33.62
249.417	47.96
249.633	9.05
249.85	45.91
250.067	-29.87
250.284	93.01
250.501	11.09
250.717	-27.82
250.934	-15.53
251.151	-19.63
251.368	35.67
251.585	-11.43
251.801	29.52
252.018	54.1
252.235	-31.91
252.451	-36.01
252.668	35.67
252.885	66.39
253.102	2.9
253.318	4.95
253.535	-11.43
253.752	41.81
253.968	-7.34
254.185	19.29
254.401	41.81
254.618	68.44
254.835	62.29
255.051	-40.11
255.268	84.82
255.484	-7.34
255.701	-15.53
255.917	45.91
256.134	37.72
256.351	-19.63
256.567	-52.39
256.784	15.19
257	-5.29
257.217	0.85
257.433	47.96
257.65	-1.19
257.866	76.63
258.082	23.38
258.299	-3.24
258.515	-1.19
258.732	-1.19
258.948	17.24
259.165	19.29
259.381	-11.43
259.597	45.91
259.814	29.52
260.03	0.85
260.246	131.92
260.463	7
260.679	84.82
260.895	66.39
261.112	13.14
261.328	37.72
261.544	64.34
261.761	4.95
261.977	58.2
262.193	33.62
262.409	70.48
262.626	-19.63
262.842	11.09
263.058	15.19
263.274	62.29
263.49	62.29
263.707	50
263.923	-36.01
264.139	9.05
264.355	7
264.571	-19.63
264.787	68.44
265.004	54.1
265.22	-52.39
265.436	15.19
265.652	-17.58
265.868	-42.15
266.084	9.05
266.3	31.57
266.516	15.19
266.732	7
266.948	33.62
267.164	45.91
267.38	17.24
267.596	-5.29
267.812	-1.19
268.028	-17.58
268.244	41.81
268.46	-7.34
268.676	4.95
268.892	35.67
269.108	68.44
269.324	25.43
269.54	7
269.756	-15.53
269.972	-25.77
270.188	35.67
270.403	13.14
270.619	56.15
270.835	84.82
271.051	27.48
271.267	-76.97
271.483	54.1
271.698	35.67
271.914	90.96
272.13	97.11
272.346	45.91
272.562	25.43
272.777	62.29
272.993	-23.72
273.209	37.72
273.425	29.52
273.64	41.81
273.856	80.72
274.072	37.72
274.287	29.52
274.503	21.33
274.719	13.14
274.934	47.96
275.15	27.48
275.366	78.68
275.581	7
275.797	17.24
276.012	15.19
276.228	-3.24
276.444	-21.67
276.659	-1.19
276.875	25.43
277.09	-33.96
277.306	47.96
277.521	54.1
277.737	-17.58
277.952	11.09
278.168	99.16
278.383	62.29
278.599	0.85
278.814	66.39
279.03	23.38
279.245	41.81
279.461	68.44
279.676	68.44
279.892	15.19
280.107	50
280.322	-40.11
280.538	127.83
280.753	-44.2
280.969	-38.06
281.184	-7.34
281.399	-1.19
281.615	35.67
281.83	70.48
282.045	-17.58
282.26	-42.15
282.476	0.85
282.691	35.67
282.906	2.9
283.122	84.82
283.337	-5.29
283.552	50
283.767	-11.43
283.983	88.92
284.198	27.48
284.413	-3.24
284.628	47.96
284.843	2.9
285.058	-21.67
285.274	-31.91
285.489	19.29
285.704	31.57
285.919	60.24
286.134	-11.43
286.349	-38.06
286.564	-56.49
286.779	31.57
286.995	37.72
287.21	29.52
287.425	47.96
287.64	43.86
287.855	62.29
288.07	21.33
288.285	15.19
288.5	70.48
288.715	70.48
288.93	-38.06
289.145	72.53
289.36	-27.82
289.575	31.57
289.79	19.29
290.004	13.14
290.219	25.43
290.434	7
290.649	27.48
290.864	68.44
291.079	37.72
291.294	-9.39
291.509	-21.67
291.724	70.48
291.938	9.05
292.153	113.49
292.368	11.09
292.583	97.11
292.798	115.54
293.012	37.72
293.227	11.09
293.442	58.2
293.657	29.52
293.871	41.81
294.086	21.33
294.301	97.11
294.516	35.67
294.73	-3.24
294.945	25.43
295.16	29.52
295.374	74.58
295.589	41.81
295.804	41.81
296.018	-7.34
296.233	47.96
296.447	4.95
296.662	-79.02
296.877	70.48
297.091	74.58
297.306	47.96
297.52	45.91
297.735	80.72
297.949	-1.19
298.164	21.33
298.378	-70.83
298.593	41.81
298.807	-17.58
299.022	25.43
299.236	50
299.451	52.05
299.665	-1.19
299.88	-27.82
300.094	37.72
300.309	27.48
300.523	13.14
300.737	-40.11
300.952	31.57
301.166	27.48
301.381	25.43
301.595	41.81
301.809	19.29
302.024	33.62
302.238	39.76
302.452	74.58
302.667	35.67
302.881	95.06
303.095	56.15
303.309	23.38
303.524	52.05
303.738	-15.53
303.952	2.9
304.166	54.1
304.381	4.95
304.595	70.48
304.809	84.82
305.023	-3.24
305.237	-33.96
305.452	37.72
305.666	-48.3
305.88	62.29
306.094	47.96
306.308	43.86
306.522	64.34
306.736	-9.39
306.95	45.91
307.164	54.1
307.379	31.57
307.593	-19.63
307.807	58.2
308.021	80.72
308.235	47.96
308.449	2.9
308.663	60.24
308.877	56.15
309.091	41.81
309.305	-11.43
309.519	105.3
309.733	11.09
309.947	37.72
310.161	45.91
310.374	25.43
310.588	72.53
310.802	-11.43
311.016	64.34
311.23	0.85
311.444	-36.01
311.658	-1.19
311.872	21.33
312.085	23.38
312.299	95.06
312.513	45.91
312.727	9.05
312.941	31.57
313.154	-25.77
313.368	31.57
313.582	-17.58
313.796	-27.82
314.009	39.76
314.223	7
314.437	-19.63
314.651	50
314.864	-13.48
315.078	58.2
315.292	113.49
315.505	-40.11
315.719	-19.63
315.933	-36.01
316.146	29.52
316.36	0.85
316.573	23.38
316.787	45.91
317.001	56.15
317.214	0.85
317.428	90.96
317.641	45.91
317.855	-33.96
318.068	60.24
318.282	45.91
318.495	58.2
318.709	62.29
318.922	-1.19
319.136	54.1
319.349	54.1
319.563	68.44
319.776	15.19
319.99	-23.72
320.203	64.34
320.417	-36.01
320.63	37.72
320.843	25.43
321.057	21.33
321.27	60.24
321.483	66.39
321.697	39.76
321.91	-25.77
322.124	29.52
322.337	39.76
322.55	62.29
322.763	66.39
322.977	11.09
323.19	4.95
323.403	47.96
323.617	-3.24
323.83	39.76
324.043	25.43
324.256	117.59
324.469	-3.24
324.683	72.53
324.896	74.58
325.109	33.62
325.322	47.96
325.535	50
325.748	70.48
325.962	60.24
326.175	13.14
326.388	107.35
326.601	23.38
326.814	64.34
327.027	9.05
327.24	86.87
327.453	-42.15
327.666	47.96
327.879	68.44
328.092	39.76
328.305	62.29
328.518	9.05
328.731	-1.19
328.944	78.68
329.157	70.48
329.37	45.91
329.583	54.1
329.796	-5.29
330.009	-27.82
330.222	103.25
330.435	86.87
330.648	-25.77
330.861	-19.63
331.073	21.33
331.286	7
331.499	84.82
331.712	56.15
331.925	78.68
332.138	90.96
332.35	39.76
332.563	-42.15
332.776	-1.19
332.989	66.39
333.202	-21.67
333.414	76.63
333.627	-3.24
333.84	2.9
334.053	11.09
334.265	37.72
334.478	37.72
334.691	56.15
334.903	33.62
335.116	-19.63
335.329	60.24
335.541	58.2
335.754	15.19
335.966	21.33
336.179	-15.53
336.392	-46.25
336.604	90.96
336.817	-27.82
337.029	37.72
337.242	0.85
337.454	21.33
337.667	56.15
337.88	37.72
338.092	74.58
338.305	13.14
338.517	41.81
338.729	45.91
338.942	62.29
339.154	-38.06
339.367	21.33
339.579	99.16
339.792	17.24
340.004	82.77
340.217	-3.24
340.429	58.2
340.641	76.63
340.854	19.29
341.066	37.72
341.278	25.43
341.491	-3.24
341.703	76.63
341.915	21.33
342.128	60.24
342.34	50
342.552	103.25
342.764	9.05
342.977	-27.82
343.189	62.29
343.401	39.76
343.613	-42.15
343.826	45.91
344.038	31.57
344.25	17.24
344.462	0.85
344.674	11.09
344.886	29.52
345.099	37.72
345.311	54.1
345.523	25.43
345.735	0.85
345.947	31.57
346.159	15.19
346.371	21.33
346.583	-3.24
346.795	103.25
347.007	29.52
347.219	62.29
347.431	41.81
347.643	-3.24
347.855	78.68
348.067	95.06
348.279	31.57
348.491	41.81
348.703	7
348.915	-11.43
349.127	52.05
349.339	-31.91
349.551	0.85
349.763	37.72
349.975	0.85
350.187	39.76
350.399	7
350.61	-3.24
350.822	64.34
351.034	29.52
351.246	-5.29
351.458	41.81
351.669	2.9
351.881	17.24
352.093	27.48
352.305	82.77
352.517	-19.63
352.728	54.1
352.94	35.67
353.152	4.95
353.363	-38.06
353.575	70.48
353.787	17.24
353.999	47.96
354.21	-29.87
354.422	9.05
354.633	-17.58
354.845	13.14
355.057	23.38
355.268	29.52
355.48	58.2
355.692	33.62
355.903	-1.19
356.115	62.29
356.326	21.33
356.538	-9.39
356.749	-1.19
356.961	93.01
357.172	15.19
357.384	86.87
357.595	50
357.807	-19.63
358.018	54.1
358.23	9.05
358.441	41.81
358.653	45.91
358.864	39.76
359.075	95.06
359.287	-17.58
359.498	-3.24
359.709	-5.29
359.921	2.9
360.132	-42.15
360.344	80.72
360.555	-38.06
360.766	56.15
360.977	-5.29
361.189	88.92
361.4	31.57
361.611	80.72
361.823	2.9
362.034	66.39
362.245	74.58
362.456	-7.34
362.667	50
362.879	-44.2
363.09	64.34
363.301	9.05
363.512	-17.58
363.723	74.58
363.935	78.68
364.146	72.53
364.357	33.62
364.568	86.87
364.779	62.29
364.99	150.36
365.201	23.38
365.412	103.25
365.623	7
365.834	-7.34
366.045	21.33
366.256	-48.3
366.467	127.83
366.678	21.33
366.889	-48.3
367.1	-66.73
367.311	39.76
367.522	13.14
367.733	72.53
367.944	35.67
368.155	47.96
368.366	41.81
368.577	35.67
368.788	54.1
368.999	54.1
369.209	54.1
369.42	78.68
369.631	62.29
369.842	39.76
370.053	107.35
370.264	37.72
370.474	60.24
370.685	27.48
370.896	62.29
371.107	66.39
371.317	39.76
371.528	-7.34
371.739	-15.53
371.95	-11.43
372.16	119.64
372.371	-17.58
372.582	47.96
372.792	58.2
373.003	2.9
373.214	64.34
373.424	21.33
373.635	60.24
373.846	31.57
374.056	21.33
374.267	31.57
374.477	15.19
374.688	23.38
374.898	35.67
375.109	70.48
375.319	31.57
375.53	47.96
375.74	86.87
375.951	35.67
376.161	-1.19
376.372	103.25
376.582	70.48
376.793	52.05
377.003	74.58
377.214	99.16
377.424	74.58
377.635	54.1
377.845	13.14
378.055	74.58
378.266	17.24
378.476	0.85
378.686	45.91
378.897	37.72
379.107	58.2
379.317	54.1
379.528	70.48
379.738	-15.53
379.948	50
380.158	78.68
380.369	-1.19
380.579	25.43
380.789	11.09
380.999	121.68
381.21	11.09
381.42	70.48
381.63	66.39
381.84	39.76
382.05	64.34
382.261	78.68
382.471	23.38
382.681	21.33
382.891	64.34
383.101	13.14
383.311	17.24
383.521	97.11
383.731	33.62
383.941	39.76
384.151	-7.34
384.361	144.21
384.571	11.09
384.781	41.81
384.991	33.62
385.201	37.72
385.411	33.62
385.621	58.2
385.831	-36.01
386.041	-5.29
386.251	35.67
386.461	66.39
386.671	4.95
386.881	60.24
387.091	25.43
387.301	95.06
387.511	39.76
387.72	15.19
387.93	50
388.14	15.19
388.35	109.4
388.56	56.15
388.769	21.33
388.979	-7.34
389.189	39.76
389.399	64.34
389.609	-17.58
389.818	47.96
390.028	7
390.238	72.53
390.447	13.14
390.657	58.2
390.867	29.52
391.076	19.29
391.286	21.33
391.496	68.44
391.705	25.43
391.915	84.82
392.125	39.76
392.334	74.58
392.544	15.19
392.753	78.68
392.963	93.01
393.172	25.43
393.382	35.67
393.591	113.49
393.801	78.68
394.01	47.96
394.22	27.48
394.429	58.2
394.639	74.58
394.848	45.91
395.058	62.29
395.267	31.57
395.477	80.72
395.686	70.48
395.895	95.06
396.105	113.49
396.314	76.63
396.524	62.29
396.733	86.87
396.942	115.54
397.152	64.34
397.361	-27.82
397.57	97.11
397.78	25.43
397.989	54.1
398.198	78.68
398.407	103.25
398.617	74.58
398.826	115.54
399.035	66.39
399.244	13.14
399.453	58.2
399.663	11.09
399.872	129.88
400.081	101.2
400.29	88.92
400.499	37.72
400.708	88.92
400.917	109.4
401.127	86.87
401.336	117.59
401.545	64.34
401.754	80.72
401.963	90.96
402.172	76.63
402.381	131.92
402.59	101.2
402.799	95.06
403.008	174.93
403.217	127.83
403.426	90.96
403.635	152.4
403.844	166.74
404.053	154.45
404.262	111.44
404.471	185.17
404.68	107.35
404.888	117.59
405.097	140.12
405.306	115.54
405.515	193.36
405.724	191.31
405.933	82.77
406.142	162.64
406.35	179.03
406.559	144.21
406.768	191.31
406.977	172.88
407.185	201.55
407.394	129.88
407.603	160.59
407.812	119.64
408.02	127.83
408.229	244.56
408.438	238.42
408.646	250.71
408.855	201.55
409.064	185.17
409.272	213.84
409.481	234.32
409.69	258.9
409.898	248.66
410.107	258.9
410.315	303.95
410.524	256.85
410.733	355.15
410.941	293.71
411.15	357.2
411.358	308.05
411.567	351.06
411.775	371.54
411.984	324.43
412.192	281.43
412.401	373.58
412.609	435.02
412.818	338.77
413.026	418.64
413.234	432.97
413.443	420.69
413.651	402.26
413.86	455.5
414.068	439.12
414.276	506.7
414.485	490.32
414.693	545.61
414.901	598.86
415.11	674.64
415.318	533.33
415.526	605
415.734	736.07
415.943	615.24
416.151	662.35
416.359	688.97
416.567	670.54
416.776	705.35
416.984	783.18
417.192	834.38
417.4	820.04
417.608	801.61
417.817	848.71
418.025	996.17
418.233	885.58
418.441	885.58
418.649	897.86
418.857	1041.22
419.065	1139.52
419.273	1094.47
419.481	1127.24
419.689	1223.49
419.897	1254.21
420.105	1200.96
420.313	1387.33
420.521	1387.33
420.729	1358.66
420.937	1399.62
421.145	1450.82
421.353	1459.01
421.561	1637.18
421.769	1665.85
421.977	1669.95
422.185	1725.24
422.393	1788.73
422.601	1815.35
422.809	1880.89
423.017	1997.62
423.224	2112.31
423.432	2069.3
423.64	2085.69
423.848	2204.47
424.056	2181.94
424.263	2417.46
424.471	2372.4
424.679	2390.83
424.887	2571.05
425.094	2620.21
425.302	2685.74
425.51	2722.6
425.718	2794.28
425.925	2765.61
426.133	3085.09
426.341	3109.67
426.548	3158.82
426.756	3193.64
426.964	3279.65
427.171	3515.17
427.379	3506.98
427.586	3717.92
427.794	3848.99
428.001	3994.39
428.209	4039.45
428.417	4031.26
428.624	4377.36
428.832	4338.45
429.039	4293.4
429.247	4258.58
429.454	4616.97
429.662	5022.47
429.869	4655.89
430.076	4864.78
430.284	5049.1
430.491	5061.38
430.699	5481.22
430.906	5544.7
431.114	5622.53
431.321	5550.85
431.528	5765.89
431.736	6187.77
431.943	6380.28
432.15	6130.42
432.358	6163.19
432.565	6619.89
432.772	6470.39
432.979	6972.14
433.187	6863.6
433.394	6920.94
433.601	7676.64
433.808	7607.01
434.016	7555.81
434.223	7729.89
434.43	8145.63
434.637	8084.19
434.844	8698.58
435.052	8807.12
435.259	8674
435.466	8721.1
435.673	8819.41
435.88	9263.82
436.087	9734.85
436.294	9978.56
436.501	9712.32
436.708	9665.22
436.915	10148.54
437.122	10384.05
437.329	10554.04
437.537	10971.82
437.743	11006.64
437.95	10934.96
438.157	11557.54
438.364	11809.44
438.571	11834.02
438.778	12016.29
438.985	12966.54
439.192	12499.61
439.399	13003.41
439.606	12546.71
439.813	13296.27
440.02	14115.45
440.227	13783.68
440.433	13963.9
440.64	14256.76
440.847	14283.39
441.054	14568.06
441.261	15645.29
441.467	15096.43
441.674	15731.3
441.881	16040.54
442.088	16362.08
442.294	15825.51
442.501	16376.41
442.708	16550.49
442.914	17203.79
443.121	18051.65
443.328	17474.12
443.534	18764.34
443.741	18291.26
443.948	17975.88
444.154	19382.83
444.361	19178.03
444.568	19388.97
444.774	19272.24
444.981	19411.5
445.187	20161.06
445.394	21172.75
445.6	20828.7
445.807	22905.34
446.013	21789.19
446.22	22151.68
446.426	23040.5
446.633	23343.6
446.839	23957.99
447.046	23282.16
447.252	24424.93
447.459	24328.67
447.665	24211.94
447.871	25383.38
448.078	26526.14
448.284	24934.87
448.491	25747.92
448.697	26767.8
448.903	27331
449.11	27425.2
449.316	27232.69
449.522	27363.76
449.728	28264.87
449.935	28289.45
450.141	28168.62
450.347	29110.68
450.553	28004.78
450.76	28426.66
450.966	29335.96
451.172	29061.53
451.378	30114.19
451.584	28959.13
451.791	29784.46
451.997	29616.53
452.203	30710.14
452.409	30343.56
452.615	30120.33
452.821	29071.77
453.027	28426.66
453.233	30409.09
453.44	28842.4
453.646	29587.86
453.852	29448.6
454.058	30056.84
454.264	29036.95
454.47	29448.6
454.676	28688.8
454.882	29878.67
455.088	27306.42
455.294	27728.3
455.5	28066.22
455.705	28692.9
455.911	27285.94
456.117	26708.41
456.323	25985.48
456.529	24723.93
456.735	26116.55
456.941	25235.92
457.147	24981.98
457.352	24300
457.558	24123.88
457.764	24285.67
457.97	23482.86
458.176	23380.46
458.381	22972.92
458.587	22065.67
458.793	22209.03
458.999	20767.26
459.204	22407.68
459.41	21525
459.616	20208.16
459.821	20263.46
460.027	20140.58
460.233	19915.3
460.438	19055.15
460.644	19067.44
460.85	18262.59
461.055	18098.75
461.261	17744.45
461.466	16650.84
461.672	16120.42
461.878	17062.48
462.083	15841.89
462.289	15989.35
462.494	15725.16
462.7	15069.81
462.905	14697.08
463.111	15039.09
463.316	15045.23
463.522	14502.52
463.727	14666.36
463.932	14770.8
464.138	14514.81
464.343	14676.6
464.549	14310.01
464.754	14508.66
464.959	14502.52
465.165	14561.91
465.37	13935.23
465.575	13599.37
465.781	14119.55
465.986	14097.02
466.191	13662.85
466.397	13283.98
466.602	12645.01
466.807	13077.13
467.012	13271.69
467.218	13034.13
467.423	12814.99
467.628	13085.33
467.833	13505.16
468.038	12874.38
468.244	12669.59
468.449	13070.99
468.654	12612.24
468.859	12667.54
469.064	12472.98
469.269	12182.17
469.474	12214.94
469.679	12384.92
469.885	11940.51
470.09	12235.42
470.295	11895.46
470.5	11956.89
470.705	11956.89
470.91	11858.59
471.115	11530.92
471.32	11465.38
471.525	11750.05
471.73	11207.34
471.935	11121.32
472.139	10801.84
472.344	11176.62
472.549	10984.11
472.754	10816.18
472.959	10627.76
473.164	10386.1
473.369	10445.49
473.574	10517.17
473.778	10769.07
473.983	10445.49
474.188	10312.38
474.393	10068.67
474.598	10072.76
474.802	9999.04
475.007	9941.69
475.212	9917.12
475.417	9509.57
475.621	9380.55
475.826	9396.93
476.031	9265.86
476.235	9007.82
476.44	9327.3
476.645	9073.35
476.849	9159.37
477.054	8993.48
477.259	9075.4
477.463	8878.8
477.668	8526.55
477.872	8790.74
478.077	8671.95
478.282	8440.53
478.486	8483.54
478.691	8159.96
478.895	8352.47
479.1	8164.06
479.304	8303.32
479.509	8032.99
479.713	8252.12
479.918	8002.27
480.122	7912.16
480.326	7844.57
480.531	8010.46
480.735	7893.72
480.94	7658.21
481.144	8129.24
481.348	7695.07
481.553	7721.7
481.757	7641.82
481.961	7652.06
482.166	7697.12
482.37	7717.6
482.574	7531.23
482.778	7580.39
482.983	7918.3
483.187	7574.24
483.391	7639.78
483.595	7437.03
483.8	7516.9
484.004	7623.39
484.208	7727.84
484.412	7531.23
484.616	7707.36
484.821	7707.36
485.025	7369.44
485.229	7680.74
485.433	7609.06
485.637	7656.16
485.841	7564
486.045	7598.82
486.249	7551.71
486.453	7645.92
486.657	7693.02
486.861	7592.67
487.065	7332.58
487.269	7609.06
487.473	7545.57
487.677	7709.41
487.881	7660.26
488.085	7629.54
488.289	7514.85
488.493	7514.85
488.697	7879.39
488.901	7477.99
489.105	7484.13
489.309	7625.44
489.512	7631.58
489.716	7766.75
489.92	7514.85
490.124	7609.06
490.328	7820
490.531	7668.45
490.735	7820
490.939	7820
491.143	7768.8
491.346	7633.63
491.55	7895.77
491.754	7875.29
491.958	7973.6
492.161	7977.69
492.365	8024.79
492.569	8123.1
492.772	7977.69
492.976	8035.03
493.18	8207.06
493.383	8379.09
493.587	8254.17
493.79	8481.49
493.994	8258.26
494.197	8456.92
494.401	8471.25
494.605	8397.53
494.808	8471.25
495.012	8606.42
495.215	8491.73
495.419	8680.14
495.622	8729.3
495.825	8784.59
496.029	8911.57
496.232	9200.33
496.436	9091.79
496.639	9265.86
496.843	9319.11
497.046	9360.07
497.249	9482.95
497.453	9552.58
497.656	9691.84
497.859	9683.65
498.063	9599.68
498.266	10093.24
498.469	10015.42
498.673	10015.42
498.876	10222.27
499.079	10240.7
499.282	10410.68
499.485	10742.45
499.689	10672.82
499.892	10732.21
500.095	10904.24
500.298	11094.7
500.501	11066.03
500.705	11350.7
500.908	11483.81
501.111	11696.8
501.314	11700.9
501.517	11684.52
501.72	11799.2
501.923	11791.01
502.126	12227.23
502.329	12186.27
502.532	12520.09
502.735	12685.97
502.938	12878.48
503.141	12733.08
503.344	13249.16
503.547	13046.41
503.75	13517.45
503.953	13552.26
504.156	13523.59
504.359	13535.88
504.562	14191.23
504.765	14193.28
504.968	14408.31
505.17	14766.71
505.373	14484.09
505.576	14658.17
505.779	15131.25
505.982	15174.25
506.185	15422.06
506.387	15510.12
506.59	15530.6
506.793	15966.82
506.996	15925.86
507.198	16507.48
507.401	16302.68
507.604	16497.24
507.807	16829.01
508.009	17027.67
508.212	17236.56
508.415	17566.28
508.617	17580.62
508.82	17717.83
509.022	17701.45
509.225	18094.66
509.428	18520.63
509.63	18618.94
509.833	18715.19
510.035	19249.71
510.238	19251.76
510.44	19356.21
510.643	19675.69
510.845	19819.05
511.048	20007.46
511.25	20294.18
511.453	20257.31
511.655	21275.15
511.858	20814.36
512.06	21142.03
512.262	21488.14
512.465	21520.91
512.667	21781
512.87	22299.14
513.072	22071.81
513.274	22616.57
513.477	22532.61
513.679	22835.7
513.881	23065.08
514.084	23452.14
514.286	23808.49
514.488	23650.8
514.69	24594.91
514.893	24422.88
515.095	24453.6
515.297	24766.94
515.499	25170.39
515.701	25254.36
515.904	26139.08
516.106	25979.34
516.308	26231.24
516.51	26892.73
516.712	27050.42
516.914	27171.25
517.116	27783.6
517.318	27513.27
517.52	28070.31
517.722	28117.42
517.925	28234.15
518.127	28711.33
518.329	29137.3
518.531	29026.71
518.733	29694.35
518.935	29907.34
519.136	30189.96
519.338	30529.92
519.54	30890.37
519.742	30632.32
519.944	31134.07
520.146	31252.86
520.348	31709.55
520.55	32246.12
520.752	31998.32
520.954	33323.35
521.155	32760.16
521.357	33317.21
521.559	33671.51
521.761	34097.49
521.963	33939.79
522.164	33997.13
522.366	34326.86
522.568	34629.96
522.77	34840.9
522.971	35555.64
523.173	35363.13
523.375	35471.67
523.576	35762.48
523.778	35594.55
523.98	36358.44
524.181	36307.24
524.383	36270.38
524.584	37167.39
524.786	36882.72
524.988	36960.55
525.189	37980.43
525.391	37773.59
525.592	38097.17
525.794	38353.16
525.995	38041.87
526.197	38451.47
526.398	38127.89
526.6	38791.43
526.801	38863.11
527.003	39061.76
527.204	39053.57
527.406	39457.02
527.607	39588.09
527.808	39768.31
528.01	39592.19
528.211	39799.03
528.412	40300.78
528.614	40593.64
528.815	40204.53
529.016	40687.85
529.218	40587.5
529.419	40567.02
529.62	40501.48
529.822	40780.01
530.023	40714.47
530.224	41005.28
530.425	40923.36
530.626	40427.76
530.828	40919.27
531.029	41945.3
531.23	41076.96
531.431	41038.05
531.632	41140.45
531.833	41914.58
532.035	41617.63
532.236	41736.41
532.437	41781.46
532.638	41806.04
532.839	41732.31
533.04	41930.97
533.241	41871.57
533.442	42283.22
533.643	41803.99
533.844	41863.38
534.045	42219.73
534.246	41722.07
534.447	42162.39
534.648	42070.23
534.849	41705.69
535.05	41760.98
535.251	42166.48
535.451	42506.44
535.652	42326.22
535.853	42051.8
536.054	42330.32
536.255	42608.84
536.456	41930.97
536.657	42365.13
536.857	42115.28
537.058	41726.17
537.259	42641.61
537.46	42590.41
537.66	42348.75
537.861	42541.26
538.062	41980.12
538.263	42619.08
538.463	42168.53
538.664	42287.31
538.865	42617.04
539.065	42942.66
539.266	41756.89
539.466	42266.83
539.667	41670.87
539.868	42543.31
540.068	42533.07
540.269	42217.68
540.469	42395.85
540.67	42270.93
540.87	42225.87
541.071	42152.15
541.271	42762.44
541.472	42367.18
541.672	42340.56
541.873	41935.06
542.073	41840.85
542.274	42735.82
542.474	42029.27
542.675	41834.71
542.875	42535.12
543.075	42326.22
543.276	41392.35
543.476	42664.14
543.676	42023.12
543.877	42150.1
544.077	42160.34
544.277	42107.09
544.478	42135.76
544.678	42275.02
544.878	42430.67
545.078	42371.28
545.279	42250.45
545.479	41992.4
545.679	42236.11
545.879	41820.38
546.079	42180.82
546.28	42344.66
546.48	41978.07
546.68	41939.16
546.88	42174.67
547.08	41984.21
547.28	41928.92
547.48	42172.63
547.68	41593.05
547.88	41302.24
548.081	42213.59
548.281	41920.73
548.481	42088.66
548.681	42371.28
548.881	41922.77
549.081	42047.7
549.28	42307.79
549.48	42113.23
549.68	41978.07
549.88	42586.32
550.08	41855.19
550.28	42420.43
550.48	41548
550.68	42270.93
550.88	41773.27
551.08	41900.25
551.279	41976.02
551.479	41939.16
551.679	41611.48
551.879	41760.98
552.079	42258.64
552.278	41828.57
552.478	42199.25
552.678	41853.14
552.878	41695.45
553.077	41957.59
553.277	41177.31
553.477	42143.95
553.676	41509.08
553.876	41500.89
554.076	41775.32
554.275	41441.5
554.475	41220.32
554.674	41695.45
554.874	41494.75
555.074	41375.97
555.273	41371.87
555.473	41713.88
555.672	41853.14
555.872	41056.48
556.071	41586.91
556.271	41623.77
556.47	41134.31
556.67	40730.86
556.869	40954.08
557.068	41281.76
557.268	40567.02
557.467	40786.15
557.667	40939.75
557.866	40788.2
558.065	40728.81
558.265	40425.71
558.464	40511.72
558.663	41232.61
558.863	40130.8
559.062	41027.81
559.261	40216.82
559.461	40653.03
559.66	39827.7
559.859	40458.48
560.058	40065.27
560.258	40134.9
560.457	39555.32
560.656	40605.93
560.855	40530.15
561.054	40247.54
561.253	39956.72
561.453	40145.14
561.652	40134.9
561.851	40067.31
562.05	39964.92
562.249	39655.67
562.448	39778.55
562.647	39643.38
562.846	39702.78
563.045	39465.21
563.244	39198.98
563.443	39280.89
563.642	39293.18
563.841	39702.78
564.04	39262.46
564.239	39432.44
564.438	38689.03
564.637	39031.04
564.836	39022.85
565.035	38635.78
565.234	39151.87
565.432	38674.7
565.631	38344.97
565.83	39147.78
566.029	38445.32
566.228	38541.58
566.427	38453.51
566.625	38084.88
566.824	37947.67
567.023	38455.56
567.222	37650.71
567.42	38521.1
567.619	37828.88
567.818	37875.99
568.016	37433.63
568.215	38121.74
568.414	37628.18
568.612	37959.95
568.811	37259.55
569.01	37427.48
569.208	36620.58
569.407	37234.97
569.605	36682.02
569.804	37366.04
570.002	36616.49
570.201	36774.18
570.4	36589.86
570.598	36428.07
570.797	36397.35
570.995	36706.6
571.193	35930.42
571.392	36415.79
571.59	35875.12
571.789	36340.01
571.987	36135.21
572.186	35936.56
572.384	35746.1
572.582	35815.73
572.781	35803.44
572.979	35504.44
573.177	35551.54
573.376	35252.54
573.574	34949.44
573.772	35057.98
573.971	35193.15
574.169	34869.57
574.367	34556.23
574.565	35150.14
574.763	34621.77
574.962	34629.96
575.16	34570.57
575.358	34560.33
575.556	33964.37
575.754	34457.93
575.952	33886.54
576.151	34206.03
576.349	33624.4
576.547	33567.06
576.745	33599.83
576.943	33616.21
577.141	33919.31
577.339	33347.93
577.537	33395.03
577.735	33552.73
577.933	33124.7
578.131	33268.06
578.329	33143.13
578.527	32686.43
578.725	32729.44
578.923	33079.64
579.121	32842.08
579.319	32493.93
579.516	32690.53
579.714	32637.28
579.912	32049.52
580.11	32338.28
580.308	31981.93
580.506	32274.79
580.704	31594.87
580.901	31730.03
581.099	31979.89
581.297	31584.63
581.495	31766.9
581.692	31664.5
581.89	31242.62
582.088	31713.65
582.285	31388.02
582.483	31285.62
582.681	31123.83
582.878	31037.82
583.076	30626.18
583.274	31074.68
583.471	30654.85
583.669	30845.31
583.866	31027.58
584.064	30660.99
584.262	30366.09
584.459	30448
584.657	30128.52
584.854	30341.51
585.052	29507.99
585.249	29827.47
585.447	29868.43
585.644	29622.67
585.841	29778.32
586.039	29417.88
586.236	29469.08
586.434	29483.41
586.631	29184.41
586.828	29501.84
587.026	29024.67
587.223	29223.32
587.42	29286.81
587.618	28961.18
587.815	28926.36
588.012	28656.03
588.21	28637.6
588.407	28809.63
588.604	28412.32
588.801	28060.07
588.999	28406.18
589.196	28058.03
589.393	28281.25
589.59	28228.01
589.787	27896.24
589.984	27722.16
590.182	27535.79
590.379	27886
590.576	27341.24
590.773	27519.41
590.97	27357.62
591.167	27339.19
591.364	27120.06
591.561	27525.55
591.758	27386.29
591.955	27064.76
592.152	27308.47
592.349	27109.82
592.546	26986.94
592.743	26819
592.94	26632.64
593.137	26857.92
593.334	26708.41
593.531	26280.39
593.727	26257.86
593.924	26376.64
594.121	25956.81
594.318	26350.02
594.515	26038.73
594.712	26550.72
594.908	25883.08
595.105	25891.27
595.302	25872.84
595.499	25844.17
595.696	25645.52
595.892	25430.48
596.089	25807.31
596.286	25438.67
596.482	25457.1
596.679	25485.78
596.876	25455.06
597.072	25076.18
597.269	25168.34
597.466	24852.95
597.662	24750.56
597.859	24885.72
598.055	24977.88
598.252	24926.68
598.448	24627.68
598.645	24443.36
598.841	24418.78
599.038	24553.95
599.234	24168.93
599.431	24318.43
599.627	24269.28
599.824	24158.69
600.02	24031.72
600.217	23988.71
600.413	23855.59
600.609	23867.88
600.806	23548.4
601.002	23763.43
601.198	23845.35
601.395	23968.23
601.591	23423.47
601.787	23511.53
601.984	23181.81
602.18	23286.26
602.376	23255.54
602.572	23009.78
602.769	23280.11
602.965	22860.28
603.161	23042.55
603.357	23003.64
603.553	22852.09
603.75	22927.86
603.946	22688.25
604.142	22579.71
604.338	22397.44
604.534	22538.75
604.73	22086.15
604.926	22239.75
605.122	22321.66
605.318	22026.76
605.514	21813.77
605.71	21715.47
605.906	21903.88
606.102	21936.65
606.298	21537.29
606.494	21881.35
606.69	21598.73
606.886	21815.82
607.082	21176.85
607.278	21545.48
607.474	21219.86
607.67	21533.2
607.866	20863.51
608.062	21428.75
608.257	21305.87
608.453	21072.4
608.649	20945.43
608.845	20965.91
609.041	20822.55
609.236	21025.3
609.432	20814.36
609.628	20824.6
609.824	20697.63
610.019	20564.51
610.215	20773.4
610.411	20402.72
610.606	20509.21
610.802	20724.25
610.998	20445.73
611.193	20167.2
611.389	20425.25
611.584	19999.27
611.78	20021.8
611.976	20081.19
612.171	20120.1
612.367	19819.05
612.562	19665.45
612.758	19364.4
612.953	19855.91
613.149	19980.84
613.344	19724.84
613.539	20011.56
613.735	19644.97
613.93	19700.26
614.126	19417.65
614.321	19642.92
614.517	19262
614.712	19573.29
614.907	19298.86
615.103	19591.72
615.298	19317.29
615.493	19524.14
615.688	18965.04
615.884	19413.55
616.079	18788.92
616.274	19038.77
616.47	18981.43
616.665	19069.49
616.86	19008.05
617.055	18768.44
617.25	18917.94
617.445	18901.56
617.641	18393.66
617.836	18625.08
618.031	18256.45
618.226	18496.06
618.421	18135.62
618.616	18588.22
618.811	17965.64
619.006	18438.72
619.201	17775.17
619.396	18100.8
619.591	18070.08
619.786	17904.2
619.981	17793.61
620.176	17953.35
620.371	17529.42
620.566	17566.28
620.761	17463.88
620.956	17515.08
621.151	17263.18
621.346	17678.92
621.541	16980.56
621.735	17357.39
621.93	16806.48
622.125	16613.98
622.32	16792.15
622.515	16939.6
622.709	16405.08
622.904	16814.68
623.099	16247.39
623.294	16491.1
623.488	16378.46
623.683	16540.25
623.878	16130.66
624.072	16196.19
624.267	16099.94
624.462	15854.18
624.656	15923.81
624.851	15841.89
625.046	15667.81
625.24	15403.63
625.435	15432.3
625.629	15458.92
625.824	15397.48
626.018	15465.07
626.213	15000.18
626.407	15293.04
626.602	14756.47
626.796	14936.69
626.991	14914.16
627.185	14668.41
627.38	14735.99
627.574	14533.24
627.768	14535.29
627.963	14344.83
628.157	14459.51
628.352	14348.92
628.546	14168.7
628.74	14406.27
628.935	14191.23
629.129	14140.03
629.323	13775.49
629.517	13783.68
629.712	13691.52
629.906	13640.33
630.1	13505.16
630.294	13437.58
630.489	13466.25
630.683	13423.24
630.877	13431.43
631.071	13259.4
631.265	13320.84
631.459	12894.86
631.653	13042.32
631.848	13179.53
632.042	13167.24
632.236	13052.56
632.43	12704.4
632.624	12944.02
632.818	12552.85
633.012	12645.01
633.206	12571.29
633.4	12479.13
633.594	12470.94
633.788	12380.82
633.982	12202.65
634.176	12190.36
634.369	12243.61
634.563	12241.56
634.757	12028.57
634.951	12122.78
635.145	11827.87
635.339	11727.52
635.533	11950.75
635.726	11741.86
635.92	11586.21
636.114	11745.95
636.308	11350.7
636.501	11457.19
636.695	11492.01
636.889	11350.7
637.083	11217.58
637.276	11160.24
637.47	11197.1
637.664	11264.68
637.857	10832.56
638.051	11195.05
638.244	10681.01
638.438	10863.28
638.632	10779.31
638.825	10701.49
639.019	10459.83
639.212	10633.91
639.406	10414.77
639.599	10582.71
639.793	10527.41
639.986	10357.43
640.18	10205.88
640.373	10412.73
640.567	10283.7
640.76	10027.71
640.954	10052.28
641.147	10109.63
641.34	9908.93
641.534	9953.98
641.727	9790.14
641.92	9884.35
642.114	9757.38
642.307	9755.33
642.5	9695.94
642.694	9599.68
642.887	9550.53
643.08	9730.75
643.273	9427.65
643.467	9212.62
643.66	9362.12
643.853	9269.96
644.046	9202.38
644.239	9038.54
644.432	9081.55
644.626	9001.68
644.819	9124.55
645.012	8999.63
645.205	9114.31
645.398	8901.33
645.591	8770.26
645.784	8837.84
645.977	8420.05
646.17	8583.89
646.363	8573.65
646.556	8489.68
646.749	8370.9
646.942	8516.31
647.135	8454.87
647.328	8393.43
647.521	8157.91
647.714	7903.96
647.907	8334.04
648.099	8303.32
648.292	8125.15
648.485	8086.23
648.678	8114.91
648.871	7920.35
649.064	7908.06
649.256	7854.81
649.449	7854.81
649.642	7801.57
649.835	7693.02
650.027	7748.32
650.22	7645.92
650.413	7568.1
650.605	7660.26
650.798	7414.5
650.991	7371.49
651.183	7455.46
651.376	7242.47
651.568	7338.73
651.761	7351.01
651.954	7340.77
652.146	7291.62
652.339	7109.35
652.531	7062.25
652.724	7197.42
652.916	6963.95
653.109	7084.78
653.301	7070.44
653.494	6959.85
653.686	6918.89
653.879	6839.02
654.071	6722.29
654.263	6771.44
654.456	6804.21
654.648	6787.82
654.84	6566.64
655.033	6609.65
655.225	6773.49
655.417	6441.72
655.61	6513.39
655.802	6456.05
655.994	6456.05
656.186	6533.87
656.379	6267.64
656.571	6435.57
656.763	6187.77
656.955	6165.24
657.148	6290.17
657.34	6288.12
657.532	5939.96
657.724	5954.3
657.916	6105.85
658.108	5890.81
658.3	6095.61
658.492	5870.33
658.684	5978.87
658.876	5749.5
659.068	5946.11
659.26	5780.22
659.452	5714.69
659.644	5636.86
659.836	5794.56
660.028	5749.5
660.22	5434.11
660.412	5552.9
660.604	5628.67
660.796	5419.78
660.988	5432.07
661.18	5354.24
661.372	5442.31
661.563	5280.52
661.755	5313.28
661.947	5348.1
662.139	5151.49
662.331	5219.08
662.522	5323.52
662.714	5231.37
662.906	5110.54
663.097	5112.58
663.289	5239.56
663.481	5133.06
663.673	5096.2
663.864	4838.16
664.056	4719.37
664.247	4834.06
664.439	4789
664.631	4881.16
664.822	4870.92
665.014	4840.2
665.205	4707.09
665.397	4866.83
665.588	4662.03
665.78	4662.03
665.971	4690.7
666.163	4760.33
666.354	4666.13
666.546	4672.27
666.737	4449.04
666.929	4610.83
667.12	4492.05
667.311	4487.95
667.503	4449.04
667.694	4553.49
667.885	4416.27
668.077	4403.99
668.268	4506.38
668.459	4354.83
668.651	4381.46
668.842	4295.44
669.033	4203.29
669.224	4211.48
669.416	4344.6
669.607	4322.07
669.798	4186.9
669.989	4256.53
670.18	4184.85
670.371	4211.48
670.563	4104.98
670.754	4184.85
670.945	4021.02
671.136	4031.26
671.327	4055.83
671.518	3953.43
671.709	3920.67
671.9	4061.98
672.091	3894.04
672.282	3840.79
672.473	3943.19
672.664	3883.8
672.855	3826.46
673.046	3830.55
673.237	3754.78
673.428	3855.13
673.619	3724.06
673.809	3812.12
674	3758.88
674.191	3783.45
674.382	3732.25
674.573	3732.25
674.764	3742.49
674.954	3681.05
675.145	3683.1
675.336	3734.3
675.527	3652.38
675.717	3797.79
675.908	3633.95
676.099	3795.74
676.289	3623.71
676.48	3719.96
676.671	3722.01
676.861	3511.07
677.052	3603.23
677.243	3515.17
677.433	3549.98
677.624	3679.01
677.814	3504.93
678.005	3455.78
678.195	3572.51
678.386	3466.02
678.576	3482.4
678.767	3466.02
678.957	3457.82
679.148	3486.5
679.338	3306.27
679.529	3531.55
679.719	3423.01
679.909	3486.5
680.1	3380
680.29	3330.85
680.481	3406.63
680.671	3308.32
680.861	3398.43
681.052	3349.28
681.242	3474.21
681.432	3361.57
681.622	3302.18
681.813	3293.99
682.003	3449.63
682.193	3382.05
682.383	3336.99
682.573	3431.2
682.764	3324.71
682.954	3347.23
683.144	3296.04
683.334	3298.08
683.524	3322.66
683.714	3113.77
683.904	3312.42
684.094	3343.14
684.284	3336.99
684.474	3257.12
684.664	3240.74
684.854	3195.68
685.044	3099.43
685.234	3019.56
685.424	3140.39
685.614	3142.44
685.804	3189.54
685.994	3152.68
686.184	3218.21
686.374	3146.53
686.564	3175.2
686.753	3150.63
686.943	3115.81
687.133	2951.98
687.323	3066.66
687.513	3164.97
687.702	3095.33
687.892	3031.85
688.082	3093.29
688.272	3056.42
688.461	3070.76
688.651	3070.76
688.841	3060.52
689.03	2943.78
689.22	3062.57
689.41	3107.62
689.599	3052.33
689.789	3242.79
689.979	2970.41
690.168	2915.11
690.358	3064.61
690.547	3031.85
690.737	3005.22
690.926	3105.57
691.116	3052.33
691.305	3046.18
691.495	3048.23
691.684	2882.35
691.874	3050.28
692.063	2882.35
692.252	2954.02
692.442	2917.16
692.631	2986.79
692.82	3011.37
693.01	2896.68
693.199	2921.26
693.388	2888.49
693.578	2868.01
693.767	2890.54
693.956	2994.98
694.146	2947.88
694.335	2890.54
694.524	2845.48
694.713	3099.43
694.902	2890.54
695.092	2937.64
695.281	2935.59
695.47	2994.98
695.659	2857.77
695.848	2794.28
696.037	2906.92
696.226	2978.6
696.415	2876.2
696.604	2868.01
696.793	2917.16
696.982	2954.02
697.171	2878.25
697.36	3003.18
697.549	2865.96
697.738	2827.05
697.927	2839.34
698.116	2896.68
698.305	2790.19
698.494	2827.05
698.683	2923.3
698.872	2911.02
699.061	2849.58
699.25	2761.52
699.438	2837.29
699.627	3007.27
699.816	2784.04
700.005	2845.48
700.193	2775.85
700.382	2825
700.571	2796.33
700.76	2806.57
700.948	2863.91
701.137	2741.04
701.326	2720.56
701.514	2822.95
701.703	2755.37
701.892	2763.56
702.08	2845.48
702.269	2767.66
702.457	2790.19
702.646	2794.28
702.834	2712.36
703.023	2784.04
703.212	2773.8
703.4	2689.84
703.589	2763.56
703.777	2741.04
703.965	2704.17
704.154	2784.04
704.342	2655.02
704.531	2607.92
704.719	2636.59
704.907	2714.41
705.096	2779.95
705.284	2814.76
705.472	2741.04
705.661	2538.29
705.849	2714.41
706.037	2749.23
706.226	2708.27
706.414	2612.01
706.602	2552.62
706.79	2665.26
706.979	2618.16
707.167	2517.81
707.355	2603.82
707.543	2515.76
707.731	2618.16
707.919	2548.53
708.107	2560.81
708.296	2605.87
708.484	2601.77
708.672	2546.48
708.86	2515.76
709.048	2425.65
709.236	2519.85
709.424	2538.29
709.612	2521.9
709.8	2476.85
709.988	2458.42
710.176	2356.02
710.364	2401.07
710.551	2487.09
710.739	2364.21
710.927	2482.99
711.115	2425.65
711.303	2343.73
711.491	2442.03
711.679	2450.22
711.866	2380.59
712.054	2437.94
712.242	2327.35
712.43	2358.07
712.617	2356.02
712.805	2362.16
712.993	2396.98
713.181	2259.76
713.368	2327.35
713.556	2337.59
713.744	2227
713.931	2261.81
714.119	2255.67
714.306	2306.87
714.494	2251.57
714.682	2218.8
714.869	2175.8
715.057	2155.32
715.244	2208.56
715.432	2126.64
715.619	2175.8
715.807	2265.91
715.994	2259.76
716.182	2128.69
716.369	2224.95
716.556	2136.88
716.744	2233.14
716.931	2014.01
717.119	2200.37
717.306	2130.74
717.493	2183.99
717.681	2087.73
717.868	2128.69
718.055	2112.31
718.242	2167.6
718.43	2114.36
718.617	2036.53
718.804	2028.34
718.991	2104.12
719.179	2032.44
719.366	1962.81
719.553	2065.21
719.74	2075.45
719.927	1977.14
720.114	1915.7
720.301	1987.38
720.488	1964.86
720.676	1905.46
720.863	1989.43
721.05	2067.25
721.237	1934.14
721.424	1917.75
721.611	1973.05
721.798	1921.85
721.985	1905.46
722.172	1839.93
722.358	1837.88
722.545	1913.66
722.732	1934.14
722.919	1794.87
723.106	1852.22
723.293	1911.61
723.48	1889.08
723.667	1884.98
723.853	1923.9
724.04	1833.79
724.227	1911.61
724.414	1725.24
724.6	1782.59
724.787	1792.83
724.974	1839.93
725.161	1813.31
725.347	1784.63
725.534	1803.07
725.72	1805.11
725.907	1733.43
726.094	1727.29
726.28	1760.06
726.467	1747.77
726.653	1712.96
726.84	1725.24
727.027	1715
727.213	1776.44
727.4	1768.25
727.586	1749.82
727.773	1741.63
727.959	1712.96
728.145	1696.57
728.332	1733.43
728.518	1727.29
728.705	1708.86
728.891	1733.43
729.077	1672
729.264	1659.71
729.45	1610.56
729.636	1792.83
729.823	1542.97
730.009	1745.72
730.195	1571.65
730.382	1635.13
730.568	1551.17
730.754	1604.41
730.94	1653.56
731.126	1563.45
731.313	1610.56
731.499	1581.89
731.685	1581.89
731.871	1536.83
732.057	1545.02
732.243	1657.66
732.429	1588.03
732.615	1602.36
732.801	1465.15
732.987	1610.56
733.173	1555.26
733.359	1526.59
733.545	1549.12
733.731	1561.41
733.917	1424.19
734.103	1540.93
734.289	1411.9
734.475	1479.49
734.661	1549.12
734.847	1598.27
735.033	1549.12
735.219	1489.73
735.404	1514.3
735.59	1489.73
735.776	1389.38
735.962	1538.88
736.148	1561.41
736.333	1395.52
736.519	1557.31
736.705	1403.71
736.89	1424.19
737.076	1456.96
737.262	1389.38
737.447	1506.11
737.633	1450.82
737.819	1438.53
738.004	1483.58
738.19	1375.04
738.375	1399.62
738.561	1499.97
738.747	1366.85
738.932	1309.51
739.118	1532.73
739.303	1401.66
739.489	1438.53
739.674	1383.23
739.859	1336.13
740.045	1315.65
740.23	1356.61
740.416	1379.14
740.601	1348.42
740.786	1377.09
740.972	1295.17
741.157	1325.89
741.342	1229.63
741.528	1356.61
741.713	1225.54
741.898	1299.27
742.084	1243.97
742.269	1299.27
742.454	1268.55
742.639	1225.54
742.824	1303.36
743.01	1217.35
743.195	1297.22
743.38	1334.08
743.565	1280.83
743.75	1239.87
743.935	1223.49
744.12	1260.35
744.305	1170.24
744.49	1186.63
744.675	1168.2
744.86	1223.49
745.045	1160
745.23	1237.83
745.415	1213.25
745.6	1194.82
745.785	1178.44
745.97	1241.92
746.155	1137.48
746.34	1213.25
746.525	1145.67
746.71	1141.57
746.895	1086.28
747.079	1168.2
747.264	1080.13
747.449	1045.32
747.634	1141.57
747.819	1033.03
748.003	1055.56
748.188	990.02
748.373	1059.65
748.557	1092.42
748.742	1008.45
748.927	1030.98
749.111	996.17
749.296	1039.17
749.481	1033.03
749.665	1078.08
749.85	1004.36
750.034	1028.93
750.219	975.69
750.404	922.44
750.588	1006.41
750.773	889.67
750.957	1000.26
751.141	967.49
751.326	1028.93
751.51	887.62
751.695	1000.26
751.879	951.11
752.064	914.25
752.248	990.02
752.432	938.82
752.617	910.15
752.801	893.77
752.985	863.05
753.17	887.62
753.354	930.63
753.538	875.34
753.722	914.25
753.907	922.44
754.091	861
754.275	879.43
754.459	930.63
754.643	817.99
754.828	768.84
755.012	815.94
755.196	887.62
755.38	815.94
755.564	811.85
755.748	801.61
755.932	799.56
756.116	815.94
756.3	742.22
756.484	828.23
756.668	801.61
756.852	797.51
757.036	762.7
757.22	813.9
757.404	742.22
757.588	869.19
757.772	760.65
757.956	848.71
758.14	738.12
758.323	815.94
758.507	723.79
758.691	668.49
758.875	764.75
759.059	652.11
759.242	682.83
759.426	736.07
759.61	795.47
759.794	734.03
759.977	713.55
760.161	736.07
760.345	713.55
760.528	703.31
760.712	654.16
760.895	729.93
761.079	662.35
761.263	678.73
761.446	654.16
761.63	693.07
761.813	641.87
761.997	674.64
762.18	703.31
762.364	693.07
762.547	588.62
762.731	678.73
762.914	742.22
763.098	621.39
763.281	652.11
763.464	645.96
763.648	658.25
763.831	658.25
764.015	596.81
764.198	656.2
764.381	588.62
764.564	652.11
764.748	662.35
764.931	564.04
765.114	623.44
765.297	627.53
765.481	650.06
765.664	592.72
765.847	615.24
766.03	553.8
766.213	629.58
766.397	545.61
766.58	607.05
766.763	615.24
766.946	588.62
767.129	662.35
767.312	506.7
767.495	570.19
767.678	666.44
767.861	615.24
768.044	615.24
768.227	523.09
768.41	578.38
768.593	547.66
768.776	588.62
768.959	578.38
769.142	580.43
769.324	609.1
769.507	654.16
769.69	541.52
769.873	547.66
770.056	607.05
770.239	605
770.421	650.06
770.604	627.53
770.787	564.04
770.97	545.61
771.152	562
771.335	529.23
771.518	633.68
771.7	508.75
771.883	617.29
772.066	512.85
772.248	529.23
772.431	545.61
772.613	545.61
772.796	543.57
772.978	506.7
773.161	559.95
773.343	506.7
773.526	512.85
773.708	500.56
773.891	535.37
774.073	455.5
774.256	498.51
774.438	523.09
774.621	484.17
774.803	437.07
774.985	457.55
775.168	580.43
775.35	516.94
775.532	512.85
775.715	600.91
775.897	422.73
776.079	392.02
776.261	381.78
776.444	453.45
776.626	402.26
776.808	478.03
776.99	373.58
777.173	398.16
777.355	414.54
777.537	439.12
777.719	480.08
777.901	416.59
778.083	457.55
778.265	383.82
778.447	459.6
778.629	424.78
778.811	365.39
778.993	432.97
779.175	402.26
779.357	367.44
779.539	389.97
779.721	418.64
779.903	465.74
780.085	392.02
780.267	445.26
780.449	451.41
780.631	441.17
780.812	381.78
780.994	398.16
781.176	406.35
781.358	361.3
781.54	338.77
781.721	414.54
781.903	379.73
782.085	361.3
782.267	375.63
782.448	351.06
782.63	336.72
782.812	336.72
782.993	430.93
783.175	373.58
783.357	373.58
783.538	369.49
783.72	437.07
783.901	396.11
784.083	293.71
784.264	310.1
784.446	293.71
784.627	314.19
784.809	297.81
784.99	279.38
785.172	262.99
785.353	252.75
785.535	275.28
785.716	244.56
785.897	351.06
786.079	330.58
786.26	258.9
786.441	361.3
786.623	316.24
786.804	340.82
786.985	277.33
787.167	262.99
787.348	269.14
787.529	299.86
787.71	277.33
787.891	246.61
788.073	308.05
788.254	269.14
788.435	207.7
788.616	293.71
788.797	285.52
788.978	222.03
789.159	267.09
789.34	199.51
789.522	193.36
789.703	301.9
789.884	219.99
790.065	267.09
790.246	271.19
790.427	193.36
790.607	205.65
790.788	265.04
790.969	213.84
791.15	183.12
791.331	174.93
791.512	279.38
791.693	234.32
791.874	254.8
792.054	207.7
792.235	275.28
792.416	262.99
792.597	176.98
792.778	160.59
792.958	219.99
793.139	189.27
793.32	185.17
793.5	195.41
793.681	277.33
793.862	170.83
794.042	250.71
794.223	242.51
794.404	262.99
794.584	152.4
794.765	195.41
794.945	197.46
795.126	179.03
795.306	224.08
795.487	226.13
795.667	133.97
795.848	193.36
796.028	150.36
796.209	209.75
796.389	148.31
796.57	121.68
796.75	191.31
796.93	254.8
797.111	222.03
797.291	189.27
797.471	117.59
797.652	193.36
797.832	201.55
798.012	179.03
798.192	252.75
798.373	78.68
798.553	142.16
798.733	201.55
798.913	166.74
799.093	191.31
799.274	181.07
799.454	246.61
799.634	176.98
799.814	160.59
799.994	185.17
800.174	187.22
800.354	111.44
800.534	228.18
800.714	101.2
800.894	99.16
801.074	97.11
801.254	162.64
801.434	138.07
801.614	127.83
801.794	146.26
801.974	439.12
802.154	129.88
802.334	211.79
802.514	168.79
802.693	115.54
802.873	181.07
803.053	144.21
803.233	172.88
803.413	187.22
803.592	172.88
803.772	172.88
803.952	144.21
804.131	189.27
804.311	107.35
804.491	136.02
804.67	115.54
804.85	172.88
805.03	191.31
805.209	136.02
805.389	113.49
805.568	187.22
805.748	47.96
805.928	176.98
806.107	156.5
806.287	242.51
806.466	168.79
806.646	90.96
806.825	119.64
807.004	136.02
807.184	152.4
807.363	136.02
807.543	37.72
807.722	152.4
807.901	146.26
808.081	129.88
808.26	31.57
808.439	140.12
808.619	82.77
808.798	64.34
808.977	127.83
809.156	144.21
809.336	154.45
809.515	54.1
809.694	117.59
809.873	113.49
810.052	64.34
810.231	162.64
810.411	138.07
810.59	144.21
810.769	127.83
810.948	136.02
811.127	138.07
811.306	107.35
811.485	113.49
811.664	146.26
811.843	123.73
812.022	95.06
812.201	78.68
812.38	129.88
812.559	101.2
812.737	148.31
812.916	99.16
813.095	37.72
813.274	74.58
813.453	146.26
813.632	68.44
813.811	115.54
813.989	123.73
814.168	136.02
814.347	111.44
814.526	113.49
814.704	97.11
814.883	242.51
815.062	90.96
815.24	136.02
815.419	97.11
815.598	74.58
815.776	90.96
815.955	105.3
816.133	70.48
816.312	62.29
816.49	70.48
816.669	29.52
816.847	54.1
817.026	162.64
817.204	86.87
817.383	148.31
817.561	56.15
817.74	129.88
817.918	58.2
818.097	86.87
818.275	123.73
818.453	84.82
818.632	62.29
818.81	74.58
818.988	97.11
819.167	142.16
819.345	43.86
819.523	66.39
819.701	54.1
819.879	95.06
820.058	80.72
820.236	111.44
820.414	37.72
820.592	54.1
820.77	31.57
820.948	29.52
821.127	119.64
821.305	4.95
821.483	13.14
821.661	125.78
821.839	60.24
822.017	64.34
822.195	88.92
822.373	80.72
822.551	70.48
822.729	-17.58
822.907	97.11
823.085	15.19
823.262	121.68
823.44	78.68
823.618	-3.24
823.796	0.85
823.974	43.86
824.152	47.96
824.329	-19.63
824.507	70.48
824.685	84.82
824.863	93.01
825.04	21.33
825.218	86.87
825.396	21.33
825.574	62.29
825.751	80.72
825.929	105.3
826.107	86.87
826.284	62.29
826.462	41.81
826.639	-23.72
826.817	50
826.994	140.12
827.172	47.96
827.349	56.15
827.527	58.2
827.704	41.81
827.882	97.11
828.059	72.53
828.237	109.4
828.414	23.38
828.591	17.24
828.769	99.16
828.946	45.91
829.124	88.92
829.301	78.68
829.478	129.88
829.655	47.96
829.833	4.95
830.01	37.72
830.187	80.72
830.364	74.58
830.542	78.68
830.719	80.72
830.896	13.14
831.073	68.44
831.25	31.57
831.427	138.07
831.604	74.58
831.782	39.76
831.959	50
832.136	84.82
832.313	-19.63
832.49	54.1
832.667	62.29
832.844	-9.39
833.021	129.88
833.198	15.19
833.374	193.36
833.551	103.25
833.728	47.96
833.905	7
834.082	0.85
834.259	39.76
834.436	41.81
834.612	56.15
834.789	58.2
834.966	0.85
835.143	45.91
835.319	-11.43
835.496	37.72
835.673	-17.58
835.85	27.48
836.026	43.86
836.203	47.96
836.38	52.05
836.556	86.87
836.733	-3.24
836.909	115.54
837.086	17.24
837.262	93.01
837.439	21.33
837.616	64.34
837.792	35.67
837.968	21.33
838.145	-5.29
838.321	111.44
838.498	90.96
838.674	64.34
838.851	68.44
839.027	21.33
839.203	84.82
839.38	15.19
839.556	105.3
839.732	-1.19
839.909	64.34
840.085	99.16
840.261	4.95
840.437	56.15
840.614	27.48
840.79	47.96
840.966	58.2
841.142	11.09
841.318	-70.83
841.494	127.83
841.671	82.77
841.847	7
842.023	74.58
842.199	74.58
842.375	78.68
842.551	80.72
842.727	41.81
842.903	11.09
843.079	13.14
843.255	31.57
843.431	82.77
843.607	-19.63
843.783	15.19
843.959	13.14
844.134	2.9
844.31	90.96
844.486	9.05
844.662	-21.67
844.838	50
845.013	54.1
845.189	80.72
845.365	64.34
845.541	33.62
845.716	0.85
845.892	68.44
846.068	-3.24
846.244	-1.19
846.419	54.1
846.595	68.44
846.77	33.62
846.946	21.33
847.122	-1.19
847.297	-38.06
847.473	101.2
847.648	29.52
847.824	-52.39
847.999	54.1
848.175	45.91
848.35	64.34
848.526	66.39
848.701	50
848.876	37.72
849.052	7
849.227	78.68
849.403	31.57
849.578	43.86
849.753	-15.53
849.929	0.85
850.104	50
850.279	78.68
850.454	-15.53
850.63	37.72
850.805	88.92
850.98	-15.53
851.155	54.1
851.33	33.62
851.505	17.24
851.681	123.73
851.856	25.43
852.031	-11.43
852.206	4.95
852.381	-3.24
852.556	39.76
852.731	25.43
852.906	-27.82
853.081	33.62
853.256	33.62
853.431	15.19
853.606	25.43
853.781	19.29
853.956	9.05
854.131	11.09
854.305	21.33
854.48	47.96
854.655	-19.63
854.83	4.95
855.005	-9.39
855.18	-3.24
855.354	-19.63
855.529	82.77
855.704	54.1
855.879	64.34
856.053	17.24
856.228	13.14
856.403	13.14
856.577	-13.48
856.752	29.52
856.926	15.19
857.101	-1.19
857.276	68.44
857.45	-50.35
857.625	68.44
857.799	45.91
857.974	-52.39
858.148	-11.43
858.323	45.91
858.497	13.14
858.672	66.39
858.846	-42.15
859.02	47.96
859.195	-17.58
859.369	45.91
859.543	68.44
859.718	-25.77
859.892	9.05
860.066	64.34
860.241	62.29
860.415	-23.72
860.589	-60.59
860.763	50
860.938	-25.77
861.112	23.38
861.286	-44.2
861.46	103.25
861.634	45.91
861.808	80.72
861.982	-56.49
862.157	37.72
862.331	47.96
862.505	54.1
862.679	2.9
862.853	-11.43
863.027	25.43
863.201	72.53
863.375	2.9
863.549	15.19
863.722	9.05
863.896	-56.49
864.07	-11.43
864.244	76.63
864.418	54.1
864.592	0.85
864.766	9.05
864.939	-40.11
865.113	-27.82
865.287	-15.53
865.461	9.05
865.634	21.33
865.808	62.29
865.982	11.09
866.156	11.09
866.329	97.11
866.503	54.1
866.676	72.53
866.85	70.48
867.024	4.95
867.197	-48.3
867.371	33.62
867.544	54.1
867.718	-56.49
867.891	37.72
868.065	39.76
868.238	-19.63
868.412	-1.19
868.585	60.24
868.759	19.29
868.932	-36.01
869.105	45.91
869.279	45.91
869.452	-23.72
869.625	-11.43
869.799	37.72
869.972	13.14
870.145	-23.72
870.319	47.96
870.492	13.14
870.665	52.05
870.838	-1.19
871.011	-31.91
871.185	-33.96
871.358	72.53
871.531	47.96
871.704	-13.48
871.877	-7.34
872.05	11.09
872.223	29.52
872.396	52.05
872.569	23.38
872.742	-5.29
872.915	56.15
873.088	-27.82
873.261	23.38
873.434	54.1
873.607	4.95
873.78	115.54
873.953	37.72
874.126	-27.82
874.299	29.52
874.471	-79.02
874.644	78.68
874.817	-5.29
874.99	23.38
875.163	25.43
875.335	9.05
875.508	-40.11
875.681	-33.96
875.853	45.91
876.026	37.72
876.199	-40.11
876.371	-9.39
876.544	35.67
876.717	37.72
876.889	2.9
877.062	72.53
877.234	7
877.407	21.33
877.579	-3.24
877.752	-33.96
877.924	-31.91
878.097	88.92
878.269	9.05
878.442	-31.91
878.614	-15.53
878.786	19.29
878.959	-27.82
879.131	0.85
879.303	7
879.476	-7.34
879.648	50
879.82	66.39
879.993	47.96
880.165	19.29
880.337	-7.34
880.509	80.72
880.681	17.24
880.854	-33.96
881.026	9.05
881.198	-7.34
881.37	-1.19
881.542	-42.15
881.714	-13.48
881.886	-64.68
882.058	-9.39
882.23	7
882.402	-31.91
882.574	39.76
882.746	29.52
882.918	50
883.09	43.86
883.262	7
883.434	50
883.606	45.91
883.778	31.57
883.95	-11.43
884.122	-66.73
884.293	13.14
884.465	7
884.637	66.39
884.809	-19.63
884.98	21.33
885.152	-11.43
885.324	-11.43
885.496	15.19
885.667	-11.43
885.839	2.9
886.011	-27.82
886.182	25.43
886.354	62.29
886.525	-42.15
886.697	78.68
886.869	25.43
887.04	41.81
887.212	27.48
887.383	43.86
887.555	41.81
887.726	31.57
887.897	-1.19
888.069	-40.11
888.24	-54.44
888.412	-50.35
888.583	56.15
888.754	45.91
888.926	93.01
889.097	43.86
889.268	15.19
889.44	9.05
889.611	-56.49
889.782	15.19
889.953	11.09
890.125	29.52
890.296	-11.43
890.467	-11.43
890.638	-17.58
890.809	31.57
890.98	-13.48
891.151	45.91
891.323	-9.39
891.494	25.43
891.665	23.38
891.836	-15.53
892.007	-5.29
892.178	15.19
892.349	52.05
892.52	-1.19
892.691	62.29
892.862	39.76
893.032	13.14
893.203	60.24
893.374	23.38
893.545	37.72
893.716	-99.5
893.887	19.29
894.057	31.57
894.228	23.38
894.399	-9.39
894.57	-76.97
894.74	9.05
894.911	-9.39
895.082	41.81
895.253	-1.19
895.423	-13.48
895.594	-9.39
895.764	-38.06
895.935	-52.39
896.106	54.1
896.276	58.2
896.447	-33.96
896.617	50
896.788	9.05
896.958	47.96
897.129	-15.53
897.299	33.62
897.47	-48.3
897.64	70.48
897.81	-38.06
897.981	-13.48
898.151	-50.35
898.322	37.72
898.492	39.76
898.662	-11.43
898.832	-11.43
899.003	-60.59
899.173	-64.68
899.343	-13.48
899.513	-38.06
