Data from USB4F104151__59__13-53-36-516.txt Node

Date: Thu Mar 13 13:53:36 EDT 2025
User: louis
Spectrometer: USB4F10415
Trigger mode: 4
Integration Time (sec): 1.000000E-2
Scans to average: 1
Electric dark correction enabled: true
Nonlinearity correction enabled: false
Boxcar width: 0
XAxis mode: Wavelengths
Number of Pixels in Spectrum: 3648
>>>>>Begin Spectral Data<<<<<
178.204	-21.5
178.424	-21.5
178.644	-21.5
178.864	-1.02
179.084	-70.65
179.304	-87.04
179.524	-54.27
179.744	13.31
179.964	107.52
180.184	105.47
180.404	25.6
180.624	-35.84
180.844	11.26
181.064	-19.46
181.283	-15.36
181.503	-50.18
181.723	-1.02
181.943	7.17
182.163	111.61
182.383	1.02
182.602	29.7
182.822	78.85
183.042	-25.6
183.262	-31.74
183.482	68.61
183.701	-9.22
183.921	80.89
184.141	39.94
184.361	31.74
184.58	68.61
184.8	58.37
185.02	58.37
185.239	37.89
185.459	-21.5
185.679	35.84
185.898	82.94
186.118	60.42
186.338	-1.02
186.557	50.18
186.777	101.37
186.997	27.65
187.216	15.36
187.436	117.76
187.655	50.18
187.875	64.51
188.095	41.98
188.314	76.8
188.534	62.46
188.753	68.61
188.973	-3.07
189.192	84.99
189.412	84.99
189.631	-23.55
189.851	17.41
190.07	33.79
190.29	-7.17
190.509	-25.6
190.729	5.12
190.948	99.33
191.168	99.33
191.387	78.85
191.607	9.22
191.826	76.8
192.045	95.23
192.265	13.31
192.484	64.51
192.704	64.51
192.923	15.36
193.142	52.22
193.362	39.94
193.581	23.55
193.8	111.61
194.02	13.31
194.239	78.85
194.458	70.65
194.678	62.46
194.897	52.22
195.116	29.7
195.335	48.13
195.555	64.51
195.774	64.51
195.993	125.95
196.212	7.17
196.432	60.42
196.651	74.75
196.87	39.94
197.089	74.75
197.308	33.79
197.528	60.42
197.747	35.84
197.966	99.33
198.185	68.61
198.404	19.46
198.623	-15.36
198.842	7.17
199.062	72.7
199.281	68.61
199.5	95.23
199.719	15.36
199.938	17.41
200.157	-7.17
200.376	64.51
200.595	80.89
200.814	-23.55
201.033	48.13
201.252	7.17
201.471	52.22
201.69	58.37
201.909	70.65
202.128	35.84
202.347	52.22
202.566	7.17
202.785	48.13
203.004	52.22
203.223	99.33
203.442	29.7
203.661	80.89
203.879	109.57
204.098	7.17
204.317	11.26
204.536	27.65
204.755	27.65
204.974	29.7
205.193	21.5
205.411	60.42
205.63	11.26
205.849	29.7
206.068	-7.17
206.287	50.18
206.505	60.42
206.724	105.47
206.943	74.75
207.162	62.46
207.381	1.02
207.599	97.28
207.818	5.12
208.037	62.46
208.255	72.7
208.474	37.89
208.693	9.22
208.911	62.46
209.13	91.13
209.349	119.81
209.567	54.27
209.786	101.37
210.005	-5.12
210.223	3.07
210.442	39.94
210.661	-39.94
210.879	39.94
211.098	107.52
211.316	91.13
211.535	41.98
211.753	-50.18
211.972	78.85
212.191	50.18
212.409	-31.74
212.628	64.51
212.846	-13.31
213.065	19.46
213.283	31.74
213.502	27.65
213.72	109.57
213.938	54.27
214.157	54.27
214.375	37.89
214.594	37.89
214.812	33.79
215.031	84.99
215.249	9.22
215.467	68.61
215.686	62.46
215.904	68.61
216.122	64.51
216.341	46.08
216.559	93.18
216.778	64.51
216.996	19.46
217.214	132.09
217.432	56.32
217.651	50.18
217.869	52.22
218.087	35.84
218.306	33.79
218.524	109.57
218.742	46.08
218.96	-11.26
219.179	58.37
219.397	64.51
219.615	-3.07
219.833	17.41
220.051	44.03
220.27	19.46
220.488	-9.22
220.706	78.85
220.924	-9.22
221.142	74.75
221.36	44.03
221.578	50.18
221.796	33.79
222.015	5.12
222.233	84.99
222.451	39.94
222.669	82.94
222.887	128
223.105	93.18
223.323	76.8
223.541	23.55
223.759	41.98
223.977	84.99
224.195	87.04
224.413	27.65
224.631	37.89
224.849	33.79
225.067	1.02
225.285	48.13
225.503	101.37
225.721	-7.17
225.939	70.65
226.157	74.75
226.375	101.37
226.592	84.99
226.81	19.46
227.028	62.46
227.246	37.89
227.464	58.37
227.682	89.09
227.9	39.94
228.117	68.61
228.335	76.8
228.553	37.89
228.771	115.71
228.989	60.42
229.206	17.41
229.424	78.85
229.642	31.74
229.86	1.02
230.077	31.74
230.295	-7.17
230.513	37.89
230.731	82.94
230.948	68.61
231.166	-3.07
231.384	44.03
231.601	50.18
231.819	-5.12
232.037	-29.7
232.254	-31.74
232.472	91.13
232.689	105.47
232.907	72.7
233.125	52.22
233.342	41.98
233.56	113.66
233.777	-5.12
233.995	97.28
234.213	68.61
234.43	56.32
234.648	27.65
234.865	72.7
235.083	78.85
235.3	3.07
235.518	46.08
235.735	1.02
235.953	64.51
236.17	-3.07
236.388	84.99
236.605	23.55
236.822	50.18
237.04	-60.42
237.257	113.66
237.475	35.84
237.692	31.74
237.909	56.32
238.127	-15.36
238.344	107.52
238.562	144.38
238.779	119.81
238.996	17.41
239.214	46.08
239.431	78.85
239.648	52.22
239.865	56.32
240.083	107.52
240.3	60.42
240.517	76.8
240.735	70.65
240.952	52.22
241.169	64.51
241.386	80.89
241.603	64.51
241.821	41.98
242.038	-5.12
242.255	95.23
242.472	-17.41
242.689	-15.36
242.907	64.51
243.124	56.32
243.341	60.42
243.558	35.84
243.775	44.03
243.992	9.22
244.209	46.08
244.426	95.23
244.643	21.5
244.86	66.56
245.078	95.23
245.295	-29.7
245.512	89.09
245.729	62.46
245.946	-31.74
246.163	64.51
246.38	31.74
246.597	48.13
246.814	60.42
247.031	50.18
247.248	56.32
247.464	93.18
247.681	99.33
247.898	3.07
248.115	46.08
248.332	62.46
248.549	25.6
248.766	46.08
248.983	9.22
249.2	-35.84
249.417	41.98
249.633	33.79
249.85	103.42
250.067	-21.5
250.284	31.74
250.501	46.08
250.717	44.03
250.934	62.46
251.151	103.42
251.368	64.51
251.585	80.89
251.801	39.94
252.018	56.32
252.235	37.89
252.451	27.65
252.668	39.94
252.885	39.94
253.102	99.33
253.318	89.09
253.535	78.85
253.752	62.46
253.968	35.84
254.185	138.24
254.401	21.5
254.618	84.99
254.835	60.42
255.051	19.46
255.268	7.17
255.484	105.47
255.701	62.46
255.917	119.81
256.134	35.84
256.351	33.79
256.567	64.51
256.784	70.65
257	68.61
257.217	50.18
257.433	13.31
257.65	35.84
257.866	97.28
258.082	60.42
258.299	52.22
258.515	11.26
258.732	39.94
258.948	15.36
259.165	27.65
259.381	37.89
259.597	84.99
259.814	1.02
260.03	5.12
260.246	50.18
260.463	11.26
260.679	52.22
260.895	52.22
261.112	-9.22
261.328	123.9
261.544	66.56
261.761	25.6
261.977	68.61
262.193	31.74
262.409	99.33
262.626	91.13
262.842	84.99
263.058	25.6
263.274	82.94
263.49	54.27
263.707	72.7
263.923	17.41
264.139	13.31
264.355	74.75
264.571	39.94
264.787	21.5
265.004	115.71
265.22	-19.46
265.436	50.18
265.652	58.37
265.868	58.37
266.084	23.55
266.3	76.8
266.516	11.26
266.732	60.42
266.948	78.85
267.164	41.98
267.38	5.12
267.596	62.46
267.812	134.14
268.028	74.75
268.244	39.94
268.46	27.65
268.676	33.79
268.892	27.65
269.108	82.94
269.324	17.41
269.54	27.65
269.756	9.22
269.972	56.32
270.188	72.7
270.403	101.37
270.619	33.79
270.835	-3.07
271.051	39.94
271.267	70.65
271.483	105.47
271.698	15.36
271.914	33.79
272.13	89.09
272.346	-11.26
272.562	50.18
272.777	17.41
272.993	107.52
273.209	-15.36
273.425	95.23
273.64	-11.26
273.856	76.8
274.072	91.13
274.287	50.18
274.503	44.03
274.719	101.37
274.934	58.37
275.15	44.03
275.366	-7.17
275.581	25.6
275.797	87.04
276.012	23.55
276.228	99.33
276.444	68.61
276.659	31.74
276.875	105.47
277.09	97.28
277.306	44.03
277.521	11.26
277.737	52.22
277.952	84.99
278.168	37.89
278.383	82.94
278.599	23.55
278.814	50.18
279.03	72.7
279.245	72.7
279.461	74.75
279.676	66.56
279.892	17.41
280.107	31.74
280.322	37.89
280.538	7.17
280.753	46.08
280.969	115.71
281.184	70.65
281.399	89.09
281.615	33.79
281.83	29.7
282.045	37.89
282.26	56.32
282.476	76.8
282.691	35.84
282.906	31.74
283.122	15.36
283.337	15.36
283.552	41.98
283.767	84.99
283.983	80.89
284.198	33.79
284.413	93.18
284.628	-13.31
284.843	41.98
285.058	13.31
285.274	35.84
285.489	23.55
285.704	11.26
285.919	-39.94
286.134	54.27
286.349	62.46
286.564	39.94
286.779	3.07
286.995	89.09
287.21	58.37
287.425	115.71
287.64	21.5
287.855	33.79
288.07	13.31
288.285	-9.22
288.5	-9.22
288.715	64.51
288.93	82.94
289.145	48.13
289.36	89.09
289.575	64.51
289.79	37.89
290.004	27.65
290.219	52.22
290.434	-25.6
290.649	105.47
290.864	29.7
291.079	31.74
291.294	95.23
291.509	44.03
291.724	60.42
291.938	-29.7
292.153	5.12
292.368	80.89
292.583	148.48
292.798	35.84
293.012	93.18
293.227	46.08
293.442	50.18
293.657	31.74
293.871	150.53
294.086	11.26
294.301	-11.26
294.516	97.28
294.73	105.47
294.945	87.04
295.16	123.9
295.374	68.61
295.589	97.28
295.804	-7.17
296.018	-13.31
296.233	115.71
296.447	113.66
296.662	-56.32
296.877	7.17
297.091	62.46
297.306	80.89
297.52	37.89
297.735	37.89
297.949	39.94
298.164	54.27
298.378	25.6
298.593	50.18
298.807	52.22
299.022	27.65
299.236	113.66
299.451	76.8
299.665	74.75
299.88	44.03
300.094	70.65
300.309	70.65
300.523	99.33
300.737	103.42
300.952	-9.22
301.166	95.23
301.381	-5.12
301.595	50.18
301.809	11.26
302.024	46.08
302.238	99.33
302.452	115.71
302.667	58.37
302.881	82.94
303.095	105.47
303.309	72.7
303.524	54.27
303.738	46.08
303.952	27.65
304.166	52.22
304.381	64.51
304.595	117.76
304.809	39.94
305.023	134.14
305.237	41.98
305.452	1.02
305.666	78.85
305.88	46.08
306.094	-1.02
306.308	19.46
306.522	52.22
306.736	46.08
306.95	95.23
307.164	78.85
307.379	33.79
307.593	74.75
307.807	64.51
308.021	115.71
308.235	-1.02
308.449	37.89
308.663	7.17
308.877	62.46
309.091	52.22
309.305	46.08
309.519	99.33
309.733	58.37
309.947	80.89
310.161	29.7
310.374	82.94
310.588	107.52
310.802	35.84
311.016	107.52
311.23	91.13
311.444	31.74
311.658	41.98
311.872	121.85
312.085	15.36
312.299	91.13
312.513	35.84
312.727	37.89
312.941	105.47
313.154	89.09
313.368	107.52
313.582	78.85
313.796	17.41
314.009	111.61
314.223	82.94
314.437	66.56
314.651	103.42
314.864	-19.46
315.078	95.23
315.292	39.94
315.505	17.41
315.719	103.42
315.933	64.51
316.146	105.47
316.36	62.46
316.573	101.37
316.787	134.14
317.001	-1.02
317.214	78.85
317.428	121.85
317.641	66.56
317.855	5.12
318.068	35.84
318.282	74.75
318.495	62.46
318.709	27.65
318.922	27.65
319.136	78.85
319.349	99.33
319.563	35.84
319.776	60.42
319.99	68.61
320.203	44.03
320.417	50.18
320.63	58.37
320.843	107.52
321.057	97.28
321.27	78.85
321.483	29.7
321.697	54.27
321.91	-5.12
322.124	64.51
322.337	52.22
322.55	44.03
322.763	93.18
322.977	168.96
323.19	-21.5
323.403	48.13
323.617	58.37
323.83	56.32
324.043	113.66
324.256	9.22
324.469	82.94
324.683	46.08
324.896	115.71
325.109	52.22
325.322	89.09
325.535	-7.17
325.748	52.22
325.962	93.18
326.175	105.47
326.388	52.22
326.601	11.26
326.814	29.7
327.027	72.7
327.24	56.32
327.453	17.41
327.666	125.95
327.879	-35.84
328.092	60.42
328.305	101.37
328.518	82.94
328.731	64.51
328.944	87.04
329.157	3.07
329.37	48.13
329.583	93.18
329.796	66.56
330.009	117.76
330.222	70.65
330.435	125.95
330.648	84.99
330.861	60.42
331.073	119.81
331.286	84.99
331.499	78.85
331.712	101.37
331.925	115.71
332.138	117.76
332.35	91.13
332.563	89.09
332.776	44.03
332.989	99.33
333.202	58.37
333.414	80.89
333.627	29.7
333.84	46.08
334.053	60.42
334.265	3.07
334.478	-23.55
334.691	48.13
334.903	72.7
335.116	7.17
335.329	74.75
335.541	58.37
335.754	27.65
335.966	48.13
336.179	68.61
336.392	78.85
336.604	66.56
336.817	9.22
337.029	97.28
337.242	29.7
337.454	76.8
337.667	82.94
337.88	74.75
338.092	46.08
338.305	25.6
338.517	103.42
338.729	54.27
338.942	56.32
339.154	89.09
339.367	54.27
339.579	-9.22
339.792	17.41
340.004	84.99
340.217	64.51
340.429	39.94
340.641	5.12
340.854	56.32
341.066	19.46
341.278	113.66
341.491	68.61
341.703	44.03
341.915	21.5
342.128	97.28
342.34	50.18
342.552	19.46
342.764	-5.12
342.977	39.94
343.189	27.65
343.401	52.22
343.613	87.04
343.826	52.22
344.038	103.42
344.25	97.28
344.462	72.7
344.674	39.94
344.886	31.74
345.099	84.99
345.311	107.52
345.523	68.61
345.735	27.65
345.947	60.42
346.159	68.61
346.371	35.84
346.583	74.75
346.795	101.37
347.007	33.79
347.219	68.61
347.431	62.46
347.643	50.18
347.855	66.56
348.067	103.42
348.279	70.65
348.491	132.09
348.703	62.46
348.915	50.18
349.127	7.17
349.339	99.33
349.551	68.61
349.763	5.12
349.975	70.65
350.187	48.13
350.399	115.71
350.61	29.7
350.822	52.22
351.034	105.47
351.246	60.42
351.458	148.48
351.669	46.08
351.881	-15.36
352.093	130.05
352.305	19.46
352.517	-1.02
352.728	54.27
352.94	84.99
353.152	62.46
353.363	23.55
353.575	93.18
353.787	68.61
353.999	23.55
354.21	48.13
354.422	56.32
354.633	70.65
354.845	82.94
355.057	33.79
355.268	11.26
355.48	52.22
355.692	91.13
355.903	80.89
356.115	107.52
356.326	39.94
356.538	58.37
356.749	76.8
356.961	82.94
357.172	-15.36
357.384	60.42
357.595	91.13
357.807	115.71
358.018	-17.41
358.23	56.32
358.441	52.22
358.653	138.24
358.864	109.57
359.075	146.43
359.287	54.27
359.498	119.81
359.709	99.33
359.921	13.31
360.132	99.33
360.344	91.13
360.555	-19.46
360.766	97.28
360.977	41.98
361.189	158.72
361.4	23.55
361.611	128
361.823	80.89
362.034	95.23
362.245	33.79
362.456	111.61
362.667	72.7
362.879	109.57
363.09	23.55
363.301	58.37
363.512	23.55
363.723	21.5
363.935	62.46
364.146	39.94
364.357	82.94
364.568	39.94
364.779	50.18
364.99	101.37
365.201	99.33
365.412	107.52
365.623	48.13
365.834	97.28
366.045	80.89
366.256	140.29
366.467	78.85
366.678	23.55
366.889	37.89
367.1	1.02
367.311	50.18
367.522	54.27
367.733	72.7
367.944	37.89
368.155	-11.26
368.366	84.99
368.577	80.89
368.788	130.05
368.999	41.98
369.209	23.55
369.42	164.86
369.631	66.56
369.842	17.41
370.053	113.66
370.264	74.75
370.474	84.99
370.685	11.26
370.896	101.37
371.107	62.46
371.317	82.94
371.528	70.65
371.739	68.61
371.95	29.7
372.16	-25.6
372.371	41.98
372.582	23.55
372.792	87.04
373.003	115.71
373.214	76.8
373.424	60.42
373.635	58.37
373.846	50.18
374.056	76.8
374.267	80.89
374.477	101.37
374.688	105.47
374.898	56.32
375.109	80.89
375.319	74.75
375.53	95.23
375.74	140.29
375.951	66.56
376.161	144.38
376.372	125.95
376.582	-1.02
376.793	107.52
377.003	117.76
377.214	72.7
377.424	72.7
377.635	52.22
377.845	21.5
378.055	95.23
378.266	117.76
378.476	19.46
378.686	52.22
378.897	121.85
379.107	21.5
379.317	70.65
379.528	31.74
379.738	121.85
379.948	82.94
380.158	33.79
380.369	-7.17
380.579	35.84
380.789	60.42
380.999	35.84
381.21	84.99
381.42	70.65
381.63	54.27
381.84	17.41
382.05	60.42
382.261	50.18
382.471	25.6
382.681	62.46
382.891	87.04
383.101	13.31
383.311	46.08
383.521	50.18
383.731	99.33
383.941	80.89
384.151	68.61
384.361	37.89
384.571	80.89
384.781	84.99
384.991	121.85
385.201	84.99
385.411	89.09
385.621	76.8
385.831	105.47
386.041	58.37
386.251	70.65
386.461	60.42
386.671	80.89
386.881	29.7
387.091	33.79
387.301	76.8
387.511	1.02
387.72	117.76
387.93	134.14
388.14	44.03
388.35	107.52
388.56	89.09
388.769	74.75
388.979	44.03
389.189	44.03
389.399	29.7
389.609	70.65
389.818	93.18
390.028	60.42
390.238	109.57
390.447	80.89
390.657	119.81
390.867	89.09
391.076	44.03
391.286	17.41
391.496	58.37
391.705	46.08
391.915	134.14
392.125	54.27
392.334	93.18
392.544	39.94
392.753	72.7
392.963	93.18
393.172	130.05
393.382	111.61
393.591	91.13
393.801	142.33
394.01	136.19
394.22	21.5
394.429	93.18
394.639	121.85
394.848	140.29
395.058	70.65
395.267	146.43
395.477	46.08
395.686	56.32
395.895	87.04
396.105	93.18
396.314	150.53
396.524	121.85
396.733	66.56
396.942	60.42
397.152	80.89
397.361	60.42
397.57	46.08
397.78	39.94
397.989	82.94
398.198	187.39
398.407	105.47
398.617	97.28
398.826	87.04
399.035	93.18
399.244	121.85
399.453	115.71
399.663	146.43
399.872	58.37
400.081	134.14
400.29	134.14
400.499	66.56
400.708	183.29
400.917	138.24
401.127	103.42
401.336	115.71
401.545	138.24
401.754	89.09
401.963	132.09
402.172	158.72
402.381	144.38
402.59	140.29
402.799	181.25
403.008	84.99
403.217	113.66
403.426	125.95
403.635	173.05
403.844	123.9
404.053	132.09
404.262	56.32
404.471	101.37
404.68	68.61
404.888	175.1
405.097	89.09
405.306	168.96
405.515	130.05
405.724	171.01
405.933	168.96
406.142	162.81
406.35	160.77
406.559	150.53
406.768	128
406.977	203.77
407.185	185.34
407.394	164.86
407.603	195.58
407.812	189.44
408.02	123.9
408.229	166.91
408.438	224.25
408.646	152.57
408.855	177.15
409.064	273.4
409.272	228.35
409.481	185.34
409.69	220.16
409.898	181.25
410.107	281.6
410.315	224.25
410.524	242.68
410.733	275.45
410.941	236.54
411.15	318.46
411.358	304.12
411.567	332.79
411.775	326.65
411.984	291.84
412.192	285.69
412.401	343.03
412.609	334.84
412.818	365.56
413.026	326.65
413.234	377.85
413.443	336.89
413.651	402.43
413.86	414.71
414.068	447.48
414.276	463.86
414.485	517.11
414.693	414.71
414.901	504.82
415.11	486.39
415.318	553.98
415.526	467.96
415.734	551.93
415.943	578.55
416.151	541.69
416.359	551.93
416.567	590.84
416.776	650.23
416.984	654.33
417.192	670.71
417.4	738.29
417.608	687.09
417.817	742.39
418.025	848.88
418.233	791.54
418.441	846.84
418.649	840.69
418.857	834.55
419.065	867.31
419.273	938.99
419.481	953.33
419.689	1012.72
419.897	1055.73
420.105	1108.98
420.313	1027.06
420.521	1190.89
420.729	1156.08
420.937	1125.36
421.145	1164.27
421.353	1221.61
421.561	1313.77
421.769	1381.35
421.977	1369.07
422.185	1319.92
422.393	1471.47
422.601	1584.1
422.809	1551.34
423.017	1573.86
423.224	1623.02
423.432	1618.92
423.64	1727.46
423.848	1827.81
424.056	1803.24
424.263	1915.87
424.471	1936.35
424.679	1903.59
424.887	2092
425.094	2001.89
425.302	2034.66
425.51	2235.36
425.718	2311.13
425.925	2182.11
426.133	2339.8
426.341	2558.94
426.548	2563.03
426.756	2614.23
426.964	2661.34
427.171	2726.87
427.379	2859.99
427.586	2835.41
427.794	3009.49
428.001	3066.83
428.209	3253.2
428.417	3232.72
428.624	3343.31
428.832	3306.45
429.039	3484.62
429.247	3410.89
429.454	3777.48
429.662	3980.23
429.869	3630.02
430.076	4074.43
430.284	3795.91
430.491	4015.04
430.699	4355.01
430.906	4402.11
431.114	4412.35
431.321	4373.44
431.528	4631.48
431.736	4883.38
431.943	5114.8
432.15	5043.12
432.358	5153.71
432.565	5215.15
432.772	5292.98
432.979	5579.69
433.187	5647.27
433.394	5551.02
433.601	6003.62
433.808	6089.64
434.016	5983.14
434.223	6224.8
434.43	6523.8
434.637	6548.38
434.844	6980.5
435.052	6998.93
435.259	6941.59
435.466	7134.1
435.673	6966.17
435.88	7631.76
436.087	7906.18
436.294	7795.59
436.501	7779.21
436.708	7857.03
436.915	8203.14
437.122	8586.11
437.329	8366.98
437.537	8702.84
437.743	8721.27
437.95	8727.42
438.157	9235.32
438.364	9352.05
438.571	9552.75
438.778	9753.45
438.985	10400.61
439.192	10072.93
439.399	10423.14
439.606	10048.36
439.813	10734.43
440.02	11406.16
440.227	10875.74
440.433	10967.9
440.64	11418.45
440.847	11246.42
441.054	11641.68
441.261	12219.21
441.467	12049.22
441.674	12516.16
441.881	12901.18
442.088	12804.92
442.294	12804.92
442.501	12956.47
442.708	13482.8
442.914	13974.31
443.121	14660.38
443.328	14080.81
443.534	15119.13
443.741	14938.91
443.948	14529.31
444.154	15610.64
444.361	15354.65
444.568	15479.57
444.774	15299.35
444.981	15698.7
445.187	16255.75
445.394	16876.29
445.6	16804.61
445.807	18541.29
446.013	17691.38
446.22	17787.63
446.426	18514.66
446.633	18580.2
446.839	19202.78
447.046	18518.76
447.252	19358.42
447.459	19682
447.665	19634.9
447.871	20513.48
448.078	21199.55
448.284	20202.19
448.491	20755.14
448.697	21375.67
448.903	21875.38
449.11	21889.71
449.316	21727.92
449.522	21938.87
449.728	22766.24
449.935	22485.67
450.141	22723.24
450.347	23192.22
450.553	22672.04
450.76	22643.37
450.966	23548.57
451.172	22749.86
451.378	23700.12
451.584	23493.27
451.791	23753.37
451.997	23724.69
452.203	24277.65
452.409	24179.34
452.615	24035.99
452.821	23122.59
453.027	23122.59
453.233	23954.07
453.44	23102.11
453.646	23397.02
453.852	23548.57
454.058	23939.73
454.264	22981.28
454.47	23065.25
454.676	22928.03
454.882	23620.25
455.088	21529.27
455.294	21916.34
455.5	22538.92
455.705	22379.18
455.911	21400.25
456.117	21291.71
456.323	21056.19
456.529	19352.28
456.735	20568.77
456.941	20173.52
457.147	19636.95
457.352	19235.55
457.558	18598.63
457.764	18682.59
457.97	18481.89
458.176	18127.6
458.381	18207.47
458.587	17236.73
458.793	17158.91
458.999	16409.35
459.204	17560.31
459.41	16763.65
459.616	15915.79
459.821	16106.25
460.027	15639.31
460.233	15340.31
460.438	14844.7
460.644	15049.5
460.85	14248.74
461.055	13904.68
461.261	14084.91
461.466	12970.81
461.672	12727.1
461.878	13556.53
462.083	12712.77
462.289	12430.15
462.494	12159.81
462.7	11596.62
462.905	11637.58
463.111	11826
463.316	11639.63
463.522	11641.68
463.727	11647.82
463.932	11795.28
464.138	11524.94
464.343	11639.63
464.549	11078.49
464.754	11492.18
464.959	11488.08
465.165	11420.5
465.37	10910.55
465.575	10707.8
465.781	11105.11
465.986	11215.7
466.191	10838.87
466.397	10611.55
466.602	9988.97
466.807	10498.91
467.012	10316.64
467.218	10142.57
467.423	10111.85
467.628	10161
467.833	10664.8
468.038	10398.56
468.244	9995.11
468.449	10431.33
468.654	9767.79
468.859	9894.76
469.064	9923.43
469.269	9315.19
469.474	9800.55
469.679	9716.59
469.885	9595.76
470.09	9765.74
470.295	9438.06
470.5	9276.27
470.705	9505.65
470.91	9339.76
471.115	9083.77
471.32	9458.54
471.525	9325.43
471.73	8825.72
471.935	8838.01
472.139	8674.17
472.344	8756.09
472.549	8567.68
472.754	8643.45
472.959	8459.13
473.164	8184.71
473.369	8035.21
473.574	8276.87
473.778	8254.34
473.983	8123.27
474.188	8229.76
474.393	7728.01
474.598	7723.91
474.802	8018.82
475.007	7836.55
475.212	7805.83
475.417	7568.27
475.621	7592.84
475.826	7521.17
476.031	7472.01
476.235	7236.5
476.44	7306.13
476.645	7168.91
476.849	7252.88
477.054	7314.32
477.259	7162.77
477.463	6949.78
477.668	6712.22
477.872	6996.89
478.077	6765.46
478.282	6646.68
478.486	6568.86
478.691	6658.97
478.895	6589.34
479.1	6548.38
479.304	6491.04
479.509	6392.73
479.713	6562.72
479.918	6431.65
480.122	6183.84
480.326	6218.66
480.531	6298.53
480.735	6290.34
480.94	6146.98
481.144	6269.86
481.348	6011.81
481.553	6198.18
481.757	5913.51
481.961	6122.4
482.166	6103.97
482.37	6157.22
482.574	5983.14
482.778	5983.14
482.983	6087.59
483.187	6134.69
483.391	6149.03
483.595	5983.14
483.8	6087.59
484.004	5981.09
484.208	6327.2
484.412	5862.31
484.616	5964.71
484.821	6116.26
485.025	5970.85
485.229	6163.36
485.433	5995.43
485.637	6020
485.841	5960.61
486.045	5909.41
486.249	5907.37
486.453	6048.68
486.657	6032.29
486.861	6050.72
487.065	6015.91
487.269	5999.52
487.473	6030.24
487.677	6030.24
487.881	6042.53
488.085	6063.01
488.289	6163.36
488.493	5977
488.697	6091.68
488.901	6087.59
489.105	6128.55
489.309	6200.23
489.512	6130.59
489.716	6118.31
489.92	6142.88
490.124	6226.85
490.328	6091.68
490.531	6103.97
490.735	6319.01
490.939	6218.66
491.143	6214.56
491.346	6130.59
491.55	6333.34
491.754	6374.3
491.958	6388.64
492.161	6263.71
492.365	6296.48
492.569	6398.88
492.772	6208.42
492.976	6613.92
493.18	6419.36
493.383	6519.71
493.587	6597.53
493.79	6806.42
493.994	6570.91
494.197	6630.3
494.401	6613.92
494.605	6759.32
494.808	6763.42
495.012	6706.07
495.215	6943.64
495.419	7046.04
495.622	6949.78
495.825	7054.23
496.029	6964.12
496.232	7289.74
496.436	7240.59
496.639	7439.25
496.843	7265.17
497.046	7445.39
497.249	7682.95
497.453	7691.15
497.656	7711.63
497.859	7732.11
498.063	7846.79
498.266	8053.64
498.469	8082.31
498.673	8057.73
498.876	8141.7
499.079	8448.9
499.282	8358.78
499.485	8524.67
499.689	8526.72
499.892	8719.23
500.095	8637.31
500.298	8891.26
500.501	8817.53
500.705	8895.35
500.908	9118.58
501.111	9294.71
501.314	9360.24
501.517	9489.26
501.72	9745.26
501.923	9362.29
502.126	9952.1
502.329	9780.07
502.532	9976.68
502.735	10062.69
502.938	10320.74
503.141	10300.26
503.344	10511.2
503.547	10550.11
503.75	10890.07
503.953	10924.89
504.156	11092.82
504.359	11066.2
504.562	11443.03
504.765	11533.14
504.968	11457.36
505.17	11875.15
505.373	11680.59
505.576	11936.59
505.779	12301.12
505.982	12368.71
506.185	12487.49
506.387	12546.88
506.59	12665.66
506.793	13011.77
506.996	12933.95
507.198	13321.01
507.401	13273.91
507.604	13515.57
507.807	13703.98
508.009	13697.84
508.212	13921.07
508.415	14123.82
508.617	14494.5
508.82	14279.46
509.022	14162.73
509.225	15014.68
509.428	14883.61
509.63	14996.25
509.833	15223.58
510.035	15541.01
510.238	15760.14
510.44	15889.17
510.643	16036.62
510.845	16104.2
511.048	16046.86
511.25	16110.35
511.453	16450.31
511.655	17052.41
511.858	16993.02
512.06	17081.08
512.262	17224.44
512.465	17464.05
512.667	17752.82
512.87	18045.68
513.072	17924.85
513.274	18342.63
513.477	18348.78
513.679	18723.55
513.881	19145.44
514.084	19436.25
514.286	19122.91
514.488	19331.8
514.69	20036.3
514.893	20019.92
515.095	20042.45
515.297	20556.49
515.499	20540.1
515.701	20937.41
515.904	21424.83
516.106	21037.76
516.308	21572.28
516.51	21973.68
516.712	21772.98
516.914	22129.33
517.116	22938.27
517.318	22633.13
517.52	22727.33
517.722	22823.59
517.925	23388.83
518.127	23741.08
518.329	23925.39
518.531	23585.43
518.733	24341.13
518.935	24605.32
519.136	24531.59
519.338	24900.23
519.54	25008.77
519.742	25369.21
519.944	25467.52
520.146	25911.92
520.348	25977.46
520.55	26303.09
520.752	26264.18
520.954	26901.09
521.155	26606.19
521.357	27353.69
521.559	27423.33
521.761	27660.89
521.963	27963.99
522.164	28162.64
522.366	28158.55
522.568	28795.46
522.77	28705.35
522.971	29160
523.173	29010.5
523.375	29575.74
523.576	29276.74
523.778	29315.65
523.98	29923.9
524.181	30173.75
524.383	29930.04
524.584	30304.82
524.786	30958.12
524.988	30247.47
525.189	31101.48
525.391	31113.77
525.592	31517.22
525.794	31812.12
525.995	31758.88
526.197	32283.16
526.398	31740.44
526.6	31918.62
526.801	32225.81
527.003	32586.25
527.204	32707.08
527.406	32965.13
527.607	32444.94
527.808	32981.51
528.01	32840.2
528.211	32885.26
528.412	33671.68
528.614	33497.6
528.815	33477.12
529.016	33706.49
529.218	33438.21
529.419	33604.1
529.62	33657.34
529.822	33882.62
530.023	33972.73
530.224	33530.37
530.425	34066.94
530.626	33530.37
530.828	33985.02
531.029	34320.88
531.23	34089.46
531.431	34165.24
531.632	34517.49
531.833	34714.09
532.035	34666.99
532.236	34415.09
532.437	35099.11
532.638	34472.43
532.839	34759.15
533.04	35037.67
533.241	34302.45
533.442	35086.82
533.643	35160.55
533.844	34941.42
534.045	35265
534.246	34718.19
534.447	35119.59
534.648	34992.62
534.849	34912.75
535.05	34963.95
535.251	34965.99
535.451	34978.28
535.652	35578.34
535.853	35254.76
536.054	35275.24
536.255	35635.68
536.456	34783.73
536.657	35629.54
536.857	35068.39
537.058	35314.15
537.259	35639.78
537.46	35385.83
537.66	35138.02
537.861	35074.54
538.062	35404.26
538.263	35158.5
538.463	35193.32
538.664	34886.12
538.865	35289.57
539.065	35318.25
539.266	34830.83
539.466	35647.97
539.667	35000.81
539.868	35617.25
540.068	35201.51
540.269	35170.79
540.469	35103.21
540.67	35281.38
540.87	34949.61
541.071	35500.51
541.271	35262.95
541.472	35025.39
541.672	35123.69
541.873	35074.54
542.073	34791.92
542.274	35346.92
542.474	35242.47
542.675	35023.34
542.875	35254.76
543.075	35181.03
543.276	34763.25
543.476	35355.11
543.676	34998.76
543.877	35004.91
544.077	35299.81
544.277	34982.38
544.478	34931.18
544.678	35353.06
544.878	35115.5
545.078	35144.17
545.279	35142.12
545.479	35115.5
545.679	35361.25
545.879	35111.4
546.079	35070.44
546.28	34855.4
546.48	34554.35
546.68	35455.46
546.88	35101.16
547.08	35199.46
547.28	34839.02
547.48	34982.38
547.68	34683.37
547.88	34652.66
548.081	35371.49
548.281	34742.77
548.481	34890.22
548.681	35559.91
548.881	35217.89
549.081	35027.43
549.28	34939.37
549.48	35441.12
549.68	34828.78
549.88	35324.39
550.08	34679.28
550.28	34816.49
550.48	35199.46
550.68	35045.87
550.88	34916.84
551.08	34927.08
551.279	34705.9
551.479	34658.8
551.679	35082.73
551.879	34726.38
552.079	35205.61
552.278	34714.09
552.478	34992.62
552.678	34705.9
552.878	34970.09
553.077	34843.12
553.277	34777.58
553.477	35045.87
553.676	34925.04
553.876	34580.98
554.076	34650.61
554.275	34806.25
554.475	34144.76
554.674	34267.64
554.874	34701.81
555.074	34433.52
555.273	34365.94
555.473	34693.61
555.672	34335.22
555.872	34454
556.071	34306.55
556.271	34613.74
556.47	34337.27
556.67	34042.36
556.869	34349.56
557.068	34339.32
557.268	34279.92
557.467	34243.06
557.667	34277.88
557.866	34195.96
558.065	33720.83
558.265	33933.82
558.464	33700.35
558.663	33856
558.863	33520.13
559.062	34238.97
559.261	33544.7
559.461	33925.63
559.66	33417.73
559.859	33735.17
560.058	33618.43
560.258	33767.93
560.457	33102.34
560.656	33493.5
560.855	33176.07
561.054	33372.67
561.253	33073.67
561.453	33296.9
561.652	33171.97
561.851	33221.13
562.05	32621.07
562.249	32612.88
562.448	33491.46
562.647	32991.75
562.846	32694.8
563.045	33231.36
563.244	32594.45
563.443	33184.26
563.642	32524.82
563.841	32440.85
564.04	32420.37
564.239	32547.34
564.438	32088.6
564.637	32432.66
564.836	32217.62
565.035	31810.07
565.234	32266.77
565.432	32008.73
565.631	31961.62
565.83	32131.61
566.029	31750.68
566.228	31808.03
566.427	32107.03
566.625	31658.52
566.824	31347.23
567.023	31902.23
567.222	31222.31
567.42	31662.62
567.619	31554.08
567.818	31478.3
568.016	31064.61
568.215	31504.93
568.414	30972.46
568.612	31142.44
568.811	30704.17
569.01	30675.5
569.208	30458.42
569.407	30990.89
569.605	30200.37
569.804	30790.19
570.002	30556.72
570.201	30403.12
570.4	30233.14
570.598	29946.42
570.797	29874.74
570.995	30251.57
571.193	29739.58
571.392	30106.16
571.59	29653.56
571.789	29823.54
571.987	29772.35
572.186	29588.03
572.384	29266.5
572.582	29491.77
572.781	29409.86
572.979	29264.45
573.177	29104.71
573.376	29346.37
573.574	28949.06
573.772	28858.95
573.971	28328.53
574.169	28123.73
574.367	28463.69
574.565	28607.05
574.763	28154.45
574.962	28447.31
575.16	28041.81
575.358	28244.56
575.556	27955.8
575.754	28465.74
575.952	28320.34
576.151	28156.5
576.349	27767.38
576.547	27812.44
576.745	27673.18
576.943	27906.65
577.141	27538.01
577.339	27703.9
577.537	27462.24
577.735	27253.34
577.933	27009.64
578.131	27003.49
578.329	27161.19
578.527	26802.79
578.725	27140.71
578.923	27085.41
579.121	26548.84
579.319	26358.38
579.516	26960.48
579.714	26225.26
579.912	26479.21
580.11	26542.7
580.308	26554.99
580.506	26165.87
580.704	25619.07
580.901	25965.17
581.099	26169.97
581.297	25875.06
581.495	25848.44
581.692	25731.7
581.89	25326.21
582.088	25649.78
582.285	25543.29
582.483	25725.56
582.681	25287.29
582.878	25256.57
583.076	25016.96
583.274	25225.86
583.471	24947.33
583.669	25315.97
583.866	24881.8
584.064	24736.39
584.262	24509.07
584.459	24879.75
584.657	24789.64
584.854	24781.45
585.052	23970.45
585.249	24242.83
585.447	24316.56
585.644	24234.64
585.841	24253.07
586.039	24255.12
586.236	23919.25
586.434	23915.16
586.631	23896.72
586.828	23974.55
587.026	23976.59
587.223	23698.07
587.42	23650.97
587.618	23501.47
587.815	23630.49
588.012	22962.85
588.21	23067.3
588.407	23493.27
588.604	23364.25
588.801	22989.47
588.999	23423.64
589.196	22971.04
589.393	23155.36
589.59	22989.47
589.787	22844.07
589.984	22565.54
590.182	22461.1
590.379	22756
590.576	22370.99
590.773	22448.81
590.97	22401.71
591.167	22393.51
591.364	22301.36
591.561	22252.2
591.758	21832.37
591.955	22186.67
592.152	22076.08
592.349	22110.89
592.546	21680.82
592.743	21762.74
592.94	21707.44
593.137	21678.77
593.334	21744.31
593.531	21592.76
593.727	21336.76
593.924	21365.43
594.121	21519.03
594.318	21459.64
594.515	21150.4
594.712	21469.88
594.908	21093.05
595.105	21041.85
595.302	21148.35
595.499	20978.37
595.696	20972.22
595.892	20792
596.089	20722.37
596.286	20863.68
596.482	20792
596.679	20486.86
596.876	20572.87
597.072	20519.62
597.269	20048.59
597.466	20241.1
597.662	20458.18
597.859	20435.66
598.055	20212.43
598.252	20081.36
598.448	20101.84
598.645	19999.44
598.841	19659.48
599.038	19851.99
599.234	19938
599.431	19628.76
599.627	19696.34
599.824	19706.58
600.02	19602.13
600.217	19614.42
600.413	19327.71
600.609	19581.65
600.806	19024.61
601.002	19366.62
601.198	19163.87
601.395	18997.98
601.591	19057.37
601.787	18868.96
601.984	18832.1
602.18	19075.8
602.376	18606.82
602.572	18713.31
602.769	18957.02
602.965	18412.26
603.161	18567.91
603.357	18549.48
603.553	18639.59
603.75	18330.34
603.946	18275.05
604.142	18326.25
604.338	18125.55
604.534	18184.94
604.73	18014.96
604.926	17951.47
605.122	17900.27
605.318	17904.37
605.514	17664.75
605.71	17896.17
605.906	17724.15
606.102	17699.57
606.298	17797.87
606.494	17793.78
606.69	17545.97
606.886	17545.97
607.082	17199.87
607.278	17388.28
607.474	17099.52
607.67	17355.51
607.866	17058.56
608.062	17337.08
608.257	16835.33
608.453	17320.7
608.649	17087.23
608.845	16847.61
609.041	16982.78
609.236	16978.68
609.432	16767.74
609.628	16714.5
609.824	16904.96
610.019	16581.38
610.215	16487.17
610.411	16501.51
610.606	16599.81
610.802	16706.31
610.998	16378.63
611.193	16620.29
611.389	16356.1
611.584	16290.57
611.78	16450.31
611.976	16302.86
612.171	16220.94
612.367	16315.14
612.562	16124.68
612.758	15964.94
612.953	16120.59
613.149	16098.06
613.344	15747.86
613.539	16354.05
613.735	16001.8
613.93	15852.3
614.126	15706.9
614.321	16010
614.517	15690.51
614.712	15719.18
614.907	15653.65
615.103	15731.47
615.298	15395.61
615.493	15545.11
615.688	15297.3
615.884	15645.46
616.079	15418.13
616.274	15557.39
616.47	15563.54
616.665	15194.9
616.86	15260.44
617.055	15219.48
617.25	14924.57
617.445	15293.21
617.641	14924.57
617.836	15096.6
618.031	14766.88
618.226	14981.92
618.421	14912.28
618.616	14871.33
618.811	14603.04
619.006	15141.66
619.201	14396.2
619.396	14672.67
619.591	14521.12
619.786	14605.09
619.981	14416.68
620.176	14523.17
620.371	14347.05
620.566	14201.64
620.761	14222.12
620.956	14398.24
621.151	13861.68
621.346	14086.95
621.541	13826.86
621.735	13894.44
621.93	13536.05
622.125	13726.51
622.32	13560.63
622.515	13787.95
622.709	13398.84
622.904	13589.3
623.099	13488.95
623.294	13624.11
623.488	13046.58
623.683	13132.6
623.878	12944.19
624.072	13148.98
624.267	12958.52
624.462	12956.47
624.656	12749.63
624.851	12839.74
625.046	12534.59
625.24	12358.47
625.435	12448.58
625.629	12473.15
625.824	12354.37
626.018	12440.39
626.213	12034.89
626.407	12135.24
626.602	11922.25
626.796	12096.33
626.991	12000.07
627.185	11895.63
627.38	11600.72
627.574	11838.28
627.768	11570
627.963	11424.59
628.157	11330.39
628.352	11502.42
628.546	11223.89
628.74	11529.04
628.935	11402.07
629.129	11430.74
629.323	10857.31
629.517	11154.26
629.712	10941.27
629.906	11170.65
630.1	10859.35
630.294	10797.92
630.489	10873.69
630.683	10845.02
630.877	10593.12
631.071	10918.75
631.265	10703.71
631.459	10503.01
631.653	10410.85
631.848	10529.63
632.042	10539.87
632.236	10519.39
632.43	10427.23
632.624	10310.5
632.818	10122.09
633.012	10126.18
633.206	10148.71
633.4	10034.02
633.594	10048.36
633.788	10152.81
633.982	9886.57
634.176	9907.05
634.369	9771.88
634.563	9700.2
634.757	9683.82
634.951	9720.68
635.145	9550.7
635.339	9622.38
635.533	9472.88
635.726	9503.6
635.92	9282.42
636.114	9370.48
636.308	9132.92
636.501	9159.54
636.695	9284.47
636.889	9282.42
637.083	9061.24
637.276	9171.83
637.47	9042.81
637.664	9067.38
637.857	8971.13
638.051	8715.13
638.244	8803.19
638.438	8881.02
638.632	8622.97
638.825	8584.06
639.019	8569.73
639.212	8524.67
639.406	8532.86
639.599	8457.09
639.793	8348.54
639.986	8420.22
640.18	8385.41
640.373	8252.29
640.567	8141.7
640.76	8182.66
640.954	7998.34
641.147	8063.88
641.34	8049.54
641.534	7971.72
641.727	7885.7
641.92	7795.59
642.114	7900.04
642.307	8014.73
642.5	7771.02
642.694	7615.37
642.887	7537.55
643.08	7609.23
643.273	7705.48
643.467	7637.9
643.66	7558.03
643.853	7379.86
644.046	7400.34
644.239	7381.9
644.432	7314.32
644.626	7136.15
644.819	7224.21
645.012	7431.05
645.205	7191.44
645.398	7265.17
645.591	7039.89
645.784	7054.23
645.977	6962.07
646.17	6947.73
646.363	6826.9
646.556	6761.37
646.749	6710.17
646.942	6736.79
647.135	6683.55
647.328	6656.92
647.521	6568.86
647.714	6511.52
647.907	6474.65
648.099	6499.23
648.292	6509.47
648.485	6351.78
648.678	6431.65
648.871	6308.77
649.064	6333.34
649.256	6357.92
649.449	6192.03
649.642	6114.21
649.835	6114.21
650.027	6157.22
650.22	6118.31
650.413	5989.28
650.605	6042.53
650.798	6034.34
650.991	5841.83
651.183	5993.38
651.376	5968.8
651.568	5919.65
651.761	5766.06
651.954	5741.48
652.146	5725.1
652.339	5753.77
652.531	5753.77
652.724	5682.09
652.916	5489.58
653.109	5639.08
653.301	5647.27
653.494	5475.24
653.686	5405.61
653.879	5532.59
654.071	5563.31
654.263	5391.28
654.456	5393.33
654.648	5350.32
654.84	5391.28
655.033	5247.92
655.225	5227.44
655.417	5182.38
655.61	5180.34
655.802	5039.03
655.994	5075.89
656.186	5108.66
656.379	5020.6
656.571	5020.6
656.763	4940.72
656.955	4856.76
657.148	4828.09
657.34	4926.39
657.532	4832.18
657.724	4795.32
657.916	4832.18
658.108	4811.7
658.3	4746.17
658.492	4883.38
658.684	4758.46
658.876	4733.88
659.068	4666.3
659.26	4719.54
659.452	4541.37
659.644	4715.45
659.836	4484.03
660.028	4422.59
660.22	4465.6
660.412	4387.77
660.604	4385.73
660.796	4320.19
660.988	4348.86
661.18	4287.42
661.372	4400.06
661.563	4340.67
661.755	4101.06
661.947	4197.31
662.139	4275.13
662.331	4205.5
662.522	4176.83
662.714	4090.82
662.906	4172.74
663.097	4078.53
663.289	3984.32
663.481	4053.95
663.673	4082.63
663.864	4056
664.056	3982.28
664.247	3918.79
664.439	3785.67
664.631	3984.32
664.822	3992.52
665.014	3908.55
665.205	3736.52
665.397	3746.76
665.588	3861.45
665.78	3687.37
665.971	3695.56
666.163	3740.61
666.354	3777.48
666.546	3677.13
666.737	3550.15
666.929	3728.33
667.12	3621.83
667.311	3550.15
667.503	3560.39
667.694	3718.09
667.885	3589.07
668.077	3458
668.268	3535.82
668.459	3484.62
668.651	3527.63
668.842	3382.22
669.033	3564.49
669.224	3441.61
669.416	3513.29
669.607	3439.56
669.798	3359.69
669.989	3306.45
670.18	3470.28
670.371	3288.01
670.563	3371.98
670.754	3302.35
670.945	3337.17
671.136	3156.94
671.327	3273.68
671.518	3251.15
671.709	3269.58
671.9	3290.06
672.091	3210.19
672.282	3185.62
672.473	3314.64
672.664	3220.43
672.855	3124.18
673.046	3167.18
673.237	3222.48
673.428	3132.37
673.619	3124.18
673.809	3128.27
674	3154.9
674.191	3142.61
674.382	3023.83
674.573	3150.8
674.764	3075.03
674.954	3142.61
675.145	3009.49
675.336	2946
675.527	3007.44
675.717	3001.3
675.908	3032.02
676.099	2968.53
676.289	2956.24
676.48	2954.19
676.671	2845.65
676.861	2997.2
677.052	2903
677.243	2913.24
677.433	2966.48
677.624	2900.95
677.814	2884.56
678.005	2880.47
678.195	2849.75
678.386	2886.61
678.576	2859.99
678.767	2800.6
678.957	2888.66
679.148	2833.36
679.338	2825.17
679.529	2769.88
679.719	2763.73
679.909	2786.26
680.1	2710.49
680.29	2669.53
680.481	2855.89
680.671	2673.62
680.861	2780.12
681.052	2718.68
681.242	2855.89
681.432	2706.39
681.622	2876.37
681.813	2743.25
682.003	2784.21
682.193	2706.39
682.383	2673.62
682.573	2636.76
682.764	2720.73
682.954	2616.28
683.144	2700.25
683.334	2749.4
683.524	2700.25
683.714	2814.93
683.904	2606.04
684.094	2690.01
684.284	2569.18
684.474	2681.82
684.664	2733.01
684.854	2720.73
685.044	2587.61
685.234	2567.13
685.424	2608.09
685.614	2595.8
685.804	2692.05
685.994	2589.66
686.184	2563.03
686.374	2663.38
686.564	2614.23
686.753	2636.76
686.943	2524.12
687.133	2571.22
687.323	2593.75
687.513	2540.51
687.702	2595.8
687.892	2552.79
688.082	2560.98
688.272	2552.79
688.461	2485.21
688.651	2538.46
688.841	2505.69
689.03	2464.73
689.22	2571.22
689.41	2458.59
689.599	2571.22
689.789	2585.56
689.979	2462.68
690.168	2511.83
690.358	2438.11
690.547	2362.33
690.737	2454.49
690.926	2485.21
691.116	2477.02
691.305	2515.93
691.495	2452.44
691.684	2448.35
691.874	2427.87
692.063	2581.46
692.252	2495.45
692.442	2509.79
692.631	2556.89
692.82	2493.4
693.01	2421.72
693.199	2458.59
693.388	2405.34
693.578	2571.22
693.767	2425.82
693.956	2388.96
694.146	2327.52
694.335	2362.33
694.524	2411.48
694.713	2560.98
694.902	2468.83
695.092	2333.66
695.281	2368.48
695.47	2548.7
695.659	2442.2
695.848	2345.95
696.037	2386.91
696.226	2517.98
696.415	2374.62
696.604	2319.32
696.793	2343.9
696.982	2540.51
697.171	2440.15
697.36	2440.15
697.549	2540.51
697.738	2507.74
697.927	2366.43
698.116	2417.63
698.305	2358.24
698.494	2454.49
698.683	2368.48
698.872	2454.49
699.061	2409.44
699.25	2362.33
699.438	2370.52
699.627	2393.05
699.816	2491.35
700.005	2462.68
700.193	2278.37
700.382	2378.72
700.571	2313.18
700.76	2442.2
700.948	2401.24
701.137	2378.72
701.326	2440.15
701.514	2448.35
701.703	2372.57
701.892	2429.91
702.08	2294.75
702.269	2284.51
702.457	2364.38
702.646	2350.04
702.834	2325.47
703.023	2444.25
703.212	2358.24
703.4	2370.52
703.589	2335.71
703.777	2343.9
703.965	2356.19
704.154	2415.58
704.342	2399.2
704.531	2241.5
704.719	2315.23
704.907	2247.65
705.096	2362.33
705.284	2397.15
705.472	2356.19
705.661	2307.04
705.849	2329.56
706.037	2233.31
706.226	2370.52
706.414	2360.28
706.602	2296.8
706.79	2272.22
706.979	2231.26
707.167	2399.2
707.355	2264.03
707.543	2429.91
707.731	2169.82
707.919	2235.36
708.107	2223.07
708.296	2241.5
708.484	2212.83
708.672	2204.64
708.86	2251.74
709.048	2182.11
709.236	2247.65
709.424	2247.65
709.612	2247.65
709.8	2208.73
709.988	2204.64
710.176	2169.82
710.364	2237.41
710.551	2143.2
710.739	2137.06
710.927	2178.01
711.115	2118.62
711.303	2259.93
711.491	2038.75
711.679	2061.28
711.866	2272.22
712.054	2147.3
712.242	2081.76
712.43	2147.3
712.617	2081.76
712.805	2026.47
712.993	2126.82
713.181	1999.84
713.368	2067.42
713.556	2071.52
713.744	2032.61
713.931	2063.33
714.119	2143.2
714.306	1995.75
714.494	1971.17
714.682	2040.8
714.869	2024.42
715.057	1903.59
715.244	2087.9
715.432	1872.87
715.619	2126.82
715.807	2061.28
715.994	2012.13
716.182	1962.98
716.369	1922.02
716.556	1915.87
716.744	2061.28
716.931	1919.97
717.119	1887.2
717.306	1979.36
717.493	2044.9
717.681	1940.45
717.868	1919.97
718.055	1827.81
718.242	1944.55
718.43	1862.63
718.617	1840.1
718.804	1928.16
718.991	1922.02
719.179	1960.93
719.366	1858.53
719.553	1917.92
719.74	1840.1
719.927	1709.03
720.114	1823.72
720.301	1836
720.488	1887.2
720.676	1870.82
720.863	1825.76
721.05	1817.57
721.237	1829.86
721.424	1930.21
721.611	1801.19
721.798	1778.66
721.985	1774.56
722.172	1706.98
722.358	1764.33
722.545	1793
722.732	1719.27
722.919	1827.81
723.106	1786.85
723.293	1719.27
723.48	1768.42
723.667	1666.02
723.853	1702.89
724.04	1623.02
724.227	1782.76
724.414	1739.75
724.6	1696.74
724.787	1782.76
724.974	1721.32
725.161	1657.83
725.347	1743.85
725.534	1649.64
725.72	1635.3
725.907	1682.41
726.094	1688.55
726.28	1776.61
726.467	1713.13
726.653	1625.06
726.84	1625.06
727.027	1774.56
727.213	1680.36
727.4	1610.73
727.586	1606.63
727.773	1526.76
727.959	1641.45
728.145	1637.35
728.332	1731.56
728.518	1651.69
728.705	1663.97
728.891	1530.86
729.077	1604.58
729.264	1602.54
729.45	1547.24
729.636	1559.53
729.823	1625.06
730.009	1653.73
730.195	1663.97
730.382	1534.95
730.568	1592.3
730.754	1530.86
730.94	1518.57
731.126	1455.08
731.313	1575.91
731.499	1457.13
731.685	1532.9
731.871	1541.1
732.057	1608.68
732.243	1514.47
732.429	1563.62
732.615	1498.09
732.801	1475.56
732.987	1481.71
733.173	1393.64
733.359	1575.91
733.545	1504.23
733.731	1522.66
733.917	1559.53
734.103	1469.42
734.289	1549.29
734.475	1567.72
734.661	1403.88
734.847	1405.93
735.033	1434.6
735.219	1477.61
735.404	1434.6
735.59	1416.17
735.776	1395.69
735.962	1373.16
736.148	1541.1
736.333	1446.89
736.519	1459.18
736.705	1362.92
736.89	1432.55
737.076	1465.32
737.262	1407.98
737.447	1438.7
737.633	1383.4
737.819	1440.75
738.004	1278.96
738.19	1340.4
738.375	1399.79
738.561	1360.88
738.747	1266.67
738.932	1369.07
739.118	1360.88
739.303	1369.07
739.489	1309.68
739.674	1432.55
739.859	1342.44
740.045	1330.16
740.23	1358.83
740.416	1381.35
740.601	1403.88
740.786	1289.2
740.972	1170.41
741.157	1362.92
741.342	1305.58
741.528	1242.09
741.713	1293.29
741.898	1330.16
742.084	1240.05
742.269	1240.05
742.454	1274.86
742.639	1346.54
742.824	1217.52
743.01	1297.39
743.195	1246.19
743.38	1260.52
743.565	1330.16
743.75	1305.58
743.935	1217.52
744.12	1217.52
744.305	1207.28
744.49	1321.96
744.675	1248.24
744.86	1045.49
745.045	1131.5
745.23	1235.95
745.415	1221.61
745.6	1244.14
745.785	1094.64
745.97	1227.76
746.155	1252.33
746.34	1119.21
746.525	1190.89
746.71	1268.72
746.895	1061.87
747.079	1127.41
747.264	1260.52
747.449	1080.3
747.634	1158.13
747.819	1090.54
748.003	1182.7
748.188	1072.11
748.373	1043.44
748.557	1139.69
748.742	1160.17
748.927	1043.44
749.111	971.76
749.296	957.43
749.481	1115.12
749.665	1049.58
749.85	986.1
750.034	982
750.219	1049.58
750.404	951.28
750.588	969.71
750.773	953.33
750.957	975.86
751.141	998.38
751.326	1057.78
751.51	998.38
751.695	924.66
751.879	973.81
752.064	1055.73
752.248	1041.39
752.432	971.76
752.617	961.52
752.801	963.57
752.985	889.84
753.17	934.9
753.354	877.55
753.538	967.67
753.722	879.6
753.907	889.84
754.091	891.89
754.275	859.12
754.459	785.4
754.643	875.51
754.828	777.2
755.012	787.44
755.196	857.07
755.38	863.22
755.564	848.88
755.748	852.98
755.932	861.17
756.116	779.25
756.3	801.78
756.484	877.55
756.668	807.92
756.852	775.16
757.036	836.6
757.22	805.88
757.404	893.94
757.588	787.44
757.772	787.44
757.956	758.77
758.14	760.82
758.323	801.78
758.507	855.03
758.691	777.2
758.875	826.36
759.059	836.6
759.242	812.02
759.426	754.68
759.61	728.05
759.794	730.1
759.977	750.58
760.161	818.16
760.345	691.19
760.528	756.72
760.712	715.77
760.895	711.67
761.079	623.61
761.263	689.14
761.446	691.19
761.63	721.91
761.813	703.48
761.997	670.71
762.18	660.47
762.364	678.9
762.547	609.27
762.731	656.37
762.914	719.86
763.098	644.09
763.281	709.62
763.464	713.72
763.648	605.17
763.831	701.43
764.015	596.98
764.198	621.56
764.381	639.99
764.564	717.81
764.748	627.7
764.931	713.72
765.114	652.28
765.297	547.83
765.481	582.65
765.664	703.48
765.847	660.47
766.03	639.99
766.213	652.28
766.397	625.65
766.58	652.28
766.763	609.27
766.946	582.65
767.129	699.38
767.312	642.04
767.495	588.79
767.678	646.13
767.861	607.22
768.044	601.08
768.227	572.41
768.41	658.42
768.593	596.98
768.776	613.37
768.959	560.12
769.142	541.69
769.324	562.17
769.507	646.13
769.69	572.41
769.873	615.41
770.056	637.94
770.239	519.16
770.421	637.94
770.604	556.02
770.787	599.03
770.97	523.26
771.152	658.42
771.335	549.88
771.518	576.5
771.7	553.98
771.883	603.13
772.066	486.39
772.248	631.8
772.431	580.6
772.613	625.65
772.796	531.45
772.978	588.79
773.161	519.16
773.343	560.12
773.526	527.35
773.708	531.45
773.891	533.5
774.073	551.93
774.256	580.6
774.438	611.32
774.621	519.16
774.803	513.02
774.985	402.43
775.168	599.03
775.35	549.88
775.532	500.73
775.715	424.95
775.897	486.39
776.079	422.91
776.261	447.48
776.444	492.54
776.626	463.86
776.808	455.67
776.99	543.74
777.173	488.44
777.355	492.54
777.537	433.15
777.719	488.44
777.901	459.77
778.083	498.68
778.265	513.02
778.447	357.37
778.629	386.04
778.811	412.67
778.993	429.05
779.175	465.91
779.357	404.47
779.539	422.91
779.721	355.32
779.903	424.95
780.085	381.95
780.267	402.43
780.449	367.61
780.631	461.82
780.812	404.47
780.994	422.91
781.176	424.95
781.358	474.1
781.54	400.38
781.721	383.99
781.903	465.91
782.085	424.95
782.267	431.1
782.448	386.04
782.63	275.45
782.812	388.09
782.993	377.85
783.175	353.27
783.357	371.71
783.538	420.86
783.72	275.45
783.901	398.33
784.083	355.32
784.264	363.51
784.446	320.51
784.627	347.13
784.809	379.9
784.99	316.41
785.172	379.9
785.353	300.03
785.535	338.94
785.716	369.66
785.897	291.84
786.079	326.65
786.26	308.22
786.441	302.08
786.623	295.93
786.804	326.65
786.985	322.56
787.167	363.51
787.348	285.69
787.529	343.03
787.71	293.88
787.891	226.3
788.073	302.08
788.254	252.92
788.435	357.37
788.616	330.75
788.797	252.92
788.978	359.42
789.159	283.64
789.34	316.41
789.522	291.84
789.703	242.68
789.884	343.03
790.065	318.46
790.246	340.99
790.427	281.6
790.607	248.83
790.788	257.02
790.969	193.53
791.15	306.17
791.331	246.78
791.512	259.07
791.693	195.58
791.874	248.83
792.054	224.25
792.235	291.84
792.416	181.25
792.597	293.88
792.778	244.73
792.958	222.2
793.139	203.77
793.32	191.49
793.5	230.4
793.681	283.64
793.862	338.94
794.042	246.78
794.223	281.6
794.404	230.4
794.584	224.25
794.765	287.74
794.945	211.96
795.126	232.44
795.306	238.59
795.487	267.26
795.667	261.12
795.848	185.34
796.028	273.4
796.209	252.92
796.389	189.44
796.57	269.31
796.75	160.77
796.93	171.01
797.111	224.25
797.291	195.58
797.471	220.16
797.652	250.88
797.832	226.3
798.012	181.25
798.192	261.12
798.373	207.87
798.553	185.34
798.733	171.01
798.913	115.71
799.093	173.05
799.274	103.42
799.454	248.83
799.634	218.11
799.814	222.2
799.994	226.3
800.174	285.69
800.354	175.1
800.534	232.44
800.714	150.53
800.894	234.49
801.074	125.95
801.254	230.4
801.434	185.34
801.614	150.53
801.794	166.91
801.974	394.23
802.154	128
802.334	234.49
802.514	164.86
802.693	140.29
802.873	177.15
803.053	207.87
803.233	234.49
803.413	150.53
803.592	183.29
803.772	173.05
803.952	152.57
804.131	168.96
804.311	209.92
804.491	211.96
804.67	224.25
804.85	185.34
805.03	87.04
805.209	144.38
805.389	173.05
805.568	207.87
805.748	220.16
805.928	162.81
806.107	111.61
806.287	136.19
806.466	205.82
806.646	121.85
806.825	134.14
807.004	140.29
807.184	134.14
807.363	152.57
807.543	158.72
807.722	150.53
807.901	199.68
808.081	240.64
808.26	123.9
808.439	158.72
808.619	101.37
808.798	146.43
808.977	109.57
809.156	130.05
809.336	160.77
809.515	146.43
809.694	123.9
809.873	150.53
810.052	160.77
810.231	211.96
810.411	101.37
810.59	132.09
810.769	166.91
810.948	142.33
811.127	140.29
811.306	173.05
811.485	146.43
811.664	152.57
811.843	160.77
812.022	91.13
812.201	121.85
812.38	142.33
812.559	68.61
812.737	214.01
812.916	105.47
813.095	181.25
813.274	103.42
813.453	99.33
813.632	130.05
813.811	93.18
813.989	134.14
814.168	136.19
814.347	140.29
814.526	113.66
814.704	158.72
814.883	121.85
815.062	136.19
815.24	175.1
815.419	113.66
815.598	134.14
815.776	128
815.955	66.56
816.133	146.43
816.312	130.05
816.49	27.65
816.669	148.48
816.847	70.65
817.026	173.05
817.204	187.39
817.383	142.33
817.561	132.09
817.74	146.43
817.918	97.28
818.097	130.05
818.275	101.37
818.453	156.67
818.632	99.33
818.81	56.32
818.988	150.53
819.167	62.46
819.345	70.65
819.523	97.28
819.701	117.76
819.879	138.24
820.058	97.28
820.236	84.99
820.414	66.56
820.592	115.71
820.77	134.14
820.948	117.76
821.127	117.76
821.305	44.03
821.483	91.13
821.661	91.13
821.839	101.37
822.017	78.85
822.195	52.22
822.373	39.94
822.551	48.13
822.729	68.61
822.907	175.1
823.085	142.33
823.262	66.56
823.44	216.06
823.618	76.8
823.796	150.53
823.974	62.46
824.152	175.1
824.329	76.8
824.507	56.32
824.685	95.23
824.863	140.29
825.04	13.31
825.218	99.33
825.396	70.65
825.574	56.32
825.751	1.02
825.929	148.48
826.107	72.7
826.284	103.42
826.462	60.42
826.639	62.46
826.817	62.46
826.994	52.22
827.172	87.04
827.349	78.85
827.527	48.13
827.704	72.7
827.882	78.85
828.059	138.24
828.237	93.18
828.414	44.03
828.591	70.65
828.769	117.76
828.946	78.85
829.124	87.04
829.301	128
829.478	121.85
829.655	80.89
829.833	95.23
830.01	82.94
830.187	68.61
830.364	111.61
830.542	162.81
830.719	74.75
830.896	152.57
831.073	125.95
831.25	111.61
831.427	82.94
831.604	101.37
831.782	52.22
831.959	197.63
832.136	62.46
832.313	87.04
832.49	66.56
832.667	97.28
832.844	84.99
833.021	107.52
833.198	111.61
833.374	74.75
833.551	80.89
833.728	97.28
833.905	158.72
834.082	37.89
834.259	80.89
834.436	46.08
834.612	84.99
834.789	111.61
834.966	9.22
835.143	105.47
835.319	117.76
835.496	66.56
835.673	121.85
835.85	70.65
836.026	66.56
836.203	70.65
836.38	48.13
836.556	25.6
836.733	60.42
836.909	107.52
837.086	29.7
837.262	66.56
837.439	-15.36
837.616	1.02
837.792	44.03
837.968	72.7
838.145	82.94
838.321	87.04
838.498	68.61
838.674	95.23
838.851	107.52
839.027	54.27
839.203	109.57
839.38	101.37
839.556	44.03
839.732	128
839.909	58.37
840.085	80.89
840.261	97.28
840.437	80.89
840.614	33.79
840.79	103.42
840.966	109.57
841.142	76.8
841.318	113.66
841.494	95.23
841.671	80.89
841.847	52.22
842.023	101.37
842.199	91.13
842.375	31.74
842.551	113.66
842.727	13.31
842.903	64.51
843.079	41.98
843.255	187.39
843.431	66.56
843.607	64.51
843.783	27.65
843.959	93.18
844.134	60.42
844.31	99.33
844.486	101.37
844.662	17.41
844.838	91.13
845.013	123.9
845.189	91.13
845.365	76.8
845.541	48.13
845.716	46.08
845.892	29.7
846.068	95.23
846.244	-25.6
846.419	54.27
846.595	21.5
846.77	39.94
846.946	76.8
847.122	23.55
847.297	76.8
847.473	44.03
847.648	48.13
847.824	97.28
847.999	84.99
848.175	60.42
848.35	33.79
848.526	125.95
848.701	27.65
848.876	72.7
849.052	31.74
849.227	29.7
849.403	50.18
849.578	50.18
849.753	23.55
849.929	68.61
850.104	72.7
850.279	82.94
850.454	52.22
850.63	89.09
850.805	76.8
850.98	89.09
851.155	62.46
851.33	72.7
851.505	56.32
851.681	72.7
851.856	29.7
852.031	60.42
852.206	31.74
852.381	9.22
852.556	37.89
852.731	27.65
852.906	58.37
853.081	29.7
853.256	11.26
853.431	76.8
853.606	72.7
853.781	60.42
853.956	60.42
854.131	50.18
854.305	39.94
854.48	25.6
854.655	64.51
854.83	76.8
855.005	58.37
855.18	128
855.354	76.8
855.529	89.09
855.704	39.94
855.879	144.38
856.053	7.17
856.228	103.42
856.403	56.32
856.577	52.22
856.752	37.89
856.926	54.27
857.101	29.7
857.276	84.99
857.45	115.71
857.625	41.98
857.799	91.13
857.974	134.14
858.148	62.46
858.323	50.18
858.497	23.55
858.672	48.13
858.846	64.51
859.02	125.95
859.195	35.84
859.369	156.67
859.543	62.46
859.718	46.08
859.892	82.94
860.066	7.17
860.241	-35.84
860.415	29.7
860.589	72.7
860.763	54.27
860.938	31.74
861.112	91.13
861.286	13.31
861.46	-3.07
861.634	25.6
861.808	58.37
861.982	-29.7
862.157	58.37
862.331	171.01
862.505	93.18
862.679	25.6
862.853	72.7
863.027	41.98
863.201	103.42
863.375	117.76
863.549	48.13
863.722	56.32
863.896	-3.07
864.07	3.07
864.244	109.57
864.418	72.7
864.592	15.36
864.766	109.57
864.939	-19.46
865.113	89.09
865.287	70.65
865.461	78.85
865.634	23.55
865.808	25.6
865.982	111.61
866.156	-9.22
866.329	54.27
866.503	7.17
866.676	-15.36
866.85	1.02
867.024	1.02
867.197	39.94
867.371	44.03
867.544	19.46
867.718	82.94
867.891	-39.94
868.065	93.18
868.238	15.36
868.412	58.37
868.585	-9.22
868.759	23.55
868.932	5.12
869.105	33.79
869.279	11.26
869.452	-7.17
869.625	80.89
869.799	39.94
869.972	13.31
870.145	64.51
870.319	31.74
870.492	-23.55
870.665	70.65
870.838	5.12
871.011	3.07
871.185	99.33
871.358	39.94
871.531	52.22
871.704	84.99
871.877	95.23
872.05	-25.6
872.223	-9.22
872.396	72.7
872.569	-5.12
872.742	27.65
872.915	19.46
873.088	44.03
873.261	35.84
873.434	27.65
873.607	50.18
873.78	95.23
873.953	84.99
874.126	56.32
874.299	64.51
874.471	31.74
874.644	7.17
874.817	-27.65
874.99	5.12
875.163	19.46
875.335	130.05
875.508	56.32
875.681	64.51
875.853	17.41
876.026	37.89
876.199	48.13
876.371	41.98
876.544	31.74
876.717	33.79
876.889	46.08
877.062	66.56
877.234	66.56
877.407	9.22
877.579	62.46
877.752	105.47
877.924	50.18
878.097	41.98
878.269	41.98
878.442	48.13
878.614	60.42
878.786	54.27
878.959	-19.46
879.131	62.46
879.303	33.79
879.476	68.61
879.648	66.56
879.82	17.41
879.993	37.89
880.165	50.18
880.337	64.51
880.509	-27.65
880.681	-11.26
880.854	33.79
881.026	-25.6
881.198	50.18
881.37	72.7
881.542	19.46
881.714	1.02
881.886	33.79
882.058	44.03
882.23	115.71
882.402	5.12
882.574	46.08
882.746	17.41
882.918	-1.02
883.09	99.33
883.262	-58.37
883.434	35.84
883.606	103.42
883.778	54.27
883.95	97.28
884.122	58.37
884.293	33.79
884.465	-27.65
884.637	91.13
884.809	111.61
884.98	50.18
885.152	-17.41
885.324	74.75
885.496	91.13
885.667	27.65
885.839	117.76
886.011	80.89
886.182	27.65
886.354	17.41
886.525	101.37
886.697	15.36
886.869	64.51
887.04	35.84
887.212	50.18
887.383	76.8
887.555	9.22
887.726	80.89
887.897	27.65
888.069	27.65
888.24	1.02
888.412	56.32
888.583	76.8
888.754	-13.31
888.926	15.36
889.097	27.65
889.268	33.79
889.44	15.36
889.611	50.18
889.782	7.17
889.953	37.89
890.125	58.37
890.296	80.89
890.467	25.6
890.638	31.74
890.809	35.84
890.98	19.46
891.151	13.31
891.323	72.7
891.494	-78.85
891.665	56.32
891.836	46.08
892.007	-3.07
892.178	19.46
892.349	91.13
892.52	48.13
892.691	29.7
892.862	62.46
893.032	1.02
893.203	44.03
893.374	23.55
893.545	82.94
893.716	58.37
893.887	-5.12
894.057	48.13
894.228	15.36
894.399	44.03
894.57	78.85
894.74	80.89
894.911	72.7
895.082	91.13
895.253	50.18
895.423	39.94
895.594	-33.79
895.764	3.07
895.935	17.41
896.106	58.37
896.276	25.6
896.447	7.17
896.617	31.74
896.788	31.74
896.958	-1.02
897.129	29.7
897.299	50.18
897.47	35.84
897.64	-27.65
897.81	37.89
897.981	70.65
898.151	-41.98
898.322	52.22
898.492	37.89
898.662	76.8
898.832	48.13
899.003	52.22
899.173	-29.7
899.343	70.65
899.513	29.7
