Data from USB4F104151__171__13-58-55-631.txt Node

Date: Thu Mar 13 13:58:55 EDT 2025
User: louis
Spectrometer: USB4F10415
Trigger mode: 4
Integration Time (sec): 1.000000E-2
Scans to average: 1
Electric dark correction enabled: true
Nonlinearity correction enabled: false
Boxcar width: 0
XAxis mode: Wavelengths
Number of Pixels in Spectrum: 3648
>>>>>Begin Spectral Data<<<<<
178.204	-33.96
178.424	-33.96
178.644	-33.96
178.864	-83.11
179.084	41.81
179.304	-3.24
179.524	4.95
179.744	-33.96
179.964	-3.24
180.184	2.9
180.404	-13.48
180.624	33.62
180.844	-5.29
181.064	-23.72
181.283	-29.87
181.503	52.05
181.723	19.29
181.943	-46.25
182.163	62.29
182.383	-23.72
182.602	-15.53
182.822	-3.24
183.042	11.09
183.262	41.81
183.482	35.67
183.701	-29.87
183.921	-42.15
184.141	-3.24
184.361	80.72
184.58	-38.06
184.8	97.11
185.02	0.85
185.239	41.81
185.459	35.67
185.679	47.96
185.898	-54.44
186.118	19.29
186.338	-21.67
186.557	-25.77
186.777	-29.87
186.997	95.06
187.216	29.52
187.436	64.34
187.655	-7.34
187.875	13.14
188.095	-83.11
188.314	70.48
188.534	68.44
188.753	19.29
188.973	-5.29
189.192	60.24
189.412	23.38
189.631	7
189.851	-19.63
190.07	-21.67
190.29	-33.96
190.509	52.05
190.729	-50.35
190.948	-48.3
191.168	7
191.387	27.48
191.607	-5.29
191.826	0.85
192.045	37.72
192.265	68.44
192.484	-13.48
192.704	23.38
192.923	-11.43
193.142	109.4
193.362	-31.91
193.581	58.2
193.8	-31.91
194.02	43.86
194.239	-27.82
194.458	37.72
194.678	0.85
194.897	58.2
195.116	-19.63
195.335	-38.06
195.555	-40.11
195.774	25.43
195.993	23.38
196.212	68.44
196.432	2.9
196.651	-52.39
196.87	37.72
197.089	11.09
197.308	15.19
197.528	23.38
197.747	-40.11
197.966	74.58
198.185	-62.63
198.404	21.33
198.623	97.11
198.842	45.91
199.062	84.82
199.281	2.9
199.5	-42.15
199.719	74.58
199.938	-36.01
200.157	15.19
200.376	4.95
200.595	19.29
200.814	33.62
201.033	27.48
201.252	-9.39
201.471	27.48
201.69	17.24
201.909	33.62
202.128	19.29
202.347	90.96
202.566	-27.82
202.785	37.72
203.004	-93.35
203.223	35.67
203.442	-13.48
203.661	31.57
203.879	21.33
204.098	7
204.317	23.38
204.536	29.52
204.755	-19.63
204.974	9.05
205.193	37.72
205.411	35.67
205.63	19.29
205.849	86.87
206.068	29.52
206.287	60.24
206.505	-29.87
206.724	21.33
206.943	64.34
207.162	-38.06
207.381	-46.25
207.599	-29.87
207.818	60.24
208.037	13.14
208.255	-31.91
208.474	-21.67
208.693	31.57
208.911	-1.19
209.13	4.95
209.349	35.67
209.567	21.33
209.786	13.14
210.005	15.19
210.223	-36.01
210.442	-7.34
210.661	23.38
210.879	45.91
211.098	19.29
211.316	64.34
211.535	41.81
211.753	41.81
211.972	-13.48
212.191	11.09
212.409	-33.96
212.628	35.67
212.846	37.72
213.065	13.14
213.283	90.96
213.502	31.57
213.72	60.24
213.938	-64.68
214.157	7
214.375	39.76
214.594	-29.87
214.812	-1.19
215.031	-38.06
215.249	7
215.467	35.67
215.686	23.38
215.904	-21.67
216.122	-3.24
216.341	-15.53
216.559	13.14
216.778	35.67
216.996	-7.34
217.214	21.33
217.432	23.38
217.651	7
217.869	-13.48
218.087	-23.72
218.306	37.72
218.524	-38.06
218.742	-103.59
218.96	68.44
219.179	7
219.397	54.1
219.615	13.14
219.833	50
220.051	27.48
220.27	9.05
220.488	39.76
220.706	-1.19
220.924	-19.63
221.142	27.48
221.36	56.15
221.578	9.05
221.796	62.29
222.015	35.67
222.233	68.44
222.451	11.09
222.669	17.24
222.887	4.95
223.105	7
223.323	68.44
223.541	21.33
223.759	62.29
223.977	-36.01
224.195	-44.2
224.413	52.05
224.631	35.67
224.849	2.9
225.067	62.29
225.285	9.05
225.503	4.95
225.721	37.72
225.939	-36.01
226.157	-1.19
226.375	68.44
226.592	7
226.81	-9.39
227.028	-7.34
227.246	2.9
227.464	-13.48
227.682	2.9
227.9	68.44
228.117	13.14
228.335	-38.06
228.553	-42.15
228.771	68.44
228.989	15.19
229.206	-21.67
229.424	13.14
229.642	-1.19
229.86	-1.19
230.077	78.68
230.295	50
230.513	43.86
230.731	45.91
230.948	39.76
231.166	-13.48
231.384	39.76
231.601	-19.63
231.819	33.62
232.037	-36.01
232.254	84.82
232.472	62.29
232.689	72.53
232.907	56.15
233.125	21.33
233.342	33.62
233.56	39.76
233.777	-9.39
233.995	-13.48
234.213	-70.83
234.43	45.91
234.648	2.9
234.865	-38.06
235.083	76.63
235.3	23.38
235.518	52.05
235.735	33.62
235.953	-9.39
236.17	7
236.388	105.3
236.605	23.38
236.822	-1.19
237.04	-19.63
237.257	19.29
237.475	4.95
237.692	50
237.909	45.91
238.127	-17.58
238.344	72.53
238.562	52.05
238.779	0.85
238.996	23.38
239.214	37.72
239.431	-7.34
239.648	4.95
239.865	9.05
240.083	76.63
240.3	60.24
240.517	66.39
240.735	21.33
240.952	-21.67
241.169	70.48
241.386	-38.06
241.603	-33.96
241.821	99.16
242.038	9.05
242.255	35.67
242.472	-58.54
242.689	11.09
242.907	19.29
243.124	64.34
243.341	-52.39
243.558	29.52
243.775	78.68
243.992	-38.06
244.209	41.81
244.426	0.85
244.643	17.24
244.86	78.68
245.078	88.92
245.295	-1.19
245.512	19.29
245.729	-58.54
245.946	15.19
246.163	-25.77
246.38	-56.49
246.597	64.34
246.814	-23.72
247.031	-25.77
247.248	-21.67
247.464	33.62
247.681	64.34
247.898	-11.43
248.115	21.33
248.332	15.19
248.549	15.19
248.766	29.52
248.983	43.86
249.2	-5.29
249.417	-48.3
249.633	9.05
249.85	25.43
250.067	15.19
250.284	103.25
250.501	52.05
250.717	29.52
250.934	25.43
251.151	19.29
251.368	47.96
251.585	33.62
251.801	-13.48
252.018	-33.96
252.235	7
252.451	80.72
252.668	82.77
252.885	-3.24
253.102	31.57
253.318	-1.19
253.535	-7.34
253.752	-21.67
253.968	37.72
254.185	9.05
254.401	39.76
254.618	43.86
254.835	-38.06
255.051	19.29
255.268	76.63
255.484	11.09
255.701	66.39
255.917	17.24
256.134	15.19
256.351	39.76
256.567	37.72
256.784	25.43
257	25.43
257.217	58.2
257.433	-42.15
257.65	0.85
257.866	25.43
258.082	0.85
258.299	-29.87
258.515	64.34
258.732	-44.2
258.948	27.48
259.165	-56.49
259.381	23.38
259.597	70.48
259.814	-42.15
260.03	-7.34
260.246	23.38
260.463	4.95
260.679	0.85
260.895	-5.29
261.112	62.29
261.328	-7.34
261.544	-38.06
261.761	13.14
261.977	4.95
262.193	0.85
262.409	11.09
262.626	-13.48
262.842	2.9
263.058	21.33
263.274	-5.29
263.49	54.1
263.707	-9.39
263.923	52.05
264.139	-3.24
264.355	-1.19
264.571	78.68
264.787	25.43
265.004	39.76
265.22	7
265.436	13.14
265.652	-13.48
265.868	2.9
266.084	9.05
266.3	19.29
266.516	17.24
266.732	70.48
266.948	-9.39
267.164	-54.44
267.38	15.19
267.596	68.44
267.812	62.29
268.028	52.05
268.244	37.72
268.46	41.81
268.676	21.33
268.892	62.29
269.108	29.52
269.324	-23.72
269.54	43.86
269.756	25.43
269.972	-23.72
270.188	62.29
270.403	45.91
270.619	2.9
270.835	25.43
271.051	-5.29
271.267	17.24
271.483	23.38
271.698	19.29
271.914	82.77
272.13	25.43
272.346	23.38
272.562	9.05
272.777	-9.39
272.993	-50.35
273.209	2.9
273.425	-36.01
273.64	47.96
273.856	15.19
274.072	-9.39
274.287	-7.34
274.503	41.81
274.719	56.15
274.934	23.38
275.15	-25.77
275.366	45.91
275.581	-27.82
275.797	45.91
276.012	15.19
276.228	29.52
276.444	19.29
276.659	76.63
276.875	11.09
277.09	84.82
277.306	33.62
277.521	7
277.737	66.39
277.952	15.19
278.168	-5.29
278.383	-9.39
278.599	31.57
278.814	23.38
279.03	17.24
279.245	21.33
279.461	62.29
279.676	23.38
279.892	4.95
280.107	33.62
280.322	-5.29
280.538	56.15
280.753	0.85
280.969	60.24
281.184	9.05
281.399	27.48
281.615	15.19
281.83	39.76
282.045	-17.58
282.26	41.81
282.476	2.9
282.691	62.29
282.906	52.05
283.122	33.62
283.337	-25.77
283.552	-25.77
283.767	56.15
283.983	-11.43
284.198	33.62
284.413	43.86
284.628	-15.53
284.843	39.76
285.058	29.52
285.274	17.24
285.489	-3.24
285.704	66.39
285.919	17.24
286.134	21.33
286.349	23.38
286.564	37.72
286.779	29.52
286.995	25.43
287.21	-38.06
287.425	50
287.64	21.33
287.855	-1.19
288.07	64.34
288.285	9.05
288.5	66.39
288.715	4.95
288.93	-29.87
289.145	-31.91
289.36	35.67
289.575	56.15
289.79	-31.91
290.004	84.82
290.219	19.29
290.434	76.63
290.649	-70.83
290.864	-29.87
291.079	-42.15
291.294	23.38
291.509	90.96
291.724	39.76
291.938	-13.48
292.153	17.24
292.368	2.9
292.583	78.68
292.798	50
293.012	47.96
293.227	-42.15
293.442	60.24
293.657	62.29
293.871	29.52
294.086	-7.34
294.301	37.72
294.516	41.81
294.73	97.11
294.945	-7.34
295.16	-5.29
295.374	-5.29
295.589	-13.48
295.804	23.38
296.018	-1.19
296.233	93.01
296.447	50
296.662	-42.15
296.877	56.15
297.091	2.9
297.306	23.38
297.52	7
297.735	23.38
297.949	52.05
298.164	-5.29
298.378	21.33
298.593	9.05
298.807	-11.43
299.022	39.76
299.236	-23.72
299.451	56.15
299.665	27.48
299.88	95.06
300.094	27.48
300.309	15.19
300.523	-9.39
300.737	0.85
300.952	-5.29
301.166	11.09
301.381	27.48
301.595	54.1
301.809	-11.43
302.024	13.14
302.238	-13.48
302.452	39.76
302.667	7
302.881	15.19
303.095	56.15
303.309	-1.19
303.524	27.48
303.738	37.72
303.952	25.43
304.166	39.76
304.381	25.43
304.595	27.48
304.809	41.81
305.023	105.3
305.237	-27.82
305.452	19.29
305.666	-9.39
305.88	41.81
306.094	29.52
306.308	78.68
306.522	-29.87
306.736	97.11
306.95	-17.58
307.164	-21.67
307.379	47.96
307.593	84.82
307.807	-13.48
308.021	84.82
308.235	35.67
308.449	-7.34
308.663	37.72
308.877	-19.63
309.091	76.63
309.305	-13.48
309.519	-9.39
309.733	25.43
309.947	-5.29
310.161	58.2
310.374	54.1
310.588	88.92
310.802	54.1
311.016	-21.67
311.23	52.05
311.444	-21.67
311.658	35.67
311.872	15.19
312.085	50
312.299	13.14
312.513	-54.44
312.727	-1.19
312.941	-11.43
313.154	29.52
313.368	88.92
313.582	35.67
313.796	-68.78
314.009	35.67
314.223	70.48
314.437	33.62
314.651	29.52
314.864	50
315.078	-21.67
315.292	93.01
315.505	-25.77
315.719	33.62
315.933	52.05
316.146	47.96
316.36	25.43
316.573	41.81
316.787	-9.39
317.001	-3.24
317.214	-29.87
317.428	13.14
317.641	17.24
317.855	60.24
318.068	-15.53
318.282	35.67
318.495	-11.43
318.709	76.63
318.922	-29.87
319.136	-36.01
319.349	47.96
319.563	13.14
319.776	62.29
319.99	27.48
320.203	7
320.417	80.72
320.63	47.96
320.843	68.44
321.057	-54.44
321.27	0.85
321.483	13.14
321.697	25.43
321.91	41.81
322.124	47.96
322.337	4.95
322.55	68.44
322.763	88.92
322.977	47.96
323.19	-33.96
323.403	31.57
323.617	29.52
323.83	78.68
324.043	52.05
324.256	56.15
324.469	88.92
324.683	-58.54
324.896	50
325.109	50
325.322	-21.67
325.535	-13.48
325.748	64.34
325.962	27.48
326.175	35.67
326.388	50
326.601	-70.83
326.814	-15.53
327.027	31.57
327.24	70.48
327.453	-68.78
327.666	-3.24
327.879	-50.35
328.092	0.85
328.305	-13.48
328.518	-42.15
328.731	-3.24
328.944	21.33
329.157	35.67
329.37	84.82
329.583	27.48
329.796	78.68
330.009	19.29
330.222	23.38
330.435	23.38
330.648	43.86
330.861	31.57
331.073	21.33
331.286	21.33
331.499	-70.83
331.712	50
331.925	-40.11
332.138	25.43
332.35	0.85
332.563	-1.19
332.776	56.15
332.989	11.09
333.202	66.39
333.414	33.62
333.627	-7.34
333.84	-13.48
334.053	35.67
334.265	-7.34
334.478	-7.34
334.691	-36.01
334.903	4.95
335.116	-33.96
335.329	33.62
335.541	41.81
335.754	31.57
335.966	-21.67
336.179	68.44
336.392	-11.43
336.604	72.53
336.817	93.01
337.029	45.91
337.242	76.63
337.454	90.96
337.667	62.29
337.88	52.05
338.092	-46.25
338.305	35.67
338.517	-33.96
338.729	31.57
338.942	68.44
339.154	41.81
339.367	-1.19
339.579	-13.48
339.792	50
340.004	-54.44
340.217	68.44
340.429	68.44
340.641	-9.39
340.854	-9.39
341.066	29.52
341.278	11.09
341.491	29.52
341.703	84.82
341.915	43.86
342.128	29.52
342.34	7
342.552	62.29
342.764	11.09
342.977	-40.11
343.189	56.15
343.401	41.81
343.613	35.67
343.826	66.39
344.038	11.09
344.25	-3.24
344.462	2.9
344.674	52.05
344.886	39.76
345.099	52.05
345.311	27.48
345.523	7
345.735	11.09
345.947	54.1
346.159	43.86
346.371	33.62
346.583	17.24
346.795	86.87
347.007	-29.87
347.219	27.48
347.431	54.1
347.643	29.52
347.855	-19.63
348.067	80.72
348.279	19.29
348.491	-36.01
348.703	-23.72
348.915	23.38
349.127	-11.43
349.339	7
349.551	45.91
349.763	29.52
349.975	9.05
350.187	13.14
350.399	37.72
350.61	31.57
350.822	-9.39
351.034	45.91
351.246	7
351.458	19.29
351.669	70.48
351.881	54.1
352.093	27.48
352.305	82.77
352.517	19.29
352.728	21.33
352.94	37.72
353.152	17.24
353.363	2.9
353.575	78.68
353.787	15.19
353.999	45.91
354.21	95.06
354.422	-21.67
354.633	19.29
354.845	-13.48
355.057	-33.96
355.268	23.38
355.48	-5.29
355.692	82.77
355.903	-85.16
356.115	66.39
356.326	9.05
356.538	105.3
356.749	52.05
356.961	23.38
357.172	21.33
357.384	133.97
357.595	78.68
357.807	13.14
358.018	11.09
358.23	101.2
358.441	52.05
358.653	4.95
358.864	17.24
359.075	35.67
359.287	68.44
359.498	11.09
359.709	13.14
359.921	7
360.132	-5.29
360.344	62.29
360.555	86.87
360.766	31.57
360.977	50
361.189	11.09
361.4	31.57
361.611	76.63
361.823	-9.39
362.034	66.39
362.245	-15.53
362.456	-17.58
362.667	25.43
362.879	7
363.09	-25.77
363.301	0.85
363.512	-3.24
363.723	23.38
363.935	0.85
364.146	-7.34
364.357	17.24
364.568	54.1
364.779	-56.49
364.99	13.14
365.201	56.15
365.412	29.52
365.623	50
365.834	-50.35
366.045	41.81
366.256	15.19
366.467	68.44
366.678	52.05
366.889	43.86
367.1	43.86
367.311	11.09
367.522	37.72
367.733	23.38
367.944	95.06
368.155	9.05
368.366	64.34
368.577	25.43
368.788	-13.48
368.999	33.62
369.209	2.9
369.42	15.19
369.631	35.67
369.842	52.05
370.053	-19.63
370.264	47.96
370.474	-36.01
370.685	31.57
370.896	-11.43
371.107	-1.19
371.317	97.11
371.528	-5.29
371.739	-13.48
371.95	66.39
372.16	17.24
372.371	-36.01
372.582	9.05
372.792	11.09
373.003	27.48
373.214	29.52
373.424	43.86
373.635	31.57
373.846	86.87
374.056	21.33
374.267	64.34
374.477	50
374.688	54.1
374.898	52.05
375.109	111.44
375.319	9.05
375.53	45.91
375.74	84.82
375.951	76.63
376.161	70.48
376.372	56.15
376.582	2.9
376.793	43.86
377.003	-19.63
377.214	78.68
377.424	95.06
377.635	-58.54
377.845	13.14
378.055	99.16
378.266	54.1
378.476	23.38
378.686	29.52
378.897	78.68
379.107	-1.19
379.317	54.1
379.528	84.82
379.738	39.76
379.948	7
380.158	74.58
380.369	50
380.579	33.62
380.789	35.67
380.999	-11.43
381.21	52.05
381.42	21.33
381.63	74.58
381.84	109.4
382.05	-33.96
382.261	0.85
382.471	-25.77
382.681	-15.53
382.891	13.14
383.101	-21.67
383.311	-19.63
383.521	-38.06
383.731	58.2
383.941	37.72
384.151	19.29
384.361	-25.77
384.571	56.15
384.781	76.63
384.991	19.29
385.201	35.67
385.411	45.91
385.621	21.33
385.831	37.72
386.041	95.06
386.251	11.09
386.461	35.67
386.671	-44.2
386.881	19.29
387.091	35.67
387.301	39.76
387.511	93.01
387.72	54.1
387.93	-60.59
388.14	113.49
388.35	21.33
388.56	60.24
388.769	43.86
388.979	56.15
389.189	21.33
389.399	-40.11
389.609	29.52
389.818	101.2
390.028	74.58
390.238	41.81
390.447	107.35
390.657	62.29
390.867	27.48
391.076	60.24
391.286	68.44
391.496	90.96
391.705	50
391.915	64.34
392.125	43.86
392.334	27.48
392.544	2.9
392.753	-58.54
392.963	68.44
393.172	39.76
393.382	45.91
393.591	27.48
393.801	27.48
394.01	86.87
394.22	17.24
394.429	27.48
394.639	11.09
394.848	11.09
395.058	7
395.267	0.85
395.477	60.24
395.686	56.15
395.895	45.91
396.105	56.15
396.314	11.09
396.524	45.91
396.733	-27.82
396.942	62.29
397.152	127.83
397.361	93.01
397.57	21.33
397.78	21.33
397.989	0.85
398.198	56.15
398.407	60.24
398.617	23.38
398.826	97.11
399.035	62.29
399.244	43.86
399.453	136.02
399.663	107.35
399.872	113.49
400.081	41.81
400.29	82.77
400.499	54.1
400.708	74.58
400.917	140.12
401.127	164.69
401.336	35.67
401.545	142.16
401.754	109.4
401.963	95.06
402.172	19.29
402.381	80.72
402.59	86.87
402.799	80.72
403.008	119.64
403.217	113.49
403.426	119.64
403.635	127.83
403.844	56.15
404.053	47.96
404.262	86.87
404.471	107.35
404.68	25.43
404.888	60.24
405.097	109.4
405.306	131.92
405.515	121.68
405.724	78.68
405.933	156.5
406.142	115.54
406.35	117.59
406.559	162.64
406.768	88.92
406.977	97.11
407.185	93.01
407.394	174.93
407.603	170.83
407.812	213.84
408.02	107.35
408.229	176.98
408.438	133.97
408.646	131.92
408.855	117.59
409.064	168.79
409.272	109.4
409.481	256.85
409.69	115.54
409.898	154.45
410.107	181.07
410.315	275.28
410.524	187.22
410.733	224.08
410.941	207.7
411.15	181.07
411.358	267.09
411.567	246.61
411.775	254.8
411.984	291.66
412.192	273.23
412.401	308.05
412.609	308.05
412.818	324.43
413.026	291.66
413.234	340.82
413.443	330.58
413.651	408.4
413.86	367.44
414.068	361.3
414.276	414.54
414.485	406.35
414.693	398.16
414.901	478.03
415.11	424.78
415.318	457.55
415.526	465.74
415.734	506.7
415.943	465.74
416.151	502.61
416.359	523.09
416.567	549.71
416.776	555.85
416.984	555.85
417.192	574.28
417.4	586.57
417.608	621.39
417.817	676.68
418.025	656.2
418.233	764.75
418.441	676.68
418.649	826.18
418.857	875.34
419.065	867.14
419.273	863.05
419.481	924.49
419.689	848.71
419.897	918.34
420.105	947.01
420.313	1076.04
420.521	1092.42
420.729	1022.79
420.937	1028.93
421.145	1092.42
421.353	1104.71
421.561	1229.63
421.769	1250.11
421.977	1233.73
422.185	1166.15
422.393	1401.66
422.601	1401.66
422.809	1481.53
423.017	1436.48
423.224	1461.06
423.432	1669.95
423.64	1487.68
423.848	1729.34
424.056	1583.93
424.263	1764.15
424.471	1686.33
424.679	1784.63
424.887	1891.13
425.094	1993.53
425.302	1983.29
425.51	2077.49
425.718	2093.88
425.925	2151.22
426.133	2167.6
426.341	2341.68
426.548	2503.47
426.756	2458.42
426.964	2472.75
427.171	2583.34
427.379	2601.77
427.586	2706.22
427.794	2835.24
428.001	2960.17
428.209	3076.9
428.417	3027.75
428.624	3167.01
428.832	3277.6
429.039	3210.02
429.247	3150.63
429.454	3623.71
429.662	3707.68
429.869	3463.97
430.076	3754.78
430.284	3619.61
430.491	3722.01
430.699	3904.28
430.906	3969.82
431.114	4113.17
431.321	4324.12
431.528	4455.19
431.736	4582.16
431.943	4707.09
432.15	4604.69
432.358	4686.61
432.565	4969.23
432.772	4944.65
432.979	5133.06
433.187	5225.22
433.394	5237.51
433.601	5479.17
433.808	5581.57
434.016	5657.34
434.223	5913.34
434.43	6066.94
434.637	6050.55
434.844	6556.4
435.052	6593.26
435.259	6367.99
435.466	6460.15
435.673	6621.94
435.88	6925.04
436.087	7258.85
436.294	7385.83
436.501	7156.46
436.708	7373.54
436.915	7727.84
437.122	7893.72
437.329	7871.2
437.537	7989.98
437.743	8217.3
437.95	8207.06
438.157	8430.29
438.364	8932.05
438.571	8714.96
438.778	8893.13
438.985	9847.49
439.192	9454.28
439.399	9673.41
439.606	9546.44
439.813	9921.21
440.02	10521.27
440.227	10160.83
440.433	10150.59
440.64	10771.12
440.847	10586.8
441.054	10801.84
441.261	11573.92
441.467	11395.75
441.674	11756.19
441.881	12040.86
442.088	12141.21
442.294	11707.04
442.501	12094.11
442.708	12464.79
442.914	13206.16
443.121	13560.45
443.328	13271.69
443.534	14148.22
443.741	13623.94
443.948	13486.73
444.154	14426.75
444.361	14189.18
444.568	14606.97
444.774	14486.14
444.981	14660.21
445.187	15063.66
445.394	15716.97
445.6	15567.46
445.807	17107.54
446.013	16132.7
446.22	16949.84
446.426	17211.98
446.633	17205.84
446.839	18080.32
447.046	17015.38
447.252	18278.97
447.459	18192.96
447.665	17914.44
447.871	19061.3
448.078	19974.69
448.284	18952.76
448.491	19477.04
448.697	19925.54
448.903	20226.59
449.11	20277.79
449.316	20023.84
449.522	20554.27
449.728	21180.95
449.935	21238.29
450.141	21242.39
450.347	21699.08
450.553	21047.83
450.76	21359.12
450.966	21993.99
451.172	21805.58
451.378	22303.23
451.584	21852.68
451.791	22381.06
451.997	21844.49
452.203	22682.11
452.409	22743.55
452.615	22759.93
452.821	21752.33
453.027	21684.75
453.233	22956.54
453.44	21572.11
453.646	21838.34
453.852	21963.27
454.058	22485.5
454.264	21637.64
454.47	22086.15
454.676	21361.17
454.882	22514.17
455.088	20736.54
455.294	20963.86
455.5	20931.09
455.705	21185.04
455.911	20320.8
456.117	20095.52
456.323	19939.88
456.529	18745.91
456.735	19477.04
456.941	18819.64
457.147	18528.83
457.352	17973.83
457.558	17975.88
457.764	17967.68
457.97	17562.19
458.176	17107.54
458.381	17404.49
458.587	16251.49
458.793	16206.43
458.999	15549.03
459.204	16613.98
459.41	16091.74
459.616	15383.15
459.821	15377
460.027	14998.13
460.233	14758.52
460.438	14105.21
460.644	14105.21
460.85	13806.21
461.055	13361.8
461.261	13425.29
461.466	12257.95
461.672	11993.76
461.878	12802.71
462.083	12057.25
462.289	11838.11
462.494	11711.14
462.7	11061.93
462.905	10984.11
463.111	11229.87
463.316	11289.26
463.522	11092.65
463.727	11084.46
463.932	11145.9
464.138	11139.76
464.343	11051.69
464.549	10900.14
464.754	10994.35
464.959	10955.44
465.165	10863.28
465.37	10310.33
465.575	10275.51
465.781	10449.59
465.986	10414.77
466.191	10353.34
466.397	10199.74
466.602	9759.42
466.807	10023.61
467.012	9986.75
467.218	9790.14
467.423	9816.77
467.628	9767.62
467.833	10273.46
468.038	9841.34
468.244	9566.92
468.449	9923.26
468.654	9693.89
468.859	9616.07
469.064	9470.66
469.269	9059.02
469.474	9409.22
469.679	9323.21
469.885	9163.47
470.09	9245.38
470.295	9218.76
470.5	9054.92
470.705	9130.7
470.91	8878.8
471.115	8719.06
471.32	8944.33
471.525	8852.17
471.73	8524.5
471.935	8669.91
472.139	8100.57
472.344	8420.05
472.549	8514.26
472.754	8215.26
472.959	8147.67
473.164	7686.88
473.369	7686.88
473.574	8047.32
473.778	7883.49
473.983	7885.53
474.188	7983.84
474.393	7502.56
474.598	7744.22
474.802	7676.64
475.007	7516.9
475.212	7555.81
475.417	6908.65
475.621	7047.91
475.826	7357.16
476.031	7170.79
476.235	6875.88
476.44	7142.12
476.645	6843.12
476.849	7062.25
477.054	6793.97
477.259	6753.01
477.463	6814.45
477.668	6499.06
477.872	6535.92
478.077	6646.51
478.282	6392.56
478.486	6376.18
478.691	6345.46
478.895	6361.84
479.1	6277.88
479.304	6363.89
479.509	6132.47
479.713	6275.83
479.918	6120.18
480.122	6003.45
480.326	6089.46
480.531	6019.83
480.735	5966.59
480.94	5958.39
481.144	6058.74
481.348	5808.89
481.553	6089.46
481.757	5710.59
481.961	5911.29
482.166	6015.74
482.37	6007.55
482.574	5755.65
482.778	5796.6
482.983	5923.58
483.187	6023.93
483.391	5874.43
483.595	5755.65
483.8	5683.97
484.004	5741.31
484.208	6028.03
484.412	5767.93
484.616	5874.43
484.821	5884.67
485.025	5776.13
485.229	5763.84
485.433	5712.64
485.637	5872.38
485.841	5831.42
486.045	5831.42
486.249	5884.67
486.453	5802.75
486.657	5884.67
486.861	5780.22
487.065	5819.13
487.269	5899
487.473	5763.84
487.677	5948.15
487.881	5872.38
488.085	5796.6
488.289	5872.38
488.493	5778.17
488.697	5896.96
488.901	5913.34
489.105	5890.81
489.309	6023.93
489.512	5856
489.716	5982.97
489.92	5903.1
490.124	5958.39
490.328	5993.21
490.531	6044.41
490.735	6003.45
490.939	6130.42
491.143	6042.36
491.346	5884.67
491.55	6157.05
491.754	6081.27
491.958	6204.15
492.161	6222.58
492.365	6298.36
492.569	6337.27
492.772	6187.77
492.976	6494.96
493.18	6312.69
493.383	6492.91
493.587	6443.76
493.79	6587.12
493.994	6353.65
494.197	6474.48
494.401	6646.51
494.605	6697.71
494.808	6646.51
495.012	6834.93
495.215	6761.2
495.419	6994.67
495.622	6755.05
495.825	7103.21
496.029	6949.61
496.232	7197.42
496.436	7174.89
496.639	7447.27
496.843	7353.06
497.046	7469.8
497.249	7518.95
497.453	7645.92
497.656	7572.19
497.859	7654.11
498.063	7645.92
498.266	8024.79
498.469	7985.88
498.673	7928.54
498.876	8260.31
499.079	8182.49
499.282	8239.83
499.485	8528.6
499.689	8440.53
499.892	8776.4
500.095	8567.51
500.298	8979.15
500.501	8780.5
500.705	9167.56
500.908	9147.08
501.111	9278.15
501.314	9255.62
501.517	9560.77
501.72	9818.82
501.923	9476.8
502.126	9824.96
502.329	9990.84
502.532	10072.76
502.735	10152.63
502.938	10240.7
503.141	10259.13
503.344	10490.55
503.547	10478.26
503.75	10783.41
503.953	10914.48
504.156	11139.76
504.359	11324.07
504.562	11250.35
504.765	11561.64
504.968	11727.52
505.17	11815.59
505.373	11696.8
505.576	12233.37
505.779	12391.06
505.982	12364.44
506.185	12593.81
506.387	12677.78
506.59	12585.62
506.793	12927.63
506.996	13142.67
507.198	13564.55
507.401	13404.81
507.604	13527.69
507.807	13970.05
508.009	13943.42
508.212	14236.28
508.415	14400.12
508.617	14486.14
508.82	14678.65
509.022	14535.29
509.225	15149.68
509.428	15174.25
509.63	15510.12
509.833	15383.15
510.035	15917.67
510.238	15690.34
510.44	16128.61
510.643	16470.62
510.845	16618.07
511.048	16833.11
511.25	16732.76
511.453	16872.02
511.655	17795.65
511.858	17588.81
512.06	17707.59
512.262	18041.41
512.465	17893.96
512.667	18446.91
512.87	18539.07
513.072	18582.07
513.274	19077.68
513.477	19352.11
513.679	19249.71
513.881	19870.25
514.084	19907.11
514.286	20044.32
514.488	20378.14
514.69	20900.37
514.893	20947.48
515.095	21080.6
515.297	21348.88
515.499	21309.97
515.701	21508.62
515.904	22016.52
516.106	22419.97
516.308	22395.39
516.51	22743.55
516.712	22841.85
516.914	23202.29
517.116	23554.54
517.318	23523.82
517.52	23900.65
517.722	23914.98
517.925	24494.56
518.127	24818.14
518.329	24953.3
518.531	25113.05
518.733	25539.02
518.935	25536.98
519.136	25764.3
519.338	26331.59
519.54	26376.64
519.742	26550.72
519.944	26737.09
520.146	27251.13
520.348	27513.27
520.55	27601.33
520.752	27605.42
520.954	28414.37
521.155	27922.86
521.357	28848.54
521.559	28909.98
521.761	29286.81
521.963	29430.16
522.164	29909.39
522.366	29639.06
522.568	29911.44
522.77	30251.4
522.971	30628.23
523.173	30697.86
523.375	31109.5
523.576	30646.66
523.778	30935.42
523.98	31670.64
524.181	31553.91
524.383	31756.66
524.584	32143.72
524.786	32444.77
524.988	32307.56
525.189	32762.21
525.391	32825.7
525.592	33151.32
525.794	33362.26
525.995	33184.09
526.197	33055.07
526.398	33544.53
526.6	33988.94
526.801	33730.9
527.003	34226.51
527.204	34042.19
527.406	34462.02
527.607	34679.11
527.808	34898.24
528.01	34685.25
528.211	34949.44
528.412	35168.57
528.614	35154.24
528.815	34953.54
529.016	35574.07
529.218	35268.92
529.419	35621.17
529.62	35881.27
529.822	35457.34
530.023	35457.34
530.224	35547.45
530.425	35805.49
530.626	35600.69
530.828	35379.51
531.029	36278.57
531.23	36170.03
531.431	36075.82
531.632	36264.24
531.833	36448.55
532.035	36071.73
532.236	36415.79
532.437	36442.41
532.638	36219.18
532.839	36909.35
533.04	36632.87
533.241	36145.45
533.442	37769.49
533.643	36649.25
533.844	36665.64
534.045	36903.2
534.246	36784.42
534.447	36952.35
534.648	36944.16
534.849	36927.78
535.05	36835.62
535.251	36983.07
535.451	36854.05
535.652	37392.67
535.853	37171.49
536.054	37404.95
536.255	37327.13
536.456	37003.55
536.657	37585.18
536.857	36895.01
537.058	36970.79
537.259	37263.64
537.46	37200.16
537.66	37146.91
537.861	37224.73
538.062	37062.94
538.263	37151.01
538.463	37118.24
538.664	37030.18
538.865	37140.77
539.065	37568.79
539.266	36579.62
539.466	37781.78
539.667	36811.04
539.868	37519.64
540.068	37130.53
540.269	37118.24
540.469	37337.37
540.67	36950.31
540.87	37179.68
541.071	37423.39
541.271	37110.05
541.472	37208.35
541.672	37343.52
541.873	37273.88
542.073	36632.87
542.274	37298.46
542.474	36809
542.675	36935.97
542.875	37576.98
543.075	37290.27
543.276	36798.76
543.476	37087.52
543.676	36788.52
543.877	37099.81
544.077	37273.88
544.277	37138.72
544.478	37370.14
544.678	37316.89
544.878	37368.09
545.078	37044.51
545.279	36700.45
545.479	36999.46
545.679	37384.47
545.879	37067.04
546.079	37343.52
546.28	36819.24
546.48	36737.32
546.68	37040.42
546.88	37153.05
547.08	36978.98
547.28	36815.14
547.48	36880.67
547.68	37427.48
547.88	36614.44
548.081	37374.24
548.281	36925.73
548.481	37159.2
548.681	37241.12
548.881	37169.44
549.081	36948.26
549.28	36688.17
549.48	37189.92
549.68	37058.85
549.88	37386.52
550.08	36774.18
550.28	37099.81
550.48	37282.08
550.68	37191.97
550.88	37046.56
551.08	37386.52
551.279	37128.48
551.479	36710.69
551.679	36925.73
551.879	37097.76
552.079	37249.31
552.278	36624.68
552.478	36854.05
552.678	36886.82
552.878	36989.22
553.077	37007.65
553.277	36311.34
553.477	37292.32
553.676	36858.15
553.876	36886.82
554.076	36976.93
554.275	36663.59
554.475	36557.1
554.674	36522.28
554.874	36710.69
555.074	36299.05
555.273	36512.04
555.473	36610.34
555.672	36489.51
555.872	36518.18
556.071	36608.29
556.271	36743.46
556.47	36469.03
556.67	36176.17
556.869	35889.46
557.068	36340.01
557.268	35885.36
557.467	36403.5
557.667	36139.31
557.866	35965.23
558.065	36096.3
558.265	35762.48
558.464	35598.65
558.663	36200.75
558.863	35551.54
559.062	36102.45
559.261	35629.37
559.461	36167.98
559.66	35258.68
559.859	35651.89
560.058	35592.5
560.258	35895.6
560.457	35481.91
560.656	35887.41
560.855	35453.24
561.054	35754.29
561.253	35152.19
561.453	35168.57
561.652	35238.2
561.851	35498.3
562.05	35148.09
562.249	34871.62
562.448	35289.4
562.647	35090.75
562.846	35152.19
563.045	35098.94
563.244	34443.59
563.443	35277.12
563.642	34312.52
563.841	34677.06
564.04	35096.89
564.239	35064.13
564.438	34462.02
564.637	34462.02
564.836	34812.23
565.035	34396.49
565.234	34586.95
565.432	34519.37
565.631	34226.51
565.83	34267.47
566.029	34019.66
566.228	34513.22
566.427	34234.7
566.625	34027.85
566.824	33565.01
567.023	33665.36
567.222	33448.28
567.42	33825.11
567.619	33687.89
567.818	33847.63
568.016	33591.64
568.215	33739.09
568.414	33517.91
568.612	33694.04
568.811	33556.82
569.01	33206.62
569.208	32876.9
569.407	33528.15
569.605	32891.23
569.804	33343.83
570.002	32399.72
570.201	32827.74
570.4	32332.14
570.598	32510.31
570.797	32520.55
570.995	32612.71
571.193	32020.84
571.392	32618.85
571.59	31955.31
571.789	32002.41
571.987	31914.35
572.186	32041.32
572.384	31680.88
572.582	31832.43
572.781	31719.79
572.979	31416.69
573.177	31508.85
573.376	31904.11
573.574	31097.21
573.772	31502.71
573.971	30800.26
574.169	31035.77
574.367	30880.13
574.565	30974.33
574.763	30904.7
574.962	30579.07
575.16	30341.51
575.358	30744.96
575.556	30347.65
575.754	30929.28
575.952	30335.37
576.151	30538.12
576.349	30083.47
576.547	30312.84
576.745	29763.98
576.943	30120.33
577.141	30022.03
577.339	30165.39
577.537	29811.09
577.735	29723.02
577.933	29407.64
578.131	29598.1
578.329	29780.37
578.527	29243.8
578.725	29178.26
578.923	29538.71
579.121	29204.89
579.319	29168.02
579.516	29036.95
579.714	28817.82
579.912	28760.48
580.11	28541.35
580.308	28529.06
580.506	28297.64
580.704	28285.35
580.901	28557.73
581.099	28260.77
581.297	28393.89
581.495	28017.07
581.692	28322.21
581.89	27713.97
582.088	27853.23
582.285	27666.86
582.483	28002.73
582.681	27797.93
582.878	27509.17
583.076	27371.96
583.274	27720.11
583.471	27232.69
583.669	27046.33
583.866	27122.1
584.064	27292.08
584.262	26853.82
584.459	27414.96
584.657	26880.44
584.854	27285.94
585.052	26522.05
585.249	26872.25
585.447	26806.72
585.644	26204.61
585.841	26237.38
586.039	26845.63
586.236	26573.25
586.434	26057.16
586.631	26014.15
586.828	25831.88
587.026	26134.98
587.223	25536.98
587.42	25575.89
587.618	25960.91
587.815	25387.47
588.012	25528.78
588.21	25594.32
588.407	25625.04
588.604	25493.97
588.801	25172.44
588.999	25399.76
589.196	24975.83
589.393	24926.68
589.59	25209.3
589.787	24736.22
589.984	24705.5
590.182	24820.19
590.379	24791.52
590.576	24719.84
590.773	24453.6
590.97	24607.2
591.167	24510.94
591.364	24048.1
591.561	24218.08
591.758	24125.93
591.955	24173.03
592.152	24201.7
592.349	24095.21
592.546	24115.69
592.743	24011.24
592.94	23861.74
593.137	23808.49
593.334	23929.32
593.531	23273.97
593.727	23683.56
593.924	23761.39
594.121	23333.36
594.318	23357.94
594.515	23167.48
594.712	23349.75
594.908	23038.45
595.105	23472.62
595.302	22919.67
595.499	23124.47
595.696	22993.4
595.892	22512.13
596.089	23220.72
596.286	22884.86
596.482	22346.24
596.679	22686.2
596.876	22252.03
597.072	22411.78
597.269	22264.32
597.466	22102.53
597.662	22327.81
597.859	22231.55
598.055	22297.09
598.252	22123.01
598.448	22106.63
598.645	21869.06
598.841	21727.75
599.038	21903.88
599.234	21983.75
599.431	21477.9
599.627	21547.53
599.824	21754.38
600.02	21457.42
600.217	21660.17
600.413	21295.63
600.609	21303.82
600.806	21342.74
601.002	21461.52
601.198	20945.43
601.395	20963.86
601.591	21015.06
601.787	21019.16
601.984	20820.5
602.18	21076.5
602.376	20746.78
602.572	20865.56
602.769	20517.4
602.965	20259.36
603.161	20517.4
603.357	20116
603.553	20396.57
603.75	20501.02
603.946	19952.16
604.142	20136.48
604.338	19730.98
604.534	19999.27
604.73	19765.8
604.926	19964.45
605.122	19866.15
605.318	19749.42
605.514	19636.78
605.71	19460.65
605.906	19487.28
606.102	19477.04
606.298	19196.46
606.494	19274.29
606.69	19096.11
606.886	19311.15
607.082	19092.02
607.278	19237.42
607.474	19012.15
607.67	19087.92
607.866	18647.61
608.062	18739.77
608.257	18676.28
608.453	18555.45
608.649	18377.28
608.845	18690.62
609.041	18643.51
609.236	18580.03
609.432	18559.55
609.628	18569.79
609.824	18643.51
610.019	18403.9
610.215	18104.9
610.411	18139.71
610.606	18053.7
610.802	18301.5
610.998	18029.12
611.193	18094.66
611.389	17951.3
611.584	17777.22
611.78	17713.74
611.976	17707.59
612.171	17871.43
612.367	17556.04
612.562	17429.07
612.758	17424.97
612.953	17402.44
613.149	17392.2
613.344	16964.18
613.539	17523.27
613.735	17345.1
613.93	17109.58
614.126	17068.62
614.321	17078.86
614.517	16927.32
614.712	17068.62
614.907	16976.47
615.103	16859.73
615.298	16753.24
615.493	16935.51
615.688	16695.89
615.884	16808.53
616.079	16699.99
616.274	16872.02
616.47	16687.7
616.665	16628.31
616.86	16345.69
617.055	16501.34
617.25	16491.1
617.445	16472.67
617.641	16132.7
617.836	16231.01
618.031	15977.06
618.226	16384.6
618.421	15952.48
618.616	16177.76
618.811	15815.27
619.006	16083.55
619.201	15688.29
619.396	15821.41
619.591	15673.96
619.786	15745.64
619.981	15409.77
620.176	15460.97
620.371	15428.2
620.566	15643.24
620.761	15233.64
620.956	15432.3
621.151	15215.21
621.346	15184.49
621.541	15008.37
621.735	15108.72
621.93	14588.53
622.125	14717.56
622.32	14779
622.515	14752.37
622.709	14461.56
622.904	14475.9
623.099	14375.55
623.294	14092.93
623.488	14119.55
623.683	14199.42
623.878	13937.28
624.072	14037.63
624.267	13720.2
624.462	13980.29
624.656	13716.1
624.851	13644.42
625.046	13326.99
625.24	13531.78
625.435	13429.38
625.629	13382.28
625.824	13433.48
626.018	13345.42
626.213	12896.91
626.407	13208.2
626.602	12929.68
626.796	13238.92
626.991	13042.32
627.185	12765.84
627.38	12827.28
627.574	12890.77
627.768	12819.09
627.963	12591.77
628.157	12434.07
628.352	12454.55
628.546	12163.74
628.74	12479.13
628.935	12178.08
629.129	12223.13
629.323	12241.56
629.517	12055.2
629.712	12040.86
629.906	11989.66
630.1	11752.1
630.294	11924.13
630.489	11836.06
630.683	11670.18
630.877	11428.52
631.071	11598.5
631.265	11600.55
631.459	11367.08
631.653	11412.14
631.848	11272.87
632.042	11342.5
632.236	11354.79
632.43	11082.41
632.624	11076.27
632.818	11098.8
633.012	11008.69
633.206	10998.45
633.4	11004.59
633.594	10924.72
633.788	10912.43
633.982	10861.23
634.176	10756.79
634.369	10797.74
634.563	10508.98
634.757	10619.57
634.951	10617.52
635.145	10463.93
635.339	10482.36
635.533	10273.46
635.726	10152.63
635.92	10205.88
636.114	10367.67
636.308	10076.86
636.501	10040
636.695	10197.69
636.889	9966.27
637.083	9874.11
637.276	10023.61
637.47	9697.99
637.664	9796.29
637.857	9767.62
638.051	9722.56
638.244	9577.16
638.438	9515.72
638.632	9497.28
638.825	9276.1
639.019	9341.64
639.212	9245.38
639.406	9239.24
639.599	9169.61
639.793	9157.32
639.986	9169.61
640.18	9243.34
640.373	9075.4
640.567	8999.63
640.76	8899.28
640.954	8993.48
641.147	8743.63
641.34	8835.79
641.534	8891.09
641.727	8571.6
641.92	8805.07
642.114	8547.03
642.307	8706.77
642.5	8473.3
642.694	8342.23
642.887	8383.19
643.08	8387.29
643.273	8153.82
643.467	8434.39
643.66	8080.09
643.853	8219.35
644.046	8080.09
644.239	8112.86
644.432	8086.23
644.626	8096.47
644.819	7989.98
645.012	8020.7
645.205	7742.18
645.398	7891.68
645.591	7559.91
645.784	7494.37
645.977	7637.73
646.17	7621.35
646.363	7525.09
646.556	7508.71
646.749	7357.16
646.942	7582.43
647.135	7475.94
647.328	7271.14
647.521	7105.26
647.714	7203.56
647.907	7080.68
648.099	6998.76
648.292	7049.96
648.485	7088.87
648.678	6998.76
648.871	6970.09
649.064	6908.65
649.256	7070.44
649.449	6769.39
649.642	6646.51
649.835	6894.32
650.027	6640.37
650.22	6640.37
650.413	6558.45
650.605	6572.79
650.798	6636.27
650.991	6367.99
651.183	6630.13
651.376	6296.31
651.568	6519.54
651.761	6329.08
651.954	6273.78
652.146	6417.14
652.339	6175.48
652.531	6286.07
652.724	6015.74
652.916	6025.98
653.109	6019.83
653.301	5948.15
653.494	6138.62
653.686	5880.57
653.879	5833.47
654.071	5804.8
654.263	5800.7
654.456	5743.36
654.648	5681.92
654.84	5614.34
655.033	5624.58
655.225	5567.23
655.417	5583.62
655.61	5493.51
655.802	5600
655.994	5423.87
656.186	5462.79
656.379	5368.58
656.571	5341.96
656.763	5270.28
656.955	5270.28
657.148	5190.41
657.34	5262.09
657.532	5262.09
657.724	5131.02
657.916	5032.71
658.108	5139.21
658.3	5036.81
658.492	5157.64
658.684	4954.89
658.876	4967.18
659.068	4967.18
659.26	5026.57
659.452	4799.24
659.644	4852.49
659.836	4883.21
660.028	4815.63
660.22	4543.25
660.412	4672.27
660.604	4604.69
660.796	4559.63
660.988	4625.17
661.18	4469.52
661.372	4442.9
661.563	4588.3
661.755	4385.55
661.947	4449.04
662.139	4356.88
662.331	4340.5
662.522	4315.92
662.714	4223.76
662.906	4297.49
663.097	4191
663.289	4162.33
663.481	3965.72
663.673	4154.13
663.864	3982.1
664.056	4039.45
664.247	3885.85
664.439	3975.96
664.631	3918.62
664.822	3992.34
665.014	4049.69
665.205	3951.39
665.397	3851.03
665.588	3838.75
665.78	3830.55
665.971	3765.02
666.163	3715.87
666.354	3816.22
666.546	3758.88
666.737	3863.32
666.929	3670.81
667.12	3523.36
667.311	3494.69
667.503	3722.01
667.694	3539.74
667.885	3506.98
668.077	3595.04
668.268	3496.74
668.459	3576.61
668.651	3549.98
668.842	3472.16
669.033	3476.26
669.224	3441.44
669.416	3519.26
669.607	3459.87
669.798	3320.61
669.989	3365.67
670.18	3396.39
670.371	3171.11
670.563	3304.23
670.754	3396.39
670.945	3216.16
671.136	3279.65
671.327	3296.04
671.518	3328.8
671.709	3322.66
671.9	3326.75
672.091	3228.45
672.282	3121.96
672.473	3029.8
672.664	3089.19
672.855	3109.67
673.046	3117.86
673.237	3111.72
673.428	3205.92
673.619	3115.81
673.809	2951.98
674	3066.66
674.191	3040.04
674.382	3113.77
674.573	2997.03
674.764	3083.05
674.954	3099.43
675.145	2976.55
675.336	2986.79
675.527	3066.66
675.717	2921.26
675.908	2945.83
676.099	2880.3
676.289	2870.06
676.48	2900.78
676.671	2757.42
676.861	2874.15
677.052	2868.01
677.243	2781.99
677.433	2986.79
677.624	2798.38
677.814	2730.8
678.005	2720.56
678.195	2784.04
678.386	2650.92
678.576	2689.84
678.767	2669.36
678.957	2786.09
679.148	2800.43
679.338	2712.36
679.529	2749.23
679.719	2726.7
679.909	2689.84
680.1	2822.95
680.29	2771.76
680.481	2616.11
680.671	2698.03
680.861	2638.64
681.052	2718.51
681.242	2634.54
681.432	2648.88
681.622	2671.4
681.813	2587.44
682.003	2659.12
682.193	2638.64
682.383	2575.15
682.573	2603.82
682.764	2675.5
682.954	2564.91
683.144	2583.34
683.334	2485.04
683.524	2581.29
683.714	2601.77
683.904	2614.06
684.094	2542.38
684.284	2618.16
684.474	2667.31
684.664	2552.62
684.854	2571.05
685.044	2501.42
685.234	2513.71
685.424	2485.04
685.614	2528.05
685.804	2597.68
685.994	2470.7
686.184	2452.27
686.374	2581.29
686.564	2556.72
686.753	2425.65
686.943	2536.24
687.133	2458.42
687.323	2552.62
687.513	2485.04
687.702	2624.3
687.892	2458.42
688.082	2558.77
688.272	2652.97
688.461	2482.99
688.651	2509.62
688.841	2394.93
689.03	2528.05
689.22	2501.42
689.41	2482.99
689.599	2470.7
689.789	2386.74
689.979	2390.83
690.168	2501.42
690.358	2390.83
690.547	2552.62
690.737	2442.03
690.926	2493.23
691.116	2409.26
691.305	2450.22
691.495	2526
691.684	2450.22
691.874	2433.84
692.063	2452.27
692.252	2403.12
692.442	2657.07
692.631	2519.85
692.82	2444.08
693.01	2497.33
693.199	2390.83
693.388	2503.47
693.578	2446.13
693.767	2433.84
693.956	2386.74
694.146	2409.26
694.335	2353.97
694.524	2388.78
694.713	2519.85
694.902	2399.02
695.092	2460.46
695.281	2409.26
695.47	2480.94
695.659	2478.9
695.848	2425.65
696.037	2429.74
696.226	2372.4
696.415	2437.94
696.604	2466.61
696.793	2528.05
696.982	2425.65
697.171	2339.63
697.36	2452.27
697.549	2468.66
697.738	2386.74
697.927	2444.08
698.116	2452.27
698.305	2448.18
698.494	2370.35
698.683	2536.24
698.872	2456.37
699.061	2417.46
699.25	2468.66
699.438	2487.09
699.627	2411.31
699.816	2423.6
700.005	2411.31
700.193	2321.2
700.382	2378.55
700.571	2290.48
700.76	2302.77
700.948	2396.98
701.137	2394.93
701.326	2366.26
701.514	2218.8
701.703	2409.26
701.892	2284.34
702.08	2390.83
702.269	2308.91
702.457	2286.39
702.646	2384.69
702.834	2345.78
703.023	2284.34
703.212	2372.4
703.4	2224.95
703.589	2214.71
703.777	2272.05
703.965	2300.72
704.154	2300.72
704.342	2308.91
704.531	2284.34
704.719	2218.8
704.907	2239.28
705.096	2259.76
705.284	2325.3
705.472	2233.14
705.661	2190.13
705.849	2116.41
706.037	2245.43
706.226	2272.05
706.414	2347.83
706.602	2159.41
706.79	2227
706.979	2128.69
707.167	2143.03
707.355	2220.85
707.543	2147.12
707.731	2165.56
707.919	2122.55
708.107	2081.59
708.296	2153.27
708.484	2110.26
708.672	2128.69
708.86	2061.11
709.048	2059.06
709.236	2067.25
709.424	2063.16
709.612	2018.1
709.8	2030.39
709.988	1952.57
710.176	2018.1
710.364	1975.1
710.551	2063.16
710.739	2102.07
710.927	1907.51
711.115	1934.14
711.303	1989.43
711.491	2020.15
711.679	1905.46
711.866	1975.1
712.054	1995.57
712.242	1887.03
712.43	2007.86
712.617	1870.65
712.805	1868.6
712.993	1930.04
713.181	1760.06
713.368	1891.13
713.556	1852.22
713.744	1893.18
713.931	1903.42
714.119	1952.57
714.306	1917.75
714.494	1891.13
714.682	1852.22
714.869	1762.11
715.057	1762.11
715.244	1649.47
715.432	1780.54
715.619	1866.55
715.807	1712.96
715.994	1790.78
716.182	1846.07
716.369	1667.9
716.556	1887.03
716.744	1715
716.931	1606.46
717.119	1794.87
717.306	1731.39
717.493	1780.54
717.681	1770.3
717.868	1829.69
718.055	1706.81
718.242	1690.43
718.43	1809.21
718.617	1639.23
718.804	1641.28
718.991	1694.52
719.179	1569.6
719.366	1602.36
719.553	1715
719.74	1628.99
719.927	1618.75
720.114	1559.36
720.301	1485.63
720.488	1526.59
720.676	1483.58
720.863	1665.85
721.05	1536.83
721.237	1479.49
721.424	1516.35
721.611	1602.36
721.798	1540.93
721.985	1510.21
722.172	1577.79
722.358	1463.1
722.545	1563.45
722.732	1467.2
722.919	1547.07
723.106	1434.43
723.293	1508.16
723.48	1436.48
723.667	1461.06
723.853	1467.2
724.04	1438.53
724.227	1405.76
724.414	1461.06
724.6	1450.82
724.787	1407.81
724.974	1485.63
725.161	1370.94
725.347	1424.19
725.534	1397.57
725.72	1413.95
725.907	1334.08
726.094	1383.23
726.28	1397.57
726.467	1438.53
726.653	1391.42
726.84	1313.6
727.027	1436.48
727.213	1360.7
727.4	1375.04
727.586	1305.41
727.773	1203.01
727.959	1309.51
728.145	1243.97
728.332	1323.84
728.518	1309.51
728.705	1307.46
728.891	1239.87
729.077	1252.16
729.264	1241.92
729.45	1254.21
729.636	1211.2
729.823	1338.18
730.009	1223.49
730.195	1319.75
730.382	1282.88
730.568	1289.03
730.754	1286.98
730.94	1346.37
731.126	1190.72
731.313	1198.92
731.499	1149.76
731.685	1233.73
731.871	1184.58
732.057	1272.64
732.243	1256.26
732.429	1170.24
732.615	1174.34
732.801	1114.95
732.987	1155.91
733.173	1243.97
733.359	1192.77
733.545	1174.34
733.731	1069.89
733.917	1196.87
734.103	1139.52
734.289	1153.86
734.475	1188.68
734.661	1108.8
734.847	1180.48
735.033	1127.24
735.219	1151.81
735.404	1114.95
735.59	1090.37
735.776	1057.61
735.962	1084.23
736.148	1061.7
736.333	1110.85
736.519	1053.51
736.705	1026.89
736.89	1049.41
737.076	1055.56
737.262	990.02
737.447	1067.85
737.633	1090.37
737.819	1018.69
738.004	1059.65
738.19	1002.31
738.375	1045.32
738.561	1082.18
738.747	1051.46
738.932	1006.41
739.118	1026.89
739.303	906.06
739.489	1108.8
739.674	967.49
739.859	1084.23
740.045	994.12
740.23	912.2
740.416	1037.13
740.601	1010.5
740.786	947.01
740.972	961.35
741.157	924.49
741.342	1000.26
741.528	940.87
741.713	944.97
741.898	940.87
742.084	912.2
742.269	920.39
742.454	969.54
742.639	961.35
742.824	867.14
743.01	953.16
743.195	916.3
743.38	861
743.565	920.39
743.75	912.2
743.935	904.01
744.12	1016.65
744.305	893.77
744.49	920.39
744.675	797.51
744.86	834.38
745.045	830.28
745.23	848.71
745.415	817.99
745.6	797.51
745.785	820.04
745.97	848.71
746.155	867.14
746.34	826.18
746.525	783.18
746.71	834.38
746.895	875.34
747.079	807.75
747.264	828.23
747.449	904.01
747.634	828.23
747.819	774.99
748.003	748.36
748.188	750.41
748.373	727.88
748.557	781.13
748.742	809.8
748.927	768.84
749.111	766.79
749.296	682.83
749.481	711.5
749.665	699.21
749.85	695.11
750.034	820.04
750.219	760.65
750.404	797.51
750.588	734.03
750.773	650.06
750.957	719.69
751.141	670.54
751.326	693.07
751.51	709.45
751.695	734.03
751.879	699.21
752.064	684.87
752.248	641.87
752.432	697.16
752.617	684.87
752.801	588.62
752.985	670.54
753.17	572.24
753.354	645.96
753.538	615.24
753.722	566.09
753.907	568.14
754.091	570.19
754.275	607.05
754.459	598.86
754.643	605
754.828	627.53
755.012	625.48
755.196	537.42
755.38	586.57
755.564	598.86
755.748	699.21
755.932	588.62
756.116	660.3
756.3	652.11
756.484	533.33
756.668	635.72
756.852	541.52
757.036	611.15
757.22	535.37
757.404	535.37
757.588	568.14
757.772	580.43
757.956	461.65
758.14	541.52
758.323	547.66
758.507	543.57
758.691	551.76
758.875	496.46
759.059	545.61
759.242	514.89
759.426	486.22
759.61	488.27
759.794	428.88
759.977	478.03
760.161	502.61
760.345	588.62
760.528	584.52
760.712	600.91
760.895	488.27
761.079	496.46
761.263	498.51
761.446	443.21
761.63	492.37
761.813	516.94
761.997	469.84
762.18	516.94
762.364	488.27
762.547	478.03
762.731	471.89
762.914	537.42
763.098	453.45
763.281	459.6
763.464	473.93
763.648	418.64
763.831	453.45
764.015	529.23
764.198	494.41
764.381	465.74
764.564	518.99
764.748	473.93
764.931	459.6
765.114	473.93
765.297	449.36
765.481	424.78
765.664	420.69
765.847	471.89
766.03	471.89
766.213	449.36
766.397	459.6
766.58	379.73
766.763	459.6
766.946	473.93
767.129	486.22
767.312	424.78
767.495	467.79
767.678	426.83
767.861	480.08
768.044	432.97
768.227	459.6
768.41	355.15
768.593	490.32
768.776	457.55
768.959	363.34
769.142	385.87
769.324	428.88
769.507	404.3
769.69	394.06
769.873	424.78
770.056	402.26
770.239	459.6
770.421	430.93
770.604	414.54
770.787	322.38
770.97	412.5
771.152	387.92
771.335	400.21
771.518	394.06
771.7	392.02
771.883	443.21
772.066	363.34
772.248	385.87
772.431	398.16
772.613	332.62
772.796	365.39
772.978	430.93
773.161	398.16
773.343	373.58
773.526	338.77
773.708	269.14
773.891	365.39
774.073	301.9
774.256	334.67
774.438	332.62
774.621	277.33
774.803	355.15
774.985	365.39
775.168	271.19
775.35	363.34
775.532	256.85
775.715	328.53
775.897	357.2
776.079	365.39
776.261	400.21
776.444	355.15
776.626	297.81
776.808	314.19
776.99	371.54
777.173	252.75
777.355	318.29
777.537	336.72
777.719	299.86
777.901	273.23
778.083	361.3
778.265	308.05
778.447	293.71
778.629	289.62
778.811	273.23
778.993	330.58
779.175	308.05
779.357	306
779.539	281.43
779.721	314.19
779.903	314.19
780.085	301.9
780.267	314.19
780.449	234.32
780.631	226.13
780.812	299.86
780.994	285.52
781.176	293.71
781.358	205.65
781.54	224.08
781.721	289.62
781.903	209.75
782.085	283.47
782.267	236.37
782.448	316.24
782.63	240.47
782.812	226.13
782.993	269.14
783.175	248.66
783.357	217.94
783.538	265.04
783.72	213.84
783.901	226.13
784.083	230.23
784.264	174.93
784.446	162.64
784.627	217.94
784.809	291.66
784.99	207.7
785.172	172.88
785.353	224.08
785.535	260.95
785.716	183.12
785.897	271.19
786.079	250.71
786.26	199.51
786.441	222.03
786.623	248.66
786.804	195.41
786.985	217.94
787.167	226.13
787.348	144.21
787.529	179.03
787.71	197.46
787.891	281.43
788.073	242.51
788.254	176.98
788.435	258.9
788.616	140.12
788.797	236.37
788.978	201.55
789.159	129.88
789.34	213.84
789.522	164.69
789.703	191.31
789.884	146.26
790.065	205.65
790.246	238.42
790.427	252.75
790.607	197.46
790.788	242.51
790.969	168.79
791.15	191.31
791.331	217.94
791.512	113.49
791.693	172.88
791.874	189.27
792.054	199.51
792.235	160.59
792.416	189.27
792.597	162.64
792.778	158.55
792.958	236.37
793.139	146.26
793.32	209.75
793.5	107.35
793.681	207.7
793.862	140.12
794.042	119.64
794.223	138.07
794.404	201.55
794.584	125.78
794.765	144.21
794.945	129.88
795.126	160.59
795.306	140.12
795.487	136.02
795.667	158.55
795.848	97.11
796.028	88.92
796.209	144.21
796.389	150.36
796.57	150.36
796.75	107.35
796.93	142.16
797.111	84.82
797.291	174.93
797.471	166.74
797.652	189.27
797.832	99.16
798.012	215.89
798.192	133.97
798.373	105.3
798.553	58.2
798.733	84.82
798.913	41.81
799.093	54.1
799.274	160.59
799.454	133.97
799.634	62.29
799.814	125.78
799.994	129.88
800.174	125.78
800.354	90.96
800.534	82.77
800.714	101.2
800.894	90.96
801.074	109.4
801.254	107.35
801.434	174.93
801.614	90.96
801.794	76.63
801.974	385.87
802.154	88.92
802.334	162.64
802.514	72.53
802.693	168.79
802.873	95.06
803.053	105.3
803.233	133.97
803.413	107.35
803.592	174.93
803.772	117.59
803.952	154.45
804.131	95.06
804.311	35.67
804.491	142.16
804.67	21.33
804.85	93.01
805.03	93.01
805.209	54.1
805.389	86.87
805.568	131.92
805.748	84.82
805.928	111.44
806.107	99.16
806.287	84.82
806.466	125.78
806.646	11.09
806.825	31.57
807.004	88.92
807.184	95.06
807.363	93.01
807.543	93.01
807.722	60.24
807.901	84.82
808.081	90.96
808.26	64.34
808.439	119.64
808.619	70.48
808.798	86.87
808.977	88.92
809.156	60.24
809.336	127.83
809.515	129.88
809.694	103.25
809.873	99.16
810.052	150.36
810.231	62.29
810.411	43.86
810.59	125.78
810.769	31.57
810.948	74.58
811.127	62.29
811.306	47.96
811.485	45.91
811.664	70.48
811.843	45.91
812.022	121.68
812.201	9.05
812.38	133.97
812.559	58.2
812.737	95.06
812.916	43.86
813.095	82.77
813.274	29.52
813.453	80.72
813.632	101.2
813.811	80.72
813.989	35.67
814.168	80.72
814.347	64.34
814.526	19.29
814.704	113.49
814.883	84.82
815.062	27.48
815.24	140.12
815.419	23.38
815.598	154.45
815.776	31.57
815.955	62.29
816.133	27.48
816.312	60.24
816.49	7
816.669	121.68
816.847	80.72
817.026	107.35
817.204	72.53
817.383	74.58
817.561	17.24
817.74	97.11
817.918	111.44
818.097	0.85
818.275	39.76
818.453	131.92
818.632	70.48
818.81	19.29
818.988	86.87
819.167	84.82
819.345	101.2
819.523	43.86
819.701	39.76
819.879	23.38
820.058	-5.29
820.236	23.38
820.414	82.77
820.592	93.01
820.77	37.72
820.948	70.48
821.127	86.87
821.305	0.85
821.483	27.48
821.661	39.76
821.839	78.68
822.017	93.01
822.195	47.96
822.373	84.82
822.551	43.86
822.729	9.05
822.907	35.67
823.085	70.48
823.262	78.68
823.44	11.09
823.618	74.58
823.796	93.01
823.974	50
824.152	121.68
824.329	52.05
824.507	72.53
824.685	68.44
824.863	54.1
825.04	21.33
825.218	84.82
825.396	80.72
825.574	56.15
825.751	60.24
825.929	39.76
826.107	31.57
826.284	-11.43
826.462	80.72
826.639	39.76
826.817	37.72
826.994	82.77
827.172	0.85
827.349	-9.39
827.527	52.05
827.704	68.44
827.882	47.96
828.059	19.29
828.237	27.48
828.414	93.01
828.591	19.29
828.769	35.67
828.946	64.34
829.124	90.96
829.301	15.19
829.478	35.67
829.655	7
829.833	31.57
830.01	35.67
830.187	64.34
830.364	82.77
830.542	54.1
830.719	31.57
830.896	23.38
831.073	150.36
831.25	54.1
831.427	27.48
831.604	68.44
831.782	45.91
831.959	60.24
832.136	72.53
832.313	82.77
832.49	58.2
832.667	-13.48
832.844	37.72
833.021	23.38
833.198	-27.82
833.374	-1.19
833.551	-1.19
833.728	-29.87
833.905	-17.58
834.082	4.95
834.259	2.9
834.436	60.24
834.612	-17.58
834.789	56.15
834.966	97.11
835.143	-9.39
835.319	-21.67
835.496	56.15
835.673	72.53
835.85	13.14
836.026	74.58
836.203	39.76
836.38	60.24
836.556	37.72
836.733	86.87
836.909	21.33
837.086	-27.82
837.262	56.15
837.439	17.24
837.616	33.62
837.792	27.48
837.968	21.33
838.145	54.1
838.321	27.48
838.498	52.05
838.674	47.96
838.851	43.86
839.027	-44.2
839.203	29.52
839.38	-46.25
839.556	21.33
839.732	80.72
839.909	37.72
840.085	2.9
840.261	19.29
840.437	72.53
840.614	11.09
840.79	88.92
840.966	93.01
841.142	37.72
841.318	-85.16
841.494	45.91
841.671	23.38
841.847	11.09
842.023	-9.39
842.199	35.67
842.375	-17.58
842.551	19.29
842.727	9.05
842.903	35.67
843.079	43.86
843.255	39.76
843.431	45.91
843.607	-46.25
843.783	-17.58
843.959	19.29
844.134	19.29
844.31	60.24
844.486	9.05
844.662	-17.58
844.838	54.1
845.013	7
845.189	52.05
845.365	54.1
845.541	74.58
845.716	27.48
845.892	25.43
846.068	7
846.244	-7.34
846.419	43.86
846.595	0.85
846.77	7
846.946	56.15
847.122	2.9
847.297	-36.01
847.473	101.2
847.648	-31.91
847.824	-25.77
847.999	25.43
848.175	-7.34
848.35	-7.34
848.526	-5.29
848.701	21.33
848.876	93.01
849.052	-29.87
849.227	-9.39
849.403	41.81
849.578	15.19
849.753	82.77
849.929	13.14
850.104	41.81
850.279	45.91
850.454	11.09
850.63	-5.29
850.805	41.81
850.98	47.96
851.155	2.9
851.33	52.05
851.505	9.05
851.681	27.48
851.856	23.38
852.031	41.81
852.206	68.44
852.381	2.9
852.556	31.57
852.731	27.48
852.906	-38.06
853.081	58.2
853.256	52.05
853.431	-48.3
853.606	13.14
853.781	-19.63
853.956	-29.87
854.131	-5.29
854.305	23.38
854.48	2.9
854.655	-3.24
854.83	72.53
855.005	-3.24
855.18	25.43
855.354	29.52
855.529	11.09
855.704	17.24
855.879	74.58
856.053	-27.82
856.228	39.76
856.403	7
856.577	7
856.752	-33.96
856.926	-3.24
857.101	2.9
857.276	11.09
857.45	-23.72
857.625	54.1
857.799	-15.53
857.974	9.05
858.148	-9.39
858.323	23.38
858.497	-60.59
858.672	-29.87
858.846	-9.39
859.02	13.14
859.195	-76.97
859.369	-72.87
859.543	11.09
859.718	19.29
859.892	17.24
860.066	-42.15
860.241	29.52
860.415	-64.68
860.589	39.76
860.763	-9.39
860.938	-13.48
861.112	95.06
861.286	2.9
861.46	39.76
861.634	13.14
861.808	13.14
861.982	27.48
862.157	23.38
862.331	62.29
862.505	29.52
862.679	39.76
862.853	9.05
863.027	21.33
863.201	17.24
863.375	-7.34
863.549	-13.48
863.722	-27.82
863.896	19.29
864.07	-42.15
864.244	2.9
864.418	15.19
864.592	-19.63
864.766	-21.67
864.939	15.19
865.113	-38.06
865.287	45.91
865.461	-85.16
865.634	27.48
865.808	0.85
865.982	-13.48
866.156	31.57
866.329	2.9
866.503	-54.44
866.676	11.09
866.85	33.62
867.024	-52.39
867.197	17.24
867.371	138.07
867.544	-48.3
867.718	7
867.891	-13.48
868.065	7
868.238	11.09
868.412	84.82
868.585	-7.34
868.759	72.53
868.932	-44.2
869.105	11.09
869.279	-19.63
869.452	21.33
869.625	11.09
869.799	41.81
869.972	-25.77
870.145	31.57
870.319	43.86
870.492	25.43
870.665	-25.77
870.838	17.24
871.011	-15.53
871.185	-27.82
871.358	11.09
871.531	43.86
871.704	-3.24
871.877	-7.34
872.05	-54.44
872.223	-5.29
872.396	4.95
872.569	47.96
872.742	-99.5
872.915	-1.19
873.088	25.43
873.261	-38.06
873.434	-3.24
873.607	27.48
873.78	17.24
873.953	52.05
874.126	56.15
874.299	-3.24
874.471	-3.24
874.644	58.2
874.817	23.38
874.99	-42.15
875.163	62.29
875.335	19.29
875.508	-15.53
875.681	4.95
875.853	13.14
876.026	-38.06
876.199	-33.96
876.371	47.96
876.544	-40.11
876.717	0.85
876.889	19.29
877.062	56.15
877.234	37.72
877.407	31.57
877.579	-38.06
877.752	-40.11
877.924	-64.68
878.097	7
878.269	-54.44
878.442	-38.06
878.614	-11.43
878.786	21.33
878.959	-23.72
879.131	33.62
879.303	-42.15
879.476	-3.24
879.648	0.85
879.82	82.77
879.993	52.05
880.165	27.48
880.337	-70.83
880.509	21.33
880.681	-38.06
880.854	25.43
881.026	-60.59
881.198	9.05
881.37	-27.82
881.542	-3.24
881.714	11.09
881.886	88.92
882.058	21.33
882.23	-5.29
882.402	27.48
882.574	27.48
882.746	-33.96
882.918	47.96
883.09	17.24
883.262	-50.35
883.434	-52.39
883.606	-38.06
883.778	54.1
883.95	-27.82
884.122	37.72
884.293	-5.29
884.465	-23.72
884.637	-21.67
884.809	15.19
884.98	21.33
885.152	45.91
885.324	29.52
885.496	37.72
885.667	56.15
885.839	-5.29
886.011	64.34
886.182	-40.11
886.354	-5.29
886.525	-13.48
886.697	27.48
886.869	-21.67
887.04	4.95
887.212	-5.29
887.383	47.96
887.555	37.72
887.726	13.14
887.897	66.39
888.069	-40.11
888.24	2.9
888.412	52.05
888.583	-27.82
888.754	-15.53
888.926	-3.24
889.097	45.91
889.268	-33.96
889.44	27.48
889.611	-36.01
889.782	0.85
889.953	-33.96
890.125	-46.25
890.296	-25.77
890.467	23.38
890.638	-21.67
890.809	15.19
890.98	-1.19
891.151	-33.96
891.323	52.05
891.494	29.52
891.665	50
891.836	43.86
892.007	15.19
892.178	-19.63
892.349	54.1
892.52	-126.12
892.691	4.95
892.862	2.9
893.032	-44.2
893.203	-23.72
893.374	27.48
893.545	-13.48
893.716	27.48
893.887	27.48
894.057	-62.63
894.228	-5.29
894.399	-15.53
894.57	13.14
894.74	-21.67
894.911	-40.11
895.082	50
895.253	-9.39
895.423	13.14
895.594	2.9
895.764	23.38
895.935	-11.43
896.106	2.9
896.276	-3.24
896.447	13.14
896.617	4.95
896.788	15.19
896.958	-15.53
897.129	-50.35
897.299	17.24
897.47	-25.77
897.64	70.48
897.81	-17.58
897.981	-36.01
898.151	-38.06
898.322	-19.63
898.492	7
898.662	-46.25
898.832	31.57
899.003	0.85
899.173	35.67
899.343	-21.67
899.513	-7.34
