Data from USB4F104151__53__13-53-29-977.txt Node

Date: Thu Mar 13 13:53:29 EDT 2025
User: louis
Spectrometer: USB4F10415
Trigger mode: 4
Integration Time (sec): 1.000000E-2
Scans to average: 1
Electric dark correction enabled: true
Nonlinearity correction enabled: false
Boxcar width: 0
XAxis mode: Wavelengths
Number of Pixels in Spectrum: 3648
>>>>>Begin Spectral Data<<<<<
178.204	-50.52
178.424	-50.52
178.644	-50.52
178.864	-9.56
179.084	-17.75
179.304	39.59
179.524	-3.41
179.744	-46.42
179.964	33.45
180.184	-60.76
180.404	-19.8
180.624	-5.46
180.844	94.89
181.064	-42.32
181.283	-36.18
181.503	37.55
181.723	8.87
181.943	-77.14
182.163	2.73
182.383	-7.51
182.602	-5.46
182.822	10.92
183.042	-19.8
183.262	21.16
183.482	92.84
183.701	19.11
183.921	-21.85
184.141	-27.99
184.361	49.83
184.58	10.92
184.8	58.03
185.02	-30.04
185.239	-42.32
185.459	62.12
185.679	-11.61
185.898	-23.89
186.118	-3.41
186.338	27.31
186.557	-34.13
186.777	33.45
186.997	47.79
187.216	10.92
187.436	25.26
187.655	0.68
187.875	94.89
188.095	45.74
188.314	25.26
188.534	70.31
188.753	27.31
188.973	-21.85
189.192	-34.13
189.412	39.59
189.631	25.26
189.851	15.02
190.07	35.5
190.29	-23.89
190.509	2.73
190.729	25.26
190.948	39.59
191.168	53.93
191.387	55.98
191.607	58.03
191.826	80.55
192.045	8.87
192.265	17.07
192.484	58.03
192.704	17.07
192.923	23.21
193.142	55.98
193.362	-91.48
193.581	-30.04
193.8	-9.56
194.02	-23.89
194.239	-13.65
194.458	10.92
194.678	15.02
194.897	15.02
195.116	-40.28
195.335	-23.89
195.555	96.94
195.774	-7.51
195.993	47.79
196.212	12.97
196.432	-52.56
196.651	-54.61
196.87	-9.56
197.089	43.69
197.308	37.55
197.528	33.45
197.747	-77.14
197.966	31.4
198.185	98.99
198.404	-15.7
198.623	19.11
198.842	55.98
199.062	49.83
199.281	-19.8
199.5	0.68
199.719	-64.85
199.938	-17.75
200.157	2.73
200.376	-3.41
200.595	-15.7
200.814	41.64
201.033	0.68
201.252	60.07
201.471	-38.23
201.69	2.73
201.909	96.94
202.128	-30.04
202.347	29.35
202.566	-34.13
202.785	8.87
203.004	-40.28
203.223	-3.41
203.442	-3.41
203.661	-7.51
203.879	4.78
204.098	-50.52
204.317	-19.8
204.536	-15.7
204.755	-58.71
204.974	84.65
205.193	103.08
205.411	111.27
205.63	29.35
205.849	-5.46
206.068	-34.13
206.287	-1.37
206.505	-19.8
206.724	21.16
206.943	-34.13
207.162	25.26
207.381	-15.7
207.599	-30.04
207.818	-27.99
208.037	35.5
208.255	-21.85
208.474	-62.8
208.693	25.26
208.911	-5.46
209.13	-5.46
209.349	43.69
209.567	39.59
209.786	4.78
210.005	-19.8
210.223	-13.65
210.442	2.73
210.661	25.26
210.879	-21.85
211.098	17.07
211.316	-3.41
211.535	-23.89
211.753	-48.47
211.972	41.64
212.191	53.93
212.409	31.4
212.628	-52.56
212.846	35.5
213.065	-13.65
213.283	-50.52
213.502	10.92
213.72	31.4
213.938	35.5
214.157	19.11
214.375	29.35
214.594	10.92
214.812	-30.04
215.031	62.12
215.249	-48.47
215.467	21.16
215.686	-42.32
215.904	37.55
216.122	-9.56
216.341	23.21
216.559	60.07
216.778	15.02
216.996	129.7
217.214	-13.65
217.432	70.31
217.651	23.21
217.869	-1.37
218.087	-5.46
218.306	-17.75
218.524	53.93
218.742	17.07
218.96	64.17
219.179	17.07
219.397	60.07
219.615	-9.56
219.833	4.78
220.051	-64.85
220.27	-1.37
220.488	2.73
220.706	51.88
220.924	-54.61
221.142	41.64
221.36	-17.75
221.578	12.97
221.796	90.79
222.015	31.4
222.233	-44.37
222.451	23.21
222.669	12.97
222.887	74.41
223.105	17.07
223.323	82.6
223.541	-7.51
223.759	60.07
223.977	12.97
224.195	-1.37
224.413	33.45
224.631	10.92
224.849	8.87
225.067	105.13
225.285	-23.89
225.503	55.98
225.721	-19.8
225.939	70.31
226.157	-1.37
226.375	29.35
226.592	-21.85
226.81	-56.66
227.028	6.83
227.246	-5.46
227.464	12.97
227.682	23.21
227.9	47.79
228.117	-1.37
228.335	10.92
228.553	47.79
228.771	-7.51
228.989	47.79
229.206	66.22
229.424	64.17
229.642	29.35
229.86	-13.65
230.077	41.64
230.295	12.97
230.513	35.5
230.731	70.31
230.948	0.68
231.166	92.84
231.384	-36.18
231.601	55.98
231.819	6.83
232.037	10.92
232.254	33.45
232.472	-25.94
232.689	-13.65
232.907	17.07
233.125	49.83
233.342	8.87
233.56	12.97
233.777	-17.75
233.995	23.21
234.213	43.69
234.43	-5.46
234.648	64.17
234.865	49.83
235.083	45.74
235.3	-54.61
235.518	-77.14
235.735	-40.28
235.953	51.88
236.17	29.35
236.388	23.21
236.605	-40.28
236.822	12.97
237.04	29.35
237.257	62.12
237.475	-9.56
237.692	101.03
237.909	-30.04
238.127	-68.95
238.344	58.03
238.562	55.98
238.779	-38.23
238.996	27.31
239.214	15.02
239.431	15.02
239.648	-27.99
239.865	80.55
240.083	-5.46
240.3	21.16
240.517	35.5
240.735	0.68
240.952	-15.7
241.169	84.65
241.386	66.22
241.603	-34.13
241.821	-5.46
242.038	31.4
242.255	10.92
242.472	80.55
242.689	2.73
242.907	31.4
243.124	17.07
243.341	49.83
243.558	37.55
243.775	-79.19
243.992	62.12
244.209	-3.41
244.426	-17.75
244.643	25.26
244.86	35.5
245.078	-25.94
245.295	19.11
245.512	35.5
245.729	8.87
245.946	-15.7
246.163	12.97
246.38	43.69
246.597	41.64
246.814	-7.51
247.031	-25.94
247.248	94.89
247.464	-79.19
247.681	137.9
247.898	53.93
248.115	-11.61
248.332	-23.89
248.549	70.31
248.766	101.03
248.983	-7.51
249.2	33.45
249.417	37.55
249.633	-25.94
249.85	21.16
250.067	17.07
250.284	70.31
250.501	51.88
250.717	43.69
250.934	12.97
251.151	-9.56
251.368	41.64
251.585	25.26
251.801	-52.56
252.018	17.07
252.235	27.31
252.451	60.07
252.668	-17.75
252.885	68.27
253.102	-9.56
253.318	17.07
253.535	-1.37
253.752	-3.41
253.968	-52.56
254.185	-19.8
254.401	19.11
254.618	-3.41
254.835	82.6
255.051	45.74
255.268	58.03
255.484	43.69
255.701	51.88
255.917	60.07
256.134	-11.61
256.351	12.97
256.567	19.11
256.784	10.92
257	4.78
257.217	43.69
257.433	60.07
257.65	39.59
257.866	12.97
258.082	-44.37
258.299	-9.56
258.515	29.35
258.732	-7.51
258.948	-9.56
259.165	2.73
259.381	60.07
259.597	45.74
259.814	109.22
260.03	33.45
260.246	-32.08
260.463	41.64
260.679	62.12
260.895	-9.56
261.112	82.6
261.328	-13.65
261.544	4.78
261.761	-9.56
261.977	-56.66
262.193	-56.66
262.409	25.26
262.626	19.11
262.842	37.55
263.058	33.45
263.274	88.75
263.49	4.78
263.707	43.69
263.923	-27.99
264.139	-36.18
264.355	66.22
264.571	60.07
264.787	17.07
265.004	-9.56
265.22	-40.28
265.436	27.31
265.652	-50.52
265.868	10.92
266.084	29.35
266.3	70.31
266.516	37.55
266.732	98.99
266.948	-13.65
267.164	27.31
267.38	31.4
267.596	60.07
267.812	105.13
268.028	58.03
268.244	43.69
268.46	-5.46
268.676	-38.23
268.892	-46.42
269.108	-3.41
269.324	53.93
269.54	-32.08
269.756	29.35
269.972	64.17
270.188	-52.56
270.403	-48.47
270.619	45.74
270.835	60.07
271.051	60.07
271.267	-5.46
271.483	19.11
271.698	-27.99
271.914	70.31
272.13	41.64
272.346	0.68
272.562	12.97
272.777	12.97
272.993	-15.7
273.209	-42.32
273.425	10.92
273.64	-13.65
273.856	-5.46
274.072	4.78
274.287	0.68
274.503	15.02
274.719	62.12
274.934	-5.46
275.15	-13.65
275.366	-34.13
275.581	10.92
275.797	60.07
276.012	-7.51
276.228	74.41
276.444	66.22
276.659	107.18
276.875	-13.65
277.09	-34.13
277.306	29.35
277.521	25.26
277.737	12.97
277.952	51.88
278.168	-23.89
278.383	-3.41
278.599	66.22
278.814	94.89
279.03	45.74
279.245	4.78
279.461	-42.32
279.676	88.75
279.892	-25.94
280.107	-30.04
280.322	51.88
280.538	49.83
280.753	41.64
280.969	45.74
281.184	37.55
281.399	62.12
281.615	94.89
281.83	15.02
282.045	0.68
282.26	-38.23
282.476	78.51
282.691	29.35
282.906	12.97
283.122	4.78
283.337	45.74
283.552	8.87
283.767	-17.75
283.983	35.5
284.198	133.8
284.413	10.92
284.628	25.26
284.843	4.78
285.058	2.73
285.274	15.02
285.489	19.11
285.704	29.35
285.919	8.87
286.134	94.89
286.349	29.35
286.564	58.03
286.779	31.4
286.995	60.07
287.21	41.64
287.425	12.97
287.64	10.92
287.855	15.02
288.07	-66.9
288.285	25.26
288.5	-11.61
288.715	-25.94
288.93	-11.61
289.145	17.07
289.36	0.68
289.575	-5.46
289.79	2.73
290.004	2.73
290.219	60.07
290.434	29.35
290.649	-9.56
290.864	-40.28
291.079	31.4
291.294	45.74
291.509	43.69
291.724	31.4
291.938	21.16
292.153	-11.61
292.368	-56.66
292.583	47.79
292.798	60.07
293.012	-7.51
293.227	53.93
293.442	-11.61
293.657	-13.65
293.871	60.07
294.086	53.93
294.301	58.03
294.516	8.87
294.73	31.4
294.945	25.26
295.16	41.64
295.374	64.17
295.589	12.97
295.804	-15.7
296.018	-1.37
296.233	-21.85
296.447	-9.56
296.662	-7.51
296.877	6.83
297.091	15.02
297.306	19.11
297.52	78.51
297.735	84.65
297.949	-25.94
298.164	-11.61
298.378	41.64
298.593	-17.75
298.807	111.27
299.022	-17.75
299.236	66.22
299.451	25.26
299.665	-3.41
299.88	37.55
300.094	-3.41
300.309	17.07
300.523	41.64
300.737	-3.41
300.952	2.73
301.166	29.35
301.381	39.59
301.595	35.5
301.809	2.73
302.024	27.31
302.238	66.22
302.452	-44.37
302.667	98.99
302.881	47.79
303.095	25.26
303.309	111.27
303.524	4.78
303.738	2.73
303.952	-7.51
304.166	35.5
304.381	-48.47
304.595	21.16
304.809	64.17
305.023	29.35
305.237	21.16
305.452	-17.75
305.666	17.07
305.88	35.5
306.094	25.26
306.308	39.59
306.522	94.89
306.736	66.22
306.95	0.68
307.164	4.78
307.379	2.73
307.593	90.79
307.807	58.03
308.021	49.83
308.235	64.17
308.449	8.87
308.663	-30.04
308.877	109.22
309.091	17.07
309.305	53.93
309.519	29.35
309.733	17.07
309.947	45.74
310.161	29.35
310.374	39.59
310.588	60.07
310.802	-77.14
311.016	-36.18
311.23	78.51
311.444	-9.56
311.658	21.16
311.872	15.02
312.085	-15.7
312.299	-9.56
312.513	0.68
312.727	-13.65
312.941	92.84
313.154	31.4
313.368	-11.61
313.582	10.92
313.796	-44.37
314.009	23.21
314.223	53.93
314.437	113.32
314.651	-38.23
314.864	4.78
315.078	2.73
315.292	74.41
315.505	86.7
315.719	17.07
315.933	39.59
316.146	-30.04
316.36	43.69
316.573	-13.65
316.787	39.59
317.001	55.98
317.214	-5.46
317.428	23.21
317.641	15.02
317.855	12.97
318.068	19.11
318.282	4.78
318.495	80.55
318.709	58.03
318.922	6.83
319.136	51.88
319.349	94.89
319.563	19.11
319.776	33.45
319.99	-48.47
320.203	-36.18
320.417	33.45
320.63	15.02
320.843	60.07
321.057	27.31
321.27	15.02
321.483	74.41
321.697	55.98
321.91	80.55
322.124	72.36
322.337	-50.52
322.55	43.69
322.763	31.4
322.977	35.5
323.19	27.31
323.403	4.78
323.617	6.83
323.83	35.5
324.043	37.55
324.256	27.31
324.469	0.68
324.683	-1.37
324.896	-3.41
325.109	35.5
325.322	6.83
325.535	60.07
325.748	53.93
325.962	49.83
326.175	-23.89
326.388	21.16
326.601	58.03
326.814	-3.41
327.027	33.45
327.24	86.7
327.453	-13.65
327.666	80.55
327.879	10.92
328.092	68.27
328.305	-52.56
328.518	27.31
328.731	10.92
328.944	43.69
329.157	-46.42
329.37	35.5
329.583	29.35
329.796	23.21
330.009	21.16
330.222	64.17
330.435	27.31
330.648	68.27
330.861	76.46
331.073	43.69
331.286	-50.52
331.499	-19.8
331.712	-27.99
331.925	-9.56
332.138	-36.18
332.35	31.4
332.563	-11.61
332.776	37.55
332.989	41.64
333.202	33.45
333.414	15.02
333.627	-38.23
333.84	-50.52
334.053	37.55
334.265	-79.19
334.478	58.03
334.691	17.07
334.903	25.26
335.116	-7.51
335.329	-7.51
335.541	39.59
335.754	45.74
335.966	-15.7
336.179	-15.7
336.392	127.66
336.604	-25.94
336.817	-15.7
337.029	70.31
337.242	23.21
337.454	-27.99
337.667	-79.19
337.88	51.88
338.092	45.74
338.305	39.59
338.517	68.27
338.729	-9.56
338.942	-11.61
339.154	2.73
339.367	49.83
339.579	37.55
339.792	53.93
340.004	-7.51
340.217	-9.56
340.429	-11.61
340.641	8.87
340.854	-9.56
341.066	21.16
341.278	-25.94
341.491	19.11
341.703	-11.61
341.915	6.83
342.128	60.07
342.34	-30.04
342.552	2.73
342.764	-19.8
342.977	-17.75
343.189	70.31
343.401	-7.51
343.613	-5.46
343.826	51.88
344.038	-23.89
344.25	2.73
344.462	0.68
344.674	-5.46
344.886	45.74
345.099	62.12
345.311	-1.37
345.523	-19.8
345.735	-19.8
345.947	37.55
346.159	25.26
346.371	-68.95
346.583	6.83
346.795	111.27
347.007	-19.8
347.219	33.45
347.431	-17.75
347.643	4.78
347.855	39.59
348.067	-36.18
348.279	23.21
348.491	-11.61
348.703	25.26
348.915	-36.18
349.127	15.02
349.339	43.69
349.551	-5.46
349.763	27.31
349.975	17.07
350.187	84.65
350.399	90.79
350.61	47.79
350.822	6.83
351.034	29.35
351.246	33.45
351.458	27.31
351.669	17.07
351.881	105.13
352.093	-13.65
352.305	0.68
352.517	-25.94
352.728	-9.56
352.94	39.59
353.152	23.21
353.363	35.5
353.575	47.79
353.787	90.79
353.999	86.7
354.21	-5.46
354.422	-3.41
354.633	80.55
354.845	12.97
355.057	35.5
355.268	15.02
355.48	33.45
355.692	29.35
355.903	-5.46
356.115	64.17
356.326	-23.89
356.538	-19.8
356.749	19.11
356.961	-21.85
357.172	29.35
357.384	27.31
357.595	39.59
357.807	41.64
358.018	-36.18
358.23	41.64
358.441	33.45
358.653	-5.46
358.864	43.69
359.075	10.92
359.287	-25.94
359.498	82.6
359.709	41.64
359.921	17.07
360.132	2.73
360.344	84.65
360.555	82.6
360.766	25.26
360.977	-9.56
361.189	-56.66
361.4	21.16
361.611	70.31
361.823	6.83
362.034	-32.08
362.245	-23.89
362.456	21.16
362.667	98.99
362.879	21.16
363.09	37.55
363.301	53.93
363.512	31.4
363.723	2.73
363.935	12.97
364.146	-15.7
364.357	35.5
364.568	-38.23
364.779	-23.89
364.99	45.74
365.201	-50.52
365.412	-60.76
365.623	8.87
365.834	51.88
366.045	10.92
366.256	23.21
366.467	29.35
366.678	8.87
366.889	47.79
367.1	17.07
367.311	47.79
367.522	21.16
367.733	78.51
367.944	55.98
368.155	129.7
368.366	19.11
368.577	53.93
368.788	8.87
368.999	4.78
369.209	33.45
369.42	15.02
369.631	21.16
369.842	43.69
370.053	-44.37
370.264	47.79
370.474	10.92
370.685	55.98
370.896	51.88
371.107	-15.7
371.317	0.68
371.528	10.92
371.739	98.99
371.95	21.16
372.16	62.12
372.371	-17.75
372.582	68.27
372.792	103.08
373.003	62.12
373.214	-19.8
373.424	-15.7
373.635	0.68
373.846	68.27
374.056	27.31
374.267	17.07
374.477	55.98
374.688	-40.28
374.898	31.4
375.109	33.45
375.319	-21.85
375.53	82.6
375.74	19.11
375.951	21.16
376.161	72.36
376.372	53.93
376.582	-11.61
376.793	53.93
377.003	45.74
377.214	47.79
377.424	55.98
377.635	15.02
377.845	39.59
378.055	45.74
378.266	17.07
378.476	-50.52
378.686	53.93
378.897	27.31
379.107	76.46
379.317	68.27
379.528	-25.94
379.738	45.74
379.948	35.5
380.158	10.92
380.369	37.55
380.579	90.79
380.789	19.11
380.999	72.36
381.21	47.79
381.42	70.31
381.63	-5.46
381.84	49.83
382.05	21.16
382.261	84.65
382.471	17.07
382.681	35.5
382.891	43.69
383.101	31.4
383.311	-25.94
383.521	-36.18
383.731	43.69
383.941	6.83
384.151	10.92
384.361	-3.41
384.571	-15.7
384.781	2.73
384.991	49.83
385.201	6.83
385.411	60.07
385.621	66.22
385.831	58.03
386.041	84.65
386.251	33.45
386.461	27.31
386.671	29.35
386.881	29.35
387.091	-3.41
387.301	115.37
387.511	-1.37
387.72	53.93
387.93	6.83
388.14	-15.7
388.35	15.02
388.56	98.99
388.769	0.68
388.979	41.64
389.189	-36.18
389.399	-1.37
389.609	43.69
389.818	51.88
390.028	78.51
390.238	84.65
390.447	-58.71
390.657	88.75
390.867	82.6
391.076	51.88
391.286	80.55
391.496	60.07
391.705	29.35
391.915	80.55
392.125	19.11
392.334	37.55
392.544	88.75
392.753	37.55
392.963	8.87
393.172	35.5
393.382	25.26
393.591	84.65
393.801	43.69
394.01	70.31
394.22	19.11
394.429	31.4
394.639	-15.7
394.848	103.08
395.058	94.89
395.267	41.64
395.477	33.45
395.686	35.5
395.895	58.03
396.105	66.22
396.314	109.22
396.524	-13.65
396.733	2.73
396.942	23.21
397.152	113.32
397.361	96.94
397.57	29.35
397.78	92.84
397.989	64.17
398.198	70.31
398.407	105.13
398.617	72.36
398.826	66.22
399.035	-21.85
399.244	19.11
399.453	90.79
399.663	37.55
399.872	53.93
400.081	55.98
400.29	41.64
400.499	72.36
400.708	127.66
400.917	21.16
401.127	39.59
401.336	105.13
401.545	60.07
401.754	37.55
401.963	66.22
402.172	101.03
402.381	62.12
402.59	33.45
402.799	96.94
403.008	105.13
403.217	92.84
403.426	60.07
403.635	109.22
403.844	84.65
404.053	131.75
404.262	98.99
404.471	98.99
404.68	10.92
404.888	117.42
405.097	51.88
405.306	37.55
405.515	19.11
405.724	115.37
405.933	111.27
406.142	182.95
406.35	76.46
406.559	113.32
406.768	86.7
406.977	68.27
407.185	131.75
407.394	125.61
407.603	160.42
407.812	133.8
408.02	105.13
408.229	178.86
408.438	141.99
408.646	141.99
408.855	201.38
409.064	113.32
409.272	137.9
409.481	148.14
409.69	51.88
409.898	123.56
410.107	264.87
410.315	180.9
410.524	170.66
410.733	262.82
410.941	234.15
411.15	191.14
411.358	174.76
411.567	291.49
411.775	187.05
411.984	238.25
412.192	248.49
412.401	195.24
412.609	283.3
412.818	391.84
413.026	336.55
413.234	340.65
413.443	232.1
413.651	352.93
413.86	367.27
414.068	332.45
414.276	377.51
414.485	389.8
414.693	359.08
414.901	438.95
415.11	434.85
415.318	436.9
415.526	373.41
415.734	459.43
415.943	465.57
416.151	496.29
416.359	559.78
416.567	514.72
416.776	567.97
416.984	600.74
417.192	656.03
417.4	604.83
417.608	631.46
417.817	641.7
418.025	600.74
418.233	715.42
418.441	711.33
418.649	764.57
418.857	864.93
419.065	770.72
419.273	778.91
419.481	823.97
419.689	920.22
419.897	971.42
420.105	877.21
420.313	969.37
420.521	940.7
420.729	1073.82
420.937	1028.76
421.145	1110.68
421.353	1102.49
421.561	1198.74
421.769	1118.87
421.977	1260.18
422.185	1301.14
422.393	1292.95
422.601	1348.25
422.809	1424.02
423.017	1391.25
423.224	1440.4
423.432	1544.85
423.64	1544.85
423.848	1575.57
424.056	1720.98
424.263	1782.42
424.471	1745.55
424.679	1772.18
424.887	1819.28
425.094	1987.21
425.302	1931.92
425.51	1929.87
425.718	1987.21
425.925	2091.66
426.133	2194.06
426.341	2253.45
426.548	2411.14
426.756	2390.66
426.964	2474.63
427.171	2605.7
427.379	2632.32
427.586	2681.47
427.794	2790.02
428.001	2802.3
428.209	3046.01
428.417	2996.86
428.624	3215.99
428.832	3121.79
429.039	3234.43
429.247	3252.86
429.454	3629.68
429.662	3641.97
429.869	3519.09
430.076	3680.88
430.284	3592.82
430.491	3627.64
430.699	3918.45
430.906	3977.84
431.114	4020.85
431.321	4113
431.528	4282.99
431.736	4577.89
431.943	4768.35
432.15	4616.8
432.358	4668
432.565	4956.77
432.772	4840.03
432.979	5202.52
433.187	5169.76
433.394	5401.18
433.601	5685.84
433.808	5648.98
434.016	5614.16
434.223	5943.89
434.43	6337.1
434.637	6077.01
434.844	6423.11
435.052	6453.83
435.259	6509.13
435.466	6634.05
435.673	6492.74
435.88	6945.34
436.087	7313.98
436.294	7268.92
436.501	7100.99
436.708	7387.71
436.915	7283.26
437.122	7911.99
437.329	7969.33
437.537	8075.82
437.743	8071.73
437.95	8161.84
438.157	8688.17
438.364	8780.32
438.571	8882.72
438.778	9017.89
438.985	9738.77
439.192	9361.95
439.399	9669.14
439.606	9515.55
439.813	9919
440.02	10533.39
440.227	10332.68
440.433	10134.03
440.64	10600.97
440.847	10517
441.054	10719.75
441.261	11639.29
441.467	11463.16
441.674	11751.93
441.881	12243.44
442.088	12095.99
442.294	11948.53
442.501	12204.53
442.708	12605.93
442.914	12947.94
443.121	13480.41
443.328	12995.04
443.534	14039.51
443.741	13578.72
443.948	13445.6
444.154	14373.33
444.361	14424.53
444.568	14350.8
444.774	14381.52
444.981	14721.48
445.187	15149.51
445.394	15530.43
445.6	15512
445.807	16910.76
446.013	16275.89
446.22	16748.97
446.426	17324.45
446.633	17312.16
446.839	18137.49
447.046	17031.59
447.252	18100.63
447.459	18114.97
447.665	17887.64
447.871	18903.43
448.078	19894.65
448.284	18592.14
448.491	19007.88
448.697	20140.41
448.903	20351.35
449.11	20334.96
449.316	19931.51
449.522	20380.02
449.728	20672.88
449.935	21014.89
450.141	20973.93
450.347	21219.69
450.553	20601.2
450.76	21039.47
450.966	21692.77
451.172	21291.37
451.378	22245.72
451.584	21629.28
451.791	22006.11
451.997	21678.43
452.203	22606.16
452.409	22286.68
452.615	22171.99
452.821	21313.89
453.027	20992.36
453.233	22215
453.44	21203.3
453.646	21635.42
453.852	21592.42
454.058	21973.34
454.264	21274.98
454.47	21442.92
454.676	21117.29
454.882	21709.15
455.088	19886.46
455.294	20097.4
455.5	20380.02
455.705	20519.28
455.911	19450.24
456.117	19382.66
456.323	18925.96
456.529	18147.73
456.735	18749.84
456.941	18160.02
457.147	17967.51
457.352	17521.06
457.558	17013.16
457.764	17205.67
457.97	16724.4
458.176	16300.47
458.381	16499.12
458.587	15720.89
458.793	15704.51
458.999	14768.59
459.204	15917.5
459.41	15505.85
459.616	14420.43
459.821	14318.03
460.027	14346.7
460.233	14076.37
460.438	13445.6
460.644	13435.36
460.85	12614.12
461.055	12837.35
461.261	12872.17
461.466	11977.2
461.672	11237.89
461.878	12132.85
462.083	11608.57
462.289	11299.33
462.494	11012.61
462.7	10443.28
462.905	10455.56
463.111	10641.93
463.316	10777.09
463.522	10662.41
463.727	10428.94
463.932	10639.88
464.138	10398.22
464.343	10451.47
464.549	10347.02
464.754	10576.39
464.959	10357.26
465.165	10375.69
465.37	10033.68
465.575	9574.94
465.781	10056.21
465.986	10056.21
466.191	9826.84
466.397	9632.28
466.602	9239.07
466.807	9628.18
467.012	9464.35
467.218	9667.1
467.423	9484.83
467.628	9396.76
467.833	9794.07
468.038	9566.74
468.244	9294.36
468.449	9441.82
468.654	9151.01
468.859	9200.16
469.064	8987.17
469.269	8710.69
469.474	8704.55
469.679	9003.55
469.885	8692.26
470.09	8585.77
470.295	8630.82
470.5	8495.66
470.705	8555.05
470.91	8383.02
471.115	8247.85
471.32	8403.5
471.525	8321.58
471.73	8077.87
471.935	8149.55
472.139	7975.47
472.344	7967.28
472.549	7868.98
472.754	7795.25
472.959	7727.67
473.164	7320.12
473.369	7303.74
473.574	7594.55
473.778	7563.83
473.983	7574.07
474.188	7612.98
474.393	7180.86
474.598	7012.93
474.802	7051.84
475.007	7043.65
475.212	7154.24
475.417	6634.05
475.621	6933.06
475.826	6806.08
476.031	6730.31
476.235	6828.61
476.44	6611.53
476.645	6416.97
476.849	6699.59
477.054	6390.35
477.259	6531.65
477.463	6410.82
477.668	6171.21
477.872	6277.71
478.077	6171.21
478.282	6105.68
478.486	6029.9
478.691	5841.49
478.895	5939.79
479.1	5857.87
479.304	6044.24
479.509	5839.44
479.713	5941.84
479.918	5775.95
480.122	5767.76
480.326	5841.49
480.531	5712.47
480.735	5616.21
480.94	5548.63
481.144	5829.2
481.348	5636.69
481.553	5741.14
481.757	5468.76
481.961	5673.56
482.166	5560.92
482.37	5546.58
482.574	5479
482.778	5454.42
482.983	5773.91
483.187	5571.16
483.391	5583.45
483.595	5479
483.8	5415.51
484.004	5493.33
484.208	5608.02
484.412	5585.49
484.616	5548.63
484.821	5653.08
485.025	5483.09
485.229	5495.38
485.433	5468.76
485.637	5542.49
485.841	5556.82
486.045	5468.76
486.249	5450.33
486.453	5511.77
486.657	5530.2
486.861	5630.55
487.065	5450.33
487.269	5462.62
487.473	5466.71
487.677	5583.45
487.881	5622.36
488.085	5343.83
488.289	5458.52
488.493	5485.14
488.697	5558.87
488.901	5515.86
489.105	5691.99
489.309	5653.08
489.512	5735
489.716	5583.45
489.92	5747.28
490.124	5728.85
490.328	5788.24
490.531	5669.46
490.735	5866.07
490.939	5669.46
491.143	5644.88
491.346	5620.31
491.55	5931.6
491.754	5837.39
491.958	5829.2
492.161	5683.8
492.365	5843.54
492.569	5808.72
492.772	5872.21
492.976	5755.47
493.18	5958.22
493.383	5982.8
493.587	6054.48
493.79	6126.16
493.994	5943.89
494.197	6085.2
494.401	6130.25
494.605	6158.92
494.808	6294.09
495.012	6339.15
495.215	6244.94
495.419	6345.29
495.622	6320.71
495.825	6423.11
496.029	6572.61
496.232	6599.24
496.436	6498.89
496.639	6765.12
496.843	6597.19
497.046	7000.64
497.249	6920.77
497.453	6888
497.656	7215.68
497.859	7086.65
498.063	7187.01
498.266	7483.96
498.469	7158.33
498.673	7277.12
498.876	7529.02
499.079	7586.36
499.282	7612.98
499.485	7713.33
499.689	7707.19
499.892	7858.74
500.095	7795.25
500.298	8143.41
500.501	8041.01
500.705	8321.58
500.908	8444.46
501.111	8264.24
501.314	8475.18
501.517	8571.43
501.72	8765.99
501.923	8727.08
502.126	8772.13
502.329	9187.87
502.532	8993.31
502.735	9226.78
502.938	9415.19
503.141	9495.07
503.344	9546.26
503.547	9507.35
503.75	9732.63
503.953	9966.1
504.156	9966.1
504.359	10011.15
504.562	10228.24
504.765	10224.14
504.968	10402.32
505.17	10713.61
505.373	10572.3
505.576	10629.64
505.779	10965.51
505.982	10875.4
506.185	11102.72
506.387	11311.61
506.59	11401.72
506.793	11618.81
506.996	11506.17
507.198	11635.19
507.401	11827.7
507.604	11768.31
507.807	12325.36
508.009	12120.56
508.212	12401.13
508.415	12558.83
508.617	12775.91
508.82	12878.31
509.022	12954.08
509.225	13021.67
509.428	13050.34
509.63	13275.62
509.833	13429.21
510.035	13652.44
510.238	13709.79
510.44	13703.64
510.643	14103
510.845	14336.46
511.048	14279.12
511.25	14545.36
511.453	14660.04
511.655	15067.59
511.858	15092.16
512.06	14932.42
512.262	15106.5
512.465	15534.53
512.667	15581.63
512.87	15931.83
513.072	15954.36
513.274	16089.53
513.477	16191.92
513.679	16492.97
513.881	16789.93
514.084	16658.86
514.286	16708.01
514.488	16941.48
514.69	17691.04
514.893	17555.87
515.095	17639.84
515.297	17953.18
515.499	17928.6
515.701	18170.26
515.904	18534.8
516.106	18383.25
516.308	18858.38
516.51	18909.58
516.712	19007.88
516.914	19130.76
517.116	19237.25
517.318	19460.48
517.52	19597.7
517.722	20058.49
517.925	20013.43
518.127	20386.16
518.329	20240.76
518.531	20709.74
518.733	20951.4
518.935	21156.2
519.136	21295.46
519.338	21539.17
519.54	21295.46
519.742	21731.68
519.944	21664.1
520.146	22341.97
520.348	22272.34
520.55	22376.79
520.752	22700.37
520.954	23112.01
521.155	22718.8
521.357	23183.69
521.559	23331.14
521.761	23673.15
521.963	23490.88
522.164	23877.95
522.366	24238.39
522.568	23920.96
522.77	24641.84
522.971	24746.29
523.173	24707.38
523.375	24756.53
523.576	24701.23
523.778	25088.3
523.98	25303.34
524.181	25196.84
524.383	25721.12
524.584	25745.7
524.786	25760.03
524.988	25618.72
525.189	25895.2
525.391	26325.27
525.592	26177.82
525.794	26460.44
525.995	26669.33
526.197	26446.1
526.398	26642.71
526.6	26698
526.801	26829.07
527.003	27181.32
527.204	27351.31
527.406	27670.79
527.607	27482.38
527.808	27767.04
528.01	27115.79
528.211	27629.83
528.412	27885.83
528.614	27994.37
528.815	27857.15
529.016	28317.95
529.218	27775.23
529.419	27857.15
529.62	28029.18
529.822	28086.53
530.023	28025.09
530.224	28064
530.425	28248.32
530.626	28315.9
530.828	28485.88
531.029	28743.92
531.23	28250.36
531.431	28252.41
531.632	28549.37
531.833	28256.51
532.035	28455.16
532.236	28580.09
532.437	28416.25
532.638	28774.64
532.839	28780.79
533.04	28801.27
533.241	28739.83
533.442	28862.71
533.643	29237.48
533.844	29020.4
534.045	29051.12
534.246	28788.98
534.447	29098.22
534.648	28811.51
534.849	29122.8
535.05	28819.7
535.251	29026.54
535.451	29090.03
535.652	29210.86
535.853	29042.93
536.054	29300.97
536.255	29159.66
536.456	28993.78
536.657	29311.21
536.857	28911.86
537.058	28977.39
537.259	29049.07
537.46	29208.81
537.66	28926.19
537.861	29008.11
538.062	29319.4
538.263	29104.37
538.463	29071.6
538.664	29135.09
538.865	29196.53
539.065	29419.75
539.266	28596.47
539.466	29311.21
539.667	28928.24
539.868	29487.34
540.068	29124.85
540.269	29315.31
540.469	29135.09
540.67	28915.95
540.87	28825.84
541.071	29032.69
541.271	28911.86
541.472	28975.34
541.672	28981.49
541.873	28987.63
542.073	28547.32
542.274	29731.04
542.474	28979.44
542.675	28829.94
542.875	29092.08
543.075	29421.8
543.276	28907.76
543.476	29077.74
543.676	28817.65
543.877	29210.86
544.077	29090.03
544.277	29087.98
544.478	28842.23
544.678	29149.42
544.878	28999.92
545.078	28627.19
545.279	29034.74
545.479	29110.51
545.679	28879.09
545.879	28920.05
546.079	28961.01
546.28	28922.1
546.48	28477.69
546.68	28987.63
546.88	28735.73
547.08	28961.01
547.28	28877.04
547.48	28737.78
547.68	28958.96
547.88	28772.6
548.081	28850.42
548.281	28948.72
548.481	28553.46
548.681	28823.79
548.881	29030.64
549.081	29114.61
549.28	28596.47
549.48	29004.02
549.68	28541.18
549.88	29024.5
550.08	28963.06
550.28	28938.48
550.48	28952.82
550.68	28934.39
550.88	28551.41
551.08	28811.51
551.279	29182.19
551.479	28604.66
551.679	28473.59
551.879	28700.92
552.079	28791.03
552.278	28653.81
552.478	28715.25
552.678	28700.92
552.878	28899.57
553.077	28514.55
553.277	28635.38
553.477	28956.91
553.676	28883.19
553.876	28725.49
554.076	28291.32
554.275	28475.64
554.475	28264.7
554.674	28315.9
554.874	28573.94
555.074	28107.01
555.273	28571.89
555.473	28209.4
555.672	28303.61
555.872	28363
556.071	28426.49
556.271	28373.24
556.47	28184.83
556.67	28102.91
556.869	27924.74
557.068	28338.43
557.268	28158.2
557.467	28199.16
557.667	28055.81
557.866	28053.76
558.065	27861.25
558.265	28086.53
558.464	27906.3
558.663	28319.99
558.863	27537.67
559.062	28326.14
559.261	27756.8
559.461	28066.05
559.66	27484.42
559.859	27842.82
560.058	27685.12
560.258	27463.94
560.457	27439.37
560.656	27672.84
560.855	27365.64
561.054	27629.83
561.253	27083.02
561.453	27087.12
561.652	27259.15
561.851	27574.53
562.05	27709.7
562.249	26941.71
562.448	27459.85
562.647	26968.34
562.846	27138.32
563.045	27248.91
563.244	26984.72
563.443	27390.22
563.642	27021.58
563.841	26644.76
564.04	26765.59
564.239	27091.21
564.438	26863.89
564.637	26839.31
564.836	27011.34
565.035	26675.48
565.234	26671.38
565.432	26282.27
565.631	26163.48
565.83	26523.93
566.029	26550.55
566.228	26384.66
566.427	26337.56
566.625	26333.46
566.824	25778.47
567.023	26308.89
567.222	26100
567.42	26399
567.619	25766.18
567.818	26114.33
568.016	25993.5
568.215	25872.67
568.414	25518.37
568.612	26106.14
568.811	25465.13
569.01	25817.38
569.208	25379.11
569.407	25786.66
569.605	25491.75
569.804	25887.01
570.002	25157.93
570.201	25356.58
570.4	25229.61
570.598	25057.58
570.797	25557.28
570.995	25237.8
571.193	24938.8
571.392	24865.07
571.59	24734
571.789	24738.1
571.987	24590.64
572.186	24668.47
572.384	24279.35
572.582	24453.43
572.781	24385.85
572.979	24039.74
573.177	24240.44
573.376	24484.15
573.574	24088.89
573.772	24219.96
573.971	24203.58
574.169	24062.27
574.367	24080.7
574.565	24191.29
574.763	24004.92
574.962	23990.59
575.16	23531.84
575.358	23535.94
575.556	23427.4
575.754	24031.55
575.952	23195.98
576.151	23777.6
576.349	22964.56
576.547	23378.25
576.745	23195.98
576.943	23394.63
577.141	23120.2
577.339	23066.95
577.537	23327.05
577.735	23005.52
577.933	22714.7
578.131	23095.63
578.329	22765.9
578.527	22804.81
578.725	22739.28
578.923	22704.46
579.121	22366.55
579.319	22499.67
579.516	22651.22
579.714	22620.5
579.912	22567.25
580.11	22088.03
580.308	22196.57
580.506	22204.76
580.704	22217.05
580.901	21983.58
581.099	22108.51
581.297	22065.5
581.495	21717.34
581.692	21911.9
581.89	21578.08
582.088	21539.17
582.285	21602.66
582.483	21844.32
582.681	21500.26
582.878	21459.3
583.076	21528.93
583.274	21541.22
583.471	20885.87
583.669	21051.75
583.866	21168.49
584.064	21088.62
584.262	21057.9
584.459	20877.68
584.657	20797.81
584.854	21021.03
585.052	20466.03
585.249	20789.61
585.447	20449.65
585.644	20382.07
585.841	20509.04
586.039	20652.4
586.236	20371.83
586.434	20545.91
586.631	20070.78
586.828	20164.98
587.026	20263.29
587.223	20035.96
587.42	20314.48
587.618	20238.71
587.815	20076.92
588.012	20064.63
588.21	19667.33
588.407	19876.22
588.604	19630.46
588.801	19642.75
588.999	19571.07
589.196	19841.4
589.393	19630.46
589.59	19548.54
589.787	19405.19
589.984	19310.98
590.182	19294.6
590.379	19366.28
590.576	19253.64
590.773	19263.88
590.97	18946.44
591.167	19014.02
591.364	18766.22
591.561	18975.11
591.758	18602.38
591.955	18725.26
592.152	18704.78
592.349	18669.97
592.546	18790.8
592.743	18768.27
592.94	18469.26
593.137	18561.42
593.334	18444.69
593.531	18129.3
593.727	18153.88
593.924	18393.49
594.121	18137.49
594.318	18200.98
594.515	18076.05
594.712	18256.28
594.908	17942.94
595.105	18016.66
595.302	18160.02
595.499	18071.96
595.696	17621.41
595.892	17787.29
596.089	17838.49
596.286	17629.6
596.482	17641.89
596.679	17570.21
596.876	17701.28
597.072	17441.18
597.269	17394.08
597.466	17312.16
597.662	17181.09
597.859	17224.1
598.055	17365.41
598.252	17238.44
598.448	17211.81
598.645	17105.32
598.841	16773.55
599.038	16998.82
599.234	16947.62
599.431	16796.07
599.627	16564.65
599.824	16744.88
600.02	16607.66
600.217	16578.99
600.413	16624.04
600.609	16300.47
600.806	16601.52
601.002	16470.45
601.198	16255.41
601.395	16294.32
601.591	16089.53
601.787	16198.07
601.984	16247.22
602.18	16294.32
602.376	16114.1
602.572	15786.43
602.769	16159.16
602.965	15751.61
603.161	15901.11
603.357	15636.92
603.553	15595.96
603.75	15618.49
603.946	15624.64
604.142	15516.09
604.338	15649.21
604.534	15428.03
604.73	15569.34
604.926	15202.75
605.122	15303.11
605.318	15174.08
605.514	15292.87
605.71	15028.68
605.906	14965.19
606.102	15045.06
606.298	15020.49
606.494	15075.78
606.69	15045.06
606.886	15155.65
607.082	14842.31
607.278	15120.84
607.474	14680.52
607.67	14946.76
607.866	14637.52
608.062	15065.54
608.257	14547.4
608.453	14774.73
608.649	14723.53
608.845	14649.8
609.041	14524.88
609.236	14324.18
609.432	14584.27
609.628	14588.36
609.824	14522.83
610.019	14555.6
610.215	14236.11
610.411	14412.24
610.606	14055.89
610.802	14234.07
610.998	13973.97
611.193	14176.72
611.389	13992.41
611.584	14019.03
611.78	13933.01
611.976	13838.81
612.171	13941.21
612.367	13859.29
612.562	13707.74
612.758	13625.82
612.953	13826.52
613.149	14006.74
613.344	13427.17
613.539	14076.37
613.735	13715.93
613.93	13615.58
614.126	13840.86
614.321	13957.59
614.517	13642.2
614.712	13732.31
614.907	13623.77
615.103	13517.28
615.298	13562.33
615.493	13521.37
615.688	13380.06
615.884	13638.11
616.079	13261.28
616.274	13453.79
616.47	13365.73
616.665	13433.31
616.86	13421.02
617.055	13130.21
617.25	13285.86
617.445	13240.8
617.641	12986.85
617.836	13076.96
618.031	12980.71
618.226	13124.07
618.421	12964.32
618.616	13027.81
618.811	12782.06
619.006	12786.15
619.201	12564.97
619.396	12835.3
619.591	12554.73
619.786	12636.65
619.981	12349.93
620.176	12444.14
620.371	12438
620.566	12577.26
620.761	12366.32
620.956	12227.06
621.151	12296.69
621.346	12333.55
621.541	12077.55
621.735	12202.48
621.93	12016.12
622.125	11756.02
622.32	11821.56
622.515	11928.05
622.709	11813.37
622.904	11758.07
623.099	11551.23
623.294	11524.6
623.488	11448.83
623.683	11506.17
623.878	11178.5
624.072	11274.75
624.267	11495.93
624.462	11309.57
624.656	11047.43
624.851	11028.99
625.046	10945.03
625.24	10969.6
625.435	10910.21
625.629	10756.61
625.824	10762.76
626.018	10689.03
626.213	10498.57
626.407	10787.33
626.602	10478.09
626.796	10334.73
626.991	10383.88
627.185	10476.04
627.38	10332.68
627.574	10359.31
627.768	10238.48
627.963	10045.97
628.157	9878.04
628.352	10191.38
628.546	9753.11
628.74	9974.29
628.935	9824.79
629.129	9902.61
629.323	9718.29
629.517	9687.57
629.712	9675.29
629.906	9593.37
630.1	9697.81
630.294	9538.07
630.489	9382.43
630.683	9585.18
630.877	9134.62
631.071	9222.69
631.265	9314.84
631.459	9101.86
631.653	9226.78
631.848	9155.1
632.042	8948.26
632.236	9232.93
632.43	9130.53
632.624	9126.43
632.818	8692.26
633.012	8831.52
633.206	8827.43
633.4	8792.61
633.594	8761.89
633.788	8698.41
633.982	8745.51
634.176	8634.92
634.369	8471.08
634.563	8407.59
634.757	8397.35
634.951	8256.04
635.145	8469.03
635.339	8436.27
635.533	8319.53
635.726	8254
635.92	8129.07
636.114	8301.1
636.308	8221.23
636.501	8047.15
636.695	8104.49
636.889	7922.23
637.083	7840.31
637.276	7809.59
637.47	7742
637.664	7842.35
637.857	7795.25
638.051	7803.44
638.244	7805.49
638.438	7670.33
638.632	7725.62
638.825	7658.04
639.019	7543.35
639.212	7289.4
639.406	7567.93
639.599	7426.62
639.793	7264.83
639.986	7256.64
640.18	7242.3
640.373	7215.68
640.567	7074.37
640.76	7152.19
640.954	7051.84
641.147	7068.22
641.34	7025.22
641.534	7115.33
641.727	6916.67
641.92	6933.06
642.114	6836.8
642.307	6830.66
642.5	6924.86
642.694	6752.84
642.887	6783.56
643.08	6693.44
643.273	6605.38
643.467	6724.16
643.66	6580.81
643.853	6472.26
644.046	6437.45
644.239	6326.86
644.432	6386.25
644.626	6437.45
644.819	6361.67
645.012	6343.24
645.205	6255.18
645.398	6144.59
645.591	6226.51
645.784	6160.97
645.977	6107.73
646.17	6142.54
646.363	6062.67
646.556	5904.98
646.749	5876.3
646.942	6054.48
647.135	5911.12
647.328	5845.59
647.521	5753.43
647.714	5743.19
647.907	5663.32
648.099	5810.77
648.292	5773.91
648.485	5591.64
648.678	5546.58
648.871	5735
649.064	5571.16
649.256	5573.21
649.449	5618.26
649.642	5452.38
649.835	5380.7
650.027	5528.15
650.22	5419.61
650.413	5274.2
650.605	5446.23
650.798	5261.91
650.991	5188.19
651.183	5409.37
651.376	5048.93
651.568	5245.53
651.761	5247.58
651.954	5206.62
652.146	5241.43
652.339	5147.23
652.531	5151.32
652.724	5032.54
652.916	4954.72
653.109	4969.05
653.301	4993.63
653.494	5012.06
653.686	4807.27
653.879	4987.49
654.071	4780.64
654.263	4770.4
654.456	4729.44
654.648	4756.07
654.84	4608.61
655.033	4760.16
655.225	4653.67
655.417	4727.39
655.61	4538.98
655.802	4604.52
655.994	4498.02
656.186	4518.5
656.379	4592.23
656.571	4385.38
656.763	4383.34
656.955	4575.84
657.148	4328.04
657.34	4399.72
657.532	4352.62
657.724	4313.7
657.916	4246.12
658.108	4301.42
658.3	4137.58
658.492	4170.35
658.684	4188.78
658.876	4153.96
659.068	3990.13
659.26	4088.43
659.452	4102.76
659.644	4166.25
659.836	4024.94
660.028	4098.67
660.22	4108.91
660.412	4016.75
660.604	3857.01
660.796	3973.74
660.988	3816.05
661.18	3832.43
661.372	3900.02
661.563	3863.15
661.755	3795.57
661.947	3814
662.139	3803.76
662.331	3699.31
662.522	3828.34
662.714	3760.75
662.906	3881.58
663.097	3707.51
663.289	3648.11
663.481	3543.67
663.673	3543.67
663.864	3631.73
664.056	3631.73
664.247	3639.92
664.439	3553.91
664.631	3564.15
664.822	3496.57
665.014	3494.52
665.205	3349.11
665.397	3428.98
665.588	3428.98
665.78	3486.33
665.971	3426.93
666.163	3261.05
666.354	3408.5
666.546	3383.93
666.737	3240.57
666.929	3256.95
667.12	3199.61
667.311	3224.19
667.503	3175.03
667.694	3152.51
667.885	3179.13
668.077	3211.9
668.268	3189.37
668.459	3158.65
668.651	3179.13
668.842	3197.56
669.033	3207.8
669.224	3086.97
669.416	3154.55
669.607	3009.15
669.798	3033.72
669.989	3123.84
670.18	3035.77
670.371	3041.92
670.563	3005.05
670.754	3068.54
670.945	2931.33
671.136	2935.42
671.327	3027.58
671.518	2800.26
671.709	2894.46
671.9	2921.09
672.091	2888.32
672.282	2982.53
672.473	2718.34
672.664	2835.07
672.855	2902.65
673.046	2894.46
673.237	2908.8
673.428	2751.1
673.619	2781.82
673.809	2747.01
674	2693.76
674.191	2816.64
674.382	2765.44
674.573	2910.85
674.764	2943.61
674.954	2701.95
675.145	2781.82
675.336	2699.91
675.527	2667.14
675.717	2728.58
675.908	2701.95
676.099	2644.61
676.289	2515.59
676.48	2566.79
676.671	2626.18
676.861	2595.46
677.052	2589.32
677.243	2503.3
677.433	2509.44
677.624	2587.27
677.814	2546.31
678.005	2470.53
678.195	2527.88
678.386	2448.01
678.576	2437.77
678.767	2427.53
678.957	2488.96
679.148	2445.96
679.338	2472.58
679.529	2507.4
679.719	2527.88
679.909	2433.67
680.1	2529.92
680.29	2476.68
680.481	2583.17
680.671	2464.39
680.861	2359.94
681.052	2460.29
681.242	2421.38
681.432	2491.01
681.622	2462.34
681.813	2294.41
682.003	2413.19
682.193	2364.04
682.383	2441.86
682.573	2466.44
682.764	2314.89
682.954	2376.33
683.144	2419.33
683.334	2247.3
683.524	2402.95
683.714	2286.22
683.904	2271.88
684.094	2321.03
684.284	2423.43
684.474	2255.5
684.664	2429.57
684.854	2261.64
685.044	2275.98
685.234	2198.15
685.424	2228.87
685.614	2345.61
685.804	2310.79
685.994	2275.98
686.184	2222.73
686.374	2343.56
686.564	2226.82
686.753	2294.41
686.943	2257.54
687.133	2323.08
687.323	2169.48
687.513	2192.01
687.702	2208.39
687.892	2138.76
688.082	2151.05
688.272	2271.88
688.461	2116.23
688.651	2257.54
688.841	2095.75
689.03	2218.63
689.22	2046.6
689.41	2216.58
689.599	2138.76
689.789	2167.43
689.979	2122.38
690.168	2220.68
690.358	2069.13
690.547	2103.95
690.737	2081.42
690.926	2065.04
691.116	2105.99
691.305	2013.84
691.495	2052.75
691.684	2099.85
691.874	2081.42
692.063	2128.52
692.252	2128.52
692.442	1981.07
692.631	2114.19
692.82	2034.32
693.01	1968.78
693.199	2089.61
693.388	2046.6
693.578	1958.54
693.767	2038.41
693.956	1911.44
694.146	2128.52
694.335	2069.13
694.524	1974.92
694.713	2011.79
694.902	2030.22
695.092	2017.93
695.281	1946.25
695.47	2013.84
695.659	1886.86
695.848	2032.27
696.037	1960.59
696.226	2026.12
696.415	1970.83
696.604	1997.45
696.793	1897.1
696.982	1966.73
697.171	2019.98
697.36	1921.68
697.549	2034.32
697.738	2030.22
697.927	1970.83
698.116	1921.68
698.305	1956.49
698.494	2009.74
698.683	2005.64
698.872	1968.78
699.061	1987.21
699.25	1956.49
699.438	1876.62
699.627	1960.59
699.816	1845.9
700.005	1888.91
700.193	1931.92
700.382	1901.2
700.571	1974.92
700.76	1966.73
700.948	1925.77
701.137	1983.12
701.326	1987.21
701.514	1972.88
701.703	1968.78
701.892	1968.78
702.08	1915.53
702.269	1907.34
702.457	1952.4
702.646	1929.87
702.834	1993.36
703.023	1831.57
703.212	1862.29
703.4	1870.48
703.589	1833.61
703.777	1809.04
703.965	1821.33
704.154	1905.29
704.342	1878.67
704.531	1755.79
704.719	1772.18
704.907	1802.9
705.096	1868.43
705.284	1839.76
705.472	1852.05
705.661	1815.18
705.849	1757.84
706.037	1856.14
706.226	1850
706.414	1827.47
706.602	1780.37
706.79	1790.61
706.979	1796.75
707.167	1845.9
707.355	1776.27
707.543	1706.64
707.731	1747.6
707.919	1798.8
708.107	1759.89
708.296	1802.9
708.484	1686.16
708.672	1618.58
708.86	1792.66
709.048	1815.18
709.236	1751.7
709.424	1780.37
709.612	1677.97
709.8	1743.5
709.988	1737.36
710.176	1735.31
710.364	1604.24
710.551	1651.35
710.739	1677.97
710.927	1694.35
711.115	1745.55
711.303	1665.68
711.491	1794.7
711.679	1671.83
711.866	1643.15
712.054	1604.24
712.242	1673.87
712.43	1589.91
712.617	1677.97
712.805	1624.72
712.993	1741.46
713.181	1571.47
713.368	1550.99
713.556	1624.72
713.744	1616.53
713.931	1641.11
714.119	1559.19
714.306	1700.5
714.494	1514.13
714.682	1561.23
714.869	1565.33
715.057	1598.1
715.244	1591.95
715.432	1514.13
715.619	1512.08
715.807	1479.32
715.994	1507.99
716.182	1497.75
716.369	1518.23
716.556	1622.67
716.744	1563.28
716.931	1575.57
717.119	1514.13
717.306	1503.89
717.493	1550.99
717.681	1505.94
717.868	1567.38
718.055	1503.89
718.242	1481.36
718.43	1391.25
718.617	1464.98
718.804	1413.78
718.991	1424.02
719.179	1507.99
719.366	1452.69
719.553	1450.64
719.74	1376.92
719.927	1370.77
720.114	1358.49
720.301	1387.16
720.488	1491.6
720.676	1342.1
720.863	1471.12
721.05	1413.78
721.237	1362.58
721.424	1424.02
721.611	1374.87
721.798	1444.5
721.985	1282.71
722.172	1331.86
722.358	1317.53
722.545	1387.16
722.732	1354.39
722.919	1323.67
723.106	1403.54
723.293	1315.48
723.48	1323.67
723.667	1401.49
723.853	1370.77
724.04	1352.34
724.227	1258.14
724.414	1362.58
724.6	1264.28
724.787	1323.67
724.974	1272.47
725.161	1315.48
725.347	1299.09
725.534	1378.97
725.72	1288.85
725.907	1419.92
726.094	1239.7
726.28	1217.18
726.467	1305.24
726.653	1270.42
726.84	1217.18
727.027	1313.43
727.213	1202.84
727.4	1239.7
727.586	1266.33
727.773	1211.03
727.959	1245.85
728.145	1295
728.332	1321.62
728.518	1227.42
728.705	1315.48
728.891	1251.99
729.077	1233.56
729.264	1198.74
729.45	1278.62
729.636	1227.42
729.823	1225.37
730.009	1151.64
730.195	1266.33
730.382	1165.98
730.568	1170.07
730.754	1178.26
730.94	1235.61
731.126	1229.46
731.313	1208.98
731.499	1061.53
731.685	1278.62
731.871	1221.27
732.057	1082.01
732.243	1096.35
732.429	1270.42
732.615	1082.01
732.801	1110.68
732.987	1190.55
733.173	1157.78
733.359	1170.07
733.545	1100.44
733.731	1069.72
733.917	1108.63
734.103	1172.12
734.289	1098.39
734.475	1125.02
734.661	1071.77
734.847	1043.1
735.033	1168.02
735.219	1073.82
735.404	1120.92
735.59	1071.77
735.776	1067.67
735.962	1092.25
736.148	1100.44
736.333	1145.5
736.519	977.56
736.705	1041.05
736.89	1022.62
737.076	1028.76
737.262	1045.15
737.447	1016.48
737.633	1032.86
737.819	1106.59
738.004	1034.91
738.19	1047.19
738.375	1100.44
738.561	1067.67
738.747	1079.96
738.932	993.95
739.118	1010.33
739.303	1100.44
739.489	930.46
739.674	1094.3
739.859	998.04
740.045	987.8
740.23	996
740.416	969.37
740.601	942.75
740.786	1000.09
740.972	1012.38
741.157	873.12
741.342	909.98
741.528	1010.33
741.713	991.9
741.898	1004.19
742.084	965.28
742.269	893.6
742.454	905.88
742.639	938.65
742.824	873.12
743.01	885.41
743.195	1000.09
743.38	916.12
743.565	930.46
743.75	873.12
743.935	938.65
744.12	905.88
744.305	832.16
744.49	856.73
744.675	944.8
744.86	856.73
745.045	899.74
745.23	895.64
745.415	907.93
745.6	914.08
745.785	850.59
745.97	844.45
746.155	819.87
746.34	903.84
746.525	907.93
746.71	842.4
746.895	836.25
747.079	787.1
747.264	854.69
747.449	823.97
747.634	805.53
747.819	869.02
748.003	848.54
748.188	826.01
748.373	856.73
748.557	793.25
748.742	785.05
748.927	756.38
749.111	866.97
749.296	715.42
749.481	819.87
749.665	754.34
749.85	762.53
750.034	694.94
750.219	750.24
750.404	699.04
750.588	789.15
750.773	840.35
750.957	746.14
751.141	735.9
751.326	811.68
751.51	725.66
751.695	709.28
751.879	690.85
752.064	682.66
752.248	672.42
752.432	748.19
752.617	686.75
752.801	649.89
752.985	606.88
753.17	594.59
753.354	709.28
753.538	707.23
753.722	658.08
753.907	709.28
754.091	692.9
754.275	729.76
754.459	670.37
754.643	649.89
754.828	639.65
755.012	631.46
755.196	629.41
755.38	596.64
755.564	627.36
755.748	633.5
755.932	649.89
756.116	557.73
756.3	586.4
756.484	615.07
756.668	545.44
756.852	543.39
757.036	629.41
757.22	584.35
757.404	574.11
757.588	574.11
757.772	602.79
757.956	647.84
758.14	537.25
758.323	584.35
758.507	586.4
758.691	588.45
758.875	490.15
759.059	606.88
759.242	572.07
759.426	582.31
759.61	598.69
759.794	570.02
759.977	473.76
760.161	535.2
760.345	496.29
760.528	561.83
760.712	533.15
760.895	549.54
761.079	500.39
761.263	412.32
761.446	555.68
761.63	467.62
761.813	529.06
761.997	516.77
762.18	455.33
762.364	512.67
762.547	549.54
762.731	535.2
762.914	406.18
763.098	516.77
763.281	580.26
763.464	502.43
763.648	549.54
763.831	510.63
764.015	533.15
764.198	494.24
764.381	473.76
764.564	522.91
764.748	459.43
764.931	514.72
765.114	494.24
765.297	484
765.481	488.1
765.664	434.85
765.847	475.81
766.03	498.34
766.213	400.04
766.397	479.91
766.58	434.85
766.763	422.56
766.946	436.9
767.129	383.65
767.312	445.09
767.495	486.05
767.678	426.66
767.861	438.95
768.044	445.09
768.227	481.96
768.41	443.04
768.593	414.37
768.776	371.36
768.959	422.56
769.142	510.63
769.324	459.43
769.507	410.28
769.69	539.3
769.873	467.62
770.056	418.47
770.239	441
770.421	436.9
770.604	367.27
770.787	473.76
770.97	494.24
771.152	447.14
771.335	324.26
771.518	436.9
771.7	412.32
771.883	412.32
772.066	408.23
772.248	516.77
772.431	377.51
772.613	416.42
772.796	383.65
772.978	436.9
773.161	477.86
773.343	500.39
773.526	424.61
773.708	379.56
773.891	377.51
774.073	410.28
774.256	387.75
774.438	395.94
774.621	453.28
774.803	438.95
774.985	338.6
775.168	389.8
775.35	316.07
775.532	367.27
775.715	311.97
775.897	291.49
776.079	369.32
776.261	330.41
776.444	381.6
776.626	346.79
776.808	371.36
776.99	393.89
777.173	254.63
777.355	348.84
777.537	359.08
777.719	338.6
777.901	309.93
778.083	363.17
778.265	361.13
778.447	297.64
778.629	303.78
778.811	348.84
778.993	232.1
779.175	293.54
779.357	377.51
779.539	260.77
779.721	344.74
779.903	361.13
780.085	289.45
780.267	303.78
780.449	242.34
780.631	244.39
780.812	252.58
780.994	328.36
781.176	293.54
781.358	363.17
781.54	328.36
781.721	295.59
781.903	244.39
782.085	230.06
782.267	260.77
782.448	301.73
782.63	311.97
782.812	221.86
782.993	275.11
783.175	318.12
783.357	326.31
783.538	277.16
783.72	225.96
783.901	232.1
784.083	238.25
784.264	197.29
784.446	295.59
784.627	248.49
784.809	279.21
784.99	240.29
785.172	258.73
785.353	172.71
785.535	285.35
785.716	254.63
785.897	205.48
786.079	268.97
786.26	230.06
786.441	211.62
786.623	189.1
786.804	250.53
786.985	205.48
787.167	266.92
787.348	232.1
787.529	281.25
787.71	283.3
787.891	148.14
788.073	291.49
788.254	195.24
788.435	191.14
788.616	223.91
788.797	197.29
788.978	215.72
789.159	252.58
789.34	250.53
789.522	150.18
789.703	219.82
789.884	166.57
790.065	178.86
790.246	228.01
790.427	174.76
790.607	141.99
790.788	197.29
790.969	187.05
791.15	164.52
791.331	197.29
791.512	154.28
791.693	219.82
791.874	225.96
792.054	144.04
792.235	199.34
792.416	139.94
792.597	180.9
792.778	76.46
792.958	180.9
793.139	158.38
793.32	185
793.5	62.12
793.681	185
793.862	166.57
794.042	223.91
794.223	236.2
794.404	244.39
794.584	94.89
794.765	156.33
794.945	123.56
795.126	154.28
795.306	211.62
795.487	191.14
795.667	197.29
795.848	146.09
796.028	148.14
796.209	96.94
796.389	115.37
796.57	185
796.75	105.13
796.93	154.28
797.111	76.46
797.291	180.9
797.471	166.57
797.652	139.94
797.832	121.51
798.012	86.7
798.192	101.03
798.373	113.32
798.553	66.22
798.733	193.19
798.913	137.9
799.093	166.57
799.274	154.28
799.454	156.33
799.634	98.99
799.814	119.46
799.994	68.27
800.174	141.99
800.354	166.57
800.534	152.23
800.714	133.8
800.894	115.37
801.074	90.79
801.254	131.75
801.434	146.09
801.614	174.76
801.794	156.33
801.974	170.66
802.154	119.46
802.334	185
802.514	70.31
802.693	88.75
802.873	199.34
803.053	135.85
803.233	90.79
803.413	70.31
803.592	94.89
803.772	115.37
803.952	176.81
804.131	58.03
804.311	121.51
804.491	111.27
804.67	82.6
804.85	78.51
805.03	98.99
805.209	121.51
805.389	80.55
805.568	107.18
805.748	12.97
805.928	84.65
806.107	66.22
806.287	107.18
806.466	53.93
806.646	55.98
806.825	80.55
807.004	125.61
807.184	92.84
807.363	25.26
807.543	74.41
807.722	86.7
807.901	103.08
808.081	148.14
808.26	96.94
808.439	82.6
808.619	137.9
808.798	129.7
808.977	107.18
809.156	113.32
809.336	103.08
809.515	84.65
809.694	119.46
809.873	82.6
810.052	53.93
810.231	96.94
810.411	15.02
810.59	88.75
810.769	74.41
810.948	96.94
811.127	96.94
811.306	133.8
811.485	113.32
811.664	98.99
811.843	66.22
812.022	51.88
812.201	58.03
812.38	23.21
812.559	135.85
812.737	29.35
812.916	23.21
813.095	88.75
813.274	88.75
813.453	80.55
813.632	98.99
813.811	96.94
813.989	31.4
814.168	64.17
814.347	55.98
814.526	88.75
814.704	139.94
814.883	66.22
815.062	154.28
815.24	72.36
815.419	23.21
815.598	37.55
815.776	10.92
815.955	41.64
816.133	131.75
816.312	49.83
816.49	72.36
816.669	66.22
816.847	55.98
817.026	113.32
817.204	39.59
817.383	154.28
817.561	-5.46
817.74	55.98
817.918	137.9
818.097	135.85
818.275	92.84
818.453	135.85
818.632	86.7
818.81	72.36
818.988	49.83
819.167	51.88
819.345	80.55
819.523	111.27
819.701	51.88
819.879	53.93
820.058	78.51
820.236	111.27
820.414	37.55
820.592	105.13
820.77	25.26
820.948	78.51
821.127	-1.37
821.305	80.55
821.483	72.36
821.661	111.27
821.839	86.7
822.017	72.36
822.195	-11.61
822.373	51.88
822.551	21.16
822.729	29.35
822.907	-75.09
823.085	103.08
823.262	58.03
823.44	-15.7
823.618	35.5
823.796	80.55
823.974	37.55
824.152	141.99
824.329	66.22
824.507	27.31
824.685	70.31
824.863	88.75
825.04	8.87
825.218	47.79
825.396	154.28
825.574	41.64
825.751	80.55
825.929	60.07
826.107	74.41
826.284	62.12
826.462	58.03
826.639	53.93
826.817	27.31
826.994	133.8
827.172	0.68
827.349	53.93
827.527	25.26
827.704	6.83
827.882	0.68
828.059	64.17
828.237	53.93
828.414	4.78
828.591	80.55
828.769	86.7
828.946	-23.89
829.124	82.6
829.301	27.31
829.478	8.87
829.655	58.03
829.833	47.79
830.01	39.59
830.187	64.17
830.364	43.69
830.542	15.02
830.719	-30.04
830.896	62.12
831.073	90.79
831.25	15.02
831.427	53.93
831.604	-1.37
831.782	43.69
831.959	76.46
832.136	25.26
832.313	86.7
832.49	37.55
832.667	-81.24
832.844	-23.89
833.021	80.55
833.198	41.64
833.374	78.51
833.551	0.68
833.728	55.98
833.905	53.93
834.082	8.87
834.259	62.12
834.436	45.74
834.612	4.78
834.789	58.03
834.966	92.84
835.143	8.87
835.319	-42.32
835.496	47.79
835.673	25.26
835.85	27.31
836.026	17.07
836.203	17.07
836.38	-9.56
836.556	19.11
836.733	-1.37
836.909	86.7
837.086	119.46
837.262	80.55
837.439	90.79
837.616	33.45
837.792	92.84
837.968	113.32
838.145	25.26
838.321	4.78
838.498	113.32
838.674	82.6
838.851	41.64
839.027	68.27
839.203	-19.8
839.38	58.03
839.556	66.22
839.732	-30.04
839.909	12.97
840.085	80.55
840.261	6.83
840.437	103.08
840.614	49.83
840.79	-23.89
840.966	21.16
841.142	29.35
841.318	41.64
841.494	-7.51
841.671	58.03
841.847	10.92
842.023	17.07
842.199	80.55
842.375	-27.99
842.551	-9.56
842.727	-25.94
842.903	68.27
843.079	-44.37
843.255	51.88
843.431	45.74
843.607	53.93
843.783	-56.66
843.959	2.73
844.134	-30.04
844.31	58.03
844.486	12.97
844.662	35.5
844.838	-11.61
845.013	-5.46
845.189	78.51
845.365	66.22
845.541	58.03
845.716	137.9
845.892	2.73
846.068	-15.7
846.244	88.75
846.419	55.98
846.595	64.17
846.77	68.27
846.946	-9.56
847.122	66.22
847.297	76.46
847.473	41.64
847.648	12.97
847.824	-11.61
847.999	8.87
848.175	-36.18
848.35	21.16
848.526	35.5
848.701	43.69
848.876	19.11
849.052	29.35
849.227	2.73
849.403	-13.65
849.578	27.31
849.753	-3.41
849.929	86.7
850.104	-30.04
850.279	78.51
850.454	60.07
850.63	-1.37
850.805	2.73
850.98	55.98
851.155	86.7
851.33	31.4
851.505	-5.46
851.681	66.22
851.856	-23.89
852.031	17.07
852.206	12.97
852.381	-46.42
852.556	-11.61
852.731	-5.46
852.906	53.93
853.081	2.73
853.256	55.98
853.431	55.98
853.606	17.07
853.781	17.07
853.956	-58.71
854.131	51.88
854.305	-3.41
854.48	49.83
854.655	-7.51
854.83	27.31
855.005	47.79
855.18	96.94
855.354	-15.7
855.529	94.89
855.704	82.6
855.879	8.87
856.053	12.97
856.228	37.55
856.403	-3.41
856.577	-5.46
856.752	76.46
856.926	31.4
857.101	25.26
857.276	51.88
857.45	-54.61
857.625	-79.19
857.799	15.02
857.974	53.93
858.148	25.26
858.323	10.92
858.497	23.21
858.672	60.07
858.846	19.11
859.02	64.17
859.195	21.16
859.369	98.99
859.543	37.55
859.718	0.68
859.892	-36.18
860.066	51.88
860.241	-5.46
860.415	21.16
860.589	37.55
860.763	51.88
860.938	37.55
861.112	49.83
861.286	27.31
861.46	29.35
861.634	17.07
861.808	21.16
861.982	17.07
862.157	-17.75
862.331	-46.42
862.505	31.4
862.679	-9.56
862.853	43.69
863.027	-40.28
863.201	94.89
863.375	80.55
863.549	2.73
863.722	-7.51
863.896	45.74
864.07	37.55
864.244	17.07
864.418	53.93
864.592	-7.51
864.766	6.83
864.939	4.78
865.113	37.55
865.287	4.78
865.461	21.16
865.634	25.26
865.808	2.73
865.982	-21.85
866.156	-54.61
866.329	-21.85
866.503	-13.65
866.676	49.83
866.85	-32.08
867.024	35.5
867.197	55.98
867.371	-38.23
867.544	55.98
867.718	55.98
867.891	-11.61
868.065	55.98
868.238	4.78
868.412	17.07
868.585	0.68
868.759	-5.46
868.932	-3.41
869.105	-19.8
869.279	60.07
869.452	33.45
869.625	-27.99
869.799	-27.99
869.972	2.73
870.145	-38.23
870.319	39.59
870.492	33.45
870.665	-1.37
870.838	41.64
871.011	33.45
871.185	15.02
871.358	-30.04
871.531	2.73
871.704	-1.37
871.877	72.36
872.05	-23.89
872.223	-60.76
872.396	78.51
872.569	6.83
872.742	0.68
872.915	78.51
873.088	4.78
873.261	-44.37
873.434	0.68
873.607	-23.89
873.78	-32.08
873.953	-17.75
874.126	-19.8
874.299	35.5
874.471	-15.7
874.644	37.55
874.817	98.99
874.99	-11.61
875.163	-36.18
875.335	49.83
875.508	-7.51
875.681	0.68
875.853	15.02
876.026	35.5
876.199	-9.56
876.371	-5.46
876.544	10.92
876.717	60.07
876.889	15.02
877.062	-19.8
877.234	-1.37
877.407	43.69
877.579	31.4
877.752	41.64
877.924	35.5
878.097	10.92
878.269	39.59
878.442	19.11
878.614	-62.8
878.786	10.92
878.959	90.79
879.131	-7.51
879.303	-27.99
879.476	-15.7
879.648	-7.51
879.82	35.5
879.993	-9.56
880.165	103.08
880.337	-27.99
880.509	2.73
880.681	-23.89
880.854	-5.46
881.026	29.35
881.198	37.55
881.37	-83.28
881.542	37.55
881.714	-36.18
881.886	-40.28
882.058	-25.94
882.23	80.55
882.402	-40.28
882.574	-9.56
882.746	31.4
882.918	58.03
883.09	12.97
883.262	33.45
883.434	-3.41
883.606	39.59
883.778	-11.61
883.95	10.92
884.122	-38.23
884.293	58.03
884.465	17.07
884.637	-21.85
884.809	21.16
884.98	12.97
885.152	-5.46
885.324	-19.8
885.496	-9.56
885.667	-27.99
885.839	55.98
886.011	47.79
886.182	2.73
886.354	29.35
886.525	92.84
886.697	-3.41
886.869	-42.32
887.04	60.07
887.212	8.87
887.383	-1.37
887.555	23.21
887.726	12.97
887.897	2.73
888.069	-3.41
888.24	53.93
888.412	33.45
888.583	4.78
888.754	-38.23
888.926	-3.41
889.097	47.79
889.268	-9.56
889.44	-36.18
889.611	-34.13
889.782	35.5
889.953	19.11
890.125	-58.71
890.296	8.87
890.467	-1.37
890.638	49.83
890.809	37.55
890.98	25.26
891.151	47.79
891.323	23.21
891.494	10.92
891.665	8.87
891.836	10.92
892.007	-11.61
892.178	25.26
892.349	-15.7
892.52	-13.65
892.691	-34.13
892.862	6.83
893.032	2.73
893.203	4.78
893.374	-3.41
893.545	31.4
893.716	4.78
893.887	12.97
894.057	31.4
894.228	60.07
894.399	60.07
894.57	-19.8
894.74	-44.37
894.911	-93.52
895.082	17.07
895.253	31.4
895.423	47.79
895.594	51.88
895.764	55.98
895.935	-9.56
896.106	-42.32
896.276	47.79
896.447	25.26
896.617	-23.89
896.788	-9.56
896.958	10.92
897.129	-7.51
897.299	47.79
897.47	-19.8
897.64	6.83
897.81	-38.23
897.981	49.83
898.151	-27.99
898.322	-23.89
898.492	-52.56
898.662	35.5
898.832	41.64
899.003	35.5
899.173	-15.7
899.343	43.69
899.513	27.31
