Data from USB4F104151__139__13-58-10-736.txt Node

Date: Thu Mar 13 13:58:10 EDT 2025
User: louis
Spectrometer: USB4F10415
Trigger mode: 4
Integration Time (sec): 1.000000E-2
Scans to average: 1
Electric dark correction enabled: true
Nonlinearity correction enabled: false
Boxcar width: 0
XAxis mode: Wavelengths
Number of Pixels in Spectrum: 3648
>>>>>Begin Spectral Data<<<<<
178.204	-23.55
178.424	-23.55
178.644	-23.55
178.864	-23.55
179.084	-70.65
179.304	-11.26
179.524	5.12
179.744	-35.84
179.964	-5.12
180.184	3.07
180.404	1.02
180.624	-5.12
180.844	58.37
181.064	-13.31
181.283	15.36
181.503	23.55
181.723	-35.84
181.943	-13.31
182.163	-19.46
182.383	46.08
182.602	27.65
182.822	11.26
183.042	-13.31
183.262	-13.31
183.482	-50.18
183.701	-29.7
183.921	1.02
184.141	-103.42
184.361	66.56
184.58	50.18
184.8	13.31
185.02	-64.51
185.239	-33.79
185.459	-95.23
185.679	-27.65
185.898	-19.46
186.118	21.5
186.338	11.26
186.557	-5.12
186.777	9.22
186.997	56.32
187.216	-74.75
187.436	11.26
187.655	-9.22
187.875	1.02
188.095	27.65
188.314	21.5
188.534	-13.31
188.753	-25.6
188.973	-27.65
189.192	7.17
189.412	1.02
189.631	-23.55
189.851	50.18
190.07	3.07
190.29	-52.22
190.509	-31.74
190.729	11.26
190.948	-3.07
191.168	44.03
191.387	11.26
191.607	46.08
191.826	19.46
192.045	7.17
192.265	11.26
192.484	-66.56
192.704	39.94
192.923	-76.8
193.142	17.41
193.362	60.42
193.581	-37.89
193.8	93.18
194.02	46.08
194.239	-60.42
194.458	7.17
194.678	-9.22
194.897	27.65
195.116	-29.7
195.335	-33.79
195.555	3.07
195.774	-25.6
195.993	-7.17
196.212	33.79
196.432	-23.55
196.651	13.31
196.87	7.17
197.089	82.94
197.308	39.94
197.528	-7.17
197.747	56.32
197.966	41.98
198.185	9.22
198.404	50.18
198.623	70.65
198.842	35.84
199.062	-9.22
199.281	-23.55
199.5	-25.6
199.719	33.79
199.938	-50.18
200.157	-23.55
200.376	-11.26
200.595	9.22
200.814	-56.32
201.033	-23.55
201.252	7.17
201.471	15.36
201.69	54.27
201.909	-33.79
202.128	-60.42
202.347	23.55
202.566	-62.46
202.785	-9.22
203.004	-23.55
203.223	74.75
203.442	58.37
203.661	11.26
203.879	19.46
204.098	-25.6
204.317	-3.07
204.536	19.46
204.755	35.84
204.974	7.17
205.193	-35.84
205.411	62.46
205.63	70.65
205.849	-25.6
206.068	-13.31
206.287	33.79
206.505	23.55
206.724	-3.07
206.943	17.41
207.162	-54.27
207.381	31.74
207.599	-21.5
207.818	1.02
208.037	1.02
208.255	-31.74
208.474	-15.36
208.693	-5.12
208.911	-68.61
209.13	31.74
209.349	25.6
209.567	9.22
209.786	-17.41
210.005	-3.07
210.223	9.22
210.442	37.89
210.661	-23.55
210.879	23.55
211.098	-87.04
211.316	25.6
211.535	39.94
211.753	15.36
211.972	9.22
212.191	-52.22
212.409	-33.79
212.628	33.79
212.846	3.07
213.065	82.94
213.283	-37.89
213.502	56.32
213.72	93.18
213.938	-52.22
214.157	-39.94
214.375	-33.79
214.594	-105.47
214.812	-25.6
215.031	41.98
215.249	-97.28
215.467	23.55
215.686	52.22
215.904	66.56
216.122	33.79
216.341	-13.31
216.559	33.79
216.778	-5.12
216.996	-52.22
217.214	19.46
217.432	-31.74
217.651	-13.31
217.869	9.22
218.087	91.13
218.306	46.08
218.524	7.17
218.742	-27.65
218.96	17.41
219.179	-3.07
219.397	23.55
219.615	54.27
219.833	-33.79
220.051	-35.84
220.27	11.26
220.488	15.36
220.706	15.36
220.924	7.17
221.142	25.6
221.36	-5.12
221.578	-21.5
221.796	33.79
222.015	27.65
222.233	1.02
222.451	33.79
222.669	-21.5
222.887	31.74
223.105	15.36
223.323	-15.36
223.541	-5.12
223.759	82.94
223.977	37.89
224.195	39.94
224.413	-80.89
224.631	41.98
224.849	-15.36
225.067	33.79
225.285	31.74
225.503	-41.98
225.721	39.94
225.939	-52.22
226.157	33.79
226.375	50.18
226.592	-33.79
226.81	-68.61
227.028	-27.65
227.246	-33.79
227.464	23.55
227.682	68.61
227.9	-19.46
228.117	25.6
228.335	54.27
228.553	-9.22
228.771	5.12
228.989	-25.6
229.206	-5.12
229.424	-21.5
229.642	66.56
229.86	97.28
230.077	56.32
230.295	-27.65
230.513	5.12
230.731	-21.5
230.948	3.07
231.166	60.42
231.384	-66.56
231.601	9.22
231.819	56.32
232.037	25.6
232.254	21.5
232.472	7.17
232.689	56.32
232.907	-33.79
233.125	-7.17
233.342	72.7
233.56	-1.02
233.777	66.56
233.995	-56.32
234.213	3.07
234.43	25.6
234.648	-3.07
234.865	17.41
235.083	74.75
235.3	41.98
235.518	29.7
235.735	-31.74
235.953	27.65
236.17	15.36
236.388	-35.84
236.605	13.31
236.822	31.74
237.04	27.65
237.257	64.51
237.475	-31.74
237.692	46.08
237.909	39.94
238.127	33.79
238.344	-91.13
238.562	15.36
238.779	-105.47
238.996	-41.98
239.214	-9.22
239.431	109.57
239.648	-37.89
239.865	-25.6
240.083	13.31
240.3	37.89
240.517	-27.65
240.735	17.41
240.952	50.18
241.169	7.17
241.386	-7.17
241.603	11.26
241.821	35.84
242.038	17.41
242.255	-23.55
242.472	9.22
242.689	31.74
242.907	11.26
243.124	3.07
243.341	13.31
243.558	-64.51
243.775	7.17
243.992	-1.02
244.209	9.22
244.426	50.18
244.643	-21.5
244.86	-27.65
245.078	-33.79
245.295	-50.18
245.512	78.85
245.729	-21.5
245.946	-9.22
246.163	-31.74
246.38	35.84
246.597	39.94
246.814	23.55
247.031	-64.51
247.248	41.98
247.464	48.13
247.681	33.79
247.898	17.41
248.115	-3.07
248.332	33.79
248.549	76.8
248.766	-17.41
248.983	-5.12
249.2	54.27
249.417	19.46
249.633	7.17
249.85	9.22
250.067	-19.46
250.284	23.55
250.501	-41.98
250.717	-35.84
250.934	-50.18
251.151	-68.61
251.368	-5.12
251.585	33.79
251.801	-7.17
252.018	29.7
252.235	-9.22
252.451	56.32
252.668	41.98
252.885	-1.02
253.102	29.7
253.318	-15.36
253.535	-3.07
253.752	-50.18
253.968	9.22
254.185	-3.07
254.401	-29.7
254.618	-5.12
254.835	-41.98
255.051	-48.13
255.268	3.07
255.484	25.6
255.701	31.74
255.917	25.6
256.134	9.22
256.351	7.17
256.567	5.12
256.784	7.17
257	-9.22
257.217	56.32
257.433	-7.17
257.65	52.22
257.866	11.26
258.082	-25.6
258.299	-50.18
258.515	46.08
258.732	-23.55
258.948	-29.7
259.165	37.89
259.381	15.36
259.597	-5.12
259.814	-48.13
260.03	-52.22
260.246	-1.02
260.463	-33.79
260.679	72.7
260.895	19.46
261.112	19.46
261.328	-35.84
261.544	-21.5
261.761	-54.27
261.977	-3.07
262.193	19.46
262.409	-29.7
262.626	52.22
262.842	29.7
263.058	29.7
263.274	-3.07
263.49	-23.55
263.707	13.31
263.923	-68.61
264.139	48.13
264.355	-17.41
264.571	-41.98
264.787	-5.12
265.004	-76.8
265.22	-39.94
265.436	-23.55
265.652	11.26
265.868	23.55
266.084	64.51
266.3	44.03
266.516	-21.5
266.732	-1.02
266.948	-1.02
267.164	46.08
267.38	-19.46
267.596	23.55
267.812	9.22
268.028	78.85
268.244	-27.65
268.46	37.89
268.676	-5.12
268.892	15.36
269.108	29.7
269.324	15.36
269.54	-52.22
269.756	60.42
269.972	-3.07
270.188	-37.89
270.403	-33.79
270.619	17.41
270.835	23.55
271.051	64.51
271.267	-25.6
271.483	25.6
271.698	72.7
271.914	-3.07
272.13	-46.08
272.346	44.03
272.562	23.55
272.777	15.36
272.993	-35.84
273.209	19.46
273.425	48.13
273.64	5.12
273.856	7.17
274.072	35.84
274.287	39.94
274.503	17.41
274.719	-25.6
274.934	44.03
275.15	50.18
275.366	9.22
275.581	-44.03
275.797	-3.07
276.012	-9.22
276.228	46.08
276.444	17.41
276.659	21.5
276.875	-27.65
277.09	17.41
277.306	37.89
277.521	56.32
277.737	29.7
277.952	3.07
278.168	19.46
278.383	-7.17
278.599	29.7
278.814	21.5
279.03	-15.36
279.245	-29.7
279.461	-11.26
279.676	56.32
279.892	-15.36
280.107	41.98
280.322	-27.65
280.538	-1.02
280.753	-33.79
280.969	19.46
281.184	-17.41
281.399	44.03
281.615	-1.02
281.83	-68.61
282.045	13.31
282.26	-33.79
282.476	-66.56
282.691	68.61
282.906	-17.41
283.122	23.55
283.337	1.02
283.552	-48.13
283.767	-17.41
283.983	-50.18
284.198	-3.07
284.413	19.46
284.628	7.17
284.843	17.41
285.058	-39.94
285.274	44.03
285.489	-25.6
285.704	-29.7
285.919	-33.79
286.134	-95.23
286.349	-25.6
286.564	9.22
286.779	9.22
286.995	-9.22
287.21	-64.51
287.425	76.8
287.64	7.17
287.855	-48.13
288.07	33.79
288.285	31.74
288.5	-50.18
288.715	-5.12
288.93	-44.03
289.145	17.41
289.36	-5.12
289.575	-27.65
289.79	9.22
290.004	11.26
290.219	78.85
290.434	13.31
290.649	13.31
290.864	27.65
291.079	-5.12
291.294	-1.02
291.509	-39.94
291.724	23.55
291.938	-21.5
292.153	3.07
292.368	-31.74
292.583	23.55
292.798	13.31
293.012	-23.55
293.227	21.5
293.442	35.84
293.657	-17.41
293.871	39.94
294.086	-64.51
294.301	-19.46
294.516	1.02
294.73	19.46
294.945	3.07
295.16	41.98
295.374	5.12
295.589	-7.17
295.804	44.03
296.018	-48.13
296.233	-15.36
296.447	15.36
296.662	-21.5
296.877	-37.89
297.091	9.22
297.306	56.32
297.52	29.7
297.735	-41.98
297.949	-11.26
298.164	56.32
298.378	72.7
298.593	19.46
298.807	-13.31
299.022	-25.6
299.236	-11.26
299.451	15.36
299.665	27.65
299.88	60.42
300.094	-46.08
300.309	25.6
300.523	-7.17
300.737	13.31
300.952	72.7
301.166	-54.27
301.381	-31.74
301.595	17.41
301.809	-37.89
302.024	-9.22
302.238	-52.22
302.452	80.89
302.667	33.79
302.881	48.13
303.095	-3.07
303.309	-39.94
303.524	-31.74
303.738	-44.03
303.952	-25.6
304.166	-17.41
304.381	-17.41
304.595	58.37
304.809	35.84
305.023	-17.41
305.237	-15.36
305.452	70.65
305.666	50.18
305.88	-23.55
306.094	25.6
306.308	-3.07
306.522	-19.46
306.736	21.5
306.95	-48.13
307.164	44.03
307.379	-15.36
307.593	37.89
307.807	25.6
308.021	-25.6
308.235	13.31
308.449	-58.37
308.663	-27.65
308.877	13.31
309.091	-27.65
309.305	-23.55
309.519	52.22
309.733	7.17
309.947	-37.89
310.161	64.51
310.374	50.18
310.588	95.23
310.802	-62.46
311.016	17.41
311.23	-21.5
311.444	37.89
311.658	-41.98
311.872	54.27
312.085	60.42
312.299	17.41
312.513	15.36
312.727	-15.36
312.941	-37.89
313.154	-23.55
313.368	-11.26
313.582	-29.7
313.796	9.22
314.009	37.89
314.223	31.74
314.437	-3.07
314.651	-13.31
314.864	-23.55
315.078	-1.02
315.292	-62.46
315.505	39.94
315.719	-44.03
315.933	-80.89
316.146	-19.46
316.36	27.65
316.573	39.94
316.787	17.41
317.001	23.55
317.214	9.22
317.428	19.46
317.641	33.79
317.855	105.47
318.068	39.94
318.282	-1.02
318.495	7.17
318.709	19.46
318.922	29.7
319.136	74.75
319.349	15.36
319.563	-31.74
319.776	-78.85
319.99	33.79
320.203	-50.18
320.417	-41.98
320.63	33.79
320.843	-17.41
321.057	-15.36
321.27	-1.02
321.483	31.74
321.697	21.5
321.91	1.02
322.124	39.94
322.337	48.13
322.55	56.32
322.763	31.74
322.977	3.07
323.19	11.26
323.403	41.98
323.617	-52.22
323.83	31.74
324.043	-37.89
324.256	-11.26
324.469	50.18
324.683	27.65
324.896	7.17
325.109	-27.65
325.322	-33.79
325.535	-9.22
325.748	-13.31
325.962	82.94
326.175	7.17
326.388	-13.31
326.601	9.22
326.814	-41.98
327.027	-21.5
327.24	-9.22
327.453	-54.27
327.666	33.79
327.879	-31.74
328.092	29.7
328.305	-25.6
328.518	58.37
328.731	27.65
328.944	64.51
329.157	23.55
329.37	48.13
329.583	-27.65
329.796	-17.41
330.009	-31.74
330.222	-1.02
330.435	-46.08
330.648	23.55
330.861	-35.84
331.073	15.36
331.286	-15.36
331.499	35.84
331.712	31.74
331.925	21.5
332.138	-29.7
332.35	7.17
332.563	1.02
332.776	72.7
332.989	-13.31
333.202	29.7
333.414	21.5
333.627	70.65
333.84	-7.17
334.053	29.7
334.265	-39.94
334.478	64.51
334.691	1.02
334.903	91.13
335.116	5.12
335.329	17.41
335.541	60.42
335.754	56.32
335.966	-76.8
336.179	-1.02
336.392	3.07
336.604	-13.31
336.817	-29.7
337.029	48.13
337.242	23.55
337.454	9.22
337.667	-64.51
337.88	80.89
338.092	-1.02
338.305	-3.07
338.517	-5.12
338.729	-11.26
338.942	-19.46
339.154	60.42
339.367	27.65
339.579	44.03
339.792	-29.7
340.004	66.56
340.217	-46.08
340.429	-44.03
340.641	-17.41
340.854	52.22
341.066	-31.74
341.278	-5.12
341.491	13.31
341.703	-21.5
341.915	7.17
342.128	9.22
342.34	-68.61
342.552	33.79
342.764	-60.42
342.977	-29.7
343.189	-44.03
343.401	27.65
343.613	7.17
343.826	1.02
344.038	-46.08
344.25	54.27
344.462	48.13
344.674	-19.46
344.886	15.36
345.099	19.46
345.311	31.74
345.523	-7.17
345.735	50.18
345.947	56.32
346.159	44.03
346.371	23.55
346.583	46.08
346.795	17.41
347.007	-46.08
347.219	-21.5
347.431	15.36
347.643	-13.31
347.855	-33.79
348.067	-3.07
348.279	44.03
348.491	1.02
348.703	25.6
348.915	29.7
349.127	39.94
349.339	27.65
349.551	39.94
349.763	46.08
349.975	27.65
350.187	25.6
350.399	56.32
350.61	9.22
350.822	-76.8
351.034	3.07
351.246	-21.5
351.458	62.46
351.669	15.36
351.881	80.89
352.093	-37.89
352.305	-23.55
352.517	23.55
352.728	-31.74
352.94	66.56
353.152	1.02
353.363	-48.13
353.575	-37.89
353.787	54.27
353.999	54.27
354.21	-9.22
354.422	-46.08
354.633	27.65
354.845	-66.56
355.057	78.85
355.268	-7.17
355.48	56.32
355.692	23.55
355.903	15.36
356.115	58.37
356.326	58.37
356.538	-60.42
356.749	-3.07
356.961	105.47
357.172	23.55
357.384	29.7
357.595	23.55
357.807	-5.12
358.018	-15.36
358.23	58.37
358.441	39.94
358.653	76.8
358.864	-21.5
359.075	-23.55
359.287	-50.18
359.498	-7.17
359.709	23.55
359.921	60.42
360.132	19.46
360.344	78.85
360.555	-23.55
360.766	-5.12
360.977	-23.55
361.189	105.47
361.4	58.37
361.611	50.18
361.823	41.98
362.034	11.26
362.245	-29.7
362.456	48.13
362.667	1.02
362.879	15.36
363.09	13.31
363.301	66.56
363.512	7.17
363.723	-21.5
363.935	7.17
364.146	1.02
364.357	9.22
364.568	1.02
364.779	35.84
364.99	82.94
365.201	15.36
365.412	15.36
365.623	-5.12
365.834	7.17
366.045	3.07
366.256	64.51
366.467	-1.02
366.678	-48.13
366.889	27.65
367.1	-15.36
367.311	11.26
367.522	50.18
367.733	3.07
367.944	7.17
368.155	-15.36
368.366	21.5
368.577	9.22
368.788	3.07
368.999	23.55
369.209	11.26
369.42	25.6
369.631	58.37
369.842	15.36
370.053	46.08
370.264	3.07
370.474	58.37
370.685	58.37
370.896	7.17
371.107	9.22
371.317	29.7
371.528	-64.51
371.739	76.8
371.95	76.8
372.16	3.07
372.371	27.65
372.582	-44.03
372.792	13.31
373.003	-3.07
373.214	64.51
373.424	-13.31
373.635	31.74
373.846	-5.12
374.056	-5.12
374.267	3.07
374.477	35.84
374.688	-9.22
374.898	37.89
375.109	1.02
375.319	13.31
375.53	50.18
375.74	48.13
375.951	11.26
376.161	17.41
376.372	15.36
376.582	-11.26
376.793	29.7
377.003	48.13
377.214	-1.02
377.424	17.41
377.635	27.65
377.845	41.98
378.055	13.31
378.266	-37.89
378.476	-62.46
378.686	-1.02
378.897	25.6
379.107	23.55
379.317	13.31
379.528	19.46
379.738	-35.84
379.948	7.17
380.158	44.03
380.369	-1.02
380.579	-1.02
380.789	41.98
380.999	35.84
381.21	-37.89
381.42	52.22
381.63	17.41
381.84	25.6
382.05	60.42
382.261	54.27
382.471	21.5
382.681	76.8
382.891	52.22
383.101	-7.17
383.311	-9.22
383.521	-15.36
383.731	60.42
383.941	-1.02
384.151	-31.74
384.361	-3.07
384.571	-37.89
384.781	13.31
384.991	-46.08
385.201	58.37
385.411	93.18
385.621	-19.46
385.831	48.13
386.041	39.94
386.251	64.51
386.461	78.85
386.671	48.13
386.881	23.55
387.091	-37.89
387.301	-1.02
387.511	-13.31
387.72	-37.89
387.93	-64.51
388.14	17.41
388.35	48.13
388.56	74.75
388.769	84.99
388.979	68.61
389.189	-37.89
389.399	15.36
389.609	29.7
389.818	48.13
390.028	56.32
390.238	-3.07
390.447	-48.13
390.657	7.17
390.867	46.08
391.076	5.12
391.286	50.18
391.496	27.65
391.705	5.12
391.915	58.37
392.125	23.55
392.334	-7.17
392.544	113.66
392.753	11.26
392.963	-3.07
393.172	-31.74
393.382	29.7
393.591	84.99
393.801	64.51
394.01	60.42
394.22	-21.5
394.429	21.5
394.639	9.22
394.848	84.99
395.058	-9.22
395.267	72.7
395.477	31.74
395.686	9.22
395.895	11.26
396.105	-9.22
396.314	-15.36
396.524	17.41
396.733	33.79
396.942	-15.36
397.152	17.41
397.361	39.94
397.57	-19.46
397.78	5.12
397.989	37.89
398.198	76.8
398.407	31.74
398.617	-19.46
398.826	48.13
399.035	-37.89
399.244	97.28
399.453	91.13
399.663	35.84
399.872	58.37
400.081	-1.02
400.29	-1.02
400.499	29.7
400.708	48.13
400.917	41.98
401.127	27.65
401.336	31.74
401.545	60.42
401.754	72.7
401.963	64.51
402.172	33.79
402.381	11.26
402.59	84.99
402.799	21.5
403.008	33.79
403.217	39.94
403.426	27.65
403.635	44.03
403.844	19.46
404.053	21.5
404.262	25.6
404.471	99.33
404.68	39.94
404.888	87.04
405.097	35.84
405.306	56.32
405.515	132.09
405.724	89.09
405.933	62.46
406.142	-3.07
406.35	95.23
406.559	105.47
406.768	80.89
406.977	-11.26
407.185	25.6
407.394	3.07
407.603	117.76
407.812	134.14
408.02	78.85
408.229	99.33
408.438	80.89
408.646	82.94
408.855	93.18
409.064	39.94
409.272	105.47
409.481	82.94
409.69	41.98
409.898	56.32
410.107	84.99
410.315	156.67
410.524	113.66
410.733	177.15
410.941	152.57
411.15	162.81
411.358	138.24
411.567	138.24
411.775	125.95
411.984	160.77
412.192	166.91
412.401	158.72
412.609	117.76
412.818	203.77
413.026	130.05
413.234	244.73
413.443	183.29
413.651	146.43
413.86	234.49
414.068	164.86
414.276	281.6
414.485	162.81
414.693	248.83
414.901	197.63
415.11	257.02
415.318	287.74
415.526	211.96
415.734	349.18
415.943	269.31
416.151	340.99
416.359	252.92
416.567	345.08
416.776	390.14
416.984	273.4
417.192	269.31
417.4	285.69
417.608	373.75
417.817	379.9
418.025	392.19
418.233	381.95
418.441	386.04
418.649	420.86
418.857	422.91
419.065	445.43
419.273	449.53
419.481	361.47
419.689	476.15
419.897	603.13
420.105	566.26
420.313	562.17
420.521	672.76
420.729	637.94
420.937	613.37
421.145	623.61
421.353	658.42
421.561	680.95
421.769	678.9
421.977	728.05
422.185	670.71
422.393	719.86
422.601	785.4
422.809	818.16
423.017	820.21
423.224	840.69
423.432	900.08
423.64	785.4
423.848	904.18
424.056	898.03
424.263	1016.82
424.471	1033.2
424.679	1031.15
424.887	1164.27
425.094	1098.74
425.302	1158.13
425.51	1154.03
425.718	1297.39
425.925	1156.08
426.133	1285.1
426.341	1268.72
426.548	1293.29
426.756	1493.99
426.964	1346.54
427.171	1412.07
427.379	1516.52
427.586	1565.67
427.794	1582.06
428.001	1659.88
428.209	1745.89
428.417	1698.79
428.624	1764.33
428.832	1729.51
429.039	1907.68
429.247	1815.52
429.454	1928.16
429.662	2032.61
429.869	1879.01
430.076	2065.38
430.284	1958.88
430.491	2143.2
430.699	2194.4
430.906	2313.18
431.114	2268.13
431.321	2470.87
431.528	2509.79
431.736	2474.97
431.943	2692.05
432.15	2612.18
432.358	2538.46
432.565	2780.12
432.772	2776.02
432.979	2958.29
433.187	3048.4
433.394	2870.23
433.601	2997.2
433.808	3204.05
434.016	3189.71
434.223	3259.34
434.43	3625.93
434.637	3484.62
434.844	3695.56
435.052	3627.98
435.259	3597.26
435.466	3660.74
435.673	3724.23
435.88	3777.48
436.087	4113.35
436.294	4094.91
436.501	4154.3
436.708	4107.2
436.915	4281.28
437.122	4467.64
437.329	4457.4
437.537	4453.31
437.743	4613.05
437.95	4637.63
438.157	4864.95
438.364	4971.44
438.571	4959.16
438.778	4940.72
438.985	5530.54
439.192	5188.53
439.399	5450.67
439.606	5286.83
439.813	5620.65
440.02	5905.32
440.227	5964.71
440.433	5878.69
440.64	5852.07
440.847	5985.19
441.054	6007.72
441.261	6509.47
441.467	6304.67
441.674	6712.22
441.881	6609.82
442.088	6613.92
442.294	6742.94
442.501	6964.12
442.708	7027.6
442.914	7291.79
443.121	7490.45
443.328	7271.31
443.534	7988.1
443.741	7521.17
443.948	7621.52
444.154	8211.33
444.361	7957.38
444.568	8016.77
444.774	8031.11
444.981	8199.04
445.187	8414.08
445.394	8795
445.6	8694.65
445.807	9513.84
446.013	9194.36
446.22	8950.65
446.426	9730.92
446.633	9657.2
446.839	10036.07
447.046	9687.92
447.252	10314.59
447.459	10279.78
447.665	10034.02
447.871	10638.17
448.078	11066.2
448.284	10609.5
448.491	10709.85
448.697	11262.8
448.903	11510.61
449.11	11623.25
449.316	11242.32
449.522	11508.56
449.728	11613.01
449.935	11952.97
450.141	12147.53
450.347	12118.86
450.553	11901.77
450.76	12116.81
450.966	12354.37
451.172	12247.88
451.378	12604.22
451.584	12258.12
451.791	12614.46
451.997	12716.86
452.203	12675.9
452.409	12534.59
452.615	12653.37
452.821	12151.62
453.027	12196.68
453.233	12845.88
453.44	12313.41
453.646	12520.26
453.852	12383.04
454.058	12739.39
454.264	12282.69
454.47	12270.4
454.676	12217.16
454.882	12745.53
455.088	11586.38
455.294	11938.63
455.5	12010.31
455.705	12065.61
455.911	11705.17
456.117	11535.18
456.323	11182.93
456.529	10546.02
456.735	11207.51
456.941	10883.93
457.147	10470.24
457.352	10402.66
457.558	10283.88
457.764	10494.82
457.97	10163.04
458.176	9835.37
458.381	9763.69
458.587	9450.35
458.793	9304.95
458.999	8903.54
459.204	9696.11
459.41	9259.89
459.616	8647.55
459.821	8747.9
460.027	8842.11
460.233	8479.61
460.438	8041.35
460.644	8323.97
460.85	7642
461.055	7564.17
461.261	7719.82
461.466	7000.98
461.672	6863.77
461.878	7463.82
462.083	7043.99
462.289	6790.04
462.494	6742.94
462.7	6433.69
462.905	6163.36
463.111	6396.83
463.316	6601.63
463.522	6423.45
463.727	6366.11
463.932	6337.44
464.138	6288.29
464.343	6364.06
464.549	6134.69
464.754	6290.34
464.959	6228.9
465.165	6333.34
465.37	5819.3
465.575	5712.81
465.781	6101.92
465.986	6075.3
466.191	5807.02
466.397	5702.57
466.602	5399.47
466.807	5669.8
467.012	5634.99
467.218	5579.69
467.423	5415.85
467.628	5569.45
467.833	5741.48
468.038	5489.58
468.244	5440.43
468.449	5585.83
468.654	5532.59
468.859	5397.42
469.064	5475.24
469.269	5116.85
469.474	5227.44
469.679	5168.05
469.885	5118.9
470.09	5311.41
470.295	4940.72
470.5	4963.25
470.705	5145.52
470.91	4914.1
471.115	4948.92
471.32	5000.12
471.525	4971.44
471.73	4795.32
471.935	4867
472.139	4545.47
472.344	4813.75
472.549	4621.24
472.754	4654.01
472.959	4615.1
473.164	4441.02
473.369	4367.29
473.574	4565.95
473.778	4561.85
473.983	4473.79
474.188	4420.54
474.393	4258.75
474.598	4338.62
474.802	4314.05
475.007	4154.3
475.212	4266.94
475.417	4139.97
475.621	4099.01
475.826	4180.93
476.031	4092.87
476.235	3894.21
476.44	4111.3
476.645	3969.99
476.849	3771.33
477.054	3726.28
477.259	3720.14
477.463	3808.2
477.668	3728.33
477.872	3742.66
478.077	3607.5
478.282	3654.6
478.486	3597.26
478.691	3523.53
478.895	3554.25
479.1	3371.98
479.304	3468.24
479.509	3464.14
479.713	3447.76
479.918	3316.69
480.122	3304.4
480.326	3476.43
480.531	3335.12
480.735	3298.25
480.94	3267.53
481.144	3466.19
481.348	3318.73
481.553	3308.49
481.757	3285.97
481.961	3318.73
482.166	3380.17
482.37	3320.78
482.574	3169.23
482.778	3271.63
482.983	3316.69
483.187	3288.01
483.391	3269.58
483.595	3269.58
483.8	3251.15
484.004	3267.53
484.208	3298.25
484.412	3285.97
484.616	3261.39
484.821	3216.33
485.025	3292.11
485.229	3394.51
485.433	3236.81
485.637	3273.68
485.841	3357.64
486.045	3148.75
486.249	3204.05
486.453	3228.62
486.657	3240.91
486.861	3351.5
487.065	3193.81
487.269	3253.2
487.473	3193.81
487.677	3400.65
487.881	3263.44
488.085	3224.53
488.289	3277.77
488.493	3247.05
488.697	3185.62
488.901	3224.53
489.105	3294.16
489.309	3339.21
489.512	3277.77
489.716	3220.43
489.92	3343.31
490.124	3353.55
490.328	3466.19
490.531	3410.89
490.735	3302.35
490.939	3316.69
491.143	3308.49
491.346	3310.54
491.55	3392.46
491.754	3341.26
491.958	3429.32
492.161	3382.22
492.365	3541.96
492.569	3464.14
492.772	3435.47
492.976	3455.95
493.18	3523.53
493.383	3611.59
493.587	3662.79
493.79	3642.31
493.994	3544.01
494.197	3670.98
494.401	3711.94
494.605	3699.66
494.808	3711.94
495.012	3697.61
495.215	3814.34
495.419	3812.29
495.622	3746.76
495.825	3828.68
496.029	3845.06
496.232	3896.26
496.436	3908.55
496.639	4072.39
496.843	4000.71
497.046	4041.67
497.249	4049.86
497.453	4127.68
497.656	4205.5
497.859	4223.94
498.063	4211.65
498.266	4379.58
498.469	4447.16
498.673	4355.01
498.876	4408.25
499.079	4402.11
499.282	4455.36
499.485	4508.6
499.689	4617.15
499.892	4705.21
500.095	4692.92
500.298	4832.18
500.501	4922.29
500.705	5071.79
500.908	5000.12
501.111	5036.98
501.314	4987.83
501.517	5241.78
501.72	5415.85
501.923	5188.53
502.126	5389.23
502.329	5522.35
502.532	5518.25
502.735	5530.54
502.938	5645.23
503.141	5741.48
503.344	5737.38
503.547	5749.67
503.75	5880.74
503.953	6022.05
504.156	6179.75
504.359	6216.61
504.562	6187.94
504.765	6343.58
504.968	6517.66
505.17	6681.5
505.373	6577.05
505.576	6618.01
505.779	6704.03
505.982	6892.44
506.185	7029.65
506.387	7140.24
506.59	7076.76
506.793	7185.3
506.996	7144.34
507.198	7535.5
507.401	7429.01
507.604	7639.95
507.807	7568.27
508.009	7840.65
508.212	7887.75
508.415	8072.07
508.617	8037.25
508.82	8131.46
509.022	8313.73
509.225	8610.68
509.428	8582.01
509.63	8493.95
509.833	8715.13
510.035	8938.36
510.238	8924.02
510.44	9118.58
510.643	9147.25
510.845	9294.71
511.048	9257.84
511.25	9419.63
511.453	9591.66
511.655	9872.23
511.858	9771.88
512.06	9960.3
512.262	10140.52
512.465	10267.49
512.667	10249.06
512.87	10425.18
513.072	10586.97
513.274	10873.69
513.477	10976.09
513.679	10937.18
513.881	11170.65
514.084	11324.24
514.286	11330.39
514.488	11826
514.69	11875.15
514.893	11903.82
515.095	12051.27
515.297	12122.95
515.499	12335.94
515.701	12483.39
515.904	12477.25
516.106	12649.28
516.308	12837.69
516.51	12925.75
516.712	13181.75
516.914	13355.83
517.116	13656.88
517.318	13597.49
517.52	13763.37
517.722	13898.54
517.925	14125.86
518.127	14068.52
518.329	14406.44
518.531	14471.97
518.733	14875.42
518.935	14947.1
519.136	15031.07
519.338	15336.21
519.54	15389.46
519.742	15575.83
519.944	15749.9
520.146	16012.04
520.348	16202.5
520.55	16112.39
520.752	16450.31
520.954	16460.55
521.155	16411.4
521.357	16722.69
521.559	16972.54
521.761	17332.98
521.963	17031.93
522.164	17476.34
522.366	17400.57
522.568	17548.02
522.77	17814.26
522.971	18334.44
523.173	18008.81
523.375	18332.39
523.576	18158.31
523.778	18721.51
523.98	18741.99
524.181	18973.41
524.383	18957.02
524.584	19206.87
524.786	19466.97
524.988	19323.61
525.189	19387.1
525.391	19665.62
525.592	19712.72
525.794	20038.35
525.995	20077.26
526.197	20320.97
526.398	20247.24
526.6	20576.97
526.801	20558.53
527.003	20572.87
527.204	20921.02
527.406	20935.36
527.607	20931.26
527.808	21097.15
528.01	20746.95
528.211	21318.33
528.412	21459.64
528.614	21392.06
528.815	21406.39
529.016	21559.99
529.218	21476.02
529.419	21725.88
529.62	21668.53
529.822	21871.28
530.023	21822.13
530.224	22430.38
530.425	22104.75
530.626	21947.06
530.828	21807.8
531.029	22534.82
531.23	22235.82
531.431	22479.53
531.632	22620.84
531.833	22287.02
532.035	22356.65
532.236	22579.88
532.437	22491.82
532.638	22485.67
532.839	22796.96
533.04	22868.64
533.241	22606.5
533.442	22667.94
533.643	22870.69
533.844	22610.6
534.045	23052.96
534.246	22522.54
534.447	22938.27
534.648	23073.44
534.849	22993.57
535.05	22842.02
535.251	23188.13
535.451	23055.01
535.652	23186.08
535.853	23026.34
536.054	23106.21
536.255	23044.77
536.456	22887.07
536.657	23276.19
536.857	23278.24
537.058	22776.48
537.259	23298.72
537.46	23509.66
537.66	23087.78
537.861	23089.82
538.062	23124.64
538.263	23397.02
538.463	23370.4
538.664	23202.46
538.865	23349.92
539.065	23257.76
539.266	22964.9
539.466	23601.82
539.667	23095.97
539.868	23450.27
540.068	23161.5
540.269	23392.92
540.469	23409.31
540.67	23085.73
540.87	23222.94
541.071	23390.88
541.271	23554.71
541.472	23433.88
541.672	23296.67
541.873	22911.65
542.073	23042.72
542.274	23554.71
542.474	23435.93
542.675	23102.11
542.875	23476.89
543.075	23323.29
543.276	23024.29
543.476	23464.6
543.676	23069.34
543.877	23339.68
544.077	23259.81
544.277	23523.99
544.478	23296.67
544.678	23259.81
544.878	23419.55
545.078	23493.27
545.279	23202.46
545.479	23222.94
545.679	23401.11
545.879	23343.77
546.079	23192.22
546.28	23362.2
546.48	23171.74
546.68	23347.87
546.88	23499.42
547.08	23509.66
547.28	23370.4
547.48	23018.14
547.68	23276.19
547.88	23265.95
548.081	23376.54
548.281	23493.27
548.481	23308.96
548.681	23458.46
548.881	23476.89
549.081	23315.1
549.28	23319.2
549.48	23573.14
549.68	23505.56
549.88	23403.16
550.08	23190.17
550.28	23286.43
550.48	23200.41
550.68	23403.16
550.88	23288.48
551.08	23071.39
551.279	23562.9
551.479	22897.31
551.679	23536.28
551.879	23214.75
552.079	23294.62
552.278	23083.68
552.478	23351.96
552.678	23052.96
552.878	23523.99
553.077	23151.26
553.277	23132.83
553.477	23192.22
553.676	23263.9
553.876	23247.52
554.076	23165.6
554.275	22782.63
554.475	23018.14
554.674	22925.99
554.874	23153.31
555.074	22897.31
555.273	23077.54
555.473	23081.63
555.672	22850.21
555.872	23130.78
556.071	23331.48
556.271	23003.81
556.47	22981.28
556.67	22676.13
556.869	22856.36
557.068	22874.79
557.268	22616.74
557.467	22747.81
557.667	22860.45
557.866	22805.16
558.065	22854.31
558.265	22364.84
558.464	22530.73
558.663	22809.25
558.863	22354.6
559.062	22682.28
559.261	22358.7
559.461	22461.1
559.66	22307.5
559.859	22256.3
560.058	22338.22
560.258	22446.76
560.457	21912.24
560.656	22446.76
560.855	22256.3
561.054	22514.34
561.253	21793.46
561.453	22004.4
561.652	21951.15
561.851	22117.04
562.05	21824.18
562.249	21897.91
562.448	21815.99
562.647	21711.54
562.846	21815.99
563.045	21549.75
563.244	21545.66
563.443	21680.82
563.642	21471.93
563.841	21576.37
564.04	21707.44
564.239	21646.01
564.438	21564.09
564.637	21580.47
564.836	21193.4
565.035	21017.28
565.234	21291.71
565.432	21328.57
565.631	20869.83
565.83	21369.53
566.029	21332.67
566.228	21117.63
566.427	20939.46
566.625	21015.23
566.824	20687.56
567.023	21004.99
567.222	20642.5
567.42	20898.5
567.619	20685.51
567.818	20566.73
568.016	20572.87
568.215	20898.5
568.414	20615.88
568.612	20695.75
568.811	20261.58
569.01	20427.46
569.208	20120.27
569.407	20370.12
569.605	20085.45
569.804	20513.48
570.002	19931.86
570.201	20009.68
570.4	19786.45
570.598	19696.34
570.797	19710.68
570.995	19790.55
571.193	19286.75
571.392	19702.48
571.59	19671.76
571.789	19299.03
571.987	19399.38
572.186	19327.71
572.384	19292.89
572.582	19104.48
572.781	19167.96
572.979	18850.53
573.177	18954.97
573.376	19237.59
573.574	19040.99
573.772	19014.37
573.971	18666.21
574.169	18731.75
574.367	18412.26
574.565	18590.44
574.763	18305.77
574.962	18471.65
575.16	18174.7
575.358	18258.67
575.556	17838.83
575.754	18498.28
575.952	18158.31
576.151	18176.75
576.349	17887.98
576.547	17820.4
576.745	17939.18
576.943	17734.39
577.141	17726.19
577.339	17720.05
577.537	17617.65
577.735	17513.2
577.933	17718
578.131	17586.93
578.329	17330.94
578.527	17310.46
578.725	17402.61
578.923	17431.29
579.121	17259.26
579.319	17171.19
579.516	17085.18
579.714	17021.69
579.912	16974.59
580.11	17040.12
580.308	17042.17
580.506	16886.53
580.704	16603.91
580.901	16626.43
581.099	16861.95
581.297	16614.15
581.495	16769.79
581.692	16605.95
581.89	16485.12
582.088	16438.02
582.285	16116.49
582.483	16493.32
582.681	16409.35
582.878	16265.99
583.076	15854.35
583.274	16309
583.471	15975.18
583.669	16126.73
583.866	15854.35
584.064	16040.72
584.262	15579.92
584.459	15770.38
584.657	15860.49
584.854	16032.52
585.052	15577.87
585.249	15770.38
585.447	15696.66
585.644	15385.37
585.841	15502.1
586.039	15495.96
586.236	15131.42
586.434	15076.12
586.631	15137.56
586.828	15166.23
587.026	15104.79
587.223	14983.96
587.42	14887.71
587.618	15004.44
587.815	14955.29
588.012	14705.44
588.21	14932.76
588.407	15006.49
588.604	14988.06
588.801	14861.09
588.999	14777.12
589.196	14678.82
589.393	14715.68
589.59	14687.01
589.787	14398.24
589.984	14394.15
590.182	14373.67
590.379	14560.03
590.576	14132.01
590.773	14115.62
590.97	14170.92
591.167	14201.64
591.364	13931.31
591.561	13957.93
591.758	14084.91
591.955	13896.49
592.152	13931.31
592.349	13790
592.546	13984.55
592.743	13867.82
592.94	13556.53
593.137	13851.44
593.334	13781.81
593.531	13386.55
593.727	13730.61
593.924	13435.7
594.121	13488.95
594.318	13490.99
594.515	13431.6
594.712	13486.9
594.908	13493.04
595.105	13421.36
595.302	13185.85
595.499	13380.4
595.696	13208.37
595.892	13060.92
596.089	13118.26
596.286	13286.2
596.482	13036.35
596.679	13124.41
596.876	13058.87
597.072	12825.4
597.269	12864.32
597.466	12737.34
597.662	12739.39
597.859	12766.01
598.055	12591.94
598.252	12761.92
598.448	12698.43
598.645	12659.52
598.841	12501.83
599.038	12589.89
599.234	12618.56
599.431	12358.47
599.627	12512.07
599.824	12424
600.02	12260.16
600.217	12292.93
600.413	12235.59
600.609	12047.18
600.806	12010.31
601.002	12079.94
601.198	12217.16
601.395	12026.7
601.591	12057.42
601.787	11893.58
601.984	11869
602.18	12098.38
602.376	11766.6
602.572	11731.79
602.769	11754.32
602.965	11682.64
603.161	11852.62
603.357	11498.32
603.553	11445.07
603.75	11410.26
603.946	11447.12
604.142	11324.24
604.338	11359.06
604.534	11420.5
604.73	11434.83
604.926	11221.84
605.122	11426.64
605.318	11182.93
605.514	11197.27
605.71	10994.52
605.906	11084.63
606.102	11035.48
606.298	10916.7
606.494	11068.25
606.69	10888.03
606.886	10879.83
607.082	10685.28
607.278	10920.79
607.474	10738.52
607.67	10746.72
607.866	10550.11
608.062	10810.2
608.257	10527.58
608.453	10652.51
608.649	10814.3
608.845	10564.45
609.041	10453.86
609.236	10664.8
609.432	10435.42
609.628	10496.86
609.824	10302.31
610.019	10359.65
610.215	10083.17
610.411	10277.73
610.606	10298.21
610.802	10269.54
610.998	10261.35
611.193	10113.89
611.389	10056.55
611.584	9995.11
611.78	9870.19
611.976	10031.97
612.171	10050.41
612.367	9991.02
612.562	10036.07
612.758	9640.81
612.953	9737.07
613.149	9712.49
613.344	9673.58
613.539	9855.85
613.735	9618.29
613.93	9612.14
614.126	9689.96
614.321	9702.25
614.517	9493.36
614.712	9694.06
614.907	9466.74
615.103	9450.35
615.298	9380.72
615.493	9497.46
615.688	9333.62
615.884	9505.65
616.079	9241.46
616.274	9331.57
616.47	9358.19
616.665	9196.4
616.86	9345.91
617.055	9180.02
617.25	9114.48
617.445	9261.94
617.641	8946.55
617.836	9061.24
618.031	8985.46
618.226	9038.71
618.421	9081.72
618.616	8981.37
618.811	8643.45
619.006	9059.19
619.201	8516.48
619.396	8903.54
619.591	8610.68
619.786	8590.2
619.981	8557.44
620.176	8547.2
620.371	8561.53
620.566	8682.36
620.761	8553.34
620.956	8545.15
621.151	8409.98
621.346	8340.35
621.541	8346.5
621.735	8244.1
621.93	8184.71
622.125	8319.87
622.32	8074.12
622.515	8143.75
622.709	7832.46
622.904	7857.03
623.099	7826.31
623.294	7834.5
623.488	7820.17
623.683	7926.66
623.878	7738.25
624.072	7805.83
624.267	7631.76
624.462	7799.69
624.656	7535.5
624.851	7830.41
625.046	7496.59
625.24	7592.84
625.435	7418.77
625.629	7512.97
625.824	7420.81
626.018	7461.77
626.213	7265.17
626.407	7299.98
626.602	7158.67
626.796	7189.39
626.991	7168.91
627.185	7111.57
627.38	7082.9
627.574	7052.18
627.768	7041.94
627.963	7011.22
628.157	6751.13
628.352	6814.62
628.546	6828.95
628.74	6824.86
628.935	6691.74
629.129	6816.66
629.323	6577.05
629.517	6585.24
629.712	6648.73
629.906	6648.73
630.1	6570.91
630.294	6579.1
630.489	6308.77
630.683	6437.79
630.877	6515.61
631.071	6439.84
631.265	6304.67
631.459	6210.47
631.653	6263.71
631.848	6126.5
632.042	5989.28
632.236	6198.18
632.43	5999.52
632.624	6185.89
632.818	5979.04
633.012	5938.09
633.206	6044.58
633.4	5985.19
633.594	5860.26
633.788	6214.56
633.982	5938.09
634.176	5858.21
634.369	5903.27
634.563	5987.24
634.757	5839.78
634.951	5737.38
635.145	5802.92
635.339	5632.94
635.533	5628.84
635.726	5850.02
635.92	5594.03
636.114	5522.35
636.308	5530.54
636.501	5526.44
636.695	5387.18
636.889	5356.46
637.083	5383.09
637.276	5397.42
637.47	5389.23
637.664	5422
637.857	5274.54
638.051	5194.67
638.244	5057.46
638.438	5350.32
638.632	5096.37
638.825	5170.1
639.019	5110.71
639.212	5006.26
639.406	5045.17
639.599	5077.94
639.793	5020.6
639.986	4942.77
640.18	4977.59
640.373	4856.76
640.567	4742.07
640.76	4918.2
640.954	4811.7
641.147	4662.2
641.34	4694.97
641.534	4680.63
641.727	4668.34
641.92	4619.19
642.114	4627.39
642.307	4770.74
642.5	4611
642.694	4619.19
642.887	4547.51
643.08	4604.86
643.273	4438.97
643.467	4342.72
643.66	4529.08
643.853	4418.49
644.046	4156.35
644.239	4457.4
644.432	4312
644.626	4137.92
644.819	4160.45
645.012	4371.39
645.205	4185.02
645.398	4129.73
645.591	4062.15
645.784	4170.69
645.977	4039.62
646.17	4000.71
646.363	4080.58
646.556	3912.64
646.749	3869.64
646.942	3933.12
647.135	4004.8
647.328	3918.79
647.521	3863.49
647.714	3845.06
647.907	3718.09
648.099	3730.38
648.292	3718.09
648.485	3718.09
648.678	3746.76
648.871	3750.85
649.064	3652.55
649.256	3716.04
649.449	3539.91
649.642	3623.88
649.835	3472.33
650.027	3548.11
650.22	3597.26
650.413	3449.8
650.605	3515.34
650.798	3388.36
650.991	3290.06
651.183	3400.65
651.376	3513.29
651.568	3414.99
651.761	3306.45
651.954	3220.43
652.146	3120.08
652.339	3218.38
652.531	3193.81
652.724	3177.42
652.916	3232.72
653.109	3025.87
653.301	3118.03
653.494	3154.9
653.686	3107.79
653.879	3064.79
654.071	3165.14
654.263	3062.74
654.456	3099.6
654.648	3038.16
654.84	2964.43
655.033	2991.06
655.225	3032.02
655.417	3089.36
655.61	2909.14
655.802	2876.37
655.994	2847.7
656.186	2767.83
656.379	2876.37
656.571	2859.99
656.763	2753.49
656.955	2903
657.148	2829.27
657.34	2735.06
657.532	2704.34
657.724	2651.1
657.916	2690.01
658.108	2728.92
658.3	2661.34
658.492	2706.39
658.684	2606.04
658.876	2565.08
659.068	2499.55
659.26	2616.28
659.452	2616.28
659.644	2546.65
659.836	2436.06
660.028	2472.92
660.22	2515.93
660.412	2489.31
660.604	2460.63
660.796	2436.06
660.988	2595.8
661.18	2337.76
661.372	2302.94
661.563	2288.61
661.755	2415.58
661.947	2362.33
662.139	2366.43
662.331	2200.54
662.522	2327.52
662.714	2169.82
662.906	2268.13
663.097	2268.13
663.289	2186.21
663.481	2253.79
663.673	2227.17
663.864	2087.9
664.056	2100.19
664.247	2157.54
664.439	2108.38
664.631	2161.63
664.822	2212.83
665.014	2096.1
665.205	2151.39
665.397	2055.14
665.588	1999.84
665.78	2012.13
665.971	2034.66
666.163	1956.83
666.354	2061.28
666.546	1936.35
666.737	2038.75
666.929	2077.66
667.12	1940.45
667.311	1995.75
667.503	1946.59
667.694	1997.79
667.885	1870.82
668.077	1907.68
668.268	1821.67
668.459	1862.63
668.651	1885.16
668.842	1856.48
669.033	1817.57
669.224	1836
669.416	1911.78
669.607	1870.82
669.798	1817.57
669.989	1723.37
670.18	1825.76
670.371	1668.07
670.563	1758.18
670.754	1784.8
670.945	1729.51
671.136	1801.19
671.327	1735.65
671.518	1780.71
671.709	1852.39
671.9	1733.61
672.091	1801.19
672.282	1696.74
672.473	1729.51
672.664	1745.89
672.855	1682.41
673.046	1729.51
673.237	1754.09
673.428	1735.65
673.619	1670.12
673.809	1588.2
674	1612.78
674.191	1737.7
674.382	1680.36
674.573	1633.26
674.764	1577.96
674.954	1608.68
675.145	1602.54
675.336	1663.97
675.527	1688.55
675.717	1633.26
675.908	1551.34
676.099	1555.43
676.289	1604.58
676.48	1582.06
676.671	1526.76
676.861	1588.2
677.052	1547.24
677.243	1565.67
677.433	1522.66
677.624	1614.82
677.814	1539.05
678.005	1612.78
678.195	1528.81
678.386	1594.34
678.576	1590.25
678.767	1483.75
678.957	1498.09
679.148	1448.94
679.338	1584.1
679.529	1606.63
679.719	1561.58
679.909	1522.66
680.1	1481.71
680.29	1524.71
680.481	1459.18
680.671	1498.09
680.861	1500.14
681.052	1526.76
681.242	1465.32
681.432	1514.47
681.622	1514.47
681.813	1469.42
682.003	1547.24
682.193	1530.86
682.383	1543.14
682.573	1481.71
682.764	1448.94
682.954	1549.29
683.144	1489.9
683.334	1424.36
683.524	1483.75
683.714	1592.3
683.904	1418.22
684.094	1530.86
684.284	1440.75
684.474	1450.99
684.664	1528.81
684.854	1459.18
685.044	1426.41
685.234	1403.88
685.424	1547.24
685.614	1426.41
685.804	1500.14
685.994	1471.47
686.184	1457.13
686.374	1553.38
686.564	1473.51
686.753	1524.71
686.943	1461.23
687.133	1393.64
687.323	1473.51
687.513	1489.9
687.702	1438.7
687.892	1485.8
688.082	1360.88
688.272	1471.47
688.461	1432.55
688.651	1479.66
688.841	1528.81
689.03	1534.95
689.22	1473.51
689.41	1354.73
689.599	1416.17
689.789	1457.13
689.979	1428.46
690.168	1348.59
690.358	1498.09
690.547	1373.16
690.737	1440.75
690.926	1385.45
691.116	1401.83
691.305	1518.57
691.495	1371.12
691.684	1455.08
691.874	1498.09
692.063	1481.71
692.252	1455.08
692.442	1428.46
692.631	1422.31
692.82	1471.47
693.01	1430.51
693.199	1383.4
693.388	1391.59
693.578	1479.66
693.767	1471.47
693.956	1412.07
694.146	1479.66
694.335	1498.09
694.524	1424.36
694.713	1405.93
694.902	1416.17
695.092	1522.66
695.281	1442.79
695.47	1448.94
695.659	1407.98
695.848	1410.03
696.037	1532.9
696.226	1491.95
696.415	1424.36
696.604	1487.85
696.793	1543.14
696.982	1469.42
697.171	1485.8
697.36	1422.31
697.549	1541.1
697.738	1424.36
697.927	1530.86
698.116	1420.27
698.305	1426.41
698.494	1506.28
698.683	1412.07
698.872	1453.03
699.061	1498.09
699.25	1500.14
699.438	1522.66
699.627	1477.61
699.816	1580.01
700.005	1467.37
700.193	1473.51
700.382	1473.51
700.571	1502.19
700.76	1500.14
700.948	1590.25
701.137	1442.79
701.326	1627.11
701.514	1434.6
701.703	1504.23
701.892	1541.1
702.08	1551.34
702.269	1469.42
702.457	1459.18
702.646	1508.33
702.834	1541.1
703.023	1563.62
703.212	1498.09
703.4	1442.79
703.589	1516.52
703.777	1516.52
703.965	1485.8
704.154	1592.3
704.342	1467.37
704.531	1549.29
704.719	1508.33
704.907	1463.27
705.096	1430.51
705.284	1469.42
705.472	1465.32
705.661	1485.8
705.849	1422.31
706.037	1508.33
706.226	1487.85
706.414	1391.59
706.602	1432.55
706.79	1395.69
706.979	1481.71
707.167	1420.27
707.355	1444.84
707.543	1528.81
707.731	1393.64
707.919	1500.14
708.107	1440.75
708.296	1496.04
708.484	1393.64
708.672	1432.55
708.86	1424.36
709.048	1377.26
709.236	1344.49
709.424	1450.99
709.612	1373.16
709.8	1326.06
709.988	1405.93
710.176	1373.16
710.364	1360.88
710.551	1528.81
710.739	1489.9
710.927	1393.64
711.115	1369.07
711.303	1448.94
711.491	1319.92
711.679	1338.35
711.866	1340.4
712.054	1444.84
712.242	1328.11
712.43	1457.13
712.617	1291.24
712.805	1246.19
712.993	1426.41
713.181	1289.2
713.368	1287.15
713.556	1375.21
713.744	1367.02
713.931	1395.69
714.119	1276.91
714.306	1262.57
714.494	1260.52
714.682	1334.25
714.869	1289.2
715.057	1278.96
715.244	1281
715.432	1305.58
715.619	1260.52
715.807	1326.06
715.994	1317.87
716.182	1184.75
716.369	1264.62
716.556	1250.28
716.744	1190.89
716.931	1264.62
717.119	1240.05
717.306	1285.1
717.493	1190.89
717.681	1221.61
717.868	1199.09
718.055	1207.28
718.242	1264.62
718.43	1188.85
718.617	1311.72
718.804	1178.61
718.991	1199.09
719.179	1221.61
719.366	1180.65
719.553	1086.45
719.74	1213.42
719.927	1178.61
720.114	1182.7
720.301	1082.35
720.488	1221.61
720.676	1168.37
720.863	1100.78
721.05	1143.79
721.237	1225.71
721.424	1192.94
721.611	1078.26
721.798	1180.65
721.985	1111.02
722.172	1108.98
722.358	1072.11
722.545	1014.77
722.732	1096.69
722.919	1211.37
723.106	1127.41
723.293	1063.92
723.48	1162.22
723.667	1055.73
723.853	1076.21
724.04	1072.11
724.227	1135.6
724.414	1143.79
724.6	967.67
724.787	1170.41
724.974	1045.49
725.161	1127.41
725.347	1014.77
725.534	1033.2
725.72	1057.78
725.907	1065.97
726.094	1147.89
726.28	990.19
726.467	1059.82
726.653	1010.67
726.84	1004.53
727.027	1025.01
727.213	1000.43
727.4	1080.3
727.586	1072.11
727.773	1033.2
727.959	973.81
728.145	994.29
728.332	986.1
728.518	982
728.705	1016.82
728.891	963.57
729.077	1082.35
729.264	975.86
729.45	1022.96
729.636	1018.86
729.823	924.66
730.009	953.33
730.195	1033.2
730.382	1027.06
730.568	951.28
730.754	1008.62
730.94	904.18
731.126	902.13
731.313	1012.72
731.499	988.14
731.685	1049.58
731.871	869.36
732.057	932.85
732.243	979.95
732.429	895.99
732.615	879.6
732.801	973.81
732.987	898.03
733.173	998.38
733.359	922.61
733.545	990.19
733.731	920.56
733.917	900.08
734.103	928.75
734.289	971.76
734.475	918.51
734.661	889.84
734.847	852.98
735.033	875.51
735.219	840.69
735.404	836.6
735.59	863.22
735.776	879.6
735.962	840.69
736.148	855.03
736.333	883.7
736.519	758.77
736.705	828.4
736.89	953.33
737.076	887.79
737.262	941.04
737.447	797.68
737.633	777.2
737.819	834.55
738.004	754.68
738.19	828.4
738.375	832.5
738.561	861.17
738.747	879.6
738.932	818.16
739.118	826.36
739.303	859.12
739.489	758.77
739.674	762.87
739.859	795.64
740.045	711.67
740.23	787.44
740.416	744.44
740.601	791.54
740.786	746.48
740.972	820.21
741.157	744.44
741.342	748.53
741.528	826.36
741.713	787.44
741.898	711.67
742.084	797.68
742.269	797.68
742.454	746.48
742.639	789.49
742.824	777.2
743.01	781.3
743.195	742.39
743.38	777.2
743.565	707.57
743.75	760.82
743.935	771.06
744.12	785.4
744.305	695.29
744.49	732.15
744.675	707.57
744.86	705.53
745.045	760.82
745.23	834.55
745.415	734.2
745.6	781.3
745.785	756.72
745.97	683
746.155	668.66
746.34	658.42
746.525	648.18
746.71	773.11
746.895	687.09
747.079	680.95
747.264	697.33
747.449	611.32
747.634	672.76
747.819	715.77
748.003	656.37
748.188	607.22
748.373	693.24
748.557	635.89
748.742	672.76
748.927	611.32
749.111	607.22
749.296	703.48
749.481	627.7
749.665	627.7
749.85	547.83
750.034	646.13
750.219	570.36
750.404	658.42
750.588	601.08
750.773	549.88
750.957	631.8
751.141	601.08
751.326	639.99
751.51	599.03
751.695	631.8
751.879	648.18
752.064	576.5
752.248	502.78
752.432	631.8
752.617	533.5
752.801	617.46
752.985	574.46
753.17	564.22
753.354	541.69
753.538	488.44
753.722	582.65
753.907	615.41
754.091	535.54
754.275	560.12
754.459	486.39
754.643	470.01
754.828	482.3
755.012	465.91
755.196	470.01
755.38	463.86
755.564	484.34
755.748	527.35
755.932	447.48
756.116	539.64
756.3	457.72
756.484	410.62
756.668	486.39
756.852	441.34
757.036	558.07
757.22	492.54
757.404	459.77
757.588	498.68
757.772	476.15
757.956	445.43
758.14	418.81
758.323	447.48
758.507	443.39
758.691	416.76
758.875	467.96
759.059	427
759.242	420.86
759.426	402.43
759.61	365.56
759.794	416.76
759.977	443.39
760.161	433.15
760.345	363.51
760.528	502.78
760.712	394.23
760.895	449.53
761.079	433.15
761.263	408.57
761.446	377.85
761.63	445.43
761.813	404.47
761.997	371.71
762.18	375.8
762.364	424.95
762.547	400.38
762.731	416.76
762.914	398.33
763.098	351.23
763.281	343.03
763.464	398.33
763.648	351.23
763.831	345.08
764.015	328.7
764.198	447.48
764.381	345.08
764.564	404.47
764.748	433.15
764.931	404.47
765.114	345.08
765.297	453.63
765.481	416.76
765.664	357.37
765.847	316.41
766.03	381.95
766.213	371.71
766.397	277.5
766.58	373.75
766.763	349.18
766.946	318.46
767.129	379.9
767.312	359.42
767.495	345.08
767.678	375.8
767.861	347.13
768.044	361.47
768.227	367.61
768.41	308.22
768.593	404.47
768.776	295.93
768.959	310.27
769.142	377.85
769.324	410.62
769.507	287.74
769.69	349.18
769.873	324.6
770.056	402.43
770.239	279.55
770.421	371.71
770.604	322.56
770.787	314.36
770.97	246.78
771.152	304.12
771.335	289.79
771.518	383.99
771.7	310.27
771.883	304.12
772.066	332.79
772.248	392.19
772.431	314.36
772.613	302.08
772.796	310.27
772.978	381.95
773.161	338.94
773.343	302.08
773.526	269.31
773.708	224.25
773.891	252.92
774.073	316.41
774.256	259.07
774.438	357.37
774.621	310.27
774.803	359.42
774.985	293.88
775.168	271.36
775.35	252.92
775.532	295.93
775.715	250.88
775.897	252.92
776.079	250.88
776.261	343.03
776.444	205.82
776.626	228.35
776.808	232.44
776.99	232.44
777.173	207.87
777.355	297.98
777.537	238.59
777.719	265.21
777.901	304.12
778.083	257.02
778.265	246.78
778.447	242.68
778.629	277.5
778.811	252.92
778.993	275.45
779.175	242.68
779.357	271.36
779.539	205.82
779.721	283.64
779.903	242.68
780.085	197.63
780.267	246.78
780.449	257.02
780.631	289.79
780.812	222.2
780.994	207.87
781.176	236.54
781.358	248.83
781.54	211.96
781.721	297.98
781.903	205.82
782.085	222.2
782.267	248.83
782.448	263.16
782.63	146.43
782.812	261.12
782.993	154.62
783.175	171.01
783.357	136.19
783.538	226.3
783.72	228.35
783.901	230.4
784.083	187.39
784.264	224.25
784.446	146.43
784.627	203.77
784.809	132.09
784.99	158.72
785.172	189.44
785.353	150.53
785.535	193.53
785.716	152.57
785.897	173.05
786.079	207.87
786.26	93.18
786.441	185.34
786.623	177.15
786.804	99.33
786.985	183.29
787.167	216.06
787.348	152.57
787.529	181.25
787.71	207.87
787.891	156.67
788.073	173.05
788.254	95.23
788.435	168.96
788.616	226.3
788.797	144.38
788.978	156.67
789.159	152.57
789.34	189.44
789.522	138.24
789.703	138.24
789.884	87.04
790.065	158.72
790.246	142.33
790.427	152.57
790.607	158.72
790.788	130.05
790.969	70.65
791.15	191.49
791.331	203.77
791.512	111.61
791.693	152.57
791.874	113.66
792.054	121.85
792.235	146.43
792.416	117.76
792.597	93.18
792.778	74.75
792.958	121.85
793.139	113.66
793.32	66.56
793.5	74.75
793.681	177.15
793.862	123.9
794.042	101.37
794.223	72.7
794.404	111.61
794.584	121.85
794.765	35.84
794.945	113.66
795.126	105.47
795.306	158.72
795.487	142.33
795.667	144.38
795.848	138.24
796.028	74.75
796.209	87.04
796.389	93.18
796.57	56.32
796.75	115.71
796.93	93.18
797.111	99.33
797.291	121.85
797.471	121.85
797.652	171.01
797.832	107.52
798.012	115.71
798.192	23.55
798.373	111.61
798.553	121.85
798.733	76.8
798.913	37.89
799.093	74.75
799.274	89.09
799.454	25.6
799.634	62.46
799.814	109.57
799.994	93.18
800.174	181.25
800.354	7.17
800.534	125.95
800.714	105.47
800.894	107.52
801.074	50.18
801.254	109.57
801.434	99.33
801.614	150.53
801.794	62.46
801.974	334.84
802.154	97.28
802.334	119.81
802.514	74.75
802.693	76.8
802.873	91.13
803.053	89.09
803.233	103.42
803.413	91.13
803.592	48.13
803.772	48.13
803.952	60.42
804.131	68.61
804.311	52.22
804.491	211.96
804.67	27.65
804.85	-1.02
805.03	37.89
805.209	56.32
805.389	70.65
805.568	80.89
805.748	99.33
805.928	52.22
806.107	107.52
806.287	91.13
806.466	107.52
806.646	23.55
806.825	46.08
807.004	33.79
807.184	101.37
807.363	115.71
807.543	84.99
807.722	64.51
807.901	66.56
808.081	72.7
808.26	82.94
808.439	91.13
808.619	136.19
808.798	33.79
808.977	74.75
809.156	25.6
809.336	64.51
809.515	142.33
809.694	62.46
809.873	105.47
810.052	-17.41
810.231	115.71
810.411	99.33
810.59	60.42
810.769	9.22
810.948	89.09
811.127	9.22
811.306	52.22
811.485	107.52
811.664	87.04
811.843	62.46
812.022	60.42
812.201	64.51
812.38	113.66
812.559	3.07
812.737	123.9
812.916	-11.26
813.095	15.36
813.274	66.56
813.453	29.7
813.632	3.07
813.811	29.7
813.989	-41.98
814.168	31.74
814.347	48.13
814.526	99.33
814.704	31.74
814.883	31.74
815.062	41.98
815.24	23.55
815.419	31.74
815.598	105.47
815.776	119.81
815.955	52.22
816.133	72.7
816.312	68.61
816.49	7.17
816.669	62.46
816.847	48.13
817.026	95.23
817.204	11.26
817.383	82.94
817.561	-31.74
817.74	138.24
817.918	105.47
818.097	-27.65
818.275	11.26
818.453	35.84
818.632	56.32
818.81	31.74
818.988	50.18
819.167	35.84
819.345	35.84
819.523	82.94
819.701	19.46
819.879	35.84
820.058	-13.31
820.236	72.7
820.414	29.7
820.592	41.98
820.77	52.22
820.948	31.74
821.127	21.5
821.305	66.56
821.483	31.74
821.661	3.07
821.839	56.32
822.017	17.41
822.195	15.36
822.373	56.32
822.551	-37.89
822.729	35.84
822.907	27.65
823.085	37.89
823.262	54.27
823.44	29.7
823.618	33.79
823.796	15.36
823.974	-13.31
824.152	15.36
824.329	48.13
824.507	-9.22
824.685	-21.5
824.863	-5.12
825.04	23.55
825.218	46.08
825.396	87.04
825.574	64.51
825.751	41.98
825.929	33.79
826.107	-17.41
826.284	11.26
826.462	1.02
826.639	74.75
826.817	41.98
826.994	19.46
827.172	101.37
827.349	-1.02
827.527	29.7
827.704	54.27
827.882	37.89
828.059	46.08
828.237	48.13
828.414	91.13
828.591	54.27
828.769	-21.5
828.946	-48.13
829.124	66.56
829.301	78.85
829.478	7.17
829.655	74.75
829.833	62.46
830.01	-17.41
830.187	48.13
830.364	-19.46
830.542	62.46
830.719	23.55
830.896	23.55
831.073	29.7
831.25	56.32
831.427	62.46
831.604	-23.55
831.782	99.33
831.959	9.22
832.136	84.99
832.313	7.17
832.49	21.5
832.667	58.37
832.844	11.26
833.021	-31.74
833.198	48.13
833.374	50.18
833.551	7.17
833.728	39.94
833.905	56.32
834.082	39.94
834.259	33.79
834.436	35.84
834.612	52.22
834.789	35.84
834.966	1.02
835.143	9.22
835.319	-31.74
835.496	-7.17
835.673	41.98
835.85	11.26
836.026	-44.03
836.203	-1.02
836.38	54.27
836.556	-23.55
836.733	-11.26
836.909	56.32
837.086	-23.55
837.262	15.36
837.439	78.85
837.616	56.32
837.792	-21.5
837.968	23.55
838.145	17.41
838.321	72.7
838.498	1.02
838.674	89.09
838.851	58.37
839.027	64.51
839.203	1.02
839.38	44.03
839.556	46.08
839.732	31.74
839.909	-13.31
840.085	17.41
840.261	21.5
840.437	21.5
840.614	-5.12
840.79	-19.46
840.966	31.74
841.142	99.33
841.318	-17.41
841.494	-7.17
841.671	39.94
841.847	7.17
842.023	-19.46
842.199	21.5
842.375	31.74
842.551	33.79
842.727	-7.17
842.903	27.65
843.079	7.17
843.255	25.6
843.431	74.75
843.607	50.18
843.783	25.6
843.959	39.94
844.134	29.7
844.31	107.52
844.486	-31.74
844.662	33.79
844.838	56.32
845.013	-9.22
845.189	39.94
845.365	-48.13
845.541	-29.7
845.716	23.55
845.892	31.74
846.068	31.74
846.244	-15.36
846.419	-25.6
846.595	9.22
846.77	33.79
846.946	7.17
847.122	89.09
847.297	-1.02
847.473	-9.22
847.648	-15.36
847.824	-52.22
847.999	64.51
848.175	41.98
848.35	-17.41
848.526	13.31
848.701	-35.84
848.876	56.32
849.052	27.65
849.227	7.17
849.403	-74.75
849.578	7.17
849.753	27.65
849.929	48.13
850.104	13.31
850.279	17.41
850.454	15.36
850.63	31.74
850.805	-9.22
850.98	-13.31
851.155	-56.32
851.33	62.46
851.505	11.26
851.681	-7.17
851.856	-44.03
852.031	58.37
852.206	66.56
852.381	-1.02
852.556	-35.84
852.731	80.89
852.906	70.65
853.081	119.81
853.256	-5.12
853.431	37.89
853.606	7.17
853.781	48.13
853.956	-54.27
854.131	19.46
854.305	3.07
854.48	17.41
854.655	15.36
854.83	17.41
855.005	27.65
855.18	19.46
855.354	11.26
855.529	23.55
855.704	-46.08
855.879	-58.37
856.053	101.37
856.228	-5.12
856.403	-39.94
856.577	33.79
856.752	23.55
856.926	54.27
857.101	58.37
857.276	-35.84
857.45	15.36
857.625	-21.5
857.799	37.89
857.974	-37.89
858.148	-21.5
858.323	3.07
858.497	-7.17
858.672	-15.36
858.846	23.55
859.02	31.74
859.195	-31.74
859.369	56.32
859.543	7.17
859.718	-1.02
859.892	39.94
860.066	7.17
860.241	-58.37
860.415	31.74
860.589	-60.42
860.763	7.17
860.938	-1.02
861.112	-39.94
861.286	-5.12
861.46	33.79
861.634	-78.85
861.808	-15.36
861.982	27.65
862.157	-13.31
862.331	44.03
862.505	15.36
862.679	-39.94
862.853	9.22
863.027	11.26
863.201	-35.84
863.375	5.12
863.549	27.65
863.722	-31.74
863.896	29.7
864.07	-52.22
864.244	50.18
864.418	-7.17
864.592	-3.07
864.766	3.07
864.939	-48.13
865.113	-1.02
865.287	7.17
865.461	33.79
865.634	-80.89
865.808	56.32
865.982	-9.22
866.156	-58.37
866.329	-13.31
866.503	87.04
866.676	29.7
866.85	-21.5
867.024	64.51
867.197	-25.6
867.371	21.5
867.544	-5.12
867.718	-7.17
867.891	-37.89
868.065	-56.32
868.238	41.98
868.412	-11.26
868.585	-31.74
868.759	-27.65
868.932	-13.31
869.105	-7.17
869.279	21.5
869.452	17.41
869.625	17.41
869.799	-5.12
869.972	-52.22
870.145	39.94
870.319	31.74
870.492	-31.74
870.665	15.36
870.838	39.94
871.011	15.36
871.185	-37.89
871.358	31.74
871.531	-17.41
871.704	27.65
871.877	-1.02
872.05	-37.89
872.223	-35.84
872.396	-27.65
872.569	58.37
872.742	-15.36
872.915	13.31
873.088	-9.22
873.261	23.55
873.434	-9.22
873.607	-37.89
873.78	39.94
873.953	3.07
874.126	-23.55
874.299	64.51
874.471	-58.37
874.644	72.7
874.817	-23.55
874.99	17.41
875.163	13.31
875.335	33.79
875.508	48.13
875.681	-25.6
875.853	-5.12
876.026	-7.17
876.199	25.6
876.371	-1.02
876.544	44.03
876.717	9.22
876.889	-7.17
877.062	-56.32
877.234	-103.42
877.407	33.79
877.579	-46.08
877.752	33.79
877.924	21.5
878.097	5.12
878.269	39.94
878.442	-97.28
878.614	64.51
878.786	39.94
878.959	37.89
879.131	-5.12
879.303	-25.6
879.476	-46.08
879.648	31.74
879.82	13.31
879.993	-1.02
880.165	-111.61
880.337	41.98
880.509	80.89
880.681	-27.65
880.854	-13.31
881.026	23.55
881.198	15.36
881.37	-1.02
881.542	1.02
881.714	9.22
881.886	-48.13
882.058	-46.08
882.23	-48.13
882.402	25.6
882.574	15.36
882.746	-17.41
882.918	-35.84
883.09	-31.74
883.262	82.94
883.434	-21.5
883.606	23.55
883.778	-1.02
883.95	11.26
884.122	41.98
884.293	17.41
884.465	-128
884.637	35.84
884.809	-70.65
884.98	-31.74
885.152	1.02
885.324	11.26
885.496	41.98
885.667	-3.07
885.839	-9.22
886.011	29.7
886.182	-80.89
886.354	29.7
886.525	-35.84
886.697	-41.98
886.869	15.36
887.04	1.02
887.212	33.79
887.383	13.31
887.555	-9.22
887.726	-74.75
887.897	-21.5
888.069	70.65
888.24	23.55
888.412	50.18
888.583	-15.36
888.754	27.65
888.926	52.22
889.097	1.02
889.268	-15.36
889.44	72.7
889.611	-91.13
889.782	33.79
889.953	64.51
890.125	31.74
890.296	5.12
890.467	-13.31
890.638	-31.74
890.809	-3.07
890.98	80.89
891.151	39.94
891.323	1.02
891.494	37.89
891.665	-37.89
891.836	5.12
892.007	-21.5
892.178	-33.79
892.349	-15.36
892.52	-15.36
892.691	-19.46
892.862	-7.17
893.032	-91.13
893.203	-35.84
893.374	37.89
893.545	-39.94
893.716	5.12
893.887	-19.46
894.057	-27.65
894.228	-33.79
894.399	-33.79
894.57	50.18
894.74	-48.13
894.911	7.17
895.082	7.17
895.253	-9.22
895.423	-33.79
895.594	5.12
895.764	11.26
895.935	-39.94
896.106	64.51
896.276	48.13
896.447	-56.32
896.617	-62.46
896.788	-21.5
896.958	9.22
897.129	-21.5
897.299	-13.31
897.47	-33.79
897.64	33.79
897.81	-3.07
897.981	-62.46
898.151	-37.89
898.322	-56.32
898.492	-39.94
898.662	11.26
898.832	-5.12
899.003	27.65
899.173	19.46
899.343	-41.98
899.513	41.98
