Data from USB4F104151__16__13-52-30-284.txt Node

Date: Thu Mar 13 13:52:30 EDT 2025
User: louis
Spectrometer: USB4F10415
Trigger mode: 4
Integration Time (sec): 1.000000E-2
Scans to average: 1
Electric dark correction enabled: true
Nonlinearity correction enabled: false
Boxcar width: 0
XAxis mode: Wavelengths
Number of Pixels in Spectrum: 3648
>>>>>Begin Spectral Data<<<<<
178.204	-40.11
178.424	-40.11
178.644	-40.11
178.864	-62.63
179.084	-44.2
179.304	-21.67
179.524	-9.39
179.744	0.85
179.964	15.19
180.184	-1.19
180.404	-54.44
180.624	-36.01
180.844	21.33
181.064	-11.43
181.283	15.19
181.503	15.19
181.723	66.39
181.943	17.24
182.163	66.39
182.383	35.67
182.602	15.19
182.822	-31.91
183.042	4.95
183.262	-44.2
183.482	52.05
183.701	19.29
183.921	17.24
184.141	45.91
184.361	13.14
184.58	60.24
184.8	47.96
185.02	-52.39
185.239	45.91
185.459	19.29
185.679	62.29
185.898	-31.91
186.118	19.29
186.338	60.24
186.557	35.67
186.777	50
186.997	19.29
187.216	76.63
187.436	23.38
187.655	-52.39
187.875	76.63
188.095	33.62
188.314	64.34
188.534	11.09
188.753	23.38
188.973	64.34
189.192	60.24
189.412	103.25
189.631	31.57
189.851	58.2
190.07	0.85
190.29	-5.29
190.509	93.01
190.729	2.9
190.948	-46.25
191.168	72.53
191.387	56.15
191.607	-1.19
191.826	-29.87
192.045	15.19
192.265	47.96
192.484	9.05
192.704	37.72
192.923	19.29
193.142	9.05
193.362	-7.34
193.581	64.34
193.8	15.19
194.02	68.44
194.239	37.72
194.458	33.62
194.678	66.39
194.897	115.54
195.116	41.81
195.335	-17.58
195.555	43.86
195.774	0.85
195.993	33.62
196.212	2.9
196.432	-9.39
196.651	17.24
196.87	-15.53
197.089	70.48
197.308	25.43
197.528	-13.48
197.747	27.48
197.966	-11.43
198.185	90.96
198.404	39.76
198.623	25.43
198.842	56.15
199.062	86.87
199.281	-7.34
199.5	-23.72
199.719	-1.19
199.938	60.24
200.157	-1.19
200.376	72.53
200.595	33.62
200.814	88.92
201.033	-7.34
201.252	43.86
201.471	-21.67
201.69	80.72
201.909	72.53
202.128	95.06
202.347	43.86
202.566	-48.3
202.785	11.09
203.004	68.44
203.223	54.1
203.442	-19.63
203.661	23.38
203.879	31.57
204.098	-36.01
204.317	-1.19
204.536	27.48
204.755	131.92
204.974	0.85
205.193	-3.24
205.411	68.44
205.63	2.9
205.849	4.95
206.068	-9.39
206.287	37.72
206.505	-11.43
206.724	62.29
206.943	0.85
207.162	37.72
207.381	52.05
207.599	39.76
207.818	33.62
208.037	52.05
208.255	37.72
208.474	2.9
208.693	15.19
208.911	35.67
209.13	-3.24
209.349	37.72
209.567	-3.24
209.786	129.88
210.005	23.38
210.223	11.09
210.442	66.39
210.661	54.1
210.879	37.72
211.098	33.62
211.316	-9.39
211.535	9.05
211.753	35.67
211.972	58.2
212.191	21.33
212.409	90.96
212.628	-5.29
212.846	35.67
213.065	62.29
213.283	68.44
213.502	60.24
213.72	84.82
213.938	54.1
214.157	25.43
214.375	-42.15
214.594	21.33
214.812	37.72
215.031	50
215.249	76.63
215.467	13.14
215.686	29.52
215.904	80.72
216.122	111.44
216.341	45.91
216.559	9.05
216.778	93.01
216.996	9.05
217.214	50
217.432	2.9
217.651	23.38
217.869	-36.01
218.087	29.52
218.306	62.29
218.524	43.86
218.742	45.91
218.96	101.2
219.179	19.29
219.397	43.86
219.615	-5.29
219.833	19.29
220.051	60.24
220.27	123.73
220.488	0.85
220.706	76.63
220.924	39.76
221.142	-7.34
221.36	-5.29
221.578	-9.39
221.796	84.82
222.015	101.2
222.233	-70.83
222.451	60.24
222.669	-17.58
222.887	58.2
223.105	84.82
223.323	97.11
223.541	45.91
223.759	54.1
223.977	43.86
224.195	80.72
224.413	-1.19
224.631	56.15
224.849	-19.63
225.067	78.68
225.285	101.2
225.503	64.34
225.721	-9.39
225.939	58.2
226.157	111.44
226.375	4.95
226.592	31.57
226.81	43.86
227.028	29.52
227.246	84.82
227.464	35.67
227.682	64.34
227.9	80.72
228.117	54.1
228.335	74.58
228.553	60.24
228.771	80.72
228.989	88.92
229.206	-11.43
229.424	60.24
229.642	-3.24
229.86	-29.87
230.077	58.2
230.295	-1.19
230.513	-17.58
230.731	62.29
230.948	43.86
231.166	82.77
231.384	-44.2
231.601	-48.3
231.819	29.52
232.037	15.19
232.254	-5.29
232.472	68.44
232.689	13.14
232.907	33.62
233.125	70.48
233.342	-5.29
233.56	-7.34
233.777	60.24
233.995	-15.53
234.213	41.81
234.43	66.39
234.648	-48.3
234.865	86.87
235.083	70.48
235.3	-1.19
235.518	21.33
235.735	70.48
235.953	86.87
236.17	-5.29
236.388	86.87
236.605	27.48
236.822	39.76
237.04	52.05
237.257	37.72
237.475	4.95
237.692	-66.73
237.909	23.38
238.127	31.57
238.344	11.09
238.562	50
238.779	66.39
238.996	47.96
239.214	47.96
239.431	-11.43
239.648	35.67
239.865	23.38
240.083	88.92
240.3	47.96
240.517	78.68
240.735	31.57
240.952	31.57
241.169	39.76
241.386	41.81
241.603	11.09
241.821	50
242.038	101.2
242.255	31.57
242.472	7
242.689	29.52
242.907	23.38
243.124	45.91
243.341	4.95
243.558	31.57
243.775	45.91
243.992	78.68
244.209	82.77
244.426	58.2
244.643	50
244.86	33.62
245.078	23.38
245.295	-50.35
245.512	4.95
245.729	13.14
245.946	27.48
246.163	82.77
246.38	21.33
246.597	15.19
246.814	-19.63
247.031	78.68
247.248	62.29
247.464	7
247.681	50
247.898	58.2
248.115	72.53
248.332	58.2
248.549	56.15
248.766	86.87
248.983	-5.29
249.2	23.38
249.417	-1.19
249.633	39.76
249.85	13.14
250.067	13.14
250.284	47.96
250.501	97.11
250.717	138.07
250.934	11.09
251.151	35.67
251.368	35.67
251.585	29.52
251.801	2.9
252.018	43.86
252.235	35.67
252.451	23.38
252.668	47.96
252.885	60.24
253.102	43.86
253.318	62.29
253.535	15.19
253.752	70.48
253.968	-17.58
254.185	31.57
254.401	7
254.618	84.82
254.835	37.72
255.051	2.9
255.268	70.48
255.484	60.24
255.701	13.14
255.917	64.34
256.134	-7.34
256.351	39.76
256.567	45.91
256.784	-19.63
257	29.52
257.217	-23.72
257.433	56.15
257.65	72.53
257.866	60.24
258.082	31.57
258.299	7
258.515	11.09
258.732	52.05
258.948	-1.19
259.165	62.29
259.381	19.29
259.597	90.96
259.814	80.72
260.03	7
260.246	9.05
260.463	21.33
260.679	47.96
260.895	23.38
261.112	117.59
261.328	21.33
261.544	31.57
261.761	31.57
261.977	13.14
262.193	97.11
262.409	29.52
262.626	76.63
262.842	68.44
263.058	-5.29
263.274	56.15
263.49	-25.77
263.707	35.67
263.923	64.34
264.139	93.01
264.355	90.96
264.571	9.05
264.787	-11.43
265.004	76.63
265.22	-9.39
265.436	31.57
265.652	-5.29
265.868	74.58
266.084	80.72
266.3	80.72
266.516	23.38
266.732	84.82
266.948	80.72
267.164	4.95
267.38	80.72
267.596	88.92
267.812	4.95
268.028	66.39
268.244	9.05
268.46	31.57
268.676	-5.29
268.892	23.38
269.108	93.01
269.324	23.38
269.54	-1.19
269.756	41.81
269.972	41.81
270.188	125.78
270.403	47.96
270.619	76.63
270.835	68.44
271.051	-5.29
271.267	109.4
271.483	84.82
271.698	-7.34
271.914	37.72
272.13	31.57
272.346	35.67
272.562	39.76
272.777	47.96
272.993	41.81
273.209	31.57
273.425	-11.43
273.64	80.72
273.856	95.06
274.072	19.29
274.287	62.29
274.503	-1.19
274.719	70.48
274.934	-23.72
275.15	35.67
275.366	-9.39
275.581	29.52
275.797	80.72
276.012	-25.77
276.228	86.87
276.444	37.72
276.659	11.09
276.875	-23.72
277.09	60.24
277.306	144.21
277.521	39.76
277.737	50
277.952	-3.24
278.168	62.29
278.383	27.48
278.599	19.29
278.814	43.86
279.03	105.3
279.245	21.33
279.461	41.81
279.676	7
279.892	15.19
280.107	2.9
280.322	17.24
280.538	80.72
280.753	64.34
280.969	-19.63
281.184	58.2
281.399	160.59
281.615	2.9
281.83	27.48
282.045	19.29
282.26	50
282.476	37.72
282.691	62.29
282.906	9.05
283.122	66.39
283.337	64.34
283.552	93.01
283.767	86.87
283.983	99.16
284.198	74.58
284.413	15.19
284.628	17.24
284.843	117.59
285.058	-9.39
285.274	37.72
285.489	82.77
285.704	31.57
285.919	-1.19
286.134	-17.58
286.349	56.15
286.564	72.53
286.779	29.52
286.995	68.44
287.21	60.24
287.425	-25.77
287.64	33.62
287.855	21.33
288.07	72.53
288.285	129.88
288.5	35.67
288.715	78.68
288.93	11.09
289.145	113.49
289.36	4.95
289.575	-9.39
289.79	7
290.004	72.53
290.219	105.3
290.434	80.72
290.649	80.72
290.864	37.72
291.079	13.14
291.294	50
291.509	17.24
291.724	58.2
291.938	9.05
292.153	35.67
292.368	45.91
292.583	11.09
292.798	78.68
293.012	-15.53
293.227	150.36
293.442	21.33
293.657	76.63
293.871	50
294.086	19.29
294.301	31.57
294.516	33.62
294.73	70.48
294.945	0.85
295.16	39.76
295.374	29.52
295.589	-29.87
295.804	68.44
296.018	107.35
296.233	-11.43
296.447	97.11
296.662	27.48
296.877	17.24
297.091	-25.77
297.306	129.88
297.52	21.33
297.735	90.96
297.949	33.62
298.164	84.82
298.378	-19.63
298.593	15.19
298.807	2.9
299.022	84.82
299.236	43.86
299.451	52.05
299.665	109.4
299.88	66.39
300.094	37.72
300.309	39.76
300.523	60.24
300.737	37.72
300.952	58.2
301.166	-7.34
301.381	-17.58
301.595	27.48
301.809	52.05
302.024	37.72
302.238	25.43
302.452	15.19
302.667	-42.15
302.881	-11.43
303.095	29.52
303.309	-7.34
303.524	-38.06
303.738	76.63
303.952	-38.06
304.166	-44.2
304.381	21.33
304.595	78.68
304.809	35.67
305.023	23.38
305.237	7
305.452	19.29
305.666	101.2
305.88	62.29
306.094	-17.58
306.308	25.43
306.522	54.1
306.736	64.34
306.95	-15.53
307.164	27.48
307.379	52.05
307.593	21.33
307.807	113.49
308.021	43.86
308.235	133.97
308.449	-7.34
308.663	64.34
308.877	113.49
309.091	62.29
309.305	-3.24
309.519	31.57
309.733	21.33
309.947	-1.19
310.161	33.62
310.374	19.29
310.588	80.72
310.802	39.76
311.016	-40.11
311.23	160.59
311.444	88.92
311.658	25.43
311.872	60.24
312.085	58.2
312.299	54.1
312.513	45.91
312.727	47.96
312.941	52.05
313.154	37.72
313.368	93.01
313.582	84.82
313.796	99.16
314.009	70.48
314.223	-3.24
314.437	76.63
314.651	109.4
314.864	41.81
315.078	37.72
315.292	39.76
315.505	84.82
315.719	113.49
315.933	115.54
316.146	72.53
316.36	45.91
316.573	76.63
316.787	58.2
317.001	43.86
317.214	76.63
317.428	58.2
317.641	29.52
317.855	21.33
318.068	23.38
318.282	45.91
318.495	43.86
318.709	121.68
318.922	2.9
319.136	31.57
319.349	-11.43
319.563	4.95
319.776	25.43
319.99	72.53
320.203	21.33
320.417	41.81
320.63	50
320.843	27.48
321.057	82.77
321.27	68.44
321.483	37.72
321.697	70.48
321.91	-31.91
322.124	86.87
322.337	31.57
322.55	11.09
322.763	29.52
322.977	70.48
323.19	25.43
323.403	70.48
323.617	-60.59
323.83	19.29
324.043	103.25
324.256	35.67
324.469	99.16
324.683	105.3
324.896	90.96
325.109	35.67
325.322	50
325.535	97.11
325.748	-21.67
325.962	23.38
326.175	60.24
326.388	54.1
326.601	84.82
326.814	15.19
327.027	15.19
327.24	68.44
327.453	11.09
327.666	54.1
327.879	76.63
328.092	76.63
328.305	25.43
328.518	58.2
328.731	27.48
328.944	45.91
329.157	27.48
329.37	27.48
329.583	-40.11
329.796	33.62
330.009	-25.77
330.222	68.44
330.435	-17.58
330.648	80.72
330.861	-19.63
331.073	88.92
331.286	23.38
331.499	25.43
331.712	27.48
331.925	25.43
332.138	52.05
332.35	142.16
332.563	52.05
332.776	119.64
332.989	29.52
333.202	21.33
333.414	43.86
333.627	13.14
333.84	35.67
334.053	76.63
334.265	29.52
334.478	-1.19
334.691	25.43
334.903	76.63
335.116	-1.19
335.329	19.29
335.541	86.87
335.754	66.39
335.966	-38.06
336.179	43.86
336.392	19.29
336.604	43.86
336.817	39.76
337.029	60.24
337.242	129.88
337.454	144.21
337.667	13.14
337.88	101.2
338.092	7
338.305	37.72
338.517	60.24
338.729	82.77
338.942	107.35
339.154	95.06
339.367	109.4
339.579	-3.24
339.792	21.33
340.004	0.85
340.217	-3.24
340.429	27.48
340.641	58.2
340.854	0.85
341.066	37.72
341.278	80.72
341.491	125.78
341.703	54.1
341.915	93.01
342.128	64.34
342.34	35.67
342.552	35.67
342.764	33.62
342.977	76.63
343.189	29.52
343.401	56.15
343.613	19.29
343.826	11.09
344.038	50
344.25	80.72
344.462	58.2
344.674	39.76
344.886	78.68
345.099	111.44
345.311	29.52
345.523	80.72
345.735	50
345.947	123.73
346.159	-17.58
346.371	25.43
346.583	103.25
346.795	64.34
347.007	45.91
347.219	15.19
347.431	97.11
347.643	70.48
347.855	31.57
348.067	56.15
348.279	41.81
348.491	52.05
348.703	39.76
348.915	-27.82
349.127	35.67
349.339	54.1
349.551	21.33
349.763	60.24
349.975	9.05
350.187	70.48
350.399	13.14
350.61	41.81
350.822	50
351.034	31.57
351.246	52.05
351.458	117.59
351.669	7
351.881	31.57
352.093	84.82
352.305	47.96
352.517	39.76
352.728	64.34
352.94	78.68
353.152	35.67
353.363	27.48
353.575	-25.77
353.787	119.64
353.999	90.96
354.21	19.29
354.422	80.72
354.633	-25.77
354.845	70.48
355.057	72.53
355.268	-3.24
355.48	80.72
355.692	35.67
355.903	7
356.115	84.82
356.326	45.91
356.538	99.16
356.749	97.11
356.961	80.72
357.172	19.29
357.384	56.15
357.595	86.87
357.807	80.72
358.018	0.85
358.23	54.1
358.441	-5.29
358.653	50
358.864	76.63
359.075	78.68
359.287	60.24
359.498	117.59
359.709	13.14
359.921	64.34
360.132	25.43
360.344	43.86
360.555	25.43
360.766	88.92
360.977	15.19
361.189	88.92
361.4	78.68
361.611	90.96
361.823	62.29
362.034	29.52
362.245	-13.48
362.456	68.44
362.667	64.34
362.879	2.9
363.09	11.09
363.301	25.43
363.512	23.38
363.723	62.29
363.935	2.9
364.146	50
364.357	58.2
364.568	58.2
364.779	78.68
364.99	31.57
365.201	70.48
365.412	105.3
365.623	66.39
365.834	74.58
366.045	7
366.256	82.77
366.467	74.58
366.678	111.44
366.889	54.1
367.1	72.53
367.311	80.72
367.522	74.58
367.733	-5.29
367.944	-7.34
368.155	54.1
368.366	39.76
368.577	90.96
368.788	68.44
368.999	86.87
369.209	70.48
369.42	103.25
369.631	125.78
369.842	35.67
370.053	17.24
370.264	64.34
370.474	-15.53
370.685	78.68
370.896	68.44
371.107	103.25
371.317	84.82
371.528	101.2
371.739	33.62
371.95	54.1
372.16	101.2
372.371	54.1
372.582	95.06
372.792	103.25
373.003	107.35
373.214	17.24
373.424	-38.06
373.635	84.82
373.846	68.44
374.056	64.34
374.267	99.16
374.477	37.72
374.688	66.39
374.898	29.52
375.109	50
375.319	39.76
375.53	121.68
375.74	7
375.951	43.86
376.161	39.76
376.372	80.72
376.582	70.48
376.793	113.49
377.003	27.48
377.214	99.16
377.424	7
377.635	43.86
377.845	39.76
378.055	115.54
378.266	31.57
378.476	37.72
378.686	105.3
378.897	105.3
379.107	50
379.317	93.01
379.528	72.53
379.738	88.92
379.948	109.4
380.158	43.86
380.369	37.72
380.579	31.57
380.789	45.91
380.999	33.62
381.21	84.82
381.42	60.24
381.63	47.96
381.84	31.57
382.05	27.48
382.261	52.05
382.471	86.87
382.681	13.14
382.891	35.67
383.101	50
383.311	56.15
383.521	19.29
383.731	58.2
383.941	76.63
384.151	82.77
384.361	56.15
384.571	70.48
384.781	64.34
384.991	82.77
385.201	60.24
385.411	19.29
385.621	9.05
385.831	4.95
386.041	97.11
386.251	95.06
386.461	68.44
386.671	-5.29
386.881	172.88
387.091	66.39
387.301	97.11
387.511	58.2
387.72	105.3
387.93	62.29
388.14	37.72
388.35	84.82
388.56	133.97
388.769	60.24
388.979	133.97
389.189	43.86
389.399	9.05
389.609	84.82
389.818	119.64
390.028	-5.29
390.238	54.1
390.447	9.05
390.657	88.92
390.867	58.2
391.076	52.05
391.286	-15.53
391.496	66.39
391.705	37.72
391.915	56.15
392.125	66.39
392.334	60.24
392.544	58.2
392.753	66.39
392.963	78.68
393.172	58.2
393.382	39.76
393.591	121.68
393.801	90.96
394.01	119.64
394.22	45.91
394.429	76.63
394.639	160.59
394.848	88.92
395.058	84.82
395.267	56.15
395.477	127.83
395.686	189.27
395.895	105.3
396.105	150.36
396.314	121.68
396.524	84.82
396.733	97.11
396.942	123.73
397.152	41.81
397.361	211.79
397.57	80.72
397.78	105.3
397.989	86.87
398.198	117.59
398.407	70.48
398.617	93.01
398.826	136.02
399.035	170.83
399.244	103.25
399.453	97.11
399.663	162.64
399.872	146.26
400.081	19.29
400.29	103.25
400.499	127.83
400.708	154.45
400.917	162.64
401.127	162.64
401.336	117.59
401.545	142.16
401.754	109.4
401.963	152.4
402.172	78.68
402.381	136.02
402.59	142.16
402.799	181.07
403.008	111.44
403.217	224.08
403.426	183.12
403.635	76.63
403.844	138.07
404.053	117.59
404.262	193.36
404.471	217.94
404.68	125.78
404.888	133.97
405.097	107.35
405.306	162.64
405.515	129.88
405.724	203.6
405.933	172.88
406.142	189.27
406.35	203.6
406.559	84.82
406.768	191.31
406.977	316.24
407.185	238.42
407.394	234.32
407.603	207.7
407.812	207.7
408.02	252.75
408.229	260.95
408.438	299.86
408.646	254.8
408.855	303.95
409.064	295.76
409.272	285.52
409.481	254.8
409.69	246.61
409.898	258.9
410.107	289.62
410.315	367.44
410.524	377.68
410.733	338.77
410.941	330.58
411.15	371.54
411.358	447.31
411.567	430.93
411.775	459.6
411.984	471.89
412.192	389.97
412.401	484.17
412.609	412.5
412.818	490.32
413.026	463.69
413.234	527.18
413.443	559.95
413.651	607.05
413.86	627.53
414.068	617.29
414.276	639.82
414.485	629.58
414.693	707.4
414.901	766.79
415.11	803.66
415.318	703.31
415.526	742.22
415.734	748.36
415.943	777.03
416.151	789.32
416.359	949.06
416.567	877.38
416.776	1018.69
416.984	990.02
417.192	971.59
417.4	1022.79
417.608	1049.41
417.817	1063.75
418.025	1069.89
418.233	1258.31
418.441	1168.2
418.649	1284.93
418.857	1276.74
419.065	1295.17
419.273	1301.31
419.481	1510.21
419.689	1483.58
419.897	1555.26
420.105	1602.36
420.313	1639.23
420.521	1852.22
420.729	1764.15
420.937	1833.79
421.145	1925.94
421.353	1948.47
421.561	2114.36
421.769	2048.82
421.977	2216.76
422.185	2288.43
422.393	2251.57
422.601	2423.6
422.809	2362.16
423.017	2491.18
423.224	2528.05
423.432	2521.9
423.64	2698.03
423.848	2790.19
424.056	2888.49
424.263	2931.5
424.471	3031.85
424.679	2970.41
424.887	3293.99
425.094	3408.67
425.302	3353.38
425.51	3521.31
425.718	3472.16
425.925	3642.14
426.133	3701.53
426.341	3975.96
426.548	4131.61
426.756	4193.05
426.964	4113.17
427.171	4371.22
427.379	4485.9
427.586	4473.62
427.794	4719.37
428.001	4854.54
428.209	5061.38
428.417	5192.45
428.624	5487.36
428.832	5405.44
429.039	5491.46
429.247	5511.94
429.454	5939.96
429.662	6329.08
429.869	5978.87
430.076	6318.84
430.284	6429.43
430.491	6501.11
430.699	6734.57
430.906	6621.94
431.114	6982.38
431.321	7244.52
431.528	7203.56
431.736	7733.98
431.943	8045.27
432.15	7738.08
432.358	7994.08
432.565	8456.92
432.772	8262.36
432.979	8547.03
433.187	8886.99
433.394	8872.65
433.601	9540.29
433.808	9681.6
434.016	9695.94
434.223	9908.93
434.43	10670.77
434.637	10304.18
434.844	11066.03
435.052	11340.46
435.259	11008.69
435.466	11127.47
435.673	11395.75
435.88	12008.09
436.087	12356.25
436.294	12675.73
436.501	12200.6
436.708	12659.35
436.915	12810.9
437.122	13591.17
437.329	13496.97
437.537	13890.18
437.743	14070.4
437.95	14080.64
438.157	14905.97
438.364	15272.56
438.571	15239.79
438.778	15387.24
438.985	16585.3
439.192	16208.48
439.399	16726.61
439.606	16476.76
439.813	17078.86
440.02	18119.23
440.227	17979.97
440.433	17490.51
440.64	18356.8
440.847	18242.11
441.054	18723.38
441.261	19788.33
441.467	19487.28
441.674	19886.63
441.881	20617.75
442.088	20636.19
442.294	20437.53
442.501	21023.25
442.708	21103.12
442.914	22321.66
443.121	22991.35
443.328	22477.31
443.534	24224.23
443.741	23568.88
443.948	23484.91
444.154	25035.22
444.361	24717.79
444.568	24977.88
444.774	24881.63
444.981	25225.68
445.187	26104.26
445.394	26960.31
445.6	26692.03
445.807	29161.88
446.013	27994.54
446.22	28617.12
446.426	29905.29
446.633	29710.74
446.839	30904.7
447.046	29637.01
447.252	31781.23
447.459	31531.38
447.665	31023.48
447.871	32731.49
448.078	34093.39
448.284	31889.77
448.491	33014.11
448.697	34365.77
448.903	35139.9
449.11	35365.18
449.316	34388.3
449.522	34904.38
449.728	36276.52
449.935	36401.45
450.141	36282.67
450.347	37181.73
450.553	35836.21
450.76	36180.27
450.966	37679.38
451.172	36831.52
451.378	37718.29
451.584	36733.22
451.791	38297.87
451.997	38109.46
452.203	38572.3
452.409	38572.3
452.615	38158.61
452.821	36376.87
453.027	36219.18
453.233	38635.78
453.44	37044.51
453.646	36981.03
453.852	37171.49
454.058	37736.73
454.264	36548.9
454.47	37069.09
454.676	36583.72
454.882	37863.7
455.088	34570.57
455.294	34859.33
455.5	35506.49
455.705	35555.64
455.911	34234.7
456.117	33599.83
456.323	33190.23
456.529	31320.44
456.735	32911.71
456.941	31711.6
457.147	31347.06
457.352	30306.69
457.558	30013.84
457.764	30105.99
457.97	29694.35
458.176	29045.15
458.381	28914.08
458.587	27693.49
458.793	27648.43
458.999	25924.04
459.204	27732.4
459.41	26911.16
459.616	25151.96
459.821	25469.39
460.027	25268.69
460.233	24588.77
460.438	23757.29
460.644	23777.77
460.85	22528.51
461.055	22295.04
461.261	22346.24
461.466	20865.56
461.672	20181.54
461.878	21731.85
462.083	20068.9
462.289	19937.83
462.494	19194.42
462.7	18795.06
462.905	18158.14
463.111	18944.56
463.316	18700.86
463.522	18375.23
463.727	18715.19
463.932	18457.15
464.138	18364.99
464.343	18272.83
464.549	17898.05
464.754	18485.82
464.959	18293.31
465.165	18201.15
465.37	17445.45
465.575	17005.14
465.781	17697.35
465.986	17910.34
466.191	17400.4
466.397	16654.94
466.602	15903.33
466.807	16550.49
467.012	16325.21
467.218	16487
467.423	16380.51
467.628	16409.18
467.833	17128.02
468.038	16278.11
468.244	16128.61
468.449	16990.8
468.654	16243.29
468.859	15866.47
469.064	16024.16
469.269	15372.91
469.474	15637.09
469.679	15501.93
469.885	15133.29
470.09	15549.03
470.295	15229.55
470.5	14791.28
470.705	14840.43
470.91	14735.99
471.115	14652.02
471.32	14770.8
471.525	14785.14
471.73	14183.04
471.935	14176.89
472.139	13838.98
472.344	13982.34
472.549	13810.31
472.754	13634.18
472.959	13232.78
473.164	12989.07
473.369	13007.5
473.574	13433.48
473.778	13144.72
473.983	12999.31
474.188	13122.19
474.393	12219.03
474.598	12534.42
474.802	12360.34
475.007	12300.95
475.212	12116.64
475.417	11981.47
475.621	12034.72
475.826	12147.36
476.031	11713.19
476.235	11348.65
476.44	11664.04
476.645	11666.08
476.849	11618.98
477.054	11555.49
477.259	11117.23
477.463	11240.11
477.668	10922.67
477.872	10971.82
478.077	10738.35
478.282	10558.13
478.486	10447.54
478.691	10513.08
478.895	10255.03
479.1	10234.55
479.304	10527.41
479.509	10291.9
479.713	10201.79
479.918	10119.87
480.122	9900.73
480.326	10105.53
480.531	10164.92
480.735	10042.04
480.94	9880.25
481.144	10232.51
481.348	9689.79
481.553	9849.54
481.757	9597.63
481.961	9700.03
482.166	10107.58
482.37	9749.18
482.574	9673.41
482.778	9509.57
482.983	9763.52
483.187	9757.38
483.391	9673.41
483.595	9550.53
483.8	9536.2
484.004	9814.72
484.208	9777.86
484.412	9540.29
484.616	9517.76
484.821	9646.79
485.025	9489.09
485.229	9614.02
485.433	9700.03
485.637	9691.84
485.841	9583.3
486.045	9589.44
486.249	9564.87
486.453	9661.12
486.657	9689.79
486.861	9609.92
487.065	9306.82
487.269	9601.73
487.473	9595.59
487.677	9628.35
487.881	9806.53
488.085	9620.16
488.289	9577.16
488.493	9616.07
488.697	9599.68
488.901	9634.5
489.105	9476.8
489.309	9665.22
489.512	9652.93
489.716	9673.41
489.92	9851.58
490.124	9824.96
490.328	9685.7
490.531	9745.09
490.735	9810.62
490.939	9808.58
491.143	9757.38
491.346	9845.44
491.55	10197.69
491.754	10050.24
491.958	10037.95
492.161	10130.11
492.365	10273.46
492.569	10353.34
492.772	10406.58
492.976	10300.09
493.18	10416.82
493.383	10459.83
493.587	10441.4
493.79	10549.94
493.994	10523.32
494.197	10580.66
494.401	10566.32
494.605	10744.5
494.808	10883.76
495.012	11080.36
495.215	11016.88
495.419	11055.79
495.622	11182.76
495.825	11295.4
496.029	11369.13
496.232	11717.28
496.436	11588.26
496.639	11786.91
496.843	11664.04
497.046	12104.35
497.249	12057.25
497.453	12227.23
497.656	12389.02
497.859	12407.45
498.063	12470.94
498.266	12448.41
498.469	12862.1
498.673	12919.44
498.876	12872.34
499.079	13040.27
499.282	13200.01
499.485	13511.3
499.689	13507.21
499.892	13738.63
500.095	13795.97
500.298	14297.72
500.501	13972.1
500.705	14461.56
500.908	14518.9
501.111	14590.58
501.314	14744.18
501.517	14979.7
501.72	15250.03
501.923	15229.55
502.126	15557.22
502.329	15751.78
502.532	16063.07
502.735	15907.43
502.938	16288.35
503.141	16523.87
503.344	16912.98
503.547	16611.93
503.75	17017.43
503.953	17291.85
504.156	17439.31
504.359	17613.38
504.562	17996.35
504.765	18405.95
504.968	18569.79
505.17	18569.79
505.373	18670.14
505.576	19096.11
505.779	19257.9
505.982	19472.94
506.185	19632.68
506.387	19878.44
506.59	19864.1
506.793	20480.54
506.996	20290.08
507.198	20810.26
507.401	21039.64
507.604	21051.92
507.807	21385.74
508.009	21776.91
508.212	22102.53
508.415	22321.66
508.617	22450.69
508.82	22809.08
509.022	22440.45
509.225	23333.36
509.428	23101.94
509.63	23589.36
509.833	23630.32
510.035	24433.12
510.238	24041.96
510.44	24629.73
510.643	24957.4
510.845	25205.2
511.048	25342.42
511.25	25790.92
511.453	26008.01
511.655	26677.69
511.858	26374.59
512.06	27038.14
512.262	27058.62
512.465	27236.79
512.667	27904.43
512.87	28082.6
513.072	27851.18
513.274	28613.02
513.477	29032.86
513.679	29434.26
513.881	29587.86
514.084	30019.98
514.286	29866.38
514.488	30173.58
514.69	30865.79
514.893	31611.25
515.095	31256.95
515.297	31730.03
515.499	31945.07
515.701	32199.02
515.904	32627.04
516.106	32694.63
516.308	33448.28
516.51	33784.15
516.712	33722.71
516.914	34480.46
517.116	34885.95
517.318	34705.73
517.52	34836.8
517.722	35477.82
517.925	35637.56
518.127	36393.26
518.329	36256.04
518.531	36538.66
518.733	37253.4
518.935	37505.31
519.136	37196.06
519.338	38121.74
519.54	38695.17
519.742	38762.76
519.944	38942.98
520.146	39813.37
520.348	39651.58
520.55	39772.41
520.752	40380.65
520.954	41140.45
521.155	40335.6
521.357	41365.73
521.559	41523.42
521.761	42297.55
521.963	42078.42
522.164	42664.14
522.366	42913.99
522.568	43204.8
522.77	43139.27
522.971	44138.68
523.173	43864.25
523.375	44409.01
523.576	44097.72
523.778	44513.45
523.98	45072.55
524.181	44931.24
524.383	45465.76
524.584	45441.18
524.786	46000.28
524.988	46188.69
525.189	46121.11
525.391	47009.93
525.592	47083.65
525.794	46837.9
525.995	47036.55
526.197	47368.32
526.398	47825.02
526.6	47661.18
526.801	47845.5
527.003	48394.35
527.204	48244.85
527.406	48619.63
527.607	48312.44
527.808	48980.07
528.01	48265.33
528.211	48939.11
528.412	49467.49
528.614	49475.68
528.815	49322.08
529.016	49805.41
529.218	49430.63
529.419	49713.25
529.62	49664.1
529.822	49533.03
530.023	50260.05
530.224	50282.58
530.425	50317.4
530.626	50188.38
530.828	49866.84
531.029	51079.24
531.23	50364.5
531.431	50716.75
531.632	50884.68
531.833	50964.56
532.035	50823.25
532.236	50962.51
532.437	51292.23
532.638	50694.22
532.839	51019.85
533.04	51486.79
533.241	50835.53
533.442	51447.88
533.643	50845.77
533.844	50884.68
534.045	51474.5
534.246	50962.51
534.447	51302.47
534.648	51212.36
534.849	51566.66
535.05	51286.09
535.251	51343.43
535.451	51277.89
535.652	51562.56
535.853	51179.59
536.054	51210.31
536.255	51810.37
536.456	51187.78
536.657	51777.6
536.857	51486.79
537.058	51357.77
537.259	51843.13
537.46	51548.23
537.66	51322.95
537.861	51730.5
538.062	51531.84
538.263	51918.91
538.463	50892.88
538.664	51329.09
538.865	51617.86
539.065	52207.67
539.266	51054.67
539.466	51748.93
539.667	51177.54
539.868	52248.63
540.068	51902.53
540.269	51517.51
540.469	51380.29
540.67	51560.51
540.87	51347.53
541.071	51517.51
541.271	51497.03
541.472	51499.08
541.672	51429.44
541.873	51339.33
542.073	50726.99
542.274	51728.45
542.474	51736.64
542.675	50767.95
542.875	51454.02
543.075	51646.53
543.276	51103.82
543.476	51847.23
543.676	50864.21
543.877	51777.6
544.077	51476.55
544.277	51361.86
544.478	51591.23
544.678	51380.29
544.878	51431.49
545.078	51513.41
545.279	50970.7
545.479	51064.91
545.679	51052.62
545.879	51849.28
546.079	51689.54
546.28	51329.09
546.48	50976.84
546.68	51105.87
546.88	51437.64
547.08	51531.84
547.28	51349.57
547.48	50903.12
547.68	51177.54
547.88	50870.35
548.081	51503.17
548.281	51693.63
548.481	50874.45
548.681	51740.74
548.881	50946.12
549.081	50784.33
549.28	50778.19
549.48	51042.38
549.68	51273.8
549.88	51740.74
550.08	51048.52
550.28	51007.56
550.48	50798.67
550.68	51605.57
550.88	50628.69
551.08	50882.64
551.279	50821.2
551.479	51054.67
551.679	51173.45
551.879	50632.78
552.079	51302.47
552.278	50749.52
552.478	51195.98
552.678	51056.71
552.878	51181.64
553.077	50516.05
553.277	50753.61
553.477	51429.44
553.676	50612.31
553.876	50704.46
554.076	50557.01
554.275	50352.21
554.475	50081.88
554.674	50772.05
554.874	50481.24
555.074	50468.95
555.273	50579.54
555.473	50774.09
555.672	49973.34
555.872	50331.73
556.071	50165.85
556.271	50737.23
556.47	50411.6
556.67	50286.68
556.869	49967.19
557.068	50346.07
557.268	49412.2
557.467	50030.68
557.667	49866.84
557.866	49995.87
558.065	49959
558.265	49467.49
558.464	49502.31
558.663	50018.39
558.863	49197.16
559.062	49698.91
559.261	49199.21
559.461	50016.35
559.66	48967.79
559.859	49549.41
560.058	49156.2
560.258	49270.89
560.457	48803.95
560.656	49471.59
560.855	48808.04
561.054	49143.91
561.253	48418.93
561.453	48902.25
561.652	49152.1
561.851	49256.55
562.05	48361.59
562.249	48240.76
562.448	49037.42
562.647	48593.01
562.846	48492.66
563.045	48326.77
563.244	47863.93
563.443	48468.08
563.642	47870.07
563.841	48160.89
564.04	48259.19
564.239	48590.96
564.438	47593.6
564.637	47827.07
564.836	48416.88
565.035	47270.02
565.234	47583.36
565.432	47329.41
565.631	47364.23
565.83	48099.45
566.029	47267.97
566.228	47657.09
566.427	47616.13
566.625	47124.61
566.824	46321.81
567.023	47089.8
567.222	46172.31
567.42	47272.07
567.619	46729.36
567.818	46667.92
568.016	46629.01
568.215	46676.11
568.414	46241.94
568.612	46821.51
568.811	46041.24
569.01	46200.98
569.208	46092.44
569.407	46268.56
569.605	45676.7
569.804	46391.44
570.002	45293.73
570.201	46102.68
570.4	45695.13
570.598	45119.65
570.797	45654.17
570.995	45592.73
571.193	44769.45
571.392	45285.54
571.59	44667.05
571.789	44873.9
571.987	44187.83
572.186	44916.9
572.384	44433.58
572.582	44742.83
572.781	44411.06
572.979	43546.81
573.177	44224.69
573.376	44202.16
573.574	43931.83
573.772	43632.83
573.971	43696.31
574.169	43745.47
574.367	43028.68
574.565	43714.75
574.763	43491.52
574.962	43153.6
575.16	42705.1
575.358	43137.22
575.556	42696.91
575.754	43034.82
575.952	42430.67
576.151	43088.07
576.349	42358.99
576.547	42320.08
576.745	42264.78
576.943	42098.9
577.141	41836.76
577.339	42029.27
577.537	41758.94
577.735	41369.82
577.933	41459.93
578.131	41789.66
578.329	41038.05
578.527	41171.17
578.725	41111.78
578.923	41509.08
579.121	40911.08
579.319	40628.46
579.516	40706.28
579.714	40577.26
579.912	40450.28
580.11	40194.29
580.308	40055.03
580.506	39936.24
580.704	39813.37
580.901	40304.88
581.099	40055.03
581.297	39641.34
581.495	39557.37
581.692	39991.54
581.89	39483.64
582.088	39366.91
582.285	39100.67
582.483	39590.14
582.681	39350.52
582.878	38777.09
583.076	38668.55
583.274	39233.79
583.471	38504.71
583.669	38793.48
583.866	38172.94
584.064	38668.55
584.262	38013.2
584.459	38234.38
584.657	38043.92
584.854	38588.68
585.052	37392.67
585.249	38195.47
585.447	37818.64
585.644	37574.94
585.841	37495.07
586.039	37933.33
586.236	37175.58
586.434	36944.16
586.631	36958.5
586.828	37228.83
587.026	36933.92
587.223	36786.47
587.42	36327.72
587.618	36397.35
587.815	36333.87
588.012	36145.45
588.21	36215.08
588.407	36608.29
588.604	35791.16
588.801	35967.28
588.999	35750.2
589.196	35893.55
589.393	35901.75
589.59	35561.78
589.787	35361.08
589.984	35289.4
590.182	34824.51
590.379	35557.69
590.576	35189.05
590.773	34652.48
590.97	35000.64
591.167	34603.33
591.364	34576.71
591.561	34435.4
591.758	34365.77
591.955	34265.42
592.152	34589
592.349	33993.04
592.546	34300.23
592.743	34326.86
592.94	33734.99
593.137	33841.49
593.334	33808.72
593.531	33493.33
593.727	33982.8
593.924	33818.96
594.121	33190.23
594.318	33509.72
594.515	33231.19
594.712	33245.53
594.908	32964.96
595.105	33306.97
595.302	32708.96
595.499	32682.34
595.696	32690.53
595.892	32219.5
596.089	32684.39
596.286	32889.18
596.482	31932.78
596.679	32422.25
596.876	31924.59
597.072	31814
597.269	32086.38
597.466	31857.01
597.662	31605.11
597.859	31891.82
598.055	31787.38
598.252	31240.57
598.448	31474.04
598.645	31496.56
598.841	31011.2
599.038	31013.24
599.234	31394.17
599.431	30837.12
599.627	30802.3
599.824	30765.44
600.02	30628.23
600.217	30693.76
600.413	30255.5
600.609	30304.65
600.806	30091.66
601.002	30529.92
601.198	29903.25
601.395	29923.72
601.591	29780.37
601.787	29936.01
601.984	29663.63
602.18	29915.53
602.376	29559.19
602.572	29675.92
602.769	29338.01
602.965	29639.06
603.161	29333.91
603.357	29030.81
603.553	28932.51
603.75	28791.2
603.946	28604.83
604.142	28701.09
604.338	28510.63
604.534	28737.95
604.73	28092.84
604.926	28074.41
605.122	28477.86
605.318	28066.22
605.514	28215.72
605.71	27818.41
605.906	28015.02
606.102	27709.87
606.298	27761.07
606.494	27589.04
606.69	27787.69
606.886	27875.76
607.082	27277.75
607.278	27873.71
607.474	26939.83
607.67	27349.43
607.866	27046.33
608.062	27552.18
608.257	26839.48
608.453	26894.78
608.649	26986.94
608.845	26911.16
609.041	26679.74
609.236	26708.41
609.432	26896.83
609.628	26651.07
609.824	26347.97
610.019	26278.34
610.215	26325.44
610.411	26325.44
610.606	25975.24
610.802	26051.02
610.998	26057.16
611.193	26214.85
611.389	25917.9
611.584	25666
611.78	25682.38
611.976	25803.21
612.171	25803.21
612.367	25795.02
612.562	25502.16
612.758	25424.34
612.953	25350.61
613.149	25752.01
613.344	25014.74
613.539	25299.41
613.735	25485.78
613.93	25188.82
614.126	24938.97
614.321	25313.75
614.517	24889.82
614.712	24811.99
614.907	24764.89
615.103	25082.33
615.298	24515.04
615.493	24842.71
615.688	24295.91
615.884	24666.59
616.079	24496.61
616.274	24719.84
616.47	24537.57
616.665	24308.19
616.86	24259.04
617.055	24189.41
617.25	24082.92
617.445	24211.94
617.641	23407.09
617.836	23923.18
618.031	23646.7
618.226	24127.97
618.421	23642.6
618.616	23734.76
618.811	23491.05
619.006	23861.74
619.201	23173.62
619.396	23480.82
619.591	22782.46
619.786	23366.13
619.981	22585.85
620.176	23126.52
620.371	22559.23
620.566	22508.03
620.761	22809.08
620.956	22794.75
621.151	22235.65
621.346	22428.16
621.541	22045.19
621.735	22395.39
621.93	21680.65
622.125	21934.6
622.32	21209.62
622.515	21725.71
622.709	21283.34
622.904	21195.28
623.099	21516.81
623.294	21457.42
623.488	21142.03
623.683	21107.22
623.878	20752.92
624.072	20742.68
624.267	20636.19
624.462	20660.76
624.656	20351.52
624.851	20347.42
625.046	20316.7
625.24	20034.08
625.435	19769.9
625.629	19880.49
625.824	19759.66
626.018	19700.26
626.213	19501.61
626.407	19522.09
626.602	19112.5
626.796	19372.59
626.991	19196.46
627.185	18979.38
627.38	18870.84
627.574	18700.86
627.768	18735.67
627.963	18549.31
628.157	18473.53
628.352	18293.31
628.546	18203.2
628.74	18283.07
628.935	18184.77
629.129	18141.76
629.323	17564.23
629.517	17717.83
629.712	17728.07
629.906	17893.96
630.1	17570.38
630.294	17291.85
630.489	17328.72
630.683	17300.05
630.877	17140.3
631.071	17037.91
631.265	17044.05
631.459	16878.16
631.653	16722.52
631.848	16771.67
632.042	16659.03
632.236	16745.05
632.43	16548.44
632.624	16386.65
632.818	16413.27
633.012	16292.44
633.206	15856.23
633.4	15958.63
633.594	15850.08
633.788	15946.34
633.982	15837.8
634.176	15751.78
634.369	15794.79
634.563	15501.93
634.757	15661.67
634.951	15555.18
635.145	15340.14
635.339	15395.43
635.533	15211.12
635.726	15262.32
635.92	14973.55
636.114	14922.35
636.308	14713.46
636.501	14961.27
636.695	14697.08
636.889	14766.71
637.083	14559.86
637.276	14510.71
637.47	14576.25
637.664	14322.3
637.857	14346.87
638.051	14316.15
638.244	14047.87
638.438	14119.55
638.632	14021.25
638.825	13906.56
639.019	13935.23
639.212	13601.41
639.406	13556.36
639.599	13679.24
639.793	13539.97
639.986	13359.75
640.18	13306.51
640.373	13175.44
640.567	13111.95
640.76	13134.48
640.954	12931.73
641.147	13025.93
641.34	12999.31
641.534	13038.22
641.727	12901.01
641.92	12798.61
642.114	12755.6
642.307	12724.88
642.5	12655.25
642.694	12593.81
642.887	12241.56
643.08	12450.46
643.273	12450.46
643.467	12094.11
643.66	12108.44
643.853	11917.98
644.046	11762.34
644.239	11991.71
644.432	11793.06
644.626	11842.21
644.819	11657.89
645.012	11881.12
645.205	11645.6
645.398	11635.36
645.591	11500.2
645.784	11360.94
645.977	11295.4
646.17	11240.11
646.363	10965.68
646.556	11119.28
646.749	10982.06
646.942	10949.29
647.135	10769.07
647.328	10943.15
647.521	10758.83
647.714	10609.33
647.907	10588.85
648.099	10713.78
648.292	10625.72
648.485	10412.73
648.678	10476.21
648.871	10316.47
649.064	10054.33
649.256	10269.37
649.449	10183.35
649.642	10101.44
649.835	10027.71
650.027	9882.3
650.22	9929.41
650.413	10005.18
650.605	9837.25
650.798	9732.8
650.991	9622.21
651.183	9558.72
651.376	9634.5
651.568	9593.54
651.761	9671.36
651.954	9310.92
652.146	9423.56
652.339	9220.81
652.531	9272.01
652.724	9267.91
652.916	9018.06
653.109	8956.62
653.301	9136.84
653.494	8882.89
653.686	8848.08
653.879	8913.61
654.071	8880.85
654.263	8841.93
654.456	8897.23
654.648	8606.42
654.84	8405.72
655.033	8809.17
655.225	8571.6
655.417	8508.12
655.61	8336.09
655.802	8262.36
655.994	8151.77
656.186	8186.58
656.379	8194.78
656.571	8217.3
656.763	7985.88
656.955	7850.72
657.148	8135.39
657.34	7926.49
657.532	7863.01
657.724	7951.07
657.916	7850.72
658.108	7799.52
658.3	7660.26
658.492	7779.04
658.684	7594.72
658.876	7711.46
659.068	7432.93
659.26	7412.45
659.452	7615.2
659.644	7428.84
659.836	7355.11
660.028	7320.29
660.22	7125.74
660.412	7183.08
660.604	7172.84
660.796	7129.83
660.988	7254.76
661.18	6933.23
661.372	6849.26
661.563	7099.11
661.755	6693.62
661.947	6818.54
662.139	6718.19
662.331	6750.96
662.522	6699.76
662.714	6621.94
662.906	6675.18
663.097	6523.63
663.289	6413.04
663.481	6580.98
663.673	6449.91
663.864	6626.03
664.056	6425.33
664.247	6460.15
664.439	6247.16
664.631	6304.5
664.822	6273.78
665.014	6167.29
665.205	6107.9
665.397	5995.26
665.588	6052.6
665.78	6068.98
665.971	5950.2
666.163	5995.26
666.354	6003.45
666.546	6083.32
666.737	5880.57
666.929	5790.46
667.12	5663.49
667.311	5769.98
667.503	5681.92
667.694	5802.75
667.885	5753.6
668.077	5624.58
668.268	5591.81
668.459	5634.82
668.651	5645.06
668.842	5452.55
669.033	5518.08
669.224	5575.42
669.416	5348.1
669.607	5421.83
669.798	5374.72
669.989	5309.19
670.18	5167.88
670.371	5253.89
670.563	5352.2
670.754	5161.73
670.945	5354.24
671.136	5196.55
671.327	5206.79
671.518	5141.25
671.709	5098.25
671.9	5059.34
672.091	5051.14
672.282	5067.53
672.473	4946.7
672.664	5200.65
672.855	4975.37
673.046	4936.46
673.237	5075.72
673.428	4903.69
673.619	4823.82
673.809	4997.9
674	4758.28
674.191	4780.81
674.382	4913.93
674.573	4598.54
674.764	4819.72
674.954	4705.04
675.145	4819.72
675.336	4698.89
675.527	4672.27
675.717	4764.43
675.908	4760.33
676.099	4623.12
676.289	4608.78
676.48	4602.64
676.671	4463.38
676.861	4533.01
677.052	4610.83
677.243	4418.32
677.433	4426.51
677.624	4463.38
677.814	4401.94
678.005	4487.95
678.195	4438.8
678.386	4455.19
678.576	4395.79
678.767	4406.03
678.957	4446.99
679.148	4334.36
679.338	4297.49
679.529	4344.6
679.719	4141.85
679.909	4414.23
680.1	4375.31
680.29	4147.99
680.481	4260.63
680.671	4088.6
680.861	4170.52
681.052	4231.96
681.242	4268.82
681.432	4252.44
681.622	4178.71
681.813	4256.53
682.003	4039.45
682.193	4170.52
682.383	4096.79
682.573	4125.46
682.764	3955.48
682.954	4010.78
683.144	4072.22
683.334	3961.62
683.524	4012.82
683.714	4035.35
683.904	4074.26
684.094	3902.23
684.284	4000.54
684.474	4049.69
684.664	3787.55
684.854	3853.08
685.044	3891.99
685.234	3887.9
685.424	3867.42
685.614	3926.81
685.804	3992.34
685.994	3883.8
686.184	3785.5
686.374	3900.19
686.564	3891.99
686.753	3822.36
686.943	3683.1
687.133	3881.75
687.323	3668.77
687.513	3717.92
687.702	3744.54
687.892	3730.2
688.082	3957.53
688.272	3793.69
688.461	3717.92
688.651	3703.58
688.841	3781.4
689.03	3611.42
689.22	3644.19
689.41	3537.7
689.599	3748.64
689.789	3660.57
689.979	3648.29
690.168	3750.68
690.358	3722.01
690.547	3586.85
690.737	3549.98
690.926	3697.44
691.116	3457.82
691.305	3541.79
691.495	3592.99
691.684	3629.85
691.874	3584.8
692.063	3650.33
692.252	3662.62
692.442	3400.48
692.631	3592.99
692.82	3562.27
693.01	3447.58
693.199	3410.72
693.388	3472.16
693.578	3486.5
693.767	3529.5
693.956	3453.73
694.146	3578.65
694.335	3414.82
694.524	3554.08
694.713	3500.83
694.902	3382.05
695.092	3496.74
695.281	3320.61
695.47	3353.38
695.659	3484.45
695.848	3451.68
696.037	3515.17
696.226	3377.95
696.415	3476.26
696.604	3482.4
696.793	3390.24
696.982	3490.59
697.171	3382.05
697.36	3480.35
697.549	3365.67
697.738	3414.82
697.927	3320.61
698.116	3445.54
698.305	3453.73
698.494	3472.16
698.683	3492.64
698.872	3318.56
699.061	3304.23
699.25	3435.3
699.438	3396.39
699.627	3515.17
699.816	3277.6
700.005	3343.14
700.193	3371.81
700.382	3369.76
700.571	3316.51
700.76	3324.71
700.948	3220.26
701.137	3324.71
701.326	3332.9
701.514	3324.71
701.703	3291.94
701.892	3171.11
702.08	3195.68
702.269	3300.13
702.457	3246.88
702.646	3250.98
702.834	3156.77
703.023	3195.68
703.212	3205.92
703.4	3154.73
703.589	3181.35
703.777	3267.36
703.965	3027.75
704.154	3072.81
704.342	3081
704.531	3199.78
704.719	3064.61
704.907	3156.77
705.096	2997.03
705.284	3066.66
705.472	3072.81
705.661	3070.76
705.849	3078.95
706.037	3003.18
706.226	3003.18
706.414	3087.14
706.602	2906.92
706.79	3058.47
706.979	2943.78
707.167	2970.41
707.355	3021.61
707.543	2964.26
707.731	2937.64
707.919	2941.74
708.107	2949.93
708.296	2984.74
708.484	2837.29
708.672	2925.35
708.86	3007.27
709.048	2908.97
709.236	2878.25
709.424	2853.67
709.612	2829.1
709.8	2820.91
709.988	2759.47
710.176	2822.95
710.364	2761.52
710.551	2796.33
710.739	2708.27
710.927	2800.43
711.115	2734.89
711.303	2857.77
711.491	2642.73
711.679	2669.36
711.866	2695.98
712.054	2622.25
712.242	2620.21
712.43	2718.51
712.617	2673.45
712.805	2646.83
712.993	2607.92
713.181	2581.29
713.368	2513.71
713.556	2482.99
713.744	2534.19
713.931	2554.67
714.119	2523.95
714.306	2503.47
714.494	2474.8
714.682	2501.42
714.869	2642.73
715.057	2542.38
715.244	2403.12
715.432	2550.57
715.619	2489.14
715.807	2458.42
715.994	2442.03
716.182	2396.98
716.369	2337.59
716.556	2456.37
716.744	2353.97
716.931	2270
717.119	2378.55
717.306	2374.45
717.493	2302.77
717.681	2286.39
717.868	2278.19
718.055	2317.11
718.242	2315.06
718.43	2433.84
718.617	2265.91
718.804	2257.71
718.991	2321.2
719.179	2282.29
719.366	2253.62
719.553	2216.76
719.74	2175.8
719.927	2265.91
720.114	2134.84
720.301	2173.75
720.488	2163.51
720.676	2194.23
720.863	2147.12
721.05	2145.08
721.237	2241.33
721.424	2032.44
721.611	2173.75
721.798	2161.46
721.985	2235.19
722.172	1971
722.358	2140.98
722.545	1952.57
722.732	2110.26
722.919	2093.88
723.106	2046.77
723.293	1870.65
723.48	2143.03
723.667	2102.07
723.853	2022.2
724.04	1936.18
724.227	2009.91
724.414	1932.09
724.6	1971
724.787	1917.75
724.974	1946.42
725.161	2024.25
725.347	1901.37
725.534	1889.08
725.72	1860.41
725.907	1962.81
726.094	1919.8
726.28	1817.4
726.467	1868.6
726.653	1934.14
726.84	1821.5
727.027	1927.99
727.213	1925.94
727.4	1794.87
727.586	1782.59
727.773	1778.49
727.959	1735.48
728.145	1831.74
728.332	1755.96
728.518	1772.35
728.705	1760.06
728.891	1717.05
729.077	1790.78
729.264	1747.77
729.45	1868.6
729.636	1905.46
729.823	1686.33
730.009	1780.54
730.195	1672
730.382	1602.36
730.568	1588.03
730.754	1573.69
730.94	1563.45
731.126	1741.63
731.313	1643.32
731.499	1661.76
731.685	1667.9
731.871	1706.81
732.057	1657.66
732.243	1641.28
732.429	1686.33
732.615	1645.37
732.801	1727.29
732.987	1573.69
733.173	1676.09
733.359	1612.6
733.545	1614.65
733.731	1569.6
733.917	1545.02
734.103	1532.73
734.289	1569.6
734.475	1573.69
734.661	1526.59
734.847	1573.69
735.033	1497.92
735.219	1616.7
735.404	1495.87
735.59	1579.84
735.776	1456.96
735.962	1504.06
736.148	1504.06
736.333	1534.78
736.519	1487.68
736.705	1469.25
736.89	1514.3
737.076	1442.62
737.262	1481.53
737.447	1481.53
737.633	1489.73
737.819	1397.57
738.004	1418.05
738.19	1399.62
738.375	1340.22
738.561	1411.9
738.747	1299.27
738.932	1434.43
739.118	1526.59
739.303	1418.05
739.489	1465.15
739.674	1379.14
739.859	1344.32
740.045	1358.66
740.23	1403.71
740.416	1317.7
740.601	1440.58
740.786	1256.26
740.972	1299.27
741.157	1284.93
741.342	1274.69
741.528	1237.83
741.713	1231.68
741.898	1311.55
742.084	1334.08
742.269	1215.3
742.454	1276.74
742.639	1340.22
742.824	1276.74
743.01	1223.49
743.195	1289.03
743.38	1227.59
743.565	1274.69
743.75	1276.74
743.935	1157.96
744.12	1254.21
744.305	1164.1
744.49	1221.44
744.675	1274.69
744.86	1268.55
745.045	1207.11
745.23	1207.11
745.415	1174.34
745.6	1229.63
745.785	1172.29
745.97	1125.19
746.155	1127.24
746.34	1207.11
746.525	1047.37
746.71	1254.21
746.895	1166.15
747.079	1117
747.264	1104.71
747.449	1096.52
747.634	1207.11
747.819	1141.57
748.003	1059.65
748.188	1139.52
748.373	1102.66
748.557	1131.33
748.742	1119.04
748.927	1114.95
749.111	1028.93
749.296	1049.41
749.481	1059.65
749.665	1053.51
749.85	981.83
750.034	996.17
750.219	1041.22
750.404	957.25
750.588	1026.89
750.773	1028.93
750.957	1014.6
751.141	940.87
751.326	996.17
751.51	971.59
751.695	977.73
751.879	928.58
752.064	908.1
752.248	916.3
752.432	908.1
752.617	871.24
752.801	897.86
752.985	971.59
753.17	869.19
753.354	846.66
753.538	824.14
753.722	858.95
753.907	844.62
754.091	865.1
754.275	863.05
754.459	930.63
754.643	848.71
754.828	832.33
755.012	924.49
755.196	834.38
755.38	885.58
755.564	852.81
755.748	899.91
755.932	830.28
756.116	832.33
756.3	838.47
756.484	799.56
756.668	779.08
756.852	783.18
757.036	752.46
757.22	760.65
757.404	801.61
757.588	772.94
757.772	678.73
757.956	774.99
758.14	832.33
758.323	715.59
758.507	789.32
758.691	830.28
758.875	785.23
759.059	674.64
759.242	693.07
759.426	736.07
759.61	643.92
759.794	760.65
759.977	643.92
760.161	789.32
760.345	723.79
760.528	748.36
760.712	607.05
760.895	744.27
761.079	695.11
761.263	691.02
761.446	750.41
761.63	691.02
761.813	676.68
761.997	635.72
762.18	682.83
762.364	711.5
762.547	672.59
762.731	719.69
762.914	572.24
763.098	633.68
763.281	586.57
763.464	648.01
763.648	639.82
763.831	594.76
764.015	645.96
764.198	623.44
764.381	652.11
764.564	699.21
764.748	662.35
764.931	672.59
765.114	605
765.297	697.16
765.481	711.5
765.664	605
765.847	697.16
766.03	559.95
766.213	680.78
766.397	539.47
766.58	674.64
766.763	551.76
766.946	619.34
767.129	674.64
767.312	617.29
767.495	656.2
767.678	562
767.861	621.39
768.044	588.62
768.227	564.04
768.41	547.66
768.593	654.16
768.776	639.82
768.959	510.8
769.142	523.09
769.324	586.57
769.507	576.33
769.69	543.57
769.873	648.01
770.056	600.91
770.239	562
770.421	596.81
770.604	576.33
770.787	695.11
770.97	543.57
771.152	549.71
771.335	564.04
771.518	584.52
771.7	547.66
771.883	562
772.066	545.61
772.248	453.45
772.431	580.43
772.613	545.61
772.796	596.81
772.978	588.62
773.161	549.71
773.343	467.79
773.526	533.33
773.708	490.32
773.891	545.61
774.073	564.04
774.256	498.51
774.438	543.57
774.621	506.7
774.803	533.33
774.985	512.85
775.168	531.28
775.35	535.37
775.532	475.98
775.715	541.52
775.897	553.8
776.079	525.13
776.261	494.41
776.444	539.47
776.626	506.7
776.808	435.02
776.99	514.89
777.173	435.02
777.355	432.97
777.537	418.64
777.719	492.37
777.901	531.28
778.083	492.37
778.265	478.03
778.447	475.98
778.629	414.54
778.811	478.03
778.993	422.73
779.175	494.41
779.357	428.88
779.539	445.26
779.721	463.69
779.903	435.02
780.085	439.12
780.267	420.69
780.449	437.07
780.631	359.25
780.812	461.65
780.994	426.83
781.176	490.32
781.358	412.5
781.54	420.69
781.721	439.12
781.903	367.44
782.085	449.36
782.267	414.54
782.448	459.6
782.63	394.06
782.812	402.26
782.993	359.25
783.175	441.17
783.357	332.62
783.538	326.48
783.72	349.01
783.901	359.25
784.083	359.25
784.264	361.3
784.446	281.43
784.627	273.23
784.809	400.21
784.99	342.86
785.172	324.43
785.353	299.86
785.535	351.06
785.716	353.1
785.897	342.86
786.079	369.49
786.26	342.86
786.441	285.52
786.623	406.35
786.804	234.32
786.985	260.95
787.167	363.34
787.348	269.14
787.529	306
787.71	301.9
787.891	234.32
788.073	273.23
788.254	242.51
788.435	262.99
788.616	303.95
788.797	293.71
788.978	303.95
789.159	355.15
789.34	250.71
789.522	240.47
789.703	297.81
789.884	287.57
790.065	291.66
790.246	224.08
790.427	303.95
790.607	293.71
790.788	328.53
790.969	197.46
791.15	256.85
791.331	219.99
791.512	349.01
791.693	123.73
791.874	224.08
792.054	279.38
792.235	287.57
792.416	138.07
792.597	217.94
792.778	281.43
792.958	256.85
793.139	254.8
793.32	238.42
793.5	217.94
793.681	213.84
793.862	230.23
794.042	222.03
794.223	238.42
794.404	205.65
794.584	191.31
794.765	238.42
794.945	291.66
795.126	232.27
795.306	226.13
795.487	187.22
795.667	168.79
795.848	267.09
796.028	213.84
796.209	228.18
796.389	191.31
796.57	303.95
796.75	250.71
796.93	213.84
797.111	207.7
797.291	187.22
797.471	166.74
797.652	234.32
797.832	207.7
798.012	215.89
798.192	238.42
798.373	193.36
798.553	121.68
798.733	224.08
798.913	168.79
799.093	230.23
799.274	181.07
799.454	295.76
799.634	131.92
799.814	277.33
799.994	244.56
800.174	232.27
800.354	152.4
800.534	226.13
800.714	162.64
800.894	125.78
801.074	197.46
801.254	127.83
801.434	97.11
801.614	191.31
801.794	148.31
801.974	392.02
802.154	148.31
802.334	203.6
802.514	191.31
802.693	181.07
802.873	99.16
803.053	174.93
803.233	150.36
803.413	164.69
803.592	121.68
803.772	174.93
803.952	185.17
804.131	176.98
804.311	181.07
804.491	252.75
804.67	117.59
804.85	154.45
805.03	215.89
805.209	158.55
805.389	164.69
805.568	164.69
805.748	117.59
805.928	185.17
806.107	166.74
806.287	154.45
806.466	162.64
806.646	179.03
806.825	107.35
807.004	187.22
807.184	142.16
807.363	205.65
807.543	199.51
807.722	140.12
807.901	142.16
808.081	199.51
808.26	115.54
808.439	181.07
808.619	136.02
808.798	232.27
808.977	88.92
809.156	226.13
809.336	105.3
809.515	97.11
809.694	121.68
809.873	140.12
810.052	136.02
810.231	60.24
810.411	90.96
810.59	70.48
810.769	97.11
810.948	140.12
811.127	160.59
811.306	47.96
811.485	154.45
811.664	174.93
811.843	179.03
812.022	125.78
812.201	131.92
812.38	136.02
812.559	121.68
812.737	179.03
812.916	148.31
813.095	131.92
813.274	23.38
813.453	172.88
813.632	133.97
813.811	138.07
813.989	68.44
814.168	97.11
814.347	148.31
814.526	193.36
814.704	131.92
814.883	58.2
815.062	45.91
815.24	90.96
815.419	105.3
815.598	107.35
815.776	78.68
815.955	142.16
816.133	25.43
816.312	123.73
816.49	97.11
816.669	148.31
816.847	115.54
817.026	146.26
817.204	107.35
817.383	152.4
817.561	93.01
817.74	41.81
817.918	70.48
818.097	144.21
818.275	88.92
818.453	115.54
818.632	109.4
818.81	121.68
818.988	86.87
819.167	88.92
819.345	86.87
819.523	113.49
819.701	109.4
819.879	152.4
820.058	27.48
820.236	70.48
820.414	105.3
820.592	76.63
820.77	152.4
820.948	117.59
821.127	90.96
821.305	72.53
821.483	72.53
821.661	23.38
821.839	93.01
822.017	76.63
822.195	154.45
822.373	154.45
822.551	90.96
822.729	129.88
822.907	66.39
823.085	127.83
823.262	109.4
823.44	109.4
823.618	35.67
823.796	86.87
823.974	68.44
824.152	103.25
824.329	82.77
824.507	86.87
824.685	99.16
824.863	58.2
825.04	123.73
825.218	86.87
825.396	113.49
825.574	93.01
825.751	76.63
825.929	86.87
826.107	90.96
826.284	2.9
826.462	52.05
826.639	119.64
826.817	101.2
826.994	72.53
827.172	35.67
827.349	103.25
827.527	50
827.704	101.2
827.882	103.25
828.059	86.87
828.237	52.05
828.414	111.44
828.591	45.91
828.769	-15.53
828.946	76.63
829.124	66.39
829.301	97.11
829.478	82.77
829.655	109.4
829.833	62.29
830.01	76.63
830.187	50
830.364	78.68
830.542	58.2
830.719	99.16
830.896	78.68
831.073	4.95
831.25	-25.77
831.427	154.45
831.604	70.48
831.782	86.87
831.959	66.39
832.136	21.33
832.313	64.34
832.49	23.38
832.667	88.92
832.844	80.72
833.021	37.72
833.198	41.81
833.374	66.39
833.551	54.1
833.728	90.96
833.905	105.3
834.082	78.68
834.259	35.67
834.436	105.3
834.612	90.96
834.789	72.53
834.966	74.58
835.143	29.52
835.319	86.87
835.496	74.58
835.673	84.82
835.85	-5.29
836.026	82.77
836.203	88.92
836.38	-13.48
836.556	80.72
836.733	50
836.909	52.05
837.086	35.67
837.262	64.34
837.439	47.96
837.616	-9.39
837.792	25.43
837.968	68.44
838.145	39.76
838.321	95.06
838.498	45.91
838.674	86.87
838.851	74.58
839.027	9.05
839.203	95.06
839.38	-58.54
839.556	4.95
839.732	90.96
839.909	21.33
840.085	117.59
840.261	19.29
840.437	23.38
840.614	88.92
840.79	4.95
840.966	84.82
841.142	23.38
841.318	68.44
841.494	37.72
841.671	4.95
841.847	68.44
842.023	68.44
842.199	121.68
842.375	35.67
842.551	21.33
842.727	64.34
842.903	60.24
843.079	-3.24
843.255	39.76
843.431	117.59
843.607	29.52
843.783	50
843.959	80.72
844.134	-1.19
844.31	78.68
844.486	56.15
844.662	56.15
844.838	58.2
845.013	97.11
845.189	29.52
845.365	-13.48
845.541	39.76
845.716	23.38
845.892	93.01
846.068	45.91
846.244	35.67
846.419	115.54
846.595	31.57
846.77	19.29
846.946	47.96
847.122	50
847.297	88.92
847.473	33.62
847.648	54.1
847.824	88.92
847.999	21.33
848.175	-27.82
848.35	95.06
848.526	23.38
848.701	70.48
848.876	70.48
849.052	56.15
849.227	33.62
849.403	21.33
849.578	0.85
849.753	45.91
849.929	-5.29
850.104	58.2
850.279	-5.29
850.454	31.57
850.63	47.96
850.805	84.82
850.98	21.33
851.155	15.19
851.33	93.01
851.505	-13.48
851.681	-1.19
851.856	31.57
852.031	2.9
852.206	4.95
852.381	-15.53
852.556	25.43
852.731	-1.19
852.906	9.05
853.081	2.9
853.256	31.57
853.431	54.1
853.606	45.91
853.781	76.63
853.956	2.9
854.131	29.52
854.305	47.96
854.48	-17.58
854.655	23.38
854.83	13.14
855.005	76.63
855.18	-7.34
855.354	103.25
855.529	41.81
855.704	23.38
855.879	58.2
856.053	-21.67
856.228	86.87
856.403	-50.35
856.577	74.58
856.752	-21.67
856.926	29.52
857.101	29.52
857.276	78.68
857.45	19.29
857.625	62.29
857.799	35.67
857.974	45.91
858.148	68.44
858.323	-1.19
858.497	56.15
858.672	35.67
858.846	95.06
859.02	93.01
859.195	41.81
859.369	64.34
859.543	-40.11
859.718	21.33
859.892	90.96
860.066	-3.24
860.241	19.29
860.415	37.72
860.589	47.96
860.763	66.39
860.938	47.96
861.112	95.06
861.286	-11.43
861.46	2.9
861.634	31.57
861.808	56.15
861.982	2.9
862.157	31.57
862.331	37.72
862.505	39.76
862.679	70.48
862.853	64.34
863.027	-15.53
863.201	68.44
863.375	-7.34
863.549	43.86
863.722	39.76
863.896	37.72
864.07	76.63
864.244	2.9
864.418	93.01
864.592	-3.24
864.766	7
864.939	7
865.113	-17.58
865.287	41.81
865.461	-27.82
865.634	29.52
865.808	11.09
865.982	-3.24
866.156	56.15
866.329	41.81
866.503	117.59
866.676	52.05
866.85	43.86
867.024	50
867.197	13.14
867.371	7
867.544	-25.77
867.718	4.95
867.891	33.62
868.065	-1.19
868.238	-5.29
868.412	35.67
868.585	-29.87
868.759	33.62
868.932	-1.19
869.105	15.19
869.279	-31.91
869.452	11.09
869.625	62.29
869.799	2.9
869.972	27.48
870.145	23.38
870.319	56.15
870.492	-23.72
870.665	86.87
870.838	13.14
871.011	4.95
871.185	45.91
871.358	-3.24
871.531	29.52
871.704	-21.67
871.877	-50.35
872.05	93.01
872.223	-52.39
872.396	84.82
872.569	74.58
872.742	2.9
872.915	-5.29
873.088	2.9
873.261	15.19
873.434	-9.39
873.607	-44.2
873.78	74.58
873.953	58.2
874.126	78.68
874.299	66.39
874.471	21.33
874.644	37.72
874.817	-5.29
874.99	31.57
875.163	45.91
875.335	78.68
875.508	52.05
875.681	-11.43
875.853	74.58
876.026	45.91
876.199	60.24
876.371	105.3
876.544	11.09
876.717	90.96
876.889	-17.58
877.062	74.58
877.234	62.29
877.407	15.19
877.579	0.85
877.752	58.2
877.924	-7.34
878.097	-40.11
878.269	-58.54
878.442	52.05
878.614	33.62
878.786	-3.24
878.959	-7.34
879.131	101.2
879.303	33.62
879.476	2.9
879.648	-25.77
879.82	4.95
879.993	-29.87
880.165	27.48
880.337	-74.92
880.509	64.34
880.681	23.38
880.854	47.96
881.026	62.29
881.198	109.4
881.37	-15.53
881.542	25.43
881.714	-9.39
881.886	15.19
882.058	95.06
882.23	84.82
882.402	41.81
882.574	45.91
882.746	43.86
882.918	33.62
883.09	-1.19
883.262	-9.39
883.434	-17.58
883.606	76.63
883.778	7
883.95	-36.01
884.122	50
884.293	31.57
884.465	21.33
884.637	-31.91
884.809	-23.72
884.98	27.48
885.152	-11.43
885.324	9.05
885.496	17.24
885.667	-60.59
885.839	-46.25
886.011	-11.43
886.182	-15.53
886.354	66.39
886.525	31.57
886.697	43.86
886.869	-7.34
887.04	74.58
887.212	23.38
887.383	31.57
887.555	23.38
887.726	54.1
887.897	4.95
888.069	47.96
888.24	35.67
888.412	66.39
888.583	-62.63
888.754	-21.67
888.926	4.95
889.097	45.91
889.268	43.86
889.44	-15.53
889.611	-17.58
889.782	97.11
889.953	47.96
890.125	21.33
890.296	43.86
890.467	-33.96
890.638	-25.77
890.809	58.2
890.98	33.62
891.151	33.62
891.323	4.95
891.494	-1.19
891.665	19.29
891.836	60.24
892.007	17.24
892.178	4.95
892.349	60.24
892.52	31.57
892.691	-7.34
892.862	13.14
893.032	11.09
893.203	33.62
893.374	70.48
893.545	-9.39
893.716	45.91
893.887	97.11
894.057	29.52
894.228	45.91
894.399	25.43
894.57	52.05
894.74	13.14
894.911	107.35
895.082	27.48
895.253	-15.53
895.423	-74.92
895.594	33.62
895.764	-17.58
895.935	-62.63
896.106	4.95
896.276	37.72
896.447	-11.43
896.617	-9.39
896.788	27.48
896.958	-15.53
897.129	82.77
897.299	39.76
897.47	27.48
897.64	56.15
897.81	4.95
897.981	78.68
898.151	-7.34
898.322	-5.29
898.492	90.96
898.662	23.38
898.832	25.43
899.003	60.24
899.173	19.29
899.343	64.34
899.513	13.14
