Data from USB4F104151__90__13-54-29-430.txt Node

Date: Thu Mar 13 13:54:29 EDT 2025
User: louis
Spectrometer: USB4F10415
Trigger mode: 4
Integration Time (sec): 1.000000E-2
Scans to average: 1
Electric dark correction enabled: true
Nonlinearity correction enabled: false
Boxcar width: 0
XAxis mode: Wavelengths
Number of Pixels in Spectrum: 3648
>>>>>Begin Spectral Data<<<<<
178.204	-5.29
178.424	-5.29
178.644	-5.29
178.864	-64.68
179.084	-58.54
179.304	-27.82
179.524	-7.34
179.744	52.05
179.964	78.68
180.184	-113.83
180.404	60.24
180.624	-3.24
180.844	-42.15
181.064	-36.01
181.283	-17.58
181.503	-27.82
181.723	84.82
181.943	-31.91
182.163	37.72
182.383	76.63
182.602	47.96
182.822	11.09
183.042	31.57
183.262	-29.87
183.482	72.53
183.701	-3.24
183.921	60.24
184.141	-19.63
184.361	29.52
184.58	52.05
184.8	82.77
185.02	17.24
185.239	41.81
185.459	-11.43
185.679	-1.19
185.898	-21.67
186.118	86.87
186.338	13.14
186.557	19.29
186.777	-62.63
186.997	11.09
187.216	-33.96
187.436	123.73
187.655	35.67
187.875	-5.29
188.095	-31.91
188.314	84.82
188.534	33.62
188.753	-40.11
188.973	29.52
189.192	35.67
189.412	62.29
189.631	45.91
189.851	-50.35
190.07	74.58
190.29	-52.39
190.509	50
190.729	23.38
190.948	41.81
191.168	88.92
191.387	9.05
191.607	23.38
191.826	84.82
192.045	74.58
192.265	70.48
192.484	11.09
192.704	25.43
192.923	-68.78
193.142	93.01
193.362	15.19
193.581	95.06
193.8	-5.29
194.02	27.48
194.239	39.76
194.458	21.33
194.678	64.34
194.897	99.16
195.116	-62.63
195.335	35.67
195.555	43.86
195.774	-42.15
195.993	97.11
196.212	39.76
196.432	-31.91
196.651	72.53
196.87	70.48
197.089	45.91
197.308	33.62
197.528	-5.29
197.747	37.72
197.966	-29.87
198.185	-13.48
198.404	-5.29
198.623	13.14
198.842	11.09
199.062	76.63
199.281	39.76
199.5	62.29
199.719	31.57
199.938	-15.53
200.157	-3.24
200.376	80.72
200.595	-29.87
200.814	35.67
201.033	-29.87
201.252	-7.34
201.471	21.33
201.69	54.1
201.909	78.68
202.128	11.09
202.347	56.15
202.566	-7.34
202.785	-27.82
203.004	39.76
203.223	136.02
203.442	25.43
203.661	19.29
203.879	-38.06
204.098	-27.82
204.317	19.29
204.536	-7.34
204.755	17.24
204.974	56.15
205.193	17.24
205.411	80.72
205.63	21.33
205.849	43.86
206.068	-17.58
206.287	45.91
206.505	97.11
206.724	17.24
206.943	-44.2
207.162	-25.77
207.381	11.09
207.599	25.43
207.818	37.72
208.037	68.44
208.255	-46.25
208.474	13.14
208.693	43.86
208.911	-42.15
209.13	17.24
209.349	80.72
209.567	90.96
209.786	62.29
210.005	41.81
210.223	9.05
210.442	11.09
210.661	33.62
210.879	9.05
211.098	-15.53
211.316	33.62
211.535	13.14
211.753	70.48
211.972	2.9
212.191	47.96
212.409	50
212.628	-19.63
212.846	54.1
213.065	-1.19
213.283	39.76
213.502	17.24
213.72	88.92
213.938	2.9
214.157	-23.72
214.375	7
214.594	15.19
214.812	25.43
215.031	62.29
215.249	-25.77
215.467	15.19
215.686	29.52
215.904	2.9
216.122	39.76
216.341	11.09
216.559	-11.43
216.778	80.72
216.996	17.24
217.214	45.91
217.432	2.9
217.651	-7.34
217.869	-54.44
218.087	-11.43
218.306	37.72
218.524	4.95
218.742	-3.24
218.96	19.29
219.179	-1.19
219.397	15.19
219.615	13.14
219.833	17.24
220.051	-52.39
220.27	29.52
220.488	25.43
220.706	17.24
220.924	-25.77
221.142	-46.25
221.36	52.05
221.578	58.2
221.796	-1.19
222.015	-38.06
222.233	11.09
222.451	-1.19
222.669	-17.58
222.887	-40.11
223.105	-36.01
223.323	52.05
223.541	-44.2
223.759	33.62
223.977	0.85
224.195	39.76
224.413	9.05
224.631	-29.87
224.849	11.09
225.067	82.77
225.285	62.29
225.503	-31.91
225.721	-1.19
225.939	43.86
226.157	-17.58
226.375	62.29
226.592	41.81
226.81	76.63
227.028	35.67
227.246	52.05
227.464	68.44
227.682	4.95
227.9	43.86
228.117	-5.29
228.335	13.14
228.553	4.95
228.771	47.96
228.989	88.92
229.206	-19.63
229.424	111.44
229.642	-40.11
229.86	95.06
230.077	7
230.295	64.34
230.513	25.43
230.731	25.43
230.948	-38.06
231.166	35.67
231.384	21.33
231.601	119.64
231.819	33.62
232.037	43.86
232.254	-40.11
232.472	29.52
232.689	41.81
232.907	13.14
233.125	35.67
233.342	50
233.56	27.48
233.777	45.91
233.995	-56.49
234.213	45.91
234.43	39.76
234.648	47.96
234.865	97.11
235.083	95.06
235.3	21.33
235.518	29.52
235.735	52.05
235.953	11.09
236.17	105.3
236.388	-9.39
236.605	101.2
236.822	-46.25
237.04	11.09
237.257	-19.63
237.475	19.29
237.692	25.43
237.909	-15.53
238.127	-17.58
238.344	72.53
238.562	-5.29
238.779	19.29
238.996	-7.34
239.214	21.33
239.431	29.52
239.648	84.82
239.865	-3.24
240.083	86.87
240.3	45.91
240.517	11.09
240.735	35.67
240.952	-13.48
241.169	78.68
241.386	-1.19
241.603	58.2
241.821	2.9
242.038	-5.29
242.255	33.62
242.472	54.1
242.689	-19.63
242.907	11.09
243.124	9.05
243.341	21.33
243.558	-27.82
243.775	-17.58
243.992	29.52
244.209	-13.48
244.426	2.9
244.643	97.11
244.86	0.85
245.078	9.05
245.295	39.76
245.512	23.38
245.729	-9.39
245.946	19.29
246.163	74.58
246.38	66.39
246.597	27.48
246.814	52.05
247.031	90.96
247.248	37.72
247.464	-5.29
247.681	-5.29
247.898	27.48
248.115	27.48
248.332	45.91
248.549	54.1
248.766	13.14
248.983	62.29
249.2	41.81
249.417	125.78
249.633	11.09
249.85	23.38
250.067	-29.87
250.284	148.31
250.501	-23.72
250.717	37.72
250.934	31.57
251.151	-31.91
251.368	103.25
251.585	33.62
251.801	41.81
252.018	27.48
252.235	35.67
252.451	-36.01
252.668	68.44
252.885	-15.53
253.102	-29.87
253.318	78.68
253.535	-3.24
253.752	68.44
253.968	-13.48
254.185	45.91
254.401	2.9
254.618	-3.24
254.835	56.15
255.051	52.05
255.268	25.43
255.484	9.05
255.701	56.15
255.917	86.87
256.134	21.33
256.351	78.68
256.567	9.05
256.784	39.76
257	21.33
257.217	-11.43
257.433	29.52
257.65	60.24
257.866	-17.58
258.082	13.14
258.299	33.62
258.515	76.63
258.732	-42.15
258.948	47.96
259.165	45.91
259.381	72.53
259.597	13.14
259.814	9.05
260.03	-31.91
260.246	45.91
260.463	29.52
260.679	37.72
260.895	43.86
261.112	95.06
261.328	-33.96
261.544	76.63
261.761	93.01
261.977	74.58
262.193	-15.53
262.409	11.09
262.626	11.09
262.842	60.24
263.058	45.91
263.274	80.72
263.49	27.48
263.707	72.53
263.923	13.14
264.139	82.77
264.355	-13.48
264.571	29.52
264.787	37.72
265.004	-29.87
265.22	4.95
265.436	27.48
265.652	21.33
265.868	31.57
266.084	23.38
266.3	-1.19
266.516	56.15
266.732	9.05
266.948	9.05
267.164	58.2
267.38	62.29
267.596	43.86
267.812	43.86
268.028	13.14
268.244	74.58
268.46	52.05
268.676	11.09
268.892	13.14
269.108	-1.19
269.324	72.53
269.54	-7.34
269.756	62.29
269.972	-1.19
270.188	0.85
270.403	13.14
270.619	35.67
270.835	19.29
271.051	2.9
271.267	19.29
271.483	35.67
271.698	47.96
271.914	84.82
272.13	95.06
272.346	97.11
272.562	9.05
272.777	17.24
272.993	-15.53
273.209	84.82
273.425	52.05
273.64	66.39
273.856	37.72
274.072	131.92
274.287	17.24
274.503	31.57
274.719	43.86
274.934	47.96
275.15	0.85
275.366	19.29
275.581	45.91
275.797	82.77
276.012	27.48
276.228	-1.19
276.444	62.29
276.659	25.43
276.875	-3.24
277.09	47.96
277.306	70.48
277.521	-7.34
277.737	35.67
277.952	52.05
278.168	54.1
278.383	13.14
278.599	68.44
278.814	25.43
279.03	50
279.245	101.2
279.461	58.2
279.676	27.48
279.892	86.87
280.107	11.09
280.322	50
280.538	62.29
280.753	19.29
280.969	-11.43
281.184	27.48
281.399	13.14
281.615	-23.72
281.83	25.43
282.045	72.53
282.26	52.05
282.476	2.9
282.691	50
282.906	15.19
283.122	41.81
283.337	-60.59
283.552	68.44
283.767	50
283.983	-38.06
284.198	47.96
284.413	9.05
284.628	-11.43
284.843	15.19
285.058	17.24
285.274	107.35
285.489	-19.63
285.704	84.82
285.919	37.72
286.134	-60.59
286.349	29.52
286.564	-29.87
286.779	-11.43
286.995	29.52
287.21	-21.67
287.425	105.3
287.64	45.91
287.855	0.85
288.07	39.76
288.285	21.33
288.5	-11.43
288.715	-13.48
288.93	68.44
289.145	50
289.36	-21.67
289.575	43.86
289.79	13.14
290.004	-1.19
290.219	9.05
290.434	52.05
290.649	17.24
290.864	19.29
291.079	11.09
291.294	29.52
291.509	11.09
291.724	25.43
291.938	80.72
292.153	25.43
292.368	29.52
292.583	78.68
292.798	-15.53
293.012	60.24
293.227	74.58
293.442	66.39
293.657	-54.44
293.871	11.09
294.086	60.24
294.301	7
294.516	43.86
294.73	43.86
294.945	58.2
295.16	82.77
295.374	25.43
295.589	-29.87
295.804	25.43
296.018	-13.48
296.233	45.91
296.447	111.44
296.662	54.1
296.877	66.39
297.091	109.4
297.306	-1.19
297.52	-19.63
297.735	31.57
297.949	-38.06
298.164	-3.24
298.378	101.2
298.593	15.19
298.807	4.95
299.022	39.76
299.236	107.35
299.451	64.34
299.665	33.62
299.88	58.2
300.094	19.29
300.309	109.4
300.523	-19.63
300.737	13.14
300.952	64.34
301.166	2.9
301.381	13.14
301.595	-5.29
301.809	15.19
302.024	64.34
302.238	-5.29
302.452	41.81
302.667	-5.29
302.881	74.58
303.095	15.19
303.309	64.34
303.524	39.76
303.738	25.43
303.952	-1.19
304.166	9.05
304.381	2.9
304.595	31.57
304.809	43.86
305.023	45.91
305.237	15.19
305.452	74.58
305.666	-1.19
305.88	19.29
306.094	45.91
306.308	62.29
306.522	-11.43
306.736	31.57
306.95	-5.29
307.164	4.95
307.379	68.44
307.593	64.34
307.807	27.48
308.021	17.24
308.235	-9.39
308.449	33.62
308.663	58.2
308.877	29.52
309.091	-9.39
309.305	31.57
309.519	-21.67
309.733	47.96
309.947	13.14
310.161	62.29
310.374	25.43
310.588	52.05
310.802	4.95
311.016	23.38
311.23	7
311.444	29.52
311.658	80.72
311.872	60.24
312.085	-15.53
312.299	37.72
312.513	64.34
312.727	13.14
312.941	72.53
313.154	-3.24
313.368	-33.96
313.582	101.2
313.796	0.85
314.009	54.1
314.223	78.68
314.437	37.72
314.651	60.24
314.864	13.14
315.078	39.76
315.292	60.24
315.505	-1.19
315.719	52.05
315.933	0.85
316.146	-5.29
316.36	39.76
316.573	84.82
316.787	-33.96
317.001	56.15
317.214	17.24
317.428	0.85
317.641	62.29
317.855	138.07
318.068	37.72
318.282	72.53
318.495	60.24
318.709	0.85
318.922	37.72
319.136	68.44
319.349	68.44
319.563	-11.43
319.776	-29.87
319.99	58.2
320.203	39.76
320.417	23.38
320.63	-3.24
320.843	-7.34
321.057	-48.3
321.27	-13.48
321.483	-56.49
321.697	0.85
321.91	-25.77
322.124	17.24
322.337	-15.53
322.55	13.14
322.763	-19.63
322.977	-42.15
323.19	19.29
323.403	19.29
323.617	31.57
323.83	-38.06
324.043	37.72
324.256	58.2
324.469	62.29
324.683	-9.39
324.896	27.48
325.109	95.06
325.322	11.09
325.535	-21.67
325.748	15.19
325.962	-5.29
326.175	2.9
326.388	9.05
326.601	39.76
326.814	23.38
327.027	11.09
327.24	64.34
327.453	43.86
327.666	35.67
327.879	66.39
328.092	99.16
328.305	133.97
328.518	62.29
328.731	35.67
328.944	9.05
329.157	66.39
329.37	33.62
329.583	2.9
329.796	88.92
330.009	-50.35
330.222	31.57
330.435	41.81
330.648	47.96
330.861	43.86
331.073	127.83
331.286	142.16
331.499	-21.67
331.712	13.14
331.925	-27.82
332.138	41.81
332.35	-1.19
332.563	4.95
332.776	-1.19
332.989	7
333.202	78.68
333.414	17.24
333.627	95.06
333.84	43.86
334.053	43.86
334.265	-29.87
334.478	-33.96
334.691	29.52
334.903	68.44
335.116	11.09
335.329	70.48
335.541	47.96
335.754	66.39
335.966	41.81
336.179	-21.67
336.392	2.9
336.604	64.34
336.817	52.05
337.029	70.48
337.242	-9.39
337.454	78.68
337.667	41.81
337.88	52.05
338.092	52.05
338.305	27.48
338.517	52.05
338.729	76.63
338.942	11.09
339.154	21.33
339.367	13.14
339.579	21.33
339.792	4.95
340.004	41.81
340.217	27.48
340.429	86.87
340.641	-17.58
340.854	-42.15
341.066	7
341.278	37.72
341.491	-13.48
341.703	-9.39
341.915	82.77
342.128	62.29
342.34	-33.96
342.552	43.86
342.764	-11.43
342.977	-1.19
343.189	107.35
343.401	54.1
343.613	33.62
343.826	-23.72
344.038	37.72
344.25	52.05
344.462	72.53
344.674	-7.34
344.886	35.67
345.099	9.05
345.311	-21.67
345.523	23.38
345.735	25.43
345.947	27.48
346.159	43.86
346.371	31.57
346.583	-9.39
346.795	103.25
347.007	33.62
347.219	144.21
347.431	-42.15
347.643	140.12
347.855	74.58
348.067	31.57
348.279	62.29
348.491	35.67
348.703	41.81
348.915	9.05
349.127	70.48
349.339	25.43
349.551	88.92
349.763	45.91
349.975	31.57
350.187	23.38
350.399	-13.48
350.61	99.16
350.822	43.86
351.034	68.44
351.246	50
351.458	11.09
351.669	80.72
351.881	15.19
352.093	47.96
352.305	74.58
352.517	-5.29
352.728	93.01
352.94	-11.43
353.152	66.39
353.363	29.52
353.575	47.96
353.787	66.39
353.999	60.24
354.21	80.72
354.422	39.76
354.633	70.48
354.845	13.14
355.057	-17.58
355.268	27.48
355.48	107.35
355.692	33.62
355.903	99.16
356.115	86.87
356.326	-1.19
356.538	33.62
356.749	115.54
356.961	9.05
357.172	-25.77
357.384	-1.19
357.595	21.33
357.807	35.67
358.018	-19.63
358.23	62.29
358.441	9.05
358.653	13.14
358.864	-36.01
359.075	62.29
359.287	0.85
359.498	101.2
359.709	54.1
359.921	54.1
360.132	33.62
360.344	111.44
360.555	45.91
360.766	11.09
360.977	90.96
361.189	74.58
361.4	52.05
361.611	90.96
361.823	66.39
362.034	121.68
362.245	43.86
362.456	64.34
362.667	72.53
362.879	19.29
363.09	-5.29
363.301	-27.82
363.512	-9.39
363.723	93.01
363.935	-50.35
364.146	-1.19
364.357	47.96
364.568	15.19
364.779	45.91
364.99	37.72
365.201	0.85
365.412	64.34
365.623	-13.48
365.834	62.29
366.045	9.05
366.256	86.87
366.467	93.01
366.678	121.68
366.889	-29.87
367.1	-31.91
367.311	29.52
367.522	-31.91
367.733	9.05
367.944	-42.15
368.155	64.34
368.366	35.67
368.577	60.24
368.788	52.05
368.999	52.05
369.209	58.2
369.42	90.96
369.631	78.68
369.842	23.38
370.053	35.67
370.264	25.43
370.474	125.78
370.685	-13.48
370.896	45.91
371.107	56.15
371.317	33.62
371.528	88.92
371.739	-17.58
371.95	72.53
372.16	64.34
372.371	2.9
372.582	-31.91
372.792	45.91
373.003	90.96
373.214	-3.24
373.424	-62.63
373.635	21.33
373.846	76.63
374.056	58.2
374.267	76.63
374.477	17.24
374.688	56.15
374.898	15.19
375.109	35.67
375.319	19.29
375.53	41.81
375.74	-1.19
375.951	54.1
376.161	93.01
376.372	68.44
376.582	101.2
376.793	-7.34
377.003	29.52
377.214	54.1
377.424	54.1
377.635	45.91
377.845	101.2
378.055	76.63
378.266	-3.24
378.476	-5.29
378.686	4.95
378.897	58.2
379.107	64.34
379.317	43.86
379.528	2.9
379.738	56.15
379.948	-64.68
380.158	93.01
380.369	47.96
380.579	62.29
380.789	31.57
380.999	62.29
381.21	50
381.42	101.2
381.63	2.9
381.84	129.88
382.05	13.14
382.261	72.53
382.471	-3.24
382.681	107.35
382.891	52.05
383.101	68.44
383.311	25.43
383.521	21.33
383.731	31.57
383.941	74.58
384.151	11.09
384.361	52.05
384.571	17.24
384.781	-3.24
384.991	33.62
385.201	95.06
385.411	33.62
385.621	62.29
385.831	64.34
386.041	62.29
386.251	82.77
386.461	113.49
386.671	99.16
386.881	35.67
387.091	25.43
387.301	45.91
387.511	21.33
387.72	-15.53
387.93	60.24
388.14	52.05
388.35	82.77
388.56	52.05
388.769	25.43
388.979	56.15
389.189	37.72
389.399	-9.39
389.609	25.43
389.818	50
390.028	-3.24
390.238	97.11
390.447	27.48
390.657	45.91
390.867	45.91
391.076	88.92
391.286	37.72
391.496	-13.48
391.705	97.11
391.915	54.1
392.125	58.2
392.334	35.67
392.544	101.2
392.753	95.06
392.963	25.43
393.172	45.91
393.382	23.38
393.591	82.77
393.801	50
394.01	47.96
394.22	86.87
394.429	80.72
394.639	68.44
394.848	80.72
395.058	88.92
395.267	56.15
395.477	90.96
395.686	37.72
395.895	64.34
396.105	39.76
396.314	70.48
396.524	144.21
396.733	121.68
396.942	33.62
397.152	29.52
397.361	234.32
397.57	101.2
397.78	29.52
397.989	101.2
398.198	95.06
398.407	93.01
398.617	133.97
398.826	84.82
399.035	105.3
399.244	2.9
399.453	101.2
399.663	27.48
399.872	74.58
400.081	25.43
400.29	138.07
400.499	74.58
400.708	86.87
400.917	68.44
401.127	107.35
401.336	154.45
401.545	93.01
401.754	109.4
401.963	105.3
402.172	35.67
402.381	111.44
402.59	101.2
402.799	105.3
403.008	209.75
403.217	56.15
403.426	74.58
403.635	121.68
403.844	131.92
404.053	72.53
404.262	97.11
404.471	111.44
404.68	109.4
404.888	131.92
405.097	95.06
405.306	70.48
405.515	158.55
405.724	164.69
405.933	68.44
406.142	101.2
406.35	199.51
406.559	176.98
406.768	131.92
406.977	185.17
407.185	97.11
407.394	168.79
407.603	140.12
407.812	158.55
408.02	179.03
408.229	105.3
408.438	111.44
408.646	183.12
408.855	176.98
409.064	242.51
409.272	228.18
409.481	236.37
409.69	199.51
409.898	291.66
410.107	238.42
410.315	187.22
410.524	279.38
410.733	269.14
410.941	291.66
411.15	254.8
411.358	267.09
411.567	297.81
411.775	301.9
411.984	275.28
412.192	293.71
412.401	344.91
412.609	353.1
412.818	459.6
413.026	361.3
413.234	330.58
413.443	420.69
413.651	375.63
413.86	412.5
414.068	402.26
414.276	455.5
414.485	453.45
414.693	451.41
414.901	559.95
415.11	535.37
415.318	551.76
415.526	555.85
415.734	498.51
415.943	613.2
416.151	621.39
416.359	619.34
416.567	678.73
416.776	635.72
416.984	691.02
417.192	699.21
417.4	627.53
417.608	750.41
417.817	777.03
418.025	803.66
418.233	910.15
418.441	897.86
418.649	869.19
418.857	916.3
419.065	918.34
419.273	861
419.481	1006.41
419.689	1063.75
419.897	1102.66
420.105	1078.08
420.313	1147.72
420.521	1186.63
420.729	1229.63
420.937	1182.53
421.145	1358.66
421.353	1356.61
421.561	1481.53
421.769	1389.38
421.977	1616.7
422.185	1510.21
422.393	1463.1
422.601	1690.43
422.809	1672
423.017	1682.24
423.224	1659.71
423.432	1878.84
423.64	1940.28
423.848	1915.7
424.056	1895.22
424.263	2089.78
424.471	2075.45
424.679	2159.41
424.887	2255.67
425.094	2247.48
425.302	2276.15
425.51	2478.9
425.718	2433.84
425.925	2468.66
426.133	2544.43
426.341	2640.69
426.548	2714.41
426.756	2853.67
426.964	2894.63
427.171	3195.68
427.379	3173.16
427.586	3134.25
427.794	3308.32
428.001	3451.68
428.209	3500.83
428.417	3388.19
428.624	3830.55
428.832	3758.88
429.039	3781.4
429.247	3824.41
429.454	3926.81
429.662	4354.83
429.869	4160.28
430.076	4336.4
430.284	4213.53
430.491	4301.59
430.699	4737.81
430.906	4700.94
431.114	4846.35
431.321	4995.85
431.528	5083.91
431.736	5229.32
431.943	5528.32
432.15	5452.55
432.358	5425.92
432.565	5806.84
432.772	5769.98
432.979	5954.3
433.187	6181.62
433.394	6265.59
433.601	6619.89
433.808	6761.2
434.016	6683.38
434.223	6912.75
434.43	7265
434.637	7197.42
434.844	7654.11
435.052	7619.3
435.259	7652.06
435.466	7815.9
435.673	7582.43
435.88	8018.65
436.087	8614.61
436.294	8555.22
436.501	8325.85
436.708	8424.15
436.915	8753.87
437.122	9226.95
437.329	9196.23
437.537	9493.19
437.743	9695.94
437.95	9706.18
438.157	10103.48
438.364	10613.43
438.571	10457.78
438.778	10496.69
438.985	11690.66
439.192	10902.19
439.399	11264.68
439.606	11113.13
439.813	11696.8
440.02	12458.65
440.227	12243.61
440.433	12137.12
440.64	12655.25
440.847	12315.29
441.054	12831.38
441.261	13560.45
441.467	13519.5
441.674	13920.9
441.881	14164.61
442.088	14119.55
442.294	14072.45
442.501	14484.09
442.708	14676.6
442.914	15266.41
443.121	15610.47
443.328	15395.43
443.534	16521.82
443.741	15829.6
443.948	15868.52
444.154	16933.46
444.361	16898.64
444.568	16751.19
444.774	17173.07
444.981	17234.51
445.187	17623.62
445.394	18618.94
445.6	18283.07
445.807	20210.21
446.013	19393.07
446.22	19507.76
446.426	20267.55
446.633	20474.4
446.839	21281.3
447.046	20185.63
447.252	21301.78
447.459	21326.35
447.665	21342.74
447.871	22217.22
448.078	22913.53
448.284	22039.05
448.491	22659.58
448.697	23423.47
448.903	23564.78
449.11	24025.57
449.316	23398.9
449.522	23894.5
449.728	24730.08
449.935	24588.77
450.141	24908.25
450.347	25448.91
450.553	24426.98
450.76	25039.32
450.966	25547.22
451.172	25156.05
451.378	25985.48
451.584	25453.01
451.791	26108.36
451.997	26102.22
452.203	26460.61
452.409	26221
452.615	26153.41
452.821	25088.47
453.027	24902.11
453.233	26350.02
453.44	25188.82
453.646	25643.47
453.852	25657.81
454.058	25977.29
454.264	25453.01
454.47	25614.8
454.676	25024.98
454.882	25850.31
455.088	23546.35
455.294	23912.94
455.5	24279.52
455.705	24682.97
455.911	23546.35
456.117	23308.79
456.323	22950.39
456.529	21395.98
456.735	22626.81
456.941	21950.98
457.147	21662.22
457.352	20865.56
457.558	20742.68
457.764	20671
457.97	20468.25
458.176	20132.39
458.381	19862.05
458.587	18815.54
458.793	19061.3
458.999	18092.61
459.204	19190.32
459.41	18655.8
459.616	17461.83
459.821	17492.55
460.027	17404.49
460.233	16908.88
460.438	16271.97
460.644	16302.68
460.85	15473.26
461.055	15231.6
461.261	15235.69
461.466	14408.31
461.672	13980.29
461.878	14654.07
462.083	13830.79
462.289	13464.2
462.494	13499.02
462.7	12989.07
462.905	12432.02
463.111	13085.33
463.316	12841.62
463.522	12835.47
463.727	12735.12
463.932	12774.03
464.138	12733.08
464.343	12874.38
464.549	12409.5
464.754	12649.11
464.959	12776.08
465.165	12679.83
465.37	11862.69
465.575	11737.76
465.781	12067.49
465.986	12257.95
466.191	11756.19
466.397	11492.01
466.602	10937.01
466.807	11348.65
467.012	11229.87
467.218	11309.74
467.423	11102.89
467.628	11276.97
467.833	11764.39
468.038	11248.3
468.244	11039.4
468.449	11403.94
468.654	11246.25
468.859	10973.87
469.064	10963.63
469.269	10377.91
469.474	10619.57
469.679	10850.99
469.885	10494.65
470.09	10685.11
470.295	10414.77
470.5	10169.02
470.705	10437.3
470.91	10021.56
471.115	10048.19
471.32	10343.1
471.525	9994.94
471.73	9697.99
471.935	9673.41
472.139	9409.22
472.344	9708.23
472.549	9556.68
472.754	9327.3
472.959	9253.58
473.164	8975.05
473.369	8970.96
473.574	9263.82
473.778	9044.68
473.983	9048.78
474.188	8927.95
474.393	8614.61
474.598	8637.14
474.802	8430.29
475.007	8327.89
475.212	8495.83
475.417	8110.81
475.621	8184.54
475.826	8182.49
476.031	8069.85
476.235	7887.58
476.44	8219.35
476.645	7815.9
476.849	7928.54
477.054	7736.03
477.259	7607.01
477.463	7824.09
477.668	7310.05
477.872	7514.85
478.077	7428.84
478.282	7125.74
478.486	7199.46
478.691	7238.37
478.895	7299.81
479.1	7058.15
479.304	7168.74
479.509	6920.94
479.713	6980.33
479.918	6918.89
480.122	6826.73
480.326	6933.23
480.531	6816.49
480.735	6777.58
480.94	6724.33
481.144	6927.08
481.348	6572.79
481.553	6722.29
481.757	6482.67
481.961	6589.17
482.166	6748.91
482.37	6638.32
482.574	6482.67
482.778	6546.16
482.983	6734.57
483.187	6605.55
483.391	6742.77
483.595	6542.07
483.8	6445.81
484.004	6695.66
484.208	6572.79
484.412	6525.68
484.616	6544.11
484.821	6775.53
485.025	6613.74
485.229	6699.76
485.433	6628.08
485.637	6685.42
485.841	6515.44
486.045	6490.87
486.249	6681.33
486.453	6519.54
486.657	6587.12
486.861	6681.33
487.065	6517.49
487.269	6607.6
487.473	6580.98
487.677	6632.18
487.881	6568.69
488.085	6492.91
488.289	6468.34
488.493	6595.31
488.697	6693.62
488.901	6488.82
489.105	6740.72
489.309	6783.73
489.512	6636.27
489.716	6611.7
489.92	6601.46
490.124	6748.91
490.328	6781.68
490.531	6759.15
490.735	6847.21
490.939	6767.34
491.143	6697.71
491.346	6746.86
491.55	6892.27
491.754	7058.15
491.958	6939.37
492.161	6853.36
492.365	7006.95
492.569	6974.19
492.772	6931.18
492.976	7039.72
493.18	7082.73
493.383	7158.5
493.587	7199.46
493.79	7281.38
493.994	7269.09
494.197	7213.8
494.401	7410.4
494.605	7314.15
494.808	7647.97
495.012	7658.21
495.215	7457.51
495.419	7609.06
495.622	7564
495.825	7799.52
496.029	7664.35
496.232	8020.7
496.436	7942.88
496.639	8022.75
496.843	7918.3
497.046	8356.57
497.249	8219.35
497.453	8428.24
497.656	8428.24
497.859	8495.83
498.063	8661.71
498.266	8747.73
498.469	8708.82
498.673	8815.31
498.876	8993.48
499.079	9003.72
499.282	8815.31
499.485	9360.07
499.689	9417.41
499.892	9401.03
500.095	9566.92
500.298	9540.29
500.501	9581.25
500.705	9919.17
500.908	10072.76
501.111	9958.08
501.314	10414.77
501.517	10191.55
501.72	10543.8
501.923	10486.45
502.126	10658.48
502.329	10801.84
502.532	10908.33
502.735	10953.39
502.938	11160.24
503.141	11215.53
503.344	11389.61
503.547	11281.07
503.75	11643.56
503.953	11793.06
504.156	11854.5
504.359	12014.24
504.562	12036.77
504.765	12421.78
504.968	12796.56
505.17	12743.31
505.373	12917.39
505.576	13050.51
505.779	13181.58
505.982	13214.35
506.185	13382.28
506.387	13499.02
506.59	13761.16
506.793	13992.58
506.996	13914.75
507.198	14324.35
507.401	14430.84
507.604	14621.3
507.807	14920.31
508.009	14838.39
508.212	15026.8
508.415	15508.07
508.617	15487.59
508.82	15485.55
509.022	15538.79
509.225	16163.42
509.428	16061.02
509.63	16169.57
509.833	16386.65
510.035	16976.47
510.238	16958.03
510.44	16812.63
510.643	17330.76
510.845	17633.86
511.048	17347.15
511.25	18004.55
511.453	17902.15
511.655	18567.74
511.858	18467.39
512.06	18344.51
512.262	18774.58
512.465	18827.83
512.667	19284.53
512.87	19290.67
513.072	19608.11
513.274	19849.77
513.477	19978.79
513.679	20294.18
513.881	20566.56
514.084	20640.28
514.286	20378.14
514.488	20709.91
514.69	21543.44
514.893	21500.43
515.095	21740.04
515.297	22245.89
515.499	22006.28
515.701	22462.97
515.904	22970.87
516.106	22852.09
516.308	23196.15
516.51	23538.16
516.712	23577.07
516.914	23933.42
517.116	24175.08
517.318	24349.15
517.52	24740.32
517.722	24558.05
517.925	25020.89
518.127	25213.4
518.329	25600.46
518.531	25602.51
518.733	25909.71
518.935	26237.38
519.136	26386.88
519.338	26808.76
519.54	27091.38
519.742	27167.16
519.944	27294.13
520.146	27990.44
520.348	28090.79
520.55	28289.45
520.752	28420.52
520.954	28649.89
521.155	28744.09
521.357	29182.36
521.559	29360.53
521.761	29768.08
521.963	29680.02
522.164	30112.14
522.366	29958.54
522.568	30448
522.77	30423.43
522.971	31066.49
523.173	31164.79
523.375	31467.89
523.576	31656.31
523.778	31451.51
523.98	31895.92
524.181	31873.39
524.383	32125.29
524.584	32534.88
524.786	32668
524.988	32831.84
525.189	33034.59
525.391	33110.36
525.592	33444.18
525.794	33532.25
525.995	33829.2
526.197	33626.45
526.398	34261.32
526.6	34097.49
526.801	34199.88
527.003	34713.92
527.204	34775.36
527.406	35035.45
527.607	34769.22
527.808	35160.38
528.01	34347.34
528.211	34933.06
528.412	35434.81
528.614	35381.56
528.815	35492.15
529.016	35604.79
529.218	35561.78
529.419	35873.07
529.62	36012.34
529.822	36069.68
530.023	36268.33
530.224	36237.61
530.425	36612.39
530.626	36061.49
530.828	36102.45
531.029	37146.91
531.23	36540.71
531.431	36301.1
531.632	36776.23
531.833	36632.87
532.035	36682.02
532.236	37015.84
532.437	36946.21
532.638	36544.81
532.839	37251.36
533.04	37071.14
533.241	36636.97
533.442	37437.72
533.643	37187.87
533.844	37151.01
534.045	37234.97
534.246	36800.8
534.447	37536.02
534.648	37071.14
534.849	37347.61
535.05	37327.13
535.251	37388.57
535.451	37366.04
535.652	37536.02
535.853	37667.09
536.054	37482.78
536.255	37767.45
536.456	37009.7
536.657	37902.61
536.857	37658.9
537.058	37251.36
537.259	37751.06
537.46	37615.9
537.66	37665.05
537.861	37835.03
538.062	37497.11
538.263	38134.03
538.463	37294.36
538.664	37364
538.865	37507.35
539.065	37773.59
539.266	37173.53
539.466	38015.25
539.667	37402.91
539.868	37902.61
540.068	37183.77
540.269	37927.19
540.469	37953.81
540.67	37171.49
540.87	37951.76
541.071	37318.94
541.271	37572.89
541.472	37462.3
541.672	37507.35
541.873	37327.13
542.073	37472.54
542.274	37773.59
542.474	36993.31
542.675	37386.52
542.875	38127.89
543.075	37511.45
543.276	36940.07
543.476	37681.43
543.676	37591.32
543.877	37992.72
544.077	37816.6
544.277	37560.6
544.478	37282.08
544.678	37875.99
544.878	37333.28
545.078	37857.56
545.279	37089.57
545.479	37110.05
545.679	37640.47
545.879	37370.14
546.079	37370.14
546.28	37320.99
546.48	37261.6
546.68	37728.53
546.88	37517.59
547.08	37501.21
547.28	37415.19
547.48	36911.39
547.68	37605.66
547.88	37443.87
548.081	37738.77
548.281	37429.53
548.481	37132.57
548.681	37689.62
548.881	37556.5
549.081	37241.12
549.28	37046.56
549.48	37519.64
549.68	37370.14
549.88	37832.98
550.08	37108
550.28	37175.58
550.48	37253.4
550.68	37515.54
550.88	37101.86
551.08	37259.55
551.279	37759.25
551.479	37093.66
551.679	37450.01
551.879	37220.64
552.079	37597.46
552.278	37155.1
552.478	37476.63
552.678	37447.96
552.878	37691.67
553.077	37218.59
553.277	37009.7
553.477	37654.81
553.676	37011.74
553.876	37048.61
554.076	36823.33
554.275	37234.97
554.475	36682.02
554.674	37376.28
554.874	37069.09
555.074	36993.31
555.273	36931.87
555.473	37083.42
555.672	36630.82
555.872	36882.72
556.071	36509.99
556.271	36927.78
556.47	36598.05
556.67	36292.91
556.869	36596.01
557.068	36739.36
557.268	36505.9
557.467	36772.13
557.667	36630.82
557.866	36362.54
558.065	35920.18
558.265	36170.03
558.464	36331.82
558.663	36737.32
558.863	35598.65
559.062	36639.01
559.261	35653.94
559.461	36079.92
559.66	35533.11
559.859	36186.41
560.058	35868.98
560.258	36065.58
560.457	35537.21
560.656	35987.76
560.855	35709.24
561.054	35815.73
561.253	35354.94
561.453	35985.71
561.652	35625.27
561.851	35746.1
562.05	35494.2
562.249	35268.92
562.448	35823.92
562.647	35553.59
562.846	35182.91
563.045	35111.23
563.244	34945.34
563.443	35420.47
563.642	34675.01
563.841	35111.23
564.04	34801.99
564.239	35154.24
564.438	34619.72
564.637	34828.61
564.836	34783.55
565.035	34572.61
565.234	34580.81
565.432	34535.75
565.631	34720.07
565.83	34574.66
566.029	34089.29
566.228	34367.82
566.427	34191.69
566.625	34285.9
566.824	33694.04
567.023	34095.44
567.222	33589.59
567.42	34197.84
567.619	33896.78
567.818	33753.43
568.016	33845.58
568.215	33833.3
568.414	33665.36
568.612	33460.57
568.811	33507.67
569.01	33288.54
569.208	32973.15
569.407	33050.97
569.605	33079.64
569.804	33239.39
570.002	32844.13
570.201	33151.32
570.4	32493.93
570.598	33073.5
570.797	32125.29
570.995	32559.46
571.193	32289.13
571.392	32776.55
571.59	32190.83
571.789	32442.73
571.987	32106.86
572.186	32024.94
572.384	32078.19
572.582	32319.85
572.781	31719.79
572.979	31353.21
573.177	31805.81
573.376	31719.79
573.574	31283.58
573.772	31660.4
573.971	31635.83
574.169	31259
574.367	30966.14
574.565	31443.32
574.763	30949.76
574.962	30720.38
575.16	30611.84
575.358	30841.21
575.556	30634.37
575.754	30914.94
575.952	30282.12
576.151	30728.58
576.349	29872.53
576.547	30357.89
576.745	30411.14
576.943	29987.21
577.141	30089.61
577.339	30030.22
577.537	29600.15
577.735	29862.29
577.933	29344.15
578.131	29677.97
578.329	29444.5
578.527	28971.42
578.725	29413.78
578.923	29550.99
579.121	28869.02
579.319	29204.89
579.516	29180.31
579.714	29194.65
579.912	28783.01
580.11	28977.56
580.308	28438.95
580.506	28508.58
580.704	28430.76
580.901	28555.68
581.099	28649.89
581.297	28144.04
581.495	28207.53
581.692	28105.13
581.89	28117.42
582.088	28322.21
582.285	28105.13
582.483	27924.91
582.681	28404.13
582.878	27670.96
583.076	27498.93
583.274	27556.27
583.471	27185.59
583.669	27302.32
583.866	27206.07
584.064	27044.28
584.262	27189.69
584.459	27433.39
584.657	26917.31
584.854	26708.41
585.052	26745.28
585.249	26716.61
585.447	26786.24
585.644	26577.34
585.841	26417.6
586.039	26464.71
586.236	26173.89
586.434	26479.04
586.631	26190.28
586.828	26280.39
587.026	26282.44
587.223	26151.37
587.42	25758.16
587.618	25891.27
587.815	25829.84
588.012	25584.08
588.21	25573.84
588.407	25889.23
588.604	25549.26
588.801	25520.59
588.999	25422.29
589.196	25262.55
589.393	25373.14
589.59	24920.54
589.787	24781.28
589.984	24900.06
590.182	24918.49
590.379	24947.16
590.576	24627.68
590.773	24814.04
590.97	24295.91
591.167	24830.43
591.364	24447.46
591.561	24814.04
591.758	24373.73
591.955	24023.53
592.152	24349.15
592.349	24238.56
592.546	24039.91
592.743	24068.58
592.94	23546.35
593.137	23849.45
593.334	23896.55
593.531	23767.53
593.727	23828.97
593.924	23523.82
594.121	23296.5
594.318	23544.3
594.515	23147
594.712	23235.06
594.908	23245.3
595.105	23153.14
595.302	23001.59
595.499	22917.62
595.696	23095.8
595.892	22997.49
596.089	23054.84
596.286	22858.23
596.482	22635
596.679	22534.65
596.876	23034.36
597.072	22415.87
597.269	22512.13
597.466	22129.16
597.662	21940.74
597.859	22491.65
598.055	22131.2
598.252	22223.36
598.448	22157.83
598.645	21969.41
598.841	21809.67
599.038	22438.4
599.234	22129.16
599.431	21633.55
599.627	21629.45
599.824	21873.16
600.02	21297.68
600.217	21406.22
600.413	21176.85
600.609	21363.22
600.806	21312.02
601.002	21051.92
601.198	21135.89
601.395	20791.83
601.591	20957.72
601.787	21066.26
601.984	20875.8
602.18	21094.93
602.376	20951.57
602.572	20357.66
602.769	20599.32
602.965	20576.8
603.161	20589.08
603.357	20259.36
603.553	20281.89
603.75	20173.35
603.946	20154.91
604.142	20472.35
604.338	20005.41
604.534	20335.14
604.73	19989.03
604.926	19755.56
605.122	19894.82
605.318	19573.29
605.514	19804.71
605.71	19575.34
605.906	19548.72
606.102	19581.48
606.298	19499.56
606.494	19294.77
606.69	19397.17
606.886	19515.95
607.082	19257.9
607.278	18893.37
607.474	19059.25
607.67	19182.13
607.866	18747.96
608.062	18971.19
608.257	18858.55
608.453	18885.17
608.649	18821.69
608.845	18537.02
609.041	18721.34
609.236	18762.3
609.432	18698.81
609.628	18676.28
609.824	18424.38
610.019	18438.72
610.215	18307.65
610.411	18383.42
610.606	18029.12
610.802	18285.12
610.998	18451
611.193	18092.61
611.389	18135.62
611.584	18205.25
611.78	17953.35
611.976	17846.85
612.171	17830.47
612.367	18010.69
612.562	17695.3
612.758	17572.43
612.953	17648.2
613.149	17855.04
613.344	17576.52
613.539	17910.34
613.735	17521.23
613.93	17635.91
614.126	17506.89
614.321	17566.28
614.517	17441.36
614.712	17201.74
614.907	17226.32
615.103	17349.2
615.298	17134.16
615.493	17257.04
615.688	17009.23
615.884	17121.87
616.079	17056.34
616.274	17095.25
616.47	16958.03
616.665	16906.84
616.86	17013.33
617.055	16859.73
617.25	16644.7
617.445	16648.79
617.641	16476.76
617.836	16802.39
618.031	16552.54
618.226	16554.58
618.421	16454.23
618.616	16364.12
618.811	16192.09
619.006	16468.57
619.201	16106.08
619.396	16288.35
619.591	15987.3
619.786	15792.74
619.981	15903.33
620.176	16001.63
620.371	15766.12
620.566	15762.02
620.761	15696.49
620.956	15620.71
621.151	15276.65
621.346	15274.6
621.541	15039.09
621.735	15571.56
621.93	15204.97
622.125	15104.62
622.32	15006.32
622.515	15147.63
622.709	14848.63
622.904	14953.07
623.099	14695.03
623.294	14813.81
623.488	14789.24
623.683	14695.03
623.878	14324.35
624.072	14267
624.267	14369.4
624.462	13914.75
624.656	14002.82
624.851	14090.88
625.046	14199.42
625.24	13795.97
625.435	13912.71
625.629	13750.92
625.824	13818.5
626.018	13675.14
626.213	13415.05
626.407	13648.52
626.602	13157
626.796	13429.38
626.991	13286.03
627.185	13335.18
627.38	12978.83
627.574	13021.84
627.768	12780.18
627.963	12743.31
628.157	12761.75
628.352	12849.81
628.546	12479.13
628.74	12587.67
628.935	12503.7
629.129	12649.11
629.323	12343.96
629.517	12221.08
629.712	12262.04
629.906	12165.79
630.1	12028.57
630.294	12237.47
630.489	12040.86
630.683	12225.18
630.877	11971.23
631.071	11782.82
631.265	11848.35
631.459	11661.99
631.653	11725.47
631.848	11653.8
632.042	11741.86
632.236	11461.29
632.43	11342.5
632.624	11424.42
632.818	11326.12
633.012	11166.38
633.206	11125.42
633.4	11264.68
633.594	10869.42
633.788	11160.24
633.982	10975.92
634.176	11004.59
634.369	10756.79
634.563	10693.3
634.757	10738.35
634.951	10574.52
635.145	10820.27
635.339	10642.1
635.533	10525.36
635.726	10463.93
635.92	10617.52
636.114	10269.37
636.308	10113.72
636.501	10457.78
636.695	10332.86
636.889	10322.62
637.083	10037.95
637.276	10099.39
637.47	10048.19
637.664	9691.84
637.857	9743.04
638.051	9921.21
638.244	9708.23
638.438	9665.22
638.632	9534.15
638.825	9446.09
639.019	9687.75
639.212	9194.19
639.406	9482.95
639.599	9358.02
639.793	9251.53
639.986	9208.52
640.18	9218.76
640.373	9208.52
640.567	9026.25
640.76	9237.19
640.954	8893.13
641.147	9016.01
641.34	9059.02
641.534	8839.89
641.727	8827.6
641.92	8772.3
642.114	8811.21
642.307	8731.34
642.5	8569.55
642.694	8528.6
642.887	8405.72
643.08	8426.2
643.273	8573.65
643.467	8473.3
643.66	8338.13
643.853	8303.32
644.046	8145.63
644.239	8155.86
644.432	7996.12
644.626	8057.56
644.819	8096.47
645.012	8035.03
645.205	7817.95
645.398	7867.1
645.591	7772.89
645.784	7873.25
645.977	7727.84
646.17	7695.07
646.363	7768.8
646.556	7361.25
646.749	7480.04
646.942	7498.47
647.135	7412.45
647.328	7471.84
647.521	7359.21
647.714	7236.33
647.907	7248.61
648.099	7213.8
648.292	7260.9
648.485	7090.92
648.678	6953.71
648.871	7228.14
649.064	7117.54
649.256	7080.68
649.449	6847.21
649.642	6900.46
649.835	6974.19
650.027	7021.29
650.22	6669.04
650.413	6888.17
650.605	6695.66
650.798	6591.22
650.991	6685.42
651.183	6605.55
651.376	6421.24
651.568	6482.67
651.761	6378.23
651.954	6417.14
652.146	6552.31
652.339	6406.9
652.531	6271.73
652.724	6275.83
652.916	6161.14
653.109	6337.27
653.301	6140.66
653.494	6175.48
653.686	6040.31
653.879	6128.38
654.071	6028.03
654.263	5970.68
654.456	5921.53
654.648	6023.93
654.84	5841.66
655.033	5925.63
655.225	5837.56
655.417	5716.73
655.61	5839.61
655.802	5679.87
655.994	5593.86
656.186	5692.16
656.379	5630.72
656.571	5546.75
656.763	5470.98
656.955	5540.61
657.148	5507.84
657.34	5522.18
657.532	5458.69
657.724	5274.37
657.916	5358.34
658.108	5298.95
658.3	5290.76
658.492	5317.38
658.684	5241.61
658.876	5139.21
659.068	5116.68
659.26	5198.6
659.452	5085.96
659.644	4969.23
659.836	5163.78
660.028	4975.37
660.22	4967.18
660.412	4956.94
660.604	4997.9
660.796	4842.25
660.988	5022.47
661.18	4705.04
661.372	4711.18
661.563	4823.82
661.755	4723.47
661.947	4776.72
662.139	4739.85
662.331	4518.67
662.522	4512.53
662.714	4524.82
662.906	4518.67
663.097	4487.95
663.289	4490
663.481	4561.68
663.673	4567.82
663.864	4479.76
664.056	4356.88
664.247	4354.83
664.439	4205.33
664.631	4326.16
664.822	4141.85
665.014	4238.1
665.205	4137.75
665.397	4317.97
665.588	4270.87
665.78	4195.09
665.971	4035.35
666.163	4160.28
666.354	4117.27
666.546	4053.78
666.737	4098.84
666.929	4201.24
667.12	3949.34
667.311	4041.5
667.503	4012.82
667.694	3965.72
667.885	3861.27
668.077	3990.3
668.268	3828.51
668.459	3767.07
668.651	3789.6
668.842	3732.25
669.033	3795.74
669.224	3597.09
669.416	3711.77
669.607	3812.12
669.798	3703.58
669.989	3795.74
670.18	3681.05
670.371	3670.81
670.563	3572.51
670.754	3525.41
670.945	3586.85
671.136	3636
671.327	3597.09
671.518	3418.91
671.709	3683.1
671.9	3433.25
672.091	3592.99
672.282	3474.21
672.473	3392.29
672.664	3445.54
672.855	3451.68
673.046	3306.27
673.237	3511.07
673.428	3427.11
673.619	3253.03
673.809	3320.61
674	3349.28
674.191	3380
674.382	3347.23
674.573	3193.64
674.764	3296.04
674.954	3322.66
675.145	3291.94
675.336	3302.18
675.527	3312.42
675.717	3171.11
675.908	3289.89
676.099	3177.25
676.289	3181.35
676.48	3160.87
676.671	3218.21
676.861	3257.12
677.052	3283.75
677.243	3115.81
677.433	3191.59
677.624	3085.09
677.814	3029.8
678.005	3081
678.195	3072.81
678.386	3136.29
678.576	3083.05
678.767	3040.04
678.957	3048.23
679.148	3201.83
679.338	3081
679.529	2960.17
679.719	2947.88
679.909	3009.32
680.1	3115.81
680.29	2997.03
680.481	2919.21
680.671	2939.69
680.861	3019.56
681.052	2990.89
681.242	2888.49
681.432	2890.54
681.622	2902.83
681.813	2876.2
682.003	2935.59
682.193	2913.06
682.383	2954.02
682.573	2878.25
682.764	2847.53
682.954	2810.67
683.144	2822.95
683.334	2767.66
683.524	2747.18
683.714	2868.01
683.904	2884.39
684.094	2814.76
684.284	2775.85
684.474	2884.39
684.664	2812.71
684.854	2769.71
685.044	2755.37
685.234	2820.91
685.424	2747.18
685.614	2820.91
685.804	2716.46
685.994	2784.04
686.184	2689.84
686.374	2769.71
686.564	2808.62
686.753	2730.8
686.943	2724.65
687.133	2698.03
687.323	2689.84
687.513	2728.75
687.702	2640.69
687.892	2687.79
688.082	2566.96
688.272	2700.08
688.461	2698.03
688.651	2607.92
688.841	2542.38
689.03	2634.54
689.22	2632.49
689.41	2503.47
689.599	2671.4
689.789	2599.73
689.979	2571.05
690.168	2630.45
690.358	2544.43
690.547	2714.41
690.737	2624.3
690.926	2513.71
691.116	2464.56
691.305	2614.06
691.495	2474.8
691.684	2677.55
691.874	2499.38
692.063	2583.34
692.252	2577.2
692.442	2632.49
692.631	2480.94
692.82	2556.72
693.01	2632.49
693.199	2474.8
693.388	2603.82
693.578	2489.14
693.767	2591.53
693.956	2415.41
694.146	2411.31
694.335	2485.04
694.524	2480.94
694.713	2603.82
694.902	2599.73
695.092	2487.09
695.281	2599.73
695.47	2546.48
695.659	2560.81
695.848	2491.18
696.037	2511.66
696.226	2550.57
696.415	2564.91
696.604	2374.45
696.793	2411.31
696.982	2476.85
697.171	2507.57
697.36	2464.56
697.549	2480.94
697.738	2343.73
697.927	2511.66
698.116	2482.99
698.305	2511.66
698.494	2394.93
698.683	2558.77
698.872	2458.42
699.061	2542.38
699.25	2368.31
699.438	2421.55
699.627	2454.32
699.816	2460.46
700.005	2485.04
700.193	2466.61
700.382	2405.17
700.571	2460.46
700.76	2480.94
700.948	2407.22
701.137	2423.6
701.326	2470.7
701.514	2423.6
701.703	2413.36
701.892	2435.89
702.08	2380.59
702.269	2460.46
702.457	2482.99
702.646	2386.74
702.834	2327.35
703.023	2464.56
703.212	2366.26
703.4	2382.64
703.589	2333.49
703.777	2288.43
703.965	2280.24
704.154	2341.68
704.342	2485.04
704.531	2265.91
704.719	2376.5
704.907	2321.2
705.096	2296.63
705.284	2290.48
705.472	2288.43
705.661	2214.71
705.849	2388.78
706.037	2347.83
706.226	2323.25
706.414	2237.24
706.602	2237.24
706.79	2188.08
706.979	2259.76
707.167	2257.71
707.355	2222.9
707.543	2224.95
707.731	2339.63
707.919	2339.63
708.107	2198.32
708.296	2124.6
708.484	2134.84
708.672	2210.61
708.86	2181.94
709.048	2235.19
709.236	2126.64
709.424	2132.79
709.612	2077.49
709.8	2104.12
709.988	2083.64
710.176	2218.8
710.364	2120.5
710.551	2050.87
710.739	2100.02
710.927	2181.94
711.115	2120.5
711.303	2011.96
711.491	2106.17
711.679	2026.29
711.866	2001.72
712.054	2063.16
712.242	1983.29
712.43	2011.96
712.617	2140.98
712.805	1948.47
712.993	2059.06
713.181	2059.06
713.368	2052.92
713.556	1868.6
713.744	1923.9
713.931	1964.86
714.119	1977.14
714.306	2095.93
714.494	1950.52
714.682	1876.79
714.869	1905.46
715.057	1997.62
715.244	1930.04
715.432	1893.18
715.619	1909.56
715.807	1848.12
715.994	1893.18
716.182	1841.98
716.369	1874.74
716.556	1889.08
716.744	1782.59
716.931	1745.72
717.119	1913.66
717.306	1907.51
717.493	1794.87
717.681	1741.63
717.868	1897.27
718.055	1862.46
718.242	1768.25
718.43	1692.48
718.617	1700.67
718.804	1794.87
718.991	1715
719.179	1786.68
719.366	1753.91
719.553	1801.02
719.74	1792.83
719.927	1694.52
720.114	1626.94
720.301	1588.03
720.488	1735.48
720.676	1616.7
720.863	1833.79
721.05	1715
721.237	1708.86
721.424	1684.28
721.611	1626.94
721.798	1631.04
721.985	1588.03
722.172	1585.98
722.358	1686.33
722.545	1700.67
722.732	1598.27
722.919	1655.61
723.106	1540.93
723.293	1590.08
723.48	1557.31
723.667	1620.8
723.853	1538.88
724.04	1575.74
724.227	1602.36
724.414	1448.77
724.6	1606.46
724.787	1618.75
724.974	1612.6
725.161	1583.93
725.347	1454.91
725.534	1522.49
725.72	1569.6
725.907	1522.49
726.094	1565.5
726.28	1538.88
726.467	1536.83
726.653	1467.2
726.84	1561.41
727.027	1504.06
727.213	1411.9
727.4	1489.73
727.586	1551.17
727.773	1401.66
727.959	1477.44
728.145	1461.06
728.332	1463.1
728.518	1465.15
728.705	1452.86
728.891	1561.41
729.077	1483.58
729.264	1534.78
729.45	1368.9
729.636	1354.56
729.823	1420.1
730.009	1430.34
730.195	1342.27
730.382	1450.82
730.568	1375.04
730.754	1338.18
730.94	1342.27
731.126	1377.09
731.313	1387.33
731.499	1313.6
731.685	1416
731.871	1338.18
732.057	1407.81
732.243	1309.51
732.429	1440.58
732.615	1336.13
732.801	1211.2
732.987	1223.49
733.173	1403.71
733.359	1264.45
733.545	1336.13
733.731	1266.5
733.917	1256.26
734.103	1256.26
734.289	1286.98
734.475	1284.93
734.661	1340.22
734.847	1241.92
735.033	1297.22
735.219	1313.6
735.404	1133.38
735.59	1321.79
735.776	1272.64
735.962	1233.73
736.148	1145.67
736.333	1280.83
736.519	1182.53
736.705	1114.95
736.89	1237.83
737.076	1180.48
737.262	1286.98
737.447	1213.25
737.633	1209.15
737.819	1231.68
738.004	1131.33
738.19	1080.13
738.375	1143.62
738.561	1121.09
738.747	1135.43
738.932	1237.83
739.118	1225.54
739.303	1160
739.489	1229.63
739.674	1094.47
739.859	1139.52
740.045	1121.09
740.23	1176.39
740.416	1192.77
740.601	1108.8
740.786	1143.62
740.972	1082.18
741.157	1055.56
741.342	1162.05
741.528	1174.34
741.713	1139.52
741.898	1065.8
742.084	1119.04
742.269	1147.72
742.454	1110.85
742.639	1037.13
742.824	1061.7
743.01	1018.69
743.195	1051.46
743.38	936.78
743.565	992.07
743.75	1094.47
743.935	1088.32
744.12	1039.17
744.305	961.35
744.49	1014.6
744.675	985.93
744.86	1049.41
745.045	895.82
745.23	906.06
745.415	1012.55
745.6	977.73
745.785	1049.41
745.97	897.86
746.155	969.54
746.34	867.14
746.525	1012.55
746.71	899.91
746.895	949.06
747.079	1014.6
747.264	920.39
747.449	944.97
747.634	944.97
747.819	961.35
748.003	904.01
748.188	932.68
748.373	822.09
748.557	867.14
748.742	877.38
748.927	883.53
749.111	879.43
749.296	826.18
749.481	861
749.665	830.28
749.85	838.47
750.034	842.57
750.219	822.09
750.404	777.03
750.588	807.75
750.773	803.66
750.957	852.81
751.141	727.88
751.326	797.51
751.51	789.32
751.695	742.22
751.879	815.94
752.064	846.66
752.248	660.3
752.432	770.89
752.617	770.89
752.801	785.23
752.985	760.65
753.17	725.83
753.354	762.7
753.538	826.18
753.722	754.51
753.907	772.94
754.091	738.12
754.275	670.54
754.459	703.31
754.643	742.22
754.828	770.89
755.012	809.8
755.196	676.68
755.38	703.31
755.564	691.02
755.748	744.27
755.932	779.08
756.116	633.68
756.3	652.11
756.484	637.77
756.668	674.64
756.852	633.68
757.036	713.55
757.22	707.4
757.404	648.01
757.588	557.9
757.772	668.49
757.956	674.64
758.14	607.05
758.323	543.57
758.507	557.9
758.691	584.52
758.875	617.29
759.059	559.95
759.242	609.1
759.426	586.57
759.61	531.28
759.794	584.52
759.977	592.72
760.161	652.11
760.345	621.39
760.528	656.2
760.712	725.83
760.895	602.96
761.079	568.14
761.263	652.11
761.446	629.58
761.63	535.37
761.813	619.34
761.997	598.86
762.18	500.56
762.364	537.42
762.547	549.71
762.731	559.95
762.914	508.75
763.098	541.52
763.281	645.96
763.464	555.85
763.648	609.1
763.831	555.85
764.015	533.33
764.198	555.85
764.381	527.18
764.564	572.24
764.748	543.57
764.931	492.37
765.114	482.13
765.297	504.65
765.481	473.93
765.664	514.89
765.847	478.03
766.03	455.5
766.213	506.7
766.397	459.6
766.58	502.61
766.763	535.37
766.946	475.98
767.129	443.21
767.312	490.32
767.495	504.65
767.678	488.27
767.861	482.13
768.044	635.72
768.227	502.61
768.41	428.88
768.593	557.9
768.776	437.07
768.959	551.76
769.142	412.5
769.324	447.31
769.507	467.79
769.69	418.64
769.873	432.97
770.056	531.28
770.239	459.6
770.421	492.37
770.604	512.85
770.787	437.07
770.97	492.37
771.152	439.12
771.335	404.3
771.518	410.45
771.7	531.28
771.883	523.09
772.066	428.88
772.248	469.84
772.431	406.35
772.613	451.41
772.796	387.92
772.978	420.69
773.161	439.12
773.343	426.83
773.526	402.26
773.708	428.88
773.891	367.44
774.073	381.78
774.256	441.17
774.438	416.59
774.621	379.73
774.803	449.36
774.985	445.26
775.168	363.34
775.35	367.44
775.532	426.83
775.715	482.13
775.897	404.3
776.079	346.96
776.261	412.5
776.444	387.92
776.626	398.16
776.808	389.97
776.99	383.82
777.173	428.88
777.355	385.87
777.537	379.73
777.719	361.3
777.901	394.06
778.083	404.3
778.265	256.85
778.447	367.44
778.629	418.64
778.811	365.39
778.993	359.25
779.175	371.54
779.357	324.43
779.539	303.95
779.721	369.49
779.903	338.77
780.085	365.39
780.267	361.3
780.449	336.72
780.631	340.82
780.812	281.43
780.994	385.87
781.176	363.34
781.358	371.54
781.54	330.58
781.721	340.82
781.903	308.05
782.085	400.21
782.267	306
782.448	287.57
782.63	269.14
782.812	316.24
782.993	303.95
783.175	281.43
783.357	291.66
783.538	246.61
783.72	396.11
783.901	326.48
784.083	277.33
784.264	269.14
784.446	344.91
784.627	324.43
784.809	334.67
784.99	318.29
785.172	258.9
785.353	213.84
785.535	260.95
785.716	299.86
785.897	226.13
786.079	244.56
786.26	271.19
786.441	281.43
786.623	213.84
786.804	312.14
786.985	308.05
787.167	301.9
787.348	250.71
787.529	289.62
787.71	299.86
787.891	240.47
788.073	242.51
788.254	209.75
788.435	166.74
788.616	228.18
788.797	209.75
788.978	215.89
789.159	197.46
789.34	287.57
789.522	176.98
789.703	236.37
789.884	252.75
790.065	234.32
790.246	252.75
790.427	136.02
790.607	222.03
790.788	230.23
790.969	181.07
791.15	207.7
791.331	133.97
791.512	244.56
791.693	197.46
791.874	158.55
792.054	219.99
792.235	222.03
792.416	181.07
792.597	166.74
792.778	234.32
792.958	193.36
793.139	291.66
793.32	70.48
793.5	170.83
793.681	252.75
793.862	109.4
794.042	109.4
794.223	211.79
794.404	99.16
794.584	136.02
794.765	209.75
794.945	103.25
795.126	232.27
795.306	246.61
795.487	146.26
795.667	166.74
795.848	158.55
796.028	181.07
796.209	213.84
796.389	127.83
796.57	187.22
796.75	183.12
796.93	179.03
797.111	146.26
797.291	123.73
797.471	174.93
797.652	160.59
797.832	142.16
798.012	158.55
798.192	133.97
798.373	193.36
798.553	176.98
798.733	172.88
798.913	172.88
799.093	191.31
799.274	82.77
799.454	88.92
799.634	166.74
799.814	185.17
799.994	99.16
800.174	170.83
800.354	189.27
800.534	172.88
800.714	213.84
800.894	119.64
801.074	168.79
801.254	103.25
801.434	187.22
801.614	195.41
801.794	146.26
801.974	408.4
802.154	119.64
802.334	127.83
802.514	113.49
802.693	203.6
802.873	152.4
803.053	228.18
803.233	90.96
803.413	97.11
803.592	154.45
803.772	144.21
803.952	187.22
804.131	160.59
804.311	90.96
804.491	150.36
804.67	131.92
804.85	176.98
805.03	140.12
805.209	174.93
805.389	78.68
805.568	150.36
805.748	93.01
805.928	95.06
806.107	131.92
806.287	209.75
806.466	154.45
806.646	103.25
806.825	117.59
807.004	146.26
807.184	129.88
807.363	70.48
807.543	58.2
807.722	64.34
807.901	105.3
808.081	119.64
808.26	107.35
808.439	105.3
808.619	123.73
808.798	68.44
808.977	123.73
809.156	84.82
809.336	146.26
809.515	95.06
809.694	78.68
809.873	174.93
810.052	101.2
810.231	97.11
810.411	115.54
810.59	142.16
810.769	150.36
810.948	99.16
811.127	88.92
811.306	148.31
811.485	60.24
811.664	82.77
811.843	72.53
812.022	152.4
812.201	88.92
812.38	111.44
812.559	70.48
812.737	113.49
812.916	142.16
813.095	146.26
813.274	47.96
813.453	156.5
813.632	129.88
813.811	80.72
813.989	86.87
814.168	136.02
814.347	80.72
814.526	58.2
814.704	119.64
814.883	103.25
815.062	45.91
815.24	109.4
815.419	140.12
815.598	111.44
815.776	56.15
815.955	47.96
816.133	86.87
816.312	78.68
816.49	58.2
816.669	60.24
816.847	62.29
817.026	58.2
817.204	31.57
817.383	117.59
817.561	54.1
817.74	136.02
817.918	166.74
818.097	117.59
818.275	39.76
818.453	31.57
818.632	58.2
818.81	111.44
818.988	45.91
819.167	84.82
819.345	82.77
819.523	11.09
819.701	54.1
819.879	90.96
820.058	54.1
820.236	39.76
820.414	99.16
820.592	19.29
820.77	109.4
820.948	13.14
821.127	78.68
821.305	136.02
821.483	107.35
821.661	82.77
821.839	105.3
822.017	97.11
822.195	47.96
822.373	62.29
822.551	101.2
822.729	76.63
822.907	-13.48
823.085	76.63
823.262	90.96
823.44	47.96
823.618	66.39
823.796	115.54
823.974	62.29
824.152	54.1
824.329	103.25
824.507	47.96
824.685	129.88
824.863	117.59
825.04	2.9
825.218	68.44
825.396	68.44
825.574	88.92
825.751	66.39
825.929	62.29
826.107	80.72
826.284	60.24
826.462	58.2
826.639	111.44
826.817	19.29
826.994	86.87
827.172	101.2
827.349	21.33
827.527	52.05
827.704	-13.48
827.882	90.96
828.059	50
828.237	64.34
828.414	121.68
828.591	86.87
828.769	99.16
828.946	-3.24
829.124	64.34
829.301	72.53
829.478	105.3
829.655	70.48
829.833	13.14
830.01	21.33
830.187	39.76
830.364	9.05
830.542	21.33
830.719	19.29
830.896	140.12
831.073	74.58
831.25	76.63
831.427	-7.34
831.604	15.19
831.782	33.62
831.959	78.68
832.136	76.63
832.313	74.58
832.49	-15.53
832.667	58.2
832.844	93.01
833.021	19.29
833.198	31.57
833.374	99.16
833.551	58.2
833.728	133.97
833.905	66.39
834.082	78.68
834.259	99.16
834.436	27.48
834.612	68.44
834.789	13.14
834.966	25.43
835.143	62.29
835.319	68.44
835.496	58.2
835.673	39.76
835.85	60.24
836.026	39.76
836.203	64.34
836.38	74.58
836.556	56.15
836.733	58.2
836.909	72.53
837.086	7
837.262	72.53
837.439	17.24
837.616	115.54
837.792	50
837.968	109.4
838.145	113.49
838.321	62.29
838.498	52.05
838.674	52.05
838.851	35.67
839.027	39.76
839.203	-11.43
839.38	162.64
839.556	50
839.732	29.52
839.909	31.57
840.085	70.48
840.261	39.76
840.437	56.15
840.614	21.33
840.79	93.01
840.966	11.09
841.142	68.44
841.318	27.48
841.494	54.1
841.671	33.62
841.847	107.35
842.023	54.1
842.199	113.49
842.375	17.24
842.551	21.33
842.727	70.48
842.903	41.81
843.079	35.67
843.255	50
843.431	74.58
843.607	23.38
843.783	127.83
843.959	35.67
844.134	80.72
844.31	29.52
844.486	50
844.662	0.85
844.838	17.24
845.013	95.06
845.189	41.81
845.365	21.33
845.541	-33.96
845.716	43.86
845.892	29.52
846.068	64.34
846.244	-27.82
846.419	19.29
846.595	17.24
846.77	31.57
846.946	7
847.122	43.86
847.297	72.53
847.473	13.14
847.648	-1.19
847.824	13.14
847.999	-21.67
848.175	58.2
848.35	21.33
848.526	39.76
848.701	-3.24
848.876	29.52
849.052	-38.06
849.227	105.3
849.403	74.58
849.578	2.9
849.753	127.83
849.929	93.01
850.104	13.14
850.279	39.76
850.454	27.48
850.63	25.43
850.805	33.62
850.98	29.52
851.155	52.05
851.33	-5.29
851.505	-52.39
851.681	66.39
851.856	39.76
852.031	33.62
852.206	-17.58
852.381	21.33
852.556	68.44
852.731	58.2
852.906	-3.24
853.081	64.34
853.256	66.39
853.431	23.38
853.606	17.24
853.781	-9.39
853.956	78.68
854.131	39.76
854.305	21.33
854.48	31.57
854.655	0.85
854.83	88.92
855.005	19.29
855.18	17.24
855.354	13.14
855.529	99.16
855.704	-1.19
855.879	58.2
856.053	-17.58
856.228	60.24
856.403	-70.83
856.577	88.92
856.752	54.1
856.926	13.14
857.101	19.29
857.276	33.62
857.45	56.15
857.625	60.24
857.799	39.76
857.974	-17.58
858.148	-62.63
858.323	52.05
858.497	11.09
858.672	-52.39
858.846	4.95
859.02	-27.82
859.195	80.72
859.369	33.62
859.543	33.62
859.718	56.15
859.892	-46.25
860.066	43.86
860.241	-56.49
860.415	56.15
860.589	-21.67
860.763	45.91
860.938	-44.2
861.112	88.92
861.286	45.91
861.46	52.05
861.634	-40.11
861.808	9.05
861.982	-5.29
862.157	41.81
862.331	21.33
862.505	-58.54
862.679	-23.72
862.853	7
863.027	39.76
863.201	52.05
863.375	95.06
863.549	33.62
863.722	37.72
863.896	86.87
864.07	74.58
864.244	66.39
864.418	35.67
864.592	29.52
864.766	-25.77
864.939	39.76
865.113	-5.29
865.287	70.48
865.461	25.43
865.634	11.09
865.808	56.15
865.982	-15.53
866.156	9.05
866.329	37.72
866.503	-29.87
866.676	43.86
866.85	-29.87
867.024	95.06
867.197	97.11
867.371	84.82
867.544	19.29
867.718	-60.59
867.891	33.62
868.065	21.33
868.238	-3.24
868.412	50
868.585	11.09
868.759	21.33
868.932	-23.72
869.105	23.38
869.279	-40.11
869.452	-7.34
869.625	25.43
869.799	9.05
869.972	47.96
870.145	33.62
870.319	58.2
870.492	31.57
870.665	-7.34
870.838	64.34
871.011	41.81
871.185	56.15
871.358	23.38
871.531	-25.77
871.704	9.05
871.877	11.09
872.05	-79.02
872.223	29.52
872.396	-9.39
872.569	-3.24
872.742	62.29
872.915	117.59
873.088	17.24
873.261	136.02
873.434	17.24
873.607	35.67
873.78	43.86
873.953	47.96
874.126	17.24
874.299	15.19
874.471	54.1
874.644	-3.24
874.817	21.33
874.99	27.48
875.163	107.35
875.335	64.34
875.508	21.33
875.681	2.9
875.853	23.38
876.026	4.95
876.199	25.43
876.371	19.29
876.544	-29.87
876.717	66.39
876.889	45.91
877.062	29.52
877.234	7
877.407	39.76
877.579	-19.63
877.752	84.82
877.924	78.68
878.097	13.14
878.269	19.29
878.442	45.91
878.614	-7.34
878.786	76.63
878.959	62.29
879.131	35.67
879.303	47.96
879.476	76.63
879.648	-60.59
879.82	-3.24
879.993	25.43
880.165	54.1
880.337	-11.43
880.509	82.77
880.681	-7.34
880.854	-3.24
881.026	-33.96
881.198	93.01
881.37	-66.73
881.542	-46.25
881.714	2.9
881.886	33.62
882.058	-33.96
882.23	-72.87
882.402	-33.96
882.574	47.96
882.746	23.38
882.918	54.1
883.09	-40.11
883.262	11.09
883.434	-3.24
883.606	4.95
883.778	7
883.95	31.57
884.122	-1.19
884.293	15.19
884.465	-17.58
884.637	27.48
884.809	-7.34
884.98	66.39
885.152	-48.3
885.324	45.91
885.496	2.9
885.667	41.81
885.839	23.38
886.011	97.11
886.182	21.33
886.354	17.24
886.525	-9.39
886.697	15.19
886.869	-74.92
887.04	29.52
887.212	37.72
887.383	64.34
887.555	7
887.726	23.38
887.897	-48.3
888.069	17.24
888.24	-36.01
888.412	-19.63
888.583	35.67
888.754	17.24
888.926	-11.43
889.097	31.57
889.268	21.33
889.44	-50.35
889.611	27.48
889.782	11.09
889.953	-11.43
890.125	39.76
890.296	-11.43
890.467	-25.77
890.638	15.19
890.809	-54.44
890.98	-11.43
891.151	-31.91
891.323	-25.77
891.494	25.43
891.665	25.43
891.836	7
892.007	37.72
892.178	43.86
892.349	70.48
892.52	4.95
892.691	-3.24
892.862	11.09
893.032	21.33
893.203	-3.24
893.374	19.29
893.545	-5.29
893.716	-1.19
893.887	43.86
894.057	-103.59
894.228	50
894.399	9.05
894.57	11.09
894.74	50
894.911	-74.92
895.082	54.1
895.253	-17.58
895.423	50
895.594	-5.29
895.764	-7.34
895.935	-19.63
896.106	-13.48
896.276	0.85
896.447	4.95
896.617	72.53
896.788	-15.53
896.958	-23.72
897.129	17.24
897.299	58.2
897.47	-52.39
897.64	4.95
897.81	-40.11
897.981	27.48
898.151	-9.39
898.322	27.48
898.492	-60.59
898.662	52.05
898.832	0.85
899.003	7
899.173	39.76
899.343	11.09
899.513	-111.78
