Data from USB4F104151__142__13-58-15-256.txt Node

Date: Thu Mar 13 13:58:15 EDT 2025
User: louis
Spectrometer: USB4F10415
Trigger mode: 4
Integration Time (sec): 1.000000E-2
Scans to average: 1
Electric dark correction enabled: true
Nonlinearity correction enabled: false
Boxcar width: 0
XAxis mode: Wavelengths
Number of Pixels in Spectrum: 3648
>>>>>Begin Spectral Data<<<<<
178.204	-96.6
178.424	-96.6
178.644	-96.6
178.864	-102.74
179.084	-63.83
179.304	-14.68
179.524	122.54
179.744	-47.44
179.964	-29.01
180.184	18.09
180.404	32.43
180.624	-78.16
180.844	18.09
181.064	-22.87
181.283	9.9
181.503	-20.82
181.723	11.95
181.943	-12.63
182.163	-0.34
182.383	-31.06
182.602	50.86
182.822	52.91
183.042	44.71
183.262	26.28
183.482	46.76
183.701	18.09
183.921	59.05
184.141	-29.01
184.361	9.9
184.58	67.24
184.8	-57.68
185.02	-16.73
185.239	20.14
185.459	-4.44
185.679	75.43
185.898	3.75
186.118	-26.96
186.338	26.28
186.557	5.8
186.777	-2.39
186.997	91.82
187.216	26.28
187.436	-20.82
187.655	-0.34
187.875	63.15
188.095	11.95
188.314	61.1
188.534	-16.73
188.753	50.86
188.973	-39.25
189.192	-8.53
189.412	-65.88
189.631	40.62
189.851	3.75
190.07	-8.53
190.29	-2.39
190.509	-6.49
190.729	48.81
190.948	26.28
191.168	9.9
191.387	52.91
191.607	30.38
191.826	91.82
192.045	20.14
192.265	-6.49
192.484	20.14
192.704	61.1
192.923	1.71
193.142	63.15
193.362	-53.59
193.581	-20.82
193.8	-22.87
194.02	16.04
194.239	-33.11
194.458	-65.88
194.678	-72.02
194.897	3.75
195.116	36.52
195.335	5.8
195.555	-22.87
195.774	3.75
195.993	-8.53
196.212	18.09
196.432	-20.82
196.651	-29.01
196.87	-22.87
197.089	-41.3
197.308	24.23
197.528	11.95
197.747	11.95
197.966	-29.01
198.185	-45.4
198.404	18.09
198.623	-29.01
198.842	-2.39
199.062	-18.77
199.281	5.8
199.5	-31.06
199.719	106.15
199.938	44.71
200.157	-14.68
200.376	-2.39
200.595	22.19
200.814	11.95
201.033	-4.44
201.252	34.47
201.471	-35.16
201.69	-12.63
201.909	63.15
202.128	-20.82
202.347	18.09
202.566	57
202.785	42.67
203.004	-6.49
203.223	26.28
203.442	-45.4
203.661	-53.59
203.879	-41.3
204.098	24.23
204.317	-8.53
204.536	28.33
204.755	44.71
204.974	-20.82
205.193	-20.82
205.411	52.91
205.63	-2.39
205.849	-37.2
206.068	-14.68
206.287	97.96
206.505	-39.25
206.724	26.28
206.943	-22.87
207.162	11.95
207.381	-35.16
207.599	26.28
207.818	-37.2
208.037	5.8
208.255	-47.44
208.474	-33.11
208.693	44.71
208.911	-39.25
209.13	-14.68
209.349	-4.44
209.567	-37.2
209.786	-59.73
210.005	18.09
210.223	42.67
210.442	-53.59
210.661	-55.64
210.879	-22.87
211.098	-45.4
211.316	-57.68
211.535	1.71
211.753	-14.68
211.972	-29.01
212.191	-53.59
212.409	18.09
212.628	-33.11
212.846	-65.88
213.065	-29.01
213.283	28.33
213.502	-22.87
213.72	-43.35
213.938	-78.16
214.157	13.99
214.375	38.57
214.594	-16.73
214.812	-26.96
215.031	26.28
215.249	46.76
215.467	102.06
215.686	-24.92
215.904	-14.68
216.122	34.47
216.341	30.38
216.559	-31.06
216.778	-24.92
216.996	-47.44
217.214	50.86
217.432	22.19
217.651	16.04
217.869	-55.64
218.087	18.09
218.306	-8.53
218.524	46.76
218.742	-33.11
218.96	-35.16
219.179	44.71
219.397	-29.01
219.615	-14.68
219.833	44.71
220.051	-20.82
220.27	9.9
220.488	-8.53
220.706	52.91
220.924	-0.34
221.142	24.23
221.36	-55.64
221.578	61.1
221.796	26.28
222.015	44.71
222.233	-59.73
222.451	-12.63
222.669	-18.77
222.887	-18.77
223.105	-10.58
223.323	-22.87
223.541	-14.68
223.759	30.38
223.977	1.71
224.195	-2.39
224.413	54.95
224.631	-29.01
224.849	30.38
225.067	22.19
225.285	11.95
225.503	-2.39
225.721	-78.16
225.939	36.52
226.157	-18.77
226.375	83.63
226.592	-86.36
226.81	-29.01
227.028	-20.82
227.246	77.48
227.464	50.86
227.682	1.71
227.9	1.71
228.117	52.91
228.335	-53.59
228.553	16.04
228.771	-57.68
228.989	97.96
229.206	22.19
229.424	69.29
229.642	-14.68
229.86	24.23
230.077	-29.01
230.295	-8.53
230.513	18.09
230.731	20.14
230.948	9.9
231.166	13.99
231.384	-2.39
231.601	11.95
231.819	30.38
232.037	-51.54
232.254	-43.35
232.472	-8.53
232.689	-33.11
232.907	32.43
233.125	63.15
233.342	3.75
233.56	24.23
233.777	3.75
233.995	42.67
234.213	61.1
234.43	-12.63
234.648	-16.73
234.865	-59.73
235.083	11.95
235.3	-14.68
235.518	18.09
235.735	-2.39
235.953	42.67
236.17	40.62
236.388	34.47
236.605	-63.83
236.822	67.24
237.04	13.99
237.257	26.28
237.475	9.9
237.692	18.09
237.909	-6.49
238.127	-31.06
238.344	75.43
238.562	34.47
238.779	-26.96
238.996	-14.68
239.214	52.91
239.431	-31.06
239.648	-4.44
239.865	26.28
240.083	-39.25
240.3	-12.63
240.517	-14.68
240.735	75.43
240.952	20.14
241.169	-49.49
241.386	-45.4
241.603	-4.44
241.821	-74.07
242.038	59.05
242.255	5.8
242.472	-117.08
242.689	71.34
242.907	50.86
243.124	7.85
243.341	-4.44
243.558	1.71
243.775	-31.06
243.992	-45.4
244.209	-8.53
244.426	-0.34
244.643	-14.68
244.86	-80.21
245.078	18.09
245.295	-12.63
245.512	20.14
245.729	-8.53
245.946	3.75
246.163	52.91
246.38	-37.2
246.597	9.9
246.814	-39.25
247.031	38.57
247.248	145.06
247.464	30.38
247.681	-12.63
247.898	-16.73
248.115	-31.06
248.332	-61.78
248.549	-49.49
248.766	5.8
248.983	9.9
249.2	77.48
249.417	69.29
249.633	-49.49
249.85	48.81
250.067	-12.63
250.284	26.28
250.501	44.71
250.717	36.52
250.934	-29.01
251.151	11.95
251.368	-39.25
251.585	48.81
251.801	-37.2
252.018	-10.58
252.235	52.91
252.451	-12.63
252.668	7.85
252.885	-22.87
253.102	36.52
253.318	-41.3
253.535	-14.68
253.752	50.86
253.968	-22.87
254.185	9.9
254.401	100.01
254.618	-98.64
254.835	-41.3
255.051	-26.96
255.268	48.81
255.484	26.28
255.701	-14.68
255.917	83.63
256.134	40.62
256.351	-20.82
256.567	9.9
256.784	-26.96
257	-55.64
257.217	9.9
257.433	13.99
257.65	-4.44
257.866	52.91
258.082	26.28
258.299	11.95
258.515	26.28
258.732	-43.35
258.948	11.95
259.165	-45.4
259.381	26.28
259.597	-33.11
259.814	-18.77
260.03	-31.06
260.246	-47.44
260.463	52.91
260.679	18.09
260.895	-33.11
261.112	26.28
261.328	26.28
261.544	-76.12
261.761	-12.63
261.977	28.33
262.193	3.75
262.409	106.15
262.626	-45.4
262.842	16.04
263.058	9.9
263.274	28.33
263.49	11.95
263.707	-61.78
263.923	-14.68
264.139	44.71
264.355	-8.53
264.571	44.71
264.787	22.19
265.004	20.14
265.22	11.95
265.436	-18.77
265.652	-0.34
265.868	-47.44
266.084	40.62
266.3	22.19
266.516	-41.3
266.732	-6.49
266.948	-12.63
267.164	63.15
267.38	9.9
267.596	26.28
267.812	-2.39
268.028	-31.06
268.244	3.75
268.46	-8.53
268.676	-24.92
268.892	77.48
269.108	30.38
269.324	-72.02
269.54	5.8
269.756	-26.96
269.972	71.34
270.188	13.99
270.403	13.99
270.619	11.95
270.835	5.8
271.051	26.28
271.267	-29.01
271.483	32.43
271.698	30.38
271.914	24.23
272.13	-59.73
272.346	3.75
272.562	-14.68
272.777	30.38
272.993	-63.83
273.209	36.52
273.425	-39.25
273.64	-14.68
273.856	42.67
274.072	-4.44
274.287	-0.34
274.503	-18.77
274.719	7.85
274.934	-41.3
275.15	-43.35
275.366	3.75
275.581	-14.68
275.797	3.75
276.012	-24.92
276.228	-12.63
276.444	-29.01
276.659	18.09
276.875	32.43
277.09	-16.73
277.306	-45.4
277.521	-67.92
277.737	-53.59
277.952	-35.16
278.168	-0.34
278.383	44.71
278.599	28.33
278.814	79.53
279.03	46.76
279.245	28.33
279.461	24.23
279.676	65.19
279.892	-29.01
280.107	-0.34
280.322	28.33
280.538	-51.54
280.753	-8.53
280.969	22.19
281.184	-47.44
281.399	-2.39
281.615	-61.78
281.83	-8.53
282.045	40.62
282.26	73.39
282.476	34.47
282.691	52.91
282.906	63.15
283.122	-0.34
283.337	28.33
283.552	24.23
283.767	42.67
283.983	9.9
284.198	-49.49
284.413	-0.34
284.628	13.99
284.843	20.14
285.058	24.23
285.274	7.85
285.489	22.19
285.704	32.43
285.919	32.43
286.134	42.67
286.349	-53.59
286.564	-39.25
286.779	46.76
286.995	-10.58
287.21	-57.68
287.425	69.29
287.64	-37.2
287.855	3.75
288.07	38.57
288.285	28.33
288.5	18.09
288.715	-6.49
288.93	32.43
289.145	11.95
289.36	16.04
289.575	-43.35
289.79	38.57
290.004	-80.21
290.219	-2.39
290.434	-59.73
290.649	3.75
290.864	44.71
291.079	-35.16
291.294	20.14
291.509	1.71
291.724	-18.77
291.938	-63.83
292.153	28.33
292.368	9.9
292.583	-6.49
292.798	65.19
293.012	11.95
293.227	20.14
293.442	5.8
293.657	3.75
293.871	20.14
294.086	-10.58
294.301	-41.3
294.516	22.19
294.73	87.72
294.945	-2.39
295.16	32.43
295.374	-37.2
295.589	1.71
295.804	-35.16
296.018	-18.77
296.233	18.09
296.447	36.52
296.662	-6.49
296.877	-14.68
297.091	52.91
297.306	42.67
297.52	-22.87
297.735	65.19
297.949	-59.73
298.164	18.09
298.378	3.75
298.593	-0.34
298.807	-2.39
299.022	5.8
299.236	9.9
299.451	89.77
299.665	59.05
299.88	11.95
300.094	-4.44
300.309	50.86
300.523	91.82
300.737	7.85
300.952	-10.58
301.166	20.14
301.381	28.33
301.595	36.52
301.809	42.67
302.024	24.23
302.238	-49.49
302.452	-47.44
302.667	-39.25
302.881	50.86
303.095	11.95
303.309	-22.87
303.524	5.8
303.738	-39.25
303.952	-0.34
304.166	-8.53
304.381	11.95
304.595	52.91
304.809	18.09
305.023	36.52
305.237	-47.44
305.452	24.23
305.666	-59.73
305.88	46.76
306.094	24.23
306.308	30.38
306.522	-39.25
306.736	13.99
306.95	-26.96
307.164	-14.68
307.379	9.9
307.593	13.99
307.807	26.28
308.021	-2.39
308.235	-6.49
308.449	-12.63
308.663	20.14
308.877	-37.2
309.091	-14.68
309.305	9.9
309.519	-69.97
309.733	-12.63
309.947	57
310.161	75.43
310.374	13.99
310.588	-72.02
310.802	-43.35
311.016	-31.06
311.23	13.99
311.444	-0.34
311.658	-20.82
311.872	50.86
312.085	34.47
312.299	85.67
312.513	-0.34
312.727	-0.34
312.941	-63.83
313.154	28.33
313.368	69.29
313.582	-39.25
313.796	3.75
314.009	1.71
314.223	26.28
314.437	11.95
314.651	16.04
314.864	63.15
315.078	22.19
315.292	-29.01
315.505	22.19
315.719	89.77
315.933	34.47
316.146	-33.11
316.36	36.52
316.573	-47.44
316.787	13.99
317.001	-51.54
317.214	46.76
317.428	18.09
317.641	-67.92
317.855	3.75
318.068	79.53
318.282	36.52
318.495	77.48
318.709	-43.35
318.922	16.04
319.136	28.33
319.349	34.47
319.563	40.62
319.776	-2.39
319.99	-24.92
320.203	26.28
320.417	36.52
320.63	50.86
320.843	-26.96
321.057	30.38
321.27	-29.01
321.483	13.99
321.697	-20.82
321.91	-2.39
322.124	57
322.337	-12.63
322.55	-16.73
322.763	-12.63
322.977	93.87
323.19	-67.92
323.403	-59.73
323.617	-18.77
323.83	22.19
324.043	30.38
324.256	-76.12
324.469	-51.54
324.683	13.99
324.896	5.8
325.109	7.85
325.322	-4.44
325.535	52.91
325.748	26.28
325.962	59.05
326.175	30.38
326.388	-24.92
326.601	5.8
326.814	32.43
327.027	44.71
327.24	38.57
327.453	-20.82
327.666	13.99
327.879	-37.2
328.092	48.81
328.305	-16.73
328.518	36.52
328.731	61.1
328.944	22.19
329.157	5.8
329.37	-20.82
329.583	22.19
329.796	-49.49
330.009	16.04
330.222	36.52
330.435	42.67
330.648	3.75
330.861	22.19
331.073	-39.25
331.286	-10.58
331.499	32.43
331.712	34.47
331.925	18.09
332.138	-18.77
332.35	-29.01
332.563	38.57
332.776	-2.39
332.989	18.09
333.202	9.9
333.414	-24.92
333.627	42.67
333.84	5.8
334.053	13.99
334.265	65.19
334.478	3.75
334.691	54.95
334.903	13.99
335.116	-12.63
335.329	32.43
335.541	59.05
335.754	59.05
335.966	-2.39
336.179	65.19
336.392	20.14
336.604	11.95
336.817	5.8
337.029	13.99
337.242	61.1
337.454	18.09
337.667	-39.25
337.88	-31.06
338.092	13.99
338.305	30.38
338.517	46.76
338.729	-18.77
338.942	13.99
339.154	3.75
339.367	-80.21
339.579	32.43
339.792	54.95
340.004	46.76
340.217	13.99
340.429	9.9
340.641	28.33
340.854	16.04
341.066	-26.96
341.278	-22.87
341.491	24.23
341.703	16.04
341.915	-0.34
342.128	-24.92
342.34	-12.63
342.552	18.09
342.764	22.19
342.977	5.8
343.189	26.28
343.401	140.97
343.613	18.09
343.826	102.06
344.038	9.9
344.25	61.1
344.462	-35.16
344.674	28.33
344.886	59.05
345.099	-22.87
345.311	-31.06
345.523	1.71
345.735	-0.34
345.947	79.53
346.159	-88.4
346.371	3.75
346.583	-0.34
346.795	-4.44
347.007	9.9
347.219	-35.16
347.431	-16.73
347.643	34.47
347.855	9.9
348.067	57
348.279	26.28
348.491	69.29
348.703	-14.68
348.915	13.99
349.127	-78.16
349.339	-43.35
349.551	42.67
349.763	13.99
349.975	-6.49
350.187	16.04
350.399	-26.96
350.61	-39.25
350.822	-2.39
351.034	59.05
351.246	22.19
351.458	1.71
351.669	85.67
351.881	20.14
352.093	75.43
352.305	1.71
352.517	16.04
352.728	57
352.94	46.76
353.152	22.19
353.363	-2.39
353.575	-14.68
353.787	26.28
353.999	11.95
354.21	36.52
354.422	7.85
354.633	-6.49
354.845	73.39
355.057	73.39
355.268	-16.73
355.48	-33.11
355.692	11.95
355.903	-29.01
356.115	-31.06
356.326	34.47
356.538	-14.68
356.749	34.47
356.961	-31.06
357.172	20.14
357.384	9.9
357.595	-0.34
357.807	-12.63
358.018	-67.92
358.23	-24.92
358.441	7.85
358.653	36.52
358.864	48.81
359.075	-0.34
359.287	44.71
359.498	13.99
359.709	-0.34
359.921	3.75
360.132	1.71
360.344	-0.34
360.555	24.23
360.766	28.33
360.977	-31.06
361.189	18.09
361.4	-0.34
361.611	3.75
361.823	18.09
362.034	42.67
362.245	-31.06
362.456	61.1
362.667	57
362.879	22.19
363.09	34.47
363.301	1.71
363.512	30.38
363.723	-2.39
363.935	-69.97
364.146	28.33
364.357	-31.06
364.568	52.91
364.779	3.75
364.99	-26.96
365.201	-12.63
365.412	3.75
365.623	3.75
365.834	71.34
366.045	3.75
366.256	-8.53
366.467	16.04
366.678	46.76
366.889	75.43
367.1	-59.73
367.311	108.2
367.522	7.85
367.733	-10.58
367.944	-41.3
368.155	-22.87
368.366	5.8
368.577	57
368.788	48.81
368.999	3.75
369.209	3.75
369.42	34.47
369.631	-6.49
369.842	-55.64
370.053	5.8
370.264	36.52
370.474	11.95
370.685	-6.49
370.896	-4.44
371.107	11.95
371.317	18.09
371.528	36.52
371.739	-29.01
371.95	-35.16
372.16	18.09
372.371	-80.21
372.582	-35.16
372.792	-33.11
373.003	1.71
373.214	11.95
373.424	71.34
373.635	69.29
373.846	65.19
374.056	-20.82
374.267	75.43
374.477	20.14
374.688	-69.97
374.898	38.57
375.109	54.95
375.319	-29.01
375.53	50.86
375.74	20.14
375.951	9.9
376.161	-4.44
376.372	20.14
376.582	38.57
376.793	67.24
377.003	-39.25
377.214	-47.44
377.424	42.67
377.635	1.71
377.845	-4.44
378.055	-16.73
378.266	79.53
378.476	-61.78
378.686	46.76
378.897	36.52
379.107	-24.92
379.317	63.15
379.528	1.71
379.738	13.99
379.948	40.62
380.158	61.1
380.369	-20.82
380.579	61.1
380.789	-63.83
380.999	28.33
381.21	67.24
381.42	-14.68
381.63	-8.53
381.84	-24.92
382.05	9.9
382.261	38.57
382.471	-12.63
382.681	-18.77
382.891	-16.73
383.101	93.87
383.311	-47.44
383.521	-22.87
383.731	7.85
383.941	36.52
384.151	42.67
384.361	13.99
384.571	-61.78
384.781	22.19
384.991	36.52
385.201	16.04
385.411	57
385.621	-22.87
385.831	32.43
386.041	81.58
386.251	3.75
386.461	79.53
386.671	13.99
386.881	36.52
387.091	81.58
387.301	91.82
387.511	13.99
387.72	5.8
387.93	18.09
388.14	-20.82
388.35	-6.49
388.56	57
388.769	24.23
388.979	89.77
389.189	46.76
389.399	-22.87
389.609	50.86
389.818	52.91
390.028	97.96
390.238	11.95
390.447	5.8
390.657	73.39
390.867	-18.77
391.076	13.99
391.286	-0.34
391.496	-6.49
391.705	9.9
391.915	38.57
392.125	-55.64
392.334	67.24
392.544	-14.68
392.753	-4.44
392.963	42.67
393.172	36.52
393.382	-12.63
393.591	63.15
393.801	13.99
394.01	9.9
394.22	54.95
394.429	102.06
394.639	24.23
394.848	100.01
395.058	9.9
395.267	46.76
395.477	87.72
395.686	26.28
395.895	59.05
396.105	87.72
396.314	34.47
396.524	-22.87
396.733	44.71
396.942	1.71
397.152	83.63
397.361	93.87
397.57	34.47
397.78	3.75
397.989	-26.96
398.198	30.38
398.407	42.67
398.617	87.72
398.826	87.72
399.035	9.9
399.244	89.77
399.453	65.19
399.663	30.38
399.872	9.9
400.081	16.04
400.29	93.87
400.499	85.67
400.708	48.81
400.917	26.28
401.127	116.39
401.336	-10.58
401.545	112.3
401.754	28.33
401.963	5.8
402.172	16.04
402.381	36.52
402.59	13.99
402.799	61.1
403.008	59.05
403.217	108.2
403.426	50.86
403.635	50.86
403.844	81.58
404.053	38.57
404.262	81.58
404.471	159.4
404.68	79.53
404.888	52.91
405.097	75.43
405.306	102.06
405.515	81.58
405.724	59.05
405.933	89.77
406.142	112.3
406.35	61.1
406.559	102.06
406.768	110.25
406.977	93.87
407.185	13.99
407.394	165.54
407.603	132.78
407.812	102.06
408.02	159.4
408.229	83.63
408.438	120.49
408.646	122.54
408.855	239.27
409.064	149.16
409.272	112.3
409.481	241.32
409.69	173.74
409.898	159.4
410.107	263.85
410.315	243.37
410.524	216.74
410.733	224.94
410.941	188.07
411.15	222.89
411.358	267.94
411.567	286.37
411.775	286.37
411.984	237.22
412.192	327.33
412.401	278.18
412.609	302.76
412.818	288.42
413.026	401.06
413.234	290.47
413.443	315.05
413.651	360.1
413.86	331.43
414.068	366.25
414.276	409.25
414.485	399.01
414.693	409.25
414.901	368.29
415.11	439.97
415.318	419.49
415.526	448.16
415.734	460.45
415.943	566.95
416.151	536.23
416.359	554.66
416.567	562.85
416.776	636.58
416.984	601.76
417.192	544.42
417.4	628.39
417.608	671.39
417.817	683.68
418.025	716.45
418.233	755.36
418.441	691.87
418.649	743.07
418.857	773.79
419.065	878.24
419.273	835.23
419.481	906.91
419.689	976.54
419.897	941.72
420.105	992.92
420.313	1074.84
420.521	1001.12
420.729	1058.46
420.937	1121.95
421.145	1089.18
421.353	1146.52
421.561	1201.82
421.769	1291.93
421.977	1296.02
422.185	1291.93
422.393	1506.96
422.601	1445.52
422.809	1511.06
423.017	1451.67
423.224	1586.83
423.432	1713.81
423.64	1533.59
423.848	1740.43
424.056	1781.39
424.263	1812.11
424.471	1992.33
424.679	1984.14
424.887	2010.76
425.094	2000.52
425.302	2025.1
425.51	2172.55
425.718	2188.94
425.925	2186.89
426.133	2289.29
426.341	2356.87
426.548	2500.23
426.756	2551.43
426.964	2512.52
427.171	2727.55
427.379	2875.01
427.586	2803.33
427.794	2885.25
428.001	3059.32
428.209	3262.07
428.417	3155.58
428.624	3350.14
428.832	3458.68
429.039	3372.66
429.247	3430.01
429.454	3833.46
429.662	3958.38
429.869	3696.24
430.076	3874.42
430.284	3708.53
430.491	3958.38
430.699	4081.26
430.906	4230.76
431.114	4169.32
431.321	4462.18
431.528	4605.54
431.736	4654.69
431.943	4970.08
432.15	4791.91
432.358	4892.26
432.565	5228.12
432.772	5115.48
432.979	5332.57
433.187	5557.85
433.394	5437.02
433.601	5951.06
433.808	5893.71
434.016	5690.96
434.223	6262.35
434.43	6336.07
434.637	6426.18
434.844	6839.87
435.052	6884.93
435.259	6911.55
435.466	6989.38
435.673	6727.24
435.88	7401.02
436.087	7640.63
436.294	7589.43
436.501	7456.31
436.708	7562.81
436.915	7896.63
437.122	8119.85
437.329	8195.63
437.537	8640.04
437.743	8474.15
437.95	8603.18
438.157	9100.83
438.364	9432.6
438.571	9317.92
438.778	9266.72
438.985	10229.26
439.192	9606.68
439.399	10003.99
439.606	9942.55
439.813	10446.35
440.02	10980.87
440.227	10651.14
440.433	10606.09
440.64	11171.33
440.847	11238.91
441.054	11341.31
441.261	12002.8
441.467	12045.81
441.674	12127.73
441.881	12807.66
442.088	12637.67
442.294	12324.33
442.501	12725.74
442.708	12901.86
442.914	13600.22
443.121	14132.69
443.328	13612.51
443.534	14677.45
443.741	14370.26
443.948	14009.81
444.154	15058.37
444.361	15107.52
444.568	15138.24
444.774	15085
444.981	15441.34
445.187	15687.1
445.394	16420.27
445.6	16094.65
445.807	17630.62
446.013	17036.71
446.22	17360.29
446.426	18003.35
446.633	18144.66
446.839	18834.83
447.046	17939.86
447.252	18875.79
447.459	19105.16
447.665	18881.93
447.871	19674.49
448.078	20649.33
448.284	19465.6
448.491	20131.19
448.697	20911.47
448.903	21060.97
449.11	21220.71
449.316	20970.86
449.522	21542.24
449.728	21960.03
449.935	22095.19
450.141	22222.17
450.347	22672.72
450.553	21792.09
450.76	22465.88
450.966	22996.3
451.172	22594.9
451.378	23381.32
451.584	22766.93
451.791	23323.97
451.997	23201.1
452.203	24010.04
452.409	23752
452.615	23649.6
452.821	22711.63
453.027	22443.35
453.233	23551.3
453.44	22629.71
453.646	22900.05
453.852	23092.55
454.058	23602.5
454.264	22504.79
454.47	23258.44
454.676	22666.58
454.882	23491.91
455.088	21747.04
455.294	21865.82
455.5	22003.03
455.705	22521.17
455.911	21257.57
456.117	21071.21
456.323	20809.07
456.529	19549.57
456.735	20553.07
456.941	19867
457.147	19465.6
457.352	19086.73
457.558	18736.52
457.764	19039.62
457.97	18541.97
458.176	18353.55
458.381	18173.33
458.587	17452.45
458.793	17069.48
458.999	16485.81
459.204	17591.71
459.41	17073.57
459.616	16108.98
459.821	15977.91
460.027	15902.14
460.233	15500.73
460.438	14829
460.644	14902.73
460.85	14112.21
461.055	14081.49
461.261	13993.43
461.466	13166.05
461.672	12563.95
461.878	13360.61
462.083	12752.36
462.289	12371.44
462.494	12035.57
462.7	11785.72
462.905	11791.86
463.111	11687.42
463.316	11761.14
463.522	11566.59
463.727	11601.4
463.932	11425.28
464.138	11476.48
464.343	11544.06
464.549	11193.86
464.754	11515.39
464.959	11443.71
465.165	11326.97
465.37	10915.33
465.575	10518.03
465.781	10901
465.986	10835.46
466.191	10763.78
466.397	10386.96
466.602	9991.7
466.807	10343.95
467.012	10333.71
467.218	10286.61
467.423	10292.75
467.628	10090
467.833	10567.18
468.038	10354.19
468.244	9928.21
468.449	10245.65
468.654	9924.12
468.859	9834
469.064	9696.79
469.269	9426.46
469.474	9545.24
469.679	9457.18
469.885	9459.23
470.09	9479.71
470.295	9500.19
470.5	9031.2
470.705	9399.84
470.91	9063.97
471.115	9266.72
471.32	9190.94
471.525	9133.6
471.73	8754.73
471.935	9029.15
472.139	8441.39
472.344	8691.24
472.549	8490.54
472.754	8566.31
472.959	8425
473.164	8064.56
473.369	8218.16
473.574	8361.52
473.778	8244.78
473.983	7996.98
474.188	8091.18
474.393	7712.31
474.598	7855.67
474.802	7677.49
475.007	7808.56
475.212	7671.35
475.417	7351.87
475.621	7517.75
475.826	7568.95
476.031	7349.82
476.235	7265.85
476.44	7190.08
476.645	7171.65
476.849	7212.6
477.054	7038.53
477.259	6917.7
477.463	6983.23
477.668	6735.43
477.872	6891.07
478.077	6692.42
478.282	6694.47
478.486	6602.31
478.691	6499.91
478.895	6534.73
479.1	6616.65
479.304	6491.72
479.509	6092.37
479.713	6366.79
479.918	6194.76
480.122	6026.83
480.326	6336.07
480.531	6215.24
480.735	6080.08
480.94	6069.84
481.144	6336.07
481.348	6047.31
481.553	6145.61
481.757	5875.28
481.961	6090.32
482.166	6039.12
482.37	6075.98
482.574	6075.98
482.778	6014.54
482.983	6063.69
483.187	5924.43
483.391	6039.12
483.595	5850.71
483.8	5946.96
484.004	5903.95
484.208	6022.73
484.412	5899.86
484.616	6012.49
484.821	6024.78
485.025	5815.89
485.229	6026.83
485.433	5889.62
485.637	5897.81
485.841	5838.42
486.045	5811.79
486.249	5942.86
486.453	5873.23
486.657	5893.71
486.861	5922.38
487.065	5815.89
487.269	6010.45
487.473	5879.38
487.677	6051.41
487.881	5985.87
488.085	5926.48
488.289	6057.55
488.493	5906
488.697	5965.39
488.901	5883.47
489.105	5836.37
489.309	6139.47
489.512	5949.01
489.716	6092.37
489.92	5918.29
490.124	6004.3
490.328	6219.34
490.531	6147.66
490.735	6047.31
490.939	6112.85
491.143	6151.76
491.346	6188.62
491.55	6301.26
491.754	6317.64
491.958	6256.2
492.161	6215.24
492.365	6346.31
492.569	6254.16
492.772	6250.06
492.976	6278.73
493.18	6571.59
493.383	6458.95
493.587	6428.23
493.79	6532.68
493.994	6526.54
494.197	6508.1
494.401	6512.2
494.605	6678.08
494.808	6950.46
495.012	6850.11
495.215	7038.53
495.419	6848.07
495.622	6837.83
495.825	6899.27
496.029	6870.59
496.232	7081.53
496.436	7046.72
496.639	7382.59
496.843	7317.05
497.046	7454.26
497.249	7462.46
497.453	7644.73
497.656	7759.41
497.859	7564.86
498.063	7738.93
498.266	7794.23
498.469	8033.84
498.673	8017.46
498.876	7933.49
499.079	8109.61
499.282	8203.82
499.485	8343.08
499.689	8435.24
499.892	8582.7
500.095	8472.11
500.298	8900.13
500.501	8615.46
500.705	8834.6
500.908	9141.79
501.111	9233.95
501.314	9242.14
501.517	9332.25
501.72	9276.96
501.923	9332.25
502.126	9582.1
502.329	9592.34
502.532	9840.15
502.735	9991.7
502.938	10133.01
503.141	10251.79
503.344	10300.94
503.547	10616.33
503.75	10475.02
503.953	10753.54
504.156	10683.91
504.359	10952.2
504.562	11255.29
504.765	11253.25
504.968	11486.72
505.17	11570.68
505.373	11701.75
505.576	11628.03
505.779	11929.08
505.982	12195.31
506.185	12314.09
506.387	12156.4
506.59	12236.27
506.793	12887.53
506.996	12531.18
507.198	12928.49
507.401	13170.15
507.604	13188.58
507.807	13657.56
508.009	13403.61
508.212	13852.12
508.415	13702.62
508.617	14052.82
508.82	14190.03
509.022	14179.79
509.225	14523.85
509.428	14413.26
509.63	14624.2
509.833	14888.39
510.035	15048.13
510.238	15207.87
510.44	15244.74
510.643	15437.25
510.845	15685.05
511.048	15764.92
511.25	16156.08
511.453	15975.86
511.655	16727.47
511.858	16625.07
512.06	16799.15
512.262	17124.77
512.465	17118.63
512.667	17304.99
512.87	17474.98
513.072	17579.42
513.274	17712.54
513.477	18183.57
513.679	18271.64
513.881	18537.87
514.084	18736.52
514.286	18634.13
514.488	19015.05
514.69	19670.4
514.893	19600.77
515.095	19697.02
515.297	19783.04
515.499	20057.46
515.701	20622.7
515.904	20768.11
516.106	20884.84
516.308	20833.64
516.51	21013.87
516.712	21263.72
516.914	21964.12
517.116	21853.53
517.318	22072.67
517.52	22078.81
517.722	22502.74
517.925	22754.64
518.127	23020.88
518.329	23504.2
518.531	23162.19
518.733	23737.66
518.935	24075.58
519.136	23770.43
519.338	24282.42
519.54	24442.17
519.742	24751.41
519.944	25077.04
520.146	25396.52
520.348	25769.25
520.55	25644.32
520.752	25662.76
520.954	26238.23
521.155	25781.54
521.357	26694.93
521.559	26715.41
521.761	27217.16
521.963	27196.68
522.164	27249.93
522.366	27450.63
522.568	27755.78
522.77	28179.71
522.971	28224.76
523.173	28312.83
523.375	28566.77
523.576	28501.24
523.778	28628.21
523.98	29246.7
524.181	28994.8
524.383	29504.74
524.584	29662.44
524.786	29684.97
524.988	29682.92
525.189	30285.02
525.391	29932.77
525.592	30330.08
525.794	30809.3
525.995	30809.3
526.197	30905.56
526.398	31102.16
526.6	31093.97
526.801	31620.3
527.003	31503.56
527.204	31618.25
527.406	32095.42
527.607	31749.32
527.808	32294.08
528.01	31552.71
528.211	32072.9
528.412	32877.75
528.614	32488.63
528.815	32715.96
529.016	32877.75
529.218	32627.9
529.419	32974
529.62	32695.48
529.822	32629.94
530.023	33082.55
530.224	33442.99
530.425	33180.85
530.626	32953.52
530.828	33199.28
531.029	33877.16
531.23	33293.49
531.431	33152.18
531.632	33752.23
531.833	33649.83
532.035	33684.65
532.236	33844.39
532.437	33635.5
532.638	33678.5
532.839	33887.4
533.04	33969.32
533.241	33871.01
533.442	34454.68
533.643	34202.78
533.844	33975.46
534.045	34008.23
534.246	34028.71
534.447	34626.71
534.648	33895.59
534.849	34213.02
535.05	34217.12
535.251	34274.46
535.451	34319.52
535.652	34405.53
535.853	34063.52
536.054	33981.6
536.255	34559.13
536.456	34161.83
536.657	34761.88
536.857	34792.6
537.058	34249.89
537.259	34622.62
537.46	34694.3
537.66	34430.11
537.861	34526.36
538.062	34325.66
538.263	34249.89
538.463	34213.02
538.664	34239.65
538.865	34358.43
539.065	34581.66
539.266	34329.76
539.466	34847.89
539.667	34225.31
539.868	34858.13
540.068	34434.21
540.269	34159.78
540.469	34682.01
540.67	34413.73
540.87	34321.57
541.071	34387.1
541.271	34479.26
541.472	34479.26
541.672	34329.76
541.873	34737.3
542.073	34106.53
542.274	34600.09
542.474	34505.88
542.675	34043.04
542.875	34856.09
543.075	34612.38
543.276	33359.02
543.476	35230.87
543.676	34370.72
543.877	34714.78
544.077	34696.35
544.277	34512.03
544.478	34419.87
544.678	34434.21
544.878	34178.21
545.078	34522.27
545.279	34397.34
545.479	34157.73
545.679	34235.55
545.879	34344.09
546.079	34462.88
546.28	34419.87
546.48	34071.71
546.68	34358.43
546.88	34479.26
547.08	34448.54
547.28	34178.21
547.48	34401.44
547.68	34020.52
547.88	34012.32
548.081	34432.16
548.281	34630.81
548.481	34116.77
548.681	34385.05
548.881	34481.31
549.081	34366.62
549.28	33989.8
549.48	34038.95
549.68	34428.06
549.88	34899.09
550.08	34167.97
550.28	34454.68
550.48	34014.37
550.68	34618.52
550.88	34198.69
551.08	34135.2
551.279	34555.04
551.479	34325.66
551.679	34182.31
551.879	34202.78
552.079	34370.72
552.278	33981.6
552.478	34110.63
552.678	34241.7
552.878	34462.88
553.077	34143.39
553.277	33557.67
553.477	34567.32
553.676	33885.35
553.876	34157.73
554.076	33959.08
554.275	34024.61
554.475	33592.49
554.674	34387.1
554.874	34167.97
555.074	33768.62
555.273	33883.3
555.473	33963.17
555.672	33934.5
555.872	33692.84
556.071	33916.07
556.271	33569.96
556.47	33875.11
556.67	33322.16
556.869	33516.72
557.068	33496.24
557.268	33227.95
557.467	33297.58
557.667	33594.54
557.866	33584.3
558.065	33422.51
558.265	32838.84
558.464	33049.78
558.663	33735.85
558.863	33121.46
559.062	33498.28
559.261	33039.54
559.461	33903.78
559.66	32611.51
559.859	33240.24
560.058	32824.5
560.258	32537.79
560.457	33113.27
560.656	32865.46
560.855	32740.54
561.054	32910.52
561.253	32447.68
561.453	32654.52
561.652	32670.9
561.851	32781.49
562.05	32562.36
562.249	32629.94
562.448	32656.57
562.647	32380.09
562.846	32238.78
563.045	32085.19
563.244	32439.48
563.443	32675
563.642	31886.53
563.841	32093.38
564.04	31825.09
564.239	32271.55
564.438	31671.5
564.637	31788.23
564.836	32017.6
565.035	31448.27
565.234	31878.34
565.432	31581.38
565.631	31593.67
565.83	31556.81
566.029	31669.45
566.228	31284.43
566.427	31478.99
566.625	31188.17
566.824	30928.08
567.023	31216.85
567.222	30717.14
567.42	31106.26
567.619	31243.47
567.818	30672.09
568.016	30665.94
568.215	31194.32
568.414	30495.96
568.612	30766.29
568.811	30715.09
569.01	30194.91
569.208	30112.99
569.407	30389.47
569.605	30012.64
569.804	30571.74
570.002	29887.71
570.201	30358.75
570.4	29813.99
570.598	29760.74
570.797	29658.34
570.995	29852.9
571.193	29576.42
571.392	29682.92
571.59	29578.47
571.789	29277.42
571.987	29289.71
572.186	29418.73
572.384	29428.97
572.582	29431.02
572.781	29146.35
572.979	28742.9
573.177	28810.48
573.376	29072.62
573.574	28720.37
573.772	28785.91
573.971	28374.27
574.169	28476.66
574.367	28339.45
574.565	28570.87
574.763	28447.99
574.962	28003.58
575.16	28087.55
575.358	28235
575.556	27788.55
575.754	28282.11
575.952	27565.32
576.151	27901.18
576.349	27604.23
576.547	27573.51
576.745	27383.05
576.943	27614.47
577.141	27159.82
577.339	27374.86
577.537	27143.44
577.735	26985.74
577.933	26838.29
578.131	27045.13
578.329	26912.02
578.527	26694.93
578.725	26690.84
578.923	26717.46
579.121	26645.78
579.319	26336.54
579.516	26535.19
579.714	26254.62
579.912	26328.34
580.11	26182.94
580.308	26494.23
580.506	26293.53
580.704	25476.39
580.901	26268.95
581.099	25896.22
581.297	25742.63
581.495	25562.4
581.692	25675.04
581.89	25597.22
582.088	25812.26
582.285	25656.61
582.483	25376.04
582.681	25152.81
582.878	25167.15
583.076	25027.88
583.274	25337.13
583.471	24493.36
583.669	24943.92
583.866	24812.85
584.064	25089.32
584.262	24618.29
584.459	24659.25
584.657	24519.99
584.854	24732.98
585.052	24048.96
585.249	24511.8
585.447	24020.28
585.644	23850.3
585.841	23960.89
586.039	24407.35
586.236	23889.21
586.434	23713.09
586.631	23577.92
586.828	23493.96
587.026	23962.94
587.223	24036.67
587.42	23311.69
587.618	23559.49
587.815	23530.82
588.012	23010.64
588.21	23340.36
588.407	23496
588.604	22955.34
588.801	23008.59
588.999	23016.78
589.196	23108.94
589.393	22873.42
589.59	22535.51
589.787	22949.2
589.984	22580.56
590.182	22598.99
590.379	22881.61
590.576	22224.22
590.773	22404.44
590.97	22080.86
591.167	22285.65
591.364	21988.7
591.561	22310.23
591.758	22007.13
591.955	22021.47
592.152	22060.38
592.349	21742.94
592.546	22158.68
592.743	21831.01
592.94	21474.66
593.137	21710.18
593.334	21732.7
593.531	21417.32
593.727	21491.04
593.924	21458.28
594.121	21130.6
594.318	21237.09
594.515	21198.18
594.712	21284.2
594.908	20841.84
595.105	21292.39
595.302	21022.06
595.499	20813.17
595.696	20987.24
595.892	20872.56
596.089	20678
596.286	20837.74
596.482	20723.05
596.679	20501.87
596.876	20489.59
597.072	20299.12
597.269	20356.47
597.466	20247.93
597.662	20159.86
597.859	20106.62
598.055	20424.05
598.252	19955.07
598.448	20182.39
598.645	20106.62
598.841	19850.62
599.038	19817.85
599.234	19744.13
599.431	19385.73
599.627	19570.05
599.824	19850.62
600.02	19174.79
600.217	19664.25
600.413	19301.76
600.609	19223.94
600.806	19129.73
601.002	19168.65
601.198	18828.68
601.395	19113.35
601.591	18912.65
601.787	18695.57
601.984	18840.97
602.18	18988.42
602.376	18732.43
602.572	18722.19
602.769	18576.78
602.965	18331.03
603.161	18615.69
603.357	18845.07
603.553	17962.39
603.75	18685.33
603.946	18257.3
604.142	18337.17
604.338	17933.72
604.534	18163.09
604.73	17745.31
604.926	17792.41
605.122	17888.67
605.318	17784.22
605.514	17477.02
605.71	17712.54
605.906	17671.58
606.102	17786.27
606.298	17577.37
606.494	17528.22
606.69	17380.77
606.886	17462.69
607.082	17403.3
607.278	17397.15
607.474	16987.56
607.67	17161.64
607.866	16917.93
608.062	17255.84
608.257	17126.82
608.453	17241.51
608.649	16846.25
608.845	16819.63
609.041	16829.87
609.236	16842.15
609.432	16645.55
609.628	16688.56
609.824	16594.35
610.019	16518.57
610.215	16436.66
610.411	16481.71
610.606	16528.81
610.802	16328.11
610.998	16293.3
611.193	16391.6
611.389	16123.32
611.584	15994.29
611.78	16057.78
611.976	16180.66
612.171	16149.94
612.367	16242.1
612.562	15893.94
612.758	16147.89
612.953	16043.45
613.149	15984.05
613.344	15891.9
613.539	15990.2
613.735	15668.67
613.93	15939
614.126	15623.61
614.321	15783.35
614.517	15680.96
614.712	15709.63
614.907	15300.03
615.103	15447.49
615.298	15459.77
615.493	15369.66
615.688	15308.23
615.884	15414.72
616.079	15283.65
616.274	15261.12
616.47	15037.89
616.665	15132.1
616.86	15082.95
617.055	14851.53
617.25	14861.77
617.445	15058.37
617.641	14736.84
617.836	15150.53
618.031	14489.04
618.226	14765.51
618.421	14591.44
618.616	14806.47
618.811	14280.14
619.006	14421.45
619.201	14470.61
619.396	14294.48
619.591	14181.84
619.786	14527.95
619.981	14214.61
620.176	14147.03
620.371	14026.2
620.566	14101.97
620.761	13833.69
620.956	13858.26
621.151	13786.58
621.346	13895.13
621.541	13700.57
621.735	13549.02
621.93	13528.54
622.125	13735.39
622.32	13155.81
622.515	13340.13
622.709	13284.83
622.904	13182.43
623.099	13155.81
623.294	13307.36
623.488	13164
623.683	12979.68
623.878	12936.68
624.072	12891.62
624.267	12852.71
624.462	12662.25
624.656	12559.85
624.851	12420.59
625.046	12690.92
625.24	12436.97
625.435	12320.24
625.629	12422.64
625.824	12340.72
626.018	12471.79
626.213	11990.52
626.407	12105.2
626.602	11787.77
626.796	11824.63
626.991	11818.49
627.185	11810.29
627.38	11636.22
627.574	11601.4
627.768	11646.46
627.963	11513.34
628.157	11408.89
628.352	11326.97
628.546	11304.45
628.74	11122.18
628.935	11320.83
629.129	11175.42
629.323	10794.5
629.517	10917.38
629.712	10896.9
629.906	10841.61
630.1	10798.6
630.294	10720.78
630.489	10507.79
630.683	10841.61
630.877	10475.02
631.071	10452.49
631.265	10700.3
631.459	10225.17
631.653	10620.42
631.848	10378.76
632.042	10153.49
632.236	10221.07
632.43	10014.23
632.624	10167.82
632.818	10159.63
633.012	9752.09
633.206	9903.64
633.4	9993.75
633.594	9819.67
633.788	9795.09
633.982	10042.9
634.176	9764.37
634.369	9680.41
634.563	9850.39
634.757	9580.06
634.951	9625.11
635.145	9551.38
635.339	9547.29
635.533	9489.95
635.726	9328.16
635.92	9063.97
636.114	9094.69
636.308	9313.82
636.501	9123.36
636.695	9160.22
636.889	9072.16
637.083	8859.17
637.276	8926.75
637.47	8785.44
637.664	8824.36
637.857	8863.27
638.051	8724.01
638.244	8390.19
638.438	8640.04
638.632	8681
638.825	8646.18
639.019	8506.92
639.212	8570.41
639.406	8427.05
639.599	8326.7
639.793	8220.21
639.986	8238.64
640.18	8226.35
640.373	8218.16
640.567	8119.85
640.76	8203.82
640.954	8064.56
641.147	7996.98
641.34	7980.59
641.534	7822.9
641.727	7820.85
641.92	7728.69
642.114	7724.6
642.307	7632.44
642.5	7796.28
642.694	7607.86
642.887	7568.95
643.08	7665.21
643.273	7511.61
643.467	7544.38
643.66	7364.15
643.853	7323.19
644.046	7200.32
644.239	7192.12
644.432	7228.99
644.626	7183.93
644.819	7046.72
645.012	7013.95
645.205	6860.35
645.398	6944.32
645.591	6848.07
645.784	6995.52
645.977	6886.98
646.17	6835.78
646.363	6811.2
646.556	6807.11
646.749	6594.12
646.942	6747.72
647.135	6721.09
647.328	6706.76
647.521	6530.63
647.714	6432.33
647.907	6389.32
648.099	6395.47
648.292	6321.74
648.485	6463.05
648.678	6178.38
648.871	6153.8
649.064	6385.23
649.256	6233.68
649.449	6127.18
649.642	6084.17
649.835	5975.63
650.027	5834.32
650.22	6000.21
650.413	6055.5
650.605	5979.73
650.798	5895.76
650.991	5996.11
651.183	5973.58
651.376	5801.55
651.568	5834.32
651.761	5727.83
651.954	5776.98
652.146	5688.92
652.339	5666.39
652.531	5695.06
652.724	5650
652.916	5437.02
653.109	5506.65
653.301	5516.89
653.494	5330.52
653.686	5453.4
653.879	5541.46
654.071	5312.09
654.263	5281.37
654.456	5334.62
654.648	5252.7
654.84	5148.25
655.033	5172.83
655.225	5115.48
655.417	5027.42
655.61	5111.39
655.802	4992.61
655.994	5072.48
656.186	5076.57
656.379	5000.8
656.571	4818.53
656.763	4804.19
656.955	4904.54
657.148	4830.82
657.34	4785.76
657.532	4894.3
657.724	4746.85
657.916	4812.39
658.108	4669.03
658.3	4646.5
658.492	4544.1
658.684	4431.46
658.876	4560.49
659.068	4470.37
659.26	4492.9
659.452	4519.53
659.644	4535.91
659.836	4327.02
660.028	4300.39
660.22	4322.92
660.412	4400.74
660.604	4304.49
660.796	4179.56
660.988	4296.3
661.18	4126.32
661.372	4171.37
661.563	4154.99
661.755	4091.5
661.947	4263.53
662.139	4214.38
662.331	4030.06
662.522	4040.3
662.714	4007.53
662.906	3968.62
663.097	4044.4
663.289	4005.49
663.481	3862.13
663.673	3985.01
663.864	3974.77
664.056	3819.12
664.247	3851.89
664.439	3737.2
664.631	3712.63
664.822	3620.47
665.014	3667.57
665.205	3694.19
665.397	3698.29
665.588	3628.66
665.78	3538.55
665.971	3589.75
666.163	3610.23
666.354	3563.12
666.546	3538.55
666.737	3540.6
666.929	3552.88
667.12	3470.97
667.311	3362.42
667.503	3446.39
667.694	3415.67
667.885	3374.71
668.077	3356.28
668.268	3378.81
668.459	3329.66
668.651	3192.44
668.842	3276.41
669.033	3255.93
669.224	3286.65
669.416	3300.98
669.607	3313.27
669.798	3290.74
669.989	3372.66
670.18	3167.87
670.371	3282.55
670.563	3137.15
670.754	3147.39
670.945	3155.58
671.136	3325.56
671.327	3161.72
671.518	3200.63
671.709	3126.91
671.9	3042.94
672.091	3057.28
672.282	2965.12
672.473	2926.21
672.664	2999.93
672.855	2950.78
673.046	3057.28
673.237	3088
673.428	2969.21
673.619	2979.45
673.809	3049.08
674	2983.55
674.191	2932.35
674.382	2864.77
674.573	2883.2
674.764	3018.36
674.954	2875.01
675.145	2811.52
675.336	2692.74
675.527	2838.14
675.717	2834.05
675.908	2879.1
676.099	2801.28
676.289	2731.65
676.48	2948.73
676.671	2756.22
676.861	2750.08
677.052	2645.63
677.243	2745.98
677.433	2739.84
677.624	2676.35
677.814	2711.17
678.005	2655.87
678.195	2758.27
678.386	2788.99
678.576	2664.07
678.767	2653.83
678.957	2619.01
679.148	2561.67
679.338	2586.24
679.529	2627.2
679.719	2590.34
679.909	2428.55
680.1	2510.47
680.29	2592.39
680.481	2659.97
680.671	2508.42
680.861	2545.28
681.052	2543.24
681.242	2522.76
681.432	2608.77
681.622	2500.23
681.813	2446.98
682.003	2461.32
682.193	2414.21
682.383	2459.27
682.573	2520.71
682.764	2424.45
682.954	2524.8
683.144	2436.74
683.334	2451.08
683.524	2508.42
683.714	2508.42
683.904	2526.85
684.094	2446.98
684.284	2416.26
684.474	2307.72
684.664	2352.77
684.854	2449.03
685.044	2479.75
685.234	2393.73
685.424	2330.25
685.614	2363.01
685.804	2457.22
685.994	2346.63
686.184	2463.37
686.374	2379.4
686.564	2430.6
686.753	2434.69
686.943	2410.12
687.133	2229.9
687.323	2383.49
687.513	2238.09
687.702	2369.16
687.892	2221.7
688.082	2248.33
688.272	2428.55
688.461	2379.4
688.651	2416.26
688.841	2201.23
689.03	2277
689.22	2221.7
689.41	2324.1
689.599	2244.23
689.789	2297.48
689.979	2129.55
690.168	2176.65
690.358	2172.55
690.547	2221.7
690.737	2264.71
690.926	2301.58
691.116	2252.42
691.305	2170.51
691.495	2178.7
691.684	2082.44
691.874	2281.1
692.063	2193.03
692.252	2227.85
692.442	2147.98
692.631	2125.45
692.82	2246.28
693.01	2236.04
693.199	2215.56
693.388	2184.84
693.578	2221.7
693.767	2221.7
693.956	2203.27
694.146	2147.98
694.335	2211.46
694.524	2141.83
694.713	2156.17
694.902	2104.97
695.092	2299.53
695.281	2096.78
695.47	2152.07
695.659	2119.31
695.848	2143.88
696.037	2215.56
696.226	1994.38
696.415	2051.72
696.604	2199.18
696.793	2139.79
696.982	2117.26
697.171	2213.51
697.36	2287.24
697.549	2098.83
697.738	2180.75
697.927	2184.84
698.116	2201.23
698.305	2162.31
698.494	2135.69
698.683	2199.18
698.872	2248.33
699.061	2176.65
699.25	2176.65
699.438	2131.59
699.627	2197.13
699.816	2055.82
700.005	2186.89
700.193	2123.4
700.382	2137.74
700.571	2107.02
700.76	2080.39
700.948	2240.14
701.137	2236.04
701.326	2100.87
701.514	2094.73
701.703	2205.32
701.892	2102.92
702.08	2221.7
702.269	2139.79
702.457	2078.35
702.646	2084.49
702.834	2021
703.023	2188.94
703.212	2051.72
703.4	2004.62
703.589	2119.31
703.777	2076.3
703.965	2129.55
704.154	2074.25
704.342	2164.36
704.531	2170.51
704.719	2049.68
704.907	2018.96
705.096	1930.89
705.284	2012.81
705.472	2045.58
705.661	1969.8
705.849	2061.96
706.037	2002.57
706.226	2088.59
706.414	1947.28
706.602	2037.39
706.79	1937.04
706.979	2012.81
707.167	1945.23
707.355	1967.76
707.543	1937.04
707.731	1947.28
707.919	2055.82
708.107	1838.73
708.296	1879.69
708.484	1887.89
708.672	1992.33
708.86	1857.17
709.048	1916.56
709.236	1853.07
709.424	1844.88
709.612	1881.74
709.8	1904.27
709.988	1943.18
710.176	1838.73
710.364	1861.26
710.551	1906.32
710.739	1846.93
710.927	1779.34
711.115	1934.99
711.303	1826.45
711.491	1773.2
711.679	1810.06
711.866	1828.49
712.054	1730.19
712.242	1756.82
712.43	1799.82
712.617	1787.54
712.805	1840.78
712.993	1859.21
713.181	1689.23
713.368	1734.29
713.556	1828.49
713.744	1689.23
713.931	1754.77
714.119	1674.9
714.306	1801.87
714.494	1668.75
714.682	1822.35
714.869	1672.85
715.057	1699.47
715.244	1713.81
715.432	1642.13
715.619	1689.23
715.807	1611.41
715.994	1730.19
716.182	1599.12
716.369	1568.4
716.556	1613.46
716.744	1588.88
716.931	1586.83
717.119	1631.89
717.306	1607.31
717.493	1638.03
717.681	1543.83
717.868	1541.78
718.055	1652.37
718.242	1560.21
718.43	1543.83
718.617	1562.26
718.804	1590.93
718.991	1590.93
719.179	1533.59
719.366	1629.84
719.553	1515.16
719.74	1564.31
719.927	1533.59
720.114	1543.83
720.301	1584.79
720.488	1527.44
720.676	1515.16
720.863	1388.18
721.05	1496.72
721.237	1478.29
721.424	1525.4
721.611	1416.85
721.798	1455.76
721.985	1390.23
722.172	1435.28
722.358	1433.24
722.545	1451.67
722.732	1492.63
722.919	1476.24
723.106	1390.23
723.293	1447.57
723.48	1480.34
723.667	1349.27
723.853	1347.22
724.04	1447.57
724.227	1429.14
724.414	1431.19
724.6	1412.76
724.787	1371.8
724.974	1396.37
725.161	1353.37
725.347	1341.08
725.534	1373.85
725.72	1312.41
725.907	1353.37
726.094	1398.42
726.28	1349.27
726.467	1318.55
726.653	1246.87
726.84	1212.06
727.027	1377.94
727.213	1244.82
727.4	1367.7
727.586	1377.94
727.773	1246.87
727.959	1275.54
728.145	1291.93
728.332	1246.87
728.518	1207.96
728.705	1261.21
728.891	1367.7
729.077	1265.3
729.264	1242.78
729.45	1238.68
729.636	1304.21
729.823	1224.34
730.009	1220.25
730.195	1210.01
730.382	1289.88
730.568	1214.1
730.754	1296.02
730.94	1183.38
731.126	1205.91
731.313	1232.54
731.499	1203.86
731.685	1183.38
731.871	1214.1
732.057	1291.93
732.243	1185.43
732.429	1130.14
732.615	1189.53
732.801	1201.82
732.987	1162.9
733.173	1175.19
733.359	1199.77
733.545	1009.31
733.731	1160.86
733.917	1158.81
734.103	1154.71
734.289	1052.31
734.475	1083.03
734.661	1111.71
734.847	1113.75
735.033	1066.65
735.219	1142.43
735.404	1105.56
735.59	1042.07
735.776	1080.99
735.962	1130.14
736.148	1105.56
736.333	1117.85
736.519	1099.42
736.705	976.54
736.89	1023.64
737.076	1072.79
737.262	1035.93
737.447	1029.79
737.633	1089.18
737.819	1048.22
738.004	974.49
738.19	1033.88
738.375	945.82
738.561	966.3
738.747	1085.08
738.932	1037.98
739.118	1027.74
739.303	1005.21
739.489	1015.45
739.674	1017.5
739.859	966.3
740.045	1003.16
740.23	951.96
740.416	1033.88
740.601	1015.45
740.786	902.81
740.972	1021.6
741.157	892.57
741.342	992.92
741.528	872.09
741.713	997.02
741.898	935.58
742.084	980.64
742.269	908.96
742.454	984.73
742.639	929.44
742.824	855.71
743.01	954.01
743.195	872.09
743.38	812.7
743.565	1019.55
743.75	908.96
743.935	931.48
744.12	978.59
744.305	859.81
744.49	968.35
744.675	937.63
744.86	841.37
745.045	894.62
745.23	902.81
745.415	882.33
745.6	804.51
745.785	908.96
745.97	915.1
746.155	859.81
746.34	749.22
746.525	888.48
746.71	802.46
746.895	861.85
747.079	769.69
747.264	769.69
747.449	853.66
747.634	798.37
747.819	833.18
748.003	788.13
748.188	763.55
748.373	757.41
748.557	814.75
748.742	722.59
748.927	734.88
749.111	837.28
749.296	747.17
749.481	790.17
749.665	741.02
749.85	671.39
750.034	667.3
750.219	659.1
750.404	716.45
750.588	730.78
750.773	757.41
750.957	773.79
751.141	724.64
751.326	751.26
751.51	612
751.695	652.96
751.879	689.82
752.064	657.06
752.248	612
752.432	667.3
752.617	681.63
752.801	669.34
752.985	679.58
753.17	667.3
753.354	618.15
753.538	620.19
753.722	626.34
753.907	661.15
754.091	657.06
754.275	601.76
754.459	618.15
754.643	652.96
754.828	616.1
755.012	607.91
755.196	640.67
755.38	747.17
755.564	482.98
755.748	548.51
755.932	603.81
756.116	579.23
756.3	622.24
756.484	634.53
756.668	544.42
756.852	542.37
757.036	560.8
757.22	517.79
757.404	495.27
757.588	593.57
757.772	632.48
757.956	609.95
758.14	581.28
758.323	523.94
758.507	589.47
758.691	609.95
758.875	593.57
759.059	583.33
759.242	595.62
759.426	462.5
759.61	491.17
759.794	507.55
759.977	523.94
760.161	458.4
760.345	587.43
760.528	513.7
760.712	470.69
760.895	534.18
761.079	546.47
761.263	509.6
761.446	446.12
761.63	464.55
761.813	478.88
761.997	466.6
762.18	376.48
762.364	495.27
762.547	464.55
762.731	466.6
762.914	429.73
763.098	462.5
763.281	442.02
763.464	462.5
763.648	460.45
763.831	474.79
764.015	462.5
764.198	513.7
764.381	425.64
764.564	450.21
764.748	442.02
764.931	480.93
765.114	444.07
765.297	437.92
765.481	421.54
765.664	403.11
765.847	403.11
766.03	517.79
766.213	380.58
766.397	448.16
766.58	364.2
766.763	380.58
766.946	448.16
767.129	450.21
767.312	411.3
767.495	491.17
767.678	382.63
767.861	448.16
768.044	396.96
768.227	435.88
768.41	472.74
768.593	452.26
768.776	452.26
768.959	439.97
769.142	489.12
769.324	413.35
769.507	351.91
769.69	464.55
769.873	364.2
770.056	476.84
770.239	411.3
770.421	384.68
770.604	427.68
770.787	394.92
770.97	458.4
771.152	427.68
771.335	331.43
771.518	425.64
771.7	380.58
771.883	386.72
772.066	439.97
772.248	421.54
772.431	358.05
772.613	319.14
772.796	415.4
772.978	411.3
773.161	386.72
773.343	435.88
773.526	257.7
773.708	366.25
773.891	345.77
774.073	394.92
774.256	366.25
774.438	319.14
774.621	347.81
774.803	325.29
774.985	310.95
775.168	374.44
775.35	333.48
775.532	315.05
775.715	413.35
775.897	370.34
776.079	353.96
776.261	394.92
776.444	329.38
776.626	321.19
776.808	349.86
776.99	261.8
777.173	323.24
777.355	364.2
777.537	267.94
777.719	356.01
777.901	298.66
778.083	317.09
778.265	290.47
778.447	306.85
778.629	331.43
778.811	341.67
778.993	333.48
779.175	263.85
779.357	317.09
779.539	335.53
779.721	276.13
779.903	288.42
780.085	310.95
780.267	265.89
780.449	296.61
780.631	272.04
780.812	261.8
780.994	263.85
781.176	235.18
781.358	267.94
781.54	249.51
781.721	313
781.903	229.03
782.085	276.13
782.267	323.24
782.448	243.37
782.63	255.65
782.812	259.75
782.993	247.46
783.175	220.84
783.357	206.5
783.538	208.55
783.72	181.93
783.901	233.13
784.083	210.6
784.264	186.02
784.446	165.54
784.627	190.12
784.809	222.89
784.99	235.18
785.172	212.65
785.353	229.03
785.535	190.12
785.716	202.41
785.897	186.02
786.079	155.3
786.26	188.07
786.441	165.54
786.623	157.35
786.804	159.4
786.985	173.74
787.167	198.31
787.348	155.3
787.529	216.74
787.71	188.07
787.891	188.07
788.073	280.23
788.254	204.46
788.435	214.7
788.616	155.3
788.797	145.06
788.978	190.12
789.159	220.84
789.34	157.35
789.522	200.36
789.703	118.44
789.884	140.97
790.065	126.63
790.246	149.16
790.427	229.03
790.607	147.11
790.788	247.46
790.969	102.06
791.15	136.87
791.331	165.54
791.512	181.93
791.693	161.45
791.874	173.74
792.054	183.98
792.235	116.39
792.416	194.22
792.597	198.31
792.778	167.59
792.958	222.89
793.139	147.11
793.32	130.73
793.5	114.34
793.681	97.96
793.862	151.21
794.042	245.41
794.223	89.77
794.404	75.43
794.584	149.16
794.765	231.08
794.945	151.21
795.126	188.07
795.306	118.44
795.487	112.3
795.667	97.96
795.848	175.78
796.028	54.95
796.209	122.54
796.389	124.58
796.57	79.53
796.75	91.82
796.93	71.34
797.111	93.87
797.291	157.35
797.471	100.01
797.652	91.82
797.832	104.11
798.012	155.3
798.192	69.29
798.373	147.11
798.553	171.69
798.733	159.4
798.913	130.73
799.093	124.58
799.274	59.05
799.454	179.88
799.634	71.34
799.814	136.87
799.994	97.96
800.174	128.68
800.354	108.2
800.534	79.53
800.714	89.77
800.894	59.05
801.074	83.63
801.254	97.96
801.434	157.35
801.614	79.53
801.794	108.2
801.974	310.95
802.154	73.39
802.334	100.01
802.514	93.87
802.693	11.95
802.873	-6.49
803.053	192.17
803.233	114.34
803.413	149.16
803.592	136.87
803.772	9.9
803.952	102.06
804.131	89.77
804.311	157.35
804.491	102.06
804.67	44.71
804.85	91.82
805.03	151.21
805.209	108.2
805.389	124.58
805.568	34.47
805.748	108.2
805.928	124.58
806.107	81.58
806.287	112.3
806.466	36.52
806.646	100.01
806.825	42.67
807.004	75.43
807.184	89.77
807.363	175.78
807.543	118.44
807.722	71.34
807.901	104.11
808.081	57
808.26	114.34
808.439	91.82
808.619	75.43
808.798	71.34
808.977	77.48
809.156	69.29
809.336	54.95
809.515	116.39
809.694	93.87
809.873	149.16
810.052	65.19
810.231	161.45
810.411	42.67
810.59	63.15
810.769	83.63
810.948	132.78
811.127	-0.34
811.306	93.87
811.485	65.19
811.664	3.75
811.843	122.54
812.022	63.15
812.201	77.48
812.38	87.72
812.559	44.71
812.737	75.43
812.916	20.14
813.095	91.82
813.274	5.8
813.453	18.09
813.632	46.76
813.811	100.01
813.989	50.86
814.168	95.91
814.347	20.14
814.526	38.57
814.704	32.43
814.883	65.19
815.062	26.28
815.24	54.95
815.419	112.3
815.598	36.52
815.776	65.19
815.955	30.38
816.133	24.23
816.312	69.29
816.49	48.81
816.669	118.44
816.847	-49.49
817.026	67.24
817.204	42.67
817.383	97.96
817.561	16.04
817.74	22.19
817.918	5.8
818.097	5.8
818.275	18.09
818.453	87.72
818.632	-4.44
818.81	116.39
818.988	85.67
819.167	34.47
819.345	57
819.523	59.05
819.701	42.67
819.879	42.67
820.058	26.28
820.236	77.48
820.414	75.43
820.592	87.72
820.77	34.47
820.948	24.23
821.127	26.28
821.305	20.14
821.483	91.82
821.661	7.85
821.839	50.86
822.017	63.15
822.195	-8.53
822.373	104.11
822.551	81.58
822.729	1.71
822.907	59.05
823.085	50.86
823.262	-29.01
823.44	20.14
823.618	-31.06
823.796	36.52
823.974	-47.44
824.152	75.43
824.329	65.19
824.507	73.39
824.685	-31.06
824.863	-16.73
825.04	34.47
825.218	79.53
825.396	13.99
825.574	102.06
825.751	16.04
825.929	40.62
826.107	-31.06
826.284	-35.16
826.462	118.44
826.639	18.09
826.817	-29.01
826.994	122.54
827.172	-22.87
827.349	52.91
827.527	81.58
827.704	-43.35
827.882	61.1
828.059	36.52
828.237	32.43
828.414	-6.49
828.591	11.95
828.769	67.24
828.946	54.95
829.124	81.58
829.301	34.47
829.478	26.28
829.655	-8.53
829.833	-12.63
830.01	-8.53
830.187	16.04
830.364	-16.73
830.542	11.95
830.719	79.53
830.896	83.63
831.073	75.43
831.25	7.85
831.427	-20.82
831.604	-20.82
831.782	16.04
831.959	42.67
832.136	50.86
832.313	69.29
832.49	24.23
832.667	83.63
832.844	40.62
833.021	26.28
833.198	42.67
833.374	9.9
833.551	40.62
833.728	65.19
833.905	22.19
834.082	42.67
834.259	118.44
834.436	71.34
834.612	-86.36
834.789	22.19
834.966	-4.44
835.143	-4.44
835.319	-14.68
835.496	7.85
835.673	36.52
835.85	75.43
836.026	18.09
836.203	46.76
836.38	42.67
836.556	95.91
836.733	42.67
836.909	50.86
837.086	61.1
837.262	16.04
837.439	22.19
837.616	-12.63
837.792	28.33
837.968	-10.58
838.145	11.95
838.321	42.67
838.498	-14.68
838.674	46.76
838.851	13.99
839.027	-14.68
839.203	3.75
839.38	16.04
839.556	9.9
839.732	-22.87
839.909	32.43
840.085	13.99
840.261	-33.11
840.437	-80.21
840.614	-45.4
840.79	50.86
840.966	-6.49
841.142	-33.11
841.318	77.48
841.494	11.95
841.671	-14.68
841.847	-12.63
842.023	-26.96
842.199	50.86
842.375	-45.4
842.551	-16.73
842.727	-16.73
842.903	67.24
843.079	18.09
843.255	50.86
843.431	16.04
843.607	18.09
843.783	-24.92
843.959	38.57
844.134	9.9
844.31	54.95
844.486	-45.4
844.662	-12.63
844.838	7.85
845.013	28.33
845.189	-12.63
845.365	54.95
845.541	13.99
845.716	34.47
845.892	1.71
846.068	52.91
846.244	-31.06
846.419	75.43
846.595	-4.44
846.77	36.52
846.946	-39.25
847.122	-0.34
847.297	34.47
847.473	34.47
847.648	26.28
847.824	52.91
847.999	-24.92
848.175	38.57
848.35	-12.63
848.526	-31.06
848.701	5.8
848.876	-22.87
849.052	13.99
849.227	16.04
849.403	-10.58
849.578	-37.2
849.753	54.95
849.929	-33.11
850.104	3.75
850.279	5.8
850.454	-26.96
850.63	-16.73
850.805	-14.68
850.98	-29.01
851.155	-26.96
851.33	5.8
851.505	-29.01
851.681	-55.64
851.856	-29.01
852.031	-78.16
852.206	-31.06
852.381	-0.34
852.556	73.39
852.731	18.09
852.906	-2.39
853.081	-8.53
853.256	1.71
853.431	22.19
853.606	-43.35
853.781	-26.96
853.956	-6.49
854.131	-26.96
854.305	-67.92
854.48	-59.73
854.655	57
854.83	-31.06
855.005	11.95
855.18	-55.64
855.354	-22.87
855.529	11.95
855.704	-4.44
855.879	-26.96
856.053	13.99
856.228	-12.63
856.403	42.67
856.577	-24.92
856.752	32.43
856.926	16.04
857.101	83.63
857.276	-31.06
857.45	-14.68
857.625	-59.73
857.799	24.23
857.974	59.05
858.148	1.71
858.323	-2.39
858.497	36.52
858.672	-10.58
858.846	24.23
859.02	18.09
859.195	-24.92
859.369	-65.88
859.543	26.28
859.718	-55.64
859.892	11.95
860.066	18.09
860.241	-84.31
860.415	16.04
860.589	-53.59
860.763	54.95
860.938	24.23
861.112	46.76
861.286	-26.96
861.46	-31.06
861.634	22.19
861.808	71.34
861.982	-22.87
862.157	-65.88
862.331	-51.54
862.505	-2.39
862.679	-16.73
862.853	9.9
863.027	42.67
863.201	-14.68
863.375	13.99
863.549	-53.59
863.722	83.63
863.896	-84.31
864.07	11.95
864.244	9.9
864.418	-31.06
864.592	-43.35
864.766	-16.73
864.939	-0.34
865.113	-43.35
865.287	34.47
865.461	-12.63
865.634	-31.06
865.808	-39.25
865.982	-12.63
866.156	3.75
866.329	11.95
866.503	9.9
866.676	52.91
866.85	-51.54
867.024	-18.77
867.197	-4.44
867.371	-12.63
867.544	-39.25
867.718	-41.3
867.891	-18.77
868.065	7.85
868.238	34.47
868.412	-94.55
868.585	-80.21
868.759	-31.06
868.932	-20.82
869.105	18.09
869.279	-14.68
869.452	-31.06
869.625	-6.49
869.799	77.48
869.972	-65.88
870.145	22.19
870.319	40.62
870.492	-37.2
870.665	-18.77
870.838	-16.73
871.011	9.9
871.185	7.85
871.358	-55.64
871.531	-16.73
871.704	20.14
871.877	18.09
872.05	-24.92
872.223	18.09
872.396	42.67
872.569	-39.25
872.742	-63.83
872.915	20.14
873.088	18.09
873.261	-22.87
873.434	-63.83
873.607	5.8
873.78	-39.25
873.953	32.43
874.126	-31.06
874.299	-2.39
874.471	-14.68
874.644	-51.54
874.817	79.53
874.99	-24.92
875.163	-6.49
875.335	-39.25
875.508	-102.74
875.681	-14.68
875.853	54.95
876.026	-14.68
876.199	-18.77
876.371	-6.49
876.544	24.23
876.717	-65.88
876.889	-4.44
877.062	44.71
877.234	-47.44
877.407	-63.83
877.579	-33.11
877.752	16.04
877.924	3.75
878.097	28.33
878.269	24.23
878.442	1.71
878.614	-35.16
878.786	-12.63
878.959	-14.68
879.131	34.47
879.303	-31.06
879.476	-24.92
879.648	-8.53
879.82	1.71
879.993	-18.77
880.165	18.09
880.337	-10.58
880.509	1.71
880.681	-2.39
880.854	-12.63
881.026	11.95
881.198	61.1
881.37	18.09
881.542	-24.92
881.714	-29.01
881.886	59.05
882.058	-6.49
882.23	-43.35
882.402	-35.16
882.574	57
882.746	-2.39
882.918	61.1
883.09	9.9
883.262	-67.92
883.434	-20.82
883.606	-4.44
883.778	30.38
883.95	5.8
884.122	-39.25
884.293	20.14
884.465	1.71
884.637	11.95
884.809	9.9
884.98	5.8
885.152	-96.6
885.324	-29.01
885.496	50.86
885.667	-76.12
885.839	-39.25
886.011	69.29
886.182	38.57
886.354	11.95
886.525	11.95
886.697	-4.44
886.869	-72.02
887.04	13.99
887.212	5.8
887.383	-12.63
887.555	-76.12
887.726	-43.35
887.897	-12.63
888.069	22.19
888.24	-14.68
888.412	-57.68
888.583	-14.68
888.754	-29.01
888.926	-72.02
889.097	28.33
889.268	-4.44
889.44	18.09
889.611	-29.01
889.782	-35.16
889.953	-41.3
890.125	48.81
890.296	-47.44
890.467	-12.63
890.638	-59.73
890.809	-86.36
890.98	-74.07
891.151	-72.02
891.323	-59.73
891.494	-6.49
891.665	16.04
891.836	-14.68
892.007	-72.02
892.178	11.95
892.349	-22.87
892.52	-55.64
892.691	-20.82
892.862	-39.25
893.032	30.38
893.203	-69.97
893.374	-4.44
893.545	-53.59
893.716	-12.63
893.887	-8.53
894.057	-65.88
894.228	-16.73
894.399	-2.39
894.57	3.75
894.74	-31.06
894.911	-26.96
895.082	38.57
895.253	42.67
895.423	-20.82
895.594	-14.68
895.764	-47.44
895.935	1.71
896.106	-47.44
896.276	-22.87
896.447	42.67
896.617	-45.4
896.788	-86.36
896.958	42.67
897.129	-29.01
897.299	-14.68
897.47	34.47
897.64	-22.87
897.81	-141.65
897.981	-49.49
898.151	24.23
898.322	22.19
898.492	-12.63
898.662	57
898.832	-33.11
899.003	-47.44
899.173	-45.4
899.343	40.62
899.513	-37.2
