Data from USB4F104151__128__13-57-58-638.txt Node

Date: Thu Mar 13 13:57:58 EDT 2025
User: louis
Spectrometer: USB4F10415
Trigger mode: 4
Integration Time (sec): 1.000000E-2
Scans to average: 1
Electric dark correction enabled: true
Nonlinearity correction enabled: false
Boxcar width: 0
XAxis mode: Wavelengths
Number of Pixels in Spectrum: 3648
>>>>>Begin Spectral Data<<<<<
178.204	-80.72
178.424	-80.72
178.644	-80.72
178.864	-95.06
179.084	-7
179.304	-19.29
179.524	-19.29
179.744	11.43
179.964	-33.62
180.184	-37.72
180.404	21.67
180.624	19.63
180.844	13.48
181.064	13.48
181.283	7.34
181.503	-29.52
181.723	52.39
181.943	-2.9
182.163	23.72
182.383	-52.05
182.602	-0.85
182.822	70.83
183.042	-7
183.262	58.54
183.482	79.02
183.701	50.35
183.921	29.87
184.141	29.87
184.361	13.48
184.58	-37.72
184.8	3.24
185.02	50.35
185.239	132.26
185.459	1.19
185.679	36.01
185.898	105.64
186.118	33.96
186.338	-4.95
186.557	23.72
186.777	44.2
186.997	46.25
187.216	17.58
187.436	74.92
187.655	-2.9
187.875	87.21
188.095	-64.34
188.314	23.72
188.534	-11.09
188.753	27.82
188.973	-11.09
189.192	-23.38
189.412	-27.48
189.631	31.91
189.851	-27.48
190.07	-0.85
190.29	3.24
190.509	-95.06
190.729	25.77
190.948	50.35
191.168	48.3
191.387	36.01
191.607	-60.24
191.826	5.29
192.045	-41.81
192.265	44.2
192.484	-21.33
192.704	11.43
192.923	-9.05
193.142	38.06
193.362	25.77
193.581	-19.29
193.8	1.19
194.02	1.19
194.239	66.73
194.458	1.19
194.678	19.63
194.897	19.63
195.116	-9.05
195.335	50.35
195.555	-31.57
195.774	19.63
195.993	11.43
196.212	3.24
196.432	33.96
196.651	46.25
196.87	3.24
197.089	66.73
197.308	17.58
197.528	68.78
197.747	-70.48
197.966	-2.9
198.185	74.92
198.404	-11.09
198.623	5.29
198.842	36.01
199.062	58.54
199.281	40.11
199.5	-15.19
199.719	62.63
199.938	72.87
200.157	56.49
200.376	31.91
200.595	89.26
200.814	13.48
201.033	11.43
201.252	13.48
201.471	-4.95
201.69	11.43
201.909	-2.9
202.128	64.68
202.347	-23.38
202.566	68.78
202.785	-23.38
203.004	-33.62
203.223	105.64
203.442	-19.29
203.661	44.2
203.879	-33.62
204.098	9.39
204.317	31.91
204.536	64.68
204.755	44.2
204.974	42.15
205.193	3.24
205.411	-23.38
205.63	-37.72
205.849	-11.09
206.068	-0.85
206.287	-13.14
206.505	25.77
206.724	-19.29
206.943	31.91
207.162	60.59
207.381	-2.9
207.599	74.92
207.818	44.2
208.037	44.2
208.255	31.91
208.474	15.53
208.693	36.01
208.911	44.2
209.13	-39.76
209.349	17.58
209.567	3.24
209.786	-15.19
210.005	29.87
210.223	81.07
210.442	-13.14
210.661	50.35
210.879	11.43
211.098	46.25
211.316	52.39
211.535	-29.52
211.753	-11.09
211.972	44.2
212.191	1.19
212.409	87.21
212.628	42.15
212.846	5.29
213.065	1.19
213.283	44.2
213.502	-76.63
213.72	79.02
213.938	-23.38
214.157	89.26
214.375	33.96
214.594	42.15
214.812	40.11
215.031	72.87
215.249	23.72
215.467	23.72
215.686	76.97
215.904	13.48
216.122	11.43
216.341	5.29
216.559	15.53
216.778	117.93
216.996	72.87
217.214	38.06
217.432	25.77
217.651	3.24
217.869	58.54
218.087	15.53
218.306	27.82
218.524	19.63
218.742	85.16
218.96	44.2
219.179	-9.05
219.397	15.53
219.615	58.54
219.833	31.91
220.051	36.01
220.27	21.67
220.488	-7
220.706	91.31
220.924	38.06
221.142	52.39
221.36	3.24
221.578	-15.19
221.796	21.67
222.015	-37.72
222.233	72.87
222.451	5.29
222.669	58.54
222.887	60.59
223.105	40.11
223.323	46.25
223.541	33.96
223.759	19.63
223.977	52.39
224.195	87.21
224.413	23.72
224.631	52.39
224.849	42.15
225.067	-17.24
225.285	27.82
225.503	-43.86
225.721	-9.05
225.939	46.25
226.157	36.01
226.375	15.53
226.592	-25.43
226.81	-21.33
227.028	-39.76
227.246	56.49
227.464	3.24
227.682	19.63
227.9	68.78
228.117	62.63
228.335	64.68
228.553	7.34
228.771	38.06
228.989	44.2
229.206	31.91
229.424	38.06
229.642	48.3
229.86	-11.09
230.077	72.87
230.295	68.78
230.513	-11.09
230.731	42.15
230.948	105.64
231.166	60.59
231.384	3.24
231.601	66.73
231.819	44.2
232.037	79.02
232.254	29.87
232.472	15.53
232.689	56.49
232.907	97.45
233.125	-23.38
233.342	-68.44
233.56	74.92
233.777	101.55
233.995	9.39
234.213	36.01
234.43	19.63
234.648	19.63
234.865	-2.9
235.083	-2.9
235.3	-37.72
235.518	21.67
235.735	11.43
235.953	-2.9
236.17	-27.48
236.388	60.59
236.605	36.01
236.822	17.58
237.04	-27.48
237.257	-80.72
237.475	-35.67
237.692	44.2
237.909	-9.05
238.127	3.24
238.344	44.2
238.562	79.02
238.779	44.2
238.996	5.29
239.214	36.01
239.431	-2.9
239.648	-15.19
239.865	44.2
240.083	38.06
240.3	93.35
240.517	62.63
240.735	83.11
240.952	38.06
241.169	111.78
241.386	-29.52
241.603	72.87
241.821	5.29
242.038	115.88
242.255	64.68
242.472	33.96
242.689	-33.62
242.907	36.01
243.124	130.22
243.341	13.48
243.558	-35.67
243.775	25.77
243.992	-13.14
244.209	23.72
244.426	21.67
244.643	-2.9
244.86	-19.29
245.078	46.25
245.295	7.34
245.512	76.97
245.729	46.25
245.946	40.11
246.163	-17.24
246.38	1.19
246.597	-7
246.814	-9.05
247.031	83.11
247.248	31.91
247.464	-37.72
247.681	-41.81
247.898	50.35
248.115	89.26
248.332	-29.52
248.549	27.82
248.766	42.15
248.983	130.22
249.2	60.59
249.417	7.34
249.633	17.58
249.85	-11.09
250.067	29.87
250.284	36.01
250.501	-2.9
250.717	-4.95
250.934	46.25
251.151	29.87
251.368	9.39
251.585	46.25
251.801	58.54
252.018	31.91
252.235	27.82
252.451	-41.81
252.668	66.73
252.885	-4.95
253.102	-41.81
253.318	33.96
253.535	13.48
253.752	21.67
253.968	31.91
254.185	46.25
254.401	-4.95
254.618	70.83
254.835	21.67
255.051	44.2
255.268	23.72
255.484	-9.05
255.701	19.63
255.917	40.11
256.134	15.53
256.351	74.92
256.567	-19.29
256.784	85.16
257	33.96
257.217	44.2
257.433	19.63
257.65	27.82
257.866	21.67
258.082	3.24
258.299	-27.48
258.515	-0.85
258.732	9.39
258.948	62.63
259.165	-29.52
259.381	17.58
259.597	23.72
259.814	38.06
260.03	40.11
260.246	58.54
260.463	54.44
260.679	21.67
260.895	60.59
261.112	19.63
261.328	11.43
261.544	-0.85
261.761	40.11
261.977	3.24
262.193	91.31
262.409	13.48
262.626	11.43
262.842	19.63
263.058	74.92
263.274	58.54
263.49	68.78
263.707	64.68
263.923	54.44
264.139	3.24
264.355	27.82
264.571	21.67
264.787	-25.43
265.004	85.16
265.22	54.44
265.436	3.24
265.652	-2.9
265.868	109.74
266.084	-37.72
266.3	44.2
266.516	85.16
266.732	7.34
266.948	40.11
267.164	-13.14
267.38	3.24
267.596	85.16
267.812	-2.9
268.028	68.78
268.244	5.29
268.46	-50
268.676	-76.63
268.892	50.35
269.108	31.91
269.324	113.83
269.54	-21.33
269.756	44.2
269.972	-19.29
270.188	13.48
270.403	31.91
270.619	-29.52
270.835	-11.09
271.051	23.72
271.267	31.91
271.483	66.73
271.698	9.39
271.914	27.82
272.13	-4.95
272.346	13.48
272.562	68.78
272.777	3.24
272.993	52.39
273.209	60.59
273.425	19.63
273.64	3.24
273.856	15.53
274.072	23.72
274.287	11.43
274.503	38.06
274.719	52.39
274.934	33.96
275.15	38.06
275.366	17.58
275.581	23.72
275.797	44.2
276.012	7.34
276.228	29.87
276.444	3.24
276.659	25.77
276.875	11.43
277.09	60.59
277.306	23.72
277.521	-15.19
277.737	7.34
277.952	27.82
278.168	97.45
278.383	15.53
278.599	1.19
278.814	52.39
279.03	-21.33
279.245	60.59
279.461	46.25
279.676	44.2
279.892	-17.24
280.107	-21.33
280.322	13.48
280.538	23.72
280.753	58.54
280.969	85.16
281.184	7.34
281.399	1.19
281.615	-41.81
281.83	29.87
282.045	25.77
282.26	5.29
282.476	29.87
282.691	11.43
282.906	31.91
283.122	50.35
283.337	-52.05
283.552	60.59
283.767	36.01
283.983	-7
284.198	25.77
284.413	-0.85
284.628	19.63
284.843	72.87
285.058	11.43
285.274	3.24
285.489	48.3
285.704	5.29
285.919	93.35
286.134	19.63
286.349	7.34
286.564	56.49
286.779	70.83
286.995	13.48
287.21	68.78
287.425	13.48
287.64	19.63
287.855	1.19
288.07	7.34
288.285	33.96
288.5	56.49
288.715	83.11
288.93	21.67
289.145	13.48
289.36	-2.9
289.575	3.24
289.79	31.91
290.004	66.73
290.219	60.59
290.434	-9.05
290.649	70.83
290.864	-41.81
291.079	3.24
291.294	-13.14
291.509	9.39
291.724	36.01
291.938	-47.96
292.153	60.59
292.368	29.87
292.583	66.73
292.798	-21.33
293.012	21.67
293.227	-2.9
293.442	72.87
293.657	27.82
293.871	52.39
294.086	101.55
294.301	134.31
294.516	99.5
294.73	-4.95
294.945	11.43
295.16	-50
295.374	23.72
295.589	54.44
295.804	17.58
296.018	-23.38
296.233	81.07
296.447	-31.57
296.662	-11.09
296.877	-13.14
297.091	19.63
297.306	-2.9
297.52	-11.09
297.735	7.34
297.949	5.29
298.164	56.49
298.378	-31.57
298.593	-45.91
298.807	17.58
299.022	50.35
299.236	29.87
299.451	44.2
299.665	52.39
299.88	46.25
300.094	3.24
300.309	17.58
300.523	64.68
300.737	7.34
300.952	25.77
301.166	70.83
301.381	74.92
301.595	44.2
301.809	1.19
302.024	64.68
302.238	52.39
302.452	72.87
302.667	21.67
302.881	5.29
303.095	103.59
303.309	56.49
303.524	-19.29
303.738	29.87
303.952	-11.09
304.166	7.34
304.381	7.34
304.595	52.39
304.809	97.45
305.023	23.72
305.237	-17.24
305.452	40.11
305.666	-7
305.88	29.87
306.094	29.87
306.308	-21.33
306.522	56.49
306.736	79.02
306.95	105.64
307.164	74.92
307.379	48.3
307.593	85.16
307.807	-27.48
308.021	-9.05
308.235	29.87
308.449	74.92
308.663	11.43
308.877	167.08
309.091	19.63
309.305	48.3
309.519	-13.14
309.733	-19.29
309.947	36.01
310.161	87.21
310.374	54.44
310.588	17.58
310.802	9.39
311.016	66.73
311.23	-9.05
311.444	-13.14
311.658	42.15
311.872	105.64
312.085	-2.9
312.299	23.72
312.513	1.19
312.727	74.92
312.941	103.59
313.154	23.72
313.368	83.11
313.582	52.39
313.796	44.2
314.009	17.58
314.223	87.21
314.437	46.25
314.651	15.53
314.864	27.82
315.078	81.07
315.292	68.78
315.505	29.87
315.719	95.4
315.933	46.25
316.146	-19.29
316.36	-25.43
316.573	103.59
316.787	-25.43
317.001	62.63
317.214	-21.33
317.428	15.53
317.641	21.67
317.855	48.3
318.068	-7
318.282	44.2
318.495	-15.19
318.709	72.87
318.922	42.15
319.136	29.87
319.349	23.72
319.563	44.2
319.776	79.02
319.99	62.63
320.203	3.24
320.417	97.45
320.63	27.82
320.843	62.63
321.057	99.5
321.27	27.82
321.483	-13.14
321.697	128.17
321.91	11.43
322.124	50.35
322.337	68.78
322.55	52.39
322.763	38.06
322.977	-31.57
323.19	56.49
323.403	93.35
323.617	81.07
323.83	-0.85
324.043	56.49
324.256	40.11
324.469	68.78
324.683	-7
324.896	60.59
325.109	9.39
325.322	44.2
325.535	5.29
325.748	-17.24
325.962	23.72
326.175	11.43
326.388	11.43
326.601	56.49
326.814	29.87
327.027	40.11
327.24	81.07
327.453	29.87
327.666	38.06
327.879	21.67
328.092	62.63
328.305	19.63
328.518	54.44
328.731	103.59
328.944	36.01
329.157	5.29
329.37	42.15
329.583	23.72
329.796	23.72
330.009	-2.9
330.222	9.39
330.435	-4.95
330.648	31.91
330.861	25.77
331.073	95.4
331.286	-19.29
331.499	79.02
331.712	23.72
331.925	33.96
332.138	46.25
332.35	15.53
332.563	66.73
332.776	-11.09
332.989	-7
333.202	50.35
333.414	87.21
333.627	31.91
333.84	109.74
334.053	3.24
334.265	3.24
334.478	-21.33
334.691	15.53
334.903	56.49
335.116	9.39
335.329	11.43
335.541	58.54
335.754	85.16
335.966	38.06
336.179	-0.85
336.392	113.83
336.604	44.2
336.817	7.34
337.029	-29.52
337.242	7.34
337.454	36.01
337.667	29.87
337.88	107.69
338.092	111.78
338.305	-29.52
338.517	44.2
338.729	33.96
338.942	40.11
339.154	-4.95
339.367	-25.43
339.579	46.25
339.792	-11.09
340.004	-27.48
340.217	97.45
340.429	79.02
340.641	21.67
340.854	44.2
341.066	29.87
341.278	54.44
341.491	17.58
341.703	-17.24
341.915	48.3
342.128	-0.85
342.34	1.19
342.552	21.67
342.764	-66.39
342.977	17.58
343.189	-25.43
343.401	36.01
343.613	64.68
343.826	60.59
344.038	87.21
344.25	52.39
344.462	52.39
344.674	42.15
344.886	-21.33
345.099	46.25
345.311	60.59
345.523	46.25
345.735	42.15
345.947	52.39
346.159	9.39
346.371	115.88
346.583	5.29
346.795	79.02
347.007	-13.14
347.219	95.4
347.431	3.24
347.643	74.92
347.855	38.06
348.067	23.72
348.279	44.2
348.491	52.39
348.703	48.3
348.915	33.96
349.127	1.19
349.339	42.15
349.551	-19.29
349.763	7.34
349.975	15.53
350.187	60.59
350.399	-25.43
350.61	-0.85
350.822	101.55
351.034	81.07
351.246	50.35
351.458	76.97
351.669	15.53
351.881	54.44
352.093	13.48
352.305	111.78
352.517	17.58
352.728	64.68
352.94	-2.9
353.152	56.49
353.363	-2.9
353.575	21.67
353.787	21.67
353.999	29.87
354.21	74.92
354.422	48.3
354.633	9.39
354.845	33.96
355.057	66.73
355.268	79.02
355.48	64.68
355.692	93.35
355.903	23.72
356.115	66.73
356.326	-23.38
356.538	97.45
356.749	54.44
356.961	128.17
357.172	-0.85
357.384	31.91
357.595	27.82
357.807	95.4
358.018	70.83
358.23	62.63
358.441	62.63
358.653	1.19
358.864	60.59
359.075	36.01
359.287	19.63
359.498	50.35
359.709	31.91
359.921	36.01
360.132	29.87
360.344	91.31
360.555	31.91
360.766	79.02
360.977	5.29
361.189	91.31
361.4	15.53
361.611	19.63
361.823	50.35
362.034	42.15
362.245	-11.09
362.456	87.21
362.667	27.82
362.879	46.25
363.09	19.63
363.301	46.25
363.512	89.26
363.723	72.87
363.935	38.06
364.146	175.27
364.357	79.02
364.568	64.68
364.779	-9.05
364.99	42.15
365.201	-21.33
365.412	117.93
365.623	-37.72
365.834	23.72
366.045	5.29
366.256	64.68
366.467	-2.9
366.678	27.82
366.889	72.87
367.1	52.39
367.311	83.11
367.522	7.34
367.733	130.22
367.944	38.06
368.155	-50
368.366	46.25
368.577	11.43
368.788	154.79
368.999	25.77
369.209	21.67
369.42	52.39
369.631	56.49
369.842	7.34
370.053	44.2
370.264	111.78
370.474	1.19
370.685	44.2
370.896	36.01
371.107	15.53
371.317	11.43
371.528	-2.9
371.739	105.64
371.95	36.01
372.16	56.49
372.371	40.11
372.582	44.2
372.792	27.82
373.003	52.39
373.214	76.97
373.424	130.22
373.635	105.64
373.846	95.4
374.056	72.87
374.267	128.17
374.477	29.87
374.688	33.96
374.898	62.63
375.109	-11.09
375.319	40.11
375.53	11.43
375.74	-29.52
375.951	-43.86
376.161	58.54
376.372	72.87
376.582	31.91
376.793	109.74
377.003	50.35
377.214	36.01
377.424	76.97
377.635	19.63
377.845	13.48
378.055	36.01
378.266	-2.9
378.476	36.01
378.686	60.59
378.897	101.55
379.107	31.91
379.317	-21.33
379.528	21.67
379.738	74.92
379.948	29.87
380.158	60.59
380.369	17.58
380.579	-27.48
380.789	-9.05
380.999	46.25
381.21	117.93
381.42	93.35
381.63	101.55
381.84	117.93
382.05	44.2
382.261	19.63
382.471	101.55
382.681	36.01
382.891	54.44
383.101	68.78
383.311	7.34
383.521	23.72
383.731	58.54
383.941	27.82
384.151	52.39
384.361	33.96
384.571	50.35
384.781	27.82
384.991	-35.67
385.201	48.3
385.411	99.5
385.621	31.91
385.831	122.02
386.041	89.26
386.251	31.91
386.461	23.72
386.671	-4.95
386.881	40.11
387.091	9.39
387.301	-4.95
387.511	117.93
387.72	85.16
387.93	15.53
388.14	3.24
388.35	36.01
388.56	79.02
388.769	48.3
388.979	-13.14
389.189	48.3
389.399	56.49
389.609	62.63
389.818	81.07
390.028	-4.95
390.238	40.11
390.447	7.34
390.657	11.43
390.867	-4.95
391.076	40.11
391.286	33.96
391.496	89.26
391.705	48.3
391.915	124.07
392.125	29.87
392.334	44.2
392.544	103.59
392.753	60.59
392.963	46.25
393.172	36.01
393.382	-2.9
393.591	138.41
393.801	27.82
394.01	19.63
394.22	95.4
394.429	113.83
394.639	66.73
394.848	93.35
395.058	107.69
395.267	81.07
395.477	85.16
395.686	81.07
395.895	89.26
396.105	111.78
396.314	97.45
396.524	64.68
396.733	72.87
396.942	107.69
397.152	46.25
397.361	101.55
397.57	150.7
397.78	128.17
397.989	95.4
398.198	74.92
398.407	122.02
398.617	64.68
398.826	46.25
399.035	109.74
399.244	103.59
399.453	74.92
399.663	93.35
399.872	218.28
400.081	85.16
400.29	81.07
400.499	46.25
400.708	66.73
400.917	91.31
401.127	117.93
401.336	105.64
401.545	150.7
401.754	152.74
401.963	115.88
402.172	109.74
402.381	85.16
402.59	130.22
402.799	62.63
403.008	95.4
403.217	146.6
403.426	107.69
403.635	70.83
403.844	128.17
404.053	130.22
404.262	72.87
404.471	113.83
404.68	74.92
404.888	150.7
405.097	134.31
405.306	134.31
405.515	160.94
405.724	179.37
405.933	185.51
406.142	212.14
406.35	89.26
406.559	146.6
406.768	117.93
406.977	232.62
407.185	277.67
407.394	136.36
407.603	222.38
407.812	214.18
408.02	222.38
408.229	267.43
408.438	203.94
408.646	224.42
408.855	187.56
409.064	193.7
409.272	197.8
409.481	283.81
409.69	236.71
409.898	289.96
410.107	332.97
410.315	292.01
410.524	269.48
410.733	298.15
410.941	339.11
411.15	273.57
411.358	269.48
411.567	339.11
411.775	326.82
411.984	314.53
412.192	390.31
412.401	373.92
412.609	468.13
412.818	437.41
413.026	375.97
413.234	416.93
413.443	437.41
413.651	492.71
413.86	515.23
414.068	519.33
414.276	511.14
414.485	531.62
414.693	578.72
414.901	601.25
415.11	650.4
415.318	578.72
415.526	634.02
415.734	582.82
415.943	674.98
416.151	756.9
416.359	748.7
416.567	804
416.776	820.38
416.984	838.81
417.192	810.14
417.4	847.01
417.608	885.92
417.817	994.46
418.025	988.32
418.233	1070.23
418.441	982.17
418.649	1078.43
418.857	1098.91
419.065	1133.72
419.273	1109.15
419.481	1143.96
419.689	1264.79
419.897	1324.18
420.105	1447.06
420.313	1315.99
420.521	1404.05
420.729	1485.97
420.937	1483.92
421.145	1586.32
421.353	1574.03
421.561	1631.38
421.769	1727.63
421.977	1776.78
422.185	1768.59
422.393	1989.77
422.601	2081.93
422.809	1983.63
423.017	2018.44
423.224	2036.88
423.432	2235.53
423.64	2243.72
423.848	2342.02
424.056	2290.82
424.263	2550.92
424.471	2632.83
424.679	2493.57
424.887	2638.98
425.094	2704.51
425.302	2913.41
425.51	2765.95
425.718	3019.9
425.925	3046.52
426.133	3089.53
426.341	3222.65
426.548	3431.54
426.756	3343.48
426.964	3521.65
427.171	3562.61
427.379	3791.98
427.586	3742.83
427.794	3910.77
428.001	4009.07
428.209	4357.22
428.417	4244.59
428.624	4504.68
428.832	4627.56
429.039	4502.63
429.247	4412.52
429.454	5018.72
429.662	5092.44
429.869	4934.75
430.076	5149.79
430.284	5139.55
430.491	5180.51
430.699	5698.64
430.906	5678.16
431.114	5829.71
431.321	5987.41
431.528	5907.54
431.736	6442.06
431.943	6585.41
432.15	6409.29
432.358	6571.08
432.565	6978.62
432.772	7154.75
432.979	7304.25
433.187	7328.83
433.394	7535.67
433.601	7965.75
433.808	8033.33
434.016	7908.4
434.223	8301.61
434.43	8864.8
434.637	8647.72
434.844	9202.72
435.052	9307.16
435.259	9415.71
435.466	9393.18
435.673	9245.73
435.88	9747.48
436.087	10456.08
436.294	10466.31
436.501	10107.92
436.708	10226.7
436.915	10738.69
437.122	11197.44
437.329	11181.06
437.537	11551.74
437.743	11729.91
437.95	11504.64
438.157	12119.03
438.364	12528.62
438.571	12387.31
438.778	12581.87
438.985	13593.56
439.192	13368.29
439.399	13781.98
439.606	13288.42
439.813	13919.19
440.02	14916.55
440.227	14730.19
440.433	14310.35
440.64	15021
440.847	14947.27
441.054	15338.43
441.261	16634.8
441.467	15875
441.674	16640.94
441.881	16831.4
442.088	16950.18
442.294	16886.7
442.501	17294.24
442.708	17476.51
442.914	18144.15
443.121	18803.6
443.328	18566.03
443.534	19680.13
443.741	19301.25
443.948	19053.45
444.154	20564.85
444.361	19893.12
444.568	20468.59
444.774	20261.75
444.981	20751.21
445.187	21076.84
445.394	22029.15
445.6	21838.69
445.807	23905.09
446.013	22887.25
446.22	23126.86
446.426	24152.89
446.633	24243
446.839	25264.94
447.046	24236.86
447.252	25836.32
447.459	25240.36
447.665	25522.98
447.871	26569.49
448.078	27728.64
448.284	26549.01
448.491	27036.43
448.697	28168.96
448.903	28465.91
449.11	28361.47
449.316	28066.56
449.522	28601.08
449.728	29281
449.935	29534.95
450.141	29629.16
450.347	30345.95
450.553	29377.26
450.76	29328.11
450.966	30814.93
451.172	29977.31
451.378	31367.88
451.584	30319.32
451.791	31273.68
451.997	31255.25
452.203	31759.05
452.409	31460.04
452.615	31419.08
452.821	30161.63
453.027	29899.49
453.233	31716.04
453.44	30280.41
453.646	30665.43
453.852	30878.42
454.058	31322.83
454.264	30167.77
454.47	31275.73
454.676	29934.31
454.882	31161.04
455.088	28523.26
455.294	28818.16
455.5	29362.92
455.705	29324.01
455.911	28379.9
456.117	27687.68
456.323	27683.59
456.529	25985.82
456.735	27323.15
456.941	26594.07
457.147	25910.05
457.352	25117.48
457.558	24849.2
457.764	25441.06
457.97	24326.97
458.176	23958.33
458.381	23806.78
458.587	22684.5
458.793	23075.66
458.999	21599.07
459.204	23233.35
459.41	22643.54
459.616	21076.84
459.821	21109.61
460.027	21101.42
460.233	20554.61
460.438	19673.98
460.644	19743.61
460.85	18969.48
461.055	18414.48
461.261	18650
461.466	17597.34
461.672	16520.11
461.878	17886.11
462.083	16653.23
462.289	16458.67
462.494	16294.83
462.7	15485.89
462.905	14996.42
463.111	15688.64
463.316	15768.51
463.522	15641.53
463.727	15496.13
463.932	15616.96
464.138	15233.99
464.343	15219.65
464.549	14752.71
464.754	15461.31
464.959	15125.44
465.165	15010.76
465.37	14488.53
465.575	14046.16
465.781	14590.92
465.986	14777.29
466.191	14064.6
466.397	14085.08
466.602	13171.68
466.807	13714.39
467.012	13845.46
467.218	13521.88
467.423	13556.7
467.628	13675.48
467.833	14341.07
468.038	13562.84
468.244	13229.02
468.449	13493.21
468.654	13145.06
468.859	13245.41
469.064	13044.71
469.269	12540.91
469.474	12469.23
469.679	12823.53
469.885	12469.23
470.09	12819.43
470.295	12702.7
470.5	12332.01
470.705	12286.96
470.91	12135.41
471.115	11817.97
471.32	12430.32
471.525	12243.95
471.73	11942.9
471.935	11947
472.139	11406.33
472.344	11641.85
472.549	11279.36
472.754	11383.8
472.959	11080.71
473.164	11043.84
473.369	10658.82
473.574	11248.64
473.778	10908.68
473.983	10939.4
474.188	10955.78
474.393	10490.89
474.598	10304.53
474.802	10218.51
475.007	10204.17
475.212	10214.41
475.417	9776.15
475.621	9876.5
475.826	10089.49
476.031	9634.84
476.235	9608.22
476.44	9737.24
476.645	9206.81
476.849	9532.44
477.054	9608.22
477.259	9294.88
477.463	9174.05
477.668	9040.93
477.872	9169.95
478.077	9006.11
478.282	8762.4
478.486	8866.85
478.691	8469.55
478.895	8639.53
479.1	8715.3
479.304	8713.25
479.509	8408.11
479.713	8481.83
479.918	8086.58
480.122	8363.05
480.326	8391.72
480.531	8410.15
480.735	8115.25
480.94	8186.93
481.144	8387.63
481.348	7908.4
481.553	8045.62
481.757	7945.27
481.961	8023.09
482.166	8139.82
482.37	8080.43
482.574	7808.05
482.778	7908.4
482.983	8096.82
483.187	7898.16
483.391	7959.6
483.595	7869.49
483.8	7894.07
484.004	7896.11
484.208	7990.32
484.412	7873.59
484.616	8111.15
484.821	7826.48
485.025	7861.3
485.229	8043.57
485.433	7814.2
485.637	7883.83
485.841	7830.58
486.045	7836.72
486.249	8027.18
486.453	7894.07
486.657	8004.66
486.861	7973.94
487.065	7830.58
487.269	7873.59
487.473	7863.35
487.677	7986.22
487.881	7949.36
488.085	7871.54
488.289	7871.54
488.493	8049.71
488.697	8006.7
488.901	7945.27
489.105	7941.17
489.309	8076.34
489.512	8205.36
489.716	8113.2
489.92	8047.66
490.124	8084.53
490.328	8268.84
490.531	8072.24
490.735	8045.62
490.939	8279.08
491.143	8023.09
491.346	8064.05
491.55	8342.57
491.754	8000.56
491.958	8213.55
492.161	8342.57
492.365	8301.61
492.569	8410.15
492.772	8361
492.976	8487.98
493.18	8498.22
493.383	8713.25
493.587	8510.5
493.79	8737.83
493.994	8512.55
494.197	8660.01
494.401	8870.95
494.605	8842.28
494.808	8809.51
495.012	9178.14
495.215	9131.04
495.419	9135.14
495.622	9042.98
495.825	9380.89
496.029	9239.58
496.232	9219.1
496.436	9413.66
496.639	9778.2
496.843	9606.17
497.046	10009.62
497.249	9853.97
497.453	9761.81
497.656	10013.71
497.859	10101.78
498.063	10148.88
498.266	10478.6
498.469	10351.63
498.673	10382.35
498.876	10785.8
499.079	10779.65
499.282	10609.67
499.485	11078.66
499.689	11140.1
499.892	11283.45
500.095	11267.07
500.298	11717.62
500.501	11379.71
500.705	11588.6
500.908	11822.07
501.111	11965.43
501.314	11971.57
501.517	12293.1
501.72	12389.36
501.923	12366.83
502.126	12712.94
502.329	13007.84
502.532	13061.09
502.735	12940.26
502.938	13396.96
503.141	13450.21
503.344	13845.46
503.547	13482.97
503.75	13753.3
503.953	14205.91
504.156	14406.61
504.359	14416.85
504.562	14490.57
504.765	14803.91
504.968	14834.63
505.17	15133.64
505.373	14961.61
505.576	15250.37
505.779	15432.64
505.982	15739.83
506.185	16137.14
506.387	15907.77
506.59	16434.1
506.793	16432.05
506.996	16434.1
507.198	17247.14
507.401	16968.62
507.604	17126.31
507.807	17716.12
508.009	17537.95
508.212	17548.19
508.415	18131.86
508.617	18326.42
508.82	18353.04
509.022	18346.9
509.225	18678.67
509.428	19254.15
509.63	19067.78
509.833	19061.64
510.035	19549.06
510.238	19604.35
510.44	19733.37
510.643	20140.92
510.845	20523.89
511.048	20310.9
511.25	20999.02
511.453	20849.52
511.655	21881.69
511.858	21447.52
512.06	21689.18
512.262	22059.87
512.465	22176.6
512.667	22555.47
512.87	22618.96
513.072	22897.49
513.274	23200.58
513.477	23653.19
513.679	23587.65
513.881	24140.6
514.084	24374.07
514.286	24632.11
514.488	24798
514.69	25244.46
514.893	25148.2
515.095	25193.26
515.297	25551.65
515.499	25705.25
515.701	26047.26
515.904	26374.94
516.106	26727.19
516.308	27175.69
516.51	27448.07
516.712	27431.69
516.914	27593.48
517.116	28224.25
517.318	28457.72
517.52	28224.25
517.722	28785.4
517.925	29084.4
518.127	29342.44
518.329	29700.84
518.531	29522.66
518.733	30147.29
518.935	30776.02
519.136	30294.75
519.338	30857.94
519.54	31128.27
519.742	31410.89
519.944	31873.73
520.146	32211.65
520.348	32254.65
520.55	32567.99
520.752	32373.44
520.954	33389.23
521.155	33278.64
521.357	33819.3
521.559	33970.85
521.761	34282.14
521.963	34437.79
522.164	34751.13
522.366	34845.33
522.568	35355.28
522.77	35523.21
522.971	36080.26
523.173	35685
523.375	35981.96
523.576	36027.01
523.778	35814.02
523.98	36907.64
524.181	36782.71
524.383	36805.24
524.584	37204.59
524.786	37687.92
524.988	37694.06
525.189	37970.54
525.391	37937.77
525.592	38318.69
525.794	38361.7
525.995	38455.9
526.197	38920.79
526.398	38777.43
526.6	38865.5
526.801	39217.75
527.003	39535.18
527.204	39744.08
527.406	40239.68
527.607	39547.47
527.808	40229.44
528.01	39660.11
528.211	40172.1
528.412	41194.04
528.614	40229.44
528.815	40862.27
529.016	40720.96
529.218	40979
529.419	41036.34
529.62	41194.04
529.822	40663.61
530.023	41308.72
530.224	41120.31
530.425	41404.98
530.626	41327.16
530.828	41087.54
531.029	42234.41
531.23	41542.19
531.431	41912.88
531.632	41953.83
531.833	42039.85
532.035	41691.69
532.236	41806.38
532.437	42207.78
532.638	41763.37
532.839	42117.67
533.04	42156.58
533.241	41660.97
533.442	42557.99
533.643	42154.54
533.844	42531.36
534.045	42478.11
534.246	42156.58
534.447	42637.86
534.648	41980.46
534.849	42789.41
535.05	42304.04
535.251	42428.96
535.451	42316.32
535.652	42770.97
535.853	42052.14
536.054	43102.74
536.255	42691.1
536.456	42449.44
536.657	43336.21
536.857	42713.63
537.058	42365.48
537.259	42541.6
537.46	42687.01
537.66	42449.44
537.861	42871.32
538.062	42754.59
538.263	43186.71
538.463	42793.5
538.664	42408.48
538.865	42553.89
539.065	43260.44
539.266	42236.45
539.466	42963.48
539.667	42113.58
539.868	42977.82
540.068	42730.01
540.269	42394.15
540.469	42945.05
540.67	42736.16
540.87	42891.8
541.071	42531.36
541.271	42615.33
541.472	42564.13
541.672	42793.5
541.873	42566.18
542.073	42404.39
542.274	42680.86
542.474	42605.09
542.675	42517.03
542.875	42715.68
543.075	42672.67
543.276	42052.14
543.476	42912.28
543.676	42531.36
543.877	42637.86
544.077	42332.71
544.277	42154.54
544.478	42420.77
544.678	42852.89
544.878	42445.35
545.078	42619.42
545.279	42201.64
545.479	42498.59
545.679	42609.18
545.879	42807.84
546.079	42385.96
546.28	42406.44
546.48	42365.48
546.68	42381.86
546.88	42617.38
547.08	42691.1
547.28	42324.52
547.48	42347.04
547.68	42646.05
547.88	41953.83
548.081	42787.36
548.281	42494.5
548.481	42441.25
548.681	42627.62
548.881	42629.66
549.081	42306.09
549.28	42218.02
549.48	42646.05
549.68	42105.38
549.88	42775.07
550.08	42156.58
550.28	42482.21
550.48	42179.11
550.68	42580.51
550.88	42039.85
551.08	42226.21
551.279	42557.99
551.479	42220.07
551.679	42320.42
551.879	41986.6
552.079	42394.15
552.278	42400.29
552.478	42453.54
552.678	42478.11
552.878	42316.32
553.077	42097.19
553.277	41466.42
553.477	42439.2
553.676	42189.35
553.876	41880.11
554.076	42013.23
554.275	41898.54
554.475	41361.97
554.674	41916.97
554.874	42105.38
555.074	41558.58
555.273	41636.4
555.473	41855.53
555.672	41210.42
555.872	41896.49
556.071	41706.03
556.271	41689.65
556.47	41409.07
556.67	41165.37
556.869	41142.84
557.068	41478.71
557.268	41486.9
557.467	41460.27
557.667	41364.02
557.866	41472.56
558.065	41511.47
558.265	40819.26
558.464	40874.55
558.663	41636.4
558.863	40833.6
559.062	41343.54
559.261	40884.79
559.461	41353.78
559.66	40503.87
559.859	40778.3
560.058	40540.74
560.258	40868.41
560.457	40495.68
560.656	40446.53
560.855	40589.89
561.054	40280.64
561.253	40178.25
561.453	40735.29
561.652	40481.34
561.851	40434.24
562.05	40503.87
562.249	39944.78
562.448	40323.65
562.647	40200.77
562.846	40129.09
563.045	40084.04
563.244	39823.95
563.443	40309.32
563.642	39246.42
563.841	39940.68
564.04	39914.06
564.239	39643.73
564.438	39492.18
564.637	39651.92
564.836	39377.49
565.035	39094.87
565.234	39608.91
565.432	39058.01
565.631	39184.98
565.83	38922.84
566.029	38857.31
566.228	38816.35
566.427	38406.75
566.625	38820.44
566.824	38308.45
567.023	38767.2
567.222	38130.28
567.42	38343.27
567.619	38482.53
567.818	38738.52
568.016	38457.95
568.215	38378.08
568.414	38015.59
568.612	38478.43
568.811	38019.69
569.01	38152.8
569.208	37421.68
569.407	38064.74
569.605	37749.35
569.804	38081.13
570.002	37694.06
570.201	37231.22
570.4	37220.98
570.598	37077.62
570.797	37280.37
570.995	37196.4
571.193	36393.6
571.392	36952.69
571.59	36489.85
571.789	36612.73
571.987	36526.72
572.186	36323.97
572.384	36194.95
572.582	36489.85
572.781	36311.68
572.979	35601.04
573.177	36278.91
573.376	36129.41
573.574	35740.3
573.772	36065.92
573.971	35510.92
574.169	35414.67
574.367	35203.73
574.565	35529.36
574.763	35449.49
574.962	34894.49
575.16	34724.5
575.358	35404.43
575.556	34556.57
575.754	35179.15
575.952	34474.65
576.151	34681.5
576.349	34540.19
576.547	34237.09
576.745	34284.19
576.943	34267.81
577.141	34058.91
577.339	33911.46
577.537	34028.2
577.735	34069.15
577.933	33575.59
578.131	34034.34
578.329	33514.16
578.527	33602.22
578.725	33430.19
578.923	33325.74
579.121	33385.13
579.319	32856.76
579.516	33129.14
579.714	33335.98
579.912	32973.49
580.11	32772.79
580.308	33112.75
580.506	32785.08
580.704	31969.99
580.901	32588.47
581.099	33077.94
581.297	32357.05
581.495	32060.1
581.692	32234.17
581.89	31617.74
582.088	32023.23
582.285	31689.42
582.483	31857.35
582.681	31820.49
582.878	31736.52
583.076	31163.09
583.274	31601.35
583.471	31355.6
583.669	31335.12
583.866	30690.01
584.064	31523.53
584.262	30952.15
584.459	31431.37
584.657	30675.67
584.854	31148.75
585.052	30159.58
585.249	30591.7
585.447	30743.25
585.644	30483.16
585.841	30247.65
586.039	30843.6
586.236	30057.18
586.434	30128.86
586.631	29842.15
586.828	29889.25
587.026	29954.79
587.223	29829.86
587.42	29633.25
587.618	29580.01
587.815	29506.28
588.012	29537
588.21	29047.54
588.407	29209.32
588.604	29168.37
588.801	28828.4
588.999	29084.4
589.196	28744.44
589.393	29104.88
589.59	28730.1
589.787	28402.43
589.984	28668.66
590.182	28343.03
590.379	28435.19
590.576	28197.63
590.773	28248.83
590.97	27742.98
591.167	27910.91
591.364	27759.36
591.561	28138.24
591.758	27849.47
591.955	27585.29
592.152	27722.5
592.349	27519.75
592.546	27429.64
592.743	27568.9
592.94	26858.26
593.137	27212.56
593.334	27169.55
593.531	27071.25
593.727	27106.06
593.924	27089.68
594.121	26970.9
594.318	27024.14
594.515	26723.09
594.712	26549.01
594.908	26489.62
595.105	26682.13
595.302	26080.03
595.499	26360.6
595.696	26409.75
595.892	26127.13
596.089	26274.59
596.286	26092.32
596.482	26155.8
596.679	25934.62
596.876	25682.72
597.072	25541.41
597.269	25678.63
597.466	25414.44
597.662	25576.23
597.859	25692.96
598.055	25516.84
598.252	25174.83
598.448	25543.46
598.645	25109.29
598.841	24544.05
599.038	25080.62
599.234	24775.47
599.431	24859.44
599.627	24795.95
599.824	24785.71
600.02	24349.5
600.217	24476.47
600.413	24359.73
600.609	24234.81
600.806	24265.53
601.002	24572.72
601.198	24103.74
601.395	23952.19
601.591	23905.09
601.787	23814.98
601.984	23698.24
602.18	23997.24
602.376	23728.96
602.572	23604.03
602.769	23626.56
602.965	23374.66
603.161	23497.54
603.357	23345.99
603.553	22926.16
603.75	23128.91
603.946	23061.32
604.142	22989.64
604.338	22840.14
604.534	23241.54
604.73	22592.34
604.926	22510.42
605.122	22637.39
605.318	22762.32
605.514	22405.97
605.71	22367.06
605.906	22272.85
606.102	22334.29
606.298	22422.36
606.494	22256.47
606.69	22047.58
606.886	22145.88
607.082	21683.04
607.278	22106.97
607.474	21597.03
607.67	21846.88
607.866	21304.17
608.062	21701.47
608.257	21500.77
608.453	21705.57
608.649	21592.93
608.845	21666.66
609.041	21482.34
609.236	21246.82
609.432	21338.98
609.628	20806.51
609.824	21029.74
610.019	21166.95
610.215	20923.24
610.411	21125.99
610.606	20564.85
610.802	20716.4
610.998	20779.89
611.193	20898.67
611.389	20550.51
611.584	20611.95
611.78	20546.42
611.976	20562.8
612.171	20482.93
612.367	20454.26
612.562	20308.85
612.758	20106.1
612.953	19860.35
613.149	20312.95
613.344	20122.49
613.539	19999.61
613.735	20032.38
613.93	19925.88
614.126	19600.26
614.321	19956.6
614.517	19780.48
614.712	19753.85
614.907	19579.78
615.103	19852.16
615.298	19471.23
615.493	19944.31
615.688	19262.34
615.884	19907.45
616.079	19176.33
616.274	19327.88
616.47	19452.8
616.665	19020.68
616.86	19364.74
617.055	19053.45
617.25	19227.53
617.445	19188.61
617.641	18885.51
617.836	19405.7
618.031	18576.27
618.226	18795.4
618.421	18762.64
618.616	18715.53
618.811	18682.77
619.006	18594.7
619.201	18338.71
619.396	18609.04
619.591	18115.48
619.786	18531.22
619.981	18076.57
620.176	18301.84
620.371	17626.01
620.566	17890.2
620.761	17755.04
620.956	17996.7
621.151	17603.49
621.346	17922.97
621.541	17380.26
621.735	17363.87
621.93	17085.35
622.125	17234.85
622.32	17171.36
622.515	17216.42
622.709	16982.95
622.904	16878.51
623.099	16870.31
623.294	16616.37
623.488	16538.54
623.683	16843.69
623.878	16477.1
624.072	16227.25
624.267	16569.26
624.462	16249.78
624.656	16196.53
624.851	16147.38
625.046	15956.92
625.24	16016.31
625.435	15573.95
625.629	15539.13
625.824	15526.85
626.018	15494.08
626.213	15164.36
626.407	15336.38
626.602	15168.45
626.796	15215.55
626.991	15156.16
627.185	15078.34
627.38	15002.57
627.574	14846.92
627.768	14900.17
627.963	14748.62
628.157	14531.53
628.352	14748.62
628.546	14537.68
628.74	14517.2
628.935	14336.98
629.129	14392.27
629.323	14019.54
629.517	14287.82
629.712	13988.82
629.906	14101.46
630.1	13861.85
630.294	13833.18
630.489	13665.24
630.683	13781.98
630.877	13544.41
631.071	13591.52
631.265	13519.84
631.459	13341.66
631.653	13462.49
631.848	13061.09
632.042	13196.26
632.236	13143.01
632.43	12993.51
632.624	13110.24
632.818	12882.92
633.012	12669.93
633.206	12723.18
633.4	12796.9
633.594	12379.12
633.788	12434.41
633.982	12678.12
634.176	12383.21
634.369	12229.62
634.563	12491.76
634.757	12094.45
634.951	12289.01
635.145	12155.89
635.339	11951.09
635.533	12076.02
635.726	11865.08
635.92	11910.13
636.114	11744.25
636.308	11598.84
636.501	11703.29
636.695	11664.38
636.889	11762.68
637.083	11639.8
637.276	11488.25
637.47	11285.5
637.664	11305.98
637.857	11256.83
638.051	11248.64
638.244	11119.62
638.438	11250.69
638.632	10996.74
638.825	11011.07
639.019	10888.2
639.212	10912.77
639.406	10763.27
639.599	10730.5
639.793	10789.89
639.986	10656.78
640.18	10564.62
640.373	10527.75
640.567	10587.15
640.76	10472.46
640.954	10105.87
641.147	10234.89
641.34	10234.89
641.534	10146.83
641.727	10277.9
641.92	10165.26
642.114	9927.7
642.307	9989.14
642.5	9673.75
642.694	9821.2
642.887	9688.09
643.08	9741.33
643.273	9634.84
643.467	9813.01
643.66	9554.97
643.853	9376.8
644.046	9419.8
644.239	9266.21
644.432	9280.54
644.626	9274.4
644.819	9149.47
645.012	9147.42
645.205	9073.7
645.398	8913.95
645.591	9088.03
645.784	8999.97
645.977	8848.42
646.17	8698.92
646.363	8823.84
646.556	8586.28
646.749	8719.4
646.942	8719.4
647.135	8483.88
647.328	8459.31
647.521	8551.46
647.714	8264.75
647.907	8295.47
648.099	8244.27
648.292	8334.38
648.485	8217.65
648.678	8098.86
648.871	8012.85
649.064	7982.13
649.256	8037.42
649.449	7842.87
649.642	7963.7
649.835	7814.2
650.027	7717.94
650.22	7779.38
650.413	7820.34
650.605	7869.49
650.798	7705.65
650.991	7500.86
651.183	7627.83
651.376	7326.78
651.568	7527.48
651.761	7437.37
651.954	7427.13
652.146	7320.63
652.339	7267.39
652.531	7203.9
652.724	7124.03
652.916	7009.34
653.109	7171.13
653.301	7044.16
653.494	7038.02
653.686	6841.41
653.879	7064.64
654.071	6999.1
654.263	6820.93
654.456	6806.59
654.648	6894.66
654.84	6755.4
655.033	6589.51
655.225	6702.15
655.417	6673.48
655.61	6517.83
655.802	6687.81
655.994	6435.91
656.186	6403.14
656.379	6480.97
656.571	6386.76
656.763	6298.7
656.955	6300.75
657.148	6345.8
657.34	6290.51
657.532	6272.07
657.724	6237.26
657.916	6073.42
658.108	6143.05
658.3	6155.34
658.492	6059.09
658.684	5913.68
658.876	6083.66
659.068	5741.65
659.26	5966.93
659.452	5942.35
659.644	5827.67
659.836	5758.03
660.028	5829.71
660.22	5749.84
660.412	5491.8
660.604	5561.43
660.796	5612.63
660.988	5497.94
661.18	5596.25
661.372	5395.54
661.563	5506.13
661.755	5387.35
661.947	5397.59
662.139	5483.61
662.331	5352.54
662.522	5200.99
662.714	5270.62
662.906	5250.14
663.097	5299.29
663.289	5241.95
663.481	5135.45
663.673	5108.83
663.864	5071.97
664.056	4834.4
664.247	5024.86
664.439	5033.05
664.631	4885.6
664.822	5043.29
665.014	4881.5
665.205	4916.32
665.397	4793.44
665.588	4801.63
665.78	4734.05
665.971	4805.73
666.163	4809.83
666.354	4678.76
666.546	4750.43
666.737	4615.27
666.929	4658.28
667.12	4615.27
667.311	4650.08
667.503	4482.15
667.694	4594.79
667.885	4410.47
668.077	4609.12
668.268	4398.18
668.459	4373.61
668.651	4365.42
668.842	4359.27
669.033	4389.99
669.224	4514.92
669.416	4310.12
669.607	4269.16
669.798	4195.43
669.989	4215.91
670.18	4172.91
670.371	4240.49
670.563	4220.01
670.754	4164.72
670.945	4146.28
671.136	3996.78
671.327	4050.03
671.518	4002.93
671.709	4115.56
671.9	4127.85
672.091	4109.42
672.282	3994.73
672.473	3984.49
672.664	3937.39
672.855	3925.1
673.046	3957.87
673.237	3992.69
673.428	3970.16
673.619	3929.2
673.809	3814.51
674	3898.48
674.191	3769.46
674.382	3679.35
674.573	3751.03
674.764	3789.94
674.954	3777.65
675.145	3763.31
675.336	3751.03
675.527	3755.12
675.717	3777.65
675.908	3511.41
676.099	3705.97
676.289	3679.35
676.48	3716.21
676.671	3648.63
676.861	3697.78
677.052	3611.76
677.243	3490.93
677.433	3525.75
677.624	3576.95
677.814	3533.94
678.005	3492.98
678.195	3460.21
678.386	3419.25
678.576	3384.44
678.767	3433.59
678.957	3386.49
679.148	3505.27
679.338	3370.1
679.529	3413.11
679.719	3492.98
679.909	3337.34
680.1	3388.53
680.29	3456.12
680.481	3314.81
680.671	3372.15
680.861	3271.8
681.052	3337.34
681.242	3273.85
681.432	3347.58
681.622	3337.34
681.813	3245.18
682.003	3222.65
682.193	3134.59
682.383	3255.42
682.573	3212.41
682.764	3118.2
682.954	3261.56
683.144	3349.62
683.334	3175.55
683.524	3181.69
683.714	3193.98
683.904	3224.7
684.094	3196.03
684.284	3247.23
684.474	3214.46
684.664	3214.46
684.854	3077.24
685.044	3116.16
685.234	3122.3
685.424	3114.11
685.614	3021.95
685.804	3107.96
685.994	3120.25
686.184	3165.31
686.374	2989.18
686.564	3048.57
686.753	2983.04
686.943	3132.54
687.133	3007.61
687.323	3054.72
687.513	3054.72
687.702	3021.95
687.892	2954.37
688.082	3026.04
688.272	2942.08
688.461	3026.04
688.651	3110.01
688.841	2948.22
689.03	2933.89
689.22	2821.25
689.41	2835.58
689.599	2935.93
689.789	2921.6
689.979	2854.02
690.168	2911.36
690.358	2833.54
690.547	2935.93
690.737	2886.78
690.926	2870.4
691.116	2866.3
691.305	2882.69
691.495	2925.69
691.684	2978.94
691.874	2868.35
692.063	2811.01
692.252	2831.49
692.442	2747.52
692.631	2712.71
692.82	2835.58
693.01	2815.1
693.199	2714.75
693.388	2692.23
693.578	2790.53
693.767	2837.63
693.956	2755.71
694.146	2815.1
694.335	2780.29
694.524	2833.54
694.713	2856.06
694.902	2745.47
695.092	2786.43
695.281	2825.34
695.47	2747.52
695.659	2727.04
695.848	2716.8
696.037	2710.66
696.226	2763.9
696.415	2780.29
696.604	2843.78
696.793	2819.2
696.982	2755.71
697.171	2716.8
697.36	2780.29
697.549	2634.88
697.738	2712.71
697.927	2696.32
698.116	2751.62
698.305	2770.05
698.494	2729.09
698.683	2608.26
698.872	2827.39
699.061	2698.37
699.25	2577.54
699.438	2702.47
699.627	2733.18
699.816	2634.88
700.005	2636.93
700.193	2700.42
700.382	2669.7
700.571	2770.05
700.76	2591.88
700.948	2745.47
701.137	2669.7
701.326	2669.7
701.514	2636.93
701.703	2716.8
701.892	2645.12
702.08	2698.37
702.269	2641.03
702.457	2665.6
702.646	2636.93
702.834	2598.02
703.023	2528.39
703.212	2616.45
703.4	2550.92
703.589	2575.49
703.777	2530.44
703.965	2491.52
704.154	2577.54
704.342	2612.35
704.531	2581.64
704.719	2501.76
704.907	2454.66
705.096	2497.67
705.284	2419.85
705.472	2575.49
705.661	2487.43
705.849	2428.04
706.037	2542.72
706.226	2444.42
706.414	2577.54
706.602	2409.61
706.79	2454.66
706.979	2444.42
707.167	2419.85
707.355	2454.66
707.543	2374.79
707.731	2540.68
707.919	2403.46
708.107	2372.74
708.296	2323.59
708.484	2401.41
708.672	2358.41
708.86	2296.97
709.048	2358.41
709.236	2413.7
709.424	2397.32
709.612	2292.87
709.8	2356.36
709.988	2280.58
710.176	2331.78
710.364	2438.28
710.551	2251.91
710.739	2305.16
710.927	2280.58
711.115	2122.89
711.303	2286.73
711.491	2274.44
711.679	2241.67
711.866	2321.54
712.054	2245.77
712.242	2194.57
712.43	2213
712.617	2231.43
712.805	2202.76
712.993	2208.9
713.181	2159.75
713.368	2124.94
713.556	2319.5
713.744	2100.36
713.931	2157.71
714.119	2178.19
714.306	2151.56
714.494	2100.36
714.682	2090.12
714.869	2053.26
715.057	2139.27
715.244	2008.2
715.432	1987.72
715.619	1987.72
715.807	2026.64
715.994	1993.87
716.182	2040.97
716.369	2057.36
716.556	2075.79
716.744	2081.93
716.931	2018.44
717.119	1928.33
717.306	1942.67
717.493	1909.9
717.681	1897.61
717.868	1971.34
718.055	2059.4
718.242	1856.65
718.43	2018.44
718.617	1973.39
718.804	1838.22
718.991	1963.15
719.179	1959.05
719.366	1854.61
719.553	1909.9
719.74	1918.09
719.927	1914
720.114	1899.66
720.301	1905.81
720.488	1793.17
720.676	1895.57
720.863	1870.99
721.05	1678.48
721.237	1864.85
721.424	1766.54
721.611	1678.48
721.798	1684.62
721.985	1756.3
722.172	1672.34
722.358	1721.49
722.545	1832.08
722.732	1787.02
722.919	1748.11
723.106	1801.36
723.293	1715.34
723.48	1680.53
723.667	1707.15
723.853	1717.39
724.04	1782.93
724.227	1756.3
724.414	1635.47
724.6	1588.37
724.787	1723.54
724.974	1574.03
725.161	1598.61
725.347	1627.28
725.534	1637.52
725.72	1711.25
725.907	1608.85
726.094	1633.43
726.28	1739.92
726.467	1543.32
726.653	1682.58
726.84	1602.71
727.027	1531.03
727.213	1670.29
727.4	1614.99
727.586	1549.46
727.773	1500.31
727.959	1549.46
728.145	1494.16
728.332	1516.69
728.518	1490.07
728.705	1500.31
728.891	1600.66
729.077	1549.46
729.264	1402.01
729.45	1604.75
729.636	1563.79
729.823	1559.7
730.009	1541.27
730.195	1528.98
730.382	1524.88
730.568	1510.55
730.754	1465.49
730.94	1475.73
731.126	1424.53
731.313	1518.74
731.499	1506.45
731.685	1447.06
731.871	1414.29
732.057	1442.96
732.243	1412.25
732.429	1483.92
732.615	1381.53
732.801	1283.22
732.987	1359
733.173	1379.48
733.359	1408.15
733.545	1342.61
733.731	1338.52
733.917	1395.86
734.103	1371.29
734.289	1502.36
734.475	1379.48
734.661	1514.64
734.847	1406.1
735.033	1475.73
735.219	1295.51
735.404	1402.01
735.59	1328.28
735.776	1352.85
735.962	1309.85
736.148	1383.57
736.333	1373.33
736.519	1318.04
736.705	1270.94
736.89	1236.12
737.076	1318.04
737.262	1250.46
737.447	1350.81
737.633	1354.9
737.819	1305.75
738.004	1326.23
738.19	1315.99
738.375	1146.01
738.561	1207.45
738.747	1223.83
738.932	1186.97
739.118	1375.38
739.303	1283.22
739.489	1176.73
739.674	1258.65
739.859	1283.22
740.045	1223.83
740.23	1176.73
740.416	1193.11
740.601	1272.98
740.786	1184.92
740.972	1195.16
741.157	1246.36
741.342	1096.86
741.528	1098.91
741.713	1137.82
741.898	1217.69
742.084	1103
742.269	1150.11
742.454	1150.11
742.639	1174.68
742.824	1092.76
743.01	1209.5
743.195	1137.82
743.38	1115.29
743.565	1062.04
743.75	1082.52
743.935	1076.38
744.12	1057.95
744.305	1143.96
744.49	1098.91
744.675	1068.19
744.86	1025.18
745.045	1125.53
745.23	1053.85
745.415	1068.19
745.6	1010.84
745.785	1105.05
745.97	1008.8
746.155	1072.28
746.34	1045.66
746.525	959.64
746.71	1019.04
746.895	1031.32
747.079	949.4
747.264	965.79
747.449	965.79
747.634	1012.89
747.819	971.93
748.003	971.93
748.188	1012.89
748.373	988.32
748.557	976.03
748.742	875.68
748.927	914.59
749.111	930.97
749.296	892.06
749.481	1033.37
749.665	1012.89
749.85	965.79
750.034	867.49
750.219	906.4
750.404	912.54
750.588	969.88
750.773	914.59
750.957	912.54
751.141	898.2
751.326	922.78
751.51	930.97
751.695	877.73
751.879	865.44
752.064	832.67
752.248	797.85
752.432	847.01
752.617	742.56
752.801	836.77
752.985	748.7
753.17	871.58
753.354	818.33
753.538	769.18
753.722	752.8
753.907	775.33
754.091	799.9
754.275	767.13
754.459	785.57
754.643	746.66
754.828	793.76
755.012	709.79
755.196	777.37
755.38	732.32
755.564	697.5
755.748	699.55
755.932	738.46
756.116	730.27
756.3	722.08
756.484	699.55
756.668	681.12
756.852	754.85
757.036	758.94
757.22	674.98
757.404	703.65
757.588	744.61
757.772	789.66
757.956	758.94
758.14	750.75
758.323	693.41
758.507	734.37
758.691	697.5
758.875	642.21
759.059	660.64
759.242	660.64
759.426	705.7
759.61	685.22
759.794	658.59
759.977	703.65
760.161	652.45
760.345	627.87
760.528	666.78
760.712	658.59
760.895	605.35
761.079	543.91
761.263	586.91
761.446	666.78
761.63	660.64
761.813	584.87
761.997	625.83
762.18	593.06
762.364	603.3
762.547	615.59
762.731	621.73
762.914	631.97
763.098	625.83
763.281	720.03
763.464	625.83
763.648	562.34
763.831	566.43
764.015	584.87
764.198	543.91
764.381	601.25
764.564	650.4
764.748	511.14
764.931	504.99
765.114	543.91
765.297	472.23
765.481	568.48
765.664	558.24
765.847	601.25
766.03	566.43
766.213	525.47
766.397	486.56
766.58	566.43
766.763	548
766.946	599.2
767.129	535.71
767.312	543.91
767.495	464.04
767.678	533.67
767.861	574.63
768.044	558.24
768.227	500.9
768.41	625.83
768.593	541.86
768.776	552.1
768.959	439.46
769.142	490.66
769.324	517.28
769.507	515.23
769.69	535.71
769.873	511.14
770.056	568.48
770.239	517.28
770.421	457.89
770.604	398.5
770.787	482.47
770.97	441.51
771.152	504.99
771.335	552.1
771.518	521.38
771.7	443.56
771.883	535.71
772.066	455.84
772.248	464.04
772.431	480.42
772.613	527.52
772.796	484.52
772.978	507.04
773.161	455.84
773.343	455.84
773.526	429.22
773.708	423.08
773.891	406.69
774.073	478.37
774.256	398.5
774.438	474.28
774.621	488.61
774.803	474.28
774.985	443.56
775.168	421.03
775.35	408.74
775.532	464.04
775.715	421.03
775.897	408.74
776.079	404.64
776.261	439.46
776.444	431.27
776.626	330.92
776.808	412.84
776.99	394.4
777.173	392.36
777.355	433.32
777.537	445.6
777.719	410.79
777.901	345.25
778.083	388.26
778.265	369.83
778.447	394.4
778.629	326.82
778.811	402.6
778.993	390.31
779.175	406.69
779.357	404.64
779.539	343.21
779.721	369.83
779.903	363.69
780.085	328.87
780.267	337.06
780.449	392.36
780.631	355.49
780.812	429.22
780.994	312.49
781.176	367.78
781.358	388.26
781.54	314.53
781.721	345.25
781.903	412.84
782.085	318.63
782.267	324.77
782.448	347.3
782.63	357.54
782.812	312.49
782.993	306.34
783.175	341.16
783.357	298.15
783.538	349.35
783.72	355.49
783.901	316.58
784.083	289.96
784.264	294.05
784.446	285.86
784.627	306.34
784.809	242.85
784.99	308.39
785.172	255.14
785.353	320.68
785.535	285.86
785.716	253.09
785.897	220.33
786.079	283.81
786.26	310.44
786.441	273.57
786.623	308.39
786.804	216.23
786.985	304.29
787.167	240.81
787.348	275.62
787.529	224.42
787.71	263.33
787.891	287.91
788.073	279.72
788.254	226.47
788.435	281.77
788.616	265.38
788.797	230.57
788.978	214.18
789.159	212.14
789.34	205.99
789.522	279.72
789.703	208.04
789.884	132.26
790.065	181.42
790.246	287.91
790.427	244.9
790.607	257.19
790.788	169.13
790.969	222.38
791.15	199.85
791.331	136.36
791.512	277.67
791.693	154.79
791.874	228.52
792.054	228.52
792.235	167.08
792.416	234.66
792.597	240.81
792.778	169.13
792.958	181.42
793.139	214.18
793.32	169.13
793.5	236.71
793.681	167.08
793.862	216.23
794.042	185.51
794.223	191.66
794.404	148.65
794.584	169.13
794.765	177.32
794.945	175.27
795.126	201.9
795.306	226.47
795.487	134.31
795.667	103.59
795.848	205.99
796.028	203.94
796.209	222.38
796.389	216.23
796.57	191.66
796.75	79.02
796.93	251.05
797.111	142.5
797.291	142.5
797.471	263.33
797.652	220.33
797.832	111.78
798.012	152.74
798.192	197.8
798.373	87.21
798.553	138.41
798.733	60.59
798.913	167.08
799.093	169.13
799.274	126.12
799.454	183.46
799.634	187.56
799.814	214.18
799.994	171.18
800.174	132.26
800.354	165.03
800.534	119.98
800.714	107.69
800.894	160.94
801.074	218.28
801.254	183.46
801.434	224.42
801.614	177.32
801.794	156.84
801.974	355.49
802.154	85.16
802.334	171.18
802.514	185.51
802.693	160.94
802.873	126.12
803.053	177.32
803.233	162.98
803.413	130.22
803.592	101.55
803.772	89.26
803.952	191.66
804.131	146.6
804.311	197.8
804.491	134.31
804.67	68.78
804.85	171.18
805.03	162.98
805.209	117.93
805.389	138.41
805.568	146.6
805.748	171.18
805.928	150.7
806.107	150.7
806.287	93.35
806.466	117.93
806.646	70.83
806.825	91.31
807.004	89.26
807.184	167.08
807.363	173.22
807.543	144.55
807.722	111.78
807.901	101.55
808.081	158.89
808.26	122.02
808.439	138.41
808.619	115.88
808.798	203.94
808.977	66.73
809.156	76.97
809.336	50.35
809.515	99.5
809.694	150.7
809.873	85.16
810.052	142.5
810.231	208.04
810.411	140.46
810.59	72.87
810.769	72.87
810.948	142.5
811.127	113.83
811.306	138.41
811.485	122.02
811.664	111.78
811.843	40.11
812.022	111.78
812.201	150.7
812.38	95.4
812.559	40.11
812.737	103.59
812.916	91.31
813.095	60.59
813.274	115.88
813.453	72.87
813.632	62.63
813.811	-37.72
813.989	93.35
814.168	165.03
814.347	31.91
814.526	103.59
814.704	54.44
814.883	72.87
815.062	33.96
815.24	87.21
815.419	134.31
815.598	97.45
815.776	93.35
815.955	101.55
816.133	58.54
816.312	126.12
816.49	89.26
816.669	72.87
816.847	144.55
817.026	62.63
817.204	173.22
817.383	117.93
817.561	93.35
817.74	119.98
817.918	105.64
818.097	58.54
818.275	124.07
818.453	99.5
818.632	134.31
818.81	124.07
818.988	97.45
819.167	91.31
819.345	119.98
819.523	74.92
819.701	68.78
819.879	21.67
820.058	109.74
820.236	79.02
820.414	58.54
820.592	66.73
820.77	52.39
820.948	76.97
821.127	81.07
821.305	99.5
821.483	76.97
821.661	29.87
821.839	119.98
822.017	56.49
822.195	29.87
822.373	113.83
822.551	44.2
822.729	62.63
822.907	103.59
823.085	74.92
823.262	44.2
823.44	-27.48
823.618	52.39
823.796	52.39
823.974	31.91
824.152	27.82
824.329	130.22
824.507	70.83
824.685	46.25
824.863	81.07
825.04	40.11
825.218	103.59
825.396	60.59
825.574	89.26
825.751	81.07
825.929	85.16
826.107	-7
826.284	48.3
826.462	44.2
826.639	15.53
826.817	74.92
826.994	38.06
827.172	13.48
827.349	70.83
827.527	140.46
827.704	36.01
827.882	87.21
828.059	134.31
828.237	58.54
828.414	126.12
828.591	95.4
828.769	76.97
828.946	66.73
829.124	44.2
829.301	89.26
829.478	117.93
829.655	3.24
829.833	62.63
830.01	-15.19
830.187	87.21
830.364	52.39
830.542	56.49
830.719	58.54
830.896	103.59
831.073	52.39
831.25	-35.67
831.427	-13.14
831.604	60.59
831.782	46.25
831.959	38.06
832.136	19.63
832.313	21.67
832.49	15.53
832.667	109.74
832.844	33.96
833.021	44.2
833.198	13.48
833.374	68.78
833.551	5.29
833.728	50.35
833.905	27.82
834.082	-29.52
834.259	23.72
834.436	36.01
834.612	52.39
834.789	50.35
834.966	-13.14
835.143	89.26
835.319	5.29
835.496	81.07
835.673	50.35
835.85	36.01
836.026	107.69
836.203	126.12
836.38	44.2
836.556	21.67
836.733	21.67
836.909	-29.52
837.086	54.44
837.262	29.87
837.439	19.63
837.616	36.01
837.792	81.07
837.968	46.25
838.145	52.39
838.321	44.2
838.498	-9.05
838.674	-19.29
838.851	-2.9
839.027	52.39
839.203	54.44
839.38	15.53
839.556	60.59
839.732	83.11
839.909	81.07
840.085	62.63
840.261	3.24
840.437	105.64
840.614	36.01
840.79	101.55
840.966	38.06
841.142	29.87
841.318	50.35
841.494	85.16
841.671	36.01
841.847	19.63
842.023	25.77
842.199	87.21
842.375	15.53
842.551	11.43
842.727	-4.95
842.903	29.87
843.079	23.72
843.255	76.97
843.431	23.72
843.607	85.16
843.783	79.02
843.959	9.39
844.134	66.73
844.31	74.92
844.486	11.43
844.662	-4.95
844.838	23.72
845.013	74.92
845.189	27.82
845.365	36.01
845.541	-11.09
845.716	-35.67
845.892	3.24
846.068	52.39
846.244	-95.06
846.419	33.96
846.595	17.58
846.77	111.78
846.946	79.02
847.122	11.43
847.297	-35.67
847.473	68.78
847.648	58.54
847.824	60.59
847.999	3.24
848.175	-56.15
848.35	-0.85
848.526	33.96
848.701	19.63
848.876	72.87
849.052	97.45
849.227	85.16
849.403	54.44
849.578	36.01
849.753	15.53
849.929	29.87
850.104	56.49
850.279	66.73
850.454	-27.48
850.63	27.82
850.805	-13.14
850.98	9.39
851.155	29.87
851.33	70.83
851.505	11.43
851.681	62.63
851.856	7.34
852.031	50.35
852.206	56.49
852.381	36.01
852.556	46.25
852.731	27.82
852.906	-13.14
853.081	52.39
853.256	81.07
853.431	58.54
853.606	56.49
853.781	-4.95
853.956	11.43
854.131	15.53
854.305	95.4
854.48	74.92
854.655	54.44
854.83	60.59
855.005	64.68
855.18	40.11
855.354	54.44
855.529	-23.38
855.704	-4.95
855.879	11.43
856.053	23.72
856.228	9.39
856.403	66.73
856.577	11.43
856.752	36.01
856.926	11.43
857.101	25.77
857.276	56.49
857.45	23.72
857.625	46.25
857.799	-7
857.974	36.01
858.148	15.53
858.323	-2.9
858.497	13.48
858.672	36.01
858.846	17.58
859.02	3.24
859.195	21.67
859.369	15.53
859.543	21.67
859.718	-11.09
859.892	46.25
860.066	-23.38
860.241	21.67
860.415	-23.38
860.589	-50
860.763	107.69
860.938	-21.33
861.112	89.26
861.286	36.01
861.46	66.73
861.634	58.54
861.808	-70.48
861.982	17.58
862.157	-11.09
862.331	-25.43
862.505	46.25
862.679	-23.38
862.853	54.44
863.027	-17.24
863.201	23.72
863.375	25.77
863.549	46.25
863.722	11.43
863.896	27.82
864.07	-31.57
864.244	27.82
864.418	-13.14
864.592	3.24
864.766	70.83
864.939	27.82
865.113	-4.95
865.287	3.24
865.461	3.24
865.634	-19.29
865.808	50.35
865.982	23.72
866.156	11.43
866.329	-0.85
866.503	27.82
866.676	87.21
866.85	27.82
867.024	-47.96
867.197	36.01
867.371	13.48
867.544	-35.67
867.718	1.19
867.891	83.11
868.065	-7
868.238	21.67
868.412	21.67
868.585	7.34
868.759	5.29
868.932	-58.2
869.105	17.58
869.279	-7
869.452	17.58
869.625	19.63
869.799	50.35
869.972	31.91
870.145	46.25
870.319	79.02
870.492	15.53
870.665	40.11
870.838	5.29
871.011	40.11
871.185	74.92
871.358	-11.09
871.531	23.72
871.704	-107.35
871.877	1.19
872.05	5.29
872.223	-15.19
872.396	19.63
872.569	27.82
872.742	11.43
872.915	23.72
873.088	-45.91
873.261	25.77
873.434	29.87
873.607	48.3
873.78	76.97
873.953	21.67
874.126	3.24
874.299	-21.33
874.471	101.55
874.644	36.01
874.817	46.25
874.99	52.39
875.163	-2.9
875.335	95.4
875.508	-9.05
875.681	21.67
875.853	23.72
876.026	15.53
876.199	-11.09
876.371	38.06
876.544	1.19
876.717	-13.14
876.889	7.34
877.062	7.34
877.234	9.39
877.407	15.53
877.579	-58.2
877.752	23.72
877.924	17.58
878.097	3.24
878.269	9.39
878.442	44.2
878.614	-7
878.786	21.67
878.959	13.48
879.131	11.43
879.303	31.91
879.476	70.83
879.648	7.34
879.82	-29.52
879.993	9.39
880.165	9.39
880.337	23.72
880.509	25.77
880.681	70.83
880.854	21.67
881.026	33.96
881.198	5.29
881.37	25.77
881.542	9.39
881.714	17.58
881.886	79.02
882.058	-2.9
882.23	19.63
882.402	1.19
882.574	-11.09
882.746	-29.52
882.918	3.24
883.09	-0.85
883.262	60.59
883.434	-41.81
883.606	-29.52
883.778	54.44
883.95	7.34
884.122	-50
884.293	83.11
884.465	-56.15
884.637	19.63
884.809	7.34
884.98	15.53
885.152	9.39
885.324	119.98
885.496	-76.63
885.667	36.01
885.839	17.58
886.011	-43.86
886.182	7.34
886.354	-33.62
886.525	-70.48
886.697	101.55
886.869	33.96
887.04	42.15
887.212	23.72
887.383	31.91
887.555	-17.24
887.726	3.24
887.897	-56.15
888.069	-84.82
888.24	13.48
888.412	52.39
888.583	-2.9
888.754	-35.67
888.926	-64.34
889.097	21.67
889.268	-41.81
889.44	-35.67
889.611	-4.95
889.782	-19.29
889.953	-4.95
890.125	-43.86
890.296	-27.48
890.467	44.2
890.638	27.82
890.809	46.25
890.98	3.24
891.151	56.49
891.323	89.26
891.494	-39.76
891.665	1.19
891.836	-103.25
892.007	-7
892.178	-29.52
892.349	-7
892.52	38.06
892.691	7.34
892.862	38.06
893.032	-35.67
893.203	66.73
893.374	1.19
893.545	27.82
893.716	-2.9
893.887	13.48
894.057	-0.85
894.228	23.72
894.399	13.48
894.57	68.78
894.74	62.63
894.911	52.39
895.082	-19.29
895.253	-41.81
895.423	36.01
895.594	52.39
895.764	9.39
895.935	-33.62
896.106	3.24
896.276	11.43
896.447	54.44
896.617	-13.14
896.788	-41.81
896.958	-72.53
897.129	-37.72
897.299	-56.15
897.47	105.64
897.64	-0.85
897.81	9.39
897.981	60.59
898.151	-2.9
898.322	68.78
898.492	-13.14
898.662	-19.29
898.832	40.11
899.003	38.06
899.173	-9.05
899.343	-7
899.513	-11.09
