Data from USB4F104151__82__13-54-23-231.txt Node

Date: Thu Mar 13 13:54:23 EDT 2025
User: louis
Spectrometer: USB4F10415
Trigger mode: 4
Integration Time (sec): 1.000000E-2
Scans to average: 1
Electric dark correction enabled: true
Nonlinearity correction enabled: false
Boxcar width: 0
XAxis mode: Wavelengths
Number of Pixels in Spectrum: 3648
>>>>>Begin Spectral Data<<<<<
178.204	-108.2
178.424	-108.2
178.644	-108.2
178.864	-38.57
179.084	-52.91
179.304	-54.95
179.524	-16.04
179.744	20.82
179.964	-65.19
180.184	76.12
180.404	47.44
180.624	-11.95
180.844	8.53
181.064	-28.33
181.283	24.92
181.503	26.96
181.723	-28.33
181.943	20.82
182.163	22.87
182.383	86.36
182.602	-24.23
182.822	-46.76
183.042	20.82
183.262	20.82
183.482	-30.38
183.701	-3.75
183.921	0.34
184.141	29.01
184.361	4.44
184.58	49.49
184.8	-13.99
185.02	26.96
185.239	-34.47
185.459	-16.04
185.679	16.73
185.898	-3.75
186.118	6.49
186.338	39.25
186.557	16.73
186.777	6.49
186.997	45.4
187.216	-16.04
187.436	35.16
187.655	-3.75
187.875	-11.95
188.095	-42.67
188.314	53.59
188.534	-11.95
188.753	-40.62
188.973	-9.9
189.192	26.96
189.412	4.44
189.631	-34.47
189.851	-18.09
190.07	26.96
190.29	59.73
190.509	31.06
190.729	-46.76
190.948	33.11
191.168	-38.57
191.387	69.97
191.607	22.87
191.826	55.64
192.045	-44.71
192.265	12.63
192.484	8.53
192.704	-18.09
192.923	-16.04
193.142	69.97
193.362	18.77
193.581	12.63
193.8	76.12
194.02	-9.9
194.239	-9.9
194.458	55.64
194.678	20.82
194.897	14.68
195.116	57.68
195.335	4.44
195.555	-42.67
195.774	14.68
195.993	51.54
196.212	37.2
196.432	-28.33
196.651	-67.24
196.87	-26.28
197.089	41.3
197.308	4.44
197.528	-61.1
197.747	45.4
197.966	-11.95
198.185	8.53
198.404	16.73
198.623	14.68
198.842	-46.76
199.062	-7.85
199.281	22.87
199.5	69.97
199.719	-1.71
199.938	24.92
200.157	39.25
200.376	2.39
200.595	4.44
200.814	22.87
201.033	49.49
201.252	72.02
201.471	76.12
201.69	37.2
201.909	-40.62
202.128	-13.99
202.347	-11.95
202.566	24.92
202.785	22.87
203.004	20.82
203.223	4.44
203.442	12.63
203.661	2.39
203.879	-5.8
204.098	14.68
204.317	51.54
204.536	82.26
204.755	-20.14
204.974	37.2
205.193	22.87
205.411	39.25
205.63	-11.95
205.849	22.87
206.068	16.73
206.287	-48.81
206.505	67.92
206.724	-1.71
206.943	-50.86
207.162	-77.48
207.381	37.2
207.599	31.06
207.818	31.06
208.037	-3.75
208.255	-18.09
208.474	65.88
208.693	-18.09
208.911	-3.75
209.13	55.64
209.349	18.77
209.567	6.49
209.786	37.2
210.005	12.63
210.223	-26.28
210.442	-26.28
210.661	35.16
210.879	-52.91
211.098	61.78
211.316	-5.8
211.535	61.78
211.753	-7.85
211.972	20.82
212.191	-3.75
212.409	-18.09
212.628	67.92
212.846	-42.67
213.065	22.87
213.283	33.11
213.502	41.3
213.72	88.4
213.938	22.87
214.157	31.06
214.375	22.87
214.594	2.39
214.812	0.34
215.031	-9.9
215.249	14.68
215.467	49.49
215.686	63.83
215.904	-9.9
216.122	-61.1
216.341	61.78
216.559	-52.91
216.778	18.77
216.996	20.82
217.214	-106.15
217.432	4.44
217.651	-28.33
217.869	-48.81
218.087	-5.8
218.306	41.3
218.524	16.73
218.742	41.3
218.96	45.4
219.179	-30.38
219.397	-24.23
219.615	61.78
219.833	10.58
220.051	-61.1
220.27	37.2
220.488	-32.43
220.706	65.88
220.924	-40.62
221.142	-61.1
221.36	37.2
221.578	16.73
221.796	-48.81
222.015	41.3
222.233	-102.06
222.451	39.25
222.669	-5.8
222.887	-9.9
223.105	24.92
223.323	22.87
223.541	-24.23
223.759	31.06
223.977	80.21
224.195	61.78
224.413	-87.72
224.631	6.49
224.849	45.4
225.067	-44.71
225.285	26.96
225.503	80.21
225.721	-30.38
225.939	20.82
226.157	-18.09
226.375	41.3
226.592	-30.38
226.81	-16.04
227.028	37.2
227.246	-9.9
227.464	35.16
227.682	59.73
227.9	12.63
228.117	-57
228.335	51.54
228.553	31.06
228.771	43.35
228.989	2.39
229.206	-11.95
229.424	2.39
229.642	31.06
229.86	-13.99
230.077	-20.14
230.295	-22.19
230.513	45.4
230.731	100.69
230.948	65.88
231.166	35.16
231.384	-20.14
231.601	24.92
231.819	55.64
232.037	31.06
232.254	-11.95
232.472	6.49
232.689	-1.71
232.907	65.88
233.125	-22.19
233.342	57.68
233.56	-13.99
233.777	41.3
233.995	45.4
234.213	-46.76
234.43	-83.63
234.648	18.77
234.865	-26.28
235.083	-13.99
235.3	-1.71
235.518	6.49
235.735	-13.99
235.953	-3.75
236.17	51.54
236.388	63.83
236.605	72.02
236.822	24.92
237.04	37.2
237.257	14.68
237.475	22.87
237.692	-1.71
237.909	-5.8
238.127	41.3
238.344	-63.15
238.562	12.63
238.779	2.39
238.996	-38.57
239.214	-16.04
239.431	10.58
239.648	-48.81
239.865	67.92
240.083	51.54
240.3	-36.52
240.517	6.49
240.735	69.97
240.952	18.77
241.169	33.11
241.386	2.39
241.603	-81.58
241.821	-52.91
242.038	6.49
242.255	-36.52
242.472	2.39
242.689	-3.75
242.907	-46.76
243.124	2.39
243.341	8.53
243.558	-9.9
243.775	55.64
243.992	-18.09
244.209	41.3
244.426	22.87
244.643	26.96
244.86	24.92
245.078	-16.04
245.295	31.06
245.512	-38.57
245.729	14.68
245.946	-11.95
246.163	-22.19
246.38	16.73
246.597	-5.8
246.814	-44.71
247.031	-36.52
247.248	-9.9
247.464	0.34
247.681	-13.99
247.898	20.82
248.115	74.07
248.332	6.49
248.549	41.3
248.766	26.96
248.983	-18.09
249.2	12.63
249.417	-24.23
249.633	-7.85
249.85	18.77
250.067	16.73
250.284	0.34
250.501	-22.19
250.717	57.68
250.934	20.82
251.151	0.34
251.368	-36.52
251.585	24.92
251.801	24.92
252.018	78.16
252.235	-7.85
252.451	-52.91
252.668	-46.76
252.885	-38.57
253.102	59.73
253.318	29.01
253.535	-16.04
253.752	-38.57
253.968	31.06
254.185	-11.95
254.401	8.53
254.618	-9.9
254.835	-13.99
255.051	-16.04
255.268	-30.38
255.484	22.87
255.701	-65.19
255.917	53.59
256.134	-46.76
256.351	35.16
256.567	29.01
256.784	8.53
257	0.34
257.217	14.68
257.433	20.82
257.65	33.11
257.866	-13.99
258.082	33.11
258.299	61.78
258.515	49.49
258.732	72.02
258.948	59.73
259.165	104.79
259.381	-7.85
259.597	41.3
259.814	20.82
260.03	-67.24
260.246	-13.99
260.463	49.49
260.679	59.73
260.895	29.01
261.112	-32.43
261.328	61.78
261.544	29.01
261.761	10.58
261.977	-7.85
262.193	-24.23
262.409	45.4
262.626	31.06
262.842	29.01
263.058	-28.33
263.274	-5.8
263.49	22.87
263.707	37.2
263.923	-1.71
264.139	12.63
264.355	-24.23
264.571	-11.95
264.787	-34.47
265.004	-7.85
265.22	65.88
265.436	16.73
265.652	-42.67
265.868	31.06
266.084	10.58
266.3	57.68
266.516	-28.33
266.732	76.12
266.948	35.16
267.164	-9.9
267.38	-50.86
267.596	-16.04
267.812	31.06
268.028	8.53
268.244	-5.8
268.46	74.07
268.676	-20.14
268.892	-20.14
269.108	0.34
269.324	12.63
269.54	14.68
269.756	-3.75
269.972	10.58
270.188	49.49
270.403	-75.43
270.619	57.68
270.835	-13.99
271.051	-24.23
271.267	63.83
271.483	6.49
271.698	51.54
271.914	76.12
272.13	0.34
272.346	-11.95
272.562	10.58
272.777	-26.28
272.993	-7.85
273.209	-63.15
273.425	49.49
273.64	6.49
273.856	59.73
274.072	12.63
274.287	4.44
274.503	51.54
274.719	29.01
274.934	-24.23
275.15	6.49
275.366	37.2
275.581	2.39
275.797	16.73
276.012	-57
276.228	-30.38
276.444	26.96
276.659	72.02
276.875	-11.95
277.09	24.92
277.306	22.87
277.521	-26.28
277.737	-69.29
277.952	55.64
278.168	94.55
278.383	20.82
278.599	41.3
278.814	-28.33
279.03	33.11
279.245	-52.91
279.461	18.77
279.676	98.64
279.892	78.16
280.107	8.53
280.322	6.49
280.538	16.73
280.753	4.44
280.969	43.35
281.184	-7.85
281.399	-9.9
281.615	-28.33
281.83	-36.52
282.045	-22.19
282.26	-30.38
282.476	-3.75
282.691	4.44
282.906	37.2
283.122	-48.81
283.337	33.11
283.552	41.3
283.767	31.06
283.983	16.73
284.198	-65.19
284.413	37.2
284.628	-9.9
284.843	69.97
285.058	-5.8
285.274	4.44
285.489	29.01
285.704	20.82
285.919	-16.04
286.134	63.83
286.349	0.34
286.564	-11.95
286.779	31.06
286.995	-26.28
287.21	10.58
287.425	-20.14
287.64	-34.47
287.855	8.53
288.07	37.2
288.285	39.25
288.5	18.77
288.715	-3.75
288.93	6.49
289.145	45.4
289.36	-9.9
289.575	98.64
289.79	39.25
290.004	33.11
290.219	6.49
290.434	10.58
290.649	12.63
290.864	45.4
291.079	-85.67
291.294	24.92
291.509	53.59
291.724	-20.14
291.938	63.83
292.153	106.84
292.368	49.49
292.583	8.53
292.798	18.77
293.012	-9.9
293.227	24.92
293.442	-26.28
293.657	37.2
293.871	33.11
294.086	29.01
294.301	59.73
294.516	-22.19
294.73	-73.39
294.945	53.59
295.16	53.59
295.374	35.16
295.589	12.63
295.804	31.06
296.018	74.07
296.233	102.74
296.447	-11.95
296.662	53.59
296.877	88.4
297.091	-30.38
297.306	-11.95
297.52	0.34
297.735	65.88
297.949	18.77
298.164	80.21
298.378	10.58
298.593	6.49
298.807	35.16
299.022	-16.04
299.236	61.78
299.451	-34.47
299.665	10.58
299.88	12.63
300.094	-26.28
300.309	16.73
300.523	-65.19
300.737	-46.76
300.952	-3.75
301.166	24.92
301.381	86.36
301.595	57.68
301.809	74.07
302.024	51.54
302.238	59.73
302.452	37.2
302.667	-40.62
302.881	45.4
303.095	29.01
303.309	4.44
303.524	2.39
303.738	0.34
303.952	-13.99
304.166	18.77
304.381	-52.91
304.595	-11.95
304.809	-9.9
305.023	10.58
305.237	-77.48
305.452	6.49
305.666	-20.14
305.88	18.77
306.094	2.39
306.308	-3.75
306.522	-1.71
306.736	53.59
306.95	26.96
307.164	63.83
307.379	-44.71
307.593	78.16
307.807	29.01
308.021	10.58
308.235	39.25
308.449	37.2
308.663	49.49
308.877	33.11
309.091	-24.23
309.305	69.97
309.519	-13.99
309.733	45.4
309.947	63.83
310.161	51.54
310.374	12.63
310.588	115.03
310.802	-1.71
311.016	-34.47
311.23	45.4
311.444	47.44
311.658	4.44
311.872	39.25
312.085	0.34
312.299	92.5
312.513	4.44
312.727	55.64
312.941	-36.52
313.154	43.35
313.368	-40.62
313.582	65.88
313.796	-3.75
314.009	-7.85
314.223	24.92
314.437	14.68
314.651	26.96
314.864	-5.8
315.078	57.68
315.292	-22.19
315.505	41.3
315.719	67.92
315.933	-38.57
316.146	31.06
316.36	10.58
316.573	16.73
316.787	18.77
317.001	37.2
317.214	-38.57
317.428	-26.28
317.641	29.01
317.855	31.06
318.068	0.34
318.282	-7.85
318.495	-1.71
318.709	-24.23
318.922	12.63
319.136	12.63
319.349	63.83
319.563	43.35
319.776	26.96
319.99	10.58
320.203	8.53
320.417	26.96
320.63	10.58
320.843	69.97
321.057	37.2
321.27	20.82
321.483	49.49
321.697	47.44
321.91	-1.71
322.124	80.21
322.337	-61.1
322.55	31.06
322.763	-5.8
322.977	6.49
323.19	-16.04
323.403	104.79
323.617	-32.43
323.83	86.36
324.043	-9.9
324.256	-54.95
324.469	-3.75
324.683	76.12
324.896	-3.75
325.109	14.68
325.322	-42.67
325.535	4.44
325.748	26.96
325.962	6.49
326.175	2.39
326.388	0.34
326.601	-5.8
326.814	-5.8
327.027	43.35
327.24	47.44
327.453	59.73
327.666	69.97
327.879	55.64
328.092	84.31
328.305	6.49
328.518	100.69
328.731	-3.75
328.944	-40.62
329.157	29.01
329.37	-20.14
329.583	-1.71
329.796	41.3
330.009	26.96
330.222	35.16
330.435	-34.47
330.648	-22.19
330.861	108.88
331.073	0.34
331.286	39.25
331.499	6.49
331.712	65.88
331.925	78.16
332.138	-20.14
332.35	45.4
332.563	51.54
332.776	90.45
332.989	31.06
333.202	4.44
333.414	37.2
333.627	31.06
333.84	-38.57
334.053	65.88
334.265	39.25
334.478	-7.85
334.691	63.83
334.903	37.2
335.116	-1.71
335.329	29.01
335.541	59.73
335.754	-3.75
335.966	-13.99
336.179	8.53
336.392	22.87
336.604	-20.14
336.817	55.64
337.029	-5.8
337.242	-7.85
337.454	88.4
337.667	-24.23
337.88	59.73
338.092	-22.19
338.305	-3.75
338.517	-18.09
338.729	127.32
338.942	43.35
339.154	8.53
339.367	29.01
339.579	16.73
339.792	-30.38
340.004	-16.04
340.217	0.34
340.429	33.11
340.641	18.77
340.854	61.78
341.066	20.82
341.278	22.87
341.491	10.58
341.703	-9.9
341.915	72.02
342.128	26.96
342.34	35.16
342.552	41.3
342.764	6.49
342.977	41.3
343.189	-18.09
343.401	18.77
343.613	-1.71
343.826	94.55
344.038	2.39
344.25	-16.04
344.462	-28.33
344.674	35.16
344.886	43.35
345.099	106.84
345.311	-5.8
345.523	-20.14
345.735	-3.75
345.947	-28.33
346.159	39.25
346.371	31.06
346.583	18.77
346.795	37.2
347.007	-50.86
347.219	-13.99
347.431	33.11
347.643	-40.62
347.855	26.96
348.067	-16.04
348.279	4.44
348.491	14.68
348.703	63.83
348.915	69.97
349.127	-16.04
349.339	-18.09
349.551	57.68
349.763	8.53
349.975	18.77
350.187	74.07
350.399	39.25
350.61	-9.9
350.822	-30.38
351.034	82.26
351.246	0.34
351.458	72.02
351.669	92.5
351.881	72.02
352.093	-1.71
352.305	29.01
352.517	74.07
352.728	10.58
352.94	59.73
353.152	-26.28
353.363	16.73
353.575	33.11
353.787	-1.71
353.999	-7.85
354.21	-16.04
354.422	6.49
354.633	-22.19
354.845	22.87
355.057	8.53
355.268	-24.23
355.48	0.34
355.692	-34.47
355.903	18.77
356.115	16.73
356.326	-20.14
356.538	18.77
356.749	-9.9
356.961	102.74
357.172	24.92
357.384	18.77
357.595	14.68
357.807	33.11
358.018	24.92
358.23	-1.71
358.441	-30.38
358.653	18.77
358.864	72.02
359.075	-26.28
359.287	8.53
359.498	22.87
359.709	33.11
359.921	76.12
360.132	-46.76
360.344	10.58
360.555	22.87
360.766	47.44
360.977	33.11
361.189	-3.75
361.4	-26.28
361.611	4.44
361.823	-54.95
362.034	80.21
362.245	53.59
362.456	26.96
362.667	-59.05
362.879	-1.71
363.09	-30.38
363.301	51.54
363.512	4.44
363.723	55.64
363.935	39.25
364.146	24.92
364.357	-11.95
364.568	-26.28
364.779	8.53
364.99	20.82
365.201	-22.19
365.412	-63.15
365.623	14.68
365.834	0.34
366.045	86.36
366.256	20.82
366.467	72.02
366.678	35.16
366.889	49.49
367.1	16.73
367.311	24.92
367.522	45.4
367.733	43.35
367.944	94.55
368.155	-79.53
368.366	-1.71
368.577	35.16
368.788	18.77
368.999	29.01
369.209	24.92
369.42	69.97
369.631	76.12
369.842	-5.8
370.053	-38.57
370.264	-16.04
370.474	-44.71
370.685	59.73
370.896	65.88
371.107	59.73
371.317	57.68
371.528	-26.28
371.739	16.73
371.95	-9.9
372.16	57.68
372.371	4.44
372.582	37.2
372.792	-3.75
373.003	-1.71
373.214	-18.09
373.424	12.63
373.635	37.2
373.846	43.35
374.056	8.53
374.267	10.58
374.477	31.06
374.688	67.92
374.898	35.16
375.109	104.79
375.319	14.68
375.53	69.97
375.74	59.73
375.951	84.31
376.161	55.64
376.372	69.97
376.582	-22.19
376.793	-59.05
377.003	45.4
377.214	-34.47
377.424	12.63
377.635	47.44
377.845	-81.58
378.055	29.01
378.266	51.54
378.476	8.53
378.686	31.06
378.897	33.11
379.107	80.21
379.317	92.5
379.528	92.5
379.738	78.16
379.948	-13.99
380.158	-44.71
380.369	24.92
380.579	0.34
380.789	12.63
380.999	67.92
381.21	35.16
381.42	4.44
381.63	-30.38
381.84	-16.04
382.05	22.87
382.261	-9.9
382.471	16.73
382.681	39.25
382.891	63.83
383.101	35.16
383.311	29.01
383.521	74.07
383.731	12.63
383.941	29.01
384.151	-7.85
384.361	67.92
384.571	29.01
384.781	29.01
384.991	37.2
385.201	-1.71
385.411	26.96
385.621	26.96
385.831	43.35
386.041	-3.75
386.251	51.54
386.461	69.97
386.671	45.4
386.881	53.59
387.091	-9.9
387.301	53.59
387.511	-22.19
387.72	47.44
387.93	35.16
388.14	39.25
388.35	-3.75
388.56	33.11
388.769	112.98
388.979	24.92
389.189	33.11
389.399	37.2
389.609	-30.38
389.818	-24.23
390.028	4.44
390.238	65.88
390.447	10.58
390.657	98.64
390.867	35.16
391.076	-7.85
391.286	65.88
391.496	90.45
391.705	16.73
391.915	33.11
392.125	10.58
392.334	-18.09
392.544	-22.19
392.753	-26.28
392.963	47.44
393.172	63.83
393.382	49.49
393.591	-7.85
393.801	-1.71
394.01	6.49
394.22	0.34
394.429	37.2
394.639	24.92
394.848	59.73
395.058	57.68
395.267	-46.76
395.477	53.59
395.686	49.49
395.895	29.01
396.105	63.83
396.314	22.87
396.524	-40.62
396.733	18.77
396.942	59.73
397.152	43.35
397.361	63.83
397.57	69.97
397.78	35.16
397.989	61.78
398.198	45.4
398.407	6.49
398.617	2.39
398.826	65.88
399.035	22.87
399.244	80.21
399.453	69.97
399.663	33.11
399.872	20.82
400.081	24.92
400.29	104.79
400.499	31.06
400.708	88.4
400.917	90.45
401.127	84.31
401.336	35.16
401.545	63.83
401.754	51.54
401.963	61.78
402.172	67.92
402.381	29.01
402.59	88.4
402.799	86.36
403.008	63.83
403.217	72.02
403.426	16.73
403.635	-40.62
403.844	125.27
404.053	65.88
404.262	94.55
404.471	80.21
404.68	90.45
404.888	18.77
405.097	82.26
405.306	108.88
405.515	104.79
405.724	74.07
405.933	65.88
406.142	26.96
406.35	65.88
406.559	74.07
406.768	18.77
406.977	117.08
407.185	74.07
407.394	78.16
407.603	123.22
407.812	100.69
408.02	98.64
408.229	80.21
408.438	49.49
408.646	119.12
408.855	65.88
409.064	153.94
409.272	90.45
409.481	143.7
409.69	57.68
409.898	102.74
410.107	119.12
410.315	123.22
410.524	59.73
410.733	74.07
410.941	174.42
411.15	172.37
411.358	145.75
411.567	149.84
411.775	180.56
411.984	100.69
412.192	166.23
412.401	143.7
412.609	158.03
412.818	217.43
413.026	149.84
413.234	168.27
413.443	219.47
413.651	235.86
413.86	174.42
414.068	209.23
414.276	297.3
414.485	276.82
414.693	258.39
414.901	268.63
415.11	272.72
415.318	297.3
415.526	340.3
415.734	342.35
415.943	305.49
416.151	293.2
416.359	254.29
416.567	379.22
416.776	360.78
416.984	377.17
417.192	368.98
417.4	395.6
417.608	317.78
417.817	450.89
418.025	436.56
418.233	471.37
418.441	446.8
418.649	416.08
418.857	604.49
419.065	479.57
419.273	637.26
419.481	528.72
419.689	524.62
419.897	637.26
420.105	563.53
420.313	616.78
420.521	631.12
420.729	739.66
420.937	682.31
421.145	706.89
421.353	747.85
421.561	688.46
421.769	794.95
421.977	747.85
422.185	807.24
422.393	811.34
422.601	866.63
422.809	1024.33
423.017	897.35
423.224	926.02
423.432	956.74
423.64	971.08
423.848	1139.01
424.056	1030.47
424.263	1159.49
424.471	1057.09
424.679	1114.44
424.887	1190.21
425.094	1290.56
425.302	1214.79
425.51	1282.37
425.718	1403.2
425.925	1378.62
426.133	1407.3
426.341	1515.84
426.548	1548.61
426.756	1468.73
426.964	1462.59
427.171	1567.04
427.379	1683.77
427.586	1663.29
427.794	1884.47
428.001	1902.9
428.209	1900.86
428.417	1790.27
428.624	1956.15
428.832	2023.73
429.039	1999.16
429.247	1988.92
429.454	2255.15
429.662	2396.46
429.869	2273.59
430.076	2261.3
430.284	2232.63
430.491	2498.86
430.699	2480.43
430.906	2527.53
431.114	2525.49
431.321	2701.61
431.528	2644.27
431.736	2875.69
431.943	2930.98
432.15	2926.89
432.358	2924.84
432.565	3004.71
432.772	3060.01
432.979	3184.93
433.187	3311.91
433.394	3285.28
433.601	3553.57
433.808	3416.35
434.016	3604.77
434.223	3569.95
434.43	3852.57
434.637	3776.8
434.844	4208.92
435.052	4145.43
435.259	4040.98
435.466	4061.46
435.673	4014.36
435.88	4337.94
436.087	4509.97
436.294	4503.82
436.501	4571.41
436.708	4618.51
436.915	4935.95
437.122	4899.08
437.329	5044.49
437.537	5157.13
437.743	5218.57
437.95	4999.43
438.157	5456.13
438.364	5521.67
438.571	5681.41
438.778	5466.37
438.985	6166.78
439.192	5959.93
439.399	6023.42
439.606	6052.09
439.813	6326.52
440.02	6609.14
440.227	6480.11
440.433	6465.78
440.64	6660.34
440.847	6594.8
441.054	6805.74
441.261	7160.04
441.467	7078.12
441.674	7270.63
441.881	7651.55
442.088	7680.22
442.294	7422.18
442.501	7704.8
442.708	7649.5
442.914	8241.37
443.121	8446.16
443.328	8304.85
443.534	8863.95
443.741	8597.71
443.948	8544.47
444.154	9134.28
444.361	9023.69
444.568	9009.36
444.774	9119.95
444.981	9228.49
445.187	9572.55
445.394	9783.49
445.6	9717.95
445.807	10653.87
446.013	10348.73
446.22	10518.71
446.426	10768.56
446.633	11065.52
446.839	11276.46
447.046	10930.35
447.252	11464.87
447.459	11698.34
447.665	11538.6
447.871	11968.67
448.078	12552.34
448.284	11872.42
448.491	12193.95
448.697	12511.38
448.903	12710.04
449.11	12746.9
449.316	12710.04
449.522	12843.15
449.728	13203.6
449.935	13303.95
450.141	13449.35
450.347	13666.44
450.553	13201.55
450.76	13142.16
450.966	13895.81
451.172	13465.74
451.378	14160
451.584	13691.01
451.791	13932.67
451.997	14139.52
452.203	14178.43
452.409	14076.03
452.615	14139.52
452.821	13418.63
453.027	13330.57
453.233	14141.57
453.44	13516.94
453.646	13518.98
453.852	13879.43
454.058	13906.05
454.264	13539.46
454.47	13820.03
454.676	13545.61
454.882	13924.48
455.088	12808.34
455.294	12988.56
455.5	13054.09
455.705	13275.27
455.911	12644.5
456.117	12308.63
456.323	12152.99
456.529	11774.11
456.735	12163.23
456.941	11843.74
457.147	11595.94
457.352	11296.94
457.558	11202.73
457.764	11057.32
457.97	11006.13
458.176	10555.57
458.381	10662.07
458.587	10479.8
458.793	10197.18
458.999	9648.32
459.204	10311.86
459.41	10109.12
459.616	9480.39
459.821	9275.59
460.027	9380.04
460.233	9103.56
460.438	8769.74
460.644	8702.16
460.85	8511.7
461.055	8343.77
461.261	8224.98
461.466	7708.9
461.672	7362.79
461.878	8007.9
462.083	7389.41
462.289	7135.46
462.494	7114.98
462.7	6805.74
462.905	6764.78
463.111	7192.81
463.316	7014.63
463.522	7063.79
463.727	6766.83
463.932	6801.65
464.138	6779.12
464.343	6877.42
464.549	6754.54
464.754	6846.7
464.959	6820.08
465.165	6672.62
465.37	6523.12
465.575	6355.19
465.781	6478.07
465.986	6668.53
466.191	6357.24
466.397	6267.13
466.602	6027.51
466.807	6148.34
467.012	6363.38
467.218	6195.45
467.423	6062.33
467.628	6017.27
467.833	6353.14
468.038	5964.03
468.244	5908.73
468.449	6039.8
468.654	5947.64
468.859	5964.03
469.064	5816.57
469.269	5589.25
469.474	5904.64
469.679	5769.47
469.885	5689.6
470.09	5847.29
470.295	5718.27
470.5	5536
470.705	5521.67
470.91	5394.69
471.115	5591.3
471.32	5499.14
471.525	5355.78
471.73	5284.1
471.935	5335.3
472.139	5280
472.344	5093.64
472.549	5198.09
472.754	5056.78
472.959	4993.29
473.164	4966.67
473.369	4825.36
473.574	4997.39
473.778	4931.85
473.983	4815.12
474.188	4819.21
474.393	4563.22
474.598	4649.23
474.802	4526.35
475.007	4712.72
475.212	4606.22
475.417	4487.44
475.621	4395.28
475.826	4509.97
476.031	4296.98
476.235	4229.4
476.44	4403.47
476.645	4122.9
476.849	4288.79
477.054	4188.44
477.259	4137.24
477.463	4167.96
477.668	3954.97
477.872	4135.19
478.077	4067.61
478.282	3873.05
478.486	4022.55
478.691	3873.05
478.895	4032.79
479.1	3924.25
479.304	3848.47
479.509	3731.74
479.713	3932.44
479.918	3623.2
480.122	3723.55
480.326	3762.46
480.531	3809.56
480.735	3610.91
480.94	3815.71
481.144	3784.99
481.348	3752.22
481.553	3574.05
481.757	3655.97
481.961	3678.49
482.166	3672.35
482.37	3701.02
482.574	3559.71
482.778	3557.66
482.983	3572
483.187	3682.59
483.391	3582.24
483.595	3610.91
483.8	3506.46
484.004	3600.67
484.208	3660.06
484.412	3672.35
484.616	3766.56
484.821	3768.6
485.025	3574.05
485.229	3635.49
485.433	3528.99
485.637	3674.4
485.841	3612.96
486.045	3684.64
486.249	3633.44
486.453	3598.62
486.657	3651.87
486.861	3664.16
487.065	3586.33
487.269	3676.45
487.473	3676.45
487.677	3586.33
487.881	3627.29
488.085	3578.14
488.289	3694.88
488.493	3604.77
488.697	3606.81
488.901	3615.01
489.105	3559.71
489.309	3725.6
489.512	3598.62
489.716	3678.49
489.92	3639.58
490.124	3770.65
490.328	3748.12
490.531	3760.41
490.735	3784.99
490.939	3782.94
491.143	3780.89
491.346	3694.88
491.55	3758.36
491.754	3836.19
491.958	3868.95
492.161	3885.34
492.365	3877.15
492.569	3916.06
492.772	3899.67
492.976	4096.28
493.18	3950.87
493.383	4184.34
493.587	4172.05
493.79	3959.06
493.994	3985.69
494.197	4118.81
494.401	4071.7
494.605	4061.46
494.808	4094.23
495.012	4159.77
495.215	4243.73
495.419	4305.17
495.622	4354.32
495.825	4397.33
496.029	4272.4
496.232	4401.43
496.436	4495.63
496.639	4526.35
496.843	4546.83
497.046	4561.17
497.249	4579.6
497.453	4651.28
497.656	4774.16
497.859	4759.82
498.063	4862.22
498.266	5019.91
498.469	5038.34
498.673	5040.39
498.876	5239.05
499.079	5179.65
499.282	5089.54
499.485	5185.8
499.689	5163.27
499.892	5404.93
500.095	5429.51
500.298	5464.32
500.501	5486.85
500.705	5703.93
500.908	5830.91
501.111	5824.76
501.314	5880.06
501.517	5841.15
501.72	5927.16
501.923	5900.54
502.126	6232.31
502.329	6281.46
502.532	6295.8
502.735	6222.07
502.938	6545.65
503.141	6484.21
503.344	6592.75
503.547	6609.14
503.75	6854.89
503.953	6809.84
504.156	6967.53
504.359	6969.58
504.562	7129.32
504.765	7125.22
504.968	7313.64
505.17	7373.03
505.373	7485.67
505.576	7622.88
505.779	7680.22
505.982	7839.97
506.185	8040.67
506.387	8005.85
506.59	8186.07
506.793	8265.94
506.996	8255.7
507.198	8626.39
507.401	8648.91
507.604	8620.24
507.807	8818.89
508.009	8833.23
508.212	9025.74
508.415	9169.1
508.617	9414.85
508.82	9363.65
509.022	9455.81
509.225	9580.74
509.428	9666.75
509.63	9793.73
509.833	9930.94
510.035	10236.09
510.238	10137.79
510.44	10307.77
510.643	10533.04
510.845	10750.13
511.048	10799.28
511.25	10883.25
511.453	10864.82
511.655	11344.04
511.858	11241.64
512.06	11522.21
512.262	11681.96
512.465	11706.53
512.667	11868.32
512.87	11962.53
513.072	12026.01
513.274	12619.92
513.477	12425.37
513.679	12677.27
513.881	12853.39
514.084	13101.2
514.286	13047.95
514.488	13056.14
514.69	13703.3
514.893	13631.62
515.095	13744.26
515.297	13961.34
515.499	14033.02
515.701	14196.86
515.904	14360.7
516.106	14665.85
516.308	14698.61
516.51	15128.69
516.712	14993.52
516.914	15290.48
517.116	15509.61
517.318	15693.93
517.52	15880.29
517.722	15814.76
517.925	16056.42
518.127	16662.62
518.329	16572.5
518.531	16476.25
518.733	17025.11
518.935	17129.55
519.136	17336.4
519.338	17481.8
519.54	17367.12
519.742	17860.68
519.944	17983.55
520.146	18092.1
520.348	18513.98
520.55	18257.98
520.752	18944.05
520.954	18970.68
521.155	18876.47
521.357	19462.19
521.559	19781.67
521.761	19953.7
521.963	20060.2
522.164	20060.2
522.366	19763.24
522.568	20541.47
522.77	20549.66
522.971	20979.73
523.173	20953.11
523.375	20992.02
523.576	21137.43
523.778	21121.04
523.98	21391.37
524.181	21807.11
524.383	21770.25
524.584	21973
524.786	22085.64
524.988	22290.43
525.189	22607.87
525.391	22718.46
525.592	22820.86
525.794	22908.92
525.995	23048.18
526.197	23234.55
526.398	23201.78
526.6	23506.93
526.801	23668.72
527.003	23754.73
527.204	24014.82
527.406	23873.51
527.607	24154.08
527.808	24467.42
528.01	23721.96
528.211	23963.62
528.412	24500.19
528.614	24520.67
528.815	24791
529.016	24860.63
529.218	24670.17
529.419	24723.42
529.62	24989.66
529.822	25014.23
530.023	25120.73
530.224	24989.66
530.425	24985.56
530.626	24924.12
530.828	25157.59
531.029	25530.32
531.23	25638.86
531.431	25346
531.632	25534.42
531.833	25710.54
532.035	25718.73
532.236	26046.41
532.437	26111.94
532.638	25706.45
532.839	26001.35
533.04	26058.7
533.241	25898.95
533.442	26318.79
533.643	26222.53
533.844	26015.69
534.045	26017.74
534.246	26367.94
534.447	26392.51
534.648	26136.52
534.849	26224.58
535.05	26204.1
535.251	26388.42
535.451	26269.64
535.652	26548.16
535.853	26625.98
536.054	26415.04
536.255	26574.78
536.456	26128.33
536.657	26609.6
536.857	26406.85
537.058	26398.66
537.259	26628.03
537.46	26402.75
537.66	26697.66
537.861	26318.79
538.062	26699.71
538.263	26714.05
538.463	26490.82
538.664	26466.24
538.865	26607.55
539.065	26759.1
539.266	26443.71
539.466	26611.65
539.667	26312.64
539.868	26949.56
540.068	26353.6
540.269	26560.45
540.469	26767.29
540.67	26273.73
540.87	26556.35
541.071	26415.04
541.271	26609.6
541.472	26668.99
541.672	26402.75
541.873	26329.03
542.073	26240.96
542.274	26748.86
542.474	26351.56
542.675	26425.28
542.875	26656.7
543.075	26769.34
543.276	26478.53
543.476	26847.16
543.676	26396.61
543.877	26757.05
544.077	26591.17
544.277	26560.45
544.478	26668.99
544.678	26972.09
544.878	26943.42
545.078	26425.28
545.279	26517.44
545.479	26238.92
545.679	26505.15
545.879	26814.4
546.079	26699.71
546.28	26755.01
546.48	26367.94
546.68	26570.69
546.88	26390.47
547.08	26537.92
547.28	26654.65
547.48	26499.01
547.68	26818.49
547.88	26777.53
548.081	26662.85
548.281	26507.2
548.481	26570.69
548.681	26914.75
548.881	26496.96
549.081	26296.26
549.28	26896.31
549.48	26853.31
549.68	26732.48
549.88	26929.08
550.08	26439.62
550.28	26916.79
550.48	26666.94
550.68	26888.12
550.88	26558.4
551.08	26578.88
551.279	26843.07
551.479	26361.8
551.679	26607.55
551.879	26544.06
552.079	26679.23
552.278	26834.88
552.478	26402.75
552.678	26447.81
552.878	26531.78
553.077	26820.54
553.277	26372.03
553.477	26834.88
553.676	26580.93
553.876	26349.51
554.076	26396.61
554.275	26546.11
554.475	26322.88
554.674	26449.86
554.874	26456
555.074	26101.7
555.273	26267.59
555.473	26423.23
555.672	26322.88
555.872	26068.94
556.071	26079.18
556.271	26419.14
556.47	26283.97
556.67	25886.67
556.869	25950.15
557.068	26140.61
557.268	25745.36
557.467	26052.55
557.667	25819.08
557.866	26077.13
558.065	25804.75
558.265	25935.82
558.464	25587.66
558.663	26181.57
558.863	25280.47
559.062	26011.59
559.261	25423.83
559.461	25980.87
559.66	25266.13
559.859	25747.4
560.058	25419.73
560.258	25669.58
560.457	25081.81
560.656	25505.74
560.855	25188.31
561.054	25292.76
561.253	24920.03
561.453	25227.22
561.652	25323.47
561.851	25346
562.05	25049.05
562.249	24684.51
562.448	25194.45
562.647	24895.45
562.846	24979.42
563.045	24565.73
563.244	24588.25
563.443	24784.86
563.642	24377.31
563.841	24795.1
564.04	24467.42
564.239	24713.18
564.438	24604.64
564.637	24309.73
564.836	24498.14
565.035	24309.73
565.234	23992.3
565.432	24098.79
565.631	23998.44
565.83	24403.94
566.029	23891.94
566.228	23971.82
566.427	23992.3
566.625	24033.25
566.824	23580.65
567.023	23791.59
567.222	23644.14
567.42	23707.63
567.619	23543.79
567.818	23654.38
568.016	23408.62
568.215	23500.78
568.414	23375.86
568.612	23609.33
568.811	22876.15
569.01	23072.76
569.208	22679.55
569.407	23052.28
569.605	23220.21
569.804	23003.13
570.002	22755.32
570.201	22982.65
570.4	22480.89
570.598	22509.57
570.797	22456.32
570.995	22536.19
571.193	22364.16
571.392	22407.17
571.59	22272
571.789	22284.29
571.987	22108.16
572.186	22054.92
572.384	21792.78
572.582	21905.42
572.781	21749.77
572.979	21719.05
573.177	21717
573.376	21577.74
573.574	21612.56
573.772	21475.34
573.971	21186.58
574.169	21544.97
574.367	21094.42
574.565	21288.98
574.763	21049.36
574.962	20885.53
575.16	20926.49
575.358	21137.43
575.556	20619.29
575.754	21174.29
575.952	20430.88
576.151	20803.61
576.349	20463.65
576.547	20338.72
576.745	20641.82
576.943	20484.12
577.141	20269.09
577.339	20410.4
577.537	20058.15
577.735	20289.57
577.933	19900.45
578.131	20021.28
578.329	19787.82
578.527	19613.74
578.725	19935.27
578.923	19796.01
579.121	19458.09
579.319	19523.63
579.516	19683.37
579.714	19499.05
579.912	19454
580.11	19089.46
580.308	19222.58
580.506	19466.28
580.704	18843.7
580.901	19064.88
581.099	19032.11
581.297	18612.28
581.495	19003.44
581.692	18884.66
581.89	18542.65
582.088	18636.86
582.285	18608.19
582.483	18802.74
582.681	18298.94
582.878	18651.19
583.076	18106.43
583.274	18186.3
583.471	18012.23
583.669	18393.15
583.866	18022.47
584.064	18288.7
584.262	18032.71
584.459	17885.25
584.657	17836.1
584.854	18034.75
585.052	17612.87
585.249	17793.09
585.447	17907.78
585.644	17444.94
585.841	17477.71
586.039	17594.44
586.236	17285.2
586.434	17156.18
586.631	17289.29
586.828	17160.27
587.026	17211.47
587.223	17234
587.42	17152.08
587.618	17023.06
587.815	16846.93
588.012	17006.67
588.21	16953.43
588.407	16877.65
588.604	16836.69
588.801	16865.36
588.999	16707.67
589.196	16408.67
589.393	16384.09
589.59	16429.15
589.787	16564.31
589.984	16371.8
590.182	16382.04
590.379	16203.87
590.576	16130.14
590.773	16361.56
590.97	16212.06
591.167	16238.69
591.364	15945.83
591.561	15997.03
591.758	15970.4
591.955	16031.84
592.152	16060.51
592.349	15949.92
592.546	15888.48
592.743	15745.13
592.94	15151.21
593.137	15407.21
593.334	15839.33
593.531	15095.92
593.727	15616.1
593.924	15435.88
594.121	15323.24
594.318	15341.68
594.515	15222.89
594.712	15421.55
594.908	15108.21
595.105	15263.85
595.302	15057.01
595.499	14907.51
595.696	14948.47
595.892	14905.46
596.089	15083.63
596.286	14999.66
596.482	14946.42
596.679	14788.72
596.876	14704.76
597.072	14700.66
597.269	14643.32
597.466	14600.31
597.662	14366.84
597.859	14362.75
598.055	14522.49
598.252	14391.42
598.448	14381.18
598.645	14379.13
598.841	14225.53
599.038	14336.12
599.234	14274.68
599.431	14282.88
599.627	14094.46
599.824	14409.85
600.02	14024.83
600.217	14088.32
600.413	13912.19
600.609	13748.36
600.806	13713.54
601.002	13998.21
601.198	13766.79
601.395	13770.88
601.591	13387.91
601.787	13699.2
601.984	13564.04
602.18	13666.44
602.376	13457.54
602.572	13467.78
602.769	13422.73
602.965	13131.92
603.161	13254.8
603.357	13215.88
603.553	13095.05
603.75	13238.41
603.946	13127.82
604.142	13107.34
604.338	12820.63
604.534	13082.77
604.73	13062.29
604.926	12939.41
605.122	12777.62
605.318	12798.1
605.514	12523.67
605.71	12654.74
605.906	12597.4
606.102	12689.56
606.298	12664.98
606.494	12533.91
606.69	12558.49
606.886	12511.38
607.082	12343.45
607.278	12613.78
607.474	12282.01
607.67	12310.68
607.866	12206.24
608.062	12021.92
608.257	12159.13
608.453	12128.41
608.649	12146.84
608.845	11921.57
609.041	12144.8
609.236	11987.1
609.432	11954.33
609.628	12007.58
609.824	11819.17
610.019	11751.59
610.215	11731.11
610.411	11786.4
610.606	11677.86
610.802	11516.07
610.998	11675.81
611.193	11616.42
611.389	11481.25
611.584	11497.64
611.78	11387.05
611.976	11223.21
612.171	11425.96
612.367	11346.09
612.562	11270.31
612.758	10973.36
612.953	10901.68
613.149	11112.62
613.344	11081.9
613.539	11190.44
613.735	11106.48
613.93	11155.63
614.126	10883.25
614.321	11047.08
614.517	10885.3
614.712	10938.54
614.907	10895.54
615.103	10830
615.298	11018.41
615.493	10811.57
615.688	11002.03
615.884	10879.15
616.079	10565.81
616.274	10952.88
616.47	10578.1
616.665	10563.76
616.86	10455.22
617.055	10350.78
617.25	10578.1
617.445	10524.85
617.641	10195.13
617.836	10363.06
618.031	10236.09
618.226	10209.47
618.421	10197.18
618.616	10365.11
618.811	10170.55
619.006	10301.62
619.201	9996.48
619.396	10014.91
619.591	9908.41
619.786	10016.96
619.981	9717.95
620.176	9846.98
620.371	9722.05
620.566	9867.45
620.761	9679.04
620.956	9781.44
621.151	9560.26
621.346	9726.14
621.541	9648.32
621.735	9406.66
621.93	9222.34
622.125	9234.63
622.32	9189.58
622.515	9271.5
622.709	9271.5
622.904	9087.18
623.099	9007.31
623.294	9216.2
623.488	8831.18
623.683	9005.26
623.878	8884.43
624.072	8921.29
624.267	8845.52
624.462	8749.26
624.656	8587.47
624.851	8616.15
625.046	8663.25
625.24	8515.8
625.435	8663.25
625.629	8403.16
625.824	8308.95
626.018	8450.26
626.213	8329.43
626.407	8265.94
626.602	8089.82
626.796	8341.72
626.991	8073.43
627.185	8075.48
627.38	7944.41
627.574	7993.56
627.768	8198.36
627.963	7905.5
628.157	7870.69
628.352	7796.96
628.546	7936.22
628.74	7858.4
628.935	7678.18
629.129	8036.57
629.323	7459.04
629.517	7770.33
629.712	7639.26
629.906	7532.77
630.1	7442.66
630.294	7618.79
630.489	7350.5
630.683	7346.41
630.877	7121.13
631.071	7323.88
631.265	7321.83
631.459	7250.15
631.653	7217.38
631.848	7076.07
632.042	7106.79
632.236	7094.51
632.43	6936.81
632.624	7110.89
632.818	6975.72
633.012	6906.09
633.206	6955.24
633.4	6871.28
633.594	6811.89
633.788	6805.74
633.982	6695.15
634.176	6607.09
634.369	6551.79
634.563	6738.16
634.757	6568.18
634.951	6609.14
635.145	6379.76
635.339	6381.81
635.533	6519.03
635.726	6398.2
635.92	6416.63
636.114	6287.61
636.308	6291.7
636.501	6297.85
636.695	6332.66
636.889	6224.12
637.083	6095.1
637.276	6066.42
637.47	6062.33
637.664	6103.29
637.857	6084.86
638.051	5951.74
638.244	5970.17
638.438	6093.05
638.632	5746.94
638.825	5898.49
639.019	5757.18
639.212	5759.23
639.406	5644.54
639.599	5677.31
639.793	5693.69
639.986	5642.5
640.18	5609.73
640.373	5443.84
640.567	5593.34
640.76	5564.67
640.954	5492.99
641.147	5536
641.34	5421.31
641.534	5357.83
641.727	5361.92
641.92	5239.05
642.114	5226.76
642.307	5136.65
642.5	5089.54
642.694	4974.86
642.887	5067.02
643.08	5204.23
643.273	5134.6
643.467	5142.79
643.66	4919.56
643.853	4849.93
644.046	4923.66
644.239	4819.21
644.432	4843.79
644.626	4770.06
644.819	4690.19
645.012	4802.83
645.205	4698.38
645.398	4684.05
645.591	4649.23
645.784	4725.01
645.977	4737.29
646.17	4679.95
646.363	4593.94
646.556	4573.46
646.749	4493.58
646.942	4505.87
647.135	4423.95
647.328	4417.81
647.521	4452.63
647.714	4421.91
647.907	4292.88
648.099	4299.03
648.292	4225.3
648.485	4231.44
648.678	4124.95
648.871	4020.5
649.064	4131.09
649.256	4153.62
649.449	4151.57
649.642	4020.5
649.835	3969.3
650.027	4061.46
650.22	4016.41
650.413	4043.03
650.605	4067.61
650.798	4081.94
650.991	3961.11
651.183	3873.05
651.376	3907.87
651.568	3916.06
651.761	3834.14
651.954	3610.91
652.146	3789.08
652.339	3805.47
652.531	3719.45
652.724	3612.96
652.916	3442.98
653.109	3633.44
653.301	3746.08
653.494	3723.55
653.686	3586.33
653.879	3596.57
654.071	3512.61
654.263	3457.31
654.456	3356.96
654.648	3408.16
654.84	3377.44
655.033	3359.01
655.225	3402.02
655.417	3309.86
655.61	3475.74
655.802	3217.7
655.994	3189.03
656.186	3361.06
656.379	3305.76
656.571	3356.96
656.763	3283.24
656.955	3229.99
657.148	3176.74
657.34	3135.78
657.532	3098.92
657.724	3164.45
657.916	3096.87
658.108	3072.29
658.3	3092.77
658.492	2871.59
658.684	2955.56
658.876	3012.9
659.068	2957.61
659.26	2890.03
659.452	2861.35
659.644	2912.55
659.836	2867.5
660.028	2879.79
660.22	2828.59
660.412	2922.79
660.604	2826.54
660.796	2765.1
660.988	2771.24
661.18	2687.28
661.372	2625.84
661.563	2654.51
661.755	2662.7
661.947	2601.26
662.139	2578.73
662.331	2644.27
662.522	2490.67
662.714	2558.25
662.906	2652.46
663.097	2541.87
663.289	2566.45
663.481	2414.9
663.673	2492.72
663.864	2447.66
664.056	2398.51
664.247	2439.47
664.439	2423.09
664.631	2431.28
664.822	2449.71
665.014	2390.32
665.205	2416.94
665.397	2470.19
665.588	2300.21
665.78	2449.71
665.971	2449.71
666.163	2263.35
666.354	2343.22
666.546	2263.35
666.737	2287.92
666.929	2226.48
667.12	2173.24
667.311	2154.8
667.503	2179.38
667.694	2201.91
667.885	2171.19
668.077	2146.61
668.268	2103.61
668.459	2070.84
668.651	2175.28
668.842	2142.52
669.033	2064.69
669.224	2076.98
669.416	2199.86
669.607	2009.4
669.798	2154.8
669.989	2076.98
670.18	2165.04
670.371	2007.35
670.563	2029.88
670.754	2027.83
670.945	2087.22
671.136	1968.44
671.327	1968.44
671.518	2021.69
671.709	2152.76
671.9	2017.59
672.091	2042.17
672.282	1943.86
672.473	2044.21
672.664	1997.11
672.855	1929.53
673.046	1917.24
673.237	1980.73
673.428	1982.78
673.619	1872.18
673.809	1925.43
674	1769.79
674.191	1943.86
674.382	1855.8
674.573	1798.46
674.764	1784.12
674.954	1798.46
675.145	1857.85
675.336	1878.33
675.527	1874.23
675.717	1894.71
675.908	1820.99
676.099	1870.14
676.289	1839.42
676.48	1880.38
676.671	1896.76
676.861	1812.79
677.052	1741.11
677.243	1689.92
677.433	1882.42
677.624	1853.75
677.814	1841.47
678.005	1808.7
678.195	1724.73
678.386	1755.45
678.576	1675.58
678.767	1671.48
678.957	1749.31
679.148	1728.83
679.338	1741.11
679.529	1732.92
679.719	1689.92
679.909	1751.35
680.1	1874.23
680.29	1782.07
680.481	1780.03
680.671	1734.97
680.861	1792.31
681.052	1718.59
681.242	1694.01
681.432	1714.49
681.622	1724.73
681.813	1694.01
682.003	1753.4
682.193	1724.73
682.383	1726.78
682.573	1794.36
682.764	1859.9
682.954	1794.36
683.144	1743.16
683.334	1769.79
683.524	1757.5
683.714	1777.98
683.904	1716.54
684.094	1640.76
684.284	1751.35
684.474	1757.5
684.664	1665.34
684.854	1671.48
685.044	1689.92
685.234	1630.52
685.424	1784.12
685.614	1679.68
685.804	1685.82
685.994	1724.73
686.184	1663.29
686.374	1691.96
686.564	1669.44
686.753	1702.2
686.943	1724.73
687.133	1753.4
687.323	1751.35
687.513	1642.81
687.702	1747.26
687.892	1614.14
688.082	1755.45
688.272	1638.72
688.461	1567.04
688.651	1710.4
688.841	1728.83
689.03	1657.15
689.22	1653.05
689.41	1616.19
689.599	1677.63
689.789	1671.48
689.979	1587.52
690.168	1706.3
690.358	1665.34
690.547	1673.53
690.737	1765.69
690.926	1628.48
691.116	1651
691.305	1681.72
691.495	1638.72
691.684	1769.79
691.874	1589.57
692.063	1753.4
692.252	1653.05
692.442	1763.64
692.631	1681.72
692.82	1739.07
693.01	1683.77
693.199	1673.53
693.388	1741.11
693.578	1657.15
693.767	1628.48
693.956	1622.33
694.146	1792.31
694.335	1777.98
694.524	1605.95
694.713	1716.54
694.902	1794.36
695.092	1767.74
695.281	1794.36
695.47	1798.46
695.659	1743.16
695.848	1722.68
696.037	1734.97
696.226	1667.39
696.415	1704.25
696.604	1700.16
696.793	1765.69
696.982	1796.41
697.171	1691.96
697.36	1786.17
697.549	1763.64
697.738	1716.54
697.927	1823.03
698.116	1732.92
698.305	1782.07
698.494	1833.27
698.683	1853.75
698.872	1771.83
699.061	1737.02
699.25	1786.17
699.438	1784.12
699.627	1747.26
699.816	1737.02
700.005	1788.22
700.193	1800.51
700.382	1777.98
700.571	1814.84
700.76	1714.49
700.948	1761.59
701.137	1751.35
701.326	1782.07
701.514	1880.38
701.703	1743.16
701.892	1784.12
702.08	1708.35
702.269	1706.3
702.457	1839.42
702.646	1794.36
702.834	1800.51
703.023	1739.07
703.212	1835.32
703.4	1786.17
703.589	1798.46
703.777	1734.97
703.965	1671.48
704.154	1794.36
704.342	1780.03
704.531	1608
704.719	1773.88
704.907	1761.59
705.096	1673.53
705.284	1798.46
705.472	1724.73
705.661	1624.38
705.849	1798.46
706.037	1767.74
706.226	1718.59
706.414	1710.4
706.602	1683.77
706.79	1765.69
706.979	1636.67
707.167	1626.43
707.355	1685.82
707.543	1595.71
707.731	1759.55
707.919	1718.59
708.107	1749.31
708.296	1673.53
708.484	1677.63
708.672	1683.77
708.86	1671.48
709.048	1599.8
709.236	1646.91
709.424	1640.76
709.612	1714.49
709.8	1575.23
709.988	1571.13
710.176	1732.92
710.364	1653.05
710.551	1651
710.739	1587.52
710.927	1659.2
711.115	1640.76
711.303	1608
711.491	1585.47
711.679	1571.13
711.866	1517.89
712.054	1691.96
712.242	1556.8
712.43	1638.72
712.617	1636.67
712.805	1648.96
712.993	1599.8
713.181	1567.04
713.368	1573.18
713.556	1519.93
713.744	1653.05
713.931	1505.6
714.119	1446.21
714.306	1548.61
714.494	1448.26
714.682	1577.28
714.869	1521.98
715.057	1444.16
715.244	1601.85
715.432	1603.9
715.619	1562.94
715.807	1442.11
715.994	1497.41
716.182	1550.65
716.369	1464.64
716.556	1558.85
716.744	1450.3
716.931	1450.3
717.119	1587.52
717.306	1481.02
717.493	1493.31
717.681	1366.34
717.868	1458.5
718.055	1366.34
718.242	1470.78
718.43	1433.92
718.617	1356.1
718.804	1464.64
718.991	1399.1
719.179	1380.67
719.366	1354.05
719.553	1427.78
719.74	1368.38
719.927	1294.66
720.114	1360.19
720.301	1294.66
720.488	1341.76
720.676	1368.38
720.863	1327.43
721.05	1304.9
721.237	1386.82
721.424	1395.01
721.611	1327.43
721.798	1446.21
721.985	1282.37
722.172	1280.32
722.358	1298.75
722.545	1300.8
722.732	1278.27
722.919	1358.14
723.106	1341.76
723.293	1304.9
723.48	1360.19
723.667	1352
723.853	1339.71
724.04	1321.28
724.227	1233.22
724.414	1300.8
724.6	1257.79
724.787	1296.71
724.974	1253.7
725.161	1255.75
725.347	1265.99
725.534	1311.04
725.72	1261.89
725.907	1300.8
726.094	1272.13
726.28	1319.23
726.467	1134.92
726.653	1159.49
726.84	1270.08
727.027	1290.56
727.213	1233.22
727.4	1331.52
727.586	1243.46
727.773	1272.13
727.959	1272.13
728.145	1247.55
728.332	1241.41
728.518	1120.58
728.705	1153.35
728.891	1141.06
729.077	1186.12
729.264	1208.64
729.45	1225.03
729.636	1157.44
729.823	1177.92
730.009	1247.55
730.195	1147.2
730.382	1120.58
730.568	1194.31
730.754	1147.2
730.94	1132.87
731.126	1165.64
731.313	1241.41
731.499	1163.59
731.685	1081.67
731.871	1132.87
732.057	1159.49
732.243	1108.29
732.429	1089.86
732.615	1126.72
732.801	1184.07
732.987	1065.29
733.173	1077.57
733.359	1044.81
733.545	1163.59
733.731	1071.43
733.917	1061.19
734.103	1077.57
734.289	1147.2
734.475	1030.47
734.661	1132.87
734.847	1173.83
735.033	1071.43
735.219	1050.95
735.404	1163.59
735.59	1067.33
735.776	1079.62
735.962	1083.72
736.148	1100.1
736.333	1091.91
736.519	1016.13
736.705	1022.28
736.89	1059.14
737.076	1046.85
737.262	973.13
737.447	883.02
737.633	1038.66
737.819	985.41
738.004	1040.71
738.19	983.37
738.375	989.51
738.561	1073.48
738.747	956.74
738.932	964.93
739.118	1005.89
739.303	1030.47
739.489	977.22
739.674	948.55
739.859	981.32
740.045	958.79
740.23	997.7
740.416	1040.71
740.601	966.98
740.786	913.74
740.972	893.26
741.157	981.32
741.342	913.74
741.528	958.79
741.713	983.37
741.898	1032.52
742.084	958.79
742.269	915.78
742.454	913.74
742.639	889.16
742.824	948.55
743.01	950.6
743.195	911.69
743.38	958.79
743.565	872.78
743.75	825.67
743.935	919.88
744.12	899.4
744.305	813.38
744.49	848.2
744.675	780.62
744.86	846.15
745.045	842.06
745.23	936.26
745.415	848.2
745.6	878.92
745.785	827.72
745.97	717.13
746.155	885.06
746.34	909.64
746.525	825.67
746.71	913.74
746.895	776.52
747.079	872.78
747.264	815.43
747.449	842.06
747.634	823.62
747.819	794.95
748.003	721.23
748.188	739.66
748.373	743.75
748.557	844.1
748.742	782.67
748.927	837.96
749.111	758.09
749.296	762.19
749.481	743.75
749.665	788.81
749.85	704.84
750.034	704.84
750.219	786.76
750.404	649.55
750.588	715.08
750.773	745.8
750.957	788.81
751.141	698.7
751.326	688.46
751.51	715.08
751.695	721.23
751.879	739.66
752.064	688.46
752.248	715.08
752.432	676.17
752.617	706.89
752.801	659.79
752.985	659.79
753.17	698.7
753.354	661.84
753.538	635.21
753.722	676.17
753.907	727.37
754.091	665.93
754.275	586.06
754.459	645.45
754.643	563.53
754.828	629.07
755.012	661.84
755.196	627.02
755.38	538.96
755.564	596.3
755.748	584.01
755.932	598.35
756.116	667.98
756.3	622.92
756.484	524.62
756.668	608.59
756.852	549.2
757.036	598.35
757.22	528.72
757.404	551.24
757.588	493.9
757.772	610.64
757.956	530.77
758.14	553.29
758.323	612.68
758.507	498
758.691	514.38
758.875	557.39
759.059	457.04
759.242	565.58
759.426	565.58
759.61	559.44
759.794	491.85
759.977	477.52
760.161	534.86
760.345	504.14
760.528	567.63
760.712	528.72
760.895	440.65
761.079	465.23
761.263	471.37
761.446	487.76
761.63	514.38
761.813	493.9
761.997	461.13
762.18	391.5
762.364	516.43
762.547	469.33
762.731	481.61
762.914	475.47
763.098	426.32
763.281	391.5
763.464	424.27
763.648	549.2
763.831	475.47
764.015	432.46
764.198	500.05
764.381	485.71
764.564	457.04
764.748	450.89
764.931	491.85
765.114	459.09
765.297	504.14
765.481	434.51
765.664	430.41
765.847	454.99
766.03	395.6
766.213	463.18
766.397	487.76
766.58	432.46
766.763	438.61
766.946	446.8
767.129	422.22
767.312	479.57
767.495	426.32
767.678	364.88
767.861	450.89
768.044	381.26
768.227	414.03
768.41	454.99
768.593	375.12
768.776	432.46
768.959	424.27
769.142	391.5
769.324	450.89
769.507	356.69
769.69	393.55
769.873	389.46
770.056	457.04
770.239	360.78
770.421	268.63
770.604	403.79
770.787	416.08
770.97	424.27
771.152	405.84
771.335	379.22
771.518	307.54
771.7	401.74
771.883	448.85
772.066	397.65
772.248	358.74
772.431	418.13
772.613	399.7
772.796	422.22
772.978	377.17
773.161	399.7
773.343	356.69
773.526	323.92
773.708	375.12
773.891	362.83
774.073	373.07
774.256	450.89
774.438	446.8
774.621	319.82
774.803	321.87
774.985	366.93
775.168	438.61
775.35	377.17
775.532	401.74
775.715	385.36
775.897	266.58
776.079	338.26
776.261	272.72
776.444	317.78
776.626	346.45
776.808	295.25
776.99	375.12
777.173	215.38
777.355	325.97
777.537	276.82
777.719	350.54
777.901	252.24
778.083	317.78
778.265	278.87
778.447	342.35
778.629	354.64
778.811	264.53
778.993	381.26
779.175	209.23
779.357	207.19
779.539	330.06
779.721	319.82
779.903	244.05
780.085	311.63
780.267	328.02
780.449	270.67
780.631	375.12
780.812	295.25
780.994	250.19
781.176	198.99
781.358	278.87
781.54	282.96
781.721	323.92
781.903	321.87
782.085	223.57
782.267	235.86
782.448	287.06
782.63	254.29
782.812	211.28
782.993	264.53
783.175	242
783.357	182.61
783.538	235.86
783.72	196.95
783.901	192.85
784.083	242
784.264	280.91
784.446	237.91
784.627	258.39
784.809	207.19
784.99	295.25
785.172	231.76
785.353	194.9
785.535	170.32
785.716	168.27
785.897	227.67
786.079	205.14
786.26	211.28
786.441	285.01
786.623	207.19
786.804	178.51
786.985	203.09
787.167	192.85
787.348	186.71
787.529	182.61
787.71	98.64
787.891	119.12
788.073	229.71
788.254	160.08
788.435	209.23
788.616	178.51
788.797	153.94
788.978	174.42
789.159	176.47
789.34	176.47
789.522	178.51
789.703	221.52
789.884	168.27
790.065	209.23
790.246	162.13
790.427	192.85
790.607	233.81
790.788	287.06
790.969	168.27
791.15	192.85
791.331	151.89
791.512	180.56
791.693	143.7
791.874	147.8
792.054	186.71
792.235	203.09
792.416	145.75
792.597	74.07
792.778	139.6
792.958	164.18
793.139	223.57
793.32	127.32
793.5	172.37
793.681	104.79
793.862	168.27
794.042	137.56
794.223	143.7
794.404	168.27
794.584	174.42
794.765	149.84
794.945	119.12
795.126	196.95
795.306	170.32
795.487	123.22
795.667	112.98
795.848	76.12
796.028	188.75
796.209	186.71
796.389	184.66
796.57	158.03
796.75	201.04
796.93	129.36
797.111	119.12
797.291	104.79
797.471	127.32
797.652	121.17
797.832	121.17
798.012	112.98
798.192	117.08
798.373	168.27
798.553	86.36
798.733	59.73
798.913	123.22
799.093	10.58
799.274	112.98
799.454	112.98
799.634	106.84
799.814	65.88
799.994	172.37
800.174	72.02
800.354	106.84
800.534	80.21
800.714	104.79
800.894	127.32
801.074	117.08
801.254	24.92
801.434	153.94
801.614	176.47
801.794	90.45
801.974	287.06
802.154	41.3
802.334	80.21
802.514	80.21
802.693	104.79
802.873	135.51
803.053	115.03
803.233	133.46
803.413	172.37
803.592	53.59
803.772	94.55
803.952	78.16
804.131	57.68
804.311	76.12
804.491	98.64
804.67	110.93
804.85	104.79
805.03	143.7
805.209	102.74
805.389	78.16
805.568	115.03
805.748	117.08
805.928	57.68
806.107	102.74
806.287	82.26
806.466	141.65
806.646	61.78
806.825	112.98
807.004	170.32
807.184	121.17
807.363	123.22
807.543	57.68
807.722	127.32
807.901	26.96
808.081	121.17
808.26	104.79
808.439	129.36
808.619	78.16
808.798	110.93
808.977	39.25
809.156	176.47
809.336	100.69
809.515	37.2
809.694	115.03
809.873	121.17
810.052	82.26
810.231	74.07
810.411	80.21
810.59	158.03
810.769	86.36
810.948	67.92
811.127	119.12
811.306	94.55
811.485	47.44
811.664	92.5
811.843	65.88
812.022	72.02
812.201	35.16
812.38	57.68
812.559	72.02
812.737	115.03
812.916	92.5
813.095	31.06
813.274	47.44
813.453	131.41
813.632	37.2
813.811	102.74
813.989	8.53
814.168	49.49
814.347	22.87
814.526	125.27
814.704	88.4
814.883	137.56
815.062	49.49
815.24	72.02
815.419	117.08
815.598	61.78
815.776	55.64
815.955	37.2
816.133	53.59
816.312	94.55
816.49	117.08
816.669	26.96
816.847	104.79
817.026	-7.85
817.204	-3.75
817.383	160.08
817.561	67.92
817.74	112.98
817.918	55.64
818.097	86.36
818.275	37.2
818.453	88.4
818.632	10.58
818.81	35.16
818.988	90.45
819.167	121.17
819.345	37.2
819.523	141.65
819.701	-28.33
819.879	8.53
820.058	63.83
820.236	63.83
820.414	16.73
820.592	26.96
820.77	86.36
820.948	35.16
821.127	86.36
821.305	-13.99
821.483	20.82
821.661	65.88
821.839	-1.71
822.017	-24.23
822.195	55.64
822.373	47.44
822.551	74.07
822.729	43.35
822.907	20.82
823.085	90.45
823.262	10.58
823.44	14.68
823.618	26.96
823.796	6.49
823.974	106.84
824.152	29.01
824.329	-9.9
824.507	6.49
824.685	72.02
824.863	80.21
825.04	45.4
825.218	45.4
825.396	47.44
825.574	63.83
825.751	102.74
825.929	8.53
826.107	0.34
826.284	112.98
826.462	45.4
826.639	33.11
826.817	67.92
826.994	4.44
827.172	-5.8
827.349	35.16
827.527	123.22
827.704	53.59
827.882	35.16
828.059	-13.99
828.237	-32.43
828.414	39.25
828.591	0.34
828.769	37.2
828.946	18.77
829.124	78.16
829.301	12.63
829.478	37.2
829.655	26.96
829.833	67.92
830.01	2.39
830.187	6.49
830.364	41.3
830.542	29.01
830.719	49.49
830.896	59.73
831.073	31.06
831.25	59.73
831.427	-20.14
831.604	24.92
831.782	-18.09
831.959	74.07
832.136	41.3
832.313	18.77
832.49	61.78
832.667	-34.47
832.844	35.16
833.021	55.64
833.198	153.94
833.374	14.68
833.551	49.49
833.728	12.63
833.905	69.97
834.082	29.01
834.259	47.44
834.436	117.08
834.612	37.2
834.789	-11.95
834.966	41.3
835.143	92.5
835.319	33.11
835.496	88.4
835.673	47.44
835.85	4.44
836.026	6.49
836.203	-9.9
836.38	33.11
836.556	90.45
836.733	78.16
836.909	37.2
837.086	43.35
837.262	31.06
837.439	31.06
837.616	80.21
837.792	-50.86
837.968	-5.8
838.145	-13.99
838.321	-30.38
838.498	51.54
838.674	47.44
838.851	18.77
839.027	20.82
839.203	45.4
839.38	37.2
839.556	39.25
839.732	45.4
839.909	20.82
840.085	-26.28
840.261	29.01
840.437	24.92
840.614	-22.19
840.79	-26.28
840.966	-18.09
841.142	4.44
841.318	-36.52
841.494	35.16
841.671	18.77
841.847	14.68
842.023	-22.19
842.199	53.59
842.375	37.2
842.551	39.25
842.727	-13.99
842.903	57.68
843.079	39.25
843.255	20.82
843.431	43.35
843.607	31.06
843.783	39.25
843.959	43.35
844.134	-3.75
844.31	-24.23
844.486	51.54
844.662	47.44
844.838	61.78
845.013	-44.71
845.189	-3.75
845.365	49.49
845.541	-67.24
845.716	4.44
845.892	2.39
846.068	-22.19
846.244	10.58
846.419	24.92
846.595	-28.33
846.77	29.01
846.946	-22.19
847.122	6.49
847.297	-11.95
847.473	24.92
847.648	26.96
847.824	29.01
847.999	-20.14
848.175	-18.09
848.35	24.92
848.526	-7.85
848.701	-13.99
848.876	63.83
849.052	45.4
849.227	69.97
849.403	18.77
849.578	0.34
849.753	24.92
849.929	92.5
850.104	31.06
850.279	78.16
850.454	45.4
850.63	10.58
850.805	41.3
850.98	-38.57
851.155	37.2
851.33	31.06
851.505	16.73
851.681	-30.38
851.856	61.78
852.031	20.82
852.206	29.01
852.381	45.4
852.556	-13.99
852.731	-18.09
852.906	10.58
853.081	-61.1
853.256	39.25
853.431	59.73
853.606	47.44
853.781	0.34
853.956	22.87
854.131	65.88
854.305	39.25
854.48	-11.95
854.655	18.77
854.83	47.44
855.005	-61.1
855.18	29.01
855.354	22.87
855.529	14.68
855.704	-59.05
855.879	-44.71
856.053	20.82
856.228	55.64
856.403	-3.75
856.577	0.34
856.752	-48.81
856.926	18.77
857.101	45.4
857.276	8.53
857.45	-38.57
857.625	35.16
857.799	-44.71
857.974	69.97
858.148	43.35
858.323	18.77
858.497	6.49
858.672	16.73
858.846	-65.19
859.02	51.54
859.195	2.39
859.369	-54.95
859.543	29.01
859.718	14.68
859.892	-42.67
860.066	65.88
860.241	-46.76
860.415	45.4
860.589	10.58
860.763	59.73
860.938	-11.95
861.112	47.44
861.286	-5.8
861.46	-7.85
861.634	-54.95
861.808	-48.81
861.982	26.96
862.157	76.12
862.331	18.77
862.505	-57
862.679	-52.91
862.853	37.2
863.027	24.92
863.201	-11.95
863.375	57.68
863.549	-22.19
863.722	18.77
863.896	6.49
864.07	-30.38
864.244	18.77
864.418	51.54
864.592	41.3
864.766	-38.57
864.939	51.54
865.113	47.44
865.287	-3.75
865.461	24.92
865.634	-18.09
865.808	-32.43
865.982	53.59
866.156	6.49
866.329	20.82
866.503	26.96
866.676	22.87
866.85	29.01
867.024	-20.14
867.197	-24.23
867.371	26.96
867.544	18.77
867.718	-7.85
867.891	20.82
868.065	-46.76
868.238	-20.14
868.412	39.25
868.585	14.68
868.759	-63.15
868.932	-7.85
869.105	-20.14
869.279	-13.99
869.452	-11.95
869.625	43.35
869.799	20.82
869.972	18.77
870.145	-3.75
870.319	22.87
870.492	-9.9
870.665	12.63
870.838	-38.57
871.011	37.2
871.185	0.34
871.358	-52.91
871.531	74.07
871.704	-22.19
871.877	37.2
872.05	-52.91
872.223	-5.8
872.396	-18.09
872.569	-44.71
872.742	-42.67
872.915	0.34
873.088	67.92
873.261	74.07
873.434	-50.86
873.607	12.63
873.78	55.64
873.953	8.53
874.126	8.53
874.299	20.82
874.471	65.88
874.644	2.39
874.817	53.59
874.99	63.83
875.163	-13.99
875.335	-30.38
875.508	6.49
875.681	-40.62
875.853	24.92
876.026	-46.76
876.199	-13.99
876.371	-42.67
876.544	-26.28
876.717	-32.43
876.889	39.25
877.062	14.68
877.234	-28.33
877.407	-18.09
877.579	-9.9
877.752	65.88
877.924	0.34
878.097	51.54
878.269	20.82
878.442	29.01
878.614	-44.71
878.786	86.36
878.959	18.77
879.131	20.82
879.303	-20.14
879.476	43.35
879.648	14.68
879.82	45.4
879.993	106.84
880.165	37.2
880.337	-85.67
880.509	-28.33
880.681	-44.71
880.854	-26.28
881.026	18.77
881.198	-1.71
881.37	-24.23
881.542	-7.85
881.714	-1.71
881.886	53.59
882.058	-28.33
882.23	65.88
882.402	-16.04
882.574	-5.8
882.746	-16.04
882.918	10.58
883.09	39.25
883.262	-3.75
883.434	-3.75
883.606	33.11
883.778	10.58
883.95	69.97
884.122	-3.75
884.293	43.35
884.465	35.16
884.637	55.64
884.809	-18.09
884.98	24.92
885.152	53.59
885.324	49.49
885.496	12.63
885.667	-50.86
885.839	-73.39
886.011	78.16
886.182	8.53
886.354	-11.95
886.525	14.68
886.697	0.34
886.869	49.49
887.04	18.77
887.212	33.11
887.383	-34.47
887.555	-24.23
887.726	18.77
887.897	-26.28
888.069	-30.38
888.24	86.36
888.412	-24.23
888.583	-16.04
888.754	-28.33
888.926	-9.9
889.097	-67.24
889.268	-63.15
889.44	-1.71
889.611	49.49
889.782	-9.9
889.953	67.92
890.125	37.2
890.296	-52.91
890.467	-57
890.638	-16.04
890.809	-1.71
890.98	20.82
891.151	39.25
891.323	4.44
891.494	10.58
891.665	-3.75
891.836	-40.62
892.007	-3.75
892.178	51.54
892.349	-7.85
892.52	-9.9
892.691	76.12
892.862	-46.76
893.032	-18.09
893.203	-36.52
893.374	65.88
893.545	-20.14
893.716	-26.28
893.887	41.3
894.057	-22.19
894.228	-1.71
894.399	-32.43
894.57	6.49
894.74	-46.76
894.911	-11.95
895.082	22.87
895.253	-28.33
895.423	-38.57
895.594	8.53
895.764	4.44
895.935	6.49
896.106	51.54
896.276	55.64
896.447	65.88
896.617	47.44
896.788	-48.81
896.958	47.44
897.129	-61.1
897.299	-1.71
897.47	-18.09
897.64	-7.85
897.81	-106.15
897.981	76.12
898.151	-16.04
898.322	4.44
898.492	24.92
898.662	-48.81
898.832	-18.09
899.003	-9.9
899.173	41.3
899.343	-38.57
899.513	-9.9
