Data from USB4F104151__215__14-00-03-404.txt Node

Date: Thu Mar 13 14:00:03 EDT 2025
User: louis
Spectrometer: USB4F10415
Trigger mode: 4
Integration Time (sec): 1.000000E-2
Scans to average: 1
Electric dark correction enabled: true
Nonlinearity correction enabled: false
Boxcar width: 0
XAxis mode: Wavelengths
Number of Pixels in Spectrum: 3648
>>>>>Begin Spectral Data<<<<<
178.204	-18.77
178.424	-18.77
178.644	-18.77
178.864	-49.49
179.084	-10.58
179.304	32.43
179.524	-26.96
179.744	-6.49
179.964	-0.34
180.184	-59.73
180.404	9.9
180.624	-16.73
180.844	7.85
181.064	11.95
181.283	52.91
181.503	-22.87
181.723	18.09
181.943	42.67
182.163	26.28
182.383	34.47
182.602	30.38
182.822	22.19
183.042	30.38
183.262	16.04
183.482	-35.16
183.701	22.19
183.921	-16.73
184.141	18.09
184.361	83.63
184.58	36.52
184.8	36.52
185.02	32.43
185.239	-0.34
185.459	69.29
185.679	-29.01
185.898	-51.54
186.118	-12.63
186.338	-2.39
186.557	71.34
186.777	-22.87
186.997	59.05
187.216	13.99
187.436	32.43
187.655	-10.58
187.875	9.9
188.095	40.62
188.314	42.67
188.534	44.71
188.753	22.19
188.973	13.99
189.192	18.09
189.412	-10.58
189.631	36.52
189.851	40.62
190.07	54.95
190.29	5.8
190.509	16.04
190.729	50.86
190.948	63.15
191.168	77.48
191.387	-10.58
191.607	-6.49
191.826	-26.96
192.045	-10.58
192.265	16.04
192.484	77.48
192.704	34.47
192.923	11.95
193.142	132.78
193.362	50.86
193.581	28.33
193.8	-8.53
194.02	7.85
194.239	30.38
194.458	-43.35
194.678	34.47
194.897	-26.96
195.116	-33.11
195.335	42.67
195.555	32.43
195.774	-53.59
195.993	40.62
196.212	22.19
196.432	-18.77
196.651	-16.73
196.87	26.28
197.089	128.68
197.308	34.47
197.528	-59.73
197.747	3.75
197.966	-14.68
198.185	63.15
198.404	79.53
198.623	-35.16
198.842	73.39
199.062	22.19
199.281	40.62
199.5	42.67
199.719	16.04
199.938	67.24
200.157	32.43
200.376	9.9
200.595	7.85
200.814	24.23
201.033	26.28
201.252	13.99
201.471	67.24
201.69	16.04
201.909	5.8
202.128	89.77
202.347	95.91
202.566	20.14
202.785	46.76
203.004	11.95
203.223	-65.88
203.442	24.23
203.661	7.85
203.879	22.19
204.098	54.95
204.317	22.19
204.536	16.04
204.755	1.71
204.974	73.39
205.193	83.63
205.411	40.62
205.63	1.71
205.849	24.23
206.068	20.14
206.287	-8.53
206.505	1.71
206.724	-18.77
206.943	11.95
207.162	28.33
207.381	-31.06
207.599	-26.96
207.818	-8.53
208.037	-6.49
208.255	-26.96
208.474	-49.49
208.693	42.67
208.911	26.28
209.13	7.85
209.349	40.62
209.567	67.24
209.786	-35.16
210.005	9.9
210.223	-51.54
210.442	-4.44
210.661	65.19
210.879	57
211.098	22.19
211.316	50.86
211.535	30.38
211.753	22.19
211.972	9.9
212.191	65.19
212.409	100.01
212.628	-4.44
212.846	-4.44
213.065	52.91
213.283	54.95
213.502	87.72
213.72	112.3
213.938	7.85
214.157	28.33
214.375	7.85
214.594	-45.4
214.812	-45.4
215.031	57
215.249	26.28
215.467	46.76
215.686	16.04
215.904	9.9
216.122	38.57
216.341	104.11
216.559	79.53
216.778	-8.53
216.996	36.52
217.214	71.34
217.432	32.43
217.651	59.05
217.869	38.57
218.087	57
218.306	-16.73
218.524	26.28
218.742	5.8
218.96	89.77
219.179	26.28
219.397	40.62
219.615	22.19
219.833	5.8
220.051	-24.92
220.27	61.1
220.488	42.67
220.706	5.8
220.924	24.23
221.142	-33.11
221.36	24.23
221.578	61.1
221.796	-31.06
222.015	32.43
222.233	13.99
222.451	81.58
222.669	36.52
222.887	7.85
223.105	9.9
223.323	36.52
223.541	16.04
223.759	-2.39
223.977	-10.58
224.195	20.14
224.413	-43.35
224.631	54.95
224.849	48.81
225.067	-0.34
225.285	3.75
225.503	-10.58
225.721	-26.96
225.939	52.91
226.157	-51.54
226.375	42.67
226.592	42.67
226.81	-35.16
227.028	54.95
227.246	48.81
227.464	30.38
227.682	34.47
227.9	26.28
228.117	5.8
228.335	-47.44
228.553	-67.92
228.771	18.09
228.989	52.91
229.206	79.53
229.424	59.05
229.642	24.23
229.86	7.85
230.077	-10.58
230.295	-39.25
230.513	65.19
230.731	-26.96
230.948	-6.49
231.166	61.1
231.384	16.04
231.601	16.04
231.819	54.95
232.037	71.34
232.254	-8.53
232.472	59.05
232.689	1.71
232.907	1.71
233.125	46.76
233.342	91.82
233.56	22.19
233.777	63.15
233.995	-55.64
234.213	97.96
234.43	22.19
234.648	40.62
234.865	28.33
235.083	67.24
235.3	50.86
235.518	-22.87
235.735	24.23
235.953	91.82
236.17	13.99
236.388	-4.44
236.605	67.24
236.822	28.33
237.04	30.38
237.257	7.85
237.475	9.9
237.692	54.95
237.909	83.63
238.127	-12.63
238.344	16.04
238.562	30.38
238.779	-33.11
238.996	106.15
239.214	-18.77
239.431	1.71
239.648	-57.68
239.865	57
240.083	7.85
240.3	102.06
240.517	16.04
240.735	13.99
240.952	65.19
241.169	-8.53
241.386	-53.59
241.603	26.28
241.821	57
242.038	9.9
242.255	3.75
242.472	73.39
242.689	16.04
242.907	20.14
243.124	13.99
243.341	5.8
243.558	-6.49
243.775	46.76
243.992	-37.2
244.209	36.52
244.426	24.23
244.643	-2.39
244.86	61.1
245.078	26.28
245.295	-6.49
245.512	42.67
245.729	-10.58
245.946	20.14
246.163	1.71
246.38	69.29
246.597	30.38
246.814	11.95
247.031	-2.39
247.248	65.19
247.464	42.67
247.681	-10.58
247.898	89.77
248.115	16.04
248.332	9.9
248.549	54.95
248.766	59.05
248.983	-4.44
249.2	9.9
249.417	-4.44
249.633	-33.11
249.85	102.06
250.067	69.29
250.284	-2.39
250.501	20.14
250.717	13.99
250.934	-16.73
251.151	-16.73
251.368	36.52
251.585	40.62
251.801	22.19
252.018	52.91
252.235	34.47
252.451	13.99
252.668	61.1
252.885	7.85
253.102	7.85
253.318	-18.77
253.535	-2.39
253.752	5.8
253.968	18.09
254.185	5.8
254.401	-20.82
254.618	34.47
254.835	30.38
255.051	5.8
255.268	91.82
255.484	46.76
255.701	-12.63
255.917	34.47
256.134	-0.34
256.351	-8.53
256.567	36.52
256.784	-14.68
257	44.71
257.217	-31.06
257.433	5.8
257.65	87.72
257.866	13.99
258.082	42.67
258.299	42.67
258.515	5.8
258.732	93.87
258.948	52.91
259.165	91.82
259.381	63.15
259.597	24.23
259.814	-18.77
260.03	54.95
260.246	112.3
260.463	81.58
260.679	50.86
260.895	71.34
261.112	83.63
261.328	-0.34
261.544	79.53
261.761	-10.58
261.977	30.38
262.193	54.95
262.409	59.05
262.626	110.25
262.842	-10.58
263.058	22.19
263.274	-0.34
263.49	46.76
263.707	26.28
263.923	24.23
264.139	38.57
264.355	24.23
264.571	122.54
264.787	38.57
265.004	59.05
265.22	-6.49
265.436	13.99
265.652	13.99
265.868	54.95
266.084	-39.25
266.3	20.14
266.516	36.52
266.732	81.58
266.948	5.8
267.164	67.24
267.38	-12.63
267.596	61.1
267.812	69.29
268.028	89.77
268.244	22.19
268.46	-2.39
268.676	-55.64
268.892	18.09
269.108	-43.35
269.324	48.81
269.54	38.57
269.756	73.39
269.972	38.57
270.188	61.1
270.403	-49.49
270.619	71.34
270.835	75.43
271.051	1.71
271.267	30.38
271.483	18.09
271.698	18.09
271.914	67.24
272.13	-10.58
272.346	-2.39
272.562	63.15
272.777	20.14
272.993	38.57
273.209	-2.39
273.425	65.19
273.64	50.86
273.856	-4.44
274.072	48.81
274.287	50.86
274.503	9.9
274.719	34.47
274.934	89.77
275.15	1.71
275.366	-22.87
275.581	30.38
275.797	30.38
276.012	28.33
276.228	9.9
276.444	106.15
276.659	-14.68
276.875	-39.25
277.09	-16.73
277.306	59.05
277.521	24.23
277.737	52.91
277.952	-22.87
278.168	91.82
278.383	-10.58
278.599	18.09
278.814	24.23
279.03	-18.77
279.245	71.34
279.461	63.15
279.676	95.91
279.892	-0.34
280.107	36.52
280.322	7.85
280.538	34.47
280.753	81.58
280.969	46.76
281.184	13.99
281.399	48.81
281.615	26.28
281.83	73.39
282.045	-4.44
282.26	22.19
282.476	79.53
282.691	13.99
282.906	18.09
283.122	65.19
283.337	34.47
283.552	67.24
283.767	9.9
283.983	73.39
284.198	81.58
284.413	44.71
284.628	30.38
284.843	7.85
285.058	132.78
285.274	50.86
285.489	11.95
285.704	102.06
285.919	85.67
286.134	-8.53
286.349	-31.06
286.564	106.15
286.779	102.06
286.995	50.86
287.21	73.39
287.425	34.47
287.64	18.09
287.855	75.43
288.07	-10.58
288.285	79.53
288.5	77.48
288.715	57
288.93	16.04
289.145	83.63
289.36	9.9
289.575	59.05
289.79	24.23
290.004	-8.53
290.219	18.09
290.434	7.85
290.649	32.43
290.864	-4.44
291.079	-31.06
291.294	20.14
291.509	-2.39
291.724	42.67
291.938	52.91
292.153	79.53
292.368	34.47
292.583	16.04
292.798	61.1
293.012	40.62
293.227	11.95
293.442	20.14
293.657	-29.01
293.871	46.76
294.086	-29.01
294.301	59.05
294.516	69.29
294.73	-18.77
294.945	-8.53
295.16	42.67
295.374	-41.3
295.589	42.67
295.804	-0.34
296.018	5.8
296.233	34.47
296.447	40.62
296.662	59.05
296.877	22.19
297.091	50.86
297.306	54.95
297.52	46.76
297.735	73.39
297.949	30.38
298.164	-10.58
298.378	-10.58
298.593	-35.16
298.807	13.99
299.022	106.15
299.236	104.11
299.451	63.15
299.665	75.43
299.88	57
300.094	-35.16
300.309	50.86
300.523	16.04
300.737	22.19
300.952	11.95
301.166	-12.63
301.381	22.19
301.595	52.91
301.809	59.05
302.024	24.23
302.238	32.43
302.452	-24.92
302.667	18.09
302.881	34.47
303.095	1.71
303.309	22.19
303.524	30.38
303.738	18.09
303.952	-2.39
304.166	87.72
304.381	24.23
304.595	79.53
304.809	9.9
305.023	59.05
305.237	38.57
305.452	3.75
305.666	44.71
305.88	75.43
306.094	57
306.308	7.85
306.522	52.91
306.736	79.53
306.95	13.99
307.164	40.62
307.379	18.09
307.593	79.53
307.807	34.47
308.021	20.14
308.235	79.53
308.449	54.95
308.663	-67.92
308.877	79.53
309.091	16.04
309.305	30.38
309.519	-24.92
309.733	38.57
309.947	3.75
310.161	22.19
310.374	54.95
310.588	165.54
310.802	-18.77
311.016	16.04
311.23	38.57
311.444	-33.11
311.658	83.63
311.872	110.25
312.085	163.5
312.299	22.19
312.513	16.04
312.727	104.11
312.941	30.38
313.154	1.71
313.368	-0.34
313.582	-10.58
313.796	30.38
314.009	-0.34
314.223	52.91
314.437	79.53
314.651	34.47
314.864	-6.49
315.078	44.71
315.292	46.76
315.505	63.15
315.719	59.05
315.933	-29.01
316.146	77.48
316.36	-53.59
316.573	24.23
316.787	22.19
317.001	91.82
317.214	57
317.428	24.23
317.641	34.47
317.855	40.62
318.068	46.76
318.282	112.3
318.495	116.39
318.709	54.95
318.922	-2.39
319.136	59.05
319.349	-0.34
319.563	48.81
319.776	40.62
319.99	5.8
320.203	67.24
320.417	30.38
320.63	54.95
320.843	40.62
321.057	-0.34
321.27	44.71
321.483	57
321.697	38.57
321.91	24.23
322.124	18.09
322.337	67.24
322.55	5.8
322.763	24.23
322.977	50.86
323.19	73.39
323.403	61.1
323.617	42.67
323.83	32.43
324.043	34.47
324.256	81.58
324.469	46.76
324.683	40.62
324.896	-10.58
325.109	69.29
325.322	36.52
325.535	38.57
325.748	11.95
325.962	-10.58
326.175	42.67
326.388	30.38
326.601	-0.34
326.814	44.71
327.027	-29.01
327.24	114.34
327.453	-26.96
327.666	54.95
327.879	9.9
328.092	-2.39
328.305	22.19
328.518	-10.58
328.731	46.76
328.944	-10.58
329.157	-41.3
329.37	20.14
329.583	57
329.796	118.44
330.009	3.75
330.222	79.53
330.435	40.62
330.648	89.77
330.861	32.43
331.073	32.43
331.286	26.28
331.499	40.62
331.712	46.76
331.925	-8.53
332.138	1.71
332.35	130.73
332.563	28.33
332.776	91.82
332.989	36.52
333.202	57
333.414	-6.49
333.627	87.72
333.84	7.85
334.053	91.82
334.265	50.86
334.478	71.34
334.691	-22.87
334.903	75.43
335.116	20.14
335.329	-2.39
335.541	77.48
335.754	50.86
335.966	11.95
336.179	-16.73
336.392	36.52
336.604	59.05
336.817	57
337.029	73.39
337.242	61.1
337.454	13.99
337.667	75.43
337.88	89.77
338.092	28.33
338.305	71.34
338.517	-18.77
338.729	40.62
338.942	93.87
339.154	5.8
339.367	22.19
339.579	50.86
339.792	91.82
340.004	75.43
340.217	13.99
340.429	71.34
340.641	52.91
340.854	32.43
341.066	50.86
341.278	32.43
341.491	44.71
341.703	130.73
341.915	46.76
342.128	52.91
342.34	22.19
342.552	18.09
342.764	-2.39
342.977	75.43
343.189	46.76
343.401	30.38
343.613	54.95
343.826	-12.63
344.038	32.43
344.25	38.57
344.462	63.15
344.674	-35.16
344.886	-24.92
345.099	50.86
345.311	63.15
345.523	9.9
345.735	-12.63
345.947	52.91
346.159	7.85
346.371	132.78
346.583	32.43
346.795	52.91
347.007	-10.58
347.219	95.91
347.431	30.38
347.643	67.24
347.855	-37.2
348.067	97.96
348.279	-31.06
348.491	57
348.703	54.95
348.915	30.38
349.127	-35.16
349.339	36.52
349.551	-47.44
349.763	89.77
349.975	46.76
350.187	97.96
350.399	30.38
350.61	18.09
350.822	40.62
351.034	-4.44
351.246	104.11
351.458	54.95
351.669	34.47
351.881	13.99
352.093	36.52
352.305	71.34
352.517	13.99
352.728	32.43
352.94	69.29
353.152	67.24
353.363	75.43
353.575	32.43
353.787	65.19
353.999	40.62
354.21	16.04
354.422	18.09
354.633	104.11
354.845	71.34
355.057	-6.49
355.268	38.57
355.48	24.23
355.692	71.34
355.903	46.76
356.115	65.19
356.326	1.71
356.538	116.39
356.749	-14.68
356.961	69.29
357.172	5.8
357.384	16.04
357.595	42.67
357.807	69.29
358.018	-33.11
358.23	44.71
358.441	57
358.653	102.06
358.864	83.63
359.075	16.04
359.287	16.04
359.498	110.25
359.709	77.48
359.921	44.71
360.132	63.15
360.344	147.11
360.555	71.34
360.766	26.28
360.977	1.71
361.189	38.57
361.4	16.04
361.611	65.19
361.823	28.33
362.034	-8.53
362.245	9.9
362.456	32.43
362.667	-33.11
362.879	71.34
363.09	1.71
363.301	46.76
363.512	65.19
363.723	57
363.935	52.91
364.146	54.95
364.357	5.8
364.568	-0.34
364.779	91.82
364.99	7.85
365.201	59.05
365.412	75.43
365.623	13.99
365.834	28.33
366.045	46.76
366.256	54.95
366.467	63.15
366.678	75.43
366.889	44.71
367.1	18.09
367.311	100.01
367.522	44.71
367.733	-6.49
367.944	16.04
368.155	3.75
368.366	38.57
368.577	79.53
368.788	36.52
368.999	61.1
369.209	52.91
369.42	97.96
369.631	71.34
369.842	85.67
370.053	75.43
370.264	36.52
370.474	77.48
370.685	9.9
370.896	57
371.107	38.57
371.317	95.91
371.528	89.77
371.739	30.38
371.95	59.05
372.16	48.81
372.371	-14.68
372.582	30.38
372.792	54.95
373.003	36.52
373.214	89.77
373.424	20.14
373.635	79.53
373.846	46.76
374.056	20.14
374.267	32.43
374.477	34.47
374.688	65.19
374.898	73.39
375.109	83.63
375.319	95.91
375.53	28.33
375.74	112.3
375.951	48.81
376.161	3.75
376.372	75.43
376.582	24.23
376.793	24.23
377.003	24.23
377.214	-0.34
377.424	22.19
377.635	13.99
377.845	11.95
378.055	7.85
378.266	32.43
378.476	87.72
378.686	102.06
378.897	44.71
379.107	-16.73
379.317	63.15
379.528	54.95
379.738	57
379.948	26.28
380.158	79.53
380.369	26.28
380.579	73.39
380.789	20.14
380.999	38.57
381.21	50.86
381.42	48.81
381.63	59.05
381.84	83.63
382.05	120.49
382.261	65.19
382.471	57
382.681	-8.53
382.891	40.62
383.101	54.95
383.311	87.72
383.521	79.53
383.731	57
383.941	26.28
384.151	93.87
384.361	5.8
384.571	79.53
384.781	85.67
384.991	28.33
385.201	157.35
385.411	22.19
385.621	13.99
385.831	20.14
386.041	145.06
386.251	104.11
386.461	26.28
386.671	73.39
386.881	114.34
387.091	83.63
387.301	22.19
387.511	46.76
387.72	44.71
387.93	20.14
388.14	79.53
388.35	54.95
388.56	73.39
388.769	102.06
388.979	46.76
389.189	24.23
389.399	-4.44
389.609	67.24
389.818	91.82
390.028	36.52
390.238	100.01
390.447	5.8
390.657	61.1
390.867	81.58
391.076	13.99
391.286	83.63
391.496	20.14
391.705	52.91
391.915	50.86
392.125	104.11
392.334	34.47
392.544	26.28
392.753	97.96
392.963	44.71
393.172	30.38
393.382	155.3
393.591	116.39
393.801	95.91
394.01	52.91
394.22	118.44
394.429	85.67
394.639	91.82
394.848	157.35
395.058	36.52
395.267	79.53
395.477	48.81
395.686	95.91
395.895	91.82
396.105	159.4
396.314	38.57
396.524	95.91
396.733	120.49
396.942	89.77
397.152	71.34
397.361	54.95
397.57	22.19
397.78	100.01
397.989	132.78
398.198	87.72
398.407	48.81
398.617	128.68
398.826	112.3
399.035	52.91
399.244	151.21
399.453	95.91
399.663	108.2
399.872	38.57
400.081	54.95
400.29	153.26
400.499	91.82
400.708	81.58
400.917	89.77
401.127	67.24
401.336	52.91
401.545	124.58
401.754	145.06
401.963	100.01
402.172	124.58
402.381	73.39
402.59	91.82
402.799	63.15
403.008	106.15
403.217	124.58
403.426	36.52
403.635	114.34
403.844	1.71
404.053	196.26
404.262	91.82
404.471	194.22
404.68	130.73
404.888	95.91
405.097	91.82
405.306	104.11
405.515	235.18
405.724	171.69
405.933	122.54
406.142	147.11
406.35	181.93
406.559	155.3
406.768	77.48
406.977	165.54
407.185	134.82
407.394	161.45
407.603	120.49
407.812	192.17
408.02	165.54
408.229	222.89
408.438	220.84
408.646	263.85
408.855	206.5
409.064	269.99
409.272	253.61
409.481	216.74
409.69	229.03
409.898	300.71
410.107	267.94
410.315	237.22
410.524	249.51
410.733	325.29
410.941	313
411.15	337.57
411.358	308.9
411.567	362.15
411.775	439.97
411.984	313
412.192	439.97
412.401	339.62
412.609	415.4
412.818	433.83
413.026	401.06
413.234	417.44
413.443	503.46
413.651	601.76
413.86	489.12
414.068	493.22
414.276	489.12
414.485	505.51
414.693	515.75
414.901	540.32
415.11	560.8
415.318	665.25
415.526	698.02
415.734	710.3
415.943	702.11
416.151	636.58
416.359	728.74
416.567	792.22
416.776	792.22
416.984	808.61
417.192	820.89
417.4	849.57
417.608	900.76
417.817	775.84
418.025	923.29
418.233	1013.4
418.441	976.54
418.649	1048.22
418.857	1037.98
419.065	1070.75
419.273	1046.17
419.481	1220.25
419.689	1210.01
419.897	1271.45
420.105	1246.87
420.313	1302.17
420.521	1367.7
420.729	1484.44
420.937	1392.28
421.145	1490.58
421.353	1451.67
421.561	1625.75
421.769	1615.51
421.977	1678.99
422.185	1621.65
422.393	1842.83
422.601	1914.51
422.809	1992.33
423.017	2033.29
423.224	2016.91
423.432	2059.92
423.64	2102.92
423.848	2264.71
424.056	2168.46
424.263	2367.11
424.471	2418.31
424.679	2350.73
424.887	2664.07
425.094	2485.89
425.302	2639.49
425.51	2791.04
425.718	2786.94
425.925	2852.48
426.133	2946.69
426.341	3122.81
426.548	3290.74
426.756	3311.22
426.964	3262.07
427.171	3483.25
427.379	3462.77
427.586	3708.53
427.794	3698.29
428.001	3868.27
428.209	4154.99
428.417	3985.01
428.624	4374.12
428.832	4406.89
429.039	4322.92
429.247	4308.58
429.454	4658.79
429.662	4990.56
429.869	4759.14
430.076	4922.98
430.284	4814.43
430.491	5074.53
430.699	5480.02
430.906	5387.86
431.114	5426.78
431.321	5621.33
431.528	5750.35
431.736	5983.82
431.943	6352.46
432.15	6198.86
432.358	6346.31
432.565	6772.29
432.772	6481.48
432.979	6977.09
433.187	7085.63
433.394	6987.33
433.601	7642.68
433.808	7708.21
434.016	7470.65
434.223	7853.62
434.43	8302.12
434.637	8058.42
434.844	8621.61
435.052	8773.16
435.259	8762.92
435.466	8971.81
435.673	8828.45
435.88	9217.57
436.087	9578.01
436.294	10028.56
436.501	9356.83
436.708	9897.49
436.915	10053.14
437.122	10470.92
437.329	10534.41
437.537	10876.42
437.743	10941.96
437.95	10901
438.157	11525.63
438.364	11904.5
438.571	11992.56
438.778	12015.09
438.985	12969.44
439.192	12492.27
439.399	12899.81
439.606	12582.38
439.813	13499.87
440.02	14202.32
440.227	13899.22
440.433	13659.61
440.64	14206.42
440.847	14104.02
441.054	14425.55
441.261	15515.07
441.467	15158.72
441.674	15740.35
441.881	15992.25
442.088	15910.33
442.294	16184.76
442.501	16043.45
442.708	16631.21
442.914	17456.54
443.121	18070.93
443.328	17517.98
443.534	18695.57
443.741	18406.8
443.948	17915.29
444.154	19545.47
444.361	19346.82
444.568	19225.99
444.774	19531.14
444.981	19854.72
445.187	20176.25
445.394	20897.13
445.6	20569.46
445.807	22795.6
446.013	21759.33
446.22	22164.82
446.426	22887.76
446.633	23545.16
446.839	24198.46
447.046	23147.85
447.252	24046.91
447.459	24096.06
447.665	24286.52
447.871	25378.09
448.078	26334.49
448.284	25232.68
448.491	25410.85
448.697	26561.81
448.903	27411.72
449.11	27227.4
449.316	26682.64
449.522	27424.01
449.728	28105.98
449.935	28245.24
450.141	28474.62
450.347	28841.2
450.553	27929.86
450.76	28454.14
450.966	29263.08
451.172	28775.67
451.378	29727.97
451.584	28906.74
451.791	29826.28
451.997	29607.14
452.203	29797.6
452.409	30526.68
452.615	30080.22
452.821	29205.74
453.027	28703.99
453.233	30045.41
453.44	29082.86
453.646	29154.54
453.852	29326.57
454.058	29846.76
454.264	28785.91
454.47	29463.79
454.676	28640.5
454.882	29807.84
455.088	27280.65
455.294	27622.66
455.5	27493.64
455.705	28411.13
455.911	27333.9
456.117	26502.42
456.323	26219.8
456.529	24677.68
456.735	25902.37
456.941	25306.41
457.147	24714.55
457.352	23829.82
457.558	23899.45
457.764	23799.1
457.97	23506.24
458.176	22889.81
458.381	23057.74
458.587	21890.4
458.793	21914.97
458.999	20733.29
459.204	22392.15
459.41	21435.75
459.616	20053.37
459.821	20303.22
460.027	20161.91
460.233	19795.32
460.438	18865.55
460.644	19168.65
460.85	18128.28
461.055	18144.66
461.261	17859.99
461.466	16821.67
461.672	15840.7
461.878	17221.03
462.083	16016.82
462.289	15785.4
462.494	15578.56
462.7	14708.17
462.905	14652.88
463.111	14980.55
463.316	15156.68
463.522	14718.41
463.727	15070.66
463.932	14839.24
464.138	14605.77
464.343	14650.83
464.549	14319.06
464.754	14794.18
464.959	14661.07
465.165	14751.18
465.37	14081.49
465.575	13751.77
465.781	14222.8
465.986	14286.29
466.191	13702.62
466.397	13295.07
466.602	12934.63
466.807	13465.05
467.012	13356.51
467.218	13196.77
467.423	13084.13
467.628	12836.33
467.833	13675.99
468.038	13184.48
468.244	12713.45
468.449	13276.64
468.654	12826.09
468.859	12899.81
469.064	12844.52
469.269	12015.09
469.474	12484.08
469.679	12539.37
469.885	12185.07
470.09	12428.78
470.295	12183.02
470.5	12029.43
470.705	12193.26
470.91	11994.61
471.115	11728.38
471.32	11898.36
471.525	12017.14
471.73	11613.69
471.935	11480.57
472.139	11101.7
472.344	11363.84
472.549	11050.5
472.754	11056.64
472.959	10786.31
473.164	10720.78
473.369	10608.14
473.574	11011.59
473.778	10755.59
473.983	10585.61
474.188	10612.23
474.393	10307.09
474.598	10073.62
474.802	10008.08
475.007	9944.59
475.212	9975.31
475.417	9590.3
475.621	9580.06
475.826	9879.06
476.031	9393.69
476.235	9461.27
476.44	9532.95
476.645	9223.71
476.849	9319.96
477.054	9221.66
477.259	9059.87
477.463	9092.64
477.668	8906.27
477.872	9055.78
478.077	8738.34
478.282	8549.93
478.486	8549.93
478.691	8441.39
478.895	8439.34
479.1	8306.22
479.304	8527.4
479.509	8134.19
479.713	8314.41
479.918	8111.66
480.122	8074.8
480.326	8158.77
480.531	8074.8
480.735	7984.69
480.94	7970.35
481.144	8306.22
481.348	7837.24
481.553	7812.66
481.757	7605.81
481.961	7935.54
482.166	8031.79
482.37	7800.37
482.574	7890.48
482.778	7900.72
482.983	8033.84
483.187	7919.15
483.391	7910.96
483.595	7773.75
483.8	7702.07
484.004	7927.35
484.208	7870
484.412	7894.58
484.616	7783.99
484.821	8035.89
485.025	7783.99
485.229	7978.54
485.433	7788.08
485.637	7976.5
485.841	7898.67
486.045	7706.17
486.249	7652.92
486.453	7786.04
486.657	7802.42
486.861	7861.81
487.065	7583.29
487.269	7939.63
487.473	7667.25
487.677	8064.56
487.881	7872.05
488.085	7786.04
488.289	7982.64
488.493	7732.79
488.697	7964.21
488.901	7837.24
489.105	7933.49
489.309	8046.13
489.512	8070.7
489.716	8074.8
489.92	8044.08
490.124	7798.32
490.328	8152.62
490.531	8105.52
490.735	8148.53
490.939	8148.53
491.143	8074.8
491.346	8181.29
491.55	8113.71
491.754	8158.77
491.958	8341.04
492.161	8152.62
492.365	8480.3
492.569	8314.41
492.772	8451.63
492.976	8465.96
493.18	8519.21
493.383	8711.72
493.587	8511.02
493.79	8738.34
493.994	8582.7
494.197	8771.11
494.401	8879.65
494.605	8857.12
494.808	9025.06
495.012	8945.19
495.215	9070.11
495.419	9258.53
495.622	9149.98
495.825	9143.84
496.029	9166.37
496.232	9567.77
496.436	9557.53
496.639	9834
496.843	9780.76
497.046	9942.55
497.249	10016.27
497.453	9917.97
497.656	10180.11
497.859	10157.58
498.063	10534.41
498.266	10554.89
498.469	10458.64
498.673	10704.39
498.876	10935.81
499.079	10972.68
499.282	11005.44
499.485	11337.21
499.689	11255.29
499.892	11406.84
500.095	11529.72
500.298	11699.7
500.501	11611.64
500.705	12150.26
500.908	12340.72
501.111	12572.14
501.314	12383.73
501.517	12711.4
501.72	12750.31
501.923	12547.56
502.126	13137.38
502.329	13262.3
502.532	13440.48
502.735	13608.41
502.938	13837.78
503.141	13845.98
503.344	14210.51
503.547	14140.88
503.75	14382.54
503.953	14960.07
504.156	14800.33
504.359	14925.25
504.562	15232.45
504.765	15531.45
504.968	15533.5
505.17	15627.71
505.373	15683
505.576	16106.93
505.779	16526.77
505.982	16479.66
506.185	16635.31
506.387	16823.72
506.59	17114.53
506.793	17407.39
506.996	17266.08
507.198	17927.58
507.401	17825.18
507.604	18214.29
507.807	18324.88
508.009	18666.89
508.212	18871.69
508.415	19023.24
508.617	19279.24
508.82	19594.62
509.022	19559.81
509.225	19946.87
509.428	20358.52
509.63	20469.11
509.833	20624.75
510.035	21157.22
510.238	21149.03
510.44	21327.21
510.643	21919.07
510.845	22162.78
511.048	21960.03
511.25	22246.74
511.453	22732.11
511.655	23385.41
511.858	23182.66
512.06	23371.08
512.262	23766.34
512.465	23598.4
512.667	24302.9
512.87	24571.19
513.072	24724.79
513.274	25275.69
513.477	25349.42
513.679	25654.56
513.881	26041.63
514.084	26488.09
514.286	26359.06
514.488	26819.86
514.69	27510.02
514.893	27628.81
515.095	27622.66
515.297	28204.28
515.499	28460.28
515.701	28622.07
515.904	29388.01
516.106	29052.14
516.308	29652.2
516.51	29922.53
516.712	29836.52
516.914	30516.44
517.116	31085.78
517.318	31128.78
517.52	31515.85
517.722	31616.2
517.925	32212.16
518.127	32599.23
518.329	32703.67
518.531	32763.06
518.733	33305.77
518.935	33715.37
519.136	33555.63
519.338	34395.29
519.54	34679.96
519.742	35024.02
519.944	35028.12
520.146	35916.93
520.348	35894.41
520.55	36242.56
520.752	36465.79
520.954	37160.05
521.155	36893.82
521.357	37491.82
521.559	37700.72
521.761	38612.06
521.963	38331.49
522.164	38587.49
522.366	38653.02
522.568	39347.28
522.77	39814.22
522.971	39863.37
523.173	39781.45
523.375	40330.31
523.576	39939.15
523.778	40899.64
523.98	41157.69
524.181	41202.74
524.383	41266.23
524.584	41911.34
524.786	42337.32
524.988	41802.8
525.189	42230.82
525.391	42898.46
525.592	42951.71
525.794	43187.22
525.995	43168.79
526.197	43353.11
526.398	43187.22
526.6	43969.55
526.801	43811.85
527.003	44321.8
527.204	43979.79
527.406	44864.51
527.607	44762.11
527.808	45130.75
528.01	44442.63
528.211	44710.91
528.412	45816.82
528.614	45378.55
528.815	45501.43
529.016	45982.7
529.218	45331.45
529.419	46171.11
529.62	45609.97
529.822	45546.48
530.023	46238.7
530.224	46128.11
530.425	46353.38
530.626	45908.97
530.828	45753.33
531.029	46803.94
531.23	46672.87
531.431	46676.96
531.632	46857.18
531.833	46896.1
532.035	47217.63
532.236	47033.31
532.437	47115.23
532.638	46861.28
532.839	46967.77
533.04	47381.46
533.241	47074.27
533.442	47631.32
533.643	47234.01
533.844	47551.45
534.045	47762.39
534.246	47008.73
534.447	47496.15
534.648	47391.7
534.849	47614.93
535.05	47047.64
535.251	47440.85
535.451	47401.94
535.652	47631.32
535.853	47709.14
536.054	47746
536.255	47813.59
536.456	47326.17
536.657	48348.1
536.857	47694.8
537.058	47537.11
537.259	48128.97
537.46	47934.42
537.66	47315.93
537.861	48098.25
538.062	47551.45
538.263	48016.33
538.463	47203.29
538.664	47440.85
538.865	48200.65
539.065	48184.27
539.266	47481.81
539.466	48735.17
539.667	47504.34
539.868	47948.75
540.068	47348.7
540.269	47748.05
540.469	47664.08
540.67	47641.56
540.87	47705.04
541.071	47803.35
541.271	47895.5
541.472	47903.7
541.672	47320.02
541.873	47518.68
542.073	47264.73
542.274	47825.87
542.474	47743.95
542.675	47342.55
542.875	47836.11
543.075	47973.33
543.276	47555.54
543.476	48206.8
543.676	47807.44
543.877	47584.21
544.077	47866.83
544.277	47373.27
544.478	47344.6
544.678	47651.8
544.878	47729.62
545.078	47471.57
545.279	47199.19
545.479	47381.46
545.679	47784.91
545.879	47688.66
546.079	47461.33
546.28	47492.05
546.48	47342.55
546.68	47774.67
546.88	47561.68
547.08	47877.07
547.28	47565.78
547.48	47526.87
547.68	47838.16
547.88	47037.4
548.081	47444.95
548.281	47358.94
548.481	47121.37
548.681	48174.03
548.881	47524.82
549.081	47412.18
549.28	47377.37
549.48	47791.06
549.68	47518.68
549.88	48167.88
550.08	47543.25
550.28	47760.34
550.48	47696.85
550.68	47852.5
550.88	47498.2
551.08	47475.67
551.279	47342.55
551.479	47178.71
551.679	47631.32
551.879	47049.69
552.079	47582.16
552.278	47180.76
552.478	47522.77
552.678	47137.76
552.878	47524.82
553.077	47004.64
553.277	46795.74
553.477	47537.11
553.676	47049.69
553.876	47672.28
554.076	47354.84
554.275	47127.52
554.475	46461.93
554.674	47326.17
554.874	47240.15
555.074	46771.17
555.273	47207.39
555.473	47305.69
555.672	46603.24
555.872	46752.74
556.071	46797.79
556.271	47160.28
556.47	46805.98
556.67	46490.6
556.869	46285.8
557.068	46881.76
557.268	45853.68
557.467	46441.45
557.667	46781.41
557.866	46533.6
558.065	46523.36
558.265	46556.13
558.464	45771.76
558.663	46582.76
558.863	45849.58
559.062	46758.88
559.261	46019.56
559.461	46433.25
559.66	45892.59
559.859	46052.33
560.058	45738.99
560.258	45947.89
560.457	45831.15
560.656	45931.5
560.855	45575.16
561.054	45757.42
561.253	45167.61
561.453	45476.85
561.652	45493.24
561.851	45927.41
562.05	45233.14
562.249	45423.61
562.448	45726.7
562.647	45343.73
562.846	45005.82
563.045	45132.79
563.244	44710.91
563.443	45341.69
563.642	44739.58
563.841	44778.5
564.04	44821.5
564.239	44948.48
564.438	44577.79
564.637	44700.67
564.836	44590.08
565.035	44182.54
565.234	44911.61
565.432	44094.47
565.631	44196.87
565.83	44682.24
566.029	44002.32
566.228	44272.65
566.427	44053.51
566.625	43861.01
566.824	43580.43
567.023	43809.81
567.222	43308.05
567.42	44067.85
567.619	43670.54
567.818	43369.49
568.016	43422.74
568.215	43797.52
568.414	43414.55
568.612	43756.56
568.811	43449.36
569.01	43320.34
569.208	42816.54
569.407	42794.01
569.605	42388.52
569.804	43109.4
570.002	42423.33
570.201	42556.45
570.4	42239.01
570.598	42318.88
570.797	42155.05
570.995	42355.75
571.193	41800.75
571.392	42402.85
571.59	41794.6
571.789	42306.6
571.987	41907.24
572.186	41929.77
572.384	41647.15
572.582	41475.12
572.781	41722.93
572.979	41143.35
573.177	41327.67
573.376	41284.66
573.574	40909.88
573.772	41079.86
573.971	40838.2
574.169	40694.85
574.367	40275.01
574.565	40502.34
574.763	40297.54
574.962	40100.93
575.16	39967.82
575.358	40279.11
575.556	39621.71
575.754	40019.02
575.952	39457.87
576.151	40094.79
576.349	39378
576.547	39554.13
576.745	39210.07
576.943	39277.65
577.141	39306.32
577.339	39187.54
577.537	38872.15
577.735	38771.8
577.933	38450.27
578.131	38982.74
578.329	38464.61
578.527	38519.9
578.725	38503.52
578.923	38302.82
579.121	38251.62
579.319	38323.3
579.516	38114.41
579.714	37717.1
579.912	37833.83
580.11	37708.91
580.308	37821.55
580.506	37645.42
580.704	36750.46
580.901	37192.82
581.099	37409.9
581.297	37235.83
581.495	37069.94
581.692	37227.63
581.89	36715.64
582.088	36764.79
582.285	36369.54
582.483	36574.33
582.681	36721.79
582.878	36377.73
583.076	35705.99
583.274	36693.11
583.471	35968.13
583.669	36007.05
583.866	35955.85
584.064	36236.42
584.262	35493.01
584.459	35560.59
584.657	35363.98
584.854	35712.14
585.052	34927.77
585.249	35132.56
585.447	35226.77
585.644	35245.2
585.841	34796.7
586.039	35259.54
586.236	34872.47
586.434	34735.26
586.631	34145.44
586.828	34862.23
587.026	34528.41
587.223	34264.22
587.42	34188.45
587.618	34393.25
587.815	33926.31
588.012	33997.99
588.21	33787.05
588.407	34190.5
588.604	33842.34
588.801	33342.64
588.999	33574.06
589.196	33438.89
589.393	33199.28
589.59	33262.77
589.787	33311.92
589.984	32914.61
590.182	32672.95
590.379	33113.27
590.576	32431.29
590.773	32838.84
590.97	32441.53
591.167	32818.36
591.364	31868.1
591.561	32232.64
591.758	32111.81
591.955	31956.16
592.152	32216.26
592.349	31732.93
592.546	31567.05
592.743	31827.14
592.94	31341.77
593.137	31696.07
593.334	31761.61
593.531	31218.89
593.727	31526.09
593.924	31417.55
594.121	31163.6
594.318	31448.27
594.515	30690.52
594.712	31075.54
594.908	30889.17
595.105	30862.55
595.302	30291.16
595.499	30561.5
595.696	30346.46
595.892	30143.71
596.089	30672.09
596.286	30330.08
596.482	30160.09
596.679	30026.98
596.876	29957.35
597.072	29637.86
597.269	29768.93
597.466	29353.19
597.662	29682.92
597.859	29572.33
598.055	29627.62
598.252	29390.06
598.448	29015.28
598.645	28867.83
598.841	28851.44
599.038	29353.19
599.234	29312.24
599.431	28544.25
599.627	28720.37
599.824	28990.7
600.02	28986.61
600.217	28652.79
600.413	28196.09
600.609	28321.02
600.806	28216.57
601.002	28052.73
601.198	27954.43
601.395	27864.32
601.591	27915.52
601.787	27751.68
601.984	27593.99
602.18	27886.85
602.376	27561.22
602.572	27456.78
602.769	27387.14
602.965	27100.43
603.161	27585.8
603.357	27168.01
603.553	26754.32
603.75	26983.69
603.946	26887.44
604.142	27094.29
604.338	26434.84
604.534	26682.64
604.73	26539.29
604.926	26647.83
605.122	26580.25
605.318	26266.91
605.514	25826.59
605.71	25957.66
605.906	26158.36
606.102	26105.12
606.298	25998.62
606.494	25484.58
606.69	25756.96
606.886	25863.46
607.082	25300.26
607.278	25597.22
607.474	25068.84
607.67	25404.71
607.866	25079.08
608.062	25351.46
608.257	25189.67
608.453	24851.76
608.649	24929.58
608.845	24802.61
609.041	24964.4
609.236	24816.94
609.432	24536.37
609.628	24831.28
609.824	24419.64
610.019	24360.25
610.215	24466.74
610.411	24519.99
610.606	24128.83
610.802	24212.79
610.998	24053.05
611.193	23893.31
611.389	23919.93
611.584	23696.71
611.78	23774.53
611.976	23893.31
612.171	23766.34
612.367	23594.31
612.562	23401.8
612.758	23219.53
612.953	23330.12
613.149	23647.55
613.344	22900.05
613.539	23467.33
613.735	23182.66
613.93	23559.49
614.126	23082.31
614.321	23383.37
614.517	23076.17
614.712	22725.97
614.907	22865.23
615.103	22961.48
615.298	22443.35
615.493	22914.38
615.688	22445.4
615.884	22654.29
616.079	22359.38
616.274	22521.17
616.47	22592.85
616.665	22426.96
616.86	22248.79
617.055	22156.63
617.25	22152.54
617.445	22478.16
617.641	21874.01
617.836	21847.39
618.031	21609.82
618.226	21974.36
618.421	21552.48
618.616	21599.59
618.811	21249.38
619.006	21820.77
619.201	21118.31
619.396	21405.03
619.591	20948.33
619.786	21263.72
619.981	20714.86
620.176	21140.84
620.371	20809.07
620.566	20671.86
620.761	20460.91
620.956	20739.44
621.151	20198.77
621.346	20688.24
621.541	20118.9
621.735	20075.9
621.93	19957.11
622.125	19744.13
622.32	19598.72
622.515	19801.47
622.709	19441.03
622.904	19381.63
623.099	19471.75
623.294	19524.99
623.488	19307.91
623.683	19271.04
623.878	18761.1
624.072	19109.26
624.267	19203.46
624.462	18793.87
624.656	18460.05
624.851	18470.29
625.046	18257.3
625.24	18183.57
625.435	18179.48
625.629	17976.73
625.824	17962.39
626.018	17943.96
626.213	17661.34
626.407	17903
626.602	17401.25
626.796	17380.77
626.991	17769.88
627.185	17556.89
627.38	17218.98
627.574	17122.73
627.768	17190.31
627.963	16895.4
628.157	16752.04
628.352	17118.63
628.546	16514.48
628.74	16817.58
628.935	16307.63
629.129	16661.93
629.323	16281.01
629.517	16362.93
629.712	16065.97
629.906	16172.47
630.1	15916.47
630.294	16156.08
630.489	15986.1
630.683	15955.38
630.877	15467.97
631.071	15586.75
631.265	15695.29
631.459	15527.36
631.653	15222.21
631.848	15152.58
632.042	15214.02
632.236	15275.46
632.43	14941.64
632.624	15113.67
632.818	14902.73
633.012	14824.9
633.206	14865.86
633.4	15054.28
633.594	14470.61
633.788	14550.48
633.982	14675.4
634.176	14509.52
634.369	14515.66
634.563	14292.43
634.757	13979.09
634.951	14073.3
635.145	14214.61
635.339	14169.55
635.533	14048.72
635.726	14138.83
635.92	13559.26
636.114	13690.33
636.308	13856.22
636.501	13757.91
636.695	13573.6
636.889	13637.08
637.083	13241.82
637.276	13358.56
637.47	13374.94
637.664	13311.46
637.857	13354.46
638.051	13164
638.244	13131.23
638.438	12994.02
638.632	12701.16
638.825	12598.76
639.019	12664.3
639.212	12758.5
639.406	12623.34
639.599	12645.87
639.793	12752.36
639.986	12565.99
640.18	12289.52
640.373	12334.57
640.567	12084.72
640.76	11984.37
640.954	11967.99
641.147	11826.68
641.34	11863.54
641.534	11902.45
641.727	11740.66
641.92	11689.46
642.114	11736.57
642.307	11589.11
642.5	11417.08
642.694	11312.64
642.887	11341.31
643.08	11433.47
643.273	11240.96
643.467	11294.21
643.66	10944
643.853	10905.09
644.046	11134.46
644.239	10978.82
644.432	10814.98
644.626	10544.65
644.819	10872.32
645.012	10812.93
645.205	10728.97
645.398	10524.17
645.591	10573.32
645.784	10468.87
645.977	10266.13
646.17	10272.27
646.363	10272.27
646.556	10090
646.749	10139.15
646.942	10065.43
647.135	10106.38
647.328	10012.18
647.521	10133.01
647.714	9782.81
647.907	9797.14
648.099	9868.82
648.292	9631.26
648.485	9608.73
648.678	9598.49
648.871	9487.9
649.064	9502.23
649.256	9436.7
649.449	9371.16
649.642	9229.85
649.835	9389.6
650.027	9131.55
650.22	9029.15
650.413	9182.75
650.605	9066.02
650.798	8961.57
650.991	8814.12
651.183	8654.37
651.376	8805.92
651.568	8594.98
651.761	8537.64
651.954	8635.94
652.146	8549.93
652.339	8433.19
652.531	8377.9
652.724	8451.63
652.916	8400.43
653.109	8291.88
653.301	8130.09
653.494	8113.71
653.686	8068.66
653.879	7984.69
654.071	8134.19
654.263	7939.63
654.456	7872.05
654.648	7984.69
654.84	7824.95
655.033	7697.97
655.225	7740.98
655.417	7595.57
655.61	7673.4
655.802	7650.87
655.994	7513.66
656.186	7552.57
656.379	7505.46
656.571	7370.3
656.763	7192.12
656.955	7165.5
657.148	7183.93
657.34	7116.35
657.532	7026.24
657.724	7181.89
657.916	7099.97
658.108	6878.79
658.3	6751.81
658.492	6923.84
658.684	6803.01
658.876	6665.8
659.068	6778.44
659.26	6706.76
659.452	6743.62
659.644	6444.62
659.836	6413.9
660.028	6538.82
660.22	6440.52
660.412	6389.32
660.604	6399.56
660.796	6280.78
660.988	6209.1
661.18	6309.45
661.372	6153.8
661.563	6305.35
661.755	6129.23
661.947	6018.64
662.139	5936.72
662.331	6004.3
662.522	5938.77
662.714	5891.66
662.906	5846.61
663.097	5684.82
663.289	5797.46
663.481	5725.78
663.673	5609.05
663.864	5660.24
664.056	5459.54
664.247	5584.47
664.439	5332.57
664.631	5391.96
664.822	5400.15
665.014	5490.26
665.205	5492.31
665.397	5295.71
665.588	5277.27
665.78	5215.84
665.971	5314.14
666.163	5320.28
666.354	5178.97
666.546	5049.95
666.737	4896.35
666.929	5082.72
667.12	5064.29
667.311	4943.46
667.503	4918.88
667.694	4875.87
667.885	4841.06
668.077	4990.56
668.268	4822.63
668.459	4855.39
668.651	4879.97
668.842	4714.08
669.033	4738.66
669.224	4798.05
669.416	4570.72
669.607	4691.56
669.798	4619.88
669.989	4677.22
670.18	4611.68
670.371	4525.67
670.563	4437.61
670.754	4453.99
670.945	4456.04
671.136	4320.87
671.327	4497
671.518	4329.06
671.709	4453.99
671.9	4388.46
672.091	4478.57
672.282	4310.63
672.473	4245.1
672.664	4177.51
672.855	4261.48
673.046	4259.43
673.237	4157.04
673.428	4290.15
673.619	4245.1
673.809	4210.28
674	4214.38
674.191	4142.7
674.382	4005.49
674.573	4093.55
674.764	4013.68
674.954	4066.92
675.145	3939.95
675.336	4003.44
675.527	3989.1
675.717	3999.34
675.908	4025.97
676.099	3933.81
676.289	3894.9
676.48	3831.41
676.671	3892.85
676.861	3960.43
677.052	3866.22
677.243	3860.08
677.433	3774.07
677.624	3890.8
677.814	3817.07
678.005	3858.03
678.195	3868.27
678.386	3706.48
678.576	3774.07
678.767	3720.82
678.957	3817.07
679.148	3638.9
679.338	3634.8
679.529	3649.14
679.719	3804.78
679.909	3698.29
680.1	3675.76
680.29	3591.8
680.481	3688.05
680.671	3743.35
680.861	3610.23
681.052	3698.29
681.242	3679.86
681.432	3524.21
681.622	3602.04
681.813	3499.64
682.003	3538.55
682.193	3485.3
682.383	3403.38
682.573	3536.5
682.764	3477.11
682.954	3552.88
683.144	3511.93
683.334	3604.08
683.524	3524.21
683.714	3481.21
683.904	3456.63
684.094	3364.47
684.284	3470.97
684.474	3475.06
684.664	3513.97
684.854	3491.45
685.044	3411.57
685.234	3487.35
685.424	3466.87
685.614	3483.25
685.804	3423.86
685.994	3524.21
686.184	3489.4
686.374	3413.62
686.564	3303.03
686.753	3339.9
686.943	3241.59
687.133	3393.14
687.323	3421.81
687.513	3374.71
687.702	3354.23
687.892	3366.52
688.082	3544.69
688.272	3403.38
688.461	3438.2
688.651	3327.61
688.841	3329.66
689.03	3372.66
689.22	3243.64
689.41	3249.79
689.599	3356.28
689.789	3444.34
689.979	3350.14
690.168	3368.57
690.358	3331.7
690.547	3223.16
690.737	3243.64
690.926	3419.77
691.116	3225.21
691.305	3327.61
691.495	3247.74
691.684	3257.98
691.874	3335.8
692.063	3245.69
692.252	3245.69
692.442	3274.36
692.631	3276.41
692.82	3290.74
693.01	3176.06
693.199	3214.97
693.388	3276.41
693.578	3241.59
693.767	3249.79
693.956	3282.55
694.146	3280.5
694.335	3178.11
694.524	3241.59
694.713	3186.3
694.902	3165.82
695.092	3313.27
695.281	3194.49
695.47	3122.81
695.659	3225.21
695.848	3208.83
696.037	3247.74
696.226	3155.58
696.415	3292.79
696.604	3241.59
696.793	3180.15
696.982	3161.72
697.171	3137.15
697.36	3135.1
697.549	3274.36
697.738	3135.1
697.927	3163.77
698.116	3067.52
698.305	3245.69
698.494	3147.39
698.683	3188.35
698.872	3149.43
699.061	3251.83
699.25	3098.24
699.438	3131
699.627	3159.67
699.816	3149.43
700.005	2981.5
700.193	3112.57
700.382	3077.76
700.571	3034.75
700.76	2950.78
700.948	3126.91
701.137	3059.32
701.326	3069.56
701.514	2985.6
701.703	2893.44
701.892	2920.06
702.08	2991.74
702.269	2983.55
702.457	3100.28
702.646	2987.65
702.834	3110.52
703.023	2899.58
703.212	3075.71
703.4	2952.83
703.589	3030.65
703.777	2958.97
703.965	2854.53
704.154	2991.74
704.342	2946.69
704.531	2975.36
704.719	2799.23
704.907	2848.38
705.096	2834.05
705.284	2737.79
705.472	2958.97
705.661	2973.31
705.849	2766.46
706.037	2723.46
706.226	2711.17
706.414	2928.25
706.602	2692.74
706.79	2858.62
706.979	2778.75
707.167	2594.44
707.355	2829.95
707.543	2770.56
707.731	2698.88
707.919	2770.56
708.107	2608.77
708.296	2817.66
708.484	2672.26
708.672	2725.51
708.86	2711.17
709.048	2631.3
709.236	2610.82
709.424	2645.63
709.612	2604.67
709.8	2475.65
709.988	2602.63
710.176	2557.57
710.364	2621.06
710.551	2549.38
710.739	2502.28
710.927	2496.13
711.115	2479.75
711.303	2528.9
711.491	2422.41
711.679	2467.46
711.866	2360.97
712.054	2516.61
712.242	2365.06
712.43	2498.18
712.617	2444.93
712.805	2283.14
712.993	2389.64
713.181	2381.45
713.368	2330.25
713.556	2381.45
713.744	2350.73
713.931	2279.05
714.119	2274.95
714.306	2373.25
714.494	2170.51
714.682	2352.77
714.869	2188.94
715.057	2248.33
715.244	2281.1
715.432	2254.47
715.619	2260.62
715.807	2211.46
715.994	2160.27
716.182	2221.7
716.369	2240.14
716.556	2115.21
716.744	2123.4
716.931	2061.96
717.119	2201.23
717.306	2156.17
717.493	2162.31
717.681	2123.4
717.868	2078.35
718.055	2086.54
718.242	2141.83
718.43	2111.11
718.617	2068.11
718.804	1949.32
718.991	2102.92
719.179	1949.32
719.366	2016.91
719.553	1996.43
719.74	2037.39
719.927	1969.8
720.114	1941.13
720.301	1980.04
720.488	2053.77
720.676	1943.18
720.863	1930.89
721.05	1904.27
721.237	1963.66
721.424	1914.51
721.611	1934.99
721.798	1816.21
721.985	1918.61
722.172	1832.59
722.358	1828.49
722.545	1758.86
722.732	1814.16
722.919	1853.07
723.106	1906.32
723.293	1742.48
723.48	1836.69
723.667	1783.44
723.853	1762.96
724.04	1705.62
724.227	1717.9
724.414	1666.71
724.6	1762.96
724.787	1652.37
724.974	1769.1
725.161	1777.3
725.347	1713.81
725.534	1750.67
725.72	1722
725.907	1738.38
726.094	1607.31
726.28	1638.03
726.467	1638.03
726.653	1687.18
726.84	1668.75
727.027	1799.82
727.213	1685.14
727.4	1635.99
727.586	1621.65
727.773	1687.18
727.959	1590.93
728.145	1580.69
728.332	1648.27
728.518	1468.05
728.705	1685.14
728.891	1543.83
729.077	1537.68
729.264	1576.59
729.45	1500.82
729.636	1498.77
729.823	1480.34
730.009	1492.63
730.195	1496.72
730.382	1515.16
730.568	1466
730.754	1558.16
730.94	1588.88
731.126	1506.96
731.313	1445.52
731.499	1519.25
731.685	1455.76
731.871	1482.39
732.057	1490.58
732.243	1529.49
732.429	1463.96
732.615	1425.04
732.801	1482.39
732.987	1416.85
733.173	1394.33
733.359	1306.26
733.545	1365.65
733.731	1377.94
733.917	1375.89
734.103	1429.14
734.289	1365.65
734.475	1371.8
734.661	1443.48
734.847	1349.27
735.033	1373.85
735.219	1277.59
735.404	1332.89
735.59	1257.11
735.776	1330.84
735.962	1367.7
736.148	1291.93
736.333	1328.79
736.519	1310.36
736.705	1300.12
736.89	1310.36
737.076	1210.01
737.262	1232.54
737.447	1171.1
737.633	1298.07
737.819	1205.91
738.004	1244.82
738.19	1269.4
738.375	1130.14
738.561	1203.86
738.747	1265.3
738.932	1171.1
739.118	1250.97
739.303	1220.25
739.489	1308.31
739.674	1121.95
739.859	1242.78
740.045	1115.8
740.23	1201.82
740.416	1070.75
740.601	1103.51
740.786	1058.46
740.972	1144.47
741.157	1089.18
741.342	1105.56
741.528	1177.24
741.713	1109.66
741.898	1160.86
742.084	1087.13
742.269	997.02
742.454	1066.65
742.639	1052.31
742.824	1040.03
743.01	1076.89
743.195	1089.18
743.38	1113.75
743.565	1040.03
743.75	1060.51
743.935	1019.55
744.12	1123.99
744.305	951.96
744.49	976.54
744.675	999.07
744.86	1027.74
745.045	1091.23
745.23	970.4
745.415	1005.21
745.6	939.68
745.785	1076.89
745.97	941.72
746.155	939.68
746.34	964.25
746.525	997.02
746.71	1015.45
746.895	1005.21
747.079	876.19
747.264	939.68
747.449	906.91
747.634	956.06
747.819	908.96
748.003	949.92
748.188	939.68
748.373	886.43
748.557	902.81
748.742	837.28
748.927	863.9
749.111	933.53
749.296	765.6
749.481	804.51
749.665	827.04
749.85	829.09
750.034	853.66
750.219	865.95
750.404	796.32
750.588	896.67
750.773	771.74
750.957	792.22
751.141	894.62
751.326	841.37
751.51	810.65
751.695	804.51
751.879	868
752.064	757.41
752.248	829.09
752.432	759.46
752.617	835.23
752.801	808.61
752.985	831.13
753.17	661.15
753.354	857.76
753.538	800.41
753.722	741.02
753.907	712.35
754.091	693.92
754.275	728.74
754.459	677.54
754.643	786.08
754.828	716.45
755.012	779.93
755.196	755.36
755.38	663.2
755.564	667.3
755.748	681.63
755.932	767.65
756.116	798.37
756.3	640.67
756.484	689.82
756.668	636.58
756.852	659.1
757.036	601.76
757.22	714.4
757.404	632.48
757.588	677.54
757.772	612
757.956	546.47
758.14	607.91
758.323	679.58
758.507	642.72
758.691	702.11
758.875	607.91
759.059	550.56
759.242	603.81
759.426	566.95
759.61	626.34
759.794	636.58
759.977	669.34
760.161	644.77
760.345	595.62
760.528	652.96
760.712	591.52
760.895	571.04
761.079	566.95
761.263	517.79
761.446	521.89
761.63	595.62
761.813	509.6
761.997	558.75
762.18	515.75
762.364	523.94
762.547	519.84
762.731	558.75
762.914	540.32
763.098	614.05
763.281	513.7
763.464	536.23
763.648	571.04
763.831	573.09
764.015	478.88
764.198	568.99
764.381	501.41
764.564	542.37
764.748	601.76
764.931	513.7
765.114	523.94
765.297	566.95
765.481	442.02
765.664	513.7
765.847	523.94
766.03	546.47
766.213	489.12
766.397	464.55
766.58	501.41
766.763	581.28
766.946	439.97
767.129	546.47
767.312	474.79
767.495	485.03
767.678	478.88
767.861	505.51
768.044	515.75
768.227	450.21
768.41	511.65
768.593	464.55
768.776	544.42
768.959	628.39
769.142	425.64
769.324	386.72
769.507	466.6
769.69	464.55
769.873	509.6
770.056	497.32
770.239	540.32
770.421	450.21
770.604	399.01
770.787	423.59
770.97	519.84
771.152	564.9
771.335	472.74
771.518	415.4
771.7	431.78
771.883	597.67
772.066	431.78
772.248	536.23
772.431	394.92
772.613	448.16
772.796	523.94
772.978	495.27
773.161	468.64
773.343	435.88
773.526	433.83
773.708	433.83
773.891	358.05
774.073	468.64
774.256	407.2
774.438	435.88
774.621	394.92
774.803	446.12
774.985	394.92
775.168	380.58
775.35	491.17
775.532	456.36
775.715	423.59
775.897	448.16
776.079	407.2
776.261	444.07
776.444	431.78
776.626	425.64
776.808	399.01
776.99	349.86
777.173	388.77
777.355	415.4
777.537	427.68
777.719	405.16
777.901	417.44
778.083	390.82
778.265	349.86
778.447	319.14
778.629	343.72
778.811	358.05
778.993	472.74
779.175	431.78
779.357	392.87
779.539	378.53
779.721	345.77
779.903	351.91
780.085	313
780.267	329.38
780.449	431.78
780.631	349.86
780.812	339.62
780.994	388.77
781.176	364.2
781.358	378.53
781.54	362.15
781.721	300.71
781.903	345.77
782.085	249.51
782.267	341.67
782.448	349.86
782.63	366.25
782.812	300.71
782.993	300.71
783.175	351.91
783.357	302.76
783.538	272.04
783.72	333.48
783.901	343.72
784.083	253.61
784.264	315.05
784.446	296.61
784.627	288.42
784.809	335.53
784.99	274.09
785.172	259.75
785.353	231.08
785.535	206.5
785.716	276.13
785.897	329.38
786.079	220.84
786.26	310.95
786.441	313
786.623	222.89
786.804	276.13
786.985	300.71
787.167	241.32
787.348	241.32
787.529	317.09
787.71	253.61
787.891	290.47
788.073	200.36
788.254	243.37
788.435	163.5
788.616	333.48
788.797	226.98
788.978	243.37
789.159	310.95
789.34	249.51
789.522	294.57
789.703	171.69
789.884	231.08
790.065	263.85
790.246	319.14
790.427	233.13
790.607	288.42
790.788	171.69
790.969	231.08
791.15	302.76
791.331	226.98
791.512	249.51
791.693	177.83
791.874	237.22
792.054	212.65
792.235	212.65
792.416	179.88
792.597	163.5
792.778	200.36
792.958	231.08
793.139	259.75
793.32	243.37
793.5	216.74
793.681	241.32
793.862	159.4
794.042	208.55
794.223	222.89
794.404	245.41
794.584	196.26
794.765	214.7
794.945	198.31
795.126	165.54
795.306	122.54
795.487	212.65
795.667	145.06
795.848	175.78
796.028	188.07
796.209	235.18
796.389	128.68
796.57	226.98
796.75	120.49
796.93	214.7
797.111	194.22
797.291	165.54
797.471	181.93
797.652	171.69
797.832	171.69
798.012	145.06
798.192	93.87
798.373	155.3
798.553	138.92
798.733	155.3
798.913	138.92
799.093	120.49
799.274	226.98
799.454	147.11
799.634	218.79
799.814	161.45
799.994	128.68
800.174	145.06
800.354	128.68
800.534	212.65
800.714	186.02
800.894	116.39
801.074	140.97
801.254	192.17
801.434	155.3
801.614	132.78
801.794	186.02
801.974	243.37
802.154	138.92
802.334	110.25
802.514	116.39
802.693	97.96
802.873	155.3
803.053	165.54
803.233	183.98
803.413	69.29
803.592	104.11
803.772	181.93
803.952	114.34
804.131	104.11
804.311	194.22
804.491	161.45
804.67	128.68
804.85	138.92
805.03	120.49
805.209	87.72
805.389	69.29
805.568	91.82
805.748	159.4
805.928	140.97
806.107	177.83
806.287	175.78
806.466	75.43
806.646	110.25
806.825	110.25
807.004	100.01
807.184	108.2
807.363	116.39
807.543	116.39
807.722	116.39
807.901	69.29
808.081	136.87
808.26	81.58
808.439	171.69
808.619	54.95
808.798	136.87
808.977	75.43
809.156	100.01
809.336	102.06
809.515	116.39
809.694	91.82
809.873	77.48
810.052	59.05
810.231	171.69
810.411	120.49
810.59	149.16
810.769	110.25
810.948	171.69
811.127	165.54
811.306	104.11
811.485	95.91
811.664	9.9
811.843	116.39
812.022	136.87
812.201	118.44
812.38	173.74
812.559	67.24
812.737	116.39
812.916	112.3
813.095	89.77
813.274	122.54
813.453	65.19
813.632	97.96
813.811	100.01
813.989	102.06
814.168	87.72
814.347	91.82
814.526	151.21
814.704	79.53
814.883	169.64
815.062	106.15
815.24	69.29
815.419	85.67
815.598	81.58
815.776	65.19
815.955	95.91
816.133	108.2
816.312	65.19
816.49	44.71
816.669	95.91
816.847	132.78
817.026	73.39
817.204	177.83
817.383	44.71
817.561	38.57
817.74	126.63
817.918	61.1
818.097	75.43
818.275	38.57
818.453	18.09
818.632	85.67
818.81	114.34
818.988	97.96
819.167	40.62
819.345	126.63
819.523	100.01
819.701	9.9
819.879	114.34
820.058	106.15
820.236	81.58
820.414	85.67
820.592	61.1
820.77	46.76
820.948	91.82
821.127	85.67
821.305	108.2
821.483	112.3
821.661	73.39
821.839	71.34
822.017	104.11
822.195	87.72
822.373	112.3
822.551	-2.39
822.729	87.72
822.907	69.29
823.085	100.01
823.262	24.23
823.44	95.91
823.618	52.91
823.796	42.67
823.974	-10.58
824.152	38.57
824.329	108.2
824.507	83.63
824.685	48.81
824.863	83.63
825.04	147.11
825.218	-16.73
825.396	100.01
825.574	93.87
825.751	134.82
825.929	95.91
826.107	52.91
826.284	87.72
826.462	110.25
826.639	22.19
826.817	59.05
826.994	26.28
827.172	22.19
827.349	130.73
827.527	20.14
827.704	104.11
827.882	22.19
828.059	120.49
828.237	30.38
828.414	40.62
828.591	89.77
828.769	48.81
828.946	20.14
829.124	59.05
829.301	13.99
829.478	42.67
829.655	46.76
829.833	85.67
830.01	71.34
830.187	52.91
830.364	-31.06
830.542	69.29
830.719	48.81
830.896	-0.34
831.073	89.77
831.25	36.52
831.427	116.39
831.604	16.04
831.782	-2.39
831.959	-63.83
832.136	83.63
832.313	65.19
832.49	65.19
832.667	61.1
832.844	-0.34
833.021	91.82
833.198	-0.34
833.374	75.43
833.551	52.91
833.728	-18.77
833.905	102.06
834.082	1.71
834.259	67.24
834.436	18.09
834.612	48.81
834.789	42.67
834.966	13.99
835.143	40.62
835.319	71.34
835.496	97.96
835.673	16.04
835.85	100.01
836.026	40.62
836.203	87.72
836.38	34.47
836.556	9.9
836.733	1.71
836.909	79.53
837.086	1.71
837.262	46.76
837.439	116.39
837.616	11.95
837.792	52.91
837.968	1.71
838.145	52.91
838.321	11.95
838.498	36.52
838.674	38.57
838.851	59.05
839.027	-26.96
839.203	16.04
839.38	112.3
839.556	50.86
839.732	40.62
839.909	-0.34
840.085	81.58
840.261	36.52
840.437	67.24
840.614	40.62
840.79	46.76
840.966	75.43
841.142	91.82
841.318	34.47
841.494	63.15
841.671	120.49
841.847	-4.44
842.023	30.38
842.199	63.15
842.375	104.11
842.551	-45.4
842.727	22.19
842.903	18.09
843.079	46.76
843.255	65.19
843.431	54.95
843.607	95.91
843.783	46.76
843.959	46.76
844.134	16.04
844.31	63.15
844.486	13.99
844.662	-10.58
844.838	34.47
845.013	42.67
845.189	48.81
845.365	13.99
845.541	93.87
845.716	59.05
845.892	-10.58
846.068	40.62
846.244	79.53
846.419	26.28
846.595	67.24
846.77	38.57
846.946	-67.92
847.122	91.82
847.297	-8.53
847.473	-24.92
847.648	22.19
847.824	30.38
847.999	26.28
848.175	65.19
848.35	18.09
848.526	69.29
848.701	-0.34
848.876	48.81
849.052	32.43
849.227	-8.53
849.403	52.91
849.578	73.39
849.753	9.9
849.929	48.81
850.104	36.52
850.279	73.39
850.454	-33.11
850.63	40.62
850.805	-37.2
850.98	65.19
851.155	38.57
851.33	42.67
851.505	44.71
851.681	-4.44
851.856	3.75
852.031	83.63
852.206	38.57
852.381	-8.53
852.556	34.47
852.731	11.95
852.906	54.95
853.081	63.15
853.256	38.57
853.431	34.47
853.606	-4.44
853.781	75.43
853.956	26.28
854.131	42.67
854.305	85.67
854.48	32.43
854.655	32.43
854.83	-4.44
855.005	13.99
855.18	16.04
855.354	57
855.529	-14.68
855.704	13.99
855.879	46.76
856.053	7.85
856.228	5.8
856.403	3.75
856.577	16.04
856.752	-2.39
856.926	16.04
857.101	-55.64
857.276	-24.92
857.45	61.1
857.625	50.86
857.799	40.62
857.974	112.3
858.148	-14.68
858.323	-10.58
858.497	-33.11
858.672	50.86
858.846	7.85
859.02	-37.2
859.195	30.38
859.369	-29.01
859.543	-47.44
859.718	-18.77
859.892	-49.49
860.066	32.43
860.241	-29.01
860.415	-4.44
860.589	-8.53
860.763	-10.58
860.938	-8.53
861.112	65.19
861.286	34.47
861.46	38.57
861.634	36.52
861.808	26.28
861.982	-24.92
862.157	28.33
862.331	-8.53
862.505	-8.53
862.679	22.19
862.853	71.34
863.027	5.8
863.201	63.15
863.375	71.34
863.549	-43.35
863.722	11.95
863.896	38.57
864.07	-10.58
864.244	-47.44
864.418	100.01
864.592	-39.25
864.766	-82.26
864.939	-2.39
865.113	-61.78
865.287	-31.06
865.461	-16.73
865.634	18.09
865.808	-41.3
865.982	24.23
866.156	-20.82
866.329	24.23
866.503	-6.49
866.676	30.38
866.85	-41.3
867.024	71.34
867.197	24.23
867.371	52.91
867.544	-2.39
867.718	26.28
867.891	9.9
868.065	-63.83
868.238	-4.44
868.412	34.47
868.585	5.8
868.759	-43.35
868.932	11.95
869.105	18.09
869.279	48.81
869.452	59.05
869.625	13.99
869.799	9.9
869.972	18.09
870.145	5.8
870.319	-14.68
870.492	38.57
870.665	40.62
870.838	42.67
871.011	48.81
871.185	-8.53
871.358	9.9
871.531	1.71
871.704	-65.88
871.877	9.9
872.05	-35.16
872.223	34.47
872.396	-33.11
872.569	-6.49
872.742	-6.49
872.915	83.63
873.088	30.38
873.261	-35.16
873.434	50.86
873.607	-59.73
873.78	67.24
873.953	16.04
874.126	46.76
874.299	9.9
874.471	32.43
874.644	32.43
874.817	26.28
874.99	46.76
875.163	-37.2
875.335	52.91
875.508	54.95
875.681	-2.39
875.853	36.52
876.026	18.09
876.199	-8.53
876.371	71.34
876.544	54.95
876.717	81.58
876.889	16.04
877.062	67.24
877.234	-49.49
877.407	59.05
877.579	-10.58
877.752	-22.87
877.924	-35.16
878.097	71.34
878.269	28.33
878.442	48.81
878.614	-76.12
878.786	24.23
878.959	-10.58
879.131	28.33
879.303	-57.68
879.476	-24.92
879.648	-16.73
879.82	-22.87
879.993	16.04
880.165	63.15
880.337	13.99
880.509	7.85
880.681	24.23
880.854	36.52
881.026	-10.58
881.198	69.29
881.37	18.09
881.542	63.15
881.714	20.14
881.886	-41.3
882.058	3.75
882.23	-20.82
882.402	13.99
882.574	-2.39
882.746	-29.01
882.918	20.14
883.09	-29.01
883.262	59.05
883.434	40.62
883.606	-24.92
883.778	-4.44
883.95	-16.73
884.122	32.43
884.293	63.15
884.465	59.05
884.637	46.76
884.809	59.05
884.98	-57.68
885.152	38.57
885.324	-39.25
885.496	-29.01
885.667	38.57
885.839	42.67
886.011	97.96
886.182	67.24
886.354	22.19
886.525	-35.16
886.697	-63.83
886.869	-0.34
887.04	5.8
887.212	-35.16
887.383	44.71
887.555	59.05
887.726	-20.82
887.897	-65.88
888.069	-29.01
888.24	38.57
888.412	38.57
888.583	114.34
888.754	79.53
888.926	-29.01
889.097	38.57
889.268	-0.34
889.44	32.43
889.611	-4.44
889.782	54.95
889.953	-26.96
890.125	-8.53
890.296	-6.49
890.467	-33.11
890.638	-29.01
890.809	-57.68
890.98	50.86
891.151	-2.39
891.323	-2.39
891.494	30.38
891.665	50.86
891.836	34.47
892.007	20.14
892.178	-16.73
892.349	-16.73
892.52	-26.96
892.691	-33.11
892.862	40.62
893.032	-53.59
893.203	18.09
893.374	-4.44
893.545	54.95
893.716	5.8
893.887	20.14
894.057	-18.77
894.228	3.75
894.399	1.71
894.57	-18.77
894.74	46.76
894.911	30.38
895.082	16.04
895.253	3.75
895.423	-24.92
895.594	16.04
895.764	-0.34
895.935	13.99
896.106	46.76
896.276	-10.58
896.447	-8.53
896.617	50.86
896.788	-2.39
896.958	13.99
897.129	48.81
897.299	-2.39
897.47	-8.53
897.64	52.91
897.81	-8.53
897.981	13.99
898.151	38.57
898.322	-8.53
898.492	7.85
898.662	-35.16
898.832	26.28
899.003	75.43
899.173	13.99
899.343	18.09
899.513	-16.73
