Data from USB4F104151__244__14-01-18-896.txt Node

Date: Thu Mar 13 14:01:18 EDT 2025
User: louis
Spectrometer: USB4F10415
Trigger mode: 4
Integration Time (sec): 1.000000E-2
Scans to average: 1
Electric dark correction enabled: true
Nonlinearity correction enabled: false
Boxcar width: 0
XAxis mode: Wavelengths
Number of Pixels in Spectrum: 3648
>>>>>Begin Spectral Data<<<<<
178.204	-38.91
178.424	-38.91
178.644	-38.91
178.864	-96.25
179.084	-38.91
179.304	-6.14
179.524	-12.29
179.744	-4.1
179.964	40.96
180.184	-30.72
180.404	-55.3
180.624	43.01
180.844	38.91
181.064	63.49
181.283	-67.58
181.503	-30.72
181.723	20.48
181.943	26.62
182.163	83.97
182.383	26.62
182.602	-26.62
182.822	108.54
183.042	2.05
183.262	-32.77
183.482	-16.38
183.701	77.82
183.921	57.34
184.141	-24.58
184.361	-0
184.58	-20.48
184.8	34.82
185.02	-6.14
185.239	4.1
185.459	14.34
185.679	34.82
185.898	16.38
186.118	8.19
186.338	20.48
186.557	18.43
186.777	-22.53
186.997	-16.38
187.216	8.19
187.436	18.43
187.655	61.44
187.875	75.77
188.095	-12.29
188.314	-12.29
188.534	51.2
188.753	-79.87
188.973	32.77
189.192	43.01
189.412	-14.34
189.631	4.1
189.851	26.62
190.07	36.86
190.29	6.14
190.509	-34.82
190.729	-36.86
190.948	30.72
191.168	75.77
191.387	2.05
191.607	-4.1
191.826	26.62
192.045	34.82
192.265	36.86
192.484	-30.72
192.704	-2.05
192.923	32.77
193.142	51.2
193.362	-2.05
193.581	-6.14
193.8	53.25
194.02	30.72
194.239	-6.14
194.458	-6.14
194.678	-26.62
194.897	20.48
195.116	47.1
195.335	51.2
195.555	-61.44
195.774	6.14
195.993	26.62
196.212	6.14
196.432	-120.83
196.651	22.53
196.87	112.64
197.089	88.06
197.308	20.48
197.528	-38.91
197.747	-2.05
197.966	-40.96
198.185	-4.1
198.404	26.62
198.623	63.49
198.842	12.29
199.062	53.25
199.281	69.63
199.5	-12.29
199.719	30.72
199.938	43.01
200.157	43.01
200.376	47.1
200.595	49.15
200.814	47.1
201.033	14.34
201.252	57.34
201.471	4.1
201.69	-20.48
201.909	30.72
202.128	6.14
202.347	20.48
202.566	51.2
202.785	77.82
203.004	-40.96
203.223	57.34
203.442	65.53
203.661	-26.62
203.879	38.91
204.098	18.43
204.317	-71.68
204.536	38.91
204.755	30.72
204.974	30.72
205.193	-0
205.411	102.4
205.63	22.53
205.849	4.1
206.068	-22.53
206.287	59.39
206.505	51.2
206.724	28.67
206.943	16.38
207.162	118.78
207.381	22.53
207.599	-2.05
207.818	-8.19
208.037	40.96
208.255	75.77
208.474	22.53
208.693	-2.05
208.911	20.48
209.13	4.1
209.349	75.77
209.567	43.01
209.786	-10.24
210.005	24.58
210.223	26.62
210.442	-12.29
210.661	126.97
210.879	59.39
211.098	-2.05
211.316	-2.05
211.535	18.43
211.753	-40.96
211.972	67.58
212.191	53.25
212.409	43.01
212.628	53.25
212.846	-51.2
213.065	67.58
213.283	18.43
213.502	28.67
213.72	12.29
213.938	14.34
214.157	4.1
214.375	-2.05
214.594	45.06
214.812	2.05
215.031	43.01
215.249	-55.3
215.467	28.67
215.686	69.63
215.904	26.62
216.122	-38.91
216.341	-26.62
216.559	-8.19
216.778	43.01
216.996	14.34
217.214	61.44
217.432	10.24
217.651	-8.19
217.869	16.38
218.087	34.82
218.306	-108.54
218.524	-38.91
218.742	-20.48
218.96	2.05
219.179	8.19
219.397	26.62
219.615	-8.19
219.833	-4.1
220.051	45.06
220.27	67.58
220.488	-43.01
220.706	8.19
220.924	-30.72
221.142	-22.53
221.36	-6.14
221.578	2.05
221.796	-0
222.015	73.73
222.233	63.49
222.451	32.77
222.669	-2.05
222.887	61.44
223.105	12.29
223.323	18.43
223.541	22.53
223.759	-61.44
223.977	-22.53
224.195	22.53
224.413	36.86
224.631	-14.34
224.849	116.73
225.067	106.49
225.285	47.1
225.503	22.53
225.721	-6.14
225.939	34.82
226.157	16.38
226.375	-10.24
226.592	12.29
226.81	47.1
227.028	4.1
227.246	4.1
227.464	-32.77
227.682	45.06
227.9	63.49
228.117	22.53
228.335	67.58
228.553	38.91
228.771	32.77
228.989	53.25
229.206	59.39
229.424	75.77
229.642	18.43
229.86	30.72
230.077	6.14
230.295	-10.24
230.513	28.67
230.731	-6.14
230.948	69.63
231.166	45.06
231.384	83.97
231.601	57.34
231.819	49.15
232.037	36.86
232.254	-28.67
232.472	16.38
232.689	6.14
232.907	59.39
233.125	-14.34
233.342	20.48
233.56	24.58
233.777	77.82
233.995	-6.14
234.213	75.77
234.43	104.45
234.648	-20.48
234.865	28.67
235.083	-12.29
235.3	18.43
235.518	18.43
235.735	67.58
235.953	36.86
236.17	16.38
236.388	12.29
236.605	-8.19
236.822	51.2
237.04	-34.82
237.257	10.24
237.475	-26.62
237.692	-36.86
237.909	-2.05
238.127	22.53
238.344	22.53
238.562	-20.48
238.779	12.29
238.996	28.67
239.214	-94.21
239.431	51.2
239.648	-63.49
239.865	14.34
240.083	20.48
240.3	14.34
240.517	-4.1
240.735	12.29
240.952	18.43
241.169	53.25
241.386	-12.29
241.603	34.82
241.821	51.2
242.038	40.96
242.255	57.34
242.472	-10.24
242.689	4.1
242.907	34.82
243.124	45.06
243.341	-6.14
243.558	-43.01
243.775	-61.44
243.992	10.24
244.209	-6.14
244.426	53.25
244.643	-2.05
244.86	8.19
245.078	-55.3
245.295	24.58
245.512	38.91
245.729	-18.43
245.946	-59.39
246.163	49.15
246.38	38.91
246.597	-55.3
246.814	-45.06
247.031	-20.48
247.248	-67.58
247.464	14.34
247.681	-47.1
247.898	49.15
248.115	57.34
248.332	2.05
248.549	120.83
248.766	90.11
248.983	43.01
249.2	-24.58
249.417	-26.62
249.633	-36.86
249.85	20.48
250.067	38.91
250.284	69.63
250.501	-4.1
250.717	10.24
250.934	4.1
251.151	2.05
251.368	-2.05
251.585	-4.1
251.801	-20.48
252.018	10.24
252.235	20.48
252.451	2.05
252.668	-26.62
252.885	10.24
253.102	-22.53
253.318	4.1
253.535	10.24
253.752	18.43
253.968	-28.67
254.185	92.16
254.401	59.39
254.618	12.29
254.835	14.34
255.051	34.82
255.268	69.63
255.484	30.72
255.701	69.63
255.917	102.4
256.134	-55.3
256.351	20.48
256.567	-2.05
256.784	79.87
257	-43.01
257.217	26.62
257.433	10.24
257.65	77.82
257.866	67.58
258.082	-88.06
258.299	43.01
258.515	-26.62
258.732	-22.53
258.948	-12.29
259.165	-30.72
259.381	-18.43
259.597	81.92
259.814	65.53
260.03	4.1
260.246	-88.06
260.463	49.15
260.679	-51.2
260.895	14.34
261.112	75.77
261.328	22.53
261.544	30.72
261.761	71.68
261.977	43.01
262.193	14.34
262.409	14.34
262.626	30.72
262.842	26.62
263.058	-92.16
263.274	-12.29
263.49	-10.24
263.707	-8.19
263.923	30.72
264.139	57.34
264.355	98.3
264.571	-51.2
264.787	47.1
265.004	43.01
265.22	2.05
265.436	63.49
265.652	-16.38
265.868	59.39
266.084	59.39
266.3	2.05
266.516	53.25
266.732	-26.62
266.948	28.67
267.164	43.01
267.38	10.24
267.596	57.34
267.812	36.86
268.028	43.01
268.244	45.06
268.46	32.77
268.676	40.96
268.892	75.77
269.108	-18.43
269.324	-6.14
269.54	53.25
269.756	79.87
269.972	-0
270.188	51.2
270.403	12.29
270.619	47.1
270.835	-30.72
271.051	32.77
271.267	-57.34
271.483	47.1
271.698	47.1
271.914	49.15
272.13	65.53
272.346	28.67
272.562	32.77
272.777	45.06
272.993	22.53
273.209	-6.14
273.425	22.53
273.64	-6.14
273.856	61.44
274.072	14.34
274.287	43.01
274.503	4.1
274.719	18.43
274.934	79.87
275.15	28.67
275.366	10.24
275.581	-28.67
275.797	4.1
276.012	26.62
276.228	-0
276.444	43.01
276.659	2.05
276.875	6.14
277.09	94.21
277.306	2.05
277.521	-14.34
277.737	30.72
277.952	61.44
278.168	61.44
278.383	18.43
278.599	38.91
278.814	26.62
279.03	-26.62
279.245	45.06
279.461	28.67
279.676	-22.53
279.892	10.24
280.107	32.77
280.322	69.63
280.538	-6.14
280.753	34.82
280.969	10.24
281.184	-4.1
281.399	18.43
281.615	2.05
281.83	10.24
282.045	-26.62
282.26	6.14
282.476	-6.14
282.691	36.86
282.906	-55.3
283.122	73.73
283.337	-40.96
283.552	53.25
283.767	6.14
283.983	2.05
284.198	-2.05
284.413	43.01
284.628	20.48
284.843	96.25
285.058	-47.1
285.274	26.62
285.489	-26.62
285.704	24.58
285.919	-14.34
286.134	83.97
286.349	8.19
286.564	43.01
286.779	20.48
286.995	-122.88
287.21	32.77
287.425	45.06
287.64	4.1
287.855	26.62
288.07	67.58
288.285	67.58
288.5	2.05
288.715	47.1
288.93	-57.34
289.145	18.43
289.36	79.87
289.575	-34.82
289.79	24.58
290.004	-8.19
290.219	51.2
290.434	-34.82
290.649	-38.91
290.864	-22.53
291.079	-45.06
291.294	88.06
291.509	43.01
291.724	2.05
291.938	-8.19
292.153	55.3
292.368	-14.34
292.583	8.19
292.798	14.34
293.012	-20.48
293.227	-18.43
293.442	53.25
293.657	6.14
293.871	61.44
294.086	36.86
294.301	83.97
294.516	81.92
294.73	45.06
294.945	6.14
295.16	4.1
295.374	20.48
295.589	32.77
295.804	49.15
296.018	4.1
296.233	18.43
296.447	40.96
296.662	-4.1
296.877	18.43
297.091	24.58
297.306	14.34
297.52	-63.49
297.735	-4.1
297.949	-20.48
298.164	28.67
298.378	59.39
298.593	-10.24
298.807	36.86
299.022	2.05
299.236	92.16
299.451	28.67
299.665	8.19
299.88	61.44
300.094	32.77
300.309	16.38
300.523	18.43
300.737	26.62
300.952	86.01
301.166	24.58
301.381	65.53
301.595	2.05
301.809	104.45
302.024	86.01
302.238	-8.19
302.452	53.25
302.667	-10.24
302.881	12.29
303.095	16.38
303.309	34.82
303.524	16.38
303.738	6.14
303.952	30.72
304.166	-6.14
304.381	-43.01
304.595	18.43
304.809	20.48
305.023	47.1
305.237	-30.72
305.452	38.91
305.666	12.29
305.88	-4.1
306.094	6.14
306.308	26.62
306.522	81.92
306.736	71.68
306.95	61.44
307.164	18.43
307.379	24.58
307.593	34.82
307.807	67.58
308.021	81.92
308.235	-12.29
308.449	8.19
308.663	26.62
308.877	-10.24
309.091	28.67
309.305	67.58
309.519	22.53
309.733	57.34
309.947	12.29
310.161	69.63
310.374	30.72
310.588	28.67
310.802	-57.34
311.016	-30.72
311.23	47.1
311.444	20.48
311.658	40.96
311.872	6.14
312.085	-30.72
312.299	14.34
312.513	12.29
312.727	-20.48
312.941	71.68
313.154	12.29
313.368	-14.34
313.582	32.77
313.796	24.58
314.009	-30.72
314.223	30.72
314.437	-8.19
314.651	-20.48
314.864	12.29
315.078	22.53
315.292	47.1
315.505	53.25
315.719	69.63
315.933	-2.05
316.146	2.05
316.36	-51.2
316.573	34.82
316.787	-12.29
317.001	18.43
317.214	-73.73
317.428	-14.34
317.641	-14.34
317.855	129.02
318.068	14.34
318.282	26.62
318.495	38.91
318.709	-47.1
318.922	16.38
319.136	36.86
319.349	32.77
319.563	38.91
319.776	22.53
319.99	-16.38
320.203	30.72
320.417	-36.86
320.63	75.77
320.843	12.29
321.057	4.1
321.27	51.2
321.483	43.01
321.697	18.43
321.91	10.24
322.124	61.44
322.337	47.1
322.55	-40.96
322.763	61.44
322.977	-26.62
323.19	-63.49
323.403	71.68
323.617	22.53
323.83	36.86
324.043	22.53
324.256	4.1
324.469	-0
324.683	34.82
324.896	-4.1
325.109	-0
325.322	14.34
325.535	73.73
325.748	-16.38
325.962	59.39
326.175	10.24
326.388	94.21
326.601	38.91
326.814	-67.58
327.027	18.43
327.24	6.14
327.453	43.01
327.666	-30.72
327.879	40.96
328.092	2.05
328.305	4.1
328.518	-4.1
328.731	2.05
328.944	-59.39
329.157	4.1
329.37	49.15
329.583	-18.43
329.796	88.06
330.009	-2.05
330.222	26.62
330.435	22.53
330.648	-24.58
330.861	83.97
331.073	45.06
331.286	-20.48
331.499	65.53
331.712	22.53
331.925	-12.29
332.138	10.24
332.35	96.25
332.563	-30.72
332.776	6.14
332.989	20.48
333.202	63.49
333.414	-32.77
333.627	8.19
333.84	124.93
334.053	57.34
334.265	67.58
334.478	12.29
334.691	-14.34
334.903	26.62
335.116	71.68
335.329	6.14
335.541	57.34
335.754	122.88
335.966	18.43
336.179	10.24
336.392	61.44
336.604	-12.29
336.817	71.68
337.029	10.24
337.242	30.72
337.454	43.01
337.667	55.3
337.88	-8.19
338.092	94.21
338.305	53.25
338.517	-6.14
338.729	-6.14
338.942	40.96
339.154	6.14
339.367	-2.05
339.579	2.05
339.792	53.25
340.004	47.1
340.217	51.2
340.429	32.77
340.641	-32.77
340.854	-36.86
341.066	-12.29
341.278	83.97
341.491	65.53
341.703	53.25
341.915	-45.06
342.128	-10.24
342.34	12.29
342.552	-12.29
342.764	77.82
342.977	61.44
343.189	-14.34
343.401	-18.43
343.613	34.82
343.826	75.77
344.038	-12.29
344.25	28.67
344.462	-38.91
344.674	24.58
344.886	16.38
345.099	14.34
345.311	57.34
345.523	-24.58
345.735	-20.48
345.947	-6.14
346.159	106.49
346.371	45.06
346.583	22.53
346.795	61.44
347.007	69.63
347.219	36.86
347.431	28.67
347.643	-22.53
347.855	81.92
348.067	20.48
348.279	59.39
348.491	28.67
348.703	14.34
348.915	10.24
349.127	24.58
349.339	71.68
349.551	-4.1
349.763	-2.05
349.975	38.91
350.187	69.63
350.399	14.34
350.61	40.96
350.822	-2.05
351.034	67.58
351.246	32.77
351.458	67.58
351.669	30.72
351.881	102.4
352.093	28.67
352.305	43.01
352.517	94.21
352.728	69.63
352.94	22.53
353.152	51.2
353.363	53.25
353.575	38.91
353.787	55.3
353.999	26.62
354.21	83.97
354.422	10.24
354.633	-14.34
354.845	92.16
355.057	47.1
355.268	18.43
355.48	-4.1
355.692	-10.24
355.903	6.14
356.115	-8.19
356.326	-20.48
356.538	92.16
356.749	43.01
356.961	69.63
357.172	26.62
357.384	-30.72
357.595	32.77
357.807	2.05
358.018	36.86
358.23	12.29
358.441	79.87
358.653	47.1
358.864	14.34
359.075	34.82
359.287	26.62
359.498	83.97
359.709	94.21
359.921	-16.38
360.132	-30.72
360.344	22.53
360.555	36.86
360.766	16.38
360.977	53.25
361.189	69.63
361.4	63.49
361.611	38.91
361.823	28.67
362.034	-4.1
362.245	-8.19
362.456	16.38
362.667	10.24
362.879	2.05
363.09	51.2
363.301	-6.14
363.512	-22.53
363.723	49.15
363.935	32.77
364.146	18.43
364.357	40.96
364.568	4.1
364.779	36.86
364.99	61.44
365.201	12.29
365.412	79.87
365.623	61.44
365.834	86.01
366.045	55.3
366.256	-6.14
366.467	126.97
366.678	10.24
366.889	10.24
367.1	10.24
367.311	28.67
367.522	34.82
367.733	-22.53
367.944	-59.39
368.155	20.48
368.366	53.25
368.577	57.34
368.788	49.15
368.999	92.16
369.209	-12.29
369.42	-8.19
369.631	94.21
369.842	38.91
370.053	12.29
370.264	-36.86
370.474	-16.38
370.685	18.43
370.896	8.19
371.107	75.77
371.317	4.1
371.528	34.82
371.739	98.3
371.95	34.82
372.16	22.53
372.371	32.77
372.582	71.68
372.792	32.77
373.003	75.77
373.214	43.01
373.424	-0
373.635	-0
373.846	20.48
374.056	-12.29
374.267	12.29
374.477	110.59
374.688	59.39
374.898	-4.1
375.109	14.34
375.319	36.86
375.53	-38.91
375.74	-40.96
375.951	92.16
376.161	-30.72
376.372	88.06
376.582	-10.24
376.793	98.3
377.003	8.19
377.214	36.86
377.424	51.2
377.635	-26.62
377.845	10.24
378.055	-34.82
378.266	-6.14
378.476	53.25
378.686	40.96
378.897	26.62
379.107	43.01
379.317	67.58
379.528	69.63
379.738	53.25
379.948	-30.72
380.158	108.54
380.369	-12.29
380.579	53.25
380.789	40.96
380.999	24.58
381.21	8.19
381.42	51.2
381.63	-10.24
381.84	65.53
382.05	28.67
382.261	98.3
382.471	34.82
382.681	-36.86
382.891	16.38
383.101	53.25
383.311	-45.06
383.521	34.82
383.731	-8.19
383.941	96.25
384.151	53.25
384.361	57.34
384.571	73.73
384.781	96.25
384.991	61.44
385.201	67.58
385.411	36.86
385.621	26.62
385.831	102.4
386.041	38.91
386.251	28.67
386.461	69.63
386.671	32.77
386.881	34.82
387.091	16.38
387.301	71.68
387.511	49.15
387.72	30.72
387.93	59.39
388.14	26.62
388.35	49.15
388.56	90.11
388.769	47.1
388.979	38.91
389.189	36.86
389.399	75.77
389.609	63.49
389.818	38.91
390.028	-0
390.238	4.1
390.447	20.48
390.657	59.39
390.867	-2.05
391.076	106.49
391.286	114.69
391.496	57.34
391.705	59.39
391.915	32.77
392.125	49.15
392.334	90.11
392.544	12.29
392.753	67.58
392.963	63.49
393.172	77.82
393.382	12.29
393.591	59.39
393.801	32.77
394.01	51.2
394.22	77.82
394.429	43.01
394.639	43.01
394.848	86.01
395.058	45.06
395.267	71.68
395.477	32.77
395.686	88.06
395.895	104.45
396.105	143.36
396.314	149.5
396.524	57.34
396.733	71.68
396.942	36.86
397.152	34.82
397.361	38.91
397.57	102.4
397.78	139.26
397.989	47.1
398.198	77.82
398.407	57.34
398.617	55.3
398.826	-14.34
399.035	126.97
399.244	79.87
399.453	34.82
399.663	26.62
399.872	145.41
400.081	120.83
400.29	75.77
400.499	28.67
400.708	108.54
400.917	18.43
401.127	90.11
401.336	86.01
401.545	36.86
401.754	94.21
401.963	63.49
402.172	151.55
402.381	69.63
402.59	141.31
402.799	14.34
403.008	104.45
403.217	69.63
403.426	192.51
403.635	137.21
403.844	83.97
404.053	120.83
404.262	61.44
404.471	86.01
404.68	137.21
404.888	51.2
405.097	118.78
405.306	151.55
405.515	81.92
405.724	75.77
405.933	75.77
406.142	108.54
406.35	96.25
406.559	57.34
406.768	112.64
406.977	102.4
407.185	118.78
407.394	104.45
407.603	102.4
407.812	135.17
408.02	174.08
408.229	141.31
408.438	73.73
408.646	79.87
408.855	137.21
409.064	118.78
409.272	159.74
409.481	198.65
409.69	153.6
409.898	116.73
410.107	241.66
410.315	212.99
410.524	190.46
410.733	172.03
410.941	194.56
411.15	286.72
411.358	184.32
411.567	294.91
411.775	167.93
411.984	249.85
412.192	296.96
412.401	337.91
412.609	299
412.818	346.11
413.026	249.85
413.234	249.85
413.443	270.33
413.651	309.24
413.86	325.63
414.068	372.73
414.276	356.35
414.485	389.11
414.693	333.82
414.901	411.64
415.11	442.36
415.318	354.3
415.526	425.98
415.734	444.41
415.943	421.88
416.151	475.13
416.359	444.41
416.567	454.65
416.776	468.98
416.984	507.9
417.192	561.14
417.4	569.34
417.608	579.58
417.817	651.25
418.025	589.81
418.233	681.97
418.441	604.15
418.649	655.35
418.857	776.18
419.065	718.84
419.273	663.54
419.481	880.63
419.689	800.76
419.897	823.28
420.105	825.33
420.313	915.44
420.521	892.91
420.729	815.09
420.937	968.69
421.145	1007.6
421.353	995.31
421.561	1091.57
421.769	1155.05
421.977	1177.58
422.185	1165.29
422.393	1265.64
422.601	1198.06
422.809	1271.79
423.017	1247.21
423.224	1370.09
423.432	1474.54
423.64	1386.47
423.848	1558.5
424.056	1503.21
424.263	1495.02
424.471	1681.38
424.679	1589.22
424.887	1708.01
425.094	1695.72
425.302	1669.09
425.51	1863.65
425.718	1890.28
425.925	1888.23
426.133	1980.39
426.341	2111.46
426.548	2220
426.756	2179.04
426.964	2283.49
427.171	2375.64
427.379	2426.84
427.586	2441.18
427.794	2408.41
428.001	2652.12
428.209	2818
428.417	2678.74
428.624	2914.26
428.832	2910.16
429.039	2820.05
429.247	2936.79
429.454	3108.82
429.662	3258.32
429.869	3098.58
430.076	3385.29
430.284	3229.65
430.491	3403.72
430.699	3692.49
430.906	3461.07
431.114	3770.31
431.321	3715.02
431.528	3803.08
431.736	3999.68
431.943	4294.59
432.15	4067.27
432.358	4151.23
432.565	4495.29
432.772	4403.13
432.979	4581.31
433.187	4652.98
433.394	4687.8
433.601	5003.19
433.808	5113.78
434.016	4886.45
434.223	5269.42
434.43	5590.95
434.637	5365.68
434.844	5769.13
435.052	5916.58
435.259	5771.18
435.466	5785.51
435.673	5758.89
435.88	6104.99
436.087	6416.29
436.294	6629.27
436.501	6350.75
436.708	6432.67
436.915	6883.22
437.122	6989.72
437.329	6948.76
437.537	7251.86
437.743	7278.48
437.95	7370.64
438.157	7647.12
438.364	7880.58
438.571	7849.86
438.778	7948.17
438.985	8669.05
439.192	8474.49
439.399	8675.2
439.606	8349.57
439.813	8839.03
440.02	9342.83
440.227	9314.16
440.433	9080.69
440.64	9418.61
440.847	9496.43
441.054	9414.51
441.261	10315.62
441.467	10192.74
441.674	10205.03
441.881	10631.01
442.088	10708.83
442.294	10491.74
442.501	10751.84
442.708	10968.92
442.914	11333.46
443.121	11947.85
443.328	11796.3
443.534	12504.9
443.741	12021.58
443.948	11937.61
444.154	12689.21
444.361	12808
444.568	12863.29
444.774	12934.97
444.981	12967.74
445.187	13506.35
445.394	13778.73
445.6	13864.75
445.807	15054.62
446.013	14296.87
446.22	14534.43
446.426	14956.32
446.633	15204.12
446.839	15836.94
447.046	15380.25
447.252	16058.12
447.459	16129.8
447.665	16230.15
447.871	16539.4
448.078	17606.39
448.284	16615.17
448.491	17049.34
448.697	17757.94
448.903	18269.93
449.11	18218.73
449.316	17735.41
449.522	17921.77
449.728	18542.31
449.935	18759.39
450.141	18618.08
450.347	19261.15
450.553	18734.82
450.76	18769.63
450.966	19490.52
451.172	19418.84
451.378	19721.94
451.584	19384.02
451.791	19779.28
451.997	20010.7
452.203	19947.22
452.409	20125.39
452.615	20029.13
452.821	19269.34
453.027	18898.66
453.233	20004.56
453.44	19379.93
453.646	19459.8
453.852	19721.94
454.058	19896.02
454.264	19291.87
454.47	19459.8
454.676	19224.28
454.882	19777.23
455.088	18116.33
455.294	18527.97
455.5	18732.77
455.705	18849.5
455.911	17919.73
456.117	17536.76
456.323	17612.53
456.529	16428.81
456.735	17280.76
456.941	16779.01
457.147	16451.33
457.352	16150.28
457.558	16076.55
457.764	16097.03
457.97	15513.36
458.176	15240.98
458.381	15263.51
458.587	14585.63
458.793	14749.47
458.999	13729.58
459.204	14815.01
459.41	14493.47
459.616	13512.5
459.821	13385.52
460.027	13516.59
460.233	13016.89
460.438	12707.65
460.644	12701.5
460.85	12199.75
461.055	11732.81
461.261	11749.2
461.466	11038.55
461.672	10643.29
461.878	11417.43
462.083	10743.64
462.289	10512.22
462.494	10305.38
462.7	9940.84
462.905	9766.76
463.111	9989.99
463.316	10108.77
463.522	9686.89
463.727	9688.94
463.932	9766.76
464.138	9586.54
464.343	9777
464.549	9299.83
464.754	9840.49
464.959	9717.61
465.165	9596.78
465.37	9164.66
465.575	8920.95
465.781	9377.65
465.986	9324.4
466.191	9033.59
466.397	8933.24
466.602	8388.48
466.807	8677.24
467.012	8732.54
467.218	8771.45
467.423	8505.21
467.628	8738.68
467.833	8963.96
468.038	8775.55
468.244	8726.39
468.449	8937.34
468.654	8486.78
468.859	8413.06
469.064	8427.39
469.269	8062.85
469.474	8161.16
469.679	8359.81
469.885	8046.47
470.09	8013.7
470.295	7985.03
470.5	8048.52
470.705	8103.81
470.91	7710.6
471.115	7864.2
471.32	7780.23
471.525	7884.68
471.73	7587.72
471.935	7534.48
472.139	7405.45
472.344	7475.09
472.549	7489.42
472.754	7131.03
472.959	6965.14
473.164	6946.71
473.369	6946.71
473.574	6965.14
473.778	7018.39
473.983	7038.87
474.188	7018.39
474.393	6598.56
474.598	6733.72
474.802	6629.27
475.007	6473.63
475.212	6596.51
475.417	6277.02
475.621	6322.08
475.826	6559.64
476.031	6317.98
476.235	6258.59
476.44	6195.11
476.645	6154.15
476.849	6135.71
477.054	6064.04
477.259	5951.4
477.463	5945.25
477.668	5898.15
477.872	6029.22
478.077	5816.23
478.282	5527.47
478.486	5576.62
478.691	5531.56
478.895	5609.39
479.1	5427.12
479.304	5498.8
479.509	5287.86
479.713	5588.91
479.918	5394.35
480.122	5226.42
480.326	5224.37
480.531	5445.55
480.735	5363.63
480.94	5142.45
481.144	5203.89
481.348	5119.92
481.553	5171.12
481.757	5058.48
481.961	5097.39
482.166	5189.55
482.37	5021.62
482.574	5072.82
482.778	5175.22
482.983	5144.5
483.187	5210.03
483.391	5081.01
483.595	5277.62
483.8	4935.6
484.004	5140.4
484.208	5144.5
484.412	4997.04
484.616	5207.98
484.821	5095.35
485.025	5115.83
485.229	5040.05
485.433	5097.39
485.637	5019.57
485.841	4995
486.045	4995
486.249	5248.94
486.453	5003.19
486.657	4990.9
486.861	5228.46
487.065	4958.13
487.269	5091.25
487.473	5091.25
487.677	5216.18
487.881	5205.94
488.085	5169.07
488.289	5212.08
488.493	5070.77
488.697	5134.26
488.901	5179.31
489.105	5154.74
489.309	5187.5
489.512	5150.64
489.716	5181.36
489.92	5291.95
490.124	5007.28
490.328	5349.29
490.531	5218.22
490.735	5257.14
490.939	5300.14
491.143	5334.96
491.346	5283.76
491.55	5314.48
491.754	5453.74
491.958	5365.68
492.161	5463.98
492.365	5472.17
492.569	5371.82
492.772	5504.94
492.976	5414.83
493.18	5658.54
493.383	5625.77
493.587	5599.15
493.79	5603.24
493.994	5621.67
494.197	5599.15
494.401	5646.25
494.605	5584.81
494.808	5810.09
495.012	5777.32
495.215	5896.1
495.419	5916.58
495.622	5902.25
495.825	6012.84
496.029	6072.23
496.232	6180.77
496.436	6266.78
496.639	6277.02
496.843	6172.58
497.046	6416.29
497.249	6354.85
497.453	6596.51
497.656	6590.36
497.859	6619.03
498.063	6680.47
498.266	6770.58
498.469	6784.92
498.673	6883.22
498.876	6979.48
499.079	6907.8
499.282	6963.09
499.485	7194.51
499.689	7333.78
499.892	7417.74
500.095	7440.27
500.298	7628.68
500.501	7522.19
500.705	7851.91
500.908	7917.45
501.111	7911.3
501.314	8009.61
501.517	8064.9
501.72	8249.22
501.923	8206.21
502.126	8476.54
502.329	8546.17
502.532	8339.33
502.735	8585.08
502.938	8931.19
503.141	8753.02
503.344	9000.82
503.547	9082.74
503.75	9023.35
503.953	9398.13
504.156	9381.74
504.359	9463.66
504.562	9602.93
504.765	9840.49
504.968	9983.85
505.17	10098.53
505.373	10123.11
505.576	10116.97
505.779	10352.48
505.982	10415.97
506.185	10639.2
506.387	10807.13
506.59	10708.83
506.793	11114.33
506.996	11083.61
507.198	11274.07
507.401	11487.06
507.604	11454.29
507.807	11708.24
508.009	11566.93
508.212	11951.95
508.415	12226.37
508.617	12433.22
508.82	12420.93
509.022	12289.86
509.225	12756.8
509.428	12805.95
509.63	13207.35
509.833	13150.01
510.035	13467.44
510.238	13319.99
510.44	13354.8
510.643	13772.59
510.845	13850.41
511.048	13854.51
511.25	14212.9
511.453	14092.07
511.655	14698.27
511.858	14569.25
512.06	14722.85
512.262	15001.37
512.465	15150.87
512.667	15636.24
512.87	15562.51
513.072	15640.34
513.274	15945.48
513.477	16297.74
513.679	16275.21
513.881	16572.16
514.084	16742.14
514.286	16848.64
514.488	16963.33
514.69	17407.73
514.893	17532.66
515.095	17590
515.297	18056.94
515.499	17964.78
515.701	18018.03
515.904	18757.35
516.106	18700
516.308	18671.33
516.51	18779.87
516.712	19039.97
516.914	19363.54
517.116	19656.4
517.318	19828.43
517.52	19748.56
517.722	20309.71
517.925	20543.17
518.127	20393.67
518.329	20801.22
518.531	20664
518.733	21210.81
518.935	21505.72
519.136	21622.45
519.338	21993.14
519.54	22081.2
519.742	22197.93
519.944	22509.22
520.146	22763.17
520.348	22742.69
520.55	22828.71
520.752	23146.14
520.954	23641.75
521.155	23674.52
521.357	24026.77
521.559	24370.83
521.761	24549
521.963	24561.29
522.164	24551.05
522.366	25011.84
522.568	25030.27
522.77	25513.59
522.971	25710.2
523.173	25544.31
523.375	25904.76
523.576	25761.4
523.778	26050.16
523.98	26605.16
524.181	26752.62
524.383	26801.77
524.584	27254.37
524.786	27203.17
524.988	27006.56
525.189	27491.93
525.391	27297.38
525.592	27639.39
525.794	27934.29
525.995	27780.7
526.197	27911.77
526.398	28153.43
526.6	28417.61
526.801	28446.29
527.003	28386.89
527.204	28591.69
527.406	29032
527.607	28837.45
527.808	29394.5
528.01	29201.99
528.211	29177.41
528.412	29699.64
528.614	29883.96
528.815	29826.62
529.016	29732.41
529.218	29754.94
529.419	29830.71
529.62	29992.5
529.822	29822.52
530.023	29974.07
530.224	30051.89
530.425	30152.24
530.626	29976.12
530.828	29957.69
531.029	30748.2
531.23	30344.75
531.431	30682.67
531.632	30537.26
531.833	30668.33
532.035	30686.76
532.236	30658.09
532.437	30877.22
532.638	30488.11
532.839	30844.46
533.04	30709.29
533.241	30557.74
533.442	31104.55
533.643	31188.52
533.844	30950.95
534.045	31194.66
534.246	30881.32
534.447	31307.3
534.648	31053.35
534.849	31178.28
535.05	31088.17
535.251	30920.23
535.451	30866.98
535.652	31133.22
535.853	31020.58
536.054	31073.83
536.255	31194.66
536.456	30719.53
536.657	31651.36
536.857	31266.34
537.058	31077.93
537.259	31540.77
537.46	30918.18
537.66	31159.84
537.861	31206.95
538.062	31043.11
538.263	31536.67
538.463	31333.92
538.664	31442.46
538.865	31186.47
539.065	31528.48
539.266	31125.03
539.466	31280.67
539.667	31012.39
539.868	31561.25
540.068	31366.69
540.269	31110.69
540.469	31778.33
540.67	31163.94
540.87	31028.77
541.071	31045.16
541.271	31344.16
541.472	31319.59
541.672	31338.02
541.873	31041.06
542.073	30670.38
542.274	31288.87
542.474	31489.57
542.675	30924.33
542.875	31278.63
543.075	31421.98
543.276	30963.24
543.476	31417.89
543.676	31223.33
543.877	31092.26
544.077	31440.42
544.277	30760.49
544.478	31104.55
544.678	31295.01
544.878	31497.76
545.078	31499.81
545.279	31041.06
545.479	31178.28
545.679	31413.79
545.879	31135.27
546.079	31082.02
546.28	31258.15
546.48	30903.85
546.68	31061.54
546.88	31147.56
547.08	31385.12
547.28	31077.93
547.48	31032.87
547.68	31424.03
547.88	30912.04
548.081	31135.27
548.281	31282.72
548.481	31127.08
548.681	31628.83
548.881	31301.15
549.081	31559.2
549.28	30684.72
549.48	31227.43
549.68	31319.59
549.88	31305.25
550.08	31094.31
550.28	31305.25
550.48	30758.44
550.68	31157.8
550.88	31120.93
551.08	31360.55
551.279	31252
551.479	30948.9
551.679	31055.4
551.879	30694.96
552.079	31354.4
552.278	30955.05
552.478	31282.72
552.678	30895.66
552.878	31165.99
553.077	30823.98
553.277	30502.45
553.477	31288.87
553.676	31053.35
553.876	30826.03
554.076	31063.59
554.275	30928.42
554.475	30363.18
554.674	31008.29
554.874	30809.64
555.074	30744.11
555.273	30545.45
555.473	31053.35
555.672	30709.29
555.872	30682.67
556.071	30852.65
556.271	31026.73
556.47	30627.37
556.67	30293.55
556.869	30584.37
557.068	30455.34
557.268	30191.16
557.467	30539.31
557.667	30543.41
557.866	30197.3
558.065	30242.35
558.265	30008.89
558.464	30078.52
558.663	30510.64
558.863	29824.57
559.062	30666.28
559.261	30096.95
559.461	30373.42
559.66	29734.46
559.859	30000.69
560.058	29912.63
560.258	29906.49
560.457	29500.99
560.656	29765.18
560.855	29482.56
561.054	29969.97
561.253	29394.5
561.453	29507.13
561.652	29752.89
561.851	29650.49
562.05	29488.7
562.249	29234.75
562.448	29625.92
562.647	29261.38
562.846	29050.44
563.045	29511.23
563.244	28782.15
563.443	29085.25
563.642	29195.84
563.841	28978.76
564.04	28761.67
564.239	29288
564.438	28894.79
564.637	29292.1
564.836	29085.25
565.035	28438.09
565.234	28915.27
565.432	28761.67
565.631	28653.13
565.83	28507.72
566.029	28669.51
566.228	28296.78
566.427	28235.35
566.625	27934.29
566.824	28104.28
567.023	28329.55
567.222	27778.65
567.42	27967.06
567.619	28098.13
567.818	27838.04
568.016	27852.37
568.215	28026.45
568.414	27649.63
568.612	27797.08
568.811	27311.71
569.01	27688.54
569.208	27135.59
569.407	27532.89
569.605	27145.83
569.804	27475.55
570.002	26838.63
570.201	27065.95
570.4	27164.26
570.598	26963.56
570.797	26746.47
570.995	27025
571.193	26545.77
571.392	26785.38
571.59	26568.3
571.789	26551.91
571.987	26488.43
572.186	26549.87
572.384	26320.49
572.582	26127.99
572.781	26504.81
572.979	26117.75
573.177	26302.06
573.376	26111.6
573.574	25730.68
573.772	25822.84
573.971	25603.71
574.169	25572.99
574.367	25560.7
574.565	25554.55
574.763	25151.1
574.962	25534.07
575.16	24942.21
575.358	25276.03
575.556	24872.58
575.754	25351.81
575.952	24895.11
576.151	24950.4
576.349	24671.88
576.547	24954.5
576.745	24569.48
576.943	24868.48
577.141	24612.49
577.339	24569.48
577.537	24395.4
577.735	24288.91
577.933	24137.36
578.131	24446.6
578.329	24090.26
578.527	23879.32
578.725	23934.61
578.923	24227.47
579.121	23805.59
579.319	23961.23
579.516	23764.63
579.714	23907.99
579.912	23381.66
580.11	23717.53
580.308	23453.34
580.506	22996.64
580.704	23064.22
580.901	23365.28
581.099	23119.52
581.297	23062.18
581.495	22900.39
581.692	23254.69
581.89	23031.46
582.088	22875.81
582.285	22750.88
582.483	22802.08
582.681	22615.72
582.878	22687.4
583.076	22269.61
583.274	22503.08
583.471	22066.86
583.669	22009.52
583.866	22109.87
584.064	22199.98
584.262	21954.22
584.459	22570.66
584.657	22036.14
584.854	21868.21
585.052	21499.58
585.249	21939.89
585.447	22017.71
585.644	21182.14
585.841	21642.93
586.039	21671.61
586.236	21311.16
586.434	21477.05
586.631	21341.88
586.828	21284.54
587.026	21108.41
587.223	21032.64
587.42	21001.92
587.618	21094.08
587.815	20842.18
588.012	20948.67
588.21	20659.91
588.407	20899.52
588.604	20512.45
588.801	20883.14
588.999	20543.17
589.196	20369.1
589.393	20438.73
589.59	20219.6
589.787	20324.04
589.984	20295.37
590.182	20043.47
590.379	20330.19
590.576	20174.54
590.773	19715.8
590.97	19957.46
591.167	19754.71
591.364	19715.8
591.561	19902.16
591.758	19648.21
591.955	19558.1
592.152	19883.73
592.349	19533.53
592.546	19654.36
592.743	19498.71
592.94	19232.47
593.137	19318.49
593.334	19347.16
593.531	18861.79
593.727	19015.39
593.924	19166.94
594.121	19125.98
594.318	19113.69
594.515	18956
594.712	18994.91
594.908	18530.02
595.105	18761.44
595.302	18728.67
595.499	18751.2
595.696	18626.28
595.892	18413.29
596.089	18515.69
596.286	18505.45
596.482	18657
596.679	18085.61
596.876	18374.38
597.072	18120.43
597.269	18527.97
597.466	18093.8
597.662	18042.6
597.859	18151.15
598.055	18302.7
598.252	17778.42
598.448	17919.73
598.645	17770.22
598.841	17585.91
599.038	17938.16
599.234	17608.44
599.431	17557.24
599.627	17399.54
599.824	17473.27
600.02	17309.43
600.217	17157.88
600.413	17190.65
600.609	17321.72
600.806	17059.58
601.002	17342.2
601.198	17045.24
601.395	16760.58
601.591	16848.64
601.787	17051.39
601.984	16789.25
602.18	17080.06
602.376	16647.94
602.572	16797.44
602.769	16709.38
602.965	16279.3
603.161	16426.76
603.357	16353.03
603.553	16410.37
603.75	16426.76
603.946	16254.73
604.142	16142.09
604.338	15931.15
604.534	16150.28
604.73	16107.27
604.926	16037.64
605.122	16164.62
605.318	15910.67
605.514	15724.3
605.71	15716.11
605.906	15931.15
606.102	15585.04
606.298	15595.28
606.494	15312.66
606.69	15691.54
606.886	15640.34
607.082	15406.87
607.278	15611.67
607.474	15230.74
607.67	15478.55
607.866	15109.91
608.062	15214.36
608.257	15363.86
608.453	15339.29
608.649	15210.26
608.845	14946.08
609.041	15032.09
609.236	14956.32
609.432	14999.32
609.628	14737.18
609.824	14952.22
610.019	14661.41
610.215	14792.48
610.411	14798.62
610.606	14493.47
610.802	14376.74
610.998	14661.41
611.193	14530.34
611.389	14487.33
611.584	14339.88
611.78	14231.33
611.976	14151.46
612.171	14135.08
612.367	14202.66
612.562	13954.86
612.758	14067.5
612.953	13897.52
613.149	14163.75
613.344	13934.38
613.539	14116.65
613.735	13983.53
613.93	13944.62
614.126	13985.58
614.321	14012.2
614.517	14032.68
614.712	13750.06
614.907	13545.27
615.103	13584.18
615.298	13659.95
615.493	13913.9
615.688	13393.72
615.884	13698.86
616.079	13346.61
616.274	13852.46
616.47	13498.16
616.665	13279.03
616.86	13317.94
617.055	13201.21
617.25	13455.15
617.445	13360.95
617.641	13014.84
617.836	13346.61
618.031	12814.14
618.226	13113.14
618.421	13129.53
618.616	12992.31
618.811	12726.08
619.006	13047.61
619.201	12683.07
619.396	12814.14
619.591	12611.39
619.786	12871.48
619.981	12527.42
620.176	12648.25
620.371	12314.44
620.566	12347.2
620.761	12470.08
620.956	12279.62
621.151	12150.6
621.346	12404.55
621.541	12171.08
621.735	12193.61
621.93	11913.03
622.125	11910.99
622.32	11720.53
622.515	11867.98
622.709	11648.85
622.904	11765.58
623.099	11550.54
623.294	11663.18
623.488	11509.58
623.683	11485.01
623.878	11474.77
624.072	11542.35
624.267	11267.92
624.462	11085.65
624.656	11069.27
624.851	11042.65
625.046	10950.49
625.24	10954.58
625.435	10891.1
625.629	10809.18
625.824	10870.62
626.018	10708.83
626.213	10610.53
626.407	10581.85
626.602	10487.65
626.796	10368.87
626.991	10456.93
627.185	10315.62
627.38	10415.97
627.574	10217.32
627.768	10119.01
627.963	10207.08
628.157	9989.99
628.352	10051.43
628.546	9836.39
628.74	10076.01
628.935	9949.03
629.129	9975.66
629.323	9736.04
629.517	9434.99
629.712	9727.85
629.906	9443.18
630.1	9484.14
630.294	9467.76
630.489	9459.57
630.683	9594.73
630.877	9316.21
631.071	9199.48
631.265	9365.36
631.459	9207.67
631.653	9187.19
631.848	9140.08
632.042	9228.15
632.236	9181.04
632.43	9027.45
632.624	9049.97
632.818	8900.47
633.012	8920.95
633.206	8857.46
633.4	8900.47
633.594	8740.73
633.788	8757.11
633.982	8613.76
634.176	8775.55
634.369	8652.67
634.563	8550.27
634.757	8572.8
634.951	8462.21
635.145	8482.69
635.339	8302.47
635.533	8374.14
635.726	8417.15
635.92	8259.46
636.114	8083.33
636.308	8314.75
636.501	8120.2
636.695	8112
636.889	8001.41
637.083	7913.35
637.276	7751.56
637.47	8054.66
637.664	7880.58
637.857	7882.63
638.051	7761.8
638.244	7720.84
638.438	7626.64
638.632	7536.52
638.825	7538.57
639.019	7751.56
639.212	7466.89
639.406	7417.74
639.599	7540.62
639.793	7477.13
639.986	7319.44
640.18	7405.45
640.373	7032.72
640.567	7085.97
640.76	7126.93
640.954	7094.16
641.147	7157.65
641.34	7014.29
641.534	7008.15
641.727	7067.54
641.92	6954.9
642.114	6823.83
642.307	6746.01
642.5	6983.57
642.694	6565.79
642.887	6834.07
643.08	6860.7
643.273	6633.37
643.467	6643.61
643.66	6569.88
643.853	6404
644.046	6434.72
644.239	6340.51
644.432	6320.03
644.626	6117.28
644.819	6332.32
645.012	6309.79
645.205	6244.26
645.398	6025.12
645.591	6002.6
645.784	6166.43
645.977	5926.82
646.17	6152.1
646.363	6049.7
646.556	5867.43
646.749	5855.14
646.942	5719.98
647.135	5875.62
647.328	5855.14
647.521	5867.43
647.714	5744.55
647.907	5736.36
648.099	5767.08
648.292	5484.46
648.485	5681.07
648.678	5556.14
648.871	5550
649.064	5550
649.256	5494.7
649.449	5371.82
649.642	5390.25
649.835	5371.82
650.027	5263.28
650.22	5466.03
650.413	5285.81
650.605	5306.29
650.798	5236.66
650.991	5189.55
651.183	5220.27
651.376	5246.9
651.568	5021.62
651.761	5142.45
651.954	4999.09
652.146	5066.67
652.339	4906.93
652.531	4837.3
652.724	4882.36
652.916	4868.02
653.109	4786.1
653.301	4806.58
653.494	4771.77
653.686	4784.05
653.879	4896.69
654.071	4712.38
654.263	4691.9
654.456	4777.91
654.648	4857.78
654.84	4648.89
655.033	4614.07
655.225	4509.63
655.417	4476.86
655.61	4566.97
655.802	4499.39
655.994	4403.13
656.186	4444.09
656.379	4370.37
656.571	4362.17
656.763	4362.17
656.955	4315.07
657.148	4300.73
657.34	4165.57
657.532	4165.57
657.724	4130.75
657.916	4050.88
658.108	4153.28
658.3	4061.12
658.492	4106.18
658.684	4005.83
658.876	3999.68
659.068	3999.68
659.26	3893.19
659.452	3985.35
659.644	3952.58
659.836	3921.86
660.028	3897.28
660.22	3825.61
660.412	3864.52
660.604	3692.49
660.796	3782.6
660.988	3758.02
661.18	3712.97
661.372	3686.34
661.563	3723.21
661.755	3538.89
661.947	3676.1
662.139	3387.34
662.331	3614.66
662.522	3524.55
662.714	3557.32
662.906	3686.34
663.097	3510.22
663.289	3565.51
663.481	3518.41
663.673	3545.03
663.864	3475.4
664.056	3305.42
664.247	3354.57
664.439	3180.5
664.631	3241.93
664.822	3358.67
665.014	3217.36
665.205	3352.52
665.397	3106.77
665.588	3135.44
665.78	3164.11
665.971	3213.26
666.163	3270.61
666.354	3129.3
666.546	3080.14
666.737	3033.04
666.929	2949.07
667.12	3067.86
667.311	3020.75
667.503	3002.32
667.694	3016.66
667.885	3008.47
668.077	3022.8
668.268	2985.94
668.459	2944.98
668.651	2994.13
668.842	2906.07
669.033	2926.55
669.224	2856.92
669.416	3004.37
669.607	2772.95
669.798	2861.01
669.989	2799.57
670.18	2889.68
670.371	2758.61
670.563	2830.29
670.754	2775
670.945	2891.73
671.136	2795.48
671.327	2781.14
671.518	2734.04
671.709	2674.65
671.9	2721.75
672.091	2641.88
672.282	2705.37
672.473	2744.28
672.664	2574.3
672.855	2709.46
673.046	2574.3
673.237	2686.93
673.428	2648.02
673.619	2693.08
673.809	2676.7
674	2643.93
674.191	2660.31
674.382	2639.83
674.573	2467.8
674.764	2467.8
674.954	2529.24
675.145	2488.28
675.336	2576.34
675.527	2566.1
675.717	2502.62
675.908	2453.47
676.099	2482.14
676.289	2451.42
676.48	2422.75
676.671	2420.7
676.861	2533.34
677.052	2519
677.243	2410.46
677.433	2480.09
677.624	2453.47
677.814	2478.04
678.005	2428.89
678.195	2385.88
678.386	2344.92
678.576	2461.66
678.767	2389.98
678.957	2385.88
679.148	2394.08
679.338	2394.08
679.529	2389.98
679.719	2332.64
679.909	2480.09
680.1	2398.17
680.29	2283.49
680.481	2301.92
680.671	2465.75
680.861	2420.7
681.052	2326.49
681.242	2357.21
681.432	2346.97
681.622	2279.39
681.813	2320.35
682.003	2320.35
682.193	2269.15
682.383	2273.25
682.573	2363.36
682.764	2242.53
682.954	2256.86
683.144	2279.39
683.334	2377.69
683.524	2287.58
683.714	2228.19
683.904	2271.2
684.094	2277.34
684.284	2263.01
684.474	2353.12
684.664	2338.78
684.854	2176.99
685.044	2271.2
685.234	2389.98
685.424	2328.54
685.614	2176.99
685.804	2267.1
685.994	2252.77
686.184	2287.58
686.374	2103.26
686.564	2181.09
686.753	2340.83
686.943	2185.18
687.133	2127.84
687.323	2187.23
687.513	2254.81
687.702	2258.91
687.892	2220
688.082	2226.14
688.272	2170.85
688.461	2254.81
688.651	2152.42
688.841	2105.31
689.03	2181.09
689.22	2207.71
689.41	2162.65
689.599	2187.23
689.789	2136.03
689.979	2265.05
690.168	2187.23
690.358	2166.75
690.547	2033.63
690.737	2197.47
690.926	2086.88
691.116	2217.95
691.305	2131.94
691.495	2144.22
691.684	2086.88
691.874	2109.41
692.063	2154.46
692.252	2195.42
692.442	2131.94
692.631	2017.25
692.82	2072.54
693.01	2166.75
693.199	2082.78
693.388	2107.36
693.578	2183.13
693.767	2131.94
693.956	2119.65
694.146	2260.96
694.335	2179.04
694.524	2209.76
694.713	2148.32
694.902	2154.46
695.092	2193.37
695.281	2179.04
695.47	2176.99
695.659	2207.71
695.848	2131.94
696.037	2156.51
696.226	2142.18
696.415	2197.47
696.604	2070.5
696.793	2162.65
696.982	2150.37
697.171	2234.33
697.36	2045.92
697.549	2193.37
697.738	2107.36
697.927	2097.12
698.116	2207.71
698.305	2136.03
698.494	2197.47
698.683	2140.13
698.872	2095.07
699.061	2199.52
699.25	2115.55
699.438	2213.85
699.627	2113.5
699.816	2162.65
700.005	2172.89
700.193	2168.8
700.382	2168.8
700.571	2099.17
700.76	2142.18
700.948	2209.76
701.137	2123.74
701.326	2240.48
701.514	2158.56
701.703	2088.93
701.892	2054.11
702.08	2133.98
702.269	2097.12
702.457	2064.35
702.646	2072.54
702.834	2131.94
703.023	2041.82
703.212	2111.46
703.4	2095.07
703.589	1974.24
703.777	2136.03
703.965	1992.67
704.154	2050.02
704.342	2072.54
704.531	2084.83
704.719	2041.82
704.907	2045.92
705.096	2093.02
705.284	2052.06
705.472	2107.36
705.661	1933.28
705.849	2019.3
706.037	2054.11
706.226	1937.38
706.414	2009.06
706.602	1923.04
706.79	2000.87
706.979	2011.11
707.167	1994.72
707.355	1964
707.543	1937.38
707.731	2041.82
707.919	1984.48
708.107	1959.91
708.296	1982.43
708.484	1951.71
708.672	2000.87
708.86	1937.38
709.048	2019.3
709.236	1961.95
709.424	1882.08
709.612	1898.47
709.8	1869.8
709.988	1812.45
710.176	1877.99
710.364	1951.71
710.551	1972.19
710.739	1898.47
710.927	1845.22
711.115	1863.65
711.303	1949.67
711.491	1837.03
711.679	1832.93
711.866	1765.35
712.054	1910.75
712.242	1761.25
712.43	1910.75
712.617	1837.03
712.805	1834.98
712.993	1767.4
713.181	1681.38
713.368	1920.99
713.556	1730.53
713.744	1796.07
713.931	1851.36
714.119	1734.63
714.306	1779.68
714.494	1822.69
714.682	1714.15
714.869	1781.73
715.057	1695.72
715.244	1714.15
715.432	1818.6
715.619	1632.23
715.807	1677.29
715.994	1755.11
716.182	1591.27
716.369	1697.77
716.556	1583.08
716.744	1757.16
716.931	1648.61
717.119	1665
717.306	1603.56
717.493	1628.14
717.681	1615.85
717.868	1585.13
718.055	1607.66
718.242	1554.41
718.43	1632.23
718.617	1521.64
718.804	1513.45
718.991	1570.79
719.179	1656.81
719.366	1613.8
719.553	1570.79
719.74	1556.46
719.927	1574.89
720.114	1490.92
720.301	1566.7
720.488	1509.35
720.676	1513.45
720.863	1505.26
721.05	1556.46
721.237	1529.83
721.424	1464.3
721.611	1632.23
721.798	1486.83
721.985	1535.98
722.172	1517.54
722.358	1456.11
722.545	1538.02
722.732	1495.02
722.919	1454.06
723.106	1492.97
723.293	1470.44
723.48	1447.91
723.667	1507.3
723.853	1439.72
724.04	1488.87
724.227	1513.45
724.414	1409
724.6	1411.05
724.787	1312.75
724.974	1515.5
725.161	1458.15
725.347	1341.42
725.534	1353.71
725.72	1372.14
725.907	1437.67
726.094	1406.95
726.28	1431.53
726.467	1290.22
726.653	1394.67
726.84	1394.67
727.027	1376.23
727.213	1361.9
727.4	1402.86
727.586	1341.42
727.773	1384.43
727.959	1343.47
728.145	1411.05
728.332	1300.46
728.518	1263.6
728.705	1306.6
728.891	1273.84
729.077	1316.84
729.264	1255.4
729.45	1398.76
729.636	1165.29
729.823	1173.49
730.009	1345.52
730.195	1310.7
730.382	1316.84
730.568	1196.01
730.754	1230.83
730.94	1339.37
731.126	1316.84
731.313	1224.69
731.499	1263.6
731.685	1255.4
731.871	1193.97
732.057	1255.4
732.243	1224.69
732.429	1208.3
732.615	1185.77
732.801	1214.45
732.987	1200.11
733.173	1239.02
733.359	1251.31
733.545	1251.31
733.731	1148.91
733.917	1206.25
734.103	1200.11
734.289	1193.97
734.475	1212.4
734.661	1189.87
734.847	1140.72
735.033	1144.81
735.219	1155.05
735.404	1150.96
735.59	1200.11
735.776	1132.53
735.962	1159.15
736.148	1101.81
736.333	1132.53
736.519	1134.57
736.705	1146.86
736.89	1157.1
737.076	1099.76
737.262	1126.38
737.447	1107.95
737.633	1120.24
737.819	1142.77
738.004	1062.9
738.19	1107.95
738.375	1202.16
738.561	1064.94
738.747	1142.77
738.932	1116.14
739.118	1124.33
739.303	1105.9
739.489	1050.61
739.674	1148.91
739.859	1124.33
740.045	1103.86
740.23	1105.9
740.416	1062.9
740.601	1101.81
740.786	983.02
740.972	1075.18
741.157	1105.9
741.342	1036.27
741.528	1060.85
741.713	987.12
741.898	958.45
742.084	1021.94
742.269	1001.46
742.454	1009.65
742.639	1030.13
742.824	954.35
743.01	1052.66
743.195	968.69
743.38	907.25
743.565	1034.22
743.75	1021.94
743.935	956.4
744.12	1009.65
744.305	1001.46
744.49	940.02
744.675	903.15
744.86	995.31
745.045	993.26
745.23	931.83
745.415	894.96
745.6	894.96
745.785	870.39
745.97	935.92
746.155	899.06
746.34	960.5
746.525	892.91
746.71	929.78
746.895	878.58
747.079	835.57
747.264	954.35
747.449	925.68
747.634	921.59
747.819	804.85
748.003	841.72
748.188	837.62
748.373	837.62
748.557	800.76
748.742	907.25
748.927	815.09
749.111	806.9
749.296	716.79
749.481	821.24
749.665	784.37
749.85	845.81
750.034	796.66
750.219	886.77
750.404	815.09
750.588	747.51
750.773	788.47
750.957	780.28
751.141	839.67
751.326	733.17
751.51	772.08
751.695	741.36
751.879	796.66
752.064	776.18
752.248	741.36
752.432	690.17
752.617	722.93
752.801	741.36
752.985	772.08
753.17	761.84
753.354	700.41
753.538	710.65
753.722	718.84
753.907	741.36
754.091	684.02
754.275	755.7
754.459	653.3
754.643	669.69
754.828	684.02
755.012	653.3
755.196	659.45
755.38	636.92
755.564	571.38
755.748	772.08
755.932	661.49
756.116	684.02
756.3	552.95
756.484	645.11
756.668	733.17
756.852	600.05
757.036	657.4
757.22	634.87
757.404	653.3
757.588	632.82
757.772	624.63
757.956	600.05
758.14	643.06
758.323	567.29
758.507	544.76
758.691	602.1
758.875	581.62
759.059	555
759.242	557.05
759.426	595.96
759.61	591.86
759.794	497.66
759.977	571.38
760.161	602.1
760.345	575.48
760.528	610.29
760.712	483.32
760.895	546.81
761.079	503.8
761.263	546.81
761.446	557.05
761.63	534.52
761.813	464.89
761.997	530.42
762.18	524.28
762.364	600.05
762.547	471.03
762.731	563.19
762.914	454.65
763.098	546.81
763.281	526.33
763.464	540.66
763.648	555
763.831	481.27
764.015	444.41
764.198	479.22
764.381	518.14
764.564	419.83
764.748	481.27
764.931	471.03
765.114	466.94
765.297	468.98
765.481	466.94
765.664	444.41
765.847	423.93
766.03	511.99
766.213	436.22
766.397	405.5
766.58	507.9
766.763	475.13
766.946	464.89
767.129	481.27
767.312	421.88
767.495	466.94
767.678	473.08
767.861	438.27
768.044	462.84
768.227	423.93
768.41	536.57
768.593	489.46
768.776	397.31
768.959	430.07
769.142	526.33
769.324	434.17
769.507	378.87
769.69	425.98
769.873	399.35
770.056	487.42
770.239	452.6
770.421	413.69
770.604	440.31
770.787	475.13
770.97	419.83
771.152	403.45
771.335	407.55
771.518	468.98
771.7	428.03
771.883	460.79
772.066	423.93
772.248	485.37
772.431	358.39
772.613	444.41
772.796	346.11
772.978	372.73
773.161	444.41
773.343	387.07
773.526	337.91
773.708	364.54
773.891	378.87
774.073	415.74
774.256	311.29
774.438	403.45
774.621	362.49
774.803	382.97
774.985	411.64
775.168	354.3
775.35	362.49
775.532	352.25
775.715	352.25
775.897	337.91
776.079	256
776.261	356.35
776.444	356.35
776.626	299
776.808	342.01
776.99	372.73
777.173	403.45
777.355	317.44
777.537	403.45
777.719	374.78
777.901	354.3
778.083	274.43
778.265	358.39
778.447	307.2
778.629	299
778.811	323.58
778.993	335.87
779.175	333.82
779.357	348.15
779.539	317.44
779.721	329.72
779.903	354.3
780.085	276.48
780.267	315.39
780.449	225.28
780.631	321.53
780.812	348.15
780.994	317.44
781.176	217.08
781.358	288.76
781.54	337.91
781.721	325.63
781.903	290.81
782.085	239.61
782.267	217.08
782.448	241.66
782.63	233.47
782.812	323.58
782.993	186.37
783.175	288.76
783.357	229.37
783.538	280.57
783.72	260.09
783.901	274.43
784.083	284.67
784.264	229.37
784.446	194.56
784.627	206.84
784.809	280.57
784.99	231.42
785.172	256
785.353	303.1
785.535	190.46
785.716	217.08
785.897	221.18
786.079	258.04
786.26	243.71
786.441	206.84
786.623	235.52
786.804	231.42
786.985	217.08
787.167	182.27
787.348	204.8
787.529	204.8
787.71	182.27
787.891	235.52
788.073	116.73
788.254	256
788.435	145.41
788.616	233.47
788.797	221.18
788.978	176.13
789.159	266.24
789.34	237.56
789.522	245.76
789.703	210.94
789.884	172.03
790.065	229.37
790.246	262.14
790.427	190.46
790.607	198.65
790.788	251.9
790.969	143.36
791.15	194.56
791.331	143.36
791.512	143.36
791.693	92.16
791.874	190.46
792.054	247.8
792.235	258.04
792.416	204.8
792.597	141.31
792.778	180.22
792.958	157.69
793.139	157.69
793.32	116.73
793.5	133.12
793.681	235.52
793.862	188.41
794.042	184.32
794.223	157.69
794.404	104.45
794.584	137.21
794.765	124.93
794.945	161.79
795.126	120.83
795.306	92.16
795.487	182.27
795.667	184.32
795.848	165.89
796.028	165.89
796.209	192.51
796.389	149.5
796.57	81.92
796.75	190.46
796.93	69.63
797.111	124.93
797.291	147.45
797.471	196.6
797.652	145.41
797.832	141.31
798.012	155.65
798.192	112.64
798.373	83.97
798.553	108.54
798.733	149.5
798.913	159.74
799.093	145.41
799.274	118.78
799.454	112.64
799.634	100.35
799.814	59.39
799.994	165.89
800.174	172.03
800.354	147.45
800.534	120.83
800.714	180.22
800.894	126.97
801.074	124.93
801.254	147.45
801.434	161.79
801.614	145.41
801.794	55.3
801.974	382.97
802.154	104.45
802.334	86.01
802.514	151.55
802.693	126.97
802.873	161.79
803.053	112.64
803.233	145.41
803.413	176.13
803.592	112.64
803.772	92.16
803.952	43.01
804.131	69.63
804.311	61.44
804.491	126.97
804.67	94.21
804.85	135.17
805.03	96.25
805.209	143.36
805.389	151.55
805.568	75.77
805.748	88.06
805.928	24.58
806.107	32.77
806.287	79.87
806.466	55.3
806.646	67.58
806.825	176.13
807.004	157.69
807.184	90.11
807.363	110.59
807.543	71.68
807.722	114.69
807.901	116.73
808.081	131.07
808.26	26.62
808.439	112.64
808.619	96.25
808.798	116.73
808.977	100.35
809.156	67.58
809.336	174.08
809.515	47.1
809.694	120.83
809.873	102.4
810.052	75.77
810.231	208.89
810.411	131.07
810.59	28.67
810.769	83.97
810.948	90.11
811.127	106.49
811.306	43.01
811.485	94.21
811.664	81.92
811.843	112.64
812.022	26.62
812.201	120.83
812.38	45.06
812.559	51.2
812.737	90.11
812.916	116.73
813.095	73.73
813.274	100.35
813.453	94.21
813.632	124.93
813.811	65.53
813.989	79.87
814.168	135.17
814.347	83.97
814.526	43.01
814.704	83.97
814.883	155.65
815.062	26.62
815.24	108.54
815.419	-0
815.598	149.5
815.776	26.62
815.955	102.4
816.133	14.34
816.312	124.93
816.49	112.64
816.669	34.82
816.847	49.15
817.026	133.12
817.204	118.78
817.383	36.86
817.561	67.58
817.74	98.3
817.918	18.43
818.097	75.77
818.275	61.44
818.453	71.68
818.632	100.35
818.81	22.53
818.988	63.49
819.167	65.53
819.345	116.73
819.523	55.3
819.701	-30.72
819.879	26.62
820.058	24.58
820.236	43.01
820.414	51.2
820.592	55.3
820.77	102.4
820.948	28.67
821.127	106.49
821.305	88.06
821.483	40.96
821.661	88.06
821.839	28.67
822.017	77.82
822.195	59.39
822.373	116.73
822.551	8.19
822.729	90.11
822.907	67.58
823.085	124.93
823.262	53.25
823.44	83.97
823.618	110.59
823.796	14.34
823.974	118.78
824.152	71.68
824.329	55.3
824.507	108.54
824.685	129.02
824.863	-32.77
825.04	16.38
825.218	49.15
825.396	104.45
825.574	106.49
825.751	-2.05
825.929	43.01
826.107	-0
826.284	143.36
826.462	114.69
826.639	20.48
826.817	36.86
826.994	57.34
827.172	47.1
827.349	14.34
827.527	69.63
827.704	112.64
827.882	34.82
828.059	-18.43
828.237	45.06
828.414	77.82
828.591	45.06
828.769	67.58
828.946	98.3
829.124	18.43
829.301	73.73
829.478	53.25
829.655	61.44
829.833	47.1
830.01	43.01
830.187	67.58
830.364	-51.2
830.542	55.3
830.719	34.82
830.896	-38.91
831.073	65.53
831.25	20.48
831.427	40.96
831.604	75.77
831.782	59.39
831.959	18.43
832.136	18.43
832.313	67.58
832.49	43.01
832.667	120.83
832.844	-12.29
833.021	-4.1
833.198	40.96
833.374	45.06
833.551	73.73
833.728	49.15
833.905	38.91
834.082	40.96
834.259	43.01
834.436	28.67
834.612	-6.14
834.789	57.34
834.966	51.2
835.143	61.44
835.319	55.3
835.496	12.29
835.673	49.15
835.85	63.49
836.026	57.34
836.203	63.49
836.38	18.43
836.556	61.44
836.733	43.01
836.909	18.43
837.086	45.06
837.262	26.62
837.439	57.34
837.616	59.39
837.792	2.05
837.968	-12.29
838.145	-20.48
838.321	28.67
838.498	73.73
838.674	61.44
838.851	22.53
839.027	20.48
839.203	49.15
839.38	24.58
839.556	81.92
839.732	61.44
839.909	22.53
840.085	-4.1
840.261	4.1
840.437	45.06
840.614	12.29
840.79	96.25
840.966	-26.62
841.142	6.14
841.318	63.49
841.494	6.14
841.671	40.96
841.847	73.73
842.023	106.49
842.199	-4.1
842.375	28.67
842.551	-73.73
842.727	47.1
842.903	34.82
843.079	69.63
843.255	2.05
843.431	18.43
843.607	30.72
843.783	-2.05
843.959	67.58
844.134	12.29
844.31	14.34
844.486	22.53
844.662	71.68
844.838	49.15
845.013	45.06
845.189	-43.01
845.365	38.91
845.541	12.29
845.716	4.1
845.892	116.73
846.068	122.88
846.244	47.1
846.419	73.73
846.595	57.34
846.77	51.2
846.946	4.1
847.122	55.3
847.297	10.24
847.473	53.25
847.648	86.01
847.824	-34.82
847.999	-45.06
848.175	16.38
848.35	-18.43
848.526	102.4
848.701	22.53
848.876	2.05
849.052	-10.24
849.227	20.48
849.403	-8.19
849.578	63.49
849.753	-28.67
849.929	53.25
850.104	40.96
850.279	26.62
850.454	12.29
850.63	-2.05
850.805	18.43
850.98	55.3
851.155	65.53
851.33	61.44
851.505	47.1
851.681	-4.1
851.856	94.21
852.031	18.43
852.206	24.58
852.381	6.14
852.556	63.49
852.731	28.67
852.906	63.49
853.081	6.14
853.256	-30.72
853.431	40.96
853.606	20.48
853.781	10.24
853.956	-4.1
854.131	61.44
854.305	-18.43
854.48	61.44
854.655	-22.53
854.83	-4.1
855.005	4.1
855.18	38.91
855.354	-6.14
855.529	32.77
855.704	6.14
855.879	-30.72
856.053	61.44
856.228	63.49
856.403	83.97
856.577	63.49
856.752	65.53
856.926	12.29
857.101	-12.29
857.276	83.97
857.45	77.82
857.625	-18.43
857.799	2.05
857.974	-14.34
858.148	2.05
858.323	-22.53
858.497	-18.43
858.672	-18.43
858.846	-10.24
859.02	20.48
859.195	-59.39
859.369	51.2
859.543	-18.43
859.718	40.96
859.892	8.19
860.066	38.91
860.241	-38.91
860.415	-2.05
860.589	-4.1
860.763	-2.05
860.938	71.68
861.112	-10.24
861.286	-6.14
861.46	51.2
861.634	-10.24
861.808	24.58
861.982	47.1
862.157	-8.19
862.331	67.58
862.505	14.34
862.679	4.1
862.853	18.43
863.027	20.48
863.201	38.91
863.375	24.58
863.549	51.2
863.722	-2.05
863.896	28.67
864.07	-69.63
864.244	-55.3
864.418	81.92
864.592	18.43
864.766	18.43
864.939	57.34
865.113	55.3
865.287	-22.53
865.461	24.58
865.634	30.72
865.808	-34.82
865.982	34.82
866.156	-45.06
866.329	-38.91
866.503	-32.77
866.676	-10.24
866.85	-22.53
867.024	51.2
867.197	34.82
867.371	67.58
867.544	28.67
867.718	-4.1
867.891	43.01
868.065	-75.77
868.238	16.38
868.412	-22.53
868.585	100.35
868.759	26.62
868.932	-22.53
869.105	-47.1
869.279	-0
869.452	-2.05
869.625	32.77
869.799	2.05
869.972	-73.73
870.145	-2.05
870.319	-26.62
870.492	4.1
870.665	-28.67
870.838	2.05
871.011	26.62
871.185	-63.49
871.358	26.62
871.531	20.48
871.704	-10.24
871.877	30.72
872.05	-43.01
872.223	14.34
872.396	141.31
872.569	16.38
872.742	6.14
872.915	-71.68
873.088	6.14
873.261	51.2
873.434	-10.24
873.607	24.58
873.78	28.67
873.953	-30.72
874.126	-30.72
874.299	-20.48
874.471	94.21
874.644	24.58
874.817	28.67
874.99	6.14
875.163	8.19
875.335	-6.14
875.508	-18.43
875.681	51.2
875.853	-30.72
876.026	79.87
876.199	-4.1
876.371	67.58
876.544	10.24
876.717	16.38
876.889	-36.86
877.062	26.62
877.234	45.06
877.407	28.67
877.579	28.67
877.752	77.82
877.924	2.05
878.097	2.05
878.269	6.14
878.442	-4.1
878.614	22.53
878.786	14.34
878.959	10.24
879.131	-10.24
879.303	-43.01
879.476	2.05
879.648	-20.48
879.82	-4.1
879.993	43.01
880.165	36.86
880.337	-18.43
880.509	2.05
880.681	-55.3
880.854	32.77
881.026	-22.53
881.198	-4.1
881.37	-2.05
881.542	81.92
881.714	43.01
881.886	-6.14
882.058	4.1
882.23	8.19
882.402	47.1
882.574	38.91
882.746	-4.1
882.918	65.53
883.09	8.19
883.262	-28.67
883.434	-4.1
883.606	10.24
883.778	51.2
883.95	-20.48
884.122	32.77
884.293	32.77
884.465	-61.44
884.637	28.67
884.809	2.05
884.98	77.82
885.152	88.06
885.324	-22.53
885.496	-16.38
885.667	-43.01
885.839	43.01
886.011	36.86
886.182	16.38
886.354	-0
886.525	26.62
886.697	69.63
886.869	-12.29
887.04	34.82
887.212	18.43
887.383	57.34
887.555	45.06
887.726	-36.86
887.897	-100.35
888.069	-12.29
888.24	-14.34
888.412	20.48
888.583	38.91
888.754	-32.77
888.926	-6.14
889.097	20.48
889.268	26.62
889.44	6.14
889.611	-116.73
889.782	18.43
889.953	10.24
890.125	51.2
890.296	-18.43
890.467	-14.34
890.638	-20.48
890.809	-18.43
890.98	-18.43
891.151	34.82
891.323	6.14
891.494	-63.49
891.665	-8.19
891.836	-28.67
892.007	75.77
892.178	57.34
892.349	22.53
892.52	20.48
892.691	34.82
892.862	75.77
893.032	-0
893.203	-34.82
893.374	24.58
893.545	59.39
893.716	-22.53
893.887	51.2
894.057	-16.38
894.228	30.72
894.399	-28.67
894.57	20.48
894.74	-12.29
894.911	47.1
895.082	20.48
895.253	-14.34
895.423	-34.82
895.594	-38.91
895.764	22.53
895.935	-8.19
896.106	-30.72
896.276	28.67
896.447	-34.82
896.617	34.82
896.788	55.3
896.958	-14.34
897.129	-28.67
897.299	-12.29
897.47	2.05
897.64	59.39
897.81	-73.73
897.981	34.82
898.151	-22.53
898.322	-16.38
898.492	2.05
898.662	-18.43
898.832	20.48
899.003	18.43
899.173	-10.24
899.343	-0
899.513	34.82
