Data from USB4F104151__118__13-55-02-447.txt Node

Date: Thu Mar 13 13:55:02 EDT 2025
User: louis
Spectrometer: USB4F10415
Trigger mode: 4
Integration Time (sec): 1.000000E-2
Scans to average: 1
Electric dark correction enabled: true
Nonlinearity correction enabled: false
Boxcar width: 0
XAxis mode: Wavelengths
Number of Pixels in Spectrum: 3648
>>>>>Begin Spectral Data<<<<<
178.204	-43.52
178.424	-43.52
178.644	-43.52
178.864	22.02
179.084	-84.48
179.304	-84.48
179.524	7.68
179.744	38.4
179.964	-10.75
180.184	42.5
180.404	-25.09
180.624	3.58
180.844	22.02
181.064	17.92
181.283	11.78
181.503	-33.28
181.723	9.73
181.943	-14.85
182.163	54.78
182.383	-35.33
182.602	-27.14
182.822	-33.28
183.042	-29.18
183.262	34.3
183.482	22.02
183.701	5.63
183.921	58.88
184.141	38.4
184.361	13.82
184.58	-6.66
184.8	65.02
185.02	112.13
185.239	13.82
185.459	42.5
185.679	9.73
185.898	-2.56
186.118	-45.57
186.338	101.89
186.557	40.45
186.777	-16.9
186.997	-72.19
187.216	65.02
187.436	73.21
187.655	-6.66
187.875	-2.56
188.095	22.02
188.314	22.02
188.534	34.3
188.753	32.26
188.973	54.78
189.192	5.63
189.412	50.69
189.631	13.82
189.851	-0.51
190.07	38.4
190.29	13.82
190.509	81.41
190.729	19.97
190.948	1.54
191.168	22.02
191.387	77.31
191.607	34.3
191.826	36.35
192.045	-4.61
192.265	42.5
192.484	110.08
192.704	54.78
192.923	26.11
193.142	5.63
193.362	-14.85
193.581	-37.38
193.8	-4.61
194.02	-27.14
194.239	-0.51
194.458	32.26
194.678	58.88
194.897	42.5
195.116	62.98
195.335	48.64
195.555	26.11
195.774	62.98
195.993	-29.18
196.212	1.54
196.432	-29.18
196.651	50.69
196.87	34.3
197.089	38.4
197.308	36.35
197.528	36.35
197.747	-18.94
197.966	11.78
198.185	87.55
198.404	79.36
198.623	87.55
198.842	75.26
199.062	120.32
199.281	11.78
199.5	-8.7
199.719	56.83
199.938	62.98
200.157	73.21
200.376	-31.23
200.595	38.4
200.814	-20.99
201.033	-0.51
201.252	56.83
201.471	56.83
201.69	-10.75
201.909	48.64
202.128	58.88
202.347	13.82
202.566	-10.75
202.785	7.68
203.004	-41.47
203.223	124.41
203.442	91.65
203.661	11.78
203.879	52.74
204.098	54.78
204.317	46.59
204.536	85.5
204.755	44.54
204.974	-33.28
205.193	-43.52
205.411	19.97
205.63	24.06
205.849	36.35
206.068	26.11
206.287	28.16
206.505	48.64
206.724	28.16
206.943	-14.85
207.162	108.03
207.381	44.54
207.599	-29.18
207.818	19.97
208.037	-37.38
208.255	-6.66
208.474	103.93
208.693	-4.61
208.911	9.73
209.13	38.4
209.349	77.31
209.567	-18.94
209.786	65.02
210.005	36.35
210.223	-61.95
210.442	-57.86
210.661	26.11
210.879	1.54
211.098	42.5
211.316	34.3
211.535	30.21
211.753	26.11
211.972	13.82
212.191	73.21
212.409	11.78
212.628	36.35
212.846	69.12
213.065	65.02
213.283	-2.56
213.502	-10.75
213.72	79.36
213.938	-10.75
214.157	-16.9
214.375	73.21
214.594	32.26
214.812	112.13
215.031	13.82
215.249	34.3
215.467	26.11
215.686	44.54
215.904	32.26
216.122	-31.23
216.341	62.98
216.559	60.93
216.778	89.6
216.996	-10.75
217.214	-27.14
217.432	40.45
217.651	52.74
217.869	52.74
218.087	-4.61
218.306	-37.38
218.524	83.45
218.742	40.45
218.96	54.78
219.179	36.35
219.397	36.35
219.615	67.07
219.833	36.35
220.051	89.6
220.27	38.4
220.488	60.93
220.706	93.69
220.924	1.54
221.142	28.16
221.36	19.97
221.578	28.16
221.796	26.11
222.015	-4.61
222.233	54.78
222.451	93.69
222.669	-16.9
222.887	11.78
223.105	-37.38
223.323	-20.99
223.541	3.58
223.759	19.97
223.977	52.74
224.195	26.11
224.413	50.69
224.631	-2.56
224.849	54.78
225.067	11.78
225.285	15.87
225.503	65.02
225.721	13.82
225.939	44.54
226.157	44.54
226.375	126.46
226.592	-4.61
226.81	52.74
227.028	67.07
227.246	-23.04
227.464	54.78
227.682	83.45
227.9	81.41
228.117	-18.94
228.335	-25.09
228.553	-2.56
228.771	30.21
228.989	50.69
229.206	3.58
229.424	13.82
229.642	5.63
229.86	3.58
230.077	-25.09
230.295	-14.85
230.513	46.59
230.731	3.58
230.948	58.88
231.166	36.35
231.384	65.02
231.601	48.64
231.819	-2.56
232.037	99.84
232.254	1.54
232.472	36.35
232.689	36.35
232.907	56.83
233.125	62.98
233.342	67.07
233.56	-0.51
233.777	26.11
233.995	34.3
234.213	81.41
234.43	67.07
234.648	34.3
234.865	7.68
235.083	60.93
235.3	48.64
235.518	54.78
235.735	60.93
235.953	48.64
236.17	-12.8
236.388	-49.66
236.605	-23.04
236.822	69.12
237.04	-27.14
237.257	67.07
237.475	7.68
237.692	69.12
237.909	-0.51
238.127	9.73
238.344	65.02
238.562	60.93
238.779	50.69
238.996	-23.04
239.214	81.41
239.431	-14.85
239.648	77.31
239.865	75.26
240.083	60.93
240.3	40.45
240.517	-31.23
240.735	65.02
240.952	34.3
241.169	11.78
241.386	3.58
241.603	19.97
241.821	32.26
242.038	22.02
242.255	54.78
242.472	19.97
242.689	17.92
242.907	69.12
243.124	50.69
243.341	38.4
243.558	42.5
243.775	95.74
243.992	40.45
244.209	24.06
244.426	60.93
244.643	81.41
244.86	30.21
245.078	11.78
245.295	-8.7
245.512	93.69
245.729	36.35
245.946	32.26
246.163	34.3
246.38	15.87
246.597	69.12
246.814	67.07
247.031	-2.56
247.248	-8.7
247.464	-16.9
247.681	101.89
247.898	54.78
248.115	7.68
248.332	-12.8
248.549	44.54
248.766	32.26
248.983	40.45
249.2	5.63
249.417	40.45
249.633	22.02
249.85	99.84
250.067	60.93
250.284	75.26
250.501	32.26
250.717	17.92
250.934	54.78
251.151	42.5
251.368	-39.42
251.585	40.45
251.801	-39.42
252.018	101.89
252.235	30.21
252.451	11.78
252.668	28.16
252.885	17.92
253.102	3.58
253.318	-6.66
253.535	-2.56
253.752	36.35
253.968	40.45
254.185	13.82
254.401	62.98
254.618	32.26
254.835	-20.99
255.051	40.45
255.268	-18.94
255.484	-61.95
255.701	32.26
255.917	60.93
256.134	-12.8
256.351	52.74
256.567	65.02
256.784	15.87
257	17.92
257.217	19.97
257.433	34.3
257.65	-2.56
257.866	93.69
258.082	44.54
258.299	-10.75
258.515	-25.09
258.732	38.4
258.948	13.82
259.165	65.02
259.381	36.35
259.597	22.02
259.814	34.3
260.03	95.74
260.246	-51.71
260.463	81.41
260.679	30.21
260.895	28.16
261.112	17.92
261.328	-6.66
261.544	34.3
261.761	91.65
261.977	65.02
262.193	62.98
262.409	15.87
262.626	26.11
262.842	67.07
263.058	44.54
263.274	15.87
263.49	50.69
263.707	15.87
263.923	5.63
264.139	-25.09
264.355	56.83
264.571	65.02
264.787	-66.05
265.004	-12.8
265.22	87.55
265.436	71.17
265.652	13.82
265.868	112.13
266.084	48.64
266.3	69.12
266.516	3.58
266.732	24.06
266.948	30.21
267.164	11.78
267.38	34.3
267.596	79.36
267.812	-4.61
268.028	62.98
268.244	81.41
268.46	42.5
268.676	11.78
268.892	114.17
269.108	42.5
269.324	-6.66
269.54	24.06
269.756	73.21
269.972	24.06
270.188	73.21
270.403	73.21
270.619	46.59
270.835	44.54
271.051	-68.09
271.267	28.16
271.483	79.36
271.698	-4.61
271.914	-55.81
272.13	1.54
272.346	-18.94
272.562	3.58
272.777	71.17
272.993	-14.85
273.209	52.74
273.425	99.84
273.64	52.74
273.856	15.87
274.072	19.97
274.287	-0.51
274.503	93.69
274.719	3.58
274.934	65.02
275.15	17.92
275.366	146.94
275.581	22.02
275.797	40.45
276.012	5.63
276.228	42.5
276.444	-25.09
276.659	26.11
276.875	13.82
277.09	3.58
277.306	71.17
277.521	3.58
277.737	52.74
277.952	7.68
278.168	60.93
278.383	44.54
278.599	-6.66
278.814	-4.61
279.03	24.06
279.245	89.6
279.461	9.73
279.676	46.59
279.892	81.41
280.107	52.74
280.322	-14.85
280.538	60.93
280.753	54.78
280.969	-31.23
281.184	-51.71
281.399	48.64
281.615	-20.99
281.83	65.02
282.045	28.16
282.26	-4.61
282.476	71.17
282.691	-86.53
282.906	1.54
283.122	-8.7
283.337	-33.28
283.552	65.02
283.767	-10.75
283.983	-0.51
284.198	58.88
284.413	28.16
284.628	22.02
284.843	30.21
285.058	3.58
285.274	69.12
285.489	116.22
285.704	32.26
285.919	-45.57
286.134	-25.09
286.349	15.87
286.564	-8.7
286.779	42.5
286.995	79.36
287.21	-74.24
287.425	44.54
287.64	-31.23
287.855	50.69
288.07	32.26
288.285	128.51
288.5	71.17
288.715	85.5
288.93	52.74
289.145	-8.7
289.36	-10.75
289.575	46.59
289.79	7.68
290.004	38.4
290.219	87.55
290.434	67.07
290.649	9.73
290.864	15.87
291.079	71.17
291.294	17.92
291.509	28.16
291.724	11.78
291.938	30.21
292.153	-29.18
292.368	42.5
292.583	-35.33
292.798	-20.99
293.012	38.4
293.227	54.78
293.442	69.12
293.657	56.83
293.871	73.21
294.086	-0.51
294.301	73.21
294.516	60.93
294.73	13.82
294.945	52.74
295.16	30.21
295.374	126.46
295.589	69.12
295.804	79.36
296.018	95.74
296.233	-2.56
296.447	44.54
296.662	67.07
296.877	22.02
297.091	11.78
297.306	15.87
297.52	32.26
297.735	-12.8
297.949	-10.75
298.164	3.58
298.378	-10.75
298.593	-10.75
298.807	-10.75
299.022	34.3
299.236	118.27
299.451	11.78
299.665	83.45
299.88	1.54
300.094	15.87
300.309	-2.56
300.523	-10.75
300.737	15.87
300.952	91.65
301.166	81.41
301.381	75.26
301.595	56.83
301.809	-31.23
302.024	73.21
302.238	65.02
302.452	69.12
302.667	38.4
302.881	44.54
303.095	36.35
303.309	65.02
303.524	26.11
303.738	34.3
303.952	-20.99
304.166	44.54
304.381	26.11
304.595	11.78
304.809	-12.8
305.023	48.64
305.237	17.92
305.452	67.07
305.666	7.68
305.88	13.82
306.094	17.92
306.308	48.64
306.522	32.26
306.736	89.6
306.95	30.21
307.164	38.4
307.379	54.78
307.593	54.78
307.807	67.07
308.021	26.11
308.235	-10.75
308.449	30.21
308.663	67.07
308.877	67.07
309.091	34.3
309.305	108.03
309.519	-0.51
309.733	93.69
309.947	48.64
310.161	5.63
310.374	-20.99
310.588	44.54
310.802	28.16
311.016	11.78
311.23	58.88
311.444	-23.04
311.658	-20.99
311.872	62.98
312.085	77.31
312.299	54.78
312.513	44.54
312.727	77.31
312.941	38.4
313.154	73.21
313.368	-4.61
313.582	60.93
313.796	56.83
314.009	11.78
314.223	60.93
314.437	46.59
314.651	-10.75
314.864	46.59
315.078	105.98
315.292	30.21
315.505	-2.56
315.719	67.07
315.933	56.83
316.146	-41.47
316.36	81.41
316.573	52.74
316.787	73.21
317.001	22.02
317.214	-10.75
317.428	-18.94
317.641	69.12
317.855	65.02
318.068	-10.75
318.282	75.26
318.495	-16.9
318.709	105.98
318.922	32.26
319.136	38.4
319.349	40.45
319.563	22.02
319.776	17.92
319.99	159.23
320.203	62.98
320.417	19.97
320.63	3.58
320.843	112.13
321.057	120.32
321.27	-51.71
321.483	97.79
321.697	79.36
321.91	19.97
322.124	46.59
322.337	15.87
322.55	28.16
322.763	56.83
322.977	26.11
323.19	15.87
323.403	77.31
323.617	13.82
323.83	44.54
324.043	-16.9
324.256	79.36
324.469	81.41
324.683	-4.61
324.896	58.88
325.109	38.4
325.322	56.83
325.535	62.98
325.748	-2.56
325.962	42.5
326.175	5.63
326.388	-0.51
326.601	62.98
326.814	1.54
327.027	95.74
327.24	77.31
327.453	15.87
327.666	54.78
327.879	-6.66
328.092	26.11
328.305	-6.66
328.518	44.54
328.731	62.98
328.944	67.07
329.157	93.69
329.37	11.78
329.583	15.87
329.796	30.21
330.009	38.4
330.222	87.55
330.435	-20.99
330.648	44.54
330.861	17.92
331.073	67.07
331.286	36.35
331.499	40.45
331.712	56.83
331.925	54.78
332.138	-12.8
332.35	120.32
332.563	87.55
332.776	79.36
332.989	9.73
333.202	15.87
333.414	46.59
333.627	85.5
333.84	48.64
334.053	40.45
334.265	38.4
334.478	34.3
334.691	89.6
334.903	26.11
335.116	7.68
335.329	44.54
335.541	54.78
335.754	15.87
335.966	52.74
336.179	83.45
336.392	11.78
336.604	50.69
336.817	60.93
337.029	114.17
337.242	-35.33
337.454	136.7
337.667	22.02
337.88	15.87
338.092	93.69
338.305	93.69
338.517	46.59
338.729	1.54
338.942	-27.14
339.154	-10.75
339.367	-10.75
339.579	15.87
339.792	22.02
340.004	28.16
340.217	15.87
340.429	-4.61
340.641	42.5
340.854	-8.7
341.066	15.87
341.278	93.69
341.491	17.92
341.703	48.64
341.915	22.02
342.128	-6.66
342.34	56.83
342.552	-0.51
342.764	15.87
342.977	99.84
343.189	-2.56
343.401	93.69
343.613	38.4
343.826	52.74
344.038	-43.52
344.25	32.26
344.462	13.82
344.674	3.58
344.886	89.6
345.099	26.11
345.311	77.31
345.523	24.06
345.735	36.35
345.947	65.02
346.159	65.02
346.371	67.07
346.583	38.4
346.795	48.64
347.007	48.64
347.219	69.12
347.431	73.21
347.643	71.17
347.855	38.4
348.067	69.12
348.279	15.87
348.491	-0.51
348.703	28.16
348.915	73.21
349.127	30.21
349.339	13.82
349.551	42.5
349.763	36.35
349.975	11.78
350.187	75.26
350.399	19.97
350.61	13.82
350.822	22.02
351.034	1.54
351.246	62.98
351.458	56.83
351.669	79.36
351.881	101.89
352.093	73.21
352.305	15.87
352.517	26.11
352.728	118.27
352.94	-12.8
353.152	22.02
353.363	28.16
353.575	65.02
353.787	34.3
353.999	52.74
354.21	-12.8
354.422	73.21
354.633	71.17
354.845	128.51
355.057	13.82
355.268	44.54
355.48	-2.56
355.692	77.31
355.903	-6.66
356.115	30.21
356.326	46.59
356.538	58.88
356.749	73.21
356.961	95.74
357.172	89.6
357.384	65.02
357.595	60.93
357.807	-8.7
358.018	69.12
358.23	34.3
358.441	56.83
358.653	73.21
358.864	-6.66
359.075	69.12
359.287	30.21
359.498	89.6
359.709	13.82
359.921	52.74
360.132	1.54
360.344	56.83
360.555	60.93
360.766	48.64
360.977	93.69
361.189	-27.14
361.4	91.65
361.611	-29.18
361.823	101.89
362.034	46.59
362.245	42.5
362.456	73.21
362.667	120.32
362.879	40.45
363.09	85.5
363.301	116.22
363.512	85.5
363.723	36.35
363.935	26.11
364.146	5.63
364.357	15.87
364.568	95.74
364.779	65.02
364.99	77.31
365.201	-39.42
365.412	62.98
365.623	-2.56
365.834	62.98
366.045	17.92
366.256	136.7
366.467	7.68
366.678	116.22
366.889	65.02
367.1	116.22
367.311	-4.61
367.522	69.12
367.733	77.31
367.944	110.08
368.155	122.37
368.366	-0.51
368.577	42.5
368.788	40.45
368.999	36.35
369.209	71.17
369.42	157.18
369.631	132.61
369.842	-18.94
370.053	62.98
370.264	48.64
370.474	-18.94
370.685	75.26
370.896	91.65
371.107	112.13
371.317	71.17
371.528	46.59
371.739	50.69
371.95	81.41
372.16	73.21
372.371	71.17
372.582	110.08
372.792	38.4
373.003	44.54
373.214	65.02
373.424	22.02
373.635	-8.7
373.846	56.83
374.056	7.68
374.267	60.93
374.477	50.69
374.688	50.69
374.898	67.07
375.109	103.93
375.319	93.69
375.53	3.58
375.74	65.02
375.951	-0.51
376.161	34.3
376.372	22.02
376.582	11.78
376.793	13.82
377.003	1.54
377.214	11.78
377.424	79.36
377.635	60.93
377.845	40.45
378.055	38.4
378.266	71.17
378.476	112.13
378.686	38.4
378.897	22.02
379.107	79.36
379.317	52.74
379.528	32.26
379.738	79.36
379.948	46.59
380.158	155.13
380.369	26.11
380.579	120.32
380.789	38.4
380.999	77.31
381.21	93.69
381.42	52.74
381.63	93.69
381.84	46.59
382.05	62.98
382.261	132.61
382.471	38.4
382.681	46.59
382.891	40.45
383.101	85.5
383.311	17.92
383.521	71.17
383.731	56.83
383.941	28.16
384.151	69.12
384.361	69.12
384.571	48.64
384.781	89.6
384.991	-2.56
385.201	40.45
385.411	38.4
385.621	81.41
385.831	-10.75
386.041	103.93
386.251	73.21
386.461	34.3
386.671	65.02
386.881	19.97
387.091	81.41
387.301	32.26
387.511	151.04
387.72	44.54
387.93	26.11
388.14	105.98
388.35	65.02
388.56	103.93
388.769	44.54
388.979	138.75
389.189	79.36
389.399	60.93
389.609	62.98
389.818	81.41
390.028	52.74
390.238	79.36
390.447	-51.71
390.657	122.37
390.867	7.68
391.076	130.56
391.286	77.31
391.496	110.08
391.705	42.5
391.915	132.61
392.125	75.26
392.334	97.79
392.544	69.12
392.753	69.12
392.963	110.08
393.172	93.69
393.382	83.45
393.591	79.36
393.801	52.74
394.01	81.41
394.22	99.84
394.429	62.98
394.639	56.83
394.848	71.17
395.058	28.16
395.267	42.5
395.477	48.64
395.686	128.51
395.895	99.84
396.105	118.27
396.314	165.37
396.524	85.5
396.733	22.02
396.942	163.33
397.152	73.21
397.361	91.65
397.57	132.61
397.78	73.21
397.989	58.88
398.198	161.28
398.407	71.17
398.617	40.45
398.826	116.22
399.035	87.55
399.244	89.6
399.453	130.56
399.663	101.89
399.872	101.89
400.081	114.17
400.29	101.89
400.499	62.98
400.708	91.65
400.917	116.22
401.127	189.95
401.336	105.98
401.545	185.85
401.754	120.32
401.963	179.71
402.172	130.56
402.381	126.46
402.59	153.09
402.799	93.69
403.008	122.37
403.217	134.65
403.426	91.65
403.635	89.6
403.844	136.7
404.053	148.99
404.262	97.79
404.471	192
404.68	95.74
404.888	214.52
405.097	120.32
405.306	237.05
405.515	85.5
405.724	169.47
405.933	206.33
406.142	196.09
406.35	177.66
406.559	230.91
406.768	157.18
406.977	157.18
407.185	226.81
407.394	216.57
407.603	263.68
407.812	175.61
408.02	206.33
408.229	183.81
408.438	228.86
408.646	288.25
408.855	142.85
409.064	265.72
409.272	179.71
409.481	310.78
409.69	271.87
409.898	273.92
410.107	331.26
410.315	331.26
410.524	341.5
410.733	351.74
410.941	314.88
411.15	398.84
411.358	380.41
411.567	458.23
411.775	423.42
411.984	384.51
412.192	470.52
412.401	474.62
412.609	497.14
412.818	538.1
413.026	511.48
413.234	470.52
413.443	495.1
413.651	566.78
413.86	615.93
414.068	554.49
414.276	638.45
414.485	622.07
414.693	689.65
414.901	628.21
415.11	642.55
415.318	679.41
415.526	667.13
415.734	773.62
415.943	728.56
416.151	863.73
416.359	787.96
416.567	898.55
416.776	869.87
416.984	974.32
417.192	972.27
417.4	1046
417.608	1013.23
417.817	1082.86
418.025	1134.06
418.233	1166.83
418.441	1150.45
418.649	1162.73
418.857	1185.26
419.065	1394.15
419.273	1334.76
419.481	1406.44
419.689	1418.73
419.897	1494.51
420.105	1566.18
420.313	1461.74
420.521	1562.09
420.729	1684.97
420.937	1682.92
421.145	1820.13
421.353	1857
421.561	1820.13
421.769	1791.46
421.977	1992.16
422.185	1990.11
422.393	2145.76
422.601	2252.25
422.809	2276.83
423.017	2293.21
423.224	2344.41
423.432	2500.06
423.64	2399.71
423.848	2805.21
424.056	2645.46
424.263	2868.69
424.471	2815.45
424.679	2909.65
424.887	3227.09
425.094	3102.16
425.302	3145.17
425.51	3210.7
425.718	3333.58
425.925	3376.59
426.133	3636.68
426.341	3601.87
426.548	3925.44
426.756	4021.7
426.964	3997.12
427.171	4265.41
427.379	4341.18
427.586	4468.16
427.794	4441.53
428.001	4715.96
428.209	4937.14
428.417	4806.07
428.624	5092.79
428.832	5094.83
429.039	5121.46
429.247	5117.36
429.454	5764.52
429.662	6118.82
429.869	5633.45
430.076	6004.13
430.284	5830.06
430.491	6274.46
430.699	6415.77
430.906	6530.46
431.114	6596
431.321	6821.27
431.528	6999.45
431.736	7335.31
431.943	7650.7
432.15	7450
432.358	7480.72
432.565	7992.71
432.772	8125.83
432.979	8349.06
433.187	8476.03
433.394	8430.98
433.601	9168.24
433.808	8938.87
434.016	9000.31
434.223	9543.02
434.43	10042.73
434.637	9893.23
434.844	10540.38
435.052	10485.09
435.259	10601.82
435.466	10644.83
435.673	10524
435.88	11289.94
436.087	11914.57
436.294	11865.42
436.501	11562.32
436.708	11949.39
436.915	11998.54
437.122	12746.05
437.329	12588.35
437.537	13198.65
437.743	13106.49
437.95	13188.41
438.157	13872.43
438.364	14406.95
438.571	14417.19
438.778	14535.97
438.985	15873.29
439.192	14970.14
439.399	15691.02
439.606	15240.47
439.813	16272.65
440.02	17009.92
440.227	17075.45
440.433	16637.19
440.64	17165.56
440.847	17022.2
441.054	17431.8
441.261	18722.02
441.467	18382.06
441.674	18650.34
441.881	19451.1
442.088	19264.73
442.294	18828.51
442.501	19569.88
442.708	20073.68
442.914	20827.33
443.121	21935.28
443.328	21052.61
443.534	22680.74
443.741	22256.81
443.948	22047.92
444.154	23428.25
444.361	23000.23
444.568	23587.99
444.774	23280.8
444.981	23731.35
445.187	24315.02
445.394	25375.87
445.6	24917.12
445.807	27481.18
446.013	26084.47
446.22	26494.06
446.426	27454.56
446.633	27786.33
446.839	29051.97
447.046	27587.68
447.252	29434.94
447.459	29377.6
447.665	29273.15
447.871	30127.16
448.078	31800.35
448.284	30354.48
448.491	30839.85
448.697	32128.02
448.903	32789.52
449.11	32607.25
449.316	32214.04
449.522	32998.41
449.728	33780.73
449.935	34032.63
450.141	33969.15
450.347	34782.19
450.553	33233.92
450.76	33868.8
450.966	35152.87
451.172	34948.07
451.378	35501.03
451.584	34933.74
451.791	35326.95
451.997	35558.37
452.203	36170.71
452.409	36051.93
452.615	35779.55
452.821	34831.34
453.027	34302.96
453.233	36180.95
453.44	34522.1
453.646	35341.28
453.852	35433.44
454.058	35810.27
454.264	34679.79
454.47	35349.48
454.676	34524.15
454.882	35587.04
455.088	32310.29
455.294	33170.44
455.5	33713.15
455.705	33819.64
455.911	32263.19
456.117	32076.82
456.323	31157.28
456.529	29848.63
456.735	31091.75
456.941	30250.03
457.147	29381.7
457.352	28988.49
457.558	28574.8
457.764	28804.17
457.97	28056.66
458.176	27149.41
458.381	27499.61
458.587	26258.54
458.793	26530.92
458.999	24781.96
459.204	26582.12
459.41	25650.3
459.616	24136.85
459.821	24286.35
460.027	24456.33
460.233	23432.35
460.438	22627.49
460.644	22705.32
460.85	21542.07
461.055	21140.67
461.261	21714.1
461.466	19715.28
461.672	19238.11
461.878	20440.26
462.083	19111.13
462.289	18593
462.494	18595.04
462.7	18029.8
462.905	17343.74
463.111	17833.2
463.316	17937.65
463.522	17593.59
463.727	17591.54
463.932	17587.44
464.138	17558.77
464.343	17300.73
464.549	16848.13
464.754	17552.63
464.959	17476.85
465.165	17102.08
465.37	16399.62
465.575	16139.53
465.781	16479.49
465.986	16827.65
466.191	16059.66
466.397	15889.68
466.602	15095.07
466.807	15531.28
467.012	15377.69
467.218	15598.87
467.423	15185.18
467.628	15523.09
467.833	16278.79
468.038	15748.37
468.244	15172.89
468.449	15488.28
468.654	15310.1
468.859	14996.76
469.064	14904.6
469.269	14400.8
469.474	14353.7
469.679	14888.22
469.885	14282.02
470.09	14482.72
470.295	14617.89
470.5	14218.54
470.705	14097.7
470.91	13919.53
471.115	13704.49
471.32	14189.86
471.525	13960.49
471.73	13526.32
471.935	13483.31
472.139	13126.97
472.344	13034.81
472.549	13071.67
472.754	13014.33
472.959	12416.32
473.164	12371.27
473.369	12156.23
473.574	12576.06
473.778	12469.57
473.983	12379.46
474.188	12215.62
474.393	11955.53
474.598	11863.37
474.802	11980.11
475.007	11623.76
475.212	11674.96
475.417	11359.57
475.621	11189.59
475.826	11459.92
476.031	11162.97
476.235	10751.32
476.44	11165.01
476.645	10859.87
476.849	10800.48
477.054	10681.69
477.259	10442.08
477.463	10317.15
477.668	10323.3
477.872	10528.1
478.077	10288.48
478.282	10034.53
478.486	9891.18
478.691	9778.54
478.895	9878.89
479.1	9696.62
479.304	9700.72
479.509	9422.19
479.713	9528.69
479.918	9469.3
480.122	9313.65
480.326	9483.63
480.531	9368.95
480.735	9303.41
480.94	9309.55
481.144	9463.15
481.348	8971.64
481.553	9192.82
481.757	8885.62
481.961	9067.89
482.166	9430.38
482.37	9192.82
482.574	8684.92
482.778	8945.02
482.983	9174.39
483.187	8940.92
483.391	9094.52
483.595	8971.64
483.8	8926.58
484.004	9108.85
484.208	9168.24
484.412	8977.78
484.616	9033.08
484.821	9047.41
485.025	9112.95
485.229	9143.67
485.433	8924.54
485.637	8871.29
485.841	9049.46
486.045	8711.55
486.249	8906.1
486.453	8793.47
486.657	8963.45
486.861	9299.31
487.065	9117.04
487.269	8949.11
487.473	8916.34
487.677	9137.52
487.881	9033.08
488.085	8815.99
488.289	8887.67
488.493	8719.74
488.697	9151.86
488.901	9121.14
489.105	8994.17
489.309	9069.94
489.512	9180.53
489.716	9043.32
489.92	9117.04
490.124	9092.47
490.328	9248.11
490.531	9209.2
490.735	9305.46
490.939	9078.13
491.143	9108.85
491.346	9082.23
491.55	9231.73
491.754	9237.88
491.958	9442.67
492.161	9278.83
492.365	9606.51
492.569	9399.66
492.772	9497.97
492.976	9495.92
493.18	9602.41
493.383	9760.11
493.587	9604.46
493.79	9686.38
493.994	9647.47
494.197	9874.79
494.401	9981.29
494.605	9944.42
494.808	10208.61
495.012	10243.43
495.215	10225
495.419	10276.2
495.622	10327.39
495.825	10476.9
496.029	10382.69
496.232	10831.19
496.436	10349.92
496.639	10919.26
496.843	10831.19
497.046	11154.77
497.249	11181.4
497.453	11060.57
497.656	11251.03
497.859	11306.32
498.063	11629.9
498.266	11634
498.469	11834.7
498.673	11699.53
498.876	12184.9
499.079	11928.91
499.282	11982.15
499.485	12414.27
499.689	12502.34
499.892	12715.33
500.095	12662.08
500.298	12883.26
500.501	12819.77
500.705	13313.33
500.908	13305.14
501.111	13487.41
501.314	13598
501.517	13704.49
501.72	13972.78
501.923	13837.61
502.126	14159.14
502.329	14507.3
502.532	14523.68
502.735	14626.08
502.938	14912.8
503.141	14929.18
503.344	15381.78
503.547	15062.3
503.75	15891.73
503.953	15914.25
504.156	16133.39
504.359	15987.98
504.562	16239.88
504.765	16557.32
504.968	16854.27
505.17	17143.03
505.373	16913.66
505.576	17177.85
505.779	17460.47
505.982	17569.01
506.185	17962.22
506.387	18007.28
506.59	18261.23
506.793	18642.15
506.996	18392.3
507.198	19289.31
507.401	18902.24
507.604	19346.65
507.807	19690.71
508.009	19696.85
508.212	19432.66
508.415	19889.36
508.617	20487.37
508.82	20495.56
509.022	20511.94
509.225	20962.5
509.428	21118.14
509.63	21515.45
509.833	21191.87
510.035	22246.57
510.238	21697.72
510.44	21929.14
510.643	22592.68
510.845	22670.5
511.048	22797.48
511.25	23030.94
511.453	23071.9
511.655	24272.01
511.858	23800.98
512.06	24200.33
512.262	24497.29
512.465	24501.39
512.667	24689.8
512.87	25160.83
513.072	25183.36
513.274	25824.37
513.477	25951.35
513.679	25984.12
513.881	26737.77
514.084	26797.16
514.286	26866.79
514.488	27122.79
514.69	27890.77
514.893	28017.75
515.095	28265.55
515.297	28767.31
515.499	28564.56
515.701	28965.96
515.904	29375.55
516.106	29453.37
516.308	30016.57
516.51	30325.81
516.712	30483.5
516.914	30655.53
517.116	30886.95
517.318	31276.07
517.52	31200.29
517.722	31659.04
517.925	31953.94
518.127	32635.92
518.329	32674.83
518.531	32465.94
518.733	33215.49
518.935	33498.11
519.136	33915.9
519.338	34075.64
519.54	34317.3
519.742	34515.95
519.944	34720.75
520.146	35285.99
520.348	35476.45
520.55	36131.8
520.752	36312.02
520.954	36572.11
521.155	36543.44
521.357	36961.23
521.559	37106.63
521.761	37671.87
521.963	37571.52
522.164	37718.98
522.366	38001.6
522.568	38515.64
522.77	39021.48
522.971	39261.1
523.173	39017.39
523.375	39627.68
523.576	39537.57
523.778	39545.76
523.98	40590.23
524.181	40401.82
524.383	40444.82
524.584	41196.43
524.786	40915.86
524.988	41184.14
525.189	41259.91
525.391	41479.05
525.592	41880.45
525.794	42204.03
525.995	42449.78
526.197	42306.43
526.398	42392.44
526.6	42339.19
526.801	43049.84
527.003	43117.42
527.204	43113.33
527.406	43891.55
527.607	42951.54
527.808	44127.07
528.01	42969.97
528.211	43817.83
528.412	44786.52
528.614	43881.31
528.815	44313.44
529.016	44958.55
529.218	44469.08
529.419	44708.69
529.62	44825.43
529.822	44964.69
530.023	44448.6
530.224	44755.8
530.425	45144.91
530.626	44561.24
530.828	45040.46
531.029	46078.78
531.23	45306.7
531.431	45433.67
531.632	45491.02
531.833	45865.8
532.035	45497.16
532.236	45792.07
532.437	46312.25
532.638	45495.11
532.839	45865.8
533.04	46242.62
533.241	45841.22
533.442	46316.35
533.643	45937.48
533.844	46244.67
534.045	46191.42
534.246	45857.6
534.447	46340.92
534.648	45994.82
534.849	46750.52
535.05	46199.62
535.251	46525.24
535.451	46156.61
535.652	46580.54
535.853	46306.11
536.054	46953.27
536.255	46287.68
536.456	46236.48
536.657	46725.94
536.857	46244.67
537.058	45888.32
537.259	46357.31
537.46	46109.5
537.66	46736.18
537.861	46248.77
538.062	46365.5
538.263	46068.55
538.463	45929.28
538.664	46428.99
538.865	46701.37
539.065	46672.7
539.266	46017.35
539.466	46721.85
539.667	45538.12
539.868	46478.14
540.068	46246.72
540.269	46396.22
540.469	46299.97
540.67	45890.37
540.87	46281.53
541.071	45951.81
541.271	46824.25
541.472	46277.44
541.672	46306.11
541.873	46029.63
542.073	45734.73
542.274	46402.36
542.474	46291.77
542.675	45894.47
542.875	46719.8
543.075	46207.81
543.276	45675.34
543.476	46897.97
543.676	46156.61
543.877	46373.69
544.077	46330.69
544.277	45986.63
544.478	46150.46
544.678	46566.2
544.878	46000.96
545.078	46129.98
545.279	45685.57
545.479	45851.46
545.679	46551.87
545.879	46111.55
546.079	45773.64
546.28	45984.58
546.48	45646.66
546.68	46392.12
546.88	46496.57
547.08	46287.68
547.28	46535.48
547.48	45984.58
547.68	46201.66
547.88	45876.04
548.081	46340.92
548.281	46318.4
548.481	46043.97
548.681	46269.25
548.881	46222.14
549.081	46076.74
549.28	46007.11
549.48	46369.6
549.68	45669.19
549.88	46494.52
550.08	45603.66
550.28	45714.25
550.48	45966.15
550.68	46412.6
550.88	45646.66
551.08	45382.48
551.279	45984.58
551.479	45923.14
551.679	45867.84
551.879	45880.13
552.079	46029.63
552.278	45869.89
552.478	45689.67
552.678	46089.02
552.878	45785.93
553.077	45554.5
553.277	45259.6
553.477	45957.95
553.676	45665.1
553.876	45378.38
554.076	45706.05
554.275	45454.15
554.475	44673.88
554.674	45407.05
554.874	45468.49
555.074	45177.68
555.273	45263.69
555.473	45273.93
555.672	45058.9
555.872	45198.16
556.071	45388.62
556.271	45333.32
556.47	44895.06
556.67	44917.59
556.869	44782.42
557.068	45091.66
557.268	44725.08
557.467	44872.53
557.667	44895.06
557.866	44878.68
558.065	44804.95
558.265	44741.46
558.464	44135.26
558.663	44964.69
558.863	44262.24
559.062	44911.44
559.261	44538.71
559.461	44737.37
559.66	43703.14
559.859	44522.33
560.058	44159.84
560.258	44464.99
560.457	43866.98
560.656	44346.2
560.855	43989.86
561.054	43897.7
561.253	43529.06
561.453	43735.91
561.652	43926.37
561.851	43907.94
562.05	43408.23
562.249	43324.27
562.448	43813.73
562.647	43471.72
562.846	43395.95
563.045	43088.75
563.244	42990.45
563.443	43352.94
563.642	42693.49
563.841	43137.9
564.04	42668.92
564.239	43588.45
564.438	42554.23
564.637	43219.82
564.836	43010.93
565.035	42634.1
565.234	42797.94
565.432	42392.44
565.631	42642.29
565.83	42554.23
566.029	42666.87
566.228	42318.71
566.427	42269.56
566.625	42132.35
566.824	41685.89
567.023	41853.83
567.222	41292.68
567.42	41917.31
567.619	41843.59
567.818	41470.86
568.016	41745.28
568.215	41788.29
568.414	41204.62
568.612	41606.02
568.811	41317.26
569.01	41132.94
569.208	40496.02
569.407	41061.26
569.605	40307.61
569.804	40962.96
570.002	40483.73
570.201	40688.53
570.4	40477.59
570.598	40094.62
570.797	40031.13
570.995	40121.24
571.193	39922.59
571.392	40121.24
571.59	39891.87
571.789	40127.39
571.987	39752.61
572.186	39521.19
572.384	39521.19
572.582	40016.8
572.781	39697.31
572.979	39019.44
573.177	39201.71
573.376	39097.26
573.574	38529.97
573.772	39252.91
573.971	38595.51
574.169	38394.81
574.367	38345.65
574.565	38712.24
574.763	38325.18
574.962	38288.31
575.16	37956.54
575.358	38003.64
575.556	37432.26
575.754	37950.4
575.952	37260.23
576.151	37577.67
576.349	37387.21
576.547	37505.99
576.745	37211.08
576.943	37299.14
577.141	37114.83
577.339	37256.14
577.537	37153.74
577.735	36953.04
577.933	36883.41
578.131	36934.6
578.329	36527.06
578.527	36439
578.725	36373.46
578.923	36621.27
579.121	36236.25
579.319	36129.75
579.516	36492.24
579.714	36070.36
579.912	36023.26
580.11	35638.24
580.308	35648.48
580.506	35828.7
580.704	35044.33
580.901	35458.02
581.099	35888.09
581.297	35015.66
581.495	35099.62
581.692	35087.34
581.89	35027.95
582.088	34774
582.285	34909.16
582.483	34810.86
582.681	34581.49
582.878	34427.89
583.076	34241.53
583.274	34606.06
583.471	33811.45
583.669	34122.74
583.866	33883.13
584.064	34294.77
584.262	33532.93
584.459	33905.66
584.657	34020.34
584.854	33627.13
585.052	33139.72
585.249	33762.3
585.447	33457.15
585.644	32832.52
585.841	32752.65
586.039	33240.07
586.236	33004.55
586.434	32635.92
586.631	32332.82
586.828	33018.89
587.026	32347.15
587.223	32531.47
587.42	32295.96
587.618	32492.56
587.815	32232.47
588.012	32046.1
588.21	31769.63
588.407	32390.16
588.604	31464.48
588.801	31585.31
588.999	31355.94
589.196	31474.72
589.393	31233.06
589.59	31261.73
589.787	31175.72
589.984	30970.92
590.182	30946.34
590.379	30696.49
590.576	31112.23
590.773	30682.16
590.97	30516.27
591.167	30850.09
591.364	30159.92
591.561	30544.94
591.758	30112.82
591.955	30393.39
592.152	30411.82
592.349	30135.35
592.546	29873.21
592.743	29891.64
592.94	29221.95
593.137	29729.85
593.334	29903.93
593.531	29359.17
593.727	29670.46
593.924	30000.18
594.121	29164.61
594.318	29410.37
594.515	29023.3
594.712	29226.05
594.908	28865.61
595.105	29209.67
595.302	28857.42
595.499	29101.12
595.696	28486.73
595.892	28689.48
596.089	28421.2
596.286	28628.04
596.482	28398.67
596.679	28318.8
596.876	28011.6
597.072	28210.26
597.269	28185.68
597.466	27757.66
597.662	27733.08
597.859	27821.14
598.055	27751.51
598.252	28093.52
598.448	27604.06
598.645	27378.78
598.841	26981.48
599.038	27219.04
599.234	27425.89
599.431	26938.47
599.627	26979.43
599.824	27173.99
600.02	26721.38
600.217	27028.58
600.413	26989.67
600.609	26764.39
600.806	26641.51
601.002	26641.51
601.198	26233.97
601.395	26301.55
601.591	26268.78
601.787	26201.2
601.984	26162.29
602.18	26170.48
602.376	25724.02
602.572	25732.22
602.769	26027.12
602.965	25640.06
603.161	25799.8
603.357	25611.39
603.553	25439.36
603.75	25398.4
603.946	25148.54
604.142	24988.8
604.338	25021.57
604.534	25232.51
604.73	24841.35
604.926	24749.19
605.122	24908.93
605.318	24863.88
605.514	24681.61
605.71	24345.74
605.906	24429.71
606.102	24278.16
606.298	24190.09
606.494	24177.81
606.69	24521.87
606.886	24071.31
607.082	24200.33
607.278	23950.48
607.474	23645.34
607.67	24171.66
607.866	23608.47
608.062	23792.79
608.257	23514.27
608.453	23430.3
608.649	23450.78
608.845	23276.7
609.041	23354.52
609.236	23442.59
609.432	23407.77
609.628	23362.72
609.824	22981.79
610.019	23073.95
610.215	23010.46
610.411	23051.42
610.606	22789.28
610.802	23028.9
610.998	22803.62
611.193	23035.04
611.389	22353.07
611.584	22633.64
611.78	22396.07
611.976	22594.73
612.171	22310.06
612.367	22252.72
612.562	22215.85
612.758	22023.34
612.953	22054.06
613.149	22107.31
613.344	22027.44
613.539	22324.4
613.735	21941.43
613.93	22256.81
614.126	21879.99
614.321	22246.57
614.517	21689.53
614.712	21857.46
614.907	21540.02
615.103	21910.71
615.298	21384.38
615.493	21656.76
615.688	21081.28
615.884	21830.83
616.079	21384.38
616.274	21535.93
616.47	21329.08
616.665	21142.72
616.86	20978.88
617.055	21146.81
617.25	21101.76
617.445	21175.48
617.641	20643.01
617.836	21034.18
618.031	20669.64
618.226	20755.65
618.421	20948.16
618.616	21152.96
618.811	20376.78
619.006	20681.92
619.201	20225.23
619.396	20274.38
619.591	20014.29
619.786	20141.26
619.981	19993.81
620.176	20182.22
620.371	19621.08
620.566	19926.22
620.761	19791.06
620.956	19688.66
621.151	19287.26
621.346	19616.98
621.541	19076.32
621.735	19205.34
621.93	19113.18
622.125	19217.63
622.32	18699.49
622.515	18611.43
622.709	18568.42
622.904	18597.09
623.099	18537.7
623.294	18337
623.488	18109.68
623.683	18132.2
623.878	18038
624.072	17771.76
624.267	17884.4
624.462	17927.41
624.656	17642.74
624.851	17782
625.046	17659.12
625.24	17640.69
625.435	17419.51
625.629	17118.46
625.824	17210.62
626.018	17202.43
626.213	16674.05
626.407	16805.12
626.602	16508.16
626.796	16798.98
626.991	16856.32
627.185	16573.7
627.38	16332.04
627.574	16405.77
627.768	16405.77
627.963	16104.71
628.157	15889.68
628.352	15938.83
628.546	15777.04
628.74	16198.92
628.935	15789.33
629.129	15873.29
629.323	15549.71
629.517	15652.11
629.712	15338.77
629.906	15451.41
630.1	15447.32
630.294	15238.42
630.489	15199.51
630.683	15097.11
630.877	14886.17
631.071	14961.95
631.265	14968.09
631.459	14824.73
631.653	14732.58
631.848	14609.7
632.042	14312.74
632.236	14564.64
632.43	14312.74
632.624	14554.4
632.818	14327.08
633.012	14021.93
633.206	13817.13
633.4	14220.58
633.594	13819.18
633.788	13989.16
633.982	13983.02
634.176	13870.38
634.369	13794.61
634.563	13532.47
634.757	13622.58
634.951	13483.31
635.145	13196.6
635.339	13595.95
635.533	13079.86
635.726	13303.09
635.92	13043
636.114	13221.17
636.308	12989.75
636.501	12942.65
636.695	12733.76
636.889	12918.07
637.083	12621.12
637.276	12535.1
637.47	12543.3
637.664	12354.88
637.857	12533.06
638.051	12381.51
638.244	12492.1
638.438	12107.08
638.632	12055.88
638.825	12029.26
639.019	11797.84
639.212	11898.19
639.406	11832.65
639.599	11920.71
639.793	11808.08
639.986	11451.73
640.18	11746.64
640.373	11609.42
640.567	11400.53
640.76	11410.77
640.954	11185.49
641.147	11402.58
641.34	11488.59
641.534	11193.69
641.727	11085.14
641.92	11386.19
642.114	11124.05
642.307	11111.77
642.5	10837.34
642.694	10818.91
642.887	10734.94
643.08	10812.76
643.273	10567.01
643.467	10693.98
643.66	10556.77
643.853	10313.06
644.046	10257.76
644.239	10401.12
644.432	10190.18
644.626	10153.32
644.819	10225
645.012	10167.65
645.205	10024.3
645.398	10046.82
645.591	9950.57
645.784	9825.64
645.977	9756.01
646.17	9772.39
646.363	9774.44
646.556	9661.8
646.749	9731.44
646.942	9573.74
647.135	9512.3
647.328	9530.73
647.521	9512.3
647.714	9274.74
647.907	9397.62
648.099	9346.42
648.292	9221.49
648.485	9102.71
648.678	9051.51
648.871	9133.43
649.064	9143.67
649.256	9031.03
649.449	8777.08
649.642	8904.06
649.835	8646.01
650.027	8691.07
650.22	8527.23
650.413	8719.74
650.605	8701.31
650.798	8498.56
650.991	8301.95
651.183	8465.79
651.376	8328.58
651.568	8418.69
651.761	8269.19
651.954	8123.78
652.146	8195.46
652.339	8005
652.531	8066.44
652.724	8113.54
652.916	7886.22
653.109	8066.44
653.301	7984.52
653.494	7730.57
653.686	7665.04
653.879	7941.51
654.071	7822.73
654.263	7667.08
654.456	7843.21
654.648	7568.78
654.84	7325.07
655.033	7511.44
655.225	7474.57
655.417	7572.88
655.61	7204.24
655.802	7277.97
655.994	7353.74
656.186	7255.44
656.379	7306.64
656.571	7167.38
656.763	7132.56
656.955	7056.79
657.148	7042.45
657.34	6948.25
657.532	6880.66
657.724	6800.79
657.916	6827.42
658.108	6962.58
658.3	6819.22
658.492	6733.21
658.684	6567.32
658.876	6567.32
659.068	6591.9
659.26	6542.75
659.452	6596
659.644	6497.69
659.836	6307.23
660.028	6333.86
660.22	6350.24
660.412	6442.4
660.604	6237.6
660.796	6213.03
660.988	6323.62
661.18	6102.43
661.372	6090.15
661.563	6180.26
661.755	5875.11
661.947	6143.39
662.139	6131.11
662.331	5828.01
662.522	5977.51
662.714	5836.2
662.906	5842.34
663.097	5918.12
663.289	5858.73
663.481	5707.18
663.673	5791.14
663.864	5895.59
664.056	5520.81
664.247	5680.55
664.439	5563.82
664.631	5502.38
664.822	5559.72
665.014	5451.18
665.205	5402.03
665.397	5463.47
665.588	5471.66
665.78	5211.57
665.971	5279.15
666.163	5287.34
666.354	5178.8
666.546	5404.08
666.737	5266.86
666.929	5189.04
667.12	5170.61
667.311	5287.34
667.503	5098.93
667.694	5184.94
667.885	5115.31
668.077	5045.68
668.268	5033.4
668.459	4865.46
668.651	4943.28
668.842	4935.09
669.033	4838.84
669.224	4818.36
669.416	4949.43
669.607	4769.21
669.798	4840.89
669.989	4859.32
670.18	4830.65
670.371	4844.98
670.563	4545.98
670.754	4650.43
670.945	4746.68
671.136	4650.43
671.327	4552.12
671.518	4613.56
671.709	4437.44
671.9	4629.95
672.091	4509.12
672.282	4517.31
672.473	4574.65
672.664	4593.08
672.855	4515.26
673.046	4357.57
673.237	4361.66
673.428	4474.3
673.619	4384.19
673.809	4500.92
674	4306.37
674.191	4363.71
674.382	4314.56
674.573	4355.52
674.764	4163.01
674.954	4156.86
675.145	4267.45
675.336	4046.27
675.527	3997.12
675.717	4343.23
675.908	4144.58
676.099	4011.46
676.289	4173.25
676.48	4146.62
676.671	4005.31
676.861	4033.99
677.052	4120
677.243	3892.68
677.433	4025.79
677.624	4003.27
677.814	4001.22
678.005	3990.98
678.195	3980.74
678.386	3861.96
678.576	4011.46
678.767	3796.42
678.957	3859.91
679.148	3919.3
679.338	3845.57
679.529	3790.28
679.719	3839.43
679.909	3917.25
680.1	3651.02
680.29	3814.85
680.481	3702.22
680.671	3864.01
680.861	3749.32
681.052	3763.65
681.242	3712.46
681.432	3667.4
681.622	3642.82
681.813	3612.1
682.003	3704.26
682.193	3577.29
682.383	3689.93
682.573	3683.78
682.764	3599.82
682.954	3589.58
683.144	3575.24
683.334	3577.29
683.524	3519.95
683.714	3526.09
683.904	3524.04
684.094	3610.06
684.284	3528.14
684.474	3595.72
684.664	3493.32
684.854	3521.99
685.044	3519.95
685.234	3464.65
685.424	3497.42
685.614	3415.5
685.804	3339.73
685.994	3528.14
686.184	3476.94
686.374	3390.92
686.564	3380.68
686.753	3462.6
686.943	3419.6
687.133	3429.84
687.323	3427.79
687.513	3343.82
687.702	3362.25
687.892	3354.06
688.082	3216.85
688.272	3343.82
688.461	3268.05
688.651	3278.29
688.841	3284.43
689.03	3206.61
689.22	3280.33
689.41	3182.03
689.599	3116.5
689.789	3175.89
689.979	3067.35
690.168	3259.85
690.358	3204.56
690.547	3128.78
690.737	3212.75
690.926	3196.37
691.116	3159.5
691.305	3192.27
691.495	3053.01
691.684	2993.62
691.874	3208.66
692.063	3151.31
692.252	3089.87
692.442	3212.75
692.631	3059.15
692.82	3057.11
693.01	3038.67
693.199	3196.37
693.388	3016.15
693.578	3050.96
693.767	3046.87
693.956	3128.78
694.146	2936.28
694.335	3065.3
694.524	3024.34
694.713	3067.35
694.902	3057.11
695.092	3069.39
695.281	2983.38
695.47	2973.14
695.659	2983.38
695.848	3083.73
696.037	3077.59
696.226	3016.15
696.415	2983.38
696.604	3020.24
696.793	3036.63
696.982	2979.28
697.171	3093.97
697.36	2887.12
697.549	3003.86
697.738	2887.12
697.927	2911.7
698.116	2938.32
698.305	2983.38
698.494	2915.8
698.683	3022.29
698.872	3028.43
699.061	2940.37
699.25	2975.19
699.438	2932.18
699.627	2960.85
699.816	2913.75
700.005	2997.71
700.193	2891.22
700.382	2919.89
700.571	2964.95
700.76	2979.28
700.948	2993.62
701.137	2954.71
701.326	2862.55
701.514	2977.23
701.703	2858.45
701.892	2850.26
702.08	2862.55
702.269	2803.16
702.457	2954.71
702.646	2903.51
702.834	2819.54
703.023	2862.55
703.212	2817.49
703.4	2727.38
703.589	2799.06
703.777	2762.2
703.965	2698.71
704.154	2803.16
704.342	2739.67
704.531	2745.81
704.719	2655.7
704.907	2733.53
705.096	2723.29
705.284	2684.38
705.472	2704.85
705.661	2770.39
705.849	2631.13
706.037	2670.04
706.226	2624.98
706.414	2631.13
706.602	2551.26
706.79	2735.57
706.979	2690.52
707.167	2622.94
707.355	2610.65
707.543	2684.38
707.731	2667.99
707.919	2629.08
708.107	2655.7
708.296	2635.22
708.484	2653.66
708.672	2612.7
708.86	2594.26
709.048	2571.74
709.236	2383.32
709.424	2538.97
709.612	2637.27
709.8	2680.28
709.988	2473.43
710.176	2452.95
710.364	2528.73
710.551	2459.1
710.739	2440.67
710.927	2528.73
711.115	2385.37
711.303	2444.76
711.491	2438.62
711.679	2321.88
711.866	2457.05
712.054	2477.53
712.242	2385.37
712.43	2379.23
712.617	2293.21
712.805	2403.8
712.993	2356.7
713.181	2328.03
713.368	2373.08
713.556	2358.75
713.744	2239.97
713.931	2340.32
714.119	2307.55
714.306	2414.04
714.494	2356.7
714.682	2231.77
714.869	2264.54
715.057	2250.21
715.244	2280.93
715.432	2354.65
715.619	2297.31
715.807	2313.69
715.994	2278.88
716.182	2215.39
716.369	2233.82
716.556	2301.4
716.744	2225.63
716.931	2196.96
717.119	2141.66
717.306	2117.09
717.493	2166.24
717.681	2172.38
717.868	2129.38
718.055	2174.43
718.242	2192.86
718.43	2143.71
718.617	2131.42
718.804	2164.19
718.991	2100.7
719.179	2115.04
719.366	2037.22
719.553	2008.55
719.74	2104.8
719.927	2125.28
720.114	2037.22
720.301	2135.52
720.488	1918.43
720.676	2014.69
720.863	1969.63
721.05	1959.39
721.237	1910.24
721.424	1959.39
721.611	1973.73
721.798	1969.63
721.985	1953.25
722.172	1957.35
722.358	1955.3
722.545	1904.1
722.732	1854.95
722.919	1904.1
723.106	1897.96
723.293	1963.49
723.48	1879.52
723.667	1850.85
723.853	1889.76
724.04	1844.71
724.227	1897.96
724.414	1902.05
724.6	1783.27
724.787	1750.5
724.974	1719.78
725.161	1727.97
725.347	1813.99
725.534	1813.99
725.72	1842.66
725.907	1764.84
726.094	1750.5
726.28	1746.41
726.467	1846.76
726.653	1824.23
726.84	1779.17
727.027	1740.26
727.213	1699.3
727.4	1736.17
727.586	1705.45
727.773	1723.88
727.959	1727.97
728.145	1709.54
728.332	1574.38
728.518	1680.87
728.705	1691.11
728.891	1650.15
729.077	1633.77
729.264	1752.55
729.45	1672.68
729.636	1693.16
729.823	1723.88
730.009	1705.45
730.195	1750.5
730.382	1625.58
730.568	1674.73
730.754	1527.27
730.94	1627.62
731.126	1725.93
731.313	1615.34
731.499	1584.62
731.685	1592.81
731.871	1562.09
732.057	1566.18
732.243	1576.42
732.429	1480.17
732.615	1555.94
732.801	1590.76
732.987	1601
733.173	1455.59
733.359	1576.42
733.545	1566.18
733.731	1453.55
733.917	1574.38
734.103	1461.74
734.289	1480.17
734.475	1531.37
734.661	1547.75
734.847	1469.93
735.033	1506.79
735.219	1551.85
735.404	1453.55
735.59	1433.07
735.776	1480.17
735.962	1433.07
736.148	1476.07
736.333	1359.34
736.519	1406.44
736.705	1445.35
736.89	1371.63
737.076	1375.72
737.262	1379.82
737.447	1326.57
737.633	1412.59
737.819	1396.2
738.004	1355.24
738.19	1322.48
738.375	1363.44
738.561	1414.63
738.747	1330.67
738.932	1412.59
739.118	1379.82
739.303	1361.39
739.489	1297.9
739.674	1263.08
739.859	1451.5
740.045	1340.91
740.23	1345
740.416	1412.59
740.601	1310.19
740.786	1275.37
740.972	1226.22
741.157	1404.39
741.342	1332.72
741.528	1166.83
741.713	1326.57
741.898	1230.32
742.084	1291.76
742.269	1185.26
742.454	1211.89
742.639	1297.9
742.824	1183.21
743.01	1283.56
743.195	1211.89
743.38	1351.15
743.565	1197.55
743.75	1172.97
743.935	1238.51
744.12	1269.23
744.305	1191.41
744.49	1170.93
744.675	1242.61
744.86	1222.13
745.045	1175.02
745.23	1185.26
745.415	1213.93
745.6	1134.06
745.785	1060.34
745.97	1111.54
746.155	1119.73
746.34	1142.25
746.525	1179.12
746.71	1136.11
746.895	1125.87
747.079	1109.49
747.264	943.6
747.449	1109.49
747.634	1037.81
747.819	1068.53
748.003	1152.49
748.188	1050.1
748.373	1064.43
748.557	1048.05
748.742	1103.34
748.927	1105.39
749.111	1043.95
749.296	1070.58
749.481	1068.53
749.665	1064.43
749.85	1029.62
750.034	970.23
750.219	1005.04
750.404	896.5
750.588	978.42
750.773	974.32
750.957	957.94
751.141	906.74
751.326	1076.72
751.51	945.65
751.695	998.9
751.879	982.51
752.064	830.96
752.248	980.47
752.432	990.7
752.617	945.65
752.801	953.84
752.985	984.56
753.17	912.88
753.354	904.69
753.538	968.18
753.722	919.03
753.907	833.01
754.091	888.31
754.275	851.44
754.459	867.83
754.643	892.4
754.828	814.58
755.012	773.62
755.196	824.82
755.38	873.97
755.564	767.48
755.748	714.23
755.932	775.67
756.116	806.39
756.3	841.2
756.484	855.54
756.668	802.29
756.852	820.72
757.036	808.44
757.22	792.05
757.404	765.43
757.588	677.37
757.772	763.38
757.956	734.71
758.14	808.44
758.323	722.42
758.507	667.13
758.691	779.76
758.875	747
759.059	679.41
759.242	769.52
759.426	775.67
759.61	790
759.794	736.76
759.977	663.03
760.161	824.82
760.345	691.7
760.528	646.65
760.712	683.51
760.895	673.27
761.079	720.37
761.263	677.37
761.446	695.8
761.63	722.42
761.813	636.41
761.997	663.03
762.18	572.92
762.364	671.22
762.547	683.51
762.731	650.74
762.914	658.93
763.098	581.11
763.281	646.65
763.464	724.47
763.648	695.8
763.831	628.21
764.015	695.8
764.198	701.94
764.381	646.65
764.564	583.16
764.748	681.46
764.931	607.73
765.114	609.78
765.297	632.31
765.481	591.35
765.664	521.72
765.847	628.21
766.03	644.6
766.213	603.64
766.397	640.5
766.58	675.32
766.763	671.22
766.946	579.06
767.129	613.88
767.312	607.73
767.495	554.49
767.678	570.87
767.861	599.54
768.044	591.35
768.227	589.3
768.41	626.17
768.593	593.4
768.776	544.25
768.959	476.66
769.142	601.59
769.324	568.82
769.507	554.49
769.69	585.21
769.873	548.34
770.056	538.1
770.239	546.3
770.421	531.96
770.604	484.86
770.787	579.06
770.97	474.62
771.152	593.4
771.335	554.49
771.518	460.28
771.7	572.92
771.883	486.9
772.066	554.49
772.248	544.25
772.431	597.49
772.613	507.38
772.796	474.62
772.978	484.86
773.161	550.39
773.343	507.38
773.526	447.99
773.708	521.72
773.891	501.24
774.073	497.14
774.256	527.86
774.438	474.62
774.621	572.92
774.803	540.15
774.985	415.23
775.168	527.86
775.35	497.14
775.532	478.71
775.715	484.86
775.897	427.51
776.079	542.2
776.261	491
776.444	407.03
776.626	466.42
776.808	433.66
776.99	507.38
777.173	488.95
777.355	450.04
777.537	386.55
777.719	491
777.901	462.33
778.083	435.71
778.265	452.09
778.447	470.52
778.629	331.26
778.811	431.61
778.993	427.51
779.175	456.19
779.357	468.47
779.539	462.33
779.721	347.64
779.903	402.94
780.085	482.81
780.267	384.51
780.449	343.55
780.631	386.55
780.812	374.27
780.994	411.13
781.176	390.65
781.358	421.37
781.54	343.55
781.721	355.83
781.903	386.55
782.085	421.37
782.267	345.59
782.448	337.4
782.63	323.07
782.812	347.64
782.993	325.12
783.175	392.7
783.357	343.55
783.538	443.9
783.72	316.92
783.901	339.45
784.083	415.23
784.264	349.69
784.446	337.4
784.627	282.11
784.809	378.36
784.99	343.55
785.172	398.84
785.353	364.03
785.535	271.87
785.716	318.97
785.897	228.86
786.079	257.53
786.26	331.26
786.441	222.72
786.623	232.96
786.804	222.72
786.985	331.26
787.167	290.3
787.348	310.78
787.529	290.3
787.71	316.92
787.891	321.02
788.073	343.55
788.254	159.23
788.435	267.77
788.616	273.92
788.797	255.48
788.978	214.52
789.159	237.05
789.34	259.58
789.522	259.58
789.703	292.35
789.884	282.11
790.065	204.28
790.246	247.29
790.427	204.28
790.607	218.62
790.788	298.49
790.969	298.49
791.15	228.86
791.331	226.81
791.512	218.62
791.693	245.24
791.874	204.28
792.054	212.48
792.235	284.16
792.416	306.68
792.597	253.44
792.778	235
792.958	280.06
793.139	257.53
793.32	192
793.5	206.33
793.681	232.96
793.862	163.33
794.042	232.96
794.223	208.38
794.404	224.76
794.584	157.18
794.765	157.18
794.945	241.15
795.126	222.72
795.306	286.2
795.487	161.28
795.667	183.81
795.848	261.63
796.028	114.17
796.209	144.89
796.389	169.47
796.57	245.24
796.75	208.38
796.93	243.2
797.111	151.04
797.291	230.91
797.471	187.9
797.652	243.2
797.832	120.32
798.012	171.52
798.192	192
798.373	144.89
798.553	159.23
798.733	142.85
798.913	157.18
799.093	228.86
799.274	263.68
799.454	226.81
799.634	183.81
799.814	163.33
799.994	165.37
800.174	163.33
800.354	157.18
800.534	85.5
800.714	138.75
800.894	175.61
801.074	185.85
801.254	83.45
801.434	142.85
801.614	235
801.794	151.04
801.974	417.27
802.154	126.46
802.334	171.52
802.514	136.7
802.693	144.89
802.873	108.03
803.053	179.71
803.233	179.71
803.413	159.23
803.592	169.47
803.772	183.81
803.952	142.85
804.131	159.23
804.311	114.17
804.491	175.61
804.67	177.66
804.85	148.99
805.03	89.6
805.209	185.85
805.389	140.8
805.568	130.56
805.748	81.41
805.928	114.17
806.107	93.69
806.287	173.57
806.466	163.33
806.646	175.61
806.825	122.37
807.004	83.45
807.184	130.56
807.363	142.85
807.543	194.05
807.722	173.57
807.901	210.43
808.081	116.22
808.26	122.37
808.439	85.5
808.619	112.13
808.798	122.37
808.977	108.03
809.156	97.79
809.336	153.09
809.515	60.93
809.694	175.61
809.873	67.07
810.052	73.21
810.231	142.85
810.411	108.03
810.59	34.3
810.769	83.45
810.948	153.09
811.127	83.45
811.306	46.59
811.485	99.84
811.664	122.37
811.843	138.75
812.022	138.75
812.201	28.16
812.38	101.89
812.559	71.17
812.737	13.82
812.916	142.85
813.095	153.09
813.274	95.74
813.453	128.51
813.632	95.74
813.811	134.65
813.989	89.6
814.168	112.13
814.347	101.89
814.526	120.32
814.704	99.84
814.883	108.03
815.062	62.98
815.24	120.32
815.419	54.78
815.598	126.46
815.776	134.65
815.955	128.51
816.133	26.11
816.312	136.7
816.49	65.02
816.669	151.04
816.847	81.41
817.026	99.84
817.204	140.8
817.383	105.98
817.561	101.89
817.74	161.28
817.918	79.36
818.097	136.7
818.275	60.93
818.453	65.02
818.632	56.83
818.81	85.5
818.988	83.45
819.167	79.36
819.345	87.55
819.523	58.88
819.701	91.65
819.879	30.21
820.058	116.22
820.236	148.99
820.414	93.69
820.592	36.35
820.77	110.08
820.948	122.37
821.127	79.36
821.305	46.59
821.483	69.12
821.661	122.37
821.839	42.5
822.017	138.75
822.195	126.46
822.373	85.5
822.551	73.21
822.729	87.55
822.907	153.09
823.085	91.65
823.262	62.98
823.44	101.89
823.618	110.08
823.796	134.65
823.974	128.51
824.152	77.31
824.329	85.5
824.507	136.7
824.685	77.31
824.863	50.69
825.04	67.07
825.218	146.94
825.396	60.93
825.574	71.17
825.751	38.4
825.929	112.13
826.107	28.16
826.284	85.5
826.462	67.07
826.639	56.83
826.817	120.32
826.994	110.08
827.172	52.74
827.349	32.26
827.527	28.16
827.704	105.98
827.882	97.79
828.059	-33.28
828.237	60.93
828.414	56.83
828.591	46.59
828.769	103.93
828.946	95.74
829.124	69.12
829.301	-35.33
829.478	15.87
829.655	69.12
829.833	42.5
830.01	7.68
830.187	118.27
830.364	-27.14
830.542	124.41
830.719	11.78
830.896	99.84
831.073	60.93
831.25	46.59
831.427	105.98
831.604	97.79
831.782	126.46
831.959	136.7
832.136	22.02
832.313	65.02
832.49	75.26
832.667	26.11
832.844	69.12
833.021	40.45
833.198	93.69
833.374	85.5
833.551	28.16
833.728	19.97
833.905	-0.51
834.082	52.74
834.259	36.35
834.436	87.55
834.612	67.07
834.789	130.56
834.966	62.98
835.143	54.78
835.319	-51.71
835.496	36.35
835.673	97.79
835.85	67.07
836.026	5.63
836.203	56.83
836.38	40.45
836.556	122.37
836.733	11.78
836.909	71.17
837.086	60.93
837.262	44.54
837.439	17.92
837.616	11.78
837.792	65.02
837.968	24.06
838.145	32.26
838.321	40.45
838.498	95.74
838.674	28.16
838.851	34.3
839.027	153.09
839.203	-10.75
839.38	83.45
839.556	15.87
839.732	1.54
839.909	-14.85
840.085	50.69
840.261	54.78
840.437	58.88
840.614	36.35
840.79	52.74
840.966	77.31
841.142	1.54
841.318	-29.18
841.494	138.75
841.671	-41.47
841.847	114.17
842.023	30.21
842.199	93.69
842.375	-2.56
842.551	7.68
842.727	69.12
842.903	11.78
843.079	54.78
843.255	85.5
843.431	44.54
843.607	22.02
843.783	75.26
843.959	77.31
844.134	101.89
844.31	67.07
844.486	5.63
844.662	52.74
844.838	46.59
845.013	73.21
845.189	3.58
845.365	42.5
845.541	3.58
845.716	54.78
845.892	77.31
846.068	-4.61
846.244	-35.33
846.419	75.26
846.595	-16.9
846.77	22.02
846.946	-82.43
847.122	44.54
847.297	-6.66
847.473	34.3
847.648	30.21
847.824	67.07
847.999	99.84
848.175	38.4
848.35	75.26
848.526	44.54
848.701	91.65
848.876	7.68
849.052	42.5
849.227	138.75
849.403	54.78
849.578	91.65
849.753	11.78
849.929	112.13
850.104	77.31
850.279	48.64
850.454	85.5
850.63	36.35
850.805	7.68
850.98	-45.57
851.155	65.02
851.33	71.17
851.505	-14.85
851.681	120.32
851.856	30.21
852.031	42.5
852.206	11.78
852.381	-10.75
852.556	-47.62
852.731	95.74
852.906	52.74
853.081	75.26
853.256	26.11
853.431	17.92
853.606	32.26
853.781	1.54
853.956	11.78
854.131	28.16
854.305	38.4
854.48	-20.99
854.655	99.84
854.83	44.54
855.005	11.78
855.18	30.21
855.354	34.3
855.529	34.3
855.704	3.58
855.879	3.58
856.053	-12.8
856.228	15.87
856.403	85.5
856.577	73.21
856.752	60.93
856.926	17.92
857.101	62.98
857.276	11.78
857.45	-0.51
857.625	42.5
857.799	48.64
857.974	85.5
858.148	30.21
858.323	22.02
858.497	38.4
858.672	52.74
858.846	9.73
859.02	75.26
859.195	9.73
859.369	5.63
859.543	3.58
859.718	42.5
859.892	85.5
860.066	65.02
860.241	3.58
860.415	75.26
860.589	34.3
860.763	40.45
860.938	73.21
861.112	46.59
861.286	3.58
861.46	-6.66
861.634	-8.7
861.808	38.4
861.982	71.17
862.157	28.16
862.331	-31.23
862.505	120.32
862.679	73.21
862.853	50.69
863.027	52.74
863.201	54.78
863.375	-0.51
863.549	30.21
863.722	128.51
863.896	75.26
864.07	19.97
864.244	52.74
864.418	56.83
864.592	79.36
864.766	-20.99
864.939	85.5
865.113	15.87
865.287	44.54
865.461	73.21
865.634	65.02
865.808	17.92
865.982	50.69
866.156	-4.61
866.329	24.06
866.503	65.02
866.676	77.31
866.85	22.02
867.024	40.45
867.197	54.78
867.371	15.87
867.544	13.82
867.718	-8.7
867.891	36.35
868.065	7.68
868.238	26.11
868.412	50.69
868.585	-20.99
868.759	26.11
868.932	36.35
869.105	22.02
869.279	34.3
869.452	-33.28
869.625	5.63
869.799	40.45
869.972	17.92
870.145	-47.62
870.319	-0.51
870.492	13.82
870.665	-12.8
870.838	42.5
871.011	-20.99
871.185	52.74
871.358	40.45
871.531	38.4
871.704	-41.47
871.877	89.6
872.05	34.3
872.223	-6.66
872.396	-35.33
872.569	48.64
872.742	34.3
872.915	5.63
873.088	30.21
873.261	-8.7
873.434	11.78
873.607	44.54
873.78	24.06
873.953	48.64
874.126	50.69
874.299	69.12
874.471	-0.51
874.644	-31.23
874.817	40.45
874.99	-23.04
875.163	54.78
875.335	34.3
875.508	1.54
875.681	77.31
875.853	-45.57
876.026	-31.23
876.199	22.02
876.371	11.78
876.544	11.78
876.717	-0.51
876.889	65.02
877.062	32.26
877.234	46.59
877.407	11.78
877.579	38.4
877.752	95.74
877.924	42.5
878.097	11.78
878.269	-6.66
878.442	36.35
878.614	58.88
878.786	46.59
878.959	40.45
879.131	-10.75
879.303	-43.52
879.476	-0.51
879.648	-23.04
879.82	36.35
879.993	-64
880.165	-31.23
880.337	3.58
880.509	-2.56
880.681	-20.99
880.854	36.35
881.026	-41.47
881.198	52.74
881.37	54.78
881.542	36.35
881.714	9.73
881.886	40.45
882.058	58.88
882.23	30.21
882.402	24.06
882.574	26.11
882.746	1.54
882.918	-12.8
883.09	-12.8
883.262	83.45
883.434	15.87
883.606	13.82
883.778	-27.14
883.95	69.12
884.122	7.68
884.293	42.5
884.465	19.97
884.637	56.83
884.809	42.5
884.98	48.64
885.152	48.64
885.324	79.36
885.496	58.88
885.667	69.12
885.839	42.5
886.011	56.83
886.182	44.54
886.354	-12.8
886.525	24.06
886.697	46.59
886.869	13.82
887.04	-16.9
887.212	5.63
887.383	11.78
887.555	40.45
887.726	30.21
887.897	-8.7
888.069	-4.61
888.24	-82.43
888.412	-4.61
888.583	-37.38
888.754	38.4
888.926	15.87
889.097	-10.75
889.268	-0.51
889.44	40.45
889.611	32.26
889.782	-10.75
889.953	-59.9
890.125	32.26
890.296	32.26
890.467	54.78
890.638	1.54
890.809	28.16
890.98	30.21
891.151	75.26
891.323	38.4
891.494	26.11
891.665	38.4
891.836	-10.75
892.007	34.3
892.178	34.3
892.349	-33.28
892.52	69.12
892.691	-8.7
892.862	44.54
893.032	50.69
893.203	9.73
893.374	5.63
893.545	81.41
893.716	-2.56
893.887	85.5
894.057	-6.66
894.228	-25.09
894.399	7.68
894.57	38.4
894.74	22.02
894.911	-27.14
895.082	30.21
895.253	-10.75
895.423	17.92
895.594	-0.51
895.764	9.73
895.935	-16.9
896.106	34.3
896.276	48.64
896.447	-8.7
896.617	17.92
896.788	-0.51
896.958	22.02
897.129	-18.94
897.299	91.65
897.47	-0.51
897.64	-6.66
897.81	50.69
897.981	28.16
898.151	-16.9
898.322	67.07
898.492	19.97
898.662	19.97
898.832	-41.47
899.003	-20.99
899.173	-16.9
899.343	15.87
899.513	-43.52
