Data from USB4F104151__188__13-59-11-529.txt Node

Date: Thu Mar 13 13:59:11 EDT 2025
User: louis
Spectrometer: USB4F10415
Trigger mode: 4
Integration Time (sec): 1.000000E-2
Scans to average: 1
Electric dark correction enabled: true
Nonlinearity correction enabled: false
Boxcar width: 0
XAxis mode: Wavelengths
Number of Pixels in Spectrum: 3648
>>>>>Begin Spectral Data<<<<<
178.204	-39.76
178.424	-39.76
178.644	-39.76
178.864	-27.48
179.084	-13.14
179.304	7.34
179.524	-13.14
179.744	42.15
179.964	-4.95
180.184	42.15
180.404	-33.62
180.624	9.39
180.844	9.39
181.064	-31.57
181.283	-7
181.503	-54.1
181.723	33.96
181.943	33.96
182.163	15.53
182.383	-25.43
182.602	-41.81
182.822	42.15
183.042	50.35
183.262	3.24
183.482	33.96
183.701	1.19
183.921	60.59
184.141	13.48
184.361	9.39
184.58	25.77
184.8	-37.72
185.02	64.68
185.239	-66.39
185.459	9.39
185.679	56.49
185.898	25.77
186.118	52.39
186.338	105.64
186.557	-15.19
186.777	23.72
186.997	36.01
187.216	13.48
187.436	-21.33
187.655	19.63
187.875	-4.95
188.095	76.97
188.314	60.59
188.534	33.96
188.753	21.67
188.973	68.78
189.192	48.3
189.412	21.67
189.631	-68.44
189.851	-15.19
190.07	97.45
190.29	-47.96
190.509	52.39
190.729	-37.72
190.948	5.29
191.168	27.82
191.387	23.72
191.607	17.58
191.826	91.31
192.045	29.87
192.265	83.11
192.484	31.91
192.704	-0.85
192.923	-11.09
193.142	33.96
193.362	58.54
193.581	11.43
193.8	31.91
194.02	40.11
194.239	25.77
194.458	-35.67
194.678	-4.95
194.897	40.11
195.116	40.11
195.335	-7
195.555	74.92
195.774	7.34
195.993	31.91
196.212	40.11
196.432	40.11
196.651	27.82
196.87	-13.14
197.089	68.78
197.308	15.53
197.528	-39.76
197.747	7.34
197.966	-37.72
198.185	81.07
198.404	21.67
198.623	50.35
198.842	50.35
199.062	31.91
199.281	76.97
199.5	38.06
199.719	25.77
199.938	23.72
200.157	52.39
200.376	115.88
200.595	66.73
200.814	-17.24
201.033	-11.09
201.252	-41.81
201.471	56.49
201.69	48.3
201.909	64.68
202.128	15.53
202.347	38.06
202.566	17.58
202.785	-29.52
203.004	-4.95
203.223	54.44
203.442	56.49
203.661	25.77
203.879	79.02
204.098	52.39
204.317	-72.53
204.536	66.73
204.755	1.19
204.974	15.53
205.193	19.63
205.411	48.3
205.63	-4.95
205.849	40.11
206.068	-7
206.287	1.19
206.505	7.34
206.724	15.53
206.943	42.15
207.162	48.3
207.381	48.3
207.599	48.3
207.818	31.91
208.037	-7
208.255	-15.19
208.474	31.91
208.693	72.87
208.911	58.54
209.13	-23.38
209.349	93.35
209.567	36.01
209.786	21.67
210.005	9.39
210.223	3.24
210.442	15.53
210.661	68.78
210.879	-39.76
211.098	-13.14
211.316	36.01
211.535	-0.85
211.753	46.25
211.972	23.72
212.191	-39.76
212.409	107.69
212.628	-7
212.846	15.53
213.065	52.39
213.283	81.07
213.502	9.39
213.72	42.15
213.938	72.87
214.157	107.69
214.375	1.19
214.594	33.96
214.812	60.59
215.031	66.73
215.249	-23.38
215.467	-7
215.686	62.63
215.904	25.77
216.122	-21.33
216.341	81.07
216.559	56.49
216.778	15.53
216.996	85.16
217.214	72.87
217.432	-2.9
217.651	25.77
217.869	54.44
218.087	29.87
218.306	-23.38
218.524	58.54
218.742	15.53
218.96	3.24
219.179	40.11
219.397	15.53
219.615	31.91
219.833	-35.67
220.051	17.58
220.27	72.87
220.488	-19.29
220.706	7.34
220.924	33.96
221.142	76.97
221.36	11.43
221.578	27.82
221.796	33.96
222.015	62.63
222.233	-11.09
222.451	3.24
222.669	42.15
222.887	-43.86
223.105	64.68
223.323	91.31
223.541	23.72
223.759	7.34
223.977	-0.85
224.195	68.78
224.413	19.63
224.631	23.72
224.849	-25.43
225.067	99.5
225.285	-0.85
225.503	17.58
225.721	3.24
225.939	25.77
226.157	25.77
226.375	64.68
226.592	48.3
226.81	95.4
227.028	15.53
227.246	1.19
227.464	50.35
227.682	68.78
227.9	81.07
228.117	50.35
228.335	-11.09
228.553	74.92
228.771	33.96
228.989	-0.85
229.206	87.21
229.424	3.24
229.642	15.53
229.86	60.59
230.077	56.49
230.295	54.44
230.513	99.5
230.731	62.63
230.948	42.15
231.166	76.97
231.384	87.21
231.601	-60.24
231.819	21.67
232.037	56.49
232.254	-47.96
232.472	31.91
232.689	15.53
232.907	-35.67
233.125	54.44
233.342	1.19
233.56	-13.14
233.777	5.29
233.995	58.54
234.213	72.87
234.43	-7
234.648	7.34
234.865	33.96
235.083	99.5
235.3	-39.76
235.518	23.72
235.735	36.01
235.953	17.58
236.17	-25.43
236.388	21.67
236.605	21.67
236.822	38.06
237.04	-31.57
237.257	44.2
237.475	19.63
237.692	109.74
237.909	-17.24
238.127	9.39
238.344	-17.24
238.562	68.78
238.779	64.68
238.996	-7
239.214	17.58
239.431	54.44
239.648	-4.95
239.865	48.3
240.083	56.49
240.3	97.45
240.517	33.96
240.735	7.34
240.952	44.2
241.169	44.2
241.386	48.3
241.603	38.06
241.821	-9.05
242.038	3.24
242.255	103.59
242.472	-11.09
242.689	50.35
242.907	56.49
243.124	70.83
243.341	91.31
243.558	29.87
243.775	17.58
243.992	-4.95
244.209	31.91
244.426	66.73
244.643	-29.52
244.86	-43.86
245.078	81.07
245.295	25.77
245.512	5.29
245.729	-54.1
245.946	126.12
246.163	-4.95
246.38	-9.05
246.597	11.43
246.814	17.58
247.031	74.92
247.248	17.58
247.464	31.91
247.681	42.15
247.898	-19.29
248.115	33.96
248.332	11.43
248.549	58.54
248.766	15.53
248.983	-9.05
249.2	3.24
249.417	81.07
249.633	-17.24
249.85	60.59
250.067	-64.34
250.284	-35.67
250.501	31.91
250.717	25.77
250.934	40.11
251.151	-29.52
251.368	72.87
251.585	54.44
251.801	-9.05
252.018	-11.09
252.235	105.64
252.451	46.25
252.668	3.24
252.885	91.31
253.102	7.34
253.318	5.29
253.535	134.31
253.752	19.63
253.968	81.07
254.185	-7
254.401	9.39
254.618	60.59
254.835	-0.85
255.051	46.25
255.268	31.91
255.484	-0.85
255.701	-13.14
255.917	-23.38
256.134	42.15
256.351	33.96
256.567	42.15
256.784	93.35
257	29.87
257.217	58.54
257.433	11.43
257.65	38.06
257.866	70.83
258.082	42.15
258.299	-4.95
258.515	5.29
258.732	68.78
258.948	89.26
259.165	-9.05
259.381	50.35
259.597	23.72
259.814	66.73
260.03	27.82
260.246	17.58
260.463	17.58
260.679	38.06
260.895	70.83
261.112	66.73
261.328	-33.62
261.544	54.44
261.761	64.68
261.977	5.29
262.193	62.63
262.409	17.58
262.626	-13.14
262.842	42.15
263.058	40.11
263.274	11.43
263.49	-68.44
263.707	44.2
263.923	11.43
264.139	54.44
264.355	93.35
264.571	7.34
264.787	27.82
265.004	101.55
265.22	29.87
265.436	-41.81
265.652	50.35
265.868	48.3
266.084	-0.85
266.3	89.26
266.516	-17.24
266.732	66.73
266.948	29.87
267.164	66.73
267.38	81.07
267.596	50.35
267.812	29.87
268.028	95.4
268.244	-9.05
268.46	36.01
268.676	74.92
268.892	91.31
269.108	11.43
269.324	29.87
269.54	25.77
269.756	40.11
269.972	-25.43
270.188	44.2
270.403	15.53
270.619	5.29
270.835	91.31
271.051	31.91
271.267	50.35
271.483	46.25
271.698	50.35
271.914	62.63
272.13	74.92
272.346	27.82
272.562	17.58
272.777	48.3
272.993	36.01
273.209	36.01
273.425	54.44
273.64	-15.19
273.856	33.96
274.072	36.01
274.287	-4.95
274.503	-9.05
274.719	29.87
274.934	21.67
275.15	76.97
275.366	-27.48
275.581	68.78
275.797	3.24
276.012	42.15
276.228	91.31
276.444	36.01
276.659	19.63
276.875	50.35
277.09	56.49
277.306	27.82
277.521	40.11
277.737	-17.24
277.952	81.07
278.168	-9.05
278.383	42.15
278.599	-33.62
278.814	81.07
279.03	-15.19
279.245	36.01
279.461	38.06
279.676	33.96
279.892	109.74
280.107	89.26
280.322	25.77
280.538	50.35
280.753	-62.29
280.969	15.53
281.184	62.63
281.399	58.54
281.615	23.72
281.83	54.44
282.045	48.3
282.26	52.39
282.476	89.26
282.691	1.19
282.906	19.63
283.122	50.35
283.337	15.53
283.552	-31.57
283.767	74.92
283.983	68.78
284.198	38.06
284.413	23.72
284.628	-50
284.843	31.91
285.058	-4.95
285.274	29.87
285.489	-41.81
285.704	58.54
285.919	76.97
286.134	89.26
286.349	46.25
286.564	7.34
286.779	89.26
286.995	56.49
287.21	1.19
287.425	-27.48
287.64	31.91
287.855	99.5
288.07	36.01
288.285	66.73
288.5	66.73
288.715	54.44
288.93	17.58
289.145	27.82
289.36	46.25
289.575	66.73
289.79	76.97
290.004	101.55
290.219	19.63
290.434	25.77
290.649	40.11
290.864	-21.33
291.079	-35.67
291.294	-25.43
291.509	66.73
291.724	3.24
291.938	40.11
292.153	72.87
292.368	-2.9
292.583	25.77
292.798	46.25
293.012	85.16
293.227	66.73
293.442	-15.19
293.657	58.54
293.871	85.16
294.086	101.55
294.301	52.39
294.516	11.43
294.73	-39.76
294.945	38.06
295.16	1.19
295.374	-2.9
295.589	87.21
295.804	27.82
296.018	-37.72
296.233	19.63
296.447	9.39
296.662	52.39
296.877	40.11
297.091	19.63
297.306	56.49
297.52	21.67
297.735	134.31
297.949	15.53
298.164	40.11
298.378	-41.81
298.593	68.78
298.807	46.25
299.022	38.06
299.236	105.64
299.451	29.87
299.665	9.39
299.88	79.02
300.094	-52.05
300.309	7.34
300.523	25.77
300.737	9.39
300.952	42.15
301.166	50.35
301.381	85.16
301.595	60.59
301.809	-52.05
302.024	42.15
302.238	-74.58
302.452	48.3
302.667	76.97
302.881	66.73
303.095	-23.38
303.309	-13.14
303.524	42.15
303.738	13.48
303.952	50.35
304.166	44.2
304.381	36.01
304.595	68.78
304.809	36.01
305.023	44.2
305.237	56.49
305.452	72.87
305.666	50.35
305.88	5.29
306.094	-4.95
306.308	15.53
306.522	60.59
306.736	9.39
306.95	29.87
307.164	-29.52
307.379	87.21
307.593	42.15
307.807	91.31
308.021	111.78
308.235	68.78
308.449	7.34
308.663	-15.19
308.877	-4.95
309.091	58.54
309.305	105.64
309.519	17.58
309.733	-15.19
309.947	27.82
310.161	64.68
310.374	3.24
310.588	68.78
310.802	40.11
311.016	101.55
311.23	-33.62
311.444	76.97
311.658	27.82
311.872	70.83
312.085	-43.86
312.299	58.54
312.513	64.68
312.727	-2.9
312.941	40.11
313.154	89.26
313.368	31.91
313.582	103.59
313.796	-23.38
314.009	23.72
314.223	9.39
314.437	40.11
314.651	46.25
314.864	36.01
315.078	15.53
315.292	-23.38
315.505	52.39
315.719	97.45
315.933	56.49
316.146	48.3
316.36	11.43
316.573	46.25
316.787	5.29
317.001	87.21
317.214	29.87
317.428	60.59
317.641	-13.14
317.855	-25.43
318.068	-0.85
318.282	5.29
318.495	48.3
318.709	64.68
318.922	27.82
319.136	50.35
319.349	25.77
319.563	23.72
319.776	50.35
319.99	40.11
320.203	-29.52
320.417	-15.19
320.63	107.69
320.843	68.78
321.057	31.91
321.27	64.68
321.483	9.39
321.697	87.21
321.91	27.82
322.124	76.97
322.337	33.96
322.55	17.58
322.763	58.54
322.977	7.34
323.19	-2.9
323.403	36.01
323.617	101.55
323.83	119.98
324.043	52.39
324.256	-2.9
324.469	-17.24
324.683	50.35
324.896	68.78
325.109	50.35
325.322	109.74
325.535	52.39
325.748	50.35
325.962	-33.62
326.175	7.34
326.388	60.59
326.601	3.24
326.814	42.15
327.027	50.35
327.24	9.39
327.453	-9.05
327.666	50.35
327.879	62.63
328.092	52.39
328.305	7.34
328.518	105.64
328.731	21.67
328.944	52.39
329.157	60.59
329.37	38.06
329.583	72.87
329.796	1.19
330.009	11.43
330.222	124.07
330.435	60.59
330.648	-4.95
330.861	72.87
331.073	36.01
331.286	-21.33
331.499	25.77
331.712	17.58
331.925	-7
332.138	9.39
332.35	107.69
332.563	42.15
332.776	33.96
332.989	-4.95
333.202	31.91
333.414	33.96
333.627	68.78
333.84	36.01
334.053	72.87
334.265	9.39
334.478	21.67
334.691	-50
334.903	40.11
335.116	52.39
335.329	5.29
335.541	-19.29
335.754	-4.95
335.966	56.49
336.179	56.49
336.392	81.07
336.604	38.06
336.817	134.31
337.029	50.35
337.242	-4.95
337.454	33.96
337.667	62.63
337.88	74.92
338.092	21.67
338.305	3.24
338.517	27.82
338.729	33.96
338.942	7.34
339.154	21.67
339.367	1.19
339.579	33.96
339.792	19.63
340.004	66.73
340.217	27.82
340.429	13.48
340.641	11.43
340.854	68.78
341.066	83.11
341.278	11.43
341.491	48.3
341.703	27.82
341.915	25.77
342.128	48.3
342.34	9.39
342.552	23.72
342.764	-4.95
342.977	99.5
343.189	13.48
343.401	25.77
343.613	13.48
343.826	33.96
344.038	44.2
344.25	74.92
344.462	56.49
344.674	44.2
344.886	70.83
345.099	31.91
345.311	62.63
345.523	50.35
345.735	-29.52
345.947	68.78
346.159	101.55
346.371	81.07
346.583	50.35
346.795	85.16
347.007	56.49
347.219	36.01
347.431	154.79
347.643	19.63
347.855	40.11
348.067	50.35
348.279	56.49
348.491	1.19
348.703	-0.85
348.915	171.18
349.127	42.15
349.339	126.12
349.551	44.2
349.763	74.92
349.975	105.64
350.187	66.73
350.399	3.24
350.61	-13.14
350.822	44.2
351.034	70.83
351.246	66.73
351.458	52.39
351.669	23.72
351.881	-31.57
352.093	46.25
352.305	9.39
352.517	-17.24
352.728	40.11
352.94	66.73
353.152	31.91
353.363	3.24
353.575	85.16
353.787	-41.81
353.999	72.87
354.21	81.07
354.422	132.26
354.633	54.44
354.845	58.54
355.057	124.07
355.268	-19.29
355.48	38.06
355.692	56.49
355.903	48.3
356.115	-27.48
356.326	54.44
356.538	31.91
356.749	15.53
356.961	85.16
357.172	-29.52
357.384	-15.19
357.595	42.15
357.807	56.49
358.018	17.58
358.23	-27.48
358.441	130.22
358.653	56.49
358.864	-47.96
359.075	23.72
359.287	27.82
359.498	-13.14
359.709	29.87
359.921	7.34
360.132	36.01
360.344	52.39
360.555	97.45
360.766	46.25
360.977	56.49
361.189	42.15
361.4	72.87
361.611	-37.72
361.823	29.87
362.034	-19.29
362.245	40.11
362.456	56.49
362.667	74.92
362.879	25.77
363.09	11.43
363.301	27.82
363.512	38.06
363.723	64.68
363.935	48.3
364.146	31.91
364.357	40.11
364.568	64.68
364.779	25.77
364.99	31.91
365.201	72.87
365.412	76.97
365.623	-58.2
365.834	68.78
366.045	85.16
366.256	76.97
366.467	31.91
366.678	89.26
366.889	-4.95
367.1	44.2
367.311	15.53
367.522	23.72
367.733	48.3
367.944	64.68
368.155	95.4
368.366	85.16
368.577	17.58
368.788	68.78
368.999	23.72
369.209	42.15
369.42	33.96
369.631	76.97
369.842	15.53
370.053	97.45
370.264	64.68
370.474	68.78
370.685	-9.05
370.896	70.83
371.107	85.16
371.317	54.44
371.528	13.48
371.739	54.44
371.95	93.35
372.16	-31.57
372.371	23.72
372.582	5.29
372.792	-29.52
373.003	19.63
373.214	-50
373.424	68.78
373.635	70.83
373.846	54.44
374.056	56.49
374.267	54.44
374.477	38.06
374.688	38.06
374.898	36.01
375.109	85.16
375.319	52.39
375.53	3.24
375.74	56.49
375.951	48.3
376.161	64.68
376.372	64.68
376.582	9.39
376.793	-19.29
377.003	42.15
377.214	31.91
377.424	-0.85
377.635	107.69
377.845	52.39
378.055	66.73
378.266	13.48
378.476	50.35
378.686	62.63
378.897	52.39
379.107	42.15
379.317	-2.9
379.528	48.3
379.738	89.26
379.948	42.15
380.158	7.34
380.369	13.48
380.579	89.26
380.789	79.02
380.999	-13.14
381.21	66.73
381.42	99.5
381.63	60.59
381.84	115.88
382.05	40.11
382.261	103.59
382.471	54.44
382.681	48.3
382.891	56.49
383.101	66.73
383.311	3.24
383.521	101.55
383.731	21.67
383.941	87.21
384.151	27.82
384.361	87.21
384.571	7.34
384.781	7.34
384.991	64.68
385.201	23.72
385.411	-33.62
385.621	74.92
385.831	79.02
386.041	109.74
386.251	-9.05
386.461	48.3
386.671	1.19
386.881	99.5
387.091	23.72
387.301	68.78
387.511	11.43
387.72	15.53
387.93	72.87
388.14	29.87
388.35	29.87
388.56	111.78
388.769	36.01
388.979	91.31
389.189	54.44
389.399	13.48
389.609	87.21
389.818	74.92
390.028	138.41
390.238	36.01
390.447	111.78
390.657	99.5
390.867	76.97
391.076	87.21
391.286	72.87
391.496	81.07
391.705	15.53
391.915	89.26
392.125	29.87
392.334	54.44
392.544	89.26
392.753	72.87
392.963	1.19
393.172	103.59
393.382	115.88
393.591	107.69
393.801	-23.38
394.01	105.64
394.22	83.11
394.429	60.59
394.639	44.2
394.848	31.91
395.058	68.78
395.267	64.68
395.477	3.24
395.686	31.91
395.895	72.87
396.105	56.49
396.314	42.15
396.524	66.73
396.733	38.06
396.942	74.92
397.152	79.02
397.361	66.73
397.57	60.59
397.78	97.45
397.989	62.63
398.198	101.55
398.407	64.68
398.617	-0.85
398.826	83.11
399.035	19.63
399.244	50.35
399.453	76.97
399.663	130.22
399.872	83.11
400.081	42.15
400.29	52.39
400.499	93.35
400.708	68.78
400.917	97.45
401.127	130.22
401.336	81.07
401.545	101.55
401.754	44.2
401.963	177.32
402.172	42.15
402.381	7.34
402.59	130.22
402.799	95.4
403.008	44.2
403.217	144.55
403.426	7.34
403.635	87.21
403.844	40.11
404.053	79.02
404.262	99.5
404.471	91.31
404.68	46.25
404.888	40.11
405.097	156.84
405.306	197.8
405.515	58.54
405.724	109.74
405.933	72.87
406.142	199.85
406.35	113.83
406.559	115.88
406.768	103.59
406.977	83.11
407.185	134.31
407.394	103.59
407.603	48.3
407.812	228.52
408.02	201.9
408.229	199.85
408.438	199.85
408.646	99.5
408.855	158.89
409.064	205.99
409.272	181.42
409.481	146.6
409.69	234.66
409.898	160.94
410.107	169.13
410.315	214.18
410.524	185.51
410.733	302.25
410.941	208.04
411.15	244.9
411.358	261.29
411.567	189.61
411.775	185.51
411.984	255.14
412.192	281.77
412.401	259.24
412.609	312.49
412.818	308.39
413.026	318.63
413.234	337.06
413.443	332.97
413.651	337.06
413.86	296.1
414.068	351.4
414.276	382.12
414.485	378.02
414.693	398.5
414.901	472.23
415.11	429.22
415.318	423.08
415.526	396.45
415.734	509.09
415.943	521.38
416.151	603.3
416.359	545.95
416.567	486.56
416.776	517.28
416.984	507.04
417.192	564.39
417.4	519.33
417.608	595.11
417.817	576.67
418.025	693.41
418.233	685.22
418.441	660.64
418.649	763.04
418.857	756.9
419.065	830.62
419.273	713.89
419.481	787.61
419.689	926.88
419.897	957.6
420.105	902.3
420.313	935.07
420.521	933.02
420.729	908.44
420.937	1053.85
421.145	976.03
421.353	1127.58
421.561	1215.64
421.769	1154.2
421.977	1162.39
422.185	1248.41
422.393	1303.7
422.601	1356.95
422.809	1391.77
423.017	1408.15
423.224	1410.2
423.432	1399.96
423.64	1524.88
423.848	1602.71
424.056	1555.6
424.263	1674.39
424.471	1612.95
424.679	1698.96
424.887	1842.32
425.094	1852.56
425.302	1836.17
425.51	1977.48
425.718	1854.61
425.925	2063.5
426.133	2071.69
426.341	2129.03
426.548	2286.73
426.756	2229.38
426.964	2299.02
427.171	2469
427.379	2518.15
427.586	2487.43
427.794	2610.31
428.001	2759.81
428.209	2899.07
428.417	2749.57
428.624	2944.13
428.832	3044.48
429.039	2989.18
429.247	3079.29
429.454	3234.94
429.662	3333.24
429.869	3318.9
430.076	3470.45
430.284	3431.54
430.491	3488.89
430.699	3839.09
430.906	3689.59
431.114	3718.26
431.321	3869.81
431.528	4064.36
431.736	4275.31
431.943	4553.83
432.15	4252.78
432.358	4342.89
432.565	4602.98
432.772	4705.38
432.979	4777.06
433.187	4889.7
433.394	4887.65
433.601	5180.51
433.808	5231.71
434.016	5327.96
434.223	5399.64
434.43	5751.89
434.637	5727.32
434.844	6087.76
435.052	6052.94
435.259	6069.33
435.466	6200.4
435.673	6085.71
435.88	6302.79
436.087	6857.79
436.294	6771.78
436.501	6644.81
436.708	6777.92
436.915	7185.47
437.122	7332.92
437.329	7494.71
437.537	7431.23
437.743	7584.82
437.95	7609.4
438.157	8115.25
438.364	8164.4
438.571	8193.07
438.778	8295.47
438.985	9133.09
439.192	8868.9
439.399	9028.64
439.606	8778.79
439.813	9432.09
440.02	9841.68
440.227	9602.07
440.433	9425.95
440.64	10015.76
440.847	9821.2
441.054	10169.36
441.261	10857.48
441.467	10478.6
441.674	10957.83
441.881	11197.44
442.088	11056.13
442.294	11015.17
442.501	11557.88
442.708	11723.77
442.914	12196.85
443.121	12622.83
443.328	12151.79
443.534	13042.66
443.741	12739.56
443.948	12368.88
444.154	13618.14
444.361	13177.83
444.568	13423.58
444.774	13458.4
444.981	13689.82
445.187	14123.99
445.394	14545.87
445.6	14341.07
445.807	15752.12
446.013	15045.57
446.22	15504.32
446.426	15938.49
446.633	16100.28
446.839	16606.13
447.046	15795.13
447.252	16935.85
447.459	16929.7
447.665	16804.78
447.871	17615.77
448.078	18402.19
448.284	17456.03
448.491	18090.9
448.697	18664.33
448.903	19065.74
449.11	18967.43
449.316	18678.67
449.522	19311.49
449.728	19809.15
449.935	19835.77
450.141	19952.51
450.347	20183.93
450.553	19243.91
450.76	19753.85
450.966	20462.45
451.172	20200.31
451.378	20878.19
451.584	20140.92
451.791	20704.11
451.997	20697.97
452.203	21156.71
452.409	21039.98
452.615	21128.04
452.821	20501.36
453.027	20095.86
453.233	21052.27
453.44	20331.38
453.646	20431.73
453.852	20536.18
454.058	20843.37
454.264	20343.67
454.47	21001.07
454.676	20112.25
454.882	20945.77
455.088	19170.18
455.294	19422.08
455.5	19743.61
455.705	19798.91
455.911	19004.3
456.117	18682.77
456.323	18547.6
456.529	17820.57
456.735	18256.79
456.941	17902.49
457.147	17566.62
457.352	17079.21
457.558	16980.9
457.764	16923.56
457.97	16524.21
458.176	16083.89
458.381	16106.42
458.587	15322.05
458.793	15416.26
458.999	14701.51
459.204	15821.75
459.41	15209.41
459.616	14281.68
459.821	14289.87
460.027	14328.78
460.233	13794.26
460.438	13327.33
460.644	13503.45
460.85	12788.71
461.055	12432.36
461.261	12362.73
461.466	11594.75
461.672	11265.02
461.878	11998.2
462.083	11236.35
462.289	11181.06
462.494	11017.22
462.7	10482.7
462.905	10202.13
463.111	10533.9
463.316	10662.92
463.522	10482.7
463.727	10474.51
463.932	10640.39
464.138	10269.71
464.343	10454.03
464.549	10165.26
464.754	10335.24
464.959	10271.76
465.165	10247.18
465.37	9958.42
465.575	9712.66
465.781	10120.21
465.986	10001.43
466.191	9724.95
466.397	9542.68
466.602	9180.19
466.807	9266.21
467.012	9411.61
467.218	9311.26
467.423	9284.64
467.628	9317.4
467.833	9491.48
468.038	9427.99
468.244	9014.31
468.449	9583.64
468.654	9188.38
468.859	9002.02
469.064	8813.6
469.269	8475.69
469.474	8703.01
469.679	8657.96
469.885	8709.16
470.09	8713.25
470.295	8666.15
470.5	8408.11
470.705	8344.62
470.91	8283.18
471.115	8287.28
471.32	8250.41
471.525	8242.22
471.73	8111.15
471.935	8100.91
472.139	7642.17
472.344	7988.27
472.549	7816.24
472.754	7756.85
472.959	7689.27
473.164	7445.56
473.369	7185.47
473.574	7574.58
473.778	7345.21
473.983	7326.78
474.188	7439.42
474.393	7228.48
474.598	7017.54
474.802	7074.88
475.007	6974.53
475.212	7093.31
475.417	6773.83
475.621	6759.49
475.826	6779.97
476.031	6855.75
476.235	6413.38
476.44	6698.05
476.645	6501.45
476.849	6546.5
477.054	6442.06
477.259	6241.36
477.463	6286.41
477.668	6261.84
477.872	6356.04
478.077	6175.82
478.282	5940.3
478.486	5938.26
478.691	5897.3
478.895	5868.63
479.1	5870.67
479.304	5989.46
479.509	5764.18
479.713	6093.9
479.918	5669.97
480.122	5583.96
480.326	5749.84
480.531	5663.83
480.735	5581.91
480.94	5712.98
481.144	5743.7
481.348	5487.7
481.553	5479.51
481.757	5276.76
481.961	5665.88
482.166	5440.6
482.37	5536.85
482.574	5334.11
482.778	5520.47
482.983	5596.25
483.187	5473.37
483.391	5465.18
483.595	5332.06
483.8	5366.87
484.004	5405.78
484.208	5450.84
484.412	5489.75
484.616	5454.94
484.821	5536.85
485.025	5456.98
485.229	5547.09
485.433	5319.77
485.637	5493.85
485.841	5332.06
486.045	5426.26
486.249	5373.02
486.453	5358.68
486.657	5409.88
486.861	5690.45
487.065	5260.38
487.269	5454.94
487.473	5282.91
487.677	5413.98
487.881	5508.18
488.085	5387.35
488.289	5389.4
488.493	5440.6
488.697	5532.76
488.901	5352.54
489.105	5432.41
489.309	5608.53
489.512	5561.43
489.716	5573.72
489.92	5534.81
490.124	5516.37
490.328	5563.48
490.531	5653.59
490.735	5583.96
490.939	5690.45
491.143	5700.69
491.346	5641.3
491.55	5766.23
491.754	5721.17
491.958	5717.08
492.161	5704.79
492.365	5733.46
492.569	5839.95
492.772	5776.47
492.976	5725.27
493.18	5842
493.383	6054.99
493.587	5946.45
493.79	6003.79
493.994	6110.29
494.197	6161.48
494.401	6296.65
494.605	6306.89
494.808	6120.53
495.012	6155.34
495.215	6368.33
495.419	6337.61
495.622	6450.25
495.825	6427.72
496.029	6569.03
496.232	6622.28
496.436	6749.25
496.639	6927.42
496.843	6747.2
497.046	7027.78
497.249	6816.83
497.453	7046.21
497.656	6857.79
497.859	7175.23
498.063	7081.02
498.266	7234.62
498.469	7480.38
498.673	7433.27
498.876	7597.11
499.079	7648.31
499.282	7715.89
499.485	7900.21
499.689	7803.96
499.892	8107.05
500.095	8051.76
500.298	8283.18
500.501	8160.3
500.705	8350.76
500.908	8381.48
501.111	8700.97
501.314	8729.64
501.517	8635.43
501.72	8932.39
501.923	9030.69
502.126	9194.53
502.329	9147.42
502.532	9530.39
502.735	9427.99
502.938	9612.31
503.141	9759.77
503.344	9939.99
503.547	9993.23
503.75	10050.58
503.953	10331.15
504.156	10282
504.359	10515.47
504.562	10570.76
504.765	10865.67
504.968	10720.26
505.17	10830.85
505.373	11041.79
505.576	11383.8
505.779	11670.52
505.982	11555.83
506.185	11848.69
506.387	12053.49
506.59	11959.28
506.793	12248.05
506.996	12305.39
507.198	12739.56
507.401	12643.31
507.604	12960.74
507.807	13136.87
508.009	13331.42
508.212	13282.27
508.415	13818.84
508.617	13618.14
508.82	13896.66
509.022	13960.15
509.225	14492.62
509.428	14478.29
509.63	14607.31
509.833	14824.39
510.035	15178.69
510.238	15225.79
510.44	15363.01
510.643	15623.1
510.845	15852.47
511.048	15662.01
511.25	16186.29
511.453	16098.23
511.655	16919.46
511.858	16839.59
512.06	17021.86
512.262	17222.56
512.465	17247.14
512.667	17585.05
512.87	17656.73
513.072	17922.97
513.274	18537.36
513.477	18652.05
513.679	18680.72
513.881	18850.7
514.084	19346.31
514.286	19159.94
514.488	19360.64
514.69	20022.14
514.893	20204.41
515.095	19848.06
515.297	20759.41
515.499	20880.24
515.701	20994.92
515.904	21427.04
516.106	21379.94
516.308	21468
516.51	21787.49
516.712	22014.81
516.914	22518.61
517.116	22844.24
517.318	22827.85
517.52	23468.87
517.722	23262.02
517.925	23810.88
518.127	23919.42
518.329	24171.32
518.531	24097.59
518.733	24943.41
518.935	25115.44
519.136	24955.69
519.338	25568.04
519.54	25684.77
519.742	25852.7
519.944	26153.76
520.146	26876.69
520.348	26446.62
520.55	27106.06
520.752	27192.08
520.954	27640.58
521.155	27767.55
521.357	27966.21
521.559	28066.56
521.761	28650.23
521.963	28492.54
522.164	28807.92
522.366	29027.06
522.568	29059.82
522.77	29334.25
522.971	29997.79
523.173	29651.69
523.375	30364.38
523.576	30311.13
523.778	30395.1
523.98	30782.16
524.181	30859.99
524.383	31042.26
524.584	31476.43
524.786	31716.04
524.988	31525.58
525.189	31720.13
525.391	32129.73
525.592	32324.29
525.794	32469.69
525.995	32672.44
526.197	32807.61
526.398	32778.93
526.6	33333.93
526.801	33116.85
527.003	33364.65
527.204	33323.69
527.406	33614.51
527.607	33882.79
527.808	33960.61
528.01	33383.09
528.211	34034.34
528.412	34777.75
528.614	34466.46
528.815	34548.38
529.016	34644.63
529.218	34667.16
529.419	34968.21
529.62	35283.6
529.822	34781.85
530.023	34867.86
530.224	34826.9
530.425	35283.6
530.626	35101.33
530.828	34861.72
531.029	35883.66
531.23	35263.12
531.431	35685
531.632	35515.02
531.833	35834.5
532.035	35474.06
532.236	36209.28
532.437	36119.17
532.638	35633.8
532.839	36131.46
533.04	36231.81
533.241	35750.54
533.442	36569.72
533.643	36328.06
533.844	36473.47
534.045	36139.65
534.246	35779.21
534.447	36313.73
534.648	36244.1
534.849	36485.76
535.05	36131.46
535.251	36477.57
535.451	36211.33
535.652	36612.73
535.853	36143.75
536.054	36612.73
536.255	36698.75
536.456	36268.67
536.657	36850.3
536.857	36237.95
537.058	36055.68
537.259	36702.84
537.46	36352.64
537.66	36618.88
537.861	36723.32
538.062	36559.48
538.263	36422.27
538.463	36399.74
538.664	36592.25
538.865	36385.41
539.065	36663.93
539.266	36141.7
539.466	36754.04
539.667	35908.23
539.868	36842.1
540.068	36717.18
540.269	36379.26
540.469	36768.38
540.67	36749.95
540.87	36149.89
541.071	36745.85
541.271	36758.14
541.472	36512.38
541.672	36665.98
541.873	36878.97
542.073	36084.36
542.274	36790.91
542.474	36317.82
542.675	36457.09
542.875	36876.92
543.075	36674.17
543.276	36330.11
543.476	36684.41
543.676	36354.69
543.877	36608.64
544.077	36549.24
544.277	36250.24
544.478	36311.68
544.678	36764.28
544.878	36639.36
545.078	36532.86
545.279	36317.82
545.479	36520.57
545.679	36602.49
545.879	36008.58
546.079	36436.61
546.28	36272.77
546.48	36418.17
546.68	36348.54
546.88	36670.08
547.08	36567.68
547.28	36252.29
547.48	36381.31
547.68	36379.26
547.88	36293.25
548.081	36876.92
548.281	36682.36
548.481	36123.27
548.681	36668.03
548.881	36305.54
549.081	36414.08
549.28	36211.33
549.48	36551.29
549.68	36180.61
549.88	36803.19
550.08	36018.82
550.28	36137.6
550.48	36278.91
550.68	36762.23
550.88	36184.71
551.08	36006.53
551.279	36526.72
551.479	35904.13
551.679	36182.66
551.879	36264.58
552.079	36375.17
552.278	36336.26
552.478	36219.52
552.678	36686.46
552.878	36319.87
553.077	36420.22
553.277	36270.72
553.477	36770.43
553.676	35938.95
553.876	35906.18
554.076	35854.98
554.275	35875.46
554.475	35873.42
554.674	36233.86
554.874	35920.52
555.074	35818.12
555.273	36317.82
555.473	36031.11
555.672	35805.83
555.872	35502.73
556.071	35801.74
556.271	35996.29
556.47	35555.98
556.67	35119.76
556.869	35750.54
557.068	35625.61
557.268	35400.33
557.467	35390.09
557.667	35461.77
557.866	35773.06
558.065	35519.12
558.265	35355.28
558.464	35146.39
558.663	35580.56
558.863	34937.49
559.062	35392.14
559.261	35068.56
559.461	35396.24
559.66	34775.7
559.859	35304.08
560.058	34747.03
560.258	35111.57
560.457	34763.42
560.656	34790.04
560.855	34931.35
561.054	34564.76
561.253	34564.76
561.453	34652.83
561.652	34880.15
561.851	34785.94
562.05	34220.7
562.249	34464.41
562.448	34777.75
562.647	34486.94
562.846	34589.34
563.045	33723.05
563.244	33972.9
563.443	34448.03
563.642	34020
563.841	34325.15
564.04	34423.45
564.239	34429.6
564.438	33800.87
564.637	34183.84
564.836	34183.84
565.035	33284.78
565.234	33919.65
565.432	33921.7
565.631	33884.84
565.83	33768.1
566.029	33630.89
566.228	33503.92
566.427	33370.8
566.625	33174.19
566.824	33227.44
567.023	33166
567.222	32647.86
567.42	33061.55
567.619	33245.87
567.818	33204.91
568.016	32813.75
568.215	32989.88
568.414	32942.77
568.612	32688.82
568.811	32363.2
569.01	32385.72
569.208	32408.25
569.407	32733.88
569.605	32283.33
569.804	32742.07
570.002	32096.96
570.201	32371.39
570.4	31943.36
570.598	31632.07
570.797	31728.33
570.995	31894.21
571.193	31757
571.392	31795.91
571.59	31642.31
571.789	31668.94
571.987	31605.45
572.186	31419.08
572.384	31189.71
572.582	30917.33
572.781	31595.21
572.979	30589.66
573.177	30905.04
573.376	30769.88
573.574	30403.29
573.772	30917.33
573.971	30755.54
574.169	30499.55
574.367	30438.11
574.565	30614.23
574.763	30294.75
574.962	30065.38
575.16	29686.5
575.358	29977.31
575.556	29741.8
575.754	29668.07
575.952	29930.21
576.151	29965.03
576.349	29217.52
576.547	29412.07
576.745	29383.4
576.943	29221.61
577.141	29338.35
577.339	29350.63
577.537	29235.95
577.735	28979.95
577.933	28916.47
578.131	29203.18
578.329	28789.49
578.527	28570.36
578.725	28541.69
578.923	28558.07
579.121	28502.78
579.319	28576.5
579.516	28543.74
579.714	28048.13
579.912	28066.56
580.11	28005.12
580.308	28160.76
580.506	27896.58
580.704	27556.61
580.901	27626.25
581.099	27814.66
581.297	27618.05
581.495	27552.52
581.692	27601.67
581.89	27257.61
582.088	27378.44
582.285	27124.49
582.483	27183.88
582.681	27011.85
582.878	26897.17
583.076	26700.56
583.274	26974.99
583.471	26432.28
583.669	26618.64
583.866	26542.87
584.064	26585.88
584.262	26555.16
584.459	26622.74
584.657	26125.08
584.854	26497.81
585.052	26063.64
585.249	26262.3
585.447	26032.93
585.644	25588.52
585.841	25557.8
586.039	26120.99
586.236	25512.74
586.434	25482.02
586.631	25031.47
586.828	25596.71
587.026	25113.39
587.223	25303.85
587.42	25301.8
587.618	25015.08
587.815	24937.26
588.012	24841.01
588.21	24738.61
588.407	24775.47
588.604	24996.65
588.801	24527.67
588.999	24759.09
589.196	24572.72
589.393	24531.76
589.59	24212.28
589.787	24351.54
589.984	24277.82
590.182	24111.93
590.379	24208.19
590.576	23765.82
590.773	23958.33
590.97	23753.54
591.167	24085.31
591.364	23526.21
591.561	23872.32
591.758	23391.05
591.955	23382.85
592.152	23798.59
592.349	23259.98
592.546	23505.73
592.743	23376.71
592.94	23028.56
593.137	23157.58
593.334	23243.59
593.531	22969.16
593.727	23116.62
593.924	22446.93
594.121	22606.67
594.318	22987.6
594.515	22559.57
594.712	22905.68
594.908	22276.95
595.105	22565.71
595.302	22258.52
595.499	22606.67
595.696	22371.16
595.892	22356.82
596.089	22383.45
596.286	22086.49
596.482	22080.35
596.679	22258.52
596.876	22149.98
597.072	21783.39
597.269	21939.04
597.466	22025.05
597.662	21869.4
597.859	21609.31
598.055	21662.56
598.252	21590.88
598.448	21384.04
598.645	21289.83
598.841	21324.65
599.038	21443.43
599.234	21031.79
599.431	20822.89
599.627	21121.9
599.824	20947.82
600.02	20837.23
600.217	21046.12
600.413	20777.84
600.609	20773.74
600.806	20564.85
601.002	20609.9
601.198	20507.51
601.395	20196.21
601.591	20374.39
601.787	20341.62
601.984	20089.72
602.18	20546.42
602.376	20220.79
602.572	19985.27
602.769	20069.24
602.965	19848.06
603.161	20284.28
603.357	19841.92
603.553	19784.57
603.75	19915.64
603.946	19469.19
604.142	19635.07
604.338	19381.12
604.534	19202.95
604.73	19227.53
604.926	18901.9
605.122	19102.6
605.318	19200.9
605.514	18811.79
605.71	18998.15
605.906	18908.04
606.102	18951.05
606.298	18762.64
606.494	18758.54
606.69	18635.66
606.886	18693.01
607.082	18264.98
607.278	18817.93
607.474	18348.95
607.67	18355.09
607.866	18342.8
608.062	18348.95
608.257	18080.66
608.453	17900.44
608.649	18207.64
608.845	17912.73
609.041	17879.96
609.236	18195.35
609.432	17929.11
609.628	17720.22
609.824	17613.73
610.019	17505.18
610.215	17552.29
610.411	17546.14
610.606	17281.95
610.802	17617.82
610.998	17390.5
611.193	17359.78
611.389	17400.74
611.584	17353.63
611.78	17148.84
611.976	17101.73
612.171	16927.66
612.367	16939.94
612.562	16790.44
612.758	16722.86
612.953	16843.69
613.149	16917.42
613.344	16481.2
613.539	16829.35
613.735	16739.24
613.93	16616.37
614.126	16391.09
614.321	16761.77
614.517	16452.53
614.712	16112.56
614.907	16145.33
615.103	16356.27
615.298	16163.76
615.493	16425.9
615.688	15901.62
615.884	16296.88
616.079	15956.92
616.274	16065.46
616.47	16087.99
616.665	16087.99
616.86	15637.44
617.055	15805.37
617.25	15760.31
617.445	15799.23
617.641	15590.33
617.836	15440.83
618.031	15336.38
618.226	15571.9
618.421	15174.6
618.616	15473.6
618.811	15158.21
619.006	15465.41
619.201	15197.12
619.396	15156.16
619.591	14902.22
619.786	15178.69
619.981	14721.99
620.176	14910.41
620.371	14619.6
620.566	14611.4
620.761	14670.79
620.956	14744.52
621.151	14257.11
621.346	14476.24
621.541	14136.27
621.735	14443.47
621.93	14181.33
622.125	14388.18
622.32	14042.07
622.515	14097.36
622.709	13904.85
622.904	13913.05
623.099	13759.45
623.294	13847.51
623.488	13458.4
623.683	13831.13
623.878	13312.99
624.072	13476.83
624.267	13261.79
624.462	13104.1
624.656	13218.78
624.851	13140.96
625.046	12905.45
625.24	12991.46
625.435	12774.38
625.629	12780.52
625.824	12841.96
626.018	12643.31
626.213	12567.53
626.407	12542.96
626.602	12399.6
626.796	12575.72
626.991	12114.93
627.185	12309.49
627.38	12153.84
627.574	12071.92
627.768	12051.44
627.963	11932.66
628.157	11881.46
628.352	11895.8
628.546	11557.88
628.74	11674.62
628.935	11490.3
629.129	11559.93
629.323	11402.24
629.517	11471.87
629.712	11553.79
629.906	11490.3
630.1	11062.27
630.294	11387.9
630.489	11140.1
630.683	11097.09
630.877	11054.08
631.071	10918.92
631.265	10955.78
631.459	11090.95
631.653	10820.61
631.848	10955.78
632.042	10828.81
632.236	10802.18
632.43	10617.86
632.624	10705.93
632.818	10755.08
633.012	10419.21
633.206	10521.61
633.4	10474.51
633.594	10339.34
633.788	10292.24
633.982	10370.06
634.176	10202.13
634.369	10105.87
634.563	10193.94
634.757	9929.75
634.951	10023.95
635.145	10089.49
635.339	10062.87
635.533	9757.72
635.726	9954.32
635.92	9804.82
636.114	9612.31
636.308	9655.32
636.501	9661.46
636.695	9458.71
636.889	9346.08
637.083	9608.22
637.276	9516.06
637.47	9317.4
637.664	9489.43
637.857	9141.28
638.051	9384.99
638.244	9088.03
638.438	9131.04
638.632	8963.11
638.825	9006.11
639.019	8875.04
639.212	8797.22
639.406	8807.46
639.599	8684.58
639.793	8813.6
639.986	8666.15
640.18	8778.79
640.373	8606.76
640.567	8496.17
640.76	8494.12
640.954	8461.35
641.147	8377.39
641.34	8584.23
641.534	8530.98
641.727	8385.58
641.92	8100.91
642.114	8023.09
642.307	8021.04
642.5	8217.65
642.694	8049.71
642.887	7920.69
643.08	8145.97
643.273	8068.14
643.467	7859.25
643.66	7830.58
643.853	7875.63
644.046	7572.54
644.239	7681.08
644.432	7619.64
644.626	7533.62
644.819	7531.58
645.012	7509.05
645.205	7539.77
645.398	7351.35
645.591	7384.12
645.784	7435.32
645.977	7285.82
646.17	7218.24
646.363	7236.67
646.556	7107.65
646.749	7185.47
646.942	7021.63
647.135	7040.06
647.328	7044.16
647.521	6753.35
647.714	6892.61
647.907	6741.06
648.099	6779.97
648.292	6704.2
648.485	6849.6
648.678	6468.68
648.871	6603.85
649.064	6513.74
649.256	6595.65
649.449	6425.67
649.642	6519.88
649.835	6343.75
650.027	6433.86
650.22	6349.9
650.413	6134.86
650.605	6233.16
650.798	6216.78
650.991	6106.19
651.183	6216.78
651.376	5997.65
651.568	6171.72
651.761	5866.58
651.954	6069.33
652.146	5893.2
652.339	5901.39
652.531	5813.33
652.724	5811.28
652.916	5579.86
653.109	5672.02
653.301	5643.35
653.494	5596.25
653.686	5571.67
653.879	5555.29
654.071	5454.94
654.263	5622.87
654.456	5411.93
654.648	5313.63
654.84	5405.78
655.033	5250.14
655.225	5307.48
655.417	5217.37
655.61	5299.29
655.802	5205.08
655.994	5141.6
656.186	5080.16
656.379	5008.48
656.571	5061.73
656.763	5059.68
656.955	4897.89
657.148	4908.13
657.34	4838.5
657.532	4893.79
657.724	4893.79
657.916	4623.46
658.108	4680.8
658.3	4732
658.492	4834.4
658.684	4627.56
658.876	4570.21
659.068	4463.72
659.26	4498.53
659.452	4564.07
659.644	4582.5
659.836	4361.32
660.028	4430.95
660.22	4271.21
660.412	4293.74
660.604	4285.55
660.796	4389.99
660.988	4293.74
661.18	4101.23
661.372	4242.54
661.563	4162.67
661.755	4187.24
661.947	4007.02
662.139	3916.91
662.331	4031.6
662.522	3896.43
662.714	4142.19
662.906	3824.75
663.097	3785.84
663.289	3914.86
663.481	3779.7
663.673	3767.41
663.864	3800.18
664.056	3703.92
664.247	3785.84
664.439	3744.88
664.631	3708.02
664.822	3669.11
665.014	3611.76
665.205	3560.56
665.397	3470.45
665.588	3452.02
665.78	3394.68
665.971	3554.42
666.163	3296.38
666.354	3429.49
666.546	3492.98
666.737	3398.77
666.929	3378.3
667.12	3368.06
667.311	3333.24
667.503	3247.23
667.694	3148.92
667.885	3179.64
668.077	3196.03
668.268	3202.17
668.459	3259.51
668.651	3183.74
668.842	3333.24
669.033	3091.58
669.224	3165.31
669.416	3200.12
669.607	3196.03
669.798	3091.58
669.989	2985.09
670.18	3079.29
670.371	3026.04
670.563	2995.32
670.754	2968.7
670.945	3005.56
671.136	2913.41
671.327	2919.55
671.518	2874.49
671.709	2929.79
671.9	2892.93
672.091	2899.07
672.282	2892.93
672.473	2952.32
672.664	2911.36
672.855	2841.73
673.046	2692.23
673.237	2892.93
673.428	2800.77
673.619	2911.36
673.809	2708.61
674	2614.4
674.191	2755.71
674.382	2675.84
674.573	2686.08
674.764	2669.7
674.954	2780.29
675.145	2737.28
675.336	2614.4
675.527	2557.06
675.717	2636.93
675.908	2641.03
676.099	2591.88
676.289	2651.27
676.48	2618.5
676.671	2624.64
676.861	2673.79
677.052	2665.6
677.243	2653.31
677.433	2587.78
677.624	2651.27
677.814	2530.44
678.005	2509.96
678.195	2483.33
678.386	2507.91
678.576	2458.76
678.767	2401.41
678.957	2677.89
679.148	2479.24
679.338	2522.24
679.529	2520.2
679.719	2413.7
679.909	2528.39
680.1	2532.48
680.29	2485.38
680.481	2487.43
680.671	2499.72
680.861	2522.24
681.052	2399.37
681.242	2446.47
681.432	2446.47
681.622	2292.87
681.813	2407.56
682.003	2331.78
682.193	2432.13
682.383	2475.14
682.573	2446.47
682.764	2391.17
682.954	2372.74
683.144	2382.98
683.334	2378.89
683.524	2475.14
683.714	2442.37
683.904	2294.92
684.094	2362.5
684.284	2411.65
684.474	2460.81
684.664	2354.31
684.854	2313.35
685.044	2350.21
685.234	2407.56
685.424	2428.04
685.614	2419.85
685.804	2376.84
685.994	2499.72
686.184	2378.89
686.374	2264.2
686.564	2368.65
686.753	2284.68
686.943	2344.07
687.133	2364.55
687.323	2411.65
687.513	2296.97
687.702	2325.64
687.892	2366.6
688.082	2374.79
688.272	2454.66
688.461	2280.58
688.651	2364.55
688.841	2317.45
689.03	2434.18
689.22	2294.92
689.41	2335.88
689.599	2378.89
689.789	2370.69
689.979	2458.76
690.168	2352.26
690.358	2387.08
690.547	2421.89
690.737	2417.8
690.926	2315.4
691.116	2352.26
691.305	2464.9
691.495	2387.08
691.684	2413.7
691.874	2421.89
692.063	2428.04
692.252	2401.41
692.442	2440.33
692.631	2286.73
692.82	2405.51
693.01	2327.69
693.199	2477.19
693.388	2354.31
693.578	2423.94
693.767	2442.37
693.956	2428.04
694.146	2407.56
694.335	2333.83
694.524	2448.52
694.713	2432.13
694.902	2358.41
695.092	2374.79
695.281	2417.8
695.47	2466.95
695.659	2344.07
695.848	2421.89
696.037	2382.98
696.226	2337.93
696.415	2395.27
696.604	2432.13
696.793	2378.89
696.982	2440.33
697.171	2415.75
697.36	2432.13
697.549	2372.74
697.738	2280.58
697.927	2397.32
698.116	2425.99
698.305	2286.73
698.494	2256.01
698.683	2307.21
698.872	2368.65
699.061	2460.81
699.25	2227.34
699.438	2368.65
699.627	2145.42
699.816	2317.45
700.005	2440.33
700.193	2411.65
700.382	2395.27
700.571	2362.5
700.76	2354.31
700.948	2399.37
701.137	2376.84
701.326	2405.51
701.514	2372.74
701.703	2260.1
701.892	2237.58
702.08	2342.02
702.269	2274.44
702.457	2237.58
702.646	2382.98
702.834	2200.71
703.023	2260.1
703.212	2198.67
703.4	2227.34
703.589	2264.2
703.777	2274.44
703.965	2206.86
704.154	2200.71
704.342	2188.43
704.531	2186.38
704.719	2196.62
704.907	2237.58
705.096	2176.14
705.284	2169.99
705.472	2192.52
705.661	2184.33
705.849	2270.34
706.037	2163.85
706.226	2194.57
706.414	2071.69
706.602	2088.07
706.79	2045.07
706.979	2092.17
707.167	2086.03
707.355	2112.65
707.543	2040.97
707.731	2086.03
707.919	2071.69
708.107	2137.23
708.296	2034.83
708.484	2081.93
708.672	1981.58
708.86	2106.51
709.048	1983.63
709.236	2038.92
709.424	2083.98
709.612	1893.52
709.8	2094.22
709.988	2014.35
710.176	2014.35
710.364	1948.81
710.551	1936.53
710.739	2036.88
710.927	1977.48
711.115	1987.72
711.303	1938.57
711.491	1911.95
711.679	1932.43
711.866	2024.59
712.054	1946.76
712.242	1758.35
712.43	1842.32
712.617	1846.41
712.805	1793.17
712.993	1834.13
713.181	1899.66
713.368	1805.46
713.556	1942.67
713.744	1795.22
713.931	1819.79
714.119	1850.51
714.306	1823.89
714.494	1780.88
714.682	1731.73
714.869	1678.48
715.057	1748.11
715.244	1750.16
715.432	1737.87
715.619	1739.92
715.807	1776.78
715.994	1651.86
716.182	1651.86
716.369	1703.06
716.556	1821.84
716.744	1735.82
716.931	1735.82
717.119	1770.64
717.306	1598.61
717.493	1660.05
717.681	1686.67
717.868	1594.51
718.055	1649.81
718.242	1672.34
718.43	1627.28
718.617	1608.85
718.804	1639.57
718.991	1660.05
719.179	1516.69
719.366	1465.49
719.553	1592.47
719.74	1701.01
719.927	1629.33
720.114	1610.9
720.301	1502.36
720.488	1531.03
720.676	1490.07
720.863	1555.6
721.05	1516.69
721.237	1445.01
721.424	1373.33
721.611	1481.88
721.798	1490.07
721.985	1490.07
722.172	1354.9
722.358	1502.36
722.545	1488.02
722.732	1426.58
722.919	1447.06
723.106	1410.2
723.293	1399.96
723.48	1438.87
723.667	1440.92
723.853	1408.15
724.04	1445.01
724.227	1361.05
724.414	1399.96
724.6	1399.96
724.787	1289.37
724.974	1395.86
725.161	1481.88
725.347	1324.18
725.534	1438.87
725.72	1266.84
725.907	1440.92
726.094	1440.92
726.28	1297.56
726.467	1299.61
726.653	1213.59
726.84	1350.81
727.027	1234.07
727.213	1309.85
727.4	1297.56
727.586	1266.84
727.773	1234.07
727.959	1199.26
728.145	1270.94
728.332	1182.87
728.518	1242.26
728.705	1197.21
728.891	1152.15
729.077	1156.25
729.264	1256.6
729.45	1150.11
729.636	1211.54
729.823	1131.67
730.009	1227.93
730.195	1201.3
730.382	1129.63
730.568	1211.54
730.754	1186.97
730.94	1254.55
731.126	1143.96
731.313	1215.64
731.499	1178.78
731.685	1088.67
731.871	1209.5
732.057	1139.87
732.243	1162.39
732.429	1172.63
732.615	1117.34
732.801	1227.93
732.987	1100.95
733.173	1146.01
733.359	1096.86
733.545	1113.24
733.731	1141.91
733.917	1037.47
734.103	1080.47
734.289	1137.82
734.475	998.56
734.661	1146.01
734.847	1014.94
735.033	1047.71
735.219	1045.66
735.404	1094.81
735.59	1070.23
735.776	1164.44
735.962	1168.54
736.148	986.27
736.333	1064.09
736.519	967.84
736.705	1045.66
736.89	1062.04
737.076	1062.04
737.262	1068.19
737.447	990.36
737.633	965.79
737.819	965.79
738.004	973.98
738.19	926.88
738.375	998.56
738.561	1014.94
738.747	904.35
738.932	939.16
739.118	1031.32
739.303	953.5
739.489	980.12
739.674	894.11
739.859	980.12
740.045	1008.8
740.23	937.12
740.416	973.98
740.601	1006.75
740.786	937.12
740.972	902.3
741.157	933.02
741.342	877.73
741.528	900.25
741.713	863.39
741.898	863.39
742.084	871.58
742.269	847.01
742.454	834.72
742.639	875.68
742.824	793.76
743.01	916.64
743.195	900.25
743.38	781.47
743.565	816.29
743.75	879.77
743.935	855.2
744.12	834.72
744.305	842.91
744.49	908.44
744.675	781.47
744.86	771.23
745.045	806.05
745.23	707.74
745.415	672.93
745.6	830.62
745.785	793.76
745.97	791.71
746.155	777.37
746.34	697.5
746.525	781.47
746.71	744.61
746.895	838.81
747.079	769.18
747.264	779.42
747.449	722.08
747.634	799.9
747.819	844.96
748.003	789.66
748.188	679.07
748.373	695.46
748.557	703.65
748.742	662.69
748.927	629.92
749.111	707.74
749.296	707.74
749.481	707.74
749.665	736.42
749.85	777.37
750.034	742.56
750.219	689.31
750.404	713.89
750.588	666.78
750.773	679.07
750.957	705.7
751.141	644.26
751.326	629.92
751.51	601.25
751.695	619.68
751.879	613.54
752.064	662.69
752.248	609.44
752.432	621.73
752.617	646.3
752.801	705.7
752.985	642.21
753.17	652.45
753.354	588.96
753.538	636.06
753.722	550.05
753.907	662.69
754.091	570.53
754.275	601.25
754.459	611.49
754.643	591.01
754.828	545.95
755.012	613.54
755.196	492.71
755.38	654.5
755.564	519.33
755.748	572.58
755.932	543.91
756.116	595.11
756.3	494.76
756.484	601.25
756.668	656.54
756.852	548
757.036	480.42
757.22	558.24
757.404	537.76
757.588	539.81
757.772	484.52
757.956	437.41
758.14	533.67
758.323	560.29
758.507	490.66
758.691	484.52
758.875	511.14
759.059	548
759.242	488.61
759.426	502.95
759.61	492.71
759.794	437.41
759.977	451.75
760.161	525.47
760.345	552.1
760.528	552.1
760.712	511.14
760.895	507.04
761.079	478.37
761.263	457.89
761.446	548
761.63	429.22
761.813	484.52
761.997	396.45
762.18	466.08
762.364	461.99
762.547	466.08
762.731	410.79
762.914	468.13
763.098	400.55
763.281	447.65
763.464	416.93
763.648	375.97
763.831	478.37
764.015	404.64
764.198	433.32
764.381	468.13
764.564	496.8
764.748	468.13
764.931	449.7
765.114	439.46
765.297	414.88
765.481	453.8
765.664	353.45
765.847	400.55
766.03	375.97
766.213	480.42
766.397	433.32
766.58	431.27
766.763	412.84
766.946	418.98
767.129	384.16
767.312	380.07
767.495	398.5
767.678	396.45
767.861	384.16
768.044	482.47
768.227	435.36
768.41	310.44
768.593	421.03
768.776	335.01
768.959	416.93
769.142	343.21
769.324	326.82
769.507	392.36
769.69	416.93
769.873	404.64
770.056	431.27
770.239	427.17
770.421	414.88
770.604	351.4
770.787	447.65
770.97	435.36
771.152	412.84
771.335	363.69
771.518	396.45
771.7	328.87
771.883	316.58
772.066	328.87
772.248	431.27
772.431	326.82
772.613	390.31
772.796	335.01
772.978	394.4
773.161	400.55
773.343	429.22
773.526	371.88
773.708	441.51
773.891	402.6
774.073	371.88
774.256	343.21
774.438	312.49
774.621	324.77
774.803	300.2
774.985	300.2
775.168	359.59
775.35	304.29
775.532	382.12
775.715	318.63
775.897	302.25
776.079	251.05
776.261	343.21
776.444	320.68
776.626	343.21
776.808	275.62
776.99	300.2
777.173	306.34
777.355	353.45
777.537	326.82
777.719	363.69
777.901	214.18
778.083	425.12
778.265	324.77
778.447	296.1
778.629	203.94
778.811	263.33
778.993	314.53
779.175	339.11
779.357	271.53
779.539	216.23
779.721	285.86
779.903	341.16
780.085	292.01
780.267	285.86
780.449	253.09
780.631	281.77
780.812	218.28
780.994	265.38
781.176	312.49
781.358	220.33
781.54	193.7
781.721	244.9
781.903	181.42
782.085	253.09
782.267	275.62
782.448	275.62
782.63	244.9
782.812	257.19
782.993	232.62
783.175	205.99
783.357	242.85
783.538	257.19
783.72	177.32
783.901	255.14
784.083	189.61
784.264	244.9
784.446	316.58
784.627	115.88
784.809	220.33
784.99	146.6
785.172	238.76
785.353	279.72
785.535	253.09
785.716	199.85
785.897	246.95
786.079	253.09
786.26	257.19
786.441	277.67
786.623	244.9
786.804	140.46
786.985	214.18
787.167	165.03
787.348	228.52
787.529	251.05
787.71	189.61
787.891	205.99
788.073	173.22
788.254	152.74
788.435	171.18
788.616	189.61
788.797	195.75
788.978	169.13
789.159	173.22
789.34	183.46
789.522	154.79
789.703	249
789.884	160.94
790.065	187.56
790.246	162.98
790.427	136.36
790.607	146.6
790.788	205.99
790.969	111.78
791.15	154.79
791.331	195.75
791.512	138.41
791.693	167.08
791.874	162.98
792.054	205.99
792.235	162.98
792.416	165.03
792.597	154.79
792.778	140.46
792.958	191.66
793.139	154.79
793.32	261.29
793.5	146.6
793.681	171.18
793.862	97.45
794.042	107.69
794.223	162.98
794.404	87.21
794.584	162.98
794.765	134.31
794.945	156.84
795.126	175.27
795.306	158.89
795.487	105.64
795.667	171.18
795.848	195.75
796.028	79.02
796.209	169.13
796.389	165.03
796.57	72.87
796.75	132.26
796.93	162.98
797.111	115.88
797.291	134.31
797.471	181.42
797.652	89.26
797.832	169.13
798.012	113.83
798.192	79.02
798.373	181.42
798.553	201.9
798.733	134.31
798.913	109.74
799.093	103.59
799.274	128.17
799.454	122.02
799.634	83.11
799.814	152.74
799.994	158.89
800.174	187.56
800.354	117.93
800.534	99.5
800.714	132.26
800.894	72.87
801.074	103.59
801.254	109.74
801.434	146.6
801.614	132.26
801.794	103.59
801.974	341.16
802.154	199.85
802.334	144.55
802.514	132.26
802.693	105.64
802.873	89.26
803.053	130.22
803.233	162.98
803.413	89.26
803.592	91.31
803.772	101.55
803.952	134.31
804.131	72.87
804.311	83.11
804.491	111.78
804.67	150.7
804.85	124.07
805.03	144.55
805.209	232.62
805.389	185.51
805.568	140.46
805.748	33.96
805.928	48.3
806.107	165.03
806.287	81.07
806.466	124.07
806.646	122.02
806.825	134.31
807.004	113.83
807.184	142.5
807.363	169.13
807.543	74.92
807.722	15.53
807.901	81.07
808.081	115.88
808.26	132.26
808.439	83.11
808.619	76.97
808.798	103.59
808.977	119.98
809.156	76.97
809.336	68.78
809.515	179.37
809.694	58.54
809.873	70.83
810.052	-4.95
810.231	58.54
810.411	87.21
810.59	64.68
810.769	134.31
810.948	31.91
811.127	91.31
811.306	93.35
811.485	72.87
811.664	150.7
811.843	85.16
812.022	87.21
812.201	105.64
812.38	31.91
812.559	138.41
812.737	62.63
812.916	42.15
813.095	48.3
813.274	58.54
813.453	74.92
813.632	99.5
813.811	113.83
813.989	76.97
814.168	79.02
814.347	72.87
814.526	152.74
814.704	56.49
814.883	68.78
815.062	76.97
815.24	115.88
815.419	56.49
815.598	56.49
815.776	33.96
815.955	79.02
816.133	46.25
816.312	113.83
816.49	54.44
816.669	101.55
816.847	72.87
817.026	46.25
817.204	3.24
817.383	76.97
817.561	48.3
817.74	72.87
817.918	142.5
818.097	81.07
818.275	31.91
818.453	44.2
818.632	79.02
818.81	109.74
818.988	117.93
819.167	62.63
819.345	101.55
819.523	42.15
819.701	58.54
819.879	58.54
820.058	115.88
820.236	81.07
820.414	74.92
820.592	93.35
820.77	27.82
820.948	99.5
821.127	48.3
821.305	130.22
821.483	74.92
821.661	89.26
821.839	40.11
822.017	81.07
822.195	13.48
822.373	89.26
822.551	113.83
822.729	44.2
822.907	54.44
823.085	58.54
823.262	91.31
823.44	50.35
823.618	52.39
823.796	-11.09
823.974	-2.9
824.152	60.59
824.329	85.16
824.507	13.48
824.685	99.5
824.863	103.59
825.04	113.83
825.218	70.83
825.396	-11.09
825.574	76.97
825.751	52.39
825.929	29.87
826.107	46.25
826.284	81.07
826.462	11.43
826.639	23.72
826.817	54.44
826.994	50.35
827.172	27.82
827.349	7.34
827.527	58.54
827.704	81.07
827.882	27.82
828.059	89.26
828.237	42.15
828.414	66.73
828.591	23.72
828.769	64.68
828.946	122.02
829.124	52.39
829.301	56.49
829.478	99.5
829.655	15.53
829.833	25.77
830.01	11.43
830.187	64.68
830.364	36.01
830.542	89.26
830.719	48.3
830.896	64.68
831.073	81.07
831.25	89.26
831.427	87.21
831.604	66.73
831.782	-17.24
831.959	126.12
832.136	54.44
832.313	38.06
832.49	54.44
832.667	36.01
832.844	97.45
833.021	33.96
833.198	119.98
833.374	7.34
833.551	93.35
833.728	60.59
833.905	33.96
834.082	-9.05
834.259	42.15
834.436	25.77
834.612	-19.29
834.789	19.63
834.966	50.35
835.143	44.2
835.319	-9.05
835.496	40.11
835.673	19.63
835.85	119.98
836.026	72.87
836.203	70.83
836.38	11.43
836.556	31.91
836.733	11.43
836.909	52.39
837.086	54.44
837.262	46.25
837.439	7.34
837.616	42.15
837.792	19.63
837.968	56.49
838.145	40.11
838.321	-4.95
838.498	-7
838.674	23.72
838.851	3.24
839.027	31.91
839.203	42.15
839.38	150.7
839.556	27.82
839.732	66.73
839.909	27.82
840.085	31.91
840.261	36.01
840.437	21.67
840.614	103.59
840.79	66.73
840.966	-27.48
841.142	64.68
841.318	105.64
841.494	72.87
841.671	58.54
841.847	64.68
842.023	54.44
842.199	-33.62
842.375	5.29
842.551	21.67
842.727	36.01
842.903	79.02
843.079	58.54
843.255	64.68
843.431	72.87
843.607	81.07
843.783	7.34
843.959	56.49
844.134	128.17
844.31	44.2
844.486	85.16
844.662	19.63
844.838	31.91
845.013	5.29
845.189	48.3
845.365	-17.24
845.541	-2.9
845.716	-15.19
845.892	56.49
846.068	68.78
846.244	68.78
846.419	74.92
846.595	48.3
846.77	17.58
846.946	-13.14
847.122	36.01
847.297	-19.29
847.473	36.01
847.648	7.34
847.824	48.3
847.999	87.21
848.175	33.96
848.35	46.25
848.526	93.35
848.701	-45.91
848.876	52.39
849.052	74.92
849.227	36.01
849.403	33.96
849.578	-27.48
849.753	36.01
849.929	81.07
850.104	-11.09
850.279	76.97
850.454	-33.62
850.63	93.35
850.805	1.19
850.98	79.02
851.155	99.5
851.33	93.35
851.505	11.43
851.681	56.49
851.856	48.3
852.031	21.67
852.206	54.44
852.381	38.06
852.556	23.72
852.731	40.11
852.906	27.82
853.081	52.39
853.256	81.07
853.431	31.91
853.606	23.72
853.781	64.68
853.956	-25.43
854.131	-9.05
854.305	-0.85
854.48	-7
854.655	42.15
854.83	15.53
855.005	23.72
855.18	-9.05
855.354	17.58
855.529	-31.57
855.704	23.72
855.879	25.77
856.053	-17.24
856.228	72.87
856.403	-17.24
856.577	74.92
856.752	128.17
856.926	70.83
857.101	-11.09
857.276	-47.96
857.45	11.43
857.625	27.82
857.799	-9.05
857.974	-11.09
858.148	97.45
858.323	56.49
858.497	-29.52
858.672	83.11
858.846	31.91
859.02	15.53
859.195	-60.24
859.369	33.96
859.543	3.24
859.718	13.48
859.892	-4.95
860.066	83.11
860.241	3.24
860.415	36.01
860.589	7.34
860.763	48.3
860.938	-31.57
861.112	7.34
861.286	72.87
861.46	42.15
861.634	58.54
861.808	33.96
861.982	29.87
862.157	56.49
862.331	-45.91
862.505	9.39
862.679	33.96
862.853	56.49
863.027	-4.95
863.201	-0.85
863.375	48.3
863.549	21.67
863.722	46.25
863.896	40.11
864.07	-2.9
864.244	87.21
864.418	-4.95
864.592	44.2
864.766	56.49
864.939	-33.62
865.113	31.91
865.287	150.7
865.461	60.59
865.634	-19.29
865.808	3.24
865.982	11.43
866.156	68.78
866.329	3.24
866.503	-66.39
866.676	36.01
866.85	1.19
867.024	44.2
867.197	91.31
867.371	91.31
867.544	-50
867.718	-13.14
867.891	52.39
868.065	19.63
868.238	1.19
868.412	68.78
868.585	40.11
868.759	42.15
868.932	-39.76
869.105	74.92
869.279	33.96
869.452	19.63
869.625	58.54
869.799	50.35
869.972	3.24
870.145	68.78
870.319	-0.85
870.492	-11.09
870.665	1.19
870.838	42.15
871.011	7.34
871.185	-23.38
871.358	11.43
871.531	33.96
871.704	56.49
871.877	-17.24
872.05	23.72
872.223	70.83
872.396	40.11
872.569	-7
872.742	-9.05
872.915	36.01
873.088	-29.52
873.261	66.73
873.434	29.87
873.607	113.83
873.78	36.01
873.953	-13.14
874.126	42.15
874.299	40.11
874.471	81.07
874.644	5.29
874.817	-4.95
874.99	64.68
875.163	17.58
875.335	52.39
875.508	21.67
875.681	52.39
875.853	70.83
876.026	-15.19
876.199	-9.05
876.371	36.01
876.544	76.97
876.717	-50
876.889	3.24
877.062	44.2
877.234	-4.95
877.407	56.49
877.579	97.45
877.752	-31.57
877.924	5.29
878.097	33.96
878.269	33.96
878.442	-0.85
878.614	-29.52
878.786	50.35
878.959	3.24
879.131	31.91
879.303	-21.33
879.476	46.25
879.648	19.63
879.82	9.39
879.993	54.44
880.165	68.78
880.337	70.83
880.509	19.63
880.681	9.39
880.854	42.15
881.026	15.53
881.198	89.26
881.37	66.73
881.542	13.48
881.714	38.06
881.886	13.48
882.058	9.39
882.23	52.39
882.402	17.58
882.574	-0.85
882.746	42.15
882.918	27.82
883.09	-11.09
883.262	15.53
883.434	19.63
883.606	56.49
883.778	15.53
883.95	44.2
884.122	21.67
884.293	-39.76
884.465	44.2
884.637	29.87
884.809	31.91
884.98	7.34
885.152	-4.95
885.324	23.72
885.496	56.49
885.667	76.97
885.839	66.73
886.011	62.63
886.182	44.2
886.354	19.63
886.525	27.82
886.697	-4.95
886.869	-43.86
887.04	-9.05
887.212	23.72
887.383	17.58
887.555	33.96
887.726	23.72
887.897	36.01
888.069	-4.95
888.24	44.2
888.412	40.11
888.583	-54.1
888.754	60.59
888.926	7.34
889.097	-25.43
889.268	-11.09
889.44	58.54
889.611	-25.43
889.782	-7
889.953	-27.48
890.125	-33.62
890.296	-33.62
890.467	44.2
890.638	25.77
890.809	-17.24
890.98	7.34
891.151	23.72
891.323	-4.95
891.494	52.39
891.665	87.21
891.836	1.19
892.007	5.29
892.178	-45.91
892.349	29.87
892.52	-33.62
892.691	42.15
892.862	83.11
893.032	-23.38
893.203	-33.62
893.374	-0.85
893.545	19.63
893.716	-17.24
893.887	48.3
894.057	38.06
894.228	-13.14
894.399	-58.2
894.57	70.83
894.74	58.54
894.911	50.35
895.082	-35.67
895.253	23.72
895.423	25.77
895.594	23.72
895.764	68.78
895.935	-4.95
896.106	29.87
896.276	64.68
896.447	-0.85
896.617	-37.72
896.788	1.19
896.958	107.69
897.129	-0.85
897.299	56.49
897.47	-39.76
897.64	36.01
897.81	-27.48
897.981	-9.05
898.151	9.39
898.322	-66.39
898.492	-17.24
898.662	50.35
898.832	-25.43
899.003	23.72
899.173	27.82
899.343	-21.33
899.513	-99.16
