Data from USB4F104151__67__13-53-53-894.txt Node

Date: Thu Mar 13 13:53:53 EDT 2025
User: louis
Spectrometer: USB4F10415
Trigger mode: 4
Integration Time (sec): 1.000000E-2
Scans to average: 1
Electric dark correction enabled: true
Nonlinearity correction enabled: false
Boxcar width: 0
XAxis mode: Wavelengths
Number of Pixels in Spectrum: 3648
>>>>>Begin Spectral Data<<<<<
178.204	-89.09
178.424	-89.09
178.644	-89.09
178.864	-107.52
179.084	9.22
179.304	15.36
179.524	37.89
179.744	-21.5
179.964	11.26
180.184	-39.94
180.404	3.07
180.624	-19.46
180.844	31.74
181.064	-11.26
181.283	-9.22
181.503	-52.22
181.723	54.27
181.943	-31.74
182.163	21.5
182.383	17.41
182.602	-84.99
182.822	68.61
183.042	-46.08
183.262	23.55
183.482	35.84
183.701	-52.22
183.921	-13.31
184.141	-33.79
184.361	-17.41
184.58	21.5
184.8	3.07
185.02	-13.31
185.239	-62.46
185.459	46.08
185.679	-23.55
185.898	-31.74
186.118	17.41
186.338	-58.37
186.557	21.5
186.777	58.37
186.997	-19.46
187.216	-54.27
187.436	5.12
187.655	-89.09
187.875	-9.22
188.095	-17.41
188.314	-5.12
188.534	-1.02
188.753	3.07
188.973	15.36
189.192	-3.07
189.412	52.22
189.631	-48.13
189.851	1.02
190.07	66.56
190.29	-1.02
190.509	-5.12
190.729	-19.46
190.948	29.7
191.168	44.03
191.387	27.65
191.607	7.17
191.826	13.31
192.045	72.7
192.265	-17.41
192.484	13.31
192.704	-44.03
192.923	-21.5
193.142	-7.17
193.362	-33.79
193.581	21.5
193.8	11.26
194.02	27.65
194.239	-39.94
194.458	44.03
194.678	-17.41
194.897	-3.07
195.116	-27.65
195.335	-15.36
195.555	21.5
195.774	21.5
195.993	13.31
196.212	80.89
196.432	31.74
196.651	-9.22
196.87	-27.65
197.089	78.85
197.308	64.51
197.528	29.7
197.747	-17.41
197.966	11.26
198.185	-17.41
198.404	-17.41
198.623	29.7
198.842	-1.02
199.062	11.26
199.281	23.55
199.5	-31.74
199.719	35.84
199.938	21.5
200.157	74.75
200.376	-21.5
200.595	39.94
200.814	29.7
201.033	-13.31
201.252	5.12
201.471	15.36
201.69	-13.31
201.909	19.46
202.128	-9.22
202.347	-13.31
202.566	-3.07
202.785	5.12
203.004	50.18
203.223	31.74
203.442	1.02
203.661	19.46
203.879	5.12
204.098	37.89
204.317	-33.79
204.536	80.89
204.755	-5.12
204.974	-11.26
205.193	19.46
205.411	-48.13
205.63	-35.84
205.849	62.46
206.068	-39.94
206.287	-66.56
206.505	25.6
206.724	-15.36
206.943	-19.46
207.162	9.22
207.381	-9.22
207.599	-64.51
207.818	23.55
208.037	7.17
208.255	-13.31
208.474	11.26
208.693	-46.08
208.911	17.41
209.13	58.37
209.349	-15.36
209.567	-13.31
209.786	60.42
210.005	-19.46
210.223	11.26
210.442	-3.07
210.661	27.65
210.879	-3.07
211.098	-91.13
211.316	35.84
211.535	-25.6
211.753	-9.22
211.972	15.36
212.191	1.02
212.409	-7.17
212.628	5.12
212.846	-3.07
213.065	-101.37
213.283	13.31
213.502	-5.12
213.72	35.84
213.938	9.22
214.157	-1.02
214.375	-35.84
214.594	-25.6
214.812	7.17
215.031	-64.51
215.249	-5.12
215.467	48.13
215.686	25.6
215.904	39.94
216.122	7.17
216.341	-1.02
216.559	-46.08
216.778	-70.65
216.996	-11.26
217.214	-33.79
217.432	-5.12
217.651	3.07
217.869	-52.22
218.087	-7.17
218.306	-7.17
218.524	11.26
218.742	54.27
218.96	-19.46
219.179	3.07
219.397	-25.6
219.615	1.02
219.833	19.46
220.051	-11.26
220.27	37.89
220.488	48.13
220.706	-3.07
220.924	-19.46
221.142	-9.22
221.36	-5.12
221.578	31.74
221.796	1.02
222.015	-13.31
222.233	29.7
222.451	-17.41
222.669	25.6
222.887	72.7
223.105	27.65
223.323	33.79
223.541	-82.94
223.759	62.46
223.977	-39.94
224.195	15.36
224.413	-35.84
224.631	-48.13
224.849	-19.46
225.067	56.32
225.285	39.94
225.503	25.6
225.721	23.55
225.939	-19.46
226.157	21.5
226.375	105.47
226.592	-48.13
226.81	-17.41
227.028	-46.08
227.246	5.12
227.464	-66.56
227.682	82.94
227.9	-70.65
228.117	-13.31
228.335	15.36
228.553	37.89
228.771	29.7
228.989	7.17
229.206	46.08
229.424	25.6
229.642	-66.56
229.86	-29.7
230.077	33.79
230.295	56.32
230.513	-21.5
230.731	52.22
230.948	5.12
231.166	31.74
231.384	1.02
231.601	13.31
231.819	-5.12
232.037	3.07
232.254	-19.46
232.472	66.56
232.689	-11.26
232.907	58.37
233.125	56.32
233.342	-11.26
233.56	-13.31
233.777	35.84
233.995	27.65
234.213	33.79
234.43	-3.07
234.648	19.46
234.865	23.55
235.083	-25.6
235.3	9.22
235.518	-5.12
235.735	29.7
235.953	-21.5
236.17	-35.84
236.388	-68.61
236.605	-5.12
236.822	-7.17
237.04	-44.03
237.257	-44.03
237.475	23.55
237.692	31.74
237.909	13.31
238.127	-1.02
238.344	-48.13
238.562	-3.07
238.779	5.12
238.996	37.89
239.214	1.02
239.431	17.41
239.648	23.55
239.865	-21.5
240.083	3.07
240.3	-25.6
240.517	-13.31
240.735	13.31
240.952	15.36
241.169	-5.12
241.386	31.74
241.603	48.13
241.821	-25.6
242.038	15.36
242.255	-91.13
242.472	25.6
242.689	-54.27
242.907	-35.84
243.124	-50.18
243.341	13.31
243.558	21.5
243.775	-3.07
243.992	13.31
244.209	54.27
244.426	66.56
244.643	33.79
244.86	15.36
245.078	11.26
245.295	-9.22
245.512	7.17
245.729	-7.17
245.946	37.89
246.163	11.26
246.38	76.8
246.597	-9.22
246.814	-9.22
247.031	58.37
247.248	39.94
247.464	46.08
247.681	-46.08
247.898	-29.7
248.115	-48.13
248.332	-52.22
248.549	91.13
248.766	50.18
248.983	19.46
249.2	-25.6
249.417	76.8
249.633	-19.46
249.85	41.98
250.067	19.46
250.284	-7.17
250.501	5.12
250.717	15.36
250.934	52.22
251.151	-3.07
251.368	64.51
251.585	-44.03
251.801	7.17
252.018	-50.18
252.235	-5.12
252.451	33.79
252.668	72.7
252.885	33.79
253.102	54.27
253.318	-25.6
253.535	23.55
253.752	-27.65
253.968	-21.5
254.185	-3.07
254.401	-27.65
254.618	-52.22
254.835	-23.55
255.051	-21.5
255.268	5.12
255.484	13.31
255.701	-23.55
255.917	44.03
256.134	-23.55
256.351	31.74
256.567	35.84
256.784	-13.31
257	23.55
257.217	9.22
257.433	-11.26
257.65	25.6
257.866	31.74
258.082	-27.65
258.299	19.46
258.515	27.65
258.732	-31.74
258.948	33.79
259.165	15.36
259.381	37.89
259.597	54.27
259.814	-1.02
260.03	76.8
260.246	39.94
260.463	-19.46
260.679	41.98
260.895	25.6
261.112	60.42
261.328	-3.07
261.544	-25.6
261.761	-1.02
261.977	-5.12
262.193	-15.36
262.409	1.02
262.626	-23.55
262.842	13.31
263.058	-44.03
263.274	-39.94
263.49	-9.22
263.707	54.27
263.923	-11.26
264.139	-29.7
264.355	-19.46
264.571	-19.46
264.787	-29.7
265.004	46.08
265.22	-1.02
265.436	-62.46
265.652	37.89
265.868	11.26
266.084	-33.79
266.3	3.07
266.516	15.36
266.732	84.99
266.948	-31.74
267.164	50.18
267.38	-7.17
267.596	52.22
267.812	7.17
268.028	56.32
268.244	-7.17
268.46	33.79
268.676	-33.79
268.892	37.89
269.108	72.7
269.324	-19.46
269.54	5.12
269.756	44.03
269.972	29.7
270.188	74.75
270.403	44.03
270.619	56.32
270.835	33.79
271.051	41.98
271.267	-23.55
271.483	17.41
271.698	3.07
271.914	-11.26
272.13	44.03
272.346	-13.31
272.562	-25.6
272.777	48.13
272.993	-33.79
273.209	9.22
273.425	-3.07
273.64	-19.46
273.856	-17.41
274.072	78.85
274.287	3.07
274.503	19.46
274.719	23.55
274.934	-9.22
275.15	-44.03
275.366	-3.07
275.581	1.02
275.797	7.17
276.012	-50.18
276.228	-21.5
276.444	54.27
276.659	-5.12
276.875	70.65
277.09	46.08
277.306	76.8
277.521	-52.22
277.737	-46.08
277.952	66.56
278.168	-31.74
278.383	-27.65
278.599	31.74
278.814	3.07
279.03	-35.84
279.245	23.55
279.461	25.6
279.676	23.55
279.892	25.6
280.107	93.18
280.322	66.56
280.538	-37.89
280.753	23.55
280.969	33.79
281.184	39.94
281.399	23.55
281.615	21.5
281.83	44.03
282.045	-9.22
282.26	-13.31
282.476	58.37
282.691	15.36
282.906	39.94
283.122	7.17
283.337	11.26
283.552	23.55
283.767	-60.42
283.983	27.65
284.198	-54.27
284.413	87.04
284.628	17.41
284.843	-5.12
285.058	39.94
285.274	29.7
285.489	-50.18
285.704	25.6
285.919	-5.12
286.134	-21.5
286.349	68.61
286.564	76.8
286.779	52.22
286.995	52.22
287.21	-5.12
287.425	29.7
287.64	25.6
287.855	9.22
288.07	-39.94
288.285	41.98
288.5	-1.02
288.715	15.36
288.93	19.46
289.145	15.36
289.36	5.12
289.575	11.26
289.79	-44.03
290.004	52.22
290.219	19.46
290.434	5.12
290.649	13.31
290.864	-39.94
291.079	19.46
291.294	-15.36
291.509	-31.74
291.724	-56.32
291.938	82.94
292.153	48.13
292.368	39.94
292.583	23.55
292.798	39.94
293.012	35.84
293.227	3.07
293.442	7.17
293.657	-15.36
293.871	-5.12
294.086	3.07
294.301	-15.36
294.516	52.22
294.73	-7.17
294.945	1.02
295.16	-19.46
295.374	23.55
295.589	9.22
295.804	-23.55
296.018	41.98
296.233	13.31
296.447	-21.5
296.662	50.18
296.877	-19.46
297.091	52.22
297.306	-19.46
297.52	-13.31
297.735	25.6
297.949	-23.55
298.164	-11.26
298.378	-9.22
298.593	13.31
298.807	84.99
299.022	-31.74
299.236	-11.26
299.451	-21.5
299.665	1.02
299.88	13.31
300.094	7.17
300.309	-21.5
300.523	-35.84
300.737	39.94
300.952	9.22
301.166	-9.22
301.381	3.07
301.595	35.84
301.809	-54.27
302.024	-23.55
302.238	-17.41
302.452	33.79
302.667	-35.84
302.881	-5.12
303.095	15.36
303.309	60.42
303.524	33.79
303.738	35.84
303.952	-5.12
304.166	37.89
304.381	-21.5
304.595	46.08
304.809	5.12
305.023	-31.74
305.237	1.02
305.452	44.03
305.666	-13.31
305.88	27.65
306.094	11.26
306.308	-21.5
306.522	-23.55
306.736	-1.02
306.95	46.08
307.164	13.31
307.379	-23.55
307.593	7.17
307.807	7.17
308.021	5.12
308.235	-44.03
308.449	91.13
308.663	33.79
308.877	29.7
309.091	11.26
309.305	-7.17
309.519	44.03
309.733	7.17
309.947	-70.65
310.161	101.37
310.374	41.98
310.588	19.46
310.802	-3.07
311.016	-82.94
311.23	-64.51
311.444	-29.7
311.658	-5.12
311.872	68.61
312.085	-19.46
312.299	23.55
312.513	-15.36
312.727	5.12
312.941	74.75
313.154	54.27
313.368	64.51
313.582	44.03
313.796	13.31
314.009	-21.5
314.223	-9.22
314.437	-31.74
314.651	13.31
314.864	46.08
315.078	-35.84
315.292	23.55
315.505	-5.12
315.719	-44.03
315.933	-3.07
316.146	29.7
316.36	17.41
316.573	39.94
316.787	29.7
317.001	-9.22
317.214	-19.46
317.428	-11.26
317.641	-23.55
317.855	82.94
318.068	-9.22
318.282	52.22
318.495	3.07
318.709	-66.56
318.922	-5.12
319.136	-15.36
319.349	-17.41
319.563	-27.65
319.776	-23.55
319.99	-27.65
320.203	17.41
320.417	21.5
320.63	35.84
320.843	21.5
321.057	-17.41
321.27	-25.6
321.483	-19.46
321.697	-5.12
321.91	11.26
322.124	78.85
322.337	39.94
322.55	-41.98
322.763	23.55
322.977	-5.12
323.19	-128
323.403	-35.84
323.617	44.03
323.83	-3.07
324.043	21.5
324.256	37.89
324.469	17.41
324.683	52.22
324.896	-23.55
325.109	-11.26
325.322	21.5
325.535	87.04
325.748	-19.46
325.962	17.41
326.175	9.22
326.388	-5.12
326.601	44.03
326.814	44.03
327.027	-13.31
327.24	-44.03
327.453	-5.12
327.666	23.55
327.879	-1.02
328.092	99.33
328.305	87.04
328.518	52.22
328.731	27.65
328.944	-64.51
329.157	-29.7
329.37	-7.17
329.583	27.65
329.796	41.98
330.009	-13.31
330.222	48.13
330.435	29.7
330.648	-44.03
330.861	39.94
331.073	-35.84
331.286	21.5
331.499	-15.36
331.712	11.26
331.925	-41.98
332.138	27.65
332.35	3.07
332.563	-19.46
332.776	-7.17
332.989	-62.46
333.202	101.37
333.414	-37.89
333.627	23.55
333.84	52.22
334.053	-9.22
334.265	-1.02
334.478	27.65
334.691	-11.26
334.903	7.17
335.116	-7.17
335.329	9.22
335.541	-17.41
335.754	-54.27
335.966	-7.17
336.179	37.89
336.392	41.98
336.604	50.18
336.817	52.22
337.029	-37.89
337.242	25.6
337.454	-52.22
337.667	35.84
337.88	-11.26
338.092	29.7
338.305	17.41
338.517	-1.02
338.729	29.7
338.942	-23.55
339.154	-25.6
339.367	27.65
339.579	46.08
339.792	5.12
340.004	21.5
340.217	-1.02
340.429	44.03
340.641	-23.55
340.854	-13.31
341.066	7.17
341.278	13.31
341.491	31.74
341.703	-19.46
341.915	-19.46
342.128	-3.07
342.34	9.22
342.552	-29.7
342.764	-11.26
342.977	-11.26
343.189	52.22
343.401	44.03
343.613	3.07
343.826	-15.36
344.038	44.03
344.25	82.94
344.462	-35.84
344.674	-41.98
344.886	-9.22
345.099	-64.51
345.311	19.46
345.523	-19.46
345.735	-9.22
345.947	29.7
346.159	31.74
346.371	3.07
346.583	27.65
346.795	13.31
347.007	7.17
347.219	7.17
347.431	89.09
347.643	87.04
347.855	-25.6
348.067	-58.37
348.279	29.7
348.491	11.26
348.703	64.51
348.915	1.02
349.127	25.6
349.339	54.27
349.551	-31.74
349.763	37.89
349.975	27.65
350.187	60.42
350.399	-1.02
350.61	29.7
350.822	-19.46
351.034	35.84
351.246	17.41
351.458	39.94
351.669	39.94
351.881	-39.94
352.093	31.74
352.305	70.65
352.517	-21.5
352.728	9.22
352.94	37.89
353.152	19.46
353.363	-25.6
353.575	33.79
353.787	15.36
353.999	-5.12
354.21	60.42
354.422	35.84
354.633	48.13
354.845	-1.02
355.057	17.41
355.268	-1.02
355.48	56.32
355.692	-111.61
355.903	74.75
356.115	9.22
356.326	13.31
356.538	1.02
356.749	91.13
356.961	29.7
357.172	13.31
357.384	19.46
357.595	-27.65
357.807	13.31
358.018	48.13
358.23	21.5
358.441	-29.7
358.653	7.17
358.864	56.32
359.075	-33.79
359.287	-60.42
359.498	-15.36
359.709	29.7
359.921	78.85
360.132	19.46
360.344	60.42
360.555	-21.5
360.766	11.26
360.977	7.17
361.189	-7.17
361.4	11.26
361.611	23.55
361.823	48.13
362.034	99.33
362.245	-7.17
362.456	-23.55
362.667	52.22
362.879	-41.98
363.09	60.42
363.301	46.08
363.512	15.36
363.723	7.17
363.935	-19.46
364.146	66.56
364.357	-11.26
364.568	62.46
364.779	21.5
364.99	17.41
365.201	15.36
365.412	-1.02
365.623	7.17
365.834	35.84
366.045	5.12
366.256	15.36
366.467	19.46
366.678	52.22
366.889	13.31
367.1	37.89
367.311	-3.07
367.522	-52.22
367.733	-1.02
367.944	78.85
368.155	25.6
368.366	-3.07
368.577	52.22
368.788	7.17
368.999	7.17
369.209	15.36
369.42	-25.6
369.631	37.89
369.842	11.26
370.053	-5.12
370.264	29.7
370.474	7.17
370.685	5.12
370.896	-35.84
371.107	48.13
371.317	33.79
371.528	-23.55
371.739	41.98
371.95	-15.36
372.16	-5.12
372.371	29.7
372.582	15.36
372.792	46.08
373.003	9.22
373.214	-33.79
373.424	21.5
373.635	-13.31
373.846	66.56
374.056	25.6
374.267	-15.36
374.477	50.18
374.688	13.31
374.898	56.32
375.109	-1.02
375.319	23.55
375.53	35.84
375.74	-29.7
375.951	-37.89
376.161	115.71
376.372	72.7
376.582	-25.6
376.793	64.51
377.003	-5.12
377.214	-3.07
377.424	15.36
377.635	-19.46
377.845	-33.79
378.055	-29.7
378.266	29.7
378.476	46.08
378.686	13.31
378.897	5.12
379.107	60.42
379.317	31.74
379.528	-19.46
379.738	29.7
379.948	93.18
380.158	27.65
380.369	-48.13
380.579	7.17
380.789	27.65
380.999	52.22
381.21	7.17
381.42	-23.55
381.63	17.41
381.84	46.08
382.05	23.55
382.261	46.08
382.471	-5.12
382.681	3.07
382.891	-11.26
383.101	23.55
383.311	3.07
383.521	-29.7
383.731	56.32
383.941	29.7
384.151	-25.6
384.361	-35.84
384.571	78.85
384.781	23.55
384.991	132.09
385.201	60.42
385.411	27.65
385.621	-5.12
385.831	35.84
386.041	-9.22
386.251	17.41
386.461	87.04
386.671	-1.02
386.881	64.51
387.091	-23.55
387.301	25.6
387.511	-9.22
387.72	54.27
387.93	76.8
388.14	25.6
388.35	56.32
388.56	-17.41
388.769	33.79
388.979	-37.89
389.189	19.46
389.399	15.36
389.609	62.46
389.818	31.74
390.028	-44.03
390.238	54.27
390.447	-72.7
390.657	-21.5
390.867	-7.17
391.076	33.79
391.286	3.07
391.496	48.13
391.705	35.84
391.915	29.7
392.125	27.65
392.334	46.08
392.544	78.85
392.753	-31.74
392.963	44.03
393.172	37.89
393.382	41.98
393.591	60.42
393.801	13.31
394.01	105.47
394.22	50.18
394.429	39.94
394.639	-15.36
394.848	-19.46
395.058	-39.94
395.267	-9.22
395.477	-3.07
395.686	11.26
395.895	74.75
396.105	31.74
396.314	76.8
396.524	41.98
396.733	48.13
396.942	5.12
397.152	3.07
397.361	54.27
397.57	27.65
397.78	31.74
397.989	58.37
398.198	68.61
398.407	7.17
398.617	50.18
398.826	46.08
399.035	31.74
399.244	27.65
399.453	27.65
399.663	101.37
399.872	54.27
400.081	62.46
400.29	52.22
400.499	25.6
400.708	82.94
400.917	-5.12
401.127	62.46
401.336	19.46
401.545	82.94
401.754	64.51
401.963	-3.07
402.172	35.84
402.381	11.26
402.59	33.79
402.799	82.94
403.008	89.09
403.217	87.04
403.426	48.13
403.635	46.08
403.844	93.18
404.053	29.7
404.262	39.94
404.471	62.46
404.68	44.03
404.888	-11.26
405.097	64.51
405.306	64.51
405.515	117.76
405.724	7.17
405.933	146.43
406.142	56.32
406.35	54.27
406.559	21.5
406.768	128
406.977	89.09
407.185	64.51
407.394	82.94
407.603	46.08
407.812	82.94
408.02	142.33
408.229	101.37
408.438	111.61
408.646	35.84
408.855	148.48
409.064	93.18
409.272	82.94
409.481	144.38
409.69	64.51
409.898	89.09
410.107	148.48
410.315	166.91
410.524	138.24
410.733	125.95
410.941	123.9
411.15	115.71
411.358	156.67
411.567	195.58
411.775	128
411.984	177.15
412.192	224.25
412.401	144.38
412.609	228.35
412.818	197.63
413.026	193.53
413.234	236.54
413.443	209.92
413.651	242.68
413.86	230.4
414.068	306.17
414.276	252.92
414.485	218.11
414.693	316.41
414.901	310.27
415.11	281.6
415.318	318.46
415.526	277.5
415.734	302.08
415.943	369.66
416.151	371.71
416.359	398.33
416.567	390.14
416.776	300.03
416.984	443.39
417.192	377.85
417.4	349.18
417.608	379.9
417.817	441.34
418.025	508.92
418.233	463.86
418.441	484.34
418.649	498.68
418.857	494.58
419.065	545.78
419.273	492.54
419.481	551.93
419.689	652.28
419.897	676.85
420.105	639.99
420.313	699.38
420.521	656.37
420.729	609.27
420.937	687.09
421.145	842.74
421.353	769.01
421.561	787.44
421.769	764.92
421.977	936.95
422.185	891.89
422.393	893.94
422.601	930.8
422.809	961.52
423.017	979.95
423.224	1059.82
423.432	1098.74
423.64	1100.78
423.848	1072.11
424.056	1156.08
424.263	1238
424.471	1223.66
424.679	1289.2
424.887	1330.16
425.094	1291.24
425.302	1324.01
425.51	1397.74
425.718	1422.31
425.925	1358.83
426.133	1547.24
426.341	1594.34
426.548	1639.4
426.756	1674.21
426.964	1649.64
427.171	1797.09
427.379	1831.91
427.586	1852.39
427.794	1958.88
428.001	2118.62
428.209	2089.95
428.417	2114.53
428.624	2141.15
428.832	2190.3
429.039	2149.34
429.247	2151.39
429.454	2425.82
429.662	2628.57
429.869	2409.44
430.076	2591.7
430.284	2612.18
430.491	2573.27
430.699	2823.12
430.906	2794.45
431.114	2769.88
431.321	2941.91
431.528	2997.2
431.736	3120.08
431.943	3226.57
432.15	3132.37
432.358	3273.68
432.565	3414.99
432.772	3445.71
432.979	3615.69
433.187	3605.45
433.394	3683.27
433.601	3843.01
433.808	3904.45
434.016	3902.4
434.223	4029.38
434.43	4228.03
434.637	4299.71
434.844	4533.18
435.052	4529.08
435.259	4438.97
435.466	4586.43
435.673	4608.95
435.88	4737.98
436.087	5088.18
436.294	4981.68
436.501	5002.16
436.708	4998.07
436.915	5327.79
437.122	5444.52
437.329	5497.77
437.537	5680.04
437.743	5772.2
437.95	5649.32
438.157	5903.27
438.364	6192.03
438.571	6331.3
438.778	6108.07
438.985	6749.08
439.192	6456.22
439.399	6718.36
439.606	6568.86
439.813	6925.21
440.02	7474.06
440.227	7064.47
440.433	7209.87
440.64	7345.04
440.847	7228.31
441.054	7639.95
441.261	8006.53
441.467	7918.47
441.674	7895.94
441.881	8381.31
442.088	8225.67
442.294	8102.79
442.501	8428.42
442.708	8700.8
442.914	9005.94
443.121	9393.01
443.328	9204.6
443.534	9694.06
443.741	9544.56
443.948	9462.64
444.154	10007.4
444.361	9919.34
444.568	10003.3
444.774	9968.49
444.981	10236.77
445.187	10632.03
445.394	11076.44
445.6	10785.63
445.807	11711.31
446.013	11367.25
446.22	11486.03
446.426	12094.28
446.633	12145.48
446.839	12479.3
447.046	12069.7
447.252	12696.38
447.459	12821.31
447.665	12464.96
447.871	13179.7
448.078	13746.99
448.284	13069.11
448.491	13423.41
448.697	14121.77
448.903	14089
449.11	14117.67
449.316	13916.97
449.522	14152.49
449.728	14656.29
449.935	14564.13
450.141	14844.7
450.347	14928.67
450.553	14635.81
450.76	14928.67
450.966	15160.09
451.172	15141.66
451.378	15123.23
451.584	15440.66
451.791	15418.13
451.997	15561.49
452.203	15661.84
452.409	15584.02
452.615	15532.82
452.821	14777.12
453.027	14983.96
453.233	15393.56
453.44	14908.19
453.646	15014.68
453.852	15115.03
454.058	15379.22
454.264	14828.32
454.47	15166.23
454.676	14844.7
454.882	15340.31
455.088	13810.48
455.294	14332.71
455.5	14242.6
455.705	14492.45
455.911	13992.75
456.117	13620.02
456.323	13454.13
456.529	12933.95
456.735	13081.4
456.941	13034.3
457.147	12696.38
457.352	12403.52
457.558	12239.69
457.764	12272.45
457.97	11883.34
458.176	11770.7
458.381	11826
458.587	11289.43
458.793	11072.34
458.999	10605.41
459.204	11055.96
459.41	11234.13
459.616	10244.96
459.821	10210.15
460.027	10117.99
460.233	10031.97
460.438	9468.78
460.644	9663.34
460.85	9010.04
461.055	9112.44
461.261	9081.72
461.466	8313.73
461.672	8033.16
461.878	8766.33
462.083	8020.87
462.289	7920.52
462.494	8035.21
462.7	7668.62
462.905	7377.81
463.111	7631.76
463.316	7570.32
463.522	7553.93
463.727	7408.53
463.932	7422.86
464.138	7338.9
464.343	7467.92
464.549	7318.42
464.754	7396.24
464.959	7357.33
465.165	7351.18
465.37	7238.55
465.575	7068.56
465.781	7375.76
465.986	7162.77
466.191	6984.6
466.397	6837.14
466.602	6394.78
466.807	6769.56
467.012	6683.55
467.218	6632.35
467.423	6673.31
467.628	6841.24
467.833	6974.36
468.038	6658.97
468.244	6513.56
468.449	6757.27
468.654	6493.08
468.859	6507.42
469.064	6323.1
469.269	6220.71
469.474	6296.48
469.679	6413.21
469.885	6149.03
470.09	6177.7
470.295	6419.36
470.5	5897.13
470.705	6095.78
470.91	5741.48
471.115	6028.2
471.32	6151.07
471.525	5995.43
471.73	5974.95
471.935	5815.21
472.139	5764.01
472.344	5491.63
472.549	5608.36
472.754	5542.83
472.959	5479.34
473.164	5325.74
473.369	5272.5
473.574	5469.1
473.778	5274.54
473.983	5278.64
474.188	5370.8
474.393	5051.31
474.598	5219.25
474.802	5075.89
475.007	5102.51
475.212	5051.31
475.417	4840.37
475.621	4979.64
475.826	4910.01
476.031	4854.71
476.235	4623.29
476.44	4633.53
476.645	4637.63
476.849	4658.1
477.054	4629.43
477.259	4570.04
477.463	4584.38
477.668	4543.42
477.872	4537.27
478.077	4531.13
478.282	4334.53
478.486	4258.75
478.691	4359.1
478.895	4252.61
479.1	4307.9
479.304	4252.61
479.509	4109.25
479.713	4137.92
479.918	4066.24
480.122	4101.06
480.326	4137.92
480.531	4189.12
480.735	4096.96
480.94	4031.43
481.144	4088.77
481.348	4137.92
481.553	4027.33
481.757	3886.02
481.961	4062.15
482.166	4180.93
482.37	3890.12
482.574	3863.49
482.778	3959.75
482.983	4117.44
483.187	4010.95
483.391	4088.77
483.595	3980.23
483.8	3904.45
484.004	3982.28
484.208	4049.86
484.412	3943.36
484.616	4115.39
484.821	3982.28
485.025	3812.29
485.229	3996.61
485.433	4068.29
485.637	3955.65
485.841	3988.42
486.045	3910.6
486.249	4037.57
486.453	3943.36
486.657	3957.7
486.861	3982.28
487.065	3988.42
487.269	4017.09
487.473	3824.58
487.677	3994.56
487.881	3969.99
488.085	4062.15
488.289	4096.96
488.493	3980.23
488.697	3994.56
488.901	3976.13
489.105	3941.32
489.309	3980.23
489.512	4064.19
489.716	3920.84
489.92	4109.25
490.124	3912.64
490.328	4113.35
490.531	4021.19
490.735	3988.42
490.939	4115.39
491.143	4109.25
491.346	4031.43
491.55	4051.91
491.754	4246.46
491.958	4264.89
492.161	4258.75
492.365	4248.51
492.569	4193.22
492.772	4162.5
492.976	4297.66
493.18	4422.59
493.383	4461.5
493.587	4320.19
493.79	4400.06
493.994	4299.71
494.197	4479.93
494.401	4510.65
494.605	4346.81
494.808	4535.23
495.012	4600.76
495.215	4645.82
495.419	4602.81
495.622	4518.84
495.825	4572.09
496.029	4867
496.232	4881.33
496.436	4727.74
496.639	4948.92
496.843	4844.47
497.046	5086.13
497.249	5245.87
497.453	4983.73
497.656	5356.46
497.859	5129.14
498.063	5313.45
498.266	5317.55
498.469	5362.61
498.673	5499.82
498.876	5436.33
499.079	5618.6
499.282	5657.51
499.485	5702.57
499.689	5686.19
499.892	5813.16
500.095	5835.69
500.298	5905.32
500.501	5868.45
500.705	6146.98
500.908	6142.88
501.111	6185.89
501.314	6482.85
501.517	6511.52
501.72	6470.56
501.923	6511.52
502.126	6747.03
502.329	6771.61
502.532	6712.22
502.735	6751.13
502.938	6990.74
503.141	7021.46
503.344	7109.52
503.547	7091.09
503.75	7295.89
503.953	7369.62
504.156	7418.77
504.359	7578.51
504.562	7586.7
504.765	7730.06
504.968	7945.09
505.17	7820.17
505.373	8045.45
505.576	8045.45
505.779	8289.15
505.982	8424.32
506.185	8452.99
506.387	8414.08
506.59	8567.68
506.793	8747.9
506.996	8731.51
507.198	9005.94
507.401	8872.82
507.604	9139.06
507.807	9347.95
508.009	9284.47
508.212	9536.37
508.415	9606
508.617	9790.31
508.82	9759.6
509.022	9823.08
509.225	9952.1
509.428	10300.26
509.63	10107.75
509.833	10482.53
510.035	10605.41
510.238	10638.17
510.44	10888.03
510.643	10871.64
510.845	11105.11
511.048	11033.43
511.25	11430.74
511.453	11367.25
511.655	11578.19
511.858	11881.29
512.06	11713.36
512.262	12008.26
512.465	12118.86
512.667	12135.24
512.87	12309.32
513.072	12202.82
513.274	12708.67
513.477	12778.3
513.679	13019.96
513.881	12976.95
514.084	13097.78
514.286	13355.83
514.488	13566.77
514.69	13878.06
514.893	13648.69
515.095	14076.71
515.297	14095.14
515.499	14277.41
515.701	14555.94
515.904	14904.09
516.106	14715.68
516.308	14869.28
516.51	14912.28
516.712	15209.24
516.914	15436.56
517.116	15708.94
517.318	15749.9
517.52	16079.63
517.722	15946.51
517.925	16335.62
518.127	16411.4
518.329	16777.98
518.531	16630.53
518.733	16933.63
518.935	17222.39
519.136	17326.84
519.338	17685.23
519.54	17804.02
519.742	17930.99
519.944	17859.31
520.146	18047.72
520.348	18287.34
520.55	18375.4
520.752	18576.1
520.954	18901.73
521.155	18911.97
521.357	19004.13
521.559	19077.85
521.761	19628.76
521.963	19632.85
522.164	19608.28
522.366	19788.5
522.568	20095.69
522.77	20497.1
522.971	20435.66
523.173	20411.08
523.375	20871.87
523.576	20869.83
523.778	20792
523.98	20947.65
524.181	21654.2
524.383	21279.42
524.584	21512.89
524.786	21738.16
524.988	21697.2
525.189	22131.37
525.391	22274.73
525.592	22037.17
525.794	22401.71
525.995	22506.15
526.197	22375.08
526.398	22280.88
526.6	22657.7
526.801	23075.49
527.003	23009.95
527.204	23014.05
527.406	23464.6
527.607	23200.41
527.808	23364.25
528.01	23581.34
528.211	23442.07
528.412	23698.07
528.614	23741.08
528.815	24013.46
529.016	24068.75
529.218	24052.37
529.419	24062.61
529.62	23964.31
529.822	23937.68
530.023	23990.93
530.224	24425.1
530.425	24418.96
530.626	24265.36
530.828	24236.69
531.029	24523.4
531.23	24347.28
531.431	24466.06
531.632	24746.63
531.833	24605.32
532.035	24300.17
532.236	24722.05
532.437	24769.16
532.638	24590.98
532.839	24836.74
533.04	24918.66
533.241	24799.88
533.442	25186.94
533.643	24898.18
533.844	24896.13
534.045	25076.35
534.246	24769.16
534.447	24949.38
534.648	24648.33
534.849	25295.49
535.05	24953.48
535.251	25197.18
535.451	25148.03
535.652	25408.12
535.853	25002.63
536.054	25219.71
536.255	25289.34
536.456	25039.49
536.657	25545.34
536.857	25254.53
537.058	24849.03
537.259	25434.75
537.46	25193.09
537.66	25234.05
537.861	25213.57
538.062	25119.36
538.263	25295.49
538.463	25381.5
538.664	25223.81
538.865	25457.28
539.065	25455.23
539.266	25105.02
539.466	25305.73
539.667	25113.22
539.868	25195.14
540.068	25406.08
540.269	25045.63
540.469	25307.77
540.67	25404.03
540.87	25375.36
541.071	24973.95
541.271	25346.69
541.472	25322.11
541.672	25199.23
541.873	25137.79
542.073	25027.2
542.274	25410.17
542.474	25318.01
542.675	25006.72
542.875	25293.44
543.075	25375.36
543.276	24904.32
543.476	25455.23
543.676	25197.18
543.877	25395.84
544.077	25354.88
544.277	25080.45
544.478	25053.83
544.678	25277.05
544.878	25299.58
545.078	25395.84
545.279	25215.62
545.479	25379.45
545.679	25420.41
545.879	25162.37
546.079	25143.94
546.28	25193.09
546.48	25158.27
546.68	25213.57
546.88	25090.69
547.08	25451.13
547.28	25098.88
547.48	25188.99
547.68	25590.39
547.88	25139.84
548.081	25301.63
548.281	25520.76
548.481	25223.81
548.681	25887.35
548.881	25184.9
549.081	25119.36
549.28	25049.73
549.48	25440.89
549.68	25125.5
549.88	25717.37
550.08	25025.15
550.28	25266.81
550.48	25305.73
550.68	25422.46
550.88	24924.8
551.08	25410.17
551.279	25313.92
551.479	25141.89
551.679	25236.09
551.879	25154.18
552.079	25340.54
552.278	25127.55
552.478	25066.11
552.678	24957.57
552.878	25293.44
553.077	25154.18
553.277	24924.8
553.477	25074.31
553.676	24889.99
553.876	25148.03
554.076	24724.1
554.275	24978.05
554.475	24851.08
554.674	25225.86
554.874	24896.13
555.074	24926.85
555.273	25215.62
555.473	24908.42
555.672	24597.13
555.872	24861.32
556.071	24803.97
556.271	24789.64
556.47	24879.75
556.67	24468.11
556.869	24533.64
557.068	24814.21
557.268	24631.94
557.467	24519.31
557.667	24494.73
557.866	24343.18
558.065	24748.68
558.265	24306.32
558.464	24451.72
558.663	24578.7
558.863	24451.72
559.062	24849.03
559.261	24001.17
559.461	24613.51
559.66	24277.65
559.859	24386.19
560.058	23863.96
560.258	24388.24
560.457	23876.24
560.656	24027.79
560.855	23872.15
561.054	24066.7
561.253	24070.8
561.453	23659.16
561.652	24111.76
561.851	23839.38
562.05	23736.98
562.249	23734.93
562.448	24081.04
562.647	23544.47
562.846	23700.12
563.045	23585.43
563.244	23427.74
563.443	23679.64
563.642	23210.65
563.841	23401.11
564.04	23222.94
564.239	23503.51
564.438	23200.41
564.637	23454.36
564.836	23405.21
565.035	22626.98
565.234	23358.11
565.432	23095.97
565.631	22880.93
565.83	23153.31
566.029	23067.3
566.228	22903.46
566.427	22782.63
566.625	22389.42
566.824	22524.58
567.023	22833.83
567.222	22241.96
567.42	22739.62
567.619	22413.99
567.818	22479.53
568.016	22270.64
568.215	22598.31
568.414	22141.61
568.612	22571.69
568.811	22229.68
569.01	22330.03
569.208	21906.1
569.407	21871.28
569.605	21824.18
569.804	21785.27
570.002	21623.48
570.201	21828.27
570.4	21473.98
570.598	21570.23
570.797	21420.73
570.995	21363.39
571.193	21179.07
571.392	21426.87
571.59	20996.8
571.789	21373.63
571.987	21088.96
572.186	21086.91
572.384	21007.04
572.582	21072.57
572.781	20794.05
572.979	20689.6
573.177	20630.21
573.376	20595.4
573.574	20509.38
573.772	20636.36
573.971	20468.42
574.169	20454.09
574.367	20216.52
574.565	20318.92
574.763	20304.59
574.962	20411.08
575.16	19940.05
575.358	20118.22
575.556	19772.11
575.754	20247.24
575.952	19985.1
576.151	19997.39
576.349	19417.82
576.547	19700.44
576.745	19643.09
576.943	19737.3
577.141	19653.33
577.339	19505.88
577.537	19612.37
577.735	19434.2
577.933	19391.19
578.131	19159.77
578.329	19043.04
578.527	19133.15
578.725	19213.02
578.923	19440.34
579.121	19036.89
579.319	18643.68
579.516	18899.68
579.714	18852.58
579.912	18911.97
580.11	18690.79
580.308	18817.76
580.506	18596.58
580.704	18363.11
580.901	18430.69
581.099	18582.24
581.297	18096.88
581.495	18422.5
581.692	18553.57
581.89	18094.83
582.088	18238.19
582.285	18139.88
582.483	18217.71
582.681	17949.42
582.878	17920.75
583.076	18078.44
583.274	17992.43
583.471	17804.02
583.669	17658.61
583.866	17658.61
584.064	17672.95
584.262	17337.08
584.459	17564.4
584.657	17408.76
584.854	17308.41
585.052	17285.88
585.249	17462.01
585.447	17324.79
585.644	17173.24
585.841	17074.94
586.039	17335.03
586.236	16896.77
586.434	17009.4
586.631	16794.37
586.828	16823.04
587.026	16655.11
587.223	16814.85
587.42	16608
587.618	16761.6
587.815	16454.4
588.012	16487.17
588.21	16521.99
588.407	16792.32
588.604	16202.5
588.801	16347.91
588.999	16118.54
589.196	16589.57
589.393	16251.66
589.59	16200.46
589.787	15993.61
589.984	16010
590.182	16050.96
590.379	16087.82
590.576	15729.42
590.773	15813.39
590.97	15829.77
591.167	15797.01
591.364	15610.64
591.561	15684.37
591.758	15567.63
591.955	15733.52
592.152	15528.72
592.349	15416.08
592.546	15590.16
592.743	15332.12
592.94	15233.82
593.137	15606.55
593.334	15581.97
593.531	15072.03
593.727	15051.55
593.924	15164.18
594.121	15076.12
594.318	15180.57
594.515	15069.98
594.712	15063.83
594.908	15024.92
595.105	14889.76
595.302	14951.2
595.499	14707.49
595.696	14793.5
595.892	14541.6
596.089	14676.77
596.286	14807.84
596.482	14592.8
596.679	14600.99
596.876	14299.94
597.072	14336.81
597.269	14433.06
597.466	14287.65
597.662	14316.33
597.859	14349.09
598.055	14361.38
598.252	14138.15
598.448	14068.52
598.645	13873.96
598.841	13912.88
599.038	14076.71
599.234	13916.97
599.431	13990.7
599.627	13873.96
599.824	13880.11
600.02	13849.39
600.217	13701.93
600.413	13701.93
600.609	13726.51
600.806	13658.93
601.002	13687.6
601.198	13595.44
601.395	13583.15
601.591	13472.56
601.787	13480.75
601.984	13366.07
602.18	13431.6
602.376	13382.45
602.572	13364.02
602.769	13105.98
602.965	13124.41
603.161	13103.93
603.357	13128.5
603.553	13155.13
603.75	13108.02
603.946	12780.35
604.142	12755.77
604.338	12630.85
604.534	12616.51
604.73	12546.88
604.926	12655.42
605.122	12817.21
605.318	12438.34
605.514	12669.76
605.71	12565.31
605.906	12385.09
606.102	12491.59
606.298	12409.67
606.494	12307.27
606.69	12499.78
606.886	12262.21
607.082	12190.53
607.278	12256.07
607.474	12280.64
607.67	12241.73
607.866	12059.46
608.062	11989.83
608.257	12069.7
608.453	11995.98
608.649	12022.6
608.845	11946.83
609.041	12028.74
609.236	11965.26
609.432	12022.6
609.628	11662.16
609.824	11762.51
610.019	11799.37
610.215	11629.39
610.411	11627.34
610.606	11715.41
610.802	11690.83
610.998	11541.33
611.193	11666.25
611.389	11596.62
611.584	11430.74
611.78	11285.33
611.976	11502.42
612.171	11199.32
612.367	11371.35
612.562	11195.22
612.758	11086.68
612.953	11045.72
613.149	11377.49
613.344	11068.25
613.539	11494.22
613.735	11379.54
613.93	11131.73
614.126	10822.49
614.321	11289.43
614.517	11045.72
614.712	10996.57
614.907	10765.15
615.103	11199.32
615.298	10963.8
615.493	10939.23
615.688	10734.43
615.884	11064.15
616.079	10726.24
616.274	10781.53
616.47	10599.26
616.665	10648.41
616.86	10728.28
617.055	10412.9
617.25	10638.17
617.445	10578.78
617.641	10449.76
617.836	10611.55
618.031	10460
618.226	10601.31
618.421	10513.25
618.616	10326.88
618.811	10376.03
619.006	10351.46
619.201	10138.47
619.396	10124.13
619.591	9984.87
619.786	10181.48
619.981	9861.99
620.176	10011.5
620.371	9790.31
620.566	9790.31
620.761	9888.62
620.956	9902.95
621.151	9857.9
621.346	9732.97
621.541	9644.91
621.735	9763.69
621.93	9421.68
622.125	9704.3
622.32	9382.77
622.515	9450.35
622.709	9196.4
622.904	9405.3
623.099	9313.14
623.294	9122.68
623.488	9038.71
623.683	9122.68
623.878	8811.39
624.072	9153.4
624.267	8846.2
624.462	9010.04
624.656	9036.66
624.851	8860.54
625.046	8881.02
625.24	8676.22
625.435	8608.64
625.629	8723.32
625.824	8579.97
626.018	8534.91
626.213	8514.43
626.407	8358.78
626.602	8278.91
626.796	8340.35
626.991	8442.75
627.185	8352.64
627.38	8227.71
627.574	8102.79
627.768	8158.08
627.963	8184.71
628.157	7977.86
628.352	8115.08
628.546	7965.57
628.74	7928.71
628.935	7885.7
629.129	7926.66
629.323	7785.35
629.517	7734.15
629.712	7828.36
629.906	7674.76
630.1	7633.8
630.294	7633.8
630.489	7566.22
630.683	7535.5
630.877	7420.81
631.071	7244.69
631.265	7510.93
631.459	7396.24
631.653	7566.22
631.848	7297.94
632.042	7299.98
632.236	7189.39
632.43	7193.49
632.624	7058.32
632.818	7005.08
633.012	7078.8
633.206	7019.41
633.4	7041.94
633.594	6923.16
633.788	6962.07
633.982	6914.97
634.176	7062.42
634.369	6824.86
634.563	6947.73
634.757	6730.65
634.951	6798.23
635.145	6828.95
635.339	6642.59
635.533	6523.8
635.726	6595.48
635.92	6374.3
636.114	6374.3
636.308	6435.74
636.501	6343.58
636.695	6454.17
636.889	6364.06
637.083	6376.35
637.276	6392.73
637.47	6175.65
637.664	6284.19
637.857	6165.41
638.051	6159.27
638.244	6149.03
638.438	6151.07
638.632	5856.17
638.825	5997.48
639.019	5800.87
639.212	5895.08
639.406	5917.61
639.599	5815.21
639.793	5819.3
639.986	5641.13
640.18	5723.05
640.373	5692.33
640.567	5743.53
640.76	5710.76
640.954	5579.69
641.147	5469.1
641.34	5438.38
641.534	5495.72
641.727	5479.34
641.92	5542.83
642.114	5419.95
642.307	5378.99
642.5	5403.57
642.694	5241.78
642.887	5200.82
643.08	5301.17
643.273	5288.88
643.467	5215.15
643.66	5082.03
643.853	5139.38
644.046	5114.8
644.239	4959.16
644.432	5073.84
644.626	5122.99
644.819	5047.22
645.012	4987.83
645.205	4930.48
645.398	4895.67
645.591	4834.23
645.784	4885.43
645.977	4864.95
646.17	4905.91
646.363	4856.76
646.556	4666.3
646.749	4727.74
646.942	4578.23
647.135	4719.54
647.328	4559.8
647.521	4660.15
647.714	4463.55
647.907	4570.04
648.099	4438.97
648.292	4584.38
648.485	4336.57
648.678	4412.35
648.871	4408.25
649.064	4244.42
649.256	4340.67
649.449	4262.85
649.642	4332.48
649.835	4215.74
650.027	4150.21
650.22	4199.36
650.413	4164.54
650.605	4096.96
650.798	4058.05
650.991	4062.15
651.183	4068.29
651.376	4115.39
651.568	4166.59
651.761	3920.84
651.954	4027.33
652.146	3918.79
652.339	3845.06
652.531	3892.16
652.724	3918.79
652.916	3824.58
653.109	3779.53
653.301	3795.91
653.494	3879.88
653.686	3746.76
653.879	3754.95
654.071	3910.6
654.263	3568.59
654.456	3656.65
654.648	3701.7
654.84	3580.87
655.033	3713.99
655.225	3638.22
655.417	3648.46
655.61	3521.48
655.802	3742.66
655.994	3652.55
656.186	3474.38
656.379	3468.24
656.571	3623.88
656.763	3460.04
656.955	3337.17
657.148	3388.36
657.34	3451.85
657.532	3345.36
657.724	3414.99
657.916	3238.86
658.108	3318.73
658.3	3380.17
658.492	3359.69
658.684	3380.17
658.876	3109.84
659.068	3144.66
659.26	3169.23
659.452	3206.1
659.644	3109.84
659.836	3208.14
660.028	3034.07
660.22	3044.31
660.412	3101.65
660.604	3079.12
660.796	2993.11
660.988	3009.49
661.18	3017.68
661.372	2907.09
661.563	2911.19
661.755	3025.87
661.947	2958.29
662.139	2864.08
662.331	2829.27
662.522	2798.55
662.714	2694.1
662.906	2812.89
663.097	2907.09
663.289	2714.58
663.481	2845.65
663.673	2761.69
663.864	2798.55
664.056	2675.67
664.247	2569.18
664.439	2706.39
664.631	2644.95
664.822	2644.95
665.014	2681.82
665.205	2517.98
665.397	2517.98
665.588	2579.42
665.78	2620.38
665.971	2491.35
666.163	2532.31
666.354	2620.38
666.546	2558.94
666.737	2524.12
666.929	2485.21
667.12	2464.73
667.311	2497.5
667.503	2452.44
667.694	2423.77
667.885	2380.76
668.077	2472.92
668.268	2470.87
668.459	2290.65
668.651	2372.57
668.842	2411.48
669.033	2282.46
669.224	2448.35
669.416	2186.21
669.607	2444.25
669.798	2348
669.989	2450.39
670.18	2288.61
670.371	2261.98
670.563	2202.59
670.754	2233.31
670.945	2417.63
671.136	2290.65
671.327	2202.59
671.518	2276.32
671.709	2163.68
671.9	2178.01
672.091	2286.56
672.282	2112.48
672.473	2229.21
672.664	2178.01
672.855	2245.6
673.046	2143.2
673.237	2218.97
673.428	2241.5
673.619	2208.73
673.809	2147.3
674	2092
674.191	1985.51
674.382	2057.18
674.573	2192.35
674.764	2145.25
674.954	2200.54
675.145	2038.75
675.336	2108.38
675.527	2092
675.717	2114.53
675.908	2098.14
676.099	1993.7
676.289	2024.42
676.48	1999.84
676.671	2051.04
676.861	1954.79
677.052	1991.65
677.243	1936.35
677.433	1860.58
677.624	1954.79
677.814	2028.51
678.005	1975.27
678.195	2034.66
678.386	1983.46
678.576	1962.98
678.767	1926.11
678.957	1987.55
679.148	2032.61
679.338	2022.37
679.529	1969.12
679.719	1950.69
679.909	1962.98
680.1	1887.2
680.29	1954.79
680.481	2048.99
680.671	2022.37
680.861	1936.35
681.052	1981.41
681.242	1946.59
681.432	1991.65
681.622	1995.75
681.813	1919.97
682.003	1922.02
682.193	1883.11
682.383	1983.46
682.573	1922.02
682.764	2003.94
682.954	1911.78
683.144	1917.92
683.334	1868.77
683.524	1881.06
683.714	1819.62
683.904	1928.16
684.094	1977.31
684.284	1883.11
684.474	1915.87
684.664	1895.4
684.854	1936.35
685.044	1934.31
685.234	1743.85
685.424	1819.62
685.614	1833.96
685.804	1870.82
685.994	1864.68
686.184	1817.57
686.374	1907.68
686.564	1825.76
686.753	1881.06
686.943	1919.97
687.133	1874.92
687.323	1778.66
687.513	1842.15
687.702	1846.24
687.892	1940.45
688.082	1899.49
688.272	1868.77
688.461	1825.76
688.651	1838.05
688.841	1776.61
689.03	1815.52
689.22	1827.81
689.41	1737.7
689.599	1817.57
689.789	1811.43
689.979	1772.52
690.168	1776.61
690.358	1821.67
690.547	1770.47
690.737	1737.7
690.926	1870.82
691.116	1786.85
691.305	1772.52
691.495	1749.99
691.684	1721.32
691.874	1815.52
692.063	1799.14
692.252	1788.9
692.442	1752.04
692.631	1758.18
692.82	1743.85
693.01	1944.55
693.199	1690.6
693.388	1749.99
693.578	1760.23
693.767	1868.77
693.956	1749.99
694.146	1758.18
694.335	1922.02
694.524	1774.56
694.713	1768.42
694.902	1827.81
695.092	1780.71
695.281	1768.42
695.47	1797.09
695.659	1772.52
695.848	1745.89
696.037	1823.72
696.226	1756.13
696.415	1756.13
696.604	1782.76
696.793	1737.7
696.982	1823.72
697.171	1766.37
697.36	1799.14
697.549	1887.2
697.738	1764.33
697.927	1743.85
698.116	1772.52
698.305	1684.45
698.494	1786.85
698.683	1668.07
698.872	1752.04
699.061	1805.28
699.25	1756.13
699.438	1842.15
699.627	1803.24
699.816	1813.48
700.005	1760.23
700.193	1897.44
700.382	1979.36
700.571	1739.75
700.76	1690.6
700.948	1674.21
701.137	1721.32
701.326	1788.9
701.514	1764.33
701.703	1756.13
701.892	1825.76
702.08	1836
702.269	1778.66
702.457	1727.46
702.646	1856.48
702.834	1776.61
703.023	1754.09
703.212	1786.85
703.4	1721.32
703.589	1680.36
703.777	1821.67
703.965	1731.56
704.154	1772.52
704.342	1774.56
704.531	1735.65
704.719	1803.24
704.907	1745.89
705.096	1764.33
705.284	1688.55
705.472	1706.98
705.661	1678.31
705.849	1793
706.037	1770.47
706.226	1713.13
706.414	1729.51
706.602	1836
706.79	1602.54
706.979	1709.03
707.167	1711.08
707.355	1649.64
707.543	1668.07
707.731	1739.75
707.919	1768.42
708.107	1649.64
708.296	1580.01
708.484	1793
708.672	1614.82
708.86	1606.63
709.048	1680.36
709.236	1606.63
709.424	1686.5
709.612	1629.16
709.8	1659.88
709.988	1629.16
710.176	1725.41
710.364	1670.12
710.551	1635.3
710.739	1557.48
710.927	1676.26
711.115	1623.02
711.303	1639.4
711.491	1633.26
711.679	1555.43
711.866	1549.29
712.054	1690.6
712.242	1600.49
712.43	1635.3
712.617	1614.82
712.805	1606.63
712.993	1639.4
713.181	1508.33
713.368	1549.29
713.556	1489.9
713.744	1534.95
713.931	1586.15
714.119	1563.62
714.306	1575.91
714.494	1573.86
714.682	1545.19
714.869	1569.77
715.057	1528.81
715.244	1498.09
715.432	1569.77
715.619	1489.9
715.807	1479.66
715.994	1446.89
716.182	1498.09
716.369	1590.25
716.556	1594.34
716.744	1356.78
716.931	1475.56
717.119	1479.66
717.306	1561.58
717.493	1430.51
717.681	1487.85
717.868	1502.19
718.055	1424.36
718.242	1512.42
718.43	1518.57
718.617	1477.61
718.804	1498.09
718.991	1440.75
719.179	1442.79
719.366	1428.46
719.553	1518.57
719.74	1457.13
719.927	1446.89
720.114	1383.4
720.301	1416.17
720.488	1367.02
720.676	1373.16
720.863	1397.74
721.05	1348.59
721.237	1393.64
721.424	1283.05
721.611	1364.97
721.798	1403.88
721.985	1274.86
722.172	1420.27
722.358	1491.95
722.545	1344.49
722.732	1311.72
722.919	1291.24
723.106	1369.07
723.293	1352.68
723.48	1389.55
723.667	1340.4
723.853	1250.28
724.04	1324.01
724.227	1346.54
724.414	1358.83
724.6	1156.08
724.787	1223.66
724.974	1281
725.161	1391.59
725.347	1256.43
725.534	1205.23
725.72	1379.31
725.907	1367.02
726.094	1303.53
726.28	1254.38
726.467	1307.63
726.653	1311.72
726.84	1238
727.027	1190.89
727.213	1233.9
727.4	1233.9
727.586	1235.95
727.773	1278.96
727.959	1176.56
728.145	1287.15
728.332	1182.7
728.518	1194.99
728.705	1289.2
728.891	1160.17
729.077	1145.84
729.264	1154.03
729.45	1203.18
729.636	1262.57
729.823	1258.48
730.009	1227.76
730.195	1219.57
730.382	1180.65
730.568	1238
730.754	1166.32
730.94	1137.65
731.126	1225.71
731.313	1143.79
731.499	1229.81
731.685	1213.42
731.871	1178.61
732.057	1139.69
732.243	1135.6
732.429	1158.13
732.615	1186.8
732.801	1156.08
732.987	1154.03
733.173	1229.81
733.359	1151.98
733.545	1082.35
733.731	1219.57
733.917	1145.84
734.103	1125.36
734.289	1194.99
734.475	1252.33
734.661	1139.69
734.847	1117.17
735.033	1154.03
735.219	1111.02
735.404	1006.58
735.59	1074.16
735.776	1149.93
735.962	1274.86
736.148	1135.6
736.333	1029.1
736.519	1154.03
736.705	1076.21
736.89	1164.27
737.076	1115.12
737.262	1061.87
737.447	1104.88
737.633	975.86
737.819	1111.02
738.004	1133.55
738.19	1037.3
738.375	1137.65
738.561	1025.01
738.747	1082.35
738.932	1002.48
739.118	1070.06
739.303	1002.48
739.489	1131.5
739.674	1078.26
739.859	1002.48
740.045	955.38
740.23	1037.3
740.416	998.38
740.601	986.1
740.786	1068.02
740.972	943.09
741.157	957.43
741.342	1008.62
741.528	1014.77
741.713	1082.35
741.898	963.57
742.084	1037.3
742.269	988.14
742.454	1035.25
742.639	920.56
742.824	1053.68
743.01	914.42
743.195	963.57
743.38	984.05
743.565	943.09
743.75	988.14
743.935	963.57
744.12	982
744.305	906.23
744.49	936.95
744.675	918.51
744.86	953.33
745.045	910.32
745.23	877.55
745.415	881.65
745.6	951.28
745.785	914.42
745.97	902.13
746.155	852.98
746.34	863.22
746.525	846.84
746.71	930.8
746.895	801.78
747.079	836.6
747.264	855.03
747.449	834.55
747.634	781.3
747.819	908.27
748.003	883.7
748.188	924.66
748.373	840.69
748.557	803.83
748.742	826.36
748.927	803.83
749.111	830.45
749.296	797.68
749.481	764.92
749.665	869.36
749.85	771.06
750.034	859.12
750.219	730.1
750.404	773.11
750.588	867.31
750.773	789.49
750.957	822.26
751.141	726
751.326	715.77
751.51	674.81
751.695	723.96
751.879	758.77
752.064	779.25
752.248	754.68
752.432	793.59
752.617	801.78
752.801	777.2
752.985	685.05
753.17	715.77
753.354	685.05
753.538	670.71
753.722	732.15
753.907	637.94
754.091	627.7
754.275	748.53
754.459	676.85
754.643	674.81
754.828	701.43
755.012	695.29
755.196	592.89
755.38	617.46
755.564	721.91
755.748	648.18
755.932	603.13
756.116	529.4
756.3	635.89
756.484	674.81
756.668	635.89
756.852	594.93
757.036	639.99
757.22	625.65
757.404	592.89
757.588	603.13
757.772	685.05
757.956	596.98
758.14	549.88
758.323	576.5
758.507	707.57
758.691	519.16
758.875	508.92
759.059	646.13
759.242	607.22
759.426	551.93
759.61	582.65
759.794	566.26
759.977	537.59
760.161	617.46
760.345	535.54
760.528	549.88
760.712	539.64
760.895	506.87
761.079	558.07
761.263	480.25
761.446	498.68
761.63	596.98
761.813	543.74
761.997	594.93
762.18	527.35
762.364	515.06
762.547	482.3
762.731	484.34
762.914	529.4
763.098	560.12
763.281	510.97
763.464	449.53
763.648	529.4
763.831	510.97
764.015	470.01
764.198	537.59
764.381	496.63
764.564	564.22
764.748	519.16
764.931	500.73
765.114	543.74
765.297	504.82
765.481	494.58
765.664	476.15
765.847	488.44
766.03	480.25
766.213	459.77
766.397	506.87
766.58	459.77
766.763	392.19
766.946	510.97
767.129	488.44
767.312	463.86
767.495	474.1
767.678	517.11
767.861	441.34
768.044	443.39
768.227	449.53
768.41	467.96
768.593	519.16
768.776	453.63
768.959	422.91
769.142	416.76
769.324	400.38
769.507	351.23
769.69	457.72
769.873	427
770.056	465.91
770.239	283.64
770.421	416.76
770.604	379.9
770.787	400.38
770.97	420.86
771.152	414.71
771.335	449.53
771.518	443.39
771.7	472.06
771.883	367.61
772.066	433.15
772.248	429.05
772.431	363.51
772.613	410.62
772.796	435.19
772.978	431.1
773.161	394.23
773.343	287.74
773.526	357.37
773.708	400.38
773.891	359.42
774.073	381.95
774.256	465.91
774.438	396.28
774.621	390.14
774.803	355.32
774.985	437.24
775.168	357.37
775.35	404.47
775.532	355.32
775.715	322.56
775.897	375.8
776.079	310.27
776.261	367.61
776.444	269.31
776.626	287.74
776.808	369.66
776.99	345.08
777.173	304.12
777.355	369.66
777.537	377.85
777.719	400.38
777.901	345.08
778.083	222.2
778.265	373.75
778.447	336.89
778.629	369.66
778.811	322.56
778.993	304.12
779.175	377.85
779.357	326.65
779.539	302.08
779.721	293.88
779.903	285.69
780.085	338.94
780.267	324.6
780.449	293.88
780.631	361.47
780.812	289.79
780.994	269.31
781.176	263.16
781.358	328.7
781.54	252.92
781.721	316.41
781.903	332.79
782.085	306.17
782.267	300.03
782.448	244.73
782.63	257.02
782.812	218.11
782.993	310.27
783.175	277.5
783.357	326.65
783.538	252.92
783.72	242.68
783.901	326.65
784.083	285.69
784.264	242.68
784.446	185.34
784.627	250.88
784.809	273.4
784.99	236.54
785.172	216.06
785.353	259.07
785.535	267.26
785.716	183.29
785.897	228.35
786.079	185.34
786.26	273.4
786.441	164.86
786.623	267.26
786.804	199.68
786.985	193.53
787.167	222.2
787.348	119.81
787.529	189.44
787.71	164.86
787.891	179.2
788.073	142.33
788.254	259.07
788.435	181.25
788.616	197.63
788.797	203.77
788.978	232.44
789.159	222.2
789.34	193.53
789.522	154.62
789.703	218.11
789.884	158.72
790.065	228.35
790.246	211.96
790.427	181.25
790.607	205.82
790.788	191.49
790.969	181.25
791.15	228.35
791.331	228.35
791.512	144.38
791.693	207.87
791.874	189.44
792.054	201.72
792.235	171.01
792.416	97.28
792.597	240.64
792.778	203.77
792.958	160.77
793.139	166.91
793.32	166.91
793.5	166.91
793.681	230.4
793.862	226.3
794.042	136.19
794.223	121.85
794.404	168.96
794.584	97.28
794.765	152.57
794.945	123.9
795.126	177.15
795.306	117.76
795.487	134.14
795.667	101.37
795.848	152.57
796.028	175.1
796.209	140.29
796.389	70.65
796.57	103.42
796.75	115.71
796.93	136.19
797.111	125.95
797.291	152.57
797.471	115.71
797.652	111.61
797.832	150.53
798.012	123.9
798.192	84.99
798.373	160.77
798.553	148.48
798.733	66.56
798.913	91.13
799.093	140.29
799.274	138.24
799.454	105.47
799.634	142.33
799.814	128
799.994	158.72
800.174	158.72
800.354	74.75
800.534	142.33
800.714	119.81
800.894	136.19
801.074	95.23
801.254	168.96
801.434	72.7
801.614	125.95
801.794	89.09
801.974	271.36
802.154	93.18
802.334	138.24
802.514	117.76
802.693	107.52
802.873	64.51
803.053	105.47
803.233	52.22
803.413	97.28
803.592	148.48
803.772	82.94
803.952	80.89
804.131	123.9
804.311	140.29
804.491	56.32
804.67	70.65
804.85	214.01
805.03	60.42
805.209	82.94
805.389	35.84
805.568	101.37
805.748	115.71
805.928	99.33
806.107	121.85
806.287	78.85
806.466	99.33
806.646	103.42
806.825	60.42
807.004	46.08
807.184	21.5
807.363	82.94
807.543	134.14
807.722	31.74
807.901	41.98
808.081	201.72
808.26	84.99
808.439	39.94
808.619	66.56
808.798	164.86
808.977	93.18
809.156	70.65
809.336	82.94
809.515	33.79
809.694	84.99
809.873	17.41
810.052	82.94
810.231	148.48
810.411	13.31
810.59	72.7
810.769	78.85
810.948	111.61
811.127	39.94
811.306	68.61
811.485	121.85
811.664	78.85
811.843	84.99
812.022	99.33
812.201	72.7
812.38	82.94
812.559	48.13
812.737	78.85
812.916	109.57
813.095	66.56
813.274	70.65
813.453	80.89
813.632	-19.46
813.811	62.46
813.989	44.03
814.168	78.85
814.347	89.09
814.526	113.66
814.704	1.02
814.883	82.94
815.062	25.6
815.24	95.23
815.419	160.77
815.598	62.46
815.776	89.09
815.955	66.56
816.133	-21.5
816.312	99.33
816.49	60.42
816.669	111.61
816.847	99.33
817.026	103.42
817.204	72.7
817.383	11.26
817.561	150.53
817.74	23.55
817.918	50.18
818.097	52.22
818.275	13.31
818.453	-19.46
818.632	64.51
818.81	54.27
818.988	54.27
819.167	54.27
819.345	35.84
819.523	56.32
819.701	89.09
819.879	60.42
820.058	31.74
820.236	64.51
820.414	91.13
820.592	35.84
820.77	84.99
820.948	78.85
821.127	31.74
821.305	60.42
821.483	7.17
821.661	93.18
821.839	-1.02
822.017	152.57
822.195	-17.41
822.373	23.55
822.551	37.89
822.729	72.7
822.907	48.13
823.085	54.27
823.262	9.22
823.44	56.32
823.618	44.03
823.796	62.46
823.974	66.56
824.152	58.37
824.329	82.94
824.507	-23.55
824.685	74.75
824.863	52.22
825.04	19.46
825.218	7.17
825.396	74.75
825.574	84.99
825.751	-9.22
825.929	-3.07
826.107	-1.02
826.284	19.46
826.462	39.94
826.639	21.5
826.817	9.22
826.994	35.84
827.172	48.13
827.349	82.94
827.527	-11.26
827.704	-11.26
827.882	107.52
828.059	39.94
828.237	11.26
828.414	105.47
828.591	-3.07
828.769	56.32
828.946	82.94
829.124	39.94
829.301	-5.12
829.478	-3.07
829.655	21.5
829.833	66.56
830.01	58.37
830.187	52.22
830.364	19.46
830.542	58.37
830.719	37.89
830.896	17.41
831.073	89.09
831.25	56.32
831.427	25.6
831.604	29.7
831.782	60.42
831.959	54.27
832.136	-52.22
832.313	52.22
832.49	15.36
832.667	35.84
832.844	-48.13
833.021	70.65
833.198	25.6
833.374	56.32
833.551	-23.55
833.728	117.76
833.905	9.22
834.082	50.18
834.259	60.42
834.436	-56.32
834.612	-11.26
834.789	41.98
834.966	5.12
835.143	33.79
835.319	58.37
835.496	3.07
835.673	21.5
835.85	-7.17
836.026	103.42
836.203	-7.17
836.38	17.41
836.556	23.55
836.733	19.46
836.909	5.12
837.086	-21.5
837.262	35.84
837.439	-5.12
837.616	-23.55
837.792	-50.18
837.968	66.56
838.145	17.41
838.321	-68.61
838.498	50.18
838.674	60.42
838.851	-15.36
839.027	64.51
839.203	-15.36
839.38	60.42
839.556	72.7
839.732	17.41
839.909	-9.22
840.085	-1.02
840.261	-31.74
840.437	41.98
840.614	-37.89
840.79	9.22
840.966	-48.13
841.142	54.27
841.318	-11.26
841.494	-19.46
841.671	17.41
841.847	21.5
842.023	-27.65
842.199	5.12
842.375	35.84
842.551	27.65
842.727	-15.36
842.903	-25.6
843.079	44.03
843.255	-44.03
843.431	23.55
843.607	-21.5
843.783	76.8
843.959	37.89
844.134	-3.07
844.31	-33.79
844.486	-11.26
844.662	-11.26
844.838	7.17
845.013	52.22
845.189	-60.42
845.365	-41.98
845.541	-25.6
845.716	13.31
845.892	25.6
846.068	29.7
846.244	-39.94
846.419	19.46
846.595	-17.41
846.77	-3.07
846.946	-7.17
847.122	3.07
847.297	-13.31
847.473	-5.12
847.648	-23.55
847.824	44.03
847.999	-52.22
848.175	1.02
848.35	21.5
848.526	37.89
848.701	-52.22
848.876	19.46
849.052	91.13
849.227	48.13
849.403	50.18
849.578	54.27
849.753	-27.65
849.929	1.02
850.104	-54.27
850.279	72.7
850.454	27.65
850.63	46.08
850.805	-72.7
850.98	-44.03
851.155	23.55
851.33	101.37
851.505	-17.41
851.681	58.37
851.856	1.02
852.031	64.51
852.206	-33.79
852.381	19.46
852.556	-13.31
852.731	7.17
852.906	3.07
853.081	56.32
853.256	-60.42
853.431	25.6
853.606	23.55
853.781	31.74
853.956	-29.7
854.131	25.6
854.305	37.89
854.48	62.46
854.655	33.79
854.83	-50.18
855.005	48.13
855.18	-23.55
855.354	17.41
855.529	19.46
855.704	-33.79
855.879	5.12
856.053	-3.07
856.228	64.51
856.403	52.22
856.577	9.22
856.752	31.74
856.926	-35.84
857.101	60.42
857.276	25.6
857.45	27.65
857.625	7.17
857.799	19.46
857.974	58.37
858.148	-7.17
858.323	58.37
858.497	1.02
858.672	7.17
858.846	64.51
859.02	13.31
859.195	-11.26
859.369	-13.31
859.543	-44.03
859.718	17.41
859.892	39.94
860.066	27.65
860.241	-15.36
860.415	3.07
860.589	66.56
860.763	41.98
860.938	-3.07
861.112	-33.79
861.286	5.12
861.46	39.94
861.634	52.22
861.808	-58.37
861.982	46.08
862.157	-27.65
862.331	-27.65
862.505	-25.6
862.679	-27.65
862.853	3.07
863.027	62.46
863.201	-50.18
863.375	-99.33
863.549	52.22
863.722	-48.13
863.896	56.32
864.07	-3.07
864.244	-9.22
864.418	9.22
864.592	37.89
864.766	-1.02
864.939	101.37
865.113	13.31
865.287	-52.22
865.461	-58.37
865.634	-31.74
865.808	-44.03
865.982	27.65
866.156	31.74
866.329	5.12
866.503	13.31
866.676	23.55
866.85	-33.79
867.024	-27.65
867.197	-31.74
867.371	19.46
867.544	-60.42
867.718	-72.7
867.891	-35.84
868.065	-9.22
868.238	9.22
868.412	1.02
868.585	21.5
868.759	-1.02
868.932	-13.31
869.105	60.42
869.279	3.07
869.452	-31.74
869.625	-37.89
869.799	17.41
869.972	3.07
870.145	-5.12
870.319	-7.17
870.492	29.7
870.665	-13.31
870.838	-76.8
871.011	74.75
871.185	21.5
871.358	-15.36
871.531	101.37
871.704	-23.55
871.877	-11.26
872.05	-25.6
872.223	52.22
872.396	27.65
872.569	35.84
872.742	-68.61
872.915	37.89
873.088	11.26
873.261	-25.6
873.434	27.65
873.607	-17.41
873.78	39.94
873.953	19.46
874.126	13.31
874.299	80.89
874.471	46.08
874.644	-27.65
874.817	41.98
874.99	-66.56
875.163	19.46
875.335	3.07
875.508	7.17
875.681	39.94
875.853	17.41
876.026	29.7
876.199	33.79
876.371	-31.74
876.544	-37.89
876.717	7.17
876.889	-58.37
877.062	-72.7
877.234	-52.22
877.407	9.22
877.579	-23.55
877.752	5.12
877.924	-11.26
878.097	17.41
878.269	3.07
878.442	-9.22
878.614	35.84
878.786	7.17
878.959	-17.41
879.131	50.18
879.303	13.31
879.476	56.32
879.648	9.22
879.82	-9.22
879.993	-39.94
880.165	31.74
880.337	-5.12
880.509	13.31
880.681	-15.36
880.854	-35.84
881.026	11.26
881.198	-23.55
881.37	56.32
881.542	17.41
881.714	-58.37
881.886	62.46
882.058	-1.02
882.23	-7.17
882.402	-64.51
882.574	52.22
882.746	21.5
882.918	19.46
883.09	37.89
883.262	29.7
883.434	-39.94
883.606	33.79
883.778	-19.46
883.95	5.12
884.122	13.31
884.293	17.41
884.465	-52.22
884.637	-39.94
884.809	29.7
884.98	-1.02
885.152	-60.42
885.324	15.36
885.496	-11.26
885.667	-19.46
885.839	-68.61
886.011	11.26
886.182	-31.74
886.354	-21.5
886.525	-44.03
886.697	25.6
886.869	-39.94
887.04	60.42
887.212	11.26
887.383	-68.61
887.555	-44.03
887.726	76.8
887.897	29.7
888.069	-5.12
888.24	-37.89
888.412	-58.37
888.583	-27.65
888.754	7.17
888.926	-15.36
889.097	-62.46
889.268	-56.32
889.44	13.31
889.611	35.84
889.782	44.03
889.953	7.17
890.125	15.36
890.296	-11.26
890.467	-11.26
890.638	58.37
890.809	-50.18
890.98	-29.7
891.151	52.22
891.323	-9.22
891.494	3.07
891.665	46.08
891.836	19.46
892.007	-68.61
892.178	-25.6
892.349	-44.03
892.52	-37.89
892.691	41.98
892.862	-52.22
893.032	-101.37
893.203	3.07
893.374	5.12
893.545	5.12
893.716	-21.5
893.887	-25.6
894.057	-70.65
894.228	9.22
894.399	-52.22
894.57	60.42
894.74	23.55
894.911	33.79
895.082	-35.84
895.253	-64.51
895.423	-33.79
895.594	-9.22
895.764	39.94
895.935	-3.07
896.106	-15.36
896.276	-17.41
896.447	-23.55
896.617	29.7
896.788	9.22
896.958	19.46
897.129	-37.89
897.299	35.84
897.47	-23.55
897.64	15.36
897.81	11.26
897.981	7.17
898.151	-17.41
898.322	-21.5
898.492	-31.74
898.662	-3.07
898.832	-50.18
899.003	-5.12
899.173	89.09
899.343	15.36
899.513	-9.22
