Data from USB4F104151__29__13-52-44-562.txt Node

Date: Thu Mar 13 13:52:44 EDT 2025
User: louis
Spectrometer: USB4F10415
Trigger mode: 4
Integration Time (sec): 1.000000E-2
Scans to average: 1
Electric dark correction enabled: true
Nonlinearity correction enabled: false
Boxcar width: 0
XAxis mode: Wavelengths
Number of Pixels in Spectrum: 3648
>>>>>Begin Spectral Data<<<<<
178.204	36.52
178.424	36.52
178.644	36.52
178.864	-119.12
179.084	-47.44
179.304	1.71
179.524	-10.58
179.744	5.8
179.964	5.8
180.184	54.95
180.404	75.43
180.624	1.71
180.844	13.99
181.064	3.75
181.283	-39.25
181.503	-55.64
181.723	-57.68
181.943	-18.77
182.163	5.8
182.383	16.04
182.602	-37.2
182.822	7.85
183.042	3.75
183.262	-45.4
183.482	71.34
183.701	3.75
183.921	-29.01
184.141	20.14
184.361	20.14
184.58	-0.34
184.8	9.9
185.02	-14.68
185.239	40.62
185.459	44.71
185.679	-12.63
185.898	65.19
186.118	44.71
186.338	13.99
186.557	59.05
186.777	48.81
186.997	22.19
187.216	59.05
187.436	-45.4
187.655	87.72
187.875	-35.16
188.095	-39.25
188.314	11.95
188.534	9.9
188.753	36.52
188.973	50.86
189.192	34.47
189.412	44.71
189.631	-31.06
189.851	-67.92
190.07	63.15
190.29	7.85
190.509	65.19
190.729	-4.44
190.948	46.76
191.168	5.8
191.387	42.67
191.607	-41.3
191.826	7.85
192.045	-43.35
192.265	69.29
192.484	-0.34
192.704	5.8
192.923	5.8
193.142	18.09
193.362	42.67
193.581	11.95
193.8	95.91
194.02	57
194.239	24.23
194.458	89.77
194.678	52.91
194.897	20.14
195.116	13.99
195.335	1.71
195.555	-39.25
195.774	9.9
195.993	-76.12
196.212	13.99
196.432	24.23
196.651	-37.2
196.87	1.71
197.089	69.29
197.308	9.9
197.528	36.52
197.747	-2.39
197.966	50.86
198.185	75.43
198.404	-0.34
198.623	-0.34
198.842	36.52
199.062	-12.63
199.281	44.71
199.5	30.38
199.719	30.38
199.938	18.09
200.157	-0.34
200.376	79.53
200.595	28.33
200.814	-65.88
201.033	40.62
201.252	-16.73
201.471	52.91
201.69	75.43
201.909	85.67
202.128	77.48
202.347	-57.68
202.566	18.09
202.785	40.62
203.004	52.91
203.223	75.43
203.442	50.86
203.661	-20.82
203.879	50.86
204.098	36.52
204.317	-10.58
204.536	42.67
204.755	-37.2
204.974	34.47
205.193	9.9
205.411	-18.77
205.63	54.95
205.849	9.9
206.068	-10.58
206.287	50.86
206.505	61.1
206.724	-26.96
206.943	5.8
207.162	-2.39
207.381	9.9
207.599	26.28
207.818	-4.44
208.037	9.9
208.255	-10.58
208.474	20.14
208.693	46.76
208.911	-0.34
209.13	57
209.349	87.72
209.567	-24.92
209.786	26.28
210.005	75.43
210.223	5.8
210.442	-24.92
210.661	-6.49
210.879	-33.11
211.098	22.19
211.316	36.52
211.535	32.43
211.753	-6.49
211.972	-47.44
212.191	69.29
212.409	52.91
212.628	-6.49
212.846	-22.87
213.065	-4.44
213.283	9.9
213.502	-14.68
213.72	24.23
213.938	61.1
214.157	61.1
214.375	18.09
214.594	44.71
214.812	11.95
215.031	69.29
215.249	20.14
215.467	81.58
215.686	5.8
215.904	38.57
216.122	22.19
216.341	18.09
216.559	34.47
216.778	48.81
216.996	3.75
217.214	-8.53
217.432	30.38
217.651	-2.39
217.869	38.57
218.087	-2.39
218.306	-33.11
218.524	-35.16
218.742	13.99
218.96	38.57
219.179	20.14
219.397	75.43
219.615	-2.39
219.833	-29.01
220.051	-24.92
220.27	40.62
220.488	28.33
220.706	54.95
220.924	24.23
221.142	-16.73
221.36	54.95
221.578	13.99
221.796	-6.49
222.015	30.38
222.233	22.19
222.451	46.76
222.669	1.71
222.887	46.76
223.105	73.39
223.323	1.71
223.541	52.91
223.759	16.04
223.977	-10.58
224.195	-8.53
224.413	38.57
224.631	22.19
224.849	-24.92
225.067	24.23
225.285	46.76
225.503	52.91
225.721	18.09
225.939	36.52
226.157	24.23
226.375	71.34
226.592	22.19
226.81	3.75
227.028	83.63
227.246	24.23
227.464	24.23
227.682	40.62
227.9	1.71
228.117	46.76
228.335	-14.68
228.553	28.33
228.771	57
228.989	1.71
229.206	42.67
229.424	26.28
229.642	-72.02
229.86	83.63
230.077	7.85
230.295	22.19
230.513	-2.39
230.731	44.71
230.948	-0.34
231.166	42.67
231.384	7.85
231.601	54.95
231.819	65.19
232.037	-12.63
232.254	67.24
232.472	22.19
232.689	1.71
232.907	-55.64
233.125	36.52
233.342	-6.49
233.56	42.67
233.777	100.01
233.995	-10.58
234.213	46.76
234.43	-26.96
234.648	79.53
234.865	20.14
235.083	-12.63
235.3	16.04
235.518	65.19
235.735	40.62
235.953	-24.92
236.17	-4.44
236.388	-20.82
236.605	44.71
236.822	18.09
237.04	9.9
237.257	16.04
237.475	24.23
237.692	3.75
237.909	65.19
238.127	18.09
238.344	26.28
238.562	-0.34
238.779	48.81
238.996	-6.49
239.214	7.85
239.431	18.09
239.648	11.95
239.865	50.86
240.083	-6.49
240.3	-31.06
240.517	34.47
240.735	-8.53
240.952	16.04
241.169	-16.73
241.386	97.96
241.603	-35.16
241.821	-82.26
242.038	16.04
242.255	-16.73
242.472	-39.25
242.689	13.99
242.907	30.38
243.124	-10.58
243.341	-31.06
243.558	18.09
243.775	-20.82
243.992	-2.39
244.209	7.85
244.426	61.1
244.643	87.72
244.86	28.33
245.078	77.48
245.295	-10.58
245.512	-22.87
245.729	50.86
245.946	9.9
246.163	-41.3
246.38	54.95
246.597	28.33
246.814	-45.4
247.031	-8.53
247.248	36.52
247.464	18.09
247.681	-16.73
247.898	57
248.115	-4.44
248.332	63.15
248.549	-4.44
248.766	73.39
248.983	-41.3
249.2	1.71
249.417	54.95
249.633	91.82
249.85	-0.34
250.067	-49.49
250.284	9.9
250.501	63.15
250.717	95.91
250.934	1.71
251.151	28.33
251.368	-4.44
251.585	54.95
251.801	46.76
252.018	26.28
252.235	28.33
252.451	-37.2
252.668	24.23
252.885	-6.49
253.102	-37.2
253.318	59.05
253.535	26.28
253.752	5.8
253.968	91.82
254.185	-6.49
254.401	52.91
254.618	-22.87
254.835	71.34
255.051	26.28
255.268	-78.16
255.484	28.33
255.701	-59.73
255.917	69.29
256.134	-31.06
256.351	-2.39
256.567	59.05
256.784	52.91
257	40.62
257.217	3.75
257.433	32.43
257.65	46.76
257.866	-33.11
258.082	16.04
258.299	50.86
258.515	-10.58
258.732	32.43
258.948	69.29
259.165	-26.96
259.381	48.81
259.597	22.19
259.814	63.15
260.03	-31.06
260.246	50.86
260.463	91.82
260.679	1.71
260.895	-69.97
261.112	48.81
261.328	52.91
261.544	54.95
261.761	46.76
261.977	5.8
262.193	34.47
262.409	38.57
262.626	38.57
262.842	16.04
263.058	-6.49
263.274	59.05
263.49	-16.73
263.707	38.57
263.923	20.14
264.139	-4.44
264.355	20.14
264.571	18.09
264.787	77.48
265.004	-10.58
265.22	24.23
265.436	5.8
265.652	52.91
265.868	34.47
266.084	-2.39
266.3	28.33
266.516	-43.35
266.732	38.57
266.948	-31.06
267.164	91.82
267.38	-4.44
267.596	61.1
267.812	36.52
268.028	22.19
268.244	36.52
268.46	59.05
268.676	-4.44
268.892	-2.39
269.108	57
269.324	54.95
269.54	63.15
269.756	77.48
269.972	46.76
270.188	-6.49
270.403	18.09
270.619	34.47
270.835	73.39
271.051	118.44
271.267	-18.77
271.483	3.75
271.698	22.19
271.914	13.99
272.13	5.8
272.346	83.63
272.562	-14.68
272.777	67.24
272.993	-0.34
273.209	-4.44
273.425	-43.35
273.64	1.71
273.856	1.71
274.072	48.81
274.287	73.39
274.503	104.11
274.719	24.23
274.934	-8.53
275.15	-26.96
275.366	38.57
275.581	50.86
275.797	-2.39
276.012	52.91
276.228	-22.87
276.444	61.1
276.659	85.67
276.875	-20.82
277.09	57
277.306	5.8
277.521	52.91
277.737	-2.39
277.952	26.28
278.168	5.8
278.383	34.47
278.599	-4.44
278.814	77.48
279.03	13.99
279.245	28.33
279.461	75.43
279.676	71.34
279.892	3.75
280.107	32.43
280.322	-67.92
280.538	1.71
280.753	-20.82
280.969	16.04
281.184	-4.44
281.399	20.14
281.615	50.86
281.83	69.29
282.045	36.52
282.26	13.99
282.476	18.09
282.691	67.24
282.906	13.99
283.122	32.43
283.337	-20.82
283.552	5.8
283.767	32.43
283.983	75.43
284.198	-82.26
284.413	71.34
284.628	3.75
284.843	79.53
285.058	48.81
285.274	65.19
285.489	59.05
285.704	-41.3
285.919	5.8
286.134	34.47
286.349	16.04
286.564	26.28
286.779	93.87
286.995	61.1
287.21	20.14
287.425	95.91
287.64	-61.78
287.855	11.95
288.07	9.9
288.285	110.25
288.5	61.1
288.715	30.38
288.93	16.04
289.145	57
289.36	71.34
289.575	-12.63
289.79	-26.96
290.004	-8.53
290.219	28.33
290.434	-31.06
290.649	57
290.864	36.52
291.079	26.28
291.294	-24.92
291.509	65.19
291.724	54.95
291.938	-6.49
292.153	18.09
292.368	20.14
292.583	75.43
292.798	85.67
293.012	-0.34
293.227	5.8
293.442	91.82
293.657	11.95
293.871	40.62
294.086	28.33
294.301	-8.53
294.516	22.19
294.73	-6.49
294.945	-6.49
295.16	57
295.374	65.19
295.589	-47.44
295.804	-4.44
296.018	54.95
296.233	50.86
296.447	42.67
296.662	18.09
296.877	34.47
297.091	-18.77
297.306	30.38
297.52	38.57
297.735	24.23
297.949	-0.34
298.164	73.39
298.378	-18.77
298.593	44.71
298.807	38.57
299.022	65.19
299.236	-2.39
299.451	95.91
299.665	-22.87
299.88	-2.39
300.094	48.81
300.309	18.09
300.523	54.95
300.737	34.47
300.952	-0.34
301.166	34.47
301.381	77.48
301.595	9.9
301.809	-22.87
302.024	32.43
302.238	40.62
302.452	16.04
302.667	40.62
302.881	30.38
303.095	71.34
303.309	-47.44
303.524	83.63
303.738	-22.87
303.952	61.1
304.166	67.24
304.381	7.85
304.595	38.57
304.809	-12.63
305.023	13.99
305.237	28.33
305.452	11.95
305.666	16.04
305.88	65.19
306.094	16.04
306.308	28.33
306.522	63.15
306.736	-31.06
306.95	7.85
307.164	-35.16
307.379	63.15
307.593	-2.39
307.807	-0.34
308.021	38.57
308.235	77.48
308.449	36.52
308.663	71.34
308.877	104.11
309.091	11.95
309.305	40.62
309.519	7.85
309.733	40.62
309.947	22.19
310.161	32.43
310.374	28.33
310.588	75.43
310.802	-29.01
311.016	-37.2
311.23	97.96
311.444	38.57
311.658	79.53
311.872	77.48
312.085	1.71
312.299	81.58
312.513	73.39
312.727	44.71
312.941	-14.68
313.154	-4.44
313.368	-69.97
313.582	59.05
313.796	30.38
314.009	-33.11
314.223	5.8
314.437	46.76
314.651	28.33
314.864	3.75
315.078	42.67
315.292	26.28
315.505	1.71
315.719	11.95
315.933	100.01
316.146	-24.92
316.36	20.14
316.573	44.71
316.787	63.15
317.001	11.95
317.214	-26.96
317.428	30.38
317.641	26.28
317.855	18.09
318.068	-43.35
318.282	61.1
318.495	-22.87
318.709	112.3
318.922	9.9
319.136	28.33
319.349	26.28
319.563	22.19
319.776	-4.44
319.99	59.05
320.203	32.43
320.417	-0.34
320.63	7.85
320.843	20.14
321.057	-41.3
321.27	83.63
321.483	-8.53
321.697	22.19
321.91	-29.01
322.124	46.76
322.337	67.24
322.55	65.19
322.763	42.67
322.977	28.33
323.19	-8.53
323.403	57
323.617	22.19
323.83	77.48
324.043	-39.25
324.256	67.24
324.469	20.14
324.683	3.75
324.896	48.81
325.109	40.62
325.322	-12.63
325.535	93.87
325.748	-12.63
325.962	-69.97
326.175	-18.77
326.388	59.05
326.601	7.85
326.814	26.28
327.027	54.95
327.24	50.86
327.453	38.57
327.666	-10.58
327.879	71.34
328.092	36.52
328.305	42.67
328.518	48.81
328.731	-18.77
328.944	44.71
329.157	34.47
329.37	65.19
329.583	-14.68
329.796	20.14
330.009	11.95
330.222	-16.73
330.435	-8.53
330.648	54.95
330.861	65.19
331.073	85.67
331.286	95.91
331.499	75.43
331.712	3.75
331.925	48.81
332.138	-0.34
332.35	-12.63
332.563	-10.58
332.776	16.04
332.989	-10.58
333.202	59.05
333.414	75.43
333.627	52.91
333.84	63.15
334.053	24.23
334.265	9.9
334.478	46.76
334.691	-0.34
334.903	20.14
335.116	75.43
335.329	75.43
335.541	-16.73
335.754	57
335.966	9.9
336.179	30.38
336.392	34.47
336.604	73.39
336.817	77.48
337.029	13.99
337.242	32.43
337.454	32.43
337.667	-10.58
337.88	-18.77
338.092	28.33
338.305	38.57
338.517	34.47
338.729	77.48
338.942	71.34
339.154	36.52
339.367	36.52
339.579	-16.73
339.792	24.23
340.004	83.63
340.217	40.62
340.429	106.15
340.641	18.09
340.854	-33.11
341.066	24.23
341.278	44.71
341.491	57
341.703	75.43
341.915	-29.01
342.128	61.1
342.34	22.19
342.552	-63.83
342.764	34.47
342.977	26.28
343.189	26.28
343.401	32.43
343.613	42.67
343.826	106.15
344.038	48.81
344.25	13.99
344.462	65.19
344.674	65.19
344.886	87.72
345.099	3.75
345.311	42.67
345.523	52.91
345.735	-16.73
345.947	34.47
346.159	11.95
346.371	48.81
346.583	50.86
346.795	36.52
347.007	24.23
347.219	97.96
347.431	63.15
347.643	52.91
347.855	11.95
348.067	3.75
348.279	65.19
348.491	1.71
348.703	54.95
348.915	18.09
349.127	54.95
349.339	9.9
349.551	-29.01
349.763	18.09
349.975	30.38
350.187	32.43
350.399	20.14
350.61	18.09
350.822	-39.25
351.034	32.43
351.246	65.19
351.458	-22.87
351.669	67.24
351.881	-16.73
352.093	75.43
352.305	24.23
352.517	3.75
352.728	77.48
352.94	38.57
353.152	36.52
353.363	-22.87
353.575	104.11
353.787	13.99
353.999	42.67
354.21	54.95
354.422	24.23
354.633	89.77
354.845	77.48
355.057	-0.34
355.268	-0.34
355.48	28.33
355.692	52.91
355.903	26.28
356.115	71.34
356.326	54.95
356.538	65.19
356.749	16.04
356.961	3.75
357.172	-2.39
357.384	52.91
357.595	36.52
357.807	52.91
358.018	-37.2
358.23	24.23
358.441	118.44
358.653	24.23
358.864	16.04
359.075	-14.68
359.287	5.8
359.498	20.14
359.709	95.91
359.921	65.19
360.132	34.47
360.344	30.38
360.555	1.71
360.766	34.47
360.977	1.71
361.189	93.87
361.4	28.33
361.611	20.14
361.823	57
362.034	26.28
362.245	-4.44
362.456	26.28
362.667	22.19
362.879	75.43
363.09	102.06
363.301	1.71
363.512	95.91
363.723	112.3
363.935	5.8
364.146	30.38
364.357	22.19
364.568	93.87
364.779	-53.59
364.99	120.49
365.201	59.05
365.412	36.52
365.623	69.29
365.834	16.04
366.045	87.72
366.256	59.05
366.467	75.43
366.678	-18.77
366.889	36.52
367.1	34.47
367.311	36.52
367.522	26.28
367.733	34.47
367.944	63.15
368.155	22.19
368.366	44.71
368.577	61.1
368.788	34.47
368.999	18.09
369.209	24.23
369.42	30.38
369.631	85.67
369.842	-4.44
370.053	65.19
370.264	42.67
370.474	54.95
370.685	18.09
370.896	48.81
371.107	97.96
371.317	36.52
371.528	57
371.739	38.57
371.95	18.09
372.16	26.28
372.371	-45.4
372.582	32.43
372.792	52.91
373.003	3.75
373.214	69.29
373.424	26.28
373.635	-47.44
373.846	124.58
374.056	1.71
374.267	50.86
374.477	7.85
374.688	48.81
374.898	124.58
375.109	81.58
375.319	32.43
375.53	-12.63
375.74	18.09
375.951	63.15
376.161	54.95
376.372	69.29
376.582	77.48
376.793	-8.53
377.003	106.15
377.214	112.3
377.424	18.09
377.635	104.11
377.845	24.23
378.055	91.82
378.266	1.71
378.476	50.86
378.686	-29.01
378.897	57
379.107	95.91
379.317	20.14
379.528	40.62
379.738	32.43
379.948	11.95
380.158	-0.34
380.369	32.43
380.579	50.86
380.789	40.62
380.999	34.47
381.21	67.24
381.42	63.15
381.63	67.24
381.84	13.99
382.05	16.04
382.261	87.72
382.471	11.95
382.681	24.23
382.891	108.2
383.101	91.82
383.311	63.15
383.521	26.28
383.731	52.91
383.941	73.39
384.151	63.15
384.361	16.04
384.571	93.87
384.781	-61.78
384.991	104.11
385.201	28.33
385.411	71.34
385.621	48.81
385.831	20.14
386.041	32.43
386.251	36.52
386.461	13.99
386.671	77.48
386.881	28.33
387.091	34.47
387.301	79.53
387.511	20.14
387.72	1.71
387.93	95.91
388.14	-47.44
388.35	36.52
388.56	54.95
388.769	67.24
388.979	54.95
389.189	9.9
389.399	32.43
389.609	93.87
389.818	93.87
390.028	24.23
390.238	7.85
390.447	-18.77
390.657	32.43
390.867	3.75
391.076	59.05
391.286	44.71
391.496	52.91
391.705	54.95
391.915	32.43
392.125	108.2
392.334	67.24
392.544	-16.73
392.753	79.53
392.963	30.38
393.172	116.39
393.382	67.24
393.591	106.15
393.801	42.67
394.01	163.5
394.22	106.15
394.429	106.15
394.639	67.24
394.848	63.15
395.058	9.9
395.267	44.71
395.477	71.34
395.686	81.58
395.895	93.87
396.105	46.76
396.314	54.95
396.524	-0.34
396.733	48.81
396.942	116.39
397.152	145.06
397.361	145.06
397.57	65.19
397.78	69.29
397.989	124.58
398.198	128.68
398.407	134.82
398.617	100.01
398.826	83.63
399.035	108.2
399.244	36.52
399.453	73.39
399.663	50.86
399.872	59.05
400.081	112.3
400.29	106.15
400.499	7.85
400.708	89.77
400.917	112.3
401.127	65.19
401.336	83.63
401.545	143.02
401.754	100.01
401.963	140.97
402.172	48.81
402.381	65.19
402.59	116.39
402.799	143.02
403.008	48.81
403.217	77.48
403.426	30.38
403.635	75.43
403.844	69.29
404.053	112.3
404.262	153.26
404.471	52.91
404.68	128.68
404.888	79.53
405.097	87.72
405.306	100.01
405.515	138.92
405.724	38.57
405.933	149.16
406.142	169.64
406.35	95.91
406.559	87.72
406.768	179.88
406.977	259.75
407.185	128.68
407.394	175.78
407.603	147.11
407.812	208.55
408.02	173.74
408.229	138.92
408.438	147.11
408.646	134.82
408.855	153.26
409.064	218.79
409.272	204.46
409.481	304.81
409.69	190.12
409.898	235.18
410.107	255.65
410.315	276.13
410.524	181.93
410.733	190.12
410.941	192.17
411.15	306.85
411.358	294.57
411.567	308.9
411.775	292.52
411.984	310.95
412.192	282.28
412.401	390.82
412.609	356.01
412.818	442.02
413.026	280.23
413.234	302.76
413.443	456.36
413.651	353.96
413.86	399.01
414.068	509.6
414.276	429.73
414.485	446.12
414.693	505.51
414.901	423.59
415.11	564.9
415.318	589.47
415.526	497.32
415.734	548.51
415.943	507.55
416.151	546.47
416.359	636.58
416.567	620.19
416.776	698.02
416.984	603.81
417.192	595.62
417.4	759.46
417.608	712.35
417.817	730.78
418.025	753.31
418.233	837.28
418.441	753.31
418.649	921.24
418.857	890.53
419.065	865.95
419.273	931.48
419.481	970.4
419.689	947.87
419.897	1078.94
420.105	1107.61
420.313	1095.32
420.521	1111.71
420.729	1154.71
420.937	1263.26
421.145	1300.12
421.353	1253.02
421.561	1435.28
421.769	1427.09
421.977	1408.66
422.185	1365.65
422.393	1500.82
422.601	1525.4
422.809	1629.84
423.017	1521.3
423.224	1588.88
423.432	1746.58
423.64	1832.59
423.848	1945.23
424.056	1814.16
424.263	2031.24
424.471	2029.2
424.679	2115.21
424.887	2322.06
425.094	2252.42
425.302	2135.69
425.51	2279.05
425.718	2518.66
425.925	2440.84
426.133	2602.63
426.341	2580.1
426.548	2764.42
426.756	2813.57
426.964	2858.62
427.171	2870.91
427.379	3165.82
427.586	3221.11
427.794	3069.56
428.001	3329.66
428.209	3554.93
428.417	3403.38
428.624	3653.23
428.832	3589.75
429.039	3702.39
429.247	3548.79
429.454	4038.25
429.662	4327.02
429.869	3937.9
430.076	4329.06
430.284	4120.17
430.491	4347.5
430.699	4593.25
430.906	4478.57
431.114	4589.16
431.321	4787.81
431.528	4961.89
431.736	5195.36
431.943	5531.22
432.15	5205.6
432.358	5324.38
432.565	5555.8
432.772	5525.08
432.979	6012.49
433.187	6002.26
433.394	6116.94
433.601	6516.3
433.808	6440.52
434.016	6409.8
434.223	6573.64
434.43	7083.58
434.637	6823.49
434.844	7360.06
435.052	7568.95
435.259	7556.66
435.466	7550.52
435.673	7468.6
435.88	7800.37
436.087	8214.06
436.294	8367.66
436.501	8240.68
436.708	8367.66
436.915	8578.6
437.122	8971.81
437.329	8982.05
437.537	9221.66
437.743	9317.92
437.95	9201.18
438.157	9743.89
438.364	10337.8
438.571	10163.73
438.778	10190.35
438.985	11210.24
439.192	10673.67
439.399	11138.56
439.606	10905.09
439.813	11386.36
440.02	12078.58
440.227	11967.99
440.433	11974.13
440.64	12109.3
440.847	12090.87
441.054	12377.58
441.261	13174.24
441.467	12965.35
441.674	13485.53
441.881	13989.33
442.088	13909.46
442.294	13891.03
442.501	14052.82
442.708	14224.85
442.914	15031.75
443.121	15689.15
443.328	15162.82
443.534	16127.41
443.741	15576.51
443.948	15730.11
444.154	16590.25
444.361	16502.19
444.568	16655.79
444.774	16868.78
444.981	16917.93
445.187	17444.26
445.394	18077.08
445.6	17921.43
445.807	20026.75
446.013	18550.16
446.22	19008.9
446.426	19764.61
446.633	19977.59
446.839	20807.02
447.046	19944.83
447.252	20651.38
447.459	20981.1
447.665	20581.74
447.871	21785.95
448.078	22691.15
448.284	21812.57
448.491	22209.88
448.697	23227.72
448.903	23577.92
449.11	23551.3
449.316	23149.9
449.522	23610.69
449.728	24343.86
449.935	24356.15
450.141	24134.97
450.347	24771.89
450.553	23833.92
450.76	24159.55
450.966	24784.18
451.172	24694.07
451.378	25746.72
451.584	24966.45
451.791	25312.55
451.997	25216.3
452.203	25797.92
452.409	25959.71
452.615	25564.45
452.821	24636.72
453.027	24479.03
453.233	25713.95
453.44	24638.77
453.646	25204.01
453.852	24814.9
454.058	25759.01
454.264	24476.98
454.47	25238.83
454.676	24524.08
454.882	25347.37
455.088	22949.2
455.294	23399.75
455.5	23479.62
455.705	23901.5
455.911	23010.64
456.117	22474.07
456.323	22343
456.529	21108.07
456.735	22166.87
456.941	21396.84
457.147	20899.18
457.352	20311.41
457.558	20020.6
457.764	20299.12
457.97	19975.55
458.176	19221.89
458.381	19520.9
458.587	18421.14
458.793	18337.17
458.999	17526.18
459.204	18595.21
459.41	18062.74
459.616	17102.25
459.821	16997.8
460.027	17028.52
460.233	16713.13
460.438	15547.84
460.644	15801.79
460.85	15216.07
461.055	14824.9
461.261	14790.09
461.466	13860.31
461.672	13209.06
461.878	14517.71
462.083	13575.64
462.289	13063.65
462.494	13096.42
462.7	12680.68
462.905	12117.49
463.111	12680.68
463.316	12697.06
463.522	12422.64
463.727	12660.2
463.932	12420.59
464.138	12146.16
464.343	12396.01
464.549	12119.54
464.754	12451.31
464.959	12293.62
465.165	12273.14
465.37	11599.35
465.575	11410.94
465.781	11857.4
465.986	11953.65
466.191	11437.56
466.397	11304.45
466.602	10792.45
466.807	11052.55
467.012	11191.81
467.218	11017.73
467.423	10944
467.628	10913.28
467.833	11386.36
468.038	10882.56
468.244	10716.68
468.449	11183.62
468.654	10827.27
468.859	10909.19
469.064	10819.08
469.269	10270.22
469.474	10225.17
469.679	10481.16
469.885	10198.54
470.09	10274.32
470.295	10159.63
470.5	10133.01
470.705	9909.78
470.91	9813.52
471.115	9831.96
471.32	9752.09
471.525	9834
471.73	9778.71
471.935	9578.01
472.139	9307.68
472.344	9434.65
472.549	9301.53
472.754	9332.25
472.959	9082.4
473.164	8818.21
473.369	8965.67
473.574	8963.62
473.778	9164.32
473.983	8988.19
474.188	8660.52
474.393	8232.49
474.598	8513.06
474.802	8425
475.007	8324.65
475.212	8341.04
475.417	7988.78
475.621	8021.55
475.826	8074.8
476.031	7915.06
476.235	7759.41
476.44	7849.52
476.645	7775.8
476.849	7755.32
477.054	7753.27
477.259	7571
477.463	7636.53
477.668	7202.36
477.872	7249.47
478.077	7145.02
478.282	7040.58
478.486	6938.18
478.691	6985.28
478.895	6954.56
479.1	6989.38
479.304	6868.55
479.509	6815.3
479.713	6778.44
479.918	6661.7
480.122	6604.36
480.326	6860.35
480.531	6880.83
480.735	6708.8
480.94	6604.36
481.144	6837.83
481.348	6401.61
481.553	6616.65
481.757	6446.66
481.961	6549.06
482.166	6555.21
482.37	6608.45
482.574	6417.99
482.778	6415.94
482.983	6655.56
483.187	6559.3
483.391	6626.89
483.595	6530.63
483.8	6422.09
484.004	6499.91
484.208	6497.86
484.412	6516.3
484.616	6555.21
484.821	6569.54
485.025	6417.99
485.229	6717
485.433	6319.69
485.637	6291.02
485.841	6497.86
486.045	6520.39
486.249	6444.62
486.453	6499.91
486.657	6448.71
486.861	6483.53
487.065	6395.47
487.269	6483.53
487.473	6313.55
487.677	6358.6
487.881	6393.42
488.085	6340.17
488.289	6620.74
488.493	6430.28
488.697	6454.86
488.901	6598.21
489.105	6428.23
489.309	6473.29
489.512	6434.38
489.716	6612.55
489.92	6667.84
490.124	6530.63
490.328	6706.76
490.531	6544.97
490.735	6766.15
490.939	6723.14
491.143	6680.13
491.346	6440.52
491.55	6725.19
491.754	6854.21
491.958	6862.4
492.161	6893.12
492.365	6852.16
492.569	7028.29
492.772	6823.49
492.976	6975.04
493.18	7087.68
493.383	7194.17
493.587	7044.67
493.79	7312.96
493.994	7106.11
494.197	7179.84
494.401	7329.34
494.605	7366.2
494.808	7411.26
495.012	7581.24
495.215	7484.98
495.419	7517.75
495.622	7575.1
495.825	7896.63
496.029	7695.93
496.232	7915.06
496.436	8027.7
496.639	8066.61
496.843	8095.28
497.046	8138.29
497.249	8187.44
497.453	8273.45
497.656	8384.04
497.859	8361.52
498.063	8461.87
498.266	8689.19
498.469	8785.44
498.673	8771.11
498.876	8908.32
499.079	8842.79
499.282	9115.17
499.485	9115.17
499.689	9342.49
499.892	9444.89
500.095	9682.45
500.298	9657.88
500.501	9686.55
500.705	9809.43
500.908	10001.94
501.111	10216.97
501.314	10145.3
501.517	10346
501.72	10505.74
501.923	10518.03
502.126	10829.32
502.329	10995.2
502.532	11126.27
502.735	11058.69
502.938	11318.78
503.141	11388.41
503.344	11890.17
503.547	11748.86
503.75	11716.09
503.953	12125.68
504.156	12193.26
504.359	12486.12
504.562	12271.09
504.765	12744.17
504.968	13000.16
505.17	12899.81
505.373	12994.02
505.576	13270.5
505.779	13430.24
505.982	13532.64
506.185	14081.49
506.387	13948.37
506.59	14198.23
506.793	14220.75
506.996	14345.68
507.198	14884.3
507.401	14806.47
507.604	15171.01
507.807	15472.06
508.009	15226.31
508.212	15537.6
508.415	15805.88
508.617	15842.74
508.82	16004.53
509.022	16248.24
509.225	16571.82
509.428	16745.9
509.63	16655.79
509.833	16897.45
510.035	17505.7
510.238	17391.01
510.44	17358.24
510.643	17823.13
510.845	18232.72
511.048	18072.98
511.25	18343.31
511.453	18789.77
511.655	19207.56
511.858	19228.04
512.06	19600.77
512.262	19602.82
512.465	19611.01
512.667	19858.81
512.87	20161.91
513.072	20163.96
513.274	20696.43
513.477	20919.66
513.679	21220.71
513.881	21298.53
514.084	21716.32
514.286	21828.96
514.488	22142.3
514.69	22541.65
514.893	22840.65
515.095	22924.62
515.297	23149.9
515.499	23328.07
515.701	23866.69
515.904	23903.55
516.106	24169.79
516.308	24552.76
516.51	24706.35
516.712	25025.84
516.914	25177.39
517.116	25881.89
517.318	26150.17
517.52	25976.09
517.722	26088.73
517.925	26469.65
518.127	26936.59
518.329	27546.89
518.531	27276.55
518.733	28013.82
518.935	28151.04
519.136	28026.11
519.338	28673.27
519.54	28720.37
519.742	28732.66
519.944	29527.27
520.146	29519.08
520.348	29545.7
520.55	30041.31
520.752	30375.13
520.954	30878.93
521.155	30581.98
521.357	31270.09
521.559	31317.2
521.761	31771.85
521.963	31728.84
522.164	32070.85
522.366	32449.72
522.568	32859.32
522.77	32877.75
522.971	33098.93
523.173	33193.14
523.375	33543.34
523.576	33615.02
523.778	33909.93
523.98	34591.9
524.181	34798.74
524.383	34772.12
524.584	35089.56
524.786	35366.03
524.988	35081.36
525.189	35896.45
525.391	36111.49
525.592	35916.93
525.794	36168.83
525.995	36375.68
526.197	36426.88
526.398	36177.03
526.6	36662.4
526.801	37225.59
527.003	37153.91
527.204	37237.87
527.406	37559.41
527.607	37151.86
527.808	38009.96
528.01	37604.46
528.211	37768.3
528.412	38659.16
528.614	38472.8
528.815	38671.45
529.016	38548.57
529.218	38634.59
529.419	38542.43
529.62	38368.35
529.822	38968.41
530.023	39109.72
530.224	38972.5
530.425	39011.42
530.626	38810.71
530.828	38741.08
531.029	39586.89
531.23	39255.12
531.431	39214.16
531.632	39740.49
531.833	39691.34
532.035	39590.99
532.236	39777.36
532.437	39871.56
532.638	39550.03
532.839	39797.84
533.04	39832.65
533.241	39468.11
533.442	40401.99
533.643	40277.06
533.844	39857.23
534.045	40109.13
534.246	40156.23
534.447	40076.36
534.648	39849.03
534.849	40287.3
535.05	39791.69
535.251	40193.09
535.451	40496.19
535.652	39959.62
535.853	40358.98
536.054	40547.39
536.255	40713.28
536.456	39961.67
536.657	40870.97
536.857	40322.12
537.058	40041.54
537.259	40834.11
537.46	40412.23
537.66	40334.4
537.861	40352.83
538.062	40547.39
538.263	40637.5
538.463	40430.66
538.664	40004.68
538.865	40602.69
539.065	40621.12
539.266	40000.58
539.466	40324.16
539.667	40219.72
539.868	40815.68
540.068	40766.52
540.269	40311.88
540.469	40946.75
540.67	40541.25
540.87	40793.15
541.071	40410.18
541.271	40522.82
541.472	40315.97
541.672	40352.83
541.873	40432.71
542.073	39920.71
542.274	40725.57
542.474	40365.12
542.675	39961.67
542.875	40782.91
543.075	40707.13
543.276	40262.72
543.476	40535.1
543.676	40254.53
543.877	40557.63
544.077	40277.06
544.277	40215.62
544.478	40318.02
544.678	40541.25
544.878	40748.09
545.078	40352.83
545.279	39844.94
545.479	40291.4
545.679	40336.45
545.879	40375.36
546.079	40225.86
546.28	40244.29
546.48	40014.92
546.68	40557.63
546.88	40283.2
547.08	40444.99
547.28	40490.05
547.48	40074.31
547.68	40340.55
547.88	40516.67
548.081	40250.44
548.281	40178.76
548.481	40449.09
548.681	40700.99
548.881	40545.34
549.081	40031.3
549.28	40180.81
549.48	40397.89
549.68	40176.71
549.88	40393.79
550.08	39996.49
550.28	40508.48
550.48	40152.13
550.68	40395.84
550.88	40238.15
551.08	40213.57
551.279	40801.34
551.479	39550.03
551.679	40371.27
551.879	39971.91
552.079	40275.01
552.278	39961.67
552.478	40211.53
552.678	40256.58
552.878	40385.6
553.077	40565.82
553.277	39996.49
553.477	40225.86
553.676	39892.04
553.876	40092.74
554.076	39771.21
554.275	39795.79
554.475	39795.79
554.674	39984.2
554.874	39744.59
555.074	39564.37
555.273	39836.75
555.473	39783.5
555.672	39685.2
555.872	39466.06
556.071	39380.05
556.271	39672.91
556.47	39451.73
556.67	39134.29
556.869	39263.32
557.068	39365.71
557.268	39261.27
557.467	39396.43
557.667	39394.39
557.866	39361.62
558.065	39111.77
558.265	39210.07
558.464	39031.9
558.663	39099.48
558.863	38587.49
559.062	39351.38
559.261	39064.66
559.461	38933.59
559.66	38513.76
559.859	38657.12
560.058	38534.24
560.258	38845.53
560.457	38220.9
560.656	38552.67
560.855	38276.19
561.054	38579.29
561.253	38055.01
561.453	38425.7
561.652	38317.15
561.851	38001.77
562.05	38009.96
562.249	37596.27
562.448	38071.4
562.647	38263.91
562.846	37803.11
563.045	38063.21
563.244	37794.92
563.443	37969
563.642	37674.09
563.841	37874.79
564.04	37205.11
564.239	37717.1
564.438	37633.13
564.637	37334.13
564.836	37483.63
565.035	37571.69
565.234	37426.29
565.432	36840.57
565.631	36998.26
565.83	36891.77
566.029	36777.08
566.228	36840.57
566.427	36854.9
566.625	36541.57
566.824	36263.04
567.023	36985.97
567.222	36433.02
567.42	36932.73
567.619	36603
567.818	36117.64
568.016	36052.1
568.215	36695.16
568.414	36148.36
568.612	36234.37
568.811	35961.99
569.01	35884.17
569.208	35335.31
569.407	36117.64
569.605	35196.05
569.804	35820.68
570.002	35320.98
570.201	35421.33
570.4	35337.36
570.598	34682.01
570.797	34835.61
570.995	35083.41
571.193	34729.11
571.392	35146.9
571.59	34591.9
571.789	34469.02
571.987	34567.32
572.186	34589.85
572.384	34303.14
572.582	34315.42
572.781	34434.21
572.979	33684.65
573.177	33885.35
573.376	34176.16
573.574	33352.88
573.772	33817.77
573.971	33631.4
574.169	33416.36
574.367	33379.5
574.565	33434.8
574.763	33268.91
574.962	32840.89
575.16	32904.37
575.358	33021.11
575.556	32431.29
575.754	33107.12
575.952	32603.32
576.151	32804.02
576.349	31884.48
576.547	32396.48
576.745	32271.55
576.943	32214.21
577.141	31937.73
577.339	32203.97
577.537	31687.88
577.735	31794.37
577.933	31542.47
578.131	31837.38
578.329	31294.67
578.527	31075.54
578.725	31376.59
578.923	31825.09
579.121	31214.8
579.319	31249.61
579.516	31390.92
579.714	30969.04
579.912	31010
580.11	30973.14
580.308	30995.67
580.506	30772.44
580.704	30239.97
580.901	30438.62
581.099	30248.16
581.297	30094.56
581.495	30098.66
581.692	30086.37
581.89	29629.67
582.088	29912.29
582.285	29736.16
582.483	29664.49
582.681	29674.73
582.878	29453.55
583.076	29166.83
583.274	29838.56
583.471	29095.15
583.669	28904.69
583.866	29027.57
584.064	29037.81
584.262	28740.85
584.459	28785.91
584.657	28603.64
584.854	28927.22
585.052	28552.44
585.249	28718.32
585.447	28638.45
585.644	28310.78
585.841	28554.49
586.039	28574.97
586.236	27958.53
586.434	28030.21
586.631	27854.08
586.828	27825.41
587.026	28052.73
587.223	27938.05
587.42	27411.72
587.618	27401.48
587.815	27346.19
588.012	27637
588.21	27344.14
588.407	27442.44
588.604	27141.39
588.801	26955.02
588.999	27127.05
589.196	26645.78
589.393	27061.52
589.59	26324.25
589.787	26535.19
589.984	26676.5
590.182	26201.37
590.379	26334.49
590.576	26346.78
590.773	26455.32
590.97	25928.99
591.167	26197.27
591.364	25636.13
591.561	26066.2
591.758	25992.48
591.955	25855.26
592.152	25869.6
592.349	25799.97
592.546	25722.15
592.743	25742.63
592.94	25492.77
593.137	25595.17
593.334	25607.46
593.531	24853.81
593.727	25470.25
593.924	24999.21
594.121	24915.25
594.318	24982.83
594.515	24657.2
594.712	24950.06
594.908	24563
595.105	24954.16
595.302	24497.46
595.499	24745.27
595.696	24386.87
595.892	24505.65
596.089	24456.5
596.286	24464.69
596.482	24229.18
596.679	24198.46
596.876	24102.2
597.072	24165.69
597.269	24139.07
597.466	23833.92
597.662	23598.4
597.859	23764.29
598.055	23698.75
598.252	23776.58
598.448	23440.71
598.645	23360.84
598.841	23301.45
599.038	23440.71
599.234	23145.8
599.431	23309.64
599.627	23352.65
599.824	23344.45
600.02	23340.36
600.217	23213.38
600.413	22857.04
600.609	22646.1
600.806	22527.31
601.002	22818.13
601.198	22558.03
601.395	22545.75
601.591	22259.03
601.787	22025.56
601.984	22320.47
602.18	22429.01
602.376	22005.08
602.572	21871.96
602.769	21962.08
602.965	21699.94
603.161	21613.92
603.357	21615.97
603.553	21529.95
603.75	21618.02
603.946	21398.88
604.142	21458.28
604.338	21411.17
604.534	21472.61
604.73	21067.11
604.926	20729.2
605.122	21251.43
605.318	20897.13
605.514	20788.59
605.71	20659.57
605.906	20755.82
606.102	20946.28
606.298	20628.85
606.494	20817.26
606.69	20620.66
606.886	20794.73
607.082	20166.01
607.278	20409.72
607.474	20131.19
607.67	20063.61
607.866	20057.46
608.062	20221.3
608.257	20014.46
608.453	20284.79
608.649	19854.72
608.845	19959.16
609.041	19877.24
609.236	19856.76
609.432	19678.59
609.628	19635.58
609.824	19637.63
610.019	19328.39
610.215	19471.75
610.411	19481.99
610.606	19240.33
610.802	19365.25
610.998	19297.67
611.193	19234.18
611.389	19099.02
611.584	19031.43
611.78	18800.01
611.976	18918.79
612.171	18888.07
612.367	18957.71
612.562	18783.63
612.758	18423.19
612.953	18480.53
613.149	18630.03
613.344	18539.92
613.539	18810.25
613.735	18212.24
613.93	18562.45
614.126	18527.63
614.321	18460.05
614.517	18199.96
614.712	18308.5
614.907	18308.5
615.103	18443.67
615.298	17751.45
615.493	18070.93
615.688	17872.28
615.884	17989.02
616.079	17694.11
616.274	18036.12
616.47	17747.36
616.665	17862.04
616.86	17890.71
617.055	17526.18
617.25	17544.61
617.445	17726.88
617.641	17274.28
617.836	17229.22
618.031	17366.43
618.226	17296.8
618.421	16971.18
618.616	17290.66
618.811	16811.43
619.006	17368.48
619.201	16807.34
619.396	16879.02
619.591	16657.84
619.786	16946.6
619.981	16496.05
620.176	16725.42
620.371	16532.91
620.566	16481.71
620.761	16246.19
620.956	16426.42
621.151	16133.56
621.346	16260.53
621.541	16033.21
621.735	16186.8
621.93	15850.94
622.125	16072.12
622.32	15642.04
622.515	15742.39
622.709	15646.14
622.904	15445.44
623.099	15474.11
623.294	15490.49
623.488	15177.16
623.683	15267.27
623.878	15052.23
624.072	14968.26
624.267	15005.13
624.462	14777.8
624.656	14845.38
624.851	14642.64
625.046	14470.61
625.24	14601.68
625.435	14233.04
625.629	14304.72
625.824	14378.45
626.018	14114.26
626.213	13821.4
626.407	13893.08
626.602	13692.38
626.796	13669.85
626.991	13725.15
627.185	13772.25
627.38	13778.39
627.574	13573.6
627.768	13675.99
627.963	13409.76
628.157	13446.62
628.352	13647.32
628.546	13108.71
628.74	13284.83
628.935	12971.49
629.129	13100.51
629.323	12832.23
629.517	12801.51
629.712	12746.22
629.906	12656.11
630.1	12416.49
630.294	12572.14
630.489	12387.82
630.683	12490.22
630.877	12279.28
631.071	12183.02
631.265	12363.25
631.459	12236.27
631.653	12115.44
631.848	12207.6
632.042	12056.05
632.236	12262.9
632.43	12056.05
632.624	11902.45
632.818	11554.3
633.012	11585.02
633.206	11644.41
633.4	11779.57
633.594	11640.31
633.788	11513.34
633.982	11441.66
634.176	11286.01
634.369	11419.13
634.563	11331.07
634.757	11243.01
634.951	11318.78
635.145	11050.5
635.339	11040.26
635.533	10898.95
635.726	11052.55
635.92	10628.62
636.114	10999.3
636.308	10698.25
636.501	10681.86
636.695	10825.22
636.889	10573.32
637.083	10464.78
637.276	10487.31
637.47	10395.15
637.664	10444.3
637.857	10247.69
638.051	10081.81
638.244	10040.85
638.438	10182.16
638.632	9899.54
638.825	10118.67
639.019	9924.12
639.212	9766.42
639.406	9860.63
639.599	10118.67
639.793	9838.1
639.986	9594.39
640.18	9666.07
640.373	9598.49
640.567	9438.75
640.76	9508.38
640.954	9319.96
641.147	9291.29
641.34	9233.95
641.534	9403.93
641.727	9180.7
641.92	9322.01
642.114	9111.07
642.307	9035.3
642.5	9121.31
642.694	8713.77
642.887	8844.84
643.08	9010.72
643.273	8779.3
643.467	8681
643.66	8494.63
643.853	8582.7
644.046	8474.15
644.239	8611.37
644.432	8504.87
644.626	8410.67
644.819	8238.64
645.012	8386.09
645.205	8295.98
645.398	8349.23
645.591	8169.01
645.784	8111.66
645.977	7921.2
646.17	8060.46
646.363	7908.91
646.556	7908.91
646.749	7861.81
646.942	7865.91
647.135	7706.17
647.328	7857.71
647.521	7622.2
647.714	7689.78
647.907	7538.23
648.099	7480.89
648.292	7476.79
648.485	7384.63
648.678	7280.19
648.871	7343.67
649.064	7228.99
649.256	7276.09
649.449	7298.62
649.642	7095.87
649.835	7095.87
650.027	7155.26
650.22	7026.24
650.413	7016
650.605	6686.28
650.798	6829.63
650.991	6878.79
651.183	6805.06
651.376	6837.83
651.568	6778.44
651.761	6639.17
651.954	6442.57
652.146	6456.9
652.339	6794.82
652.531	6587.97
652.724	6524.49
652.916	6327.88
653.109	6415.94
653.301	6299.21
653.494	6399.56
653.686	6225.48
653.879	6248.01
654.071	6182.48
654.263	6217.29
654.456	6141.52
654.648	6184.52
654.84	5877.33
655.033	5996.11
655.225	5944.91
655.417	5967.44
655.61	5854.8
655.802	5647.96
655.994	5686.87
656.186	5785.17
656.379	5695.06
656.571	5705.3
656.763	5645.91
656.955	5607
657.148	5721.68
657.34	5590.61
657.532	5504.6
657.724	5383.77
657.916	5494.36
658.108	5375.58
658.3	5420.63
658.492	5342.81
658.684	5178.97
658.876	5305.95
659.068	5230.17
659.26	5158.49
659.452	5162.59
659.644	5168.73
659.836	5070.43
660.028	5045.85
660.22	5039.71
660.412	4984.41
660.604	4939.36
660.796	4910.69
660.988	4695.65
661.18	4894.3
661.372	4709.99
661.563	4851.3
661.755	4599.4
661.947	4664.93
662.139	4693.6
662.331	4681.32
662.522	4365.93
662.714	4564.58
662.906	4558.44
663.097	4494.95
663.289	4378.22
663.481	4431.46
663.673	4597.35
663.864	4249.19
664.056	4320.87
664.247	4263.53
664.439	4265.58
664.631	4294.25
664.822	4243.05
665.014	4302.44
665.205	4128.36
665.397	4187.75
665.588	4159.08
665.78	4220.52
665.971	4099.69
666.163	3962.48
666.354	4085.36
666.546	4101.74
666.737	3966.57
666.929	3911.28
667.12	3978.86
667.311	3903.09
667.503	3827.31
667.694	4052.59
667.885	3769.97
668.077	3870.32
668.268	3905.14
668.459	3890.8
668.651	3743.35
668.842	3804.78
669.033	3692.15
669.224	3624.56
669.416	3765.87
669.607	3538.55
669.798	3651.19
669.989	3667.57
670.18	3608.18
670.371	3710.58
670.563	3589.75
670.754	3542.64
670.945	3516.02
671.136	3413.62
671.327	3487.35
671.518	3460.73
671.709	3599.99
671.9	3468.92
672.091	3266.17
672.282	3329.66
672.473	3387
672.664	3544.69
672.855	3442.29
673.046	3401.33
673.237	3417.72
673.428	3382.9
673.619	3358.33
673.809	3325.56
674	3296.89
674.191	3384.95
674.382	3292.79
674.573	3163.77
674.764	3309.18
674.954	3331.7
675.145	3188.35
675.336	3253.88
675.527	3149.43
675.717	3272.31
675.908	3206.78
676.099	3169.91
676.289	3194.49
676.48	3149.43
676.671	3169.91
676.861	3159.67
677.052	3108.48
677.243	3131
677.433	2999.93
677.624	3028.6
677.814	2967.17
678.005	3026.56
678.195	3020.41
678.386	3008.12
678.576	3153.53
678.767	3020.41
678.957	3012.22
679.148	3077.76
679.338	3069.56
679.529	2971.26
679.719	2938.49
679.909	3047.04
680.1	2954.88
680.29	2958.97
680.481	3024.51
680.671	2848.38
680.861	3020.41
681.052	2961.02
681.242	2868.86
681.432	2848.38
681.622	2993.79
681.813	2823.81
682.003	2868.86
682.193	2815.62
682.383	2799.23
682.573	2866.81
682.764	2801.28
682.954	2748.03
683.144	2928.25
683.334	2791.04
683.524	2793.09
683.714	2782.85
683.904	2911.87
684.094	2875.01
684.284	2887.29
684.474	2713.22
684.664	2848.38
684.854	2875.01
685.044	2729.6
685.234	2842.24
685.424	2875.01
685.614	2694.79
685.804	2727.55
685.994	2772.61
686.184	2725.51
686.374	2756.22
686.564	2768.51
686.753	2829.95
686.943	2721.41
687.133	2819.71
687.323	2776.7
687.513	2774.66
687.702	2729.6
687.892	2715.27
688.082	2807.42
688.272	2678.4
688.461	2700.93
688.651	2752.13
688.841	2752.13
689.03	2760.32
689.22	2676.35
689.41	2563.72
689.599	2633.35
689.789	2602.63
689.979	2664.07
690.168	2623.11
690.358	2788.99
690.547	2688.64
690.737	2627.2
690.926	2655.87
691.116	2739.84
691.305	2676.35
691.495	2668.16
691.684	2702.98
691.874	2643.59
692.063	2705.03
692.252	2692.74
692.442	2709.12
692.631	2528.9
692.82	2778.75
693.01	2705.03
693.199	2647.68
693.388	2633.35
693.578	2676.35
693.767	2705.03
693.956	2684.55
694.146	2635.39
694.335	2647.68
694.524	2606.72
694.713	2659.97
694.902	2674.31
695.092	2717.31
695.281	2641.54
695.47	2727.55
695.659	2623.11
695.848	2586.24
696.037	2653.83
696.226	2711.17
696.415	2696.83
696.604	2709.12
696.793	2602.63
696.982	2838.14
697.171	2516.61
697.36	2709.12
697.549	2637.44
697.738	2696.83
697.927	2666.11
698.116	2711.17
698.305	2682.5
698.494	2606.72
698.683	2641.54
698.872	2649.73
699.061	2668.16
699.25	2627.2
699.438	2616.96
699.627	2625.15
699.816	2682.5
700.005	2659.97
700.193	2637.44
700.382	2619.01
700.571	2623.11
700.76	2602.63
700.948	2541.19
701.137	2614.91
701.326	2672.26
701.514	2635.39
701.703	2625.15
701.892	2549.38
702.08	2633.35
702.269	2586.24
702.457	2614.91
702.646	2471.56
702.834	2526.85
703.023	2623.11
703.212	2614.91
703.4	2594.44
703.589	2614.91
703.777	2655.87
703.965	2444.93
704.154	2436.74
704.342	2453.13
704.531	2526.85
704.719	2561.67
704.907	2432.65
705.096	2512.52
705.284	2516.61
705.472	2494.08
705.661	2377.35
705.849	2309.77
706.037	2408.07
706.226	2403.97
706.414	2479.75
706.602	2494.08
706.79	2342.53
706.979	2469.51
707.167	2301.58
707.355	2428.55
707.543	2401.93
707.731	2287.24
707.919	2334.34
708.107	2350.73
708.296	2236.04
708.484	2320.01
708.672	2365.06
708.86	2430.6
709.048	2352.77
709.236	2371.21
709.424	2383.49
709.612	2301.58
709.8	2424.45
709.988	2293.38
710.176	2332.3
710.364	2281.1
710.551	2203.27
710.739	2381.45
710.927	2281.1
711.115	2186.89
711.303	2227.85
711.491	2238.09
711.679	2217.61
711.866	2299.53
712.054	2377.35
712.242	2100.87
712.43	2145.93
712.617	2227.85
712.805	2150.03
712.993	2244.23
713.181	2113.16
713.368	2107.02
713.556	2182.79
713.744	2176.65
713.931	1951.37
714.119	2039.44
714.306	2041.48
714.494	2094.73
714.682	2064.01
714.869	2002.57
715.057	1990.28
715.244	2033.29
715.432	2012.81
715.619	2123.4
715.807	2014.86
715.994	2088.59
716.182	2008.72
716.369	1889.93
716.556	1986.19
716.744	1990.28
716.931	1998.48
717.119	1932.94
717.306	1955.47
717.493	1920.65
717.681	1953.42
717.868	1867.41
718.055	1898.13
718.242	1902.22
718.43	1875.6
718.617	1918.61
718.804	1840.78
718.991	1814.16
719.179	1857.17
719.366	1906.32
719.553	1846.93
719.74	1744.53
719.927	1707.66
720.114	1748.62
720.301	1928.85
720.488	1787.54
720.676	1863.31
720.863	1812.11
721.05	1797.78
721.237	1855.12
721.424	1787.54
721.611	1785.49
721.798	1672.85
721.985	1783.44
722.172	1791.63
722.358	1773.2
722.545	1752.72
722.732	1638.03
722.919	1619.6
723.106	1711.76
723.293	1625.75
723.48	1726.1
723.667	1736.34
723.853	1707.66
724.04	1648.27
724.227	1576.59
724.414	1660.56
724.6	1709.71
724.787	1705.62
724.974	1574.55
725.161	1660.56
725.347	1592.98
725.534	1658.51
725.72	1533.59
725.907	1629.84
726.094	1574.55
726.28	1595.03
726.467	1564.31
726.653	1568.4
726.84	1621.65
727.027	1549.97
727.213	1509.01
727.4	1584.79
727.586	1560.21
727.773	1592.98
727.959	1373.85
728.145	1580.69
728.332	1429.14
728.518	1552.02
728.705	1509.01
728.891	1457.81
729.077	1531.54
729.264	1515.16
729.45	1488.53
729.636	1500.82
729.823	1482.39
730.009	1527.44
730.195	1539.73
730.382	1461.91
730.568	1541.78
730.754	1476.24
730.94	1365.65
731.126	1515.16
731.313	1410.71
731.499	1357.46
731.685	1468.05
731.871	1431.19
732.057	1353.37
732.243	1390.23
732.429	1386.13
732.615	1359.51
732.801	1513.11
732.987	1449.62
733.173	1390.23
733.359	1435.28
733.545	1312.41
733.731	1379.99
733.917	1361.56
734.103	1406.61
734.289	1334.93
734.475	1275.54
734.661	1382.04
734.847	1398.42
735.033	1345.17
735.219	1386.13
735.404	1275.54
735.59	1365.65
735.776	1316.5
735.962	1316.5
736.148	1283.74
736.333	1283.74
736.519	1263.26
736.705	1281.69
736.89	1195.67
737.076	1332.89
737.262	1263.26
737.447	1216.15
737.633	1205.91
737.819	1111.71
738.004	1210.01
738.19	1197.72
738.375	1187.48
738.561	1132.19
738.747	1201.82
738.932	1191.58
739.118	1107.61
739.303	1242.78
739.489	1255.06
739.674	1152.67
739.859	1197.72
740.045	1103.51
740.23	1246.87
740.416	1148.57
740.601	1128.09
740.786	1152.67
740.972	1119.9
741.157	1187.48
741.342	1164.95
741.528	1115.8
741.713	1156.76
741.898	1181.34
742.084	1179.29
742.269	1076.89
742.454	1076.89
742.639	1040.03
742.824	1044.12
743.01	1089.18
743.195	1074.84
743.38	1095.32
743.565	1164.95
743.75	997.02
743.935	1097.37
744.12	1076.89
744.305	1050.27
744.49	1089.18
744.675	997.02
744.86	1044.12
745.045	1056.41
745.23	994.97
745.415	964.25
745.6	1048.22
745.785	1025.69
745.97	925.34
746.155	986.78
746.34	947.87
746.525	1048.22
746.71	982.68
746.895	974.49
747.079	970.4
747.264	931.48
747.449	988.83
747.634	886.43
747.819	1060.51
748.003	970.4
748.188	935.58
748.373	888.48
748.557	870.05
748.742	937.63
748.927	863.9
749.111	984.73
749.296	859.81
749.481	855.71
749.665	822.94
749.85	804.51
750.034	939.68
750.219	886.43
750.404	827.04
750.588	831.13
750.773	857.76
750.957	919.2
751.141	868
751.326	798.37
751.51	835.23
751.695	792.22
751.879	845.47
752.064	831.13
752.248	890.53
752.432	749.22
752.617	827.04
752.801	792.22
752.985	771.74
753.17	824.99
753.354	779.93
753.538	820.89
753.722	831.13
753.907	784.03
754.091	808.61
754.275	773.79
754.459	722.59
754.643	712.35
754.828	716.45
755.012	691.87
755.196	712.35
755.38	669.34
755.564	691.87
755.748	757.41
755.932	644.77
756.116	751.26
756.3	667.3
756.484	712.35
756.668	655.01
756.852	716.45
757.036	693.92
757.22	642.72
757.404	722.59
757.588	741.02
757.772	657.06
757.956	650.91
758.14	642.72
758.323	628.39
758.507	673.44
758.691	659.1
758.875	673.44
759.059	612
759.242	556.71
759.426	652.96
759.61	607.91
759.794	622.24
759.977	589.47
760.161	577.19
760.345	620.19
760.528	667.3
760.712	577.19
760.895	599.71
761.079	593.57
761.263	583.33
761.446	566.95
761.63	568.99
761.813	669.34
761.997	566.95
762.18	530.08
762.364	540.32
762.547	599.71
762.731	568.99
762.914	593.57
763.098	546.47
763.281	591.52
763.464	503.46
763.648	573.09
763.831	603.81
764.015	513.7
764.198	573.09
764.381	554.66
764.564	538.27
764.748	530.08
764.931	601.76
765.114	511.65
765.297	648.86
765.481	618.15
765.664	515.75
765.847	501.41
766.03	525.99
766.213	480.93
766.397	540.32
766.58	562.85
766.763	538.27
766.946	534.18
767.129	568.99
767.312	507.55
767.495	532.13
767.678	591.52
767.861	546.47
768.044	493.22
768.227	437.92
768.41	548.51
768.593	456.36
768.776	528.03
768.959	511.65
769.142	562.85
769.324	528.03
769.507	505.51
769.69	458.4
769.873	499.36
770.056	450.21
770.239	476.84
770.421	474.79
770.604	458.4
770.787	454.31
770.97	487.08
771.152	478.88
771.335	474.79
771.518	480.93
771.7	507.55
771.883	476.84
772.066	550.56
772.248	462.5
772.431	501.41
772.613	507.55
772.796	536.23
772.978	456.36
773.161	452.26
773.343	521.89
773.526	480.93
773.708	429.73
773.891	462.5
774.073	472.74
774.256	409.25
774.438	444.07
774.621	464.55
774.803	452.26
774.985	482.98
775.168	429.73
775.35	417.44
775.532	419.49
775.715	358.05
775.897	442.02
776.079	411.3
776.261	417.44
776.444	388.77
776.626	360.1
776.808	403.11
776.99	378.53
777.173	454.31
777.355	374.44
777.537	329.38
777.719	343.72
777.901	360.1
778.083	423.59
778.265	333.48
778.447	368.29
778.629	353.96
778.811	380.58
778.993	329.38
779.175	378.53
779.357	386.72
779.539	382.63
779.721	392.87
779.903	282.28
780.085	353.96
780.267	337.57
780.449	335.53
780.631	353.96
780.812	380.58
780.994	286.37
781.176	282.28
781.358	396.96
781.54	321.19
781.721	349.86
781.903	294.57
782.085	358.05
782.267	351.91
782.448	282.28
782.63	345.77
782.812	327.33
782.993	378.53
783.175	294.57
783.357	310.95
783.538	292.52
783.72	325.29
783.901	323.24
784.083	300.71
784.264	298.66
784.446	335.53
784.627	360.1
784.809	306.85
784.99	253.61
785.172	259.75
785.353	296.61
785.535	265.89
785.716	282.28
785.897	210.6
786.079	288.42
786.26	267.94
786.441	216.74
786.623	257.7
786.804	263.85
786.985	251.56
787.167	327.33
787.348	247.46
787.529	229.03
787.71	229.03
787.891	249.51
788.073	308.9
788.254	237.22
788.435	272.04
788.616	222.89
788.797	224.94
788.978	241.32
789.159	222.89
789.34	263.85
789.522	233.13
789.703	220.84
789.884	237.22
790.065	274.09
790.246	194.22
790.427	231.08
790.607	136.87
790.788	216.74
790.969	286.37
791.15	284.33
791.331	257.7
791.512	204.46
791.693	128.68
791.874	229.03
792.054	269.99
792.235	231.08
792.416	198.31
792.597	239.27
792.778	177.83
792.958	175.78
793.139	100.01
793.32	190.12
793.5	249.51
793.681	286.37
793.862	169.64
794.042	249.51
794.223	163.5
794.404	253.61
794.584	151.21
794.765	155.3
794.945	214.7
795.126	237.22
795.306	224.94
795.487	165.54
795.667	126.63
795.848	165.54
796.028	147.11
796.209	196.26
796.389	169.64
796.57	181.93
796.75	122.54
796.93	161.45
797.111	145.06
797.291	212.65
797.471	204.46
797.652	183.98
797.832	155.3
798.012	177.83
798.192	128.68
798.373	116.39
798.553	122.54
798.733	169.64
798.913	143.02
799.093	233.13
799.274	171.69
799.454	124.58
799.634	124.58
799.814	194.22
799.994	157.35
800.174	169.64
800.354	59.05
800.534	198.31
800.714	161.45
800.894	192.17
801.074	87.72
801.254	83.63
801.434	93.87
801.614	202.41
801.794	169.64
801.974	345.77
802.154	149.16
802.334	153.26
802.514	97.96
802.693	102.06
802.873	124.58
803.053	104.11
803.233	171.69
803.413	136.87
803.592	138.92
803.772	173.74
803.952	149.16
804.131	165.54
804.311	77.48
804.491	143.02
804.67	95.91
804.85	183.98
805.03	153.26
805.209	100.01
805.389	95.91
805.568	145.06
805.748	65.19
805.928	138.92
806.107	124.58
806.287	42.67
806.466	149.16
806.646	108.2
806.825	61.1
807.004	136.87
807.184	145.06
807.363	97.96
807.543	77.48
807.722	159.4
807.901	140.97
808.081	145.06
808.26	114.34
808.439	149.16
808.619	116.39
808.798	153.26
808.977	44.71
809.156	120.49
809.336	140.97
809.515	145.06
809.694	155.3
809.873	112.3
810.052	130.73
810.231	192.17
810.411	85.67
810.59	183.98
810.769	134.82
810.948	93.87
811.127	71.34
811.306	124.58
811.485	124.58
811.664	153.26
811.843	97.96
812.022	54.95
812.201	44.71
812.38	104.11
812.559	93.87
812.737	85.67
812.916	136.87
813.095	110.25
813.274	114.34
813.453	95.91
813.632	28.33
813.811	155.3
813.989	97.96
814.168	81.58
814.347	216.74
814.526	87.72
814.704	143.02
814.883	13.99
815.062	120.49
815.24	102.06
815.419	114.34
815.598	126.63
815.776	114.34
815.955	134.82
816.133	126.63
816.312	138.92
816.49	59.05
816.669	71.34
816.847	79.53
817.026	114.34
817.204	91.82
817.383	67.24
817.561	118.44
817.74	116.39
817.918	30.38
818.097	132.78
818.275	61.1
818.453	136.87
818.632	81.58
818.81	138.92
818.988	-41.3
819.167	36.52
819.345	143.02
819.523	165.54
819.701	93.87
819.879	42.67
820.058	50.86
820.236	63.15
820.414	71.34
820.592	61.1
820.77	87.72
820.948	81.58
821.127	147.11
821.305	89.77
821.483	151.21
821.661	67.24
821.839	95.91
822.017	114.34
822.195	5.8
822.373	52.91
822.551	71.34
822.729	11.95
822.907	5.8
823.085	145.06
823.262	67.24
823.44	34.47
823.618	65.19
823.796	65.19
823.974	151.21
824.152	30.38
824.329	7.85
824.507	7.85
824.685	145.06
824.863	87.72
825.04	83.63
825.218	112.3
825.396	65.19
825.574	7.85
825.751	116.39
825.929	118.44
826.107	112.3
826.284	151.21
826.462	34.47
826.639	42.67
826.817	73.39
826.994	52.91
827.172	54.95
827.349	100.01
827.527	85.67
827.704	7.85
827.882	61.1
828.059	22.19
828.237	102.06
828.414	81.58
828.591	-2.39
828.769	61.1
828.946	69.29
829.124	104.11
829.301	50.86
829.478	50.86
829.655	89.77
829.833	65.19
830.01	-6.49
830.187	67.24
830.364	44.71
830.542	77.48
830.719	71.34
830.896	22.19
831.073	-2.39
831.25	87.72
831.427	89.77
831.604	52.91
831.782	16.04
831.959	22.19
832.136	71.34
832.313	30.38
832.49	100.01
832.667	100.01
832.844	71.34
833.021	124.58
833.198	26.28
833.374	42.67
833.551	50.86
833.728	24.23
833.905	16.04
834.082	-6.49
834.259	34.47
834.436	20.14
834.612	65.19
834.789	46.76
834.966	104.11
835.143	79.53
835.319	59.05
835.496	71.34
835.673	75.43
835.85	42.67
836.026	85.67
836.203	108.2
836.38	77.48
836.556	22.19
836.733	1.71
836.909	34.47
837.086	-18.77
837.262	28.33
837.439	40.62
837.616	7.85
837.792	-10.58
837.968	22.19
838.145	-55.64
838.321	42.67
838.498	63.15
838.674	71.34
838.851	9.9
839.027	13.99
839.203	30.38
839.38	104.11
839.556	-35.16
839.732	104.11
839.909	102.06
840.085	36.52
840.261	87.72
840.437	44.71
840.614	34.47
840.79	32.43
840.966	-0.34
841.142	48.81
841.318	-6.49
841.494	-10.58
841.671	46.76
841.847	46.76
842.023	7.85
842.199	57
842.375	-33.11
842.551	75.43
842.727	28.33
842.903	13.99
843.079	1.71
843.255	89.77
843.431	54.95
843.607	38.57
843.783	13.99
843.959	-14.68
844.134	81.58
844.31	91.82
844.486	11.95
844.662	28.33
844.838	67.24
845.013	-6.49
845.189	22.19
845.365	32.43
845.541	-14.68
845.716	48.81
845.892	32.43
846.068	63.15
846.244	87.72
846.419	38.57
846.595	83.63
846.77	9.9
846.946	48.81
847.122	54.95
847.297	3.75
847.473	73.39
847.648	124.58
847.824	120.49
847.999	20.14
848.175	93.87
848.35	46.76
848.526	-22.87
848.701	50.86
848.876	126.63
849.052	-37.2
849.227	-4.44
849.403	57
849.578	-35.16
849.753	61.1
849.929	65.19
850.104	-33.11
850.279	-4.44
850.454	16.04
850.63	52.91
850.805	69.29
850.98	28.33
851.155	26.28
851.33	46.76
851.505	-14.68
851.681	61.1
851.856	-0.34
852.031	59.05
852.206	34.47
852.381	100.01
852.556	40.62
852.731	48.81
852.906	24.23
853.081	48.81
853.256	9.9
853.431	11.95
853.606	9.9
853.781	-2.39
853.956	5.8
854.131	46.76
854.305	50.86
854.48	18.09
854.655	77.48
854.83	52.91
855.005	-12.63
855.18	54.95
855.354	-22.87
855.529	18.09
855.704	24.23
855.879	16.04
856.053	-2.39
856.228	46.76
856.403	110.25
856.577	-31.06
856.752	-20.82
856.926	-53.59
857.101	20.14
857.276	83.63
857.45	-12.63
857.625	46.76
857.799	67.24
857.974	-45.4
858.148	44.71
858.323	16.04
858.497	-55.64
858.672	-20.82
858.846	40.62
859.02	81.58
859.195	-49.49
859.369	112.3
859.543	-6.49
859.718	93.87
859.892	-18.77
860.066	9.9
860.241	-18.77
860.415	63.15
860.589	-14.68
860.763	30.38
860.938	-2.39
861.112	44.71
861.286	-2.39
861.46	61.1
861.634	-10.58
861.808	7.85
861.982	-33.11
862.157	59.05
862.331	7.85
862.505	-18.77
862.679	28.33
862.853	7.85
863.027	-20.82
863.201	-8.53
863.375	57
863.549	57
863.722	-4.44
863.896	120.49
864.07	48.81
864.244	5.8
864.418	20.14
864.592	20.14
864.766	34.47
864.939	42.67
865.113	75.43
865.287	73.39
865.461	-33.11
865.634	46.76
865.808	-4.44
865.982	59.05
866.156	-12.63
866.329	20.14
866.503	-6.49
866.676	1.71
866.85	9.9
867.024	40.62
867.197	-2.39
867.371	30.38
867.544	-18.77
867.718	9.9
867.891	-8.53
868.065	32.43
868.238	22.19
868.412	9.9
868.585	24.23
868.759	16.04
868.932	-29.01
869.105	-47.44
869.279	67.24
869.452	42.67
869.625	34.47
869.799	26.28
869.972	46.76
870.145	-14.68
870.319	-6.49
870.492	-47.44
870.665	-29.01
870.838	13.99
871.011	-14.68
871.185	11.95
871.358	-29.01
871.531	46.76
871.704	16.04
871.877	87.72
872.05	63.15
872.223	44.71
872.396	3.75
872.569	9.9
872.742	-16.73
872.915	13.99
873.088	-14.68
873.261	34.47
873.434	-69.97
873.607	57
873.78	5.8
873.953	16.04
874.126	-35.16
874.299	83.63
874.471	-4.44
874.644	-37.2
874.817	-26.96
874.99	11.95
875.163	-24.92
875.335	-0.34
875.508	-6.49
875.681	87.72
875.853	9.9
876.026	-18.77
876.199	16.04
876.371	85.67
876.544	61.1
876.717	-14.68
876.889	-29.01
877.062	95.91
877.234	-4.44
877.407	73.39
877.579	61.1
877.752	-12.63
877.924	46.76
878.097	-31.06
878.269	-43.35
878.442	63.15
878.614	9.9
878.786	9.9
878.959	-0.34
879.131	1.71
879.303	-63.83
879.476	28.33
879.648	-35.16
879.82	-6.49
879.993	20.14
880.165	36.52
880.337	3.75
880.509	69.29
880.681	7.85
880.854	20.14
881.026	7.85
881.198	11.95
881.37	-12.63
881.542	-33.11
881.714	13.99
881.886	24.23
882.058	24.23
882.23	61.1
882.402	5.8
882.574	-41.3
882.746	-2.39
882.918	-41.3
883.09	48.81
883.262	24.23
883.434	7.85
883.606	-55.64
883.778	-12.63
883.95	-4.44
884.122	46.76
884.293	42.67
884.465	-41.3
884.637	-37.2
884.809	38.57
884.98	-16.73
885.152	-8.53
885.324	-20.82
885.496	20.14
885.667	54.95
885.839	-49.49
886.011	-0.34
886.182	16.04
886.354	63.15
886.525	30.38
886.697	-86.36
886.869	-41.3
887.04	-22.87
887.212	-14.68
887.383	-2.39
887.555	7.85
887.726	73.39
887.897	-2.39
888.069	-8.53
888.24	-37.2
888.412	13.99
888.583	-22.87
888.754	40.62
888.926	-4.44
889.097	-18.77
889.268	26.28
889.44	26.28
889.611	61.1
889.782	16.04
889.953	-10.58
890.125	18.09
890.296	40.62
890.467	36.52
890.638	-16.73
890.809	-8.53
890.98	9.9
891.151	3.75
891.323	-37.2
891.494	38.57
891.665	30.38
891.836	79.53
892.007	30.38
892.178	71.34
892.349	7.85
892.52	40.62
892.691	26.28
892.862	52.91
893.032	-53.59
893.203	75.43
893.374	7.85
893.545	-39.25
893.716	9.9
893.887	-49.49
894.057	-8.53
894.228	-14.68
894.399	-45.4
894.57	-6.49
894.74	-2.39
894.911	-31.06
895.082	57
895.253	108.2
895.423	7.85
895.594	-4.44
895.764	26.28
895.935	24.23
896.106	9.9
896.276	-22.87
896.447	11.95
896.617	44.71
896.788	61.1
896.958	-35.16
897.129	50.86
897.299	57
897.47	46.76
897.64	83.63
897.81	48.81
897.981	36.52
898.151	-6.49
898.322	16.04
898.492	-29.01
898.662	-88.4
898.832	-41.3
899.003	11.95
899.173	30.38
899.343	11.95
899.513	18.09
