Data from USB4F104151__159__13-58-41-792.txt Node

Date: Thu Mar 13 13:58:41 EDT 2025
User: louis
Spectrometer: USB4F10415
Trigger mode: 4
Integration Time (sec): 1.000000E-2
Scans to average: 1
Electric dark correction enabled: true
Nonlinearity correction enabled: false
Boxcar width: 0
XAxis mode: Wavelengths
Number of Pixels in Spectrum: 3648
>>>>>Begin Spectral Data<<<<<
178.204	-83.45
178.424	-83.45
178.644	-83.45
178.864	-50.69
179.084	6.66
179.304	-32.26
179.524	0.51
179.744	-26.11
179.964	18.94
180.184	41.47
180.404	-30.21
180.624	-3.58
180.844	35.33
181.064	8.7
181.283	16.9
181.503	-65.02
181.723	35.33
181.943	-56.83
182.163	-69.12
182.383	-13.82
182.602	49.66
182.822	10.75
183.042	57.86
183.262	-26.11
183.482	-24.06
183.701	-24.06
183.921	59.9
184.141	31.23
184.361	47.62
184.58	20.99
184.8	57.86
185.02	20.99
185.239	49.66
185.459	4.61
185.679	29.18
185.898	29.18
186.118	20.99
186.338	0.51
186.557	12.8
186.777	39.42
186.997	20.99
187.216	2.56
187.436	66.05
187.655	35.33
187.875	29.18
188.095	-79.36
188.314	20.99
188.534	-3.58
188.753	-22.02
188.973	27.14
189.192	-11.78
189.412	33.28
189.631	2.56
189.851	31.23
190.07	0.51
190.29	27.14
190.509	-40.45
190.729	57.86
190.948	-13.82
191.168	57.86
191.387	23.04
191.607	23.04
191.826	-9.73
192.045	-28.16
192.265	-5.63
192.484	12.8
192.704	70.14
192.923	0.51
193.142	10.75
193.362	23.04
193.581	-5.63
193.8	16.9
194.02	6.66
194.239	0.51
194.458	-28.16
194.678	-36.35
194.897	-32.26
195.116	76.29
195.335	23.04
195.555	57.86
195.774	-11.78
195.993	12.8
196.212	0.51
196.432	41.47
196.651	66.05
196.87	53.76
197.089	27.14
197.308	-28.16
197.528	53.76
197.747	16.9
197.966	33.28
198.185	49.66
198.404	37.38
198.623	18.94
198.842	-22.02
199.062	35.33
199.281	12.8
199.5	-38.4
199.719	4.61
199.938	14.85
200.157	41.47
200.376	18.94
200.595	92.67
200.814	-3.58
201.033	14.85
201.252	47.62
201.471	66.05
201.69	12.8
201.909	-32.26
202.128	6.66
202.347	76.29
202.566	113.15
202.785	27.14
203.004	6.66
203.223	18.94
203.442	55.81
203.661	33.28
203.879	47.62
204.098	51.71
204.317	57.86
204.536	43.52
204.755	20.99
204.974	20.99
205.193	20.99
205.411	84.48
205.63	51.71
205.849	16.9
206.068	-44.54
206.287	43.52
206.505	80.38
206.724	16.9
206.943	-40.45
207.162	0.51
207.381	-11.78
207.599	90.62
207.818	43.52
208.037	86.53
208.255	-7.68
208.474	33.28
208.693	-32.26
208.911	-48.64
209.13	-1.54
209.349	-3.58
209.567	6.66
209.786	74.24
210.005	-15.87
210.223	66.05
210.442	20.99
210.661	107.01
210.879	78.33
211.098	27.14
211.316	20.99
211.535	64
211.753	-5.63
211.972	84.48
212.191	39.42
212.409	2.56
212.628	33.28
212.846	-15.87
213.065	57.86
213.283	14.85
213.502	-15.87
213.72	10.75
213.938	-7.68
214.157	82.43
214.375	-1.54
214.594	37.38
214.812	8.7
215.031	-40.45
215.249	-5.63
215.467	-17.92
215.686	-3.58
215.904	47.62
216.122	61.95
216.341	76.29
216.559	31.23
216.778	59.9
216.996	53.76
217.214	-13.82
217.432	27.14
217.651	29.18
217.869	18.94
218.087	-28.16
218.306	-65.02
218.524	20.99
218.742	-1.54
218.96	27.14
219.179	25.09
219.397	-17.92
219.615	-5.63
219.833	80.38
220.051	-5.63
220.27	45.57
220.488	37.38
220.706	57.86
220.924	-118.27
221.142	-32.26
221.36	45.57
221.578	57.86
221.796	-1.54
222.015	-1.54
222.233	27.14
222.451	16.9
222.669	31.23
222.887	90.62
223.105	-13.82
223.323	-77.31
223.541	-69.12
223.759	29.18
223.977	61.95
224.195	33.28
224.413	27.14
224.631	4.61
224.849	41.47
225.067	-11.78
225.285	12.8
225.503	74.24
225.721	-13.82
225.939	88.57
226.157	-34.3
226.375	55.81
226.592	31.23
226.81	84.48
227.028	76.29
227.246	143.87
227.464	33.28
227.682	43.52
227.9	-15.87
228.117	47.62
228.335	16.9
228.553	47.62
228.771	-69.12
228.989	51.71
229.206	18.94
229.424	70.14
229.642	57.86
229.86	-15.87
230.077	4.61
230.295	25.09
230.513	29.18
230.731	43.52
230.948	100.86
231.166	12.8
231.384	-30.21
231.601	-24.06
231.819	-17.92
232.037	47.62
232.254	35.33
232.472	4.61
232.689	82.43
232.907	-48.64
233.125	31.23
233.342	51.71
233.56	-1.54
233.777	-24.06
233.995	43.52
234.213	90.62
234.43	-24.06
234.648	57.86
234.865	8.7
235.083	-17.92
235.3	8.7
235.518	145.92
235.735	25.09
235.953	35.33
236.17	37.38
236.388	70.14
236.605	35.33
236.822	10.75
237.04	-5.63
237.257	-17.92
237.475	8.7
237.692	8.7
237.909	-40.45
238.127	66.05
238.344	41.47
238.562	90.62
238.779	-1.54
238.996	10.75
239.214	57.86
239.431	35.33
239.648	45.57
239.865	55.81
240.083	-50.69
240.3	-3.58
240.517	0.51
240.735	45.57
240.952	-42.5
241.169	61.95
241.386	-36.35
241.603	43.52
241.821	-3.58
242.038	12.8
242.255	-28.16
242.472	51.71
242.689	2.56
242.907	12.8
243.124	47.62
243.341	51.71
243.558	12.8
243.775	27.14
243.992	2.56
244.209	35.33
244.426	53.76
244.643	53.76
244.86	92.67
245.078	59.9
245.295	31.23
245.512	45.57
245.729	74.24
245.946	-50.69
246.163	29.18
246.38	-15.87
246.597	33.28
246.814	-40.45
247.031	57.86
247.248	-15.87
247.464	-24.06
247.681	37.38
247.898	64
248.115	25.09
248.332	10.75
248.549	-7.68
248.766	45.57
248.983	143.87
249.2	27.14
249.417	23.04
249.633	-7.68
249.85	-60.93
250.067	10.75
250.284	-28.16
250.501	18.94
250.717	31.23
250.934	10.75
251.151	-11.78
251.368	14.85
251.585	2.56
251.801	33.28
252.018	66.05
252.235	-65.02
252.451	55.81
252.668	66.05
252.885	16.9
253.102	-32.26
253.318	0.51
253.535	-24.06
253.752	4.61
253.968	61.95
254.185	80.38
254.401	6.66
254.618	57.86
254.835	14.85
255.051	45.57
255.268	66.05
255.484	2.56
255.701	43.52
255.917	64
256.134	-9.73
256.351	20.99
256.567	25.09
256.784	90.62
257	43.52
257.217	-24.06
257.433	-54.78
257.65	37.38
257.866	39.42
258.082	31.23
258.299	84.48
258.515	10.75
258.732	53.76
258.948	18.94
259.165	92.67
259.381	-32.26
259.597	-7.68
259.814	-11.78
260.03	14.85
260.246	51.71
260.463	14.85
260.679	23.04
260.895	8.7
261.112	82.43
261.328	96.77
261.544	35.33
261.761	27.14
261.977	33.28
262.193	0.51
262.409	27.14
262.626	-34.3
262.842	53.76
263.058	29.18
263.274	57.86
263.49	23.04
263.707	16.9
263.923	-28.16
264.139	-32.26
264.355	61.95
264.571	57.86
264.787	25.09
265.004	6.66
265.22	33.28
265.436	0.51
265.652	72.19
265.868	6.66
266.084	14.85
266.3	51.71
266.516	-11.78
266.732	0.51
266.948	94.72
267.164	66.05
267.38	-13.82
267.596	4.61
267.812	8.7
268.028	29.18
268.244	53.76
268.46	37.38
268.676	2.56
268.892	33.28
269.108	-122.37
269.324	57.86
269.54	-44.54
269.756	57.86
269.972	2.56
270.188	55.81
270.403	2.56
270.619	-30.21
270.835	94.72
271.051	16.9
271.267	-9.73
271.483	70.14
271.698	-32.26
271.914	12.8
272.13	10.75
272.346	53.76
272.562	121.34
272.777	-32.26
272.993	-7.68
273.209	14.85
273.425	51.71
273.64	25.09
273.856	37.38
274.072	16.9
274.287	70.14
274.503	49.66
274.719	49.66
274.934	72.19
275.15	29.18
275.366	16.9
275.581	-69.12
275.797	-28.16
276.012	4.61
276.228	2.56
276.444	51.71
276.659	35.33
276.875	-13.82
277.09	57.86
277.306	-42.5
277.521	-3.58
277.737	0.51
277.952	74.24
278.168	-48.64
278.383	-19.97
278.599	29.18
278.814	53.76
279.03	-5.63
279.245	47.62
279.461	37.38
279.676	14.85
279.892	2.56
280.107	90.62
280.322	4.61
280.538	2.56
280.753	12.8
280.969	12.8
281.184	-11.78
281.399	39.42
281.615	4.61
281.83	59.9
282.045	104.96
282.26	47.62
282.476	-22.02
282.691	68.09
282.906	94.72
283.122	35.33
283.337	-15.87
283.552	82.43
283.767	-24.06
283.983	-44.54
284.198	8.7
284.413	74.24
284.628	-13.82
284.843	74.24
285.058	33.28
285.274	-3.58
285.489	0.51
285.704	41.47
285.919	-44.54
286.134	-7.68
286.349	4.61
286.564	-7.68
286.779	64
286.995	33.28
287.21	12.8
287.425	6.66
287.64	84.48
287.855	39.42
288.07	-1.54
288.285	43.52
288.5	43.52
288.715	51.71
288.93	41.47
289.145	90.62
289.36	31.23
289.575	0.51
289.79	0.51
290.004	45.57
290.219	72.19
290.434	61.95
290.649	-30.21
290.864	16.9
291.079	35.33
291.294	-38.4
291.509	25.09
291.724	12.8
291.938	-3.58
292.153	47.62
292.368	-54.78
292.583	-11.78
292.798	64
293.012	23.04
293.227	29.18
293.442	4.61
293.657	-3.58
293.871	-9.73
294.086	10.75
294.301	6.66
294.516	16.9
294.73	102.91
294.945	-24.06
295.16	107.01
295.374	20.99
295.589	14.85
295.804	20.99
296.018	41.47
296.233	25.09
296.447	-3.58
296.662	16.9
296.877	37.38
297.091	12.8
297.306	29.18
297.52	61.95
297.735	18.94
297.949	-28.16
298.164	16.9
298.378	76.29
298.593	-1.54
298.807	-38.4
299.022	45.57
299.236	51.71
299.451	18.94
299.665	88.57
299.88	-28.16
300.094	47.62
300.309	35.33
300.523	20.99
300.737	96.77
300.952	-13.82
301.166	-7.68
301.381	0.51
301.595	16.9
301.809	49.66
302.024	20.99
302.238	-38.4
302.452	18.94
302.667	-52.74
302.881	117.25
303.095	90.62
303.309	57.86
303.524	0.51
303.738	27.14
303.952	-7.68
304.166	31.23
304.381	4.61
304.595	-7.68
304.809	96.77
305.023	29.18
305.237	18.94
305.452	88.57
305.666	23.04
305.88	29.18
306.094	-13.82
306.308	29.18
306.522	6.66
306.736	-28.16
306.95	55.81
307.164	74.24
307.379	12.8
307.593	86.53
307.807	33.28
308.021	39.42
308.235	-11.78
308.449	8.7
308.663	-30.21
308.877	66.05
309.091	-17.92
309.305	43.52
309.519	-7.68
309.733	43.52
309.947	84.48
310.161	-19.97
310.374	82.43
310.588	12.8
310.802	53.76
311.016	18.94
311.23	-15.87
311.444	29.18
311.658	-1.54
311.872	-38.4
312.085	35.33
312.299	92.67
312.513	-24.06
312.727	25.09
312.941	2.56
313.154	-9.73
313.368	25.09
313.582	98.81
313.796	12.8
314.009	45.57
314.223	18.94
314.437	68.09
314.651	94.72
314.864	18.94
315.078	18.94
315.292	70.14
315.505	-26.11
315.719	-38.4
315.933	6.66
316.146	31.23
316.36	64
316.573	96.77
316.787	-24.06
317.001	23.04
317.214	74.24
317.428	12.8
317.641	-7.68
317.855	107.01
318.068	-22.02
318.282	70.14
318.495	43.52
318.709	76.29
318.922	-32.26
319.136	37.38
319.349	47.62
319.563	20.99
319.776	0.51
319.99	8.7
320.203	-3.58
320.417	55.81
320.63	-15.87
320.843	70.14
321.057	82.43
321.27	53.76
321.483	55.81
321.697	49.66
321.91	29.18
322.124	-17.92
322.337	33.28
322.55	35.33
322.763	-62.98
322.977	70.14
323.19	35.33
323.403	18.94
323.617	-19.97
323.83	-1.54
324.043	57.86
324.256	88.57
324.469	29.18
324.683	98.81
324.896	20.99
325.109	10.75
325.322	-3.58
325.535	53.76
325.748	-5.63
325.962	64
326.175	14.85
326.388	6.66
326.601	-32.26
326.814	123.39
327.027	16.9
327.24	10.75
327.453	-50.69
327.666	39.42
327.879	115.2
328.092	88.57
328.305	35.33
328.518	18.94
328.731	16.9
328.944	25.09
329.157	51.71
329.37	2.56
329.583	41.47
329.796	18.94
330.009	-48.64
330.222	10.75
330.435	-17.92
330.648	109.05
330.861	-15.87
331.073	84.48
331.286	-7.68
331.499	33.28
331.712	-13.82
331.925	33.28
332.138	55.81
332.35	61.95
332.563	51.71
332.776	-28.16
332.989	-1.54
333.202	31.23
333.414	20.99
333.627	-7.68
333.84	-7.68
334.053	47.62
334.265	23.04
334.478	4.61
334.691	31.23
334.903	74.24
335.116	0.51
335.329	16.9
335.541	-19.97
335.754	76.29
335.966	-73.21
336.179	82.43
336.392	59.9
336.604	35.33
336.817	57.86
337.029	70.14
337.242	18.94
337.454	74.24
337.667	61.95
337.88	-22.02
338.092	12.8
338.305	43.52
338.517	6.66
338.729	45.57
338.942	47.62
339.154	43.52
339.367	-13.82
339.579	88.57
339.792	59.9
340.004	82.43
340.217	-38.4
340.429	35.33
340.641	-46.59
340.854	12.8
341.066	90.62
341.278	49.66
341.491	94.72
341.703	10.75
341.915	-54.78
342.128	76.29
342.34	-26.11
342.552	6.66
342.764	23.04
342.977	27.14
343.189	55.81
343.401	-30.21
343.613	33.28
343.826	82.43
344.038	45.57
344.25	23.04
344.462	8.7
344.674	47.62
344.886	86.53
345.099	47.62
345.311	-50.69
345.523	39.42
345.735	-26.11
345.947	-3.58
346.159	66.05
346.371	68.09
346.583	43.52
346.795	84.48
347.007	61.95
347.219	64
347.431	94.72
347.643	-15.87
347.855	51.71
348.067	41.47
348.279	10.75
348.491	70.14
348.703	29.18
348.915	2.56
349.127	57.86
349.339	33.28
349.551	-38.4
349.763	27.14
349.975	-1.54
350.187	66.05
350.399	-60.93
350.61	78.33
350.822	-1.54
351.034	-1.54
351.246	-19.97
351.458	27.14
351.669	18.94
351.881	43.52
352.093	45.57
352.305	53.76
352.517	68.09
352.728	25.09
352.94	10.75
353.152	25.09
353.363	16.9
353.575	31.23
353.787	53.76
353.999	-48.64
354.21	109.05
354.422	-28.16
354.633	35.33
354.845	162.3
355.057	-1.54
355.268	-36.35
355.48	25.09
355.692	76.29
355.903	98.81
356.115	8.7
356.326	-34.3
356.538	-26.11
356.749	18.94
356.961	90.62
357.172	29.18
357.384	37.38
357.595	4.61
357.807	59.9
358.018	18.94
358.23	12.8
358.441	25.09
358.653	-32.26
358.864	25.09
359.075	39.42
359.287	-44.54
359.498	80.38
359.709	111.1
359.921	61.95
360.132	29.18
360.344	68.09
360.555	4.61
360.766	41.47
360.977	-17.92
361.189	100.86
361.4	61.95
361.611	78.33
361.823	-1.54
362.034	37.38
362.245	31.23
362.456	29.18
362.667	12.8
362.879	41.47
363.09	0.51
363.301	47.62
363.512	74.24
363.723	-22.02
363.935	4.61
364.146	8.7
364.357	-13.82
364.568	20.99
364.779	43.52
364.99	12.8
365.201	117.25
365.412	6.66
365.623	70.14
365.834	72.19
366.045	66.05
366.256	66.05
366.467	49.66
366.678	100.86
366.889	14.85
367.1	70.14
367.311	20.99
367.522	76.29
367.733	70.14
367.944	115.2
368.155	29.18
368.366	31.23
368.577	16.9
368.788	49.66
368.999	27.14
369.209	70.14
369.42	100.86
369.631	20.99
369.842	25.09
370.053	-5.63
370.264	92.67
370.474	23.04
370.685	-26.11
370.896	100.86
371.107	55.81
371.317	76.29
371.528	23.04
371.739	51.71
371.95	-32.26
372.16	29.18
372.371	45.57
372.582	27.14
372.792	47.62
373.003	92.67
373.214	0.51
373.424	98.81
373.635	2.56
373.846	31.23
374.056	16.9
374.267	49.66
374.477	-17.92
374.688	66.05
374.898	-7.68
375.109	27.14
375.319	72.19
375.53	18.94
375.74	-9.73
375.951	23.04
376.161	72.19
376.372	39.42
376.582	-7.68
376.793	12.8
377.003	66.05
377.214	37.38
377.424	41.47
377.635	115.2
377.845	45.57
378.055	100.86
378.266	6.66
378.476	-40.45
378.686	4.61
378.897	61.95
379.107	33.28
379.317	43.52
379.528	49.66
379.738	57.86
379.948	25.09
380.158	88.57
380.369	47.62
380.579	49.66
380.789	25.09
380.999	98.81
381.21	57.86
381.42	35.33
381.63	23.04
381.84	-15.87
382.05	37.38
382.261	18.94
382.471	96.77
382.681	70.14
382.891	53.76
383.101	49.66
383.311	-24.06
383.521	51.71
383.731	43.52
383.941	43.52
384.151	74.24
384.361	49.66
384.571	39.42
384.781	23.04
384.991	86.53
385.201	117.25
385.411	37.38
385.621	111.1
385.831	16.9
386.041	2.56
386.251	6.66
386.461	10.75
386.671	-28.16
386.881	31.23
387.091	74.24
387.301	8.7
387.511	-5.63
387.72	70.14
387.93	29.18
388.14	68.09
388.35	14.85
388.56	76.29
388.769	90.62
388.979	10.75
389.189	33.28
389.399	2.56
389.609	41.47
389.818	41.47
390.028	70.14
390.238	84.48
390.447	2.56
390.657	47.62
390.867	-26.11
391.076	0.51
391.286	0.51
391.496	59.9
391.705	86.53
391.915	43.52
392.125	113.15
392.334	-44.54
392.544	41.47
392.753	41.47
392.963	74.24
393.172	59.9
393.382	152.06
393.591	86.53
393.801	33.28
394.01	117.25
394.22	55.81
394.429	31.23
394.639	49.66
394.848	39.42
395.058	92.67
395.267	10.75
395.477	76.29
395.686	12.8
395.895	76.29
396.105	41.47
396.314	86.53
396.524	123.39
396.733	64
396.942	61.95
397.152	66.05
397.361	111.1
397.57	57.86
397.78	45.57
397.989	82.43
398.198	51.71
398.407	100.86
398.617	74.24
398.826	43.52
399.035	96.77
399.244	78.33
399.453	66.05
399.663	90.62
399.872	18.94
400.081	133.63
400.29	100.86
400.499	27.14
400.708	20.99
400.917	117.25
401.127	117.25
401.336	66.05
401.545	141.82
401.754	27.14
401.963	162.3
402.172	59.9
402.381	39.42
402.59	37.38
402.799	72.19
403.008	115.2
403.217	49.66
403.426	123.39
403.635	129.53
403.844	35.33
404.053	125.44
404.262	121.34
404.471	68.09
404.68	145.92
404.888	111.1
405.097	113.15
405.306	64
405.515	154.11
405.724	195.07
405.933	182.78
406.142	121.34
406.35	158.21
406.559	72.19
406.768	135.68
406.977	141.82
407.185	162.3
407.394	190.97
407.603	143.87
407.812	184.83
408.02	176.64
408.229	199.16
408.438	160.25
408.646	215.55
408.855	205.31
409.064	219.64
409.272	115.2
409.481	238.08
409.69	197.12
409.898	238.08
410.107	209.4
410.315	291.32
410.524	145.92
410.733	221.69
410.941	252.41
411.15	276.99
411.358	236.03
411.567	330.23
411.775	244.22
411.984	303.61
412.192	258.56
412.401	287.23
412.609	336.38
412.818	418.3
413.026	338.43
413.234	385.53
413.443	352.76
413.651	399.87
413.86	334.33
414.068	428.54
414.276	406.01
414.485	403.96
414.693	457.21
414.901	530.94
415.11	522.74
415.318	467.45
415.526	485.88
415.734	625.14
415.943	532.98
416.151	563.7
416.359	592.37
416.567	643.57
416.776	639.48
416.984	666.1
417.192	772.6
417.4	780.79
417.608	702.97
417.817	862.71
418.025	821.75
418.233	991.73
418.441	838.13
418.649	885.23
418.857	963.06
419.065	958.96
419.273	930.29
419.481	993.78
419.689	1085.94
419.897	1042.93
420.105	1012.21
420.313	1135.09
420.521	1176.05
420.729	1163.76
420.937	1184.24
421.145	1276.4
421.353	1352.17
421.561	1454.57
421.769	1323.5
421.977	1481.19
422.185	1524.2
422.393	1614.31
422.601	1696.23
422.809	1575.4
423.017	1640.93
423.224	1827.3
423.432	1788.39
423.64	1794.53
423.848	2025.95
424.056	1919.46
424.263	2058.72
424.471	1984.99
424.679	2116.06
424.887	2271.71
425.094	2318.81
425.302	2331.1
425.51	2236.89
425.718	2400.73
425.925	2568.66
426.133	2636.25
426.341	2611.67
426.548	2839
426.756	2828.76
426.964	2963.92
427.171	3099.09
427.379	3187.15
427.586	3076.56
427.794	3330.51
428.001	3414.48
428.209	3611.08
428.417	3477.96
428.624	3629.51
428.832	3762.63
429.039	3623.37
429.247	3850.69
429.454	3975.62
429.662	4241.86
429.869	4006.34
430.076	4387.26
430.284	4229.57
430.491	4467.13
430.699	4706.74
430.906	4600.25
431.114	4690.36
431.321	4899.25
431.528	5151.15
431.736	5116.34
431.943	5603.75
432.15	5300.66
432.358	5540.27
432.565	5708.2
432.772	5816.74
432.979	5943.72
433.187	5988.77
433.394	6078.88
433.601	6703.51
433.808	6578.59
434.016	6445.47
434.223	6717.85
434.43	7125.4
434.637	7143.83
434.844	7516.56
435.052	7809.42
435.259	7512.46
435.466	7692.68
435.673	7561.61
435.88	7989.64
436.087	8405.38
436.294	8733.05
436.501	8368.51
436.708	8577.41
436.915	8720.76
437.122	9058.68
437.329	9161.08
437.537	9492.85
437.743	9462.13
437.95	9634.16
438.157	10031.46
438.364	10285.41
438.571	10441.06
438.778	10385.76
438.985	11184.47
439.192	11000.15
439.399	11155.8
439.606	10791.26
439.813	11637.07
440.02	12196.17
440.227	12030.28
440.433	11942.22
440.64	12280.13
440.847	12130.63
441.054	12556.61
441.261	13295.93
441.467	13254.97
441.674	13486.39
441.881	13977.9
442.088	14133.54
442.294	13746.48
442.501	14068.01
442.708	14414.12
442.914	15216.92
443.121	15851.79
443.328	15397.14
443.534	16273.67
443.741	16003.34
443.948	15589.65
444.154	16748.8
444.361	16720.13
444.568	16738.56
444.774	16572.68
444.981	16972.03
445.187	17443.06
445.394	18192.62
445.6	18159.85
445.807	19646.68
446.013	18782.43
446.22	19398.87
446.426	20027.6
446.633	20103.37
446.839	21010.62
447.046	20039.89
447.252	20973.76
447.459	20961.47
447.665	20740.29
447.871	21881.01
448.078	22780.07
448.284	21727.41
448.491	22057.14
448.697	23091.36
448.903	23304.35
449.11	23732.37
449.316	23341.21
449.522	23830.68
449.728	24078.48
449.935	24334.48
450.141	24565.9
450.347	25084.03
450.553	24170.64
450.76	24621.19
450.966	25372.8
451.172	24934.53
451.378	25493.63
451.584	25163.9
451.791	26120.31
451.997	25725.05
452.203	26275.95
452.409	26177.65
452.615	25952.37
452.821	24821.89
453.027	24629.38
453.233	26183.79
453.44	25424
453.646	24998.02
453.852	25215.1
454.058	25573.5
454.264	24756.36
454.47	25567.35
454.676	24510.6
454.882	25299.07
455.088	23453.85
455.294	23971.99
455.5	24141.97
455.705	24324.24
455.911	23511.19
456.117	22816.93
456.323	22845.6
456.529	21278.91
456.735	22368.43
456.941	21987.5
457.147	21074.11
457.352	20588.74
457.558	20703.43
457.764	20685
457.97	20084.94
458.176	19744.98
458.381	19591.38
458.587	18776.29
458.793	18829.54
458.999	17912.05
459.204	19128.54
459.41	18366.7
459.616	17395.96
459.821	17424.63
460.027	17375.48
460.233	16871.68
460.438	16212.23
460.644	16169.23
460.85	15395.09
461.055	15218.97
461.261	15294.74
461.466	14295.33
461.672	13730.09
461.878	14672.16
462.083	13586.74
462.289	13402.42
462.494	13343.03
462.7	12722.49
462.905	12329.28
463.111	12771.65
463.316	12904.76
463.522	12618.05
463.727	12613.95
463.932	12706.11
464.138	12575.04
464.343	12529.98
464.549	12325.19
464.754	12585.28
464.959	12413.25
465.165	12517.7
465.37	11731.28
465.575	11813.2
465.781	12265.8
465.986	12157.25
466.191	11641.17
466.397	11524.43
466.602	11022.68
466.807	11430.23
467.012	11444.56
467.218	11211.09
467.423	11108.69
467.628	11409.75
467.833	11680.08
468.038	11161.94
468.244	10944.86
468.449	11510.1
468.654	11024.73
468.859	11239.76
469.064	10813.79
469.269	10522.98
469.474	10463.58
469.679	10676.57
469.885	10531.17
470.09	10514.78
470.295	10576.22
470.5	10514.78
470.705	10461.54
470.91	10133.86
471.115	10105.19
471.32	10340.71
471.525	10152.29
471.73	9933.16
471.935	9795.95
472.139	9496.94
472.344	9628.01
472.549	9636.2
472.754	9455.98
472.959	9329.01
473.164	9079.16
473.369	8993.14
473.574	9326.96
473.778	9204.08
473.983	8948.09
474.188	9021.81
474.393	8690.04
474.598	8870.26
474.802	8739.19
475.007	8427.9
475.212	8585.6
475.417	8122.76
475.621	8290.69
475.826	8202.63
476.031	8042.89
476.235	7946.63
476.44	8178.05
476.645	7874.95
476.849	8130.95
477.054	7680.39
477.259	7684.49
477.463	7696.78
477.668	7594.38
477.872	7694.73
478.077	7481.74
478.282	7459.21
478.486	7479.69
478.691	7274.9
478.895	7305.62
479.1	7029.14
479.304	7049.62
479.509	6996.37
479.713	7027.09
479.918	6922.65
480.122	6803.86
480.326	6855.06
480.531	6939.03
480.735	6853.02
480.94	6842.78
481.144	7131.54
481.348	6644.12
481.553	6767
481.757	6637.98
481.961	6820.25
482.166	6795.67
482.37	6615.45
482.574	6613.4
482.778	6752.66
482.983	6676.89
483.187	6709.66
483.391	6744.47
483.595	6711.71
483.8	6461.85
484.004	6543.77
484.208	6607.26
484.412	6594.97
484.616	6824.34
484.821	6771.1
485.025	6433.18
485.229	6822.3
485.433	6709.66
485.637	6705.56
485.841	6621.59
486.045	6699.42
486.249	6814.1
486.453	6844.82
486.657	6689.18
486.861	6789.53
487.065	6568.35
487.269	6687.13
487.473	6597.02
487.677	6564.25
487.881	6723.99
488.085	6594.97
488.289	6783.38
488.493	6680.99
488.697	6685.08
488.901	6818.2
489.105	6603.16
489.309	6723.99
489.512	6748.57
489.716	6830.49
489.92	6850.97
490.124	6705.56
490.328	6965.65
490.531	6891.93
490.735	6896.02
490.939	7070.1
491.143	7004.57
491.346	6979.99
491.55	7078.29
491.754	6957.46
491.958	6900.12
492.161	7023
492.365	7031.19
492.569	7129.49
492.772	7154.07
492.976	7309.71
493.18	7119.25
493.383	7467.41
493.587	7252.37
493.79	7293.33
493.994	7561.61
494.197	7420.3
494.401	7426.45
494.605	7635.34
494.808	7559.56
495.012	7760.27
495.215	7637.39
495.419	7762.31
495.622	7924.1
495.825	7930.25
496.029	7803.27
496.232	7987.59
496.436	8133
496.639	8198.53
496.843	8329.6
497.046	8450.43
497.249	8489.34
497.453	8452.48
497.656	8466.81
497.859	8472.96
498.063	8814.97
498.266	8941.94
498.469	8833.4
498.673	8976.76
498.876	9095.54
499.079	9316.72
499.282	9109.88
499.485	9257.33
499.689	9726.32
499.892	9693.55
500.095	9777.51
500.298	10056.04
500.501	9822.57
500.705	10125.67
500.908	10234.21
501.111	10334.56
501.314	10420.58
501.517	10572.13
501.72	10770.78
501.923	10682.72
502.126	11028.82
502.329	11293.01
502.532	11180.37
502.735	11163.99
502.938	11581.78
503.141	11454.8
503.344	11919.69
503.547	11786.57
503.75	11913.55
503.953	12192.07
504.156	12183.88
504.359	12437.83
504.562	12343.62
504.765	12818.75
504.968	13011.26
505.17	12839.23
505.373	13220.15
505.576	13435.19
505.779	13742.38
505.982	13705.52
506.185	13787.44
506.387	14020.91
506.59	14086.44
506.793	14307.62
506.996	14395.68
507.198	14780.7
507.401	14821.66
507.604	14987.55
507.807	15442.2
508.009	15663.38
508.212	15606.03
508.415	15816.97
508.617	15862.03
508.82	16212.23
509.022	16224.52
509.225	16529.67
509.428	16673.03
509.63	16826.62
509.833	16959.74
510.035	17596.66
510.238	17373.43
510.44	17463.54
510.643	17965.29
510.845	17895.66
511.048	17914.09
511.25	18469.09
511.453	18555.11
511.655	19280.09
511.858	19392.73
512.06	19386.58
512.262	19751.12
512.465	19583.19
512.667	19792.08
512.87	20134.09
513.072	20293.83
513.274	20627.65
513.477	20738.24
513.679	20889.79
513.881	21256.38
514.084	21594.29
514.286	21608.63
514.488	21846.19
514.69	22321.32
514.893	22489.26
515.095	22585.51
515.297	22833.32
515.499	22730.92
515.701	23509.15
515.904	23648.41
516.106	23896.21
516.308	24270.99
516.51	24473.74
516.712	24479.88
516.914	24936.58
517.116	25434.24
517.318	25374.84
517.52	25477.24
517.722	25688.18
517.925	26067.06
518.127	26337.39
518.329	26394.73
518.531	26484.84
518.733	27043.94
518.935	27316.32
519.136	27455.58
519.338	28104.79
519.54	27531.36
519.742	28129.36
519.944	28713.03
520.146	28942.41
520.348	29108.29
520.55	29313.09
520.752	29325.38
520.954	29882.42
521.155	29851.7
521.357	30287.92
521.559	30738.47
521.761	30924.84
521.963	30906.41
522.164	31377.44
522.366	31082.53
522.568	31940.63
522.77	31635.49
522.971	32395.28
523.173	31860.76
523.375	32315.41
523.576	32802.83
523.778	32475.15
523.98	32899.08
524.181	33060.87
524.383	33505.28
524.584	33941.5
524.786	33822.72
524.988	33789.95
525.189	33935.35
525.391	34508.79
525.592	34594.8
525.794	34676.72
525.995	34926.57
526.197	34938.86
526.398	35180.52
526.6	35207.14
526.801	35497.95
527.003	35606.5
527.204	35430.37
527.406	36177.88
527.607	35774.43
527.808	36306.9
528.01	35674.08
528.211	36153.3
528.412	36968.4
528.614	36343.77
528.815	36724.69
529.016	37220.3
529.218	36669.39
529.419	36558.8
529.62	36859.85
529.822	37062.6
530.023	37302.21
530.224	37279.69
530.425	37154.76
530.626	36917.2
530.828	37109.71
531.029	37994.43
531.23	37087.18
531.431	37302.21
531.632	37562.31
531.833	37464
532.035	37740.48
532.236	37511.11
532.437	37871.55
532.638	37674.95
532.839	37992.38
533.04	38231.99
533.241	37482.44
533.442	38473.65
533.643	38109.11
533.844	37967.8
534.045	38266.81
534.246	38039.48
534.447	38352.82
534.648	37748.67
534.849	38211.51
535.05	38217.66
535.251	38025.15
535.451	38393.78
535.652	38516.66
535.853	38131.64
536.054	38354.87
536.255	38516.66
536.456	37861.31
536.657	38641.59
536.857	38184.89
537.058	37922.75
537.259	38600.63
537.46	38195.13
537.66	38211.51
537.861	38307.77
538.062	38219.7
538.263	38657.97
538.463	38307.77
538.664	38352.82
538.865	38576.05
539.065	38627.25
539.266	38451.13
539.466	38885.29
539.667	38096.83
539.868	38381.49
540.068	38238.14
540.269	38272.95
540.469	38447.03
540.67	38416.31
540.87	38158.27
541.071	38354.87
541.271	38363.06
541.472	37943.23
541.672	37982.14
541.873	38203.32
542.073	38057.92
542.274	38244.28
542.474	37746.62
542.675	37707.71
542.875	38567.86
543.075	38412.21
543.276	38275
543.476	38277.05
543.676	38139.83
543.877	38531
544.077	38356.92
544.277	38195.13
544.478	38033.34
544.678	38838.19
544.878	38096.83
545.078	38281.14
545.279	37959.61
545.479	37879.74
545.679	38399.93
545.879	38164.41
546.079	38371.25
546.28	38068.16
546.48	37756.86
546.68	38498.23
546.88	38594.48
547.08	37875.65
547.28	37916.61
547.48	37851.07
547.68	38254.52
547.88	38105.02
548.081	37840.83
548.281	38033.34
548.481	37910.46
548.681	38086.59
548.881	38283.19
549.081	38014.91
549.28	37754.82
549.48	38107.07
549.68	38023.1
549.88	38531
550.08	37654.47
550.28	38246.33
550.48	37861.31
550.68	38469.56
550.88	37726.14
551.08	38029.24
551.279	38213.56
551.479	37482.44
551.679	37806.02
551.879	37873.6
552.079	38498.23
552.278	38059.96
552.478	37953.47
552.678	38107.07
552.878	38213.56
553.077	37992.38
553.277	37275.59
553.477	38160.31
553.676	37887.93
553.876	37892.03
554.076	37572.55
554.275	37519.3
554.475	37246.92
554.674	37674.95
554.874	37834.69
555.074	37775.3
555.273	37720
555.473	38074.3
555.672	37238.73
555.872	37416.9
556.071	37582.79
556.271	37810.11
556.47	37449.67
556.67	37302.21
556.869	37255.11
557.068	37144.52
557.268	37097.42
557.467	37275.59
557.667	37076.94
557.866	37072.84
558.065	37165
558.265	36954.06
558.464	36859.85
558.663	37212.1
558.863	36675.54
559.062	37289.93
559.261	36454.36
559.461	37038.03
559.66	36790.22
559.859	36855.76
560.058	36495.32
560.258	36755.41
560.457	36134.87
560.656	36667.34
560.855	36192.22
561.054	36364.25
561.253	36194.26
561.453	36622.29
561.652	36691.92
561.851	36571.09
562.05	36112.34
562.249	35842.01
562.448	36239.32
562.647	36175.83
562.846	35993.56
563.045	35966.94
563.244	36161.5
563.443	36313.05
563.642	35424.23
563.841	36134.87
564.04	35364.84
564.239	35620.83
564.438	35624.93
564.637	35626.98
564.836	35373.03
565.035	35268.58
565.234	35799.01
565.432	35317.73
565.631	34881.52
565.83	35502.05
566.029	34932.71
566.228	35012.59
566.427	35145.7
566.625	34830.32
566.824	34566.13
567.023	34871.28
567.222	34426.87
567.42	35170.28
567.619	34721.77
567.818	34433.01
568.016	34334.71
568.215	34861.04
568.414	34381.81
568.612	34664.43
568.811	34211.83
569.01	34140.15
569.208	34021.37
569.407	34303.99
569.605	33837.05
569.804	34439.15
570.002	33660.93
570.201	34109.43
570.4	33527.81
570.598	33556.48
570.797	33417.22
570.995	33718.27
571.193	33411.07
571.392	33773.56
571.59	33492.99
571.789	33105.93
571.987	33286.15
572.186	33083.4
572.384	32974.86
572.582	33259.52
572.781	32892.94
572.979	32372.75
573.177	32548.88
573.376	32274.45
573.574	32417.81
573.772	32819.21
573.971	32403.47
574.169	32090.13
574.367	31864.86
574.565	32184.34
574.763	32501.78
574.962	31897.63
575.16	31580.19
575.358	31563.81
575.556	31496.22
575.754	31715.36
575.952	31236.13
576.151	31735.84
576.349	30973.99
576.547	31088.68
576.745	31227.94
576.943	31215.65
577.141	31031.33
577.339	31064.1
577.537	31004.71
577.735	30736.43
577.933	30273.59
578.131	30953.51
578.329	30468.14
578.527	30449.71
578.725	30224.43
578.923	30730.28
579.121	30357.55
579.319	29980.73
579.516	30439.47
579.714	30097.46
579.912	30025.78
580.11	29665.34
580.308	30093.36
580.506	29622.33
580.704	29024.33
580.901	29857.85
581.099	29644.86
581.297	29159.49
581.495	29063.24
581.692	29450.3
581.89	28852.3
582.088	29366.34
582.285	28835.91
582.483	29243.46
582.681	28831.82
582.878	28532.81
583.076	28475.47
583.274	28837.96
583.471	28264.53
583.669	28352.59
583.866	28176.47
584.064	28354.64
584.262	27959.38
584.459	28313.68
584.657	27971.67
584.854	28020.82
585.052	27797.59
585.249	27895.89
585.447	27787.35
585.644	27721.82
585.841	27508.83
586.039	27844.7
586.236	27377.76
586.434	27441.25
586.631	27463.77
586.828	27095.14
587.026	27138.15
587.223	27033.7
587.42	27154.53
587.618	27142.24
587.815	26370.16
588.012	26716.26
588.21	26826.85
588.407	27039.84
588.604	26472.56
588.801	26120.31
588.999	26517.61
589.196	26378.35
589.393	25991.28
589.59	26292.33
589.787	25753.72
589.984	25958.52
590.182	25606.27
590.379	25823.35
590.576	25874.55
590.773	25651.32
590.97	25426.04
591.167	25708.66
591.364	25127.04
591.561	25577.59
591.758	24971.39
591.955	24983.68
592.152	25272.45
592.349	25213.06
592.546	25018.5
592.743	25247.87
592.94	24469.64
593.137	25075.84
593.334	25129.09
593.531	24610.95
593.727	24627.34
593.924	24483.98
594.121	24385.68
594.318	24613
594.515	24113.3
594.712	24342.67
594.908	24127.63
595.105	24277.13
595.302	24070.29
595.499	24397.96
595.696	23963.79
595.892	23896.21
596.089	23892.12
596.286	23826.58
596.482	24049.81
596.679	23591.06
596.876	23953.55
597.072	23349.4
597.269	23660.69
597.466	23285.92
597.662	23345.31
597.859	23488.67
598.055	23152.8
598.252	23204
598.448	23036.06
598.645	22851.75
598.841	22683.81
599.038	22775.97
599.234	22886.56
599.431	22517.93
599.627	22433.96
599.824	23013.54
600.02	22489.26
600.217	22225.07
600.413	22206.64
600.609	22141.1
600.806	21964.98
601.002	22206.64
601.198	22067.38
601.395	22108.33
601.591	21811.38
601.787	21878.96
601.984	21872.82
602.18	22094
602.376	21422.27
602.572	21510.33
602.769	21434.55
602.965	21452.98
603.161	21612.73
603.357	21229.76
603.553	21278.91
603.75	21231.8
603.946	20795.59
604.142	21172.41
604.338	20758.72
604.534	20928.7
604.73	20742.34
604.926	20840.64
605.122	20832.45
605.318	20498.63
605.514	20480.2
605.71	20586.69
605.906	20377.8
606.102	20324.55
606.298	20234.44
606.494	20517.06
606.69	20369.61
606.886	20191.44
607.082	19914.96
607.278	20287.69
607.474	19994.83
607.67	19994.83
607.866	19661.01
608.062	20130
608.257	19693.78
608.453	19505.37
608.649	19605.72
608.845	19316.95
609.041	19382.49
609.236	19589.33
609.432	19245.27
609.628	19306.71
609.824	19165.4
610.019	19300.57
610.215	19204.31
610.411	19259.61
610.606	18858.21
610.802	19071.2
610.998	19167.45
611.193	19013.85
611.389	18608.36
611.584	18675.94
611.78	18614.5
611.976	18745.57
612.171	18657.51
612.367	18573.54
612.562	18540.77
612.758	18309.35
612.953	18452.71
613.149	18352.36
613.344	18090.22
613.539	18452.71
613.735	18436.33
613.93	18270.44
614.126	18108.65
614.321	18231.53
614.517	18086.12
614.712	18000.11
614.907	17842.42
615.103	18106.6
615.298	17907.95
615.493	18026.73
615.688	17432.82
615.884	17834.22
616.079	17379.57
616.274	17559.8
616.47	17502.45
616.665	17557.75
616.86	17621.24
617.055	17428.73
617.25	17332.47
617.445	17326.33
617.641	17359.1
617.836	17500.4
618.031	16847.1
618.226	17103.1
618.421	17047.8
618.616	17252.6
618.811	16761.09
619.006	16990.46
619.201	16576.77
619.396	16998.65
619.591	16527.62
619.786	16750.85
619.981	16390.41
620.176	16505.09
620.371	16421.13
620.566	16433.41
620.761	16193.8
620.956	16322.82
621.151	16095.5
621.346	16115.98
621.541	15616.27
621.735	15835.41
621.93	15337.75
622.125	15784.21
622.32	15352.09
622.515	15733.01
622.709	15644.95
622.904	15204.63
623.099	15212.82
623.294	15206.68
623.488	15042.84
623.683	15114.52
623.878	15038.75
624.072	14936.35
624.267	15024.41
624.462	14592.29
624.656	14649.63
624.851	14905.63
625.046	14547.23
625.24	14395.68
625.435	14246.18
625.629	14573.86
625.824	14311.72
626.018	14272.81
626.213	13893.93
626.407	14000.43
626.602	13801.77
626.796	13828.4
626.991	13965.61
627.185	13582.64
627.38	13863.21
627.574	13390.13
627.768	13529.39
627.963	13482.29
628.157	13279.54
628.352	13269.3
628.546	12984.63
628.74	12968.25
628.935	13130.04
629.129	12763.45
629.323	12806.46
629.517	12800.32
629.712	12726.59
629.906	12630.34
630.1	12667.2
630.294	12626.24
630.489	12421.44
630.683	12554.56
630.877	12284.23
631.071	12323.14
631.265	12157.25
631.459	12099.91
631.653	12243.27
631.848	12038.47
632.042	11993.42
632.236	11921.74
632.43	11852.11
632.624	11770.19
632.818	11888.97
633.012	11465.04
633.206	11747.66
633.4	11571.54
633.594	11481.42
633.788	11393.36
633.982	11569.49
634.176	11497.81
634.369	11268.44
634.563	11348.31
634.757	11200.85
634.951	11002.2
635.145	11260.24
635.339	10905.95
635.533	10934.62
635.726	11037.02
635.92	10826.07
636.114	10838.36
636.308	10709.34
636.501	10647.9
636.695	10559.84
636.889	10590.56
637.083	10658.14
637.276	10352.99
637.47	10604.89
637.664	10148.2
637.857	10451.3
638.051	10217.83
638.244	10178.92
638.438	10164.58
638.632	9990.5
638.825	9853.29
639.019	10109.29
639.212	9820.52
639.406	9761.13
639.599	9808.23
639.793	9863.53
639.986	9683.31
640.18	9830.76
640.373	9687.4
640.567	9376.11
640.76	9455.98
640.954	9486.7
641.147	9404.78
641.34	9290.1
641.534	9298.29
641.727	9251.19
641.92	9042.29
642.114	9079.16
642.307	9021.81
642.5	9122.16
642.694	8823.16
642.887	8913.27
643.08	8911.22
643.273	8905.08
643.467	8757.63
643.66	8657.28
643.853	8515.97
644.046	8661.37
644.239	8552.83
644.432	8505.73
644.626	8415.62
644.819	8384.9
645.012	8417.66
645.205	8495.49
645.398	8274.31
645.591	8089.99
645.784	8180.1
645.977	8030.6
646.17	8065.41
646.363	8028.55
646.556	7782.79
646.749	8075.65
646.942	7905.67
647.135	7930.25
647.328	7819.66
647.521	7723.4
647.714	7678.35
647.907	7569.8
648.099	7668.11
648.292	7582.09
648.485	7496.08
648.678	7324.05
648.871	7393.68
649.064	7326.1
649.256	7608.72
649.449	7254.42
649.642	7178.64
649.835	7199.12
650.027	7188.88
650.22	7053.72
650.413	7106.96
650.605	7016.85
650.798	6984.09
650.991	6914.45
651.183	6900.12
651.376	6803.86
651.568	6633.88
651.761	6635.93
651.954	6592.92
652.146	6605.21
652.339	6742.43
652.531	6580.64
652.724	6556.06
652.916	6384.03
653.109	6435.23
653.301	6572.44
653.494	6539.68
653.686	6476.19
653.879	6392.22
654.071	6201.76
654.263	6222.24
654.456	6236.58
654.648	6265.25
654.84	6316.45
655.033	5960.1
655.225	6144.42
655.417	5796.26
655.61	6042.02
655.802	5949.86
655.994	5962.15
656.186	5982.63
656.379	5814.7
656.571	5816.74
656.763	5720.49
656.955	5728.68
657.148	5605.8
657.34	5613.99
657.532	5636.52
657.724	5509.55
657.916	5577.13
658.108	5552.56
658.3	5419.44
658.492	5497.26
658.684	5478.83
658.876	5310.89
659.068	5370.29
659.26	5323.18
659.452	5321.13
659.644	5220.78
659.836	5136.82
660.028	5202.35
660.22	5003.7
660.412	5151.15
660.604	5030.32
660.796	4944.31
660.988	4919.73
661.18	4833.72
661.372	4970.93
661.563	4970.93
661.755	4768.18
661.947	4774.33
662.139	4657.59
662.331	4661.69
662.522	4745.66
662.714	4622.78
662.906	4544.95
663.097	4590.01
663.289	4524.47
663.481	4712.89
663.673	4516.28
663.864	4422.08
664.056	4311.49
664.247	4473.28
664.439	4364.73
664.631	4575.67
664.822	4295.1
665.014	4317.63
665.205	4309.44
665.397	4370.88
665.588	4237.76
665.78	4131.26
665.971	4260.29
666.163	4319.68
666.354	4000.19
666.546	4276.67
666.737	4231.62
666.929	4065.73
667.12	4037.06
667.311	4063.68
667.503	3981.76
667.694	3985.86
667.885	3809.73
668.077	3981.76
668.268	3916.23
668.459	3994.05
668.651	3824.07
668.842	3905.99
669.033	3875.27
669.224	3793.35
669.416	3899.84
669.607	3731.91
669.798	3842.5
669.989	3822.02
670.18	3604.94
670.371	3717.58
670.563	3606.98
670.754	3819.97
670.945	3742.15
671.136	3459.53
671.327	3566.03
671.518	3633.61
671.709	3504.59
671.9	3578.31
672.091	3609.03
672.282	3453.39
672.473	3379.66
672.664	3594.7
672.855	3449.29
673.046	3510.73
673.237	3461.58
673.428	3379.66
673.619	3375.56
673.809	3377.61
674	3334.61
674.191	3408.33
674.382	3334.61
674.573	3385.8
674.764	3090.9
674.954	3224.01
675.145	3301.84
675.336	3328.46
675.527	3310.03
675.717	3277.26
675.908	3267.02
676.099	3228.11
676.289	3248.59
676.48	3049.94
676.671	3195.34
676.861	3224.01
677.052	3031.51
677.243	3138
677.433	3156.43
677.624	3144.14
677.814	3154.38
678.005	3088.85
678.195	3084.75
678.386	3035.6
678.576	3049.94
678.767	3146.19
678.957	2982.35
679.148	2974.16
679.338	2996.69
679.529	2965.97
679.719	3017.17
679.909	3058.13
680.1	3041.75
680.29	2968.02
680.481	3035.6
680.671	2941.4
680.861	2986.45
681.052	2920.92
681.242	2982.35
681.432	2943.44
681.622	2845.14
681.813	3021.27
682.003	2953.68
682.193	2890.2
682.383	2925.01
682.573	2886.1
682.764	2847.19
682.954	2953.68
683.144	2765.27
683.334	2884.05
683.524	2961.87
683.714	2865.62
683.904	2785.75
684.094	2783.7
684.284	2830.8
684.474	2882
684.664	2779.61
684.854	2591.19
685.044	2843.09
685.234	2757.08
685.424	2795.99
685.614	2722.26
685.804	2828.76
685.994	2666.97
686.184	2793.94
686.374	2707.93
686.564	2703.83
686.753	2732.5
686.943	2722.26
687.133	2757.08
687.323	2691.54
687.513	2742.74
687.702	2814.42
687.892	2630.1
688.082	2728.41
688.272	2558.42
688.461	2795.99
688.651	2691.54
688.841	2752.98
689.03	2652.63
689.22	2728.41
689.41	2632.15
689.599	2642.39
689.789	2771.41
689.979	2705.88
690.168	2550.23
690.358	2673.11
690.547	2679.26
690.737	2613.72
690.926	2709.97
691.116	2535.9
691.305	2656.73
691.495	2607.58
691.684	2654.68
691.874	2695.64
692.063	2650.58
692.252	2597.34
692.442	2623.96
692.631	2566.62
692.82	2632.15
693.01	2648.54
693.199	2572.76
693.388	2568.66
693.578	2580.95
693.767	2609.62
693.956	2626.01
694.146	2642.39
694.335	2611.67
694.524	2654.68
694.713	2609.62
694.902	2662.87
695.092	2576.86
695.281	2595.29
695.47	2593.24
695.659	2509.27
695.848	2488.79
696.037	2505.18
696.226	2703.83
696.415	2576.86
696.604	2617.82
696.793	2421.21
696.982	2466.27
697.171	2488.79
697.36	2595.29
697.549	2574.81
697.738	2531.8
697.927	2499.03
698.116	2425.31
698.305	2464.22
698.494	2554.33
698.683	2537.95
698.872	2533.85
699.061	2523.61
699.25	2552.28
699.438	2443.74
699.627	2494.94
699.816	2470.36
700.005	2548.19
700.193	2486.75
700.382	2453.98
700.571	2492.89
700.76	2523.61
700.948	2488.79
701.137	2435.55
701.326	2496.99
701.514	2361.82
701.703	2441.69
701.892	2394.59
702.08	2433.5
702.269	2382.3
702.457	2425.31
702.646	2357.72
702.834	2404.83
703.023	2363.87
703.212	2359.77
703.4	2255.33
703.589	2286.05
703.777	2212.32
703.965	2296.28
704.154	2347.48
704.342	2337.24
704.531	2333.15
704.719	2251.23
704.907	2468.31
705.096	2265.57
705.284	2292.19
705.472	2288.09
705.661	2253.28
705.849	2191.84
706.037	2288.09
706.226	2208.22
706.414	2331.1
706.602	2208.22
706.79	2337.24
706.979	2286.05
707.167	2228.7
707.355	2208.22
707.543	2138.59
707.731	2175.45
707.919	2093.54
708.107	2134.5
708.296	2068.96
708.484	2079.2
708.672	2126.3
708.86	2138.59
709.048	2122.21
709.236	2095.58
709.424	2040.29
709.612	2097.63
709.8	2111.97
709.988	2099.68
710.176	2056.67
710.364	1987.04
710.551	2116.06
710.739	2083.3
710.927	1958.37
711.115	2030.05
711.303	2101.73
711.491	1997.28
711.679	2021.86
711.866	1952.23
712.054	1941.99
712.242	1968.61
712.43	1960.42
712.617	1927.65
712.805	1958.37
712.993	1944.03
713.181	1991.14
713.368	1962.47
713.556	1972.71
713.744	1843.68
713.931	1894.88
714.119	1944.03
714.306	1821.16
714.494	1919.46
714.682	1849.83
714.869	1847.78
715.057	1866.21
715.244	1823.2
715.432	1855.97
715.619	1835.49
715.807	1753.57
715.994	1835.49
716.182	1790.44
716.369	1821.16
716.556	1829.35
716.744	1765.86
716.931	1671.65
717.119	1800.68
717.306	1726.95
717.493	1888.74
717.681	1745.38
717.868	1759.72
718.055	1829.35
718.242	1620.46
718.43	1606.12
718.617	1722.85
718.804	1694.18
718.991	1669.61
719.179	1708.52
719.366	1585.64
719.553	1579.5
719.74	1634.79
719.927	1642.98
720.114	1548.78
720.301	1581.54
720.488	1563.11
720.676	1620.46
720.863	1665.51
721.05	1630.7
721.237	1616.36
721.424	1640.93
721.611	1679.85
721.798	1423.85
721.985	1556.97
722.172	1499.63
722.358	1495.53
722.545	1511.91
722.732	1407.47
722.919	1452.52
723.106	1470.95
723.293	1542.63
723.48	1397.23
723.667	1389.03
723.853	1425.9
724.04	1548.78
724.227	1440.23
724.414	1429.99
724.6	1419.75
724.787	1395.18
724.974	1376.75
725.161	1485.29
725.347	1315.31
725.534	1337.84
725.72	1389.03
725.907	1446.38
726.094	1294.83
726.28	1335.79
726.467	1399.27
726.653	1307.12
726.84	1270.25
727.027	1386.99
727.213	1386.99
727.4	1335.79
727.586	1307.12
727.773	1288.68
727.959	1280.49
728.145	1245.68
728.332	1319.4
728.518	1331.69
728.705	1372.65
728.891	1354.22
729.077	1327.6
729.264	1278.44
729.45	1233.39
729.636	1364.46
729.823	1165.81
730.009	1251.82
730.195	1352.17
730.382	1251.82
730.568	1303.02
730.754	1178.09
730.94	1288.68
731.126	1229.29
731.313	1296.88
731.499	1266.16
731.685	1313.26
731.871	1245.68
732.057	1270.25
732.243	1155.57
732.429	1307.12
732.615	1278.44
732.801	1229.29
732.987	1130.99
733.173	1241.58
733.359	1223.15
733.545	1223.15
733.731	1087.98
733.917	1167.85
734.103	1206.77
734.289	1163.76
734.475	1204.72
734.661	1176.05
734.847	1139.18
735.033	1126.89
735.219	1092.08
735.404	1069.55
735.59	1100.27
735.776	1135.09
735.962	1116.65
736.148	1139.18
736.333	1063.41
736.519	1114.61
736.705	1073.65
736.89	1073.65
737.076	1149.42
737.262	1001.97
737.447	1071.6
737.633	1102.32
737.819	1040.88
738.004	1034.74
738.19	1147.37
738.375	1028.59
738.561	1032.69
738.747	1016.3
738.932	991.73
739.118	1034.74
739.303	1042.93
739.489	967.15
739.674	1026.54
739.859	997.87
740.045	991.73
740.23	997.87
740.416	975.35
740.601	1032.69
740.786	1006.06
740.972	1024.5
741.157	1018.35
741.342	1036.78
741.528	973.3
741.713	1006.06
741.898	954.87
742.084	907.76
742.269	862.71
742.454	1014.26
742.639	983.54
742.824	872.95
743.01	879.09
743.195	954.87
743.38	788.98
743.565	877.04
743.75	836.08
743.935	877.04
744.12	901.62
744.305	883.19
744.49	848.37
744.675	938.48
744.86	911.86
745.045	920.05
745.23	821.75
745.415	838.13
745.6	829.94
745.785	868.85
745.97	903.67
746.155	831.99
746.34	909.81
746.525	920.05
746.71	836.08
746.895	795.12
747.079	786.93
747.264	813.56
747.449	848.37
747.634	762.36
747.819	834.04
748.003	762.36
748.188	731.64
748.373	766.45
748.557	838.13
748.742	819.7
748.927	770.55
749.111	768.5
749.296	715.25
749.481	717.3
749.665	770.55
749.85	717.3
750.034	829.94
750.219	711.16
750.404	748.02
750.588	688.63
750.773	692.73
750.957	784.88
751.141	696.82
751.326	735.73
751.51	719.35
751.695	721.4
751.879	664.05
752.064	633.33
752.248	623.09
752.432	600.57
752.617	682.49
752.801	707.06
752.985	586.23
753.17	713.21
753.354	680.44
753.538	711.16
753.722	592.37
753.907	657.91
754.091	645.62
754.275	649.72
754.459	643.57
754.643	643.57
754.828	561.66
755.012	625.14
755.196	655.86
755.38	627.19
755.564	528.89
755.748	612.85
755.932	571.9
756.116	606.71
756.3	553.46
756.484	600.57
756.668	592.37
756.852	559.61
757.036	578.04
757.22	590.33
757.404	541.18
757.588	543.22
757.772	563.7
757.956	588.28
758.14	551.42
758.323	526.84
758.507	547.32
758.691	606.71
758.875	555.51
759.059	477.69
759.242	516.6
759.426	526.84
759.61	549.37
759.794	524.79
759.977	573.94
760.161	596.47
760.345	541.18
760.528	551.42
760.712	551.42
760.895	518.65
761.079	475.64
761.263	481.78
761.446	475.64
761.63	483.83
761.813	569.85
761.997	399.87
762.18	473.59
762.364	449.02
762.547	524.79
762.731	518.65
762.914	391.67
763.098	487.93
763.281	412.15
763.464	473.59
763.648	487.93
763.831	479.74
764.015	444.92
764.198	508.41
764.381	449.02
764.564	463.35
764.748	500.22
764.931	506.36
765.114	485.88
765.297	467.45
765.481	410.11
765.664	479.74
765.847	406.01
766.03	537.08
766.213	395.77
766.397	414.2
766.58	436.73
766.763	494.07
766.946	465.4
767.129	399.87
767.312	422.39
767.495	436.73
767.678	369.15
767.861	449.02
768.044	479.74
768.227	457.21
768.41	442.87
768.593	410.11
768.776	473.59
768.959	393.72
769.142	385.53
769.324	453.11
769.507	385.53
769.69	410.11
769.873	471.54
770.056	416.25
770.239	393.72
770.421	379.39
770.604	352.76
770.787	403.96
770.97	479.74
771.152	391.67
771.335	426.49
771.518	397.82
771.7	356.86
771.883	403.96
772.066	365.05
772.248	369.15
772.431	365.05
772.613	377.34
772.796	365.05
772.978	369.15
773.161	459.26
773.343	326.14
773.526	369.15
773.708	395.77
773.891	307.71
774.073	354.81
774.256	287.23
774.438	397.82
774.621	385.53
774.803	403.96
774.985	377.34
775.168	344.57
775.35	399.87
775.532	328.19
775.715	346.62
775.897	397.82
776.079	287.23
776.261	332.28
776.444	315.9
776.626	322.04
776.808	367.1
776.99	295.42
777.173	305.66
777.355	317.95
777.537	350.71
777.719	360.95
777.901	283.13
778.083	317.95
778.265	260.6
778.447	285.18
778.629	334.33
778.811	367.1
778.993	338.43
779.175	246.27
779.357	330.23
779.539	248.32
779.721	313.85
779.903	313.85
780.085	279.04
780.267	240.12
780.449	276.99
780.631	295.42
780.812	274.94
780.994	287.23
781.176	246.27
781.358	258.56
781.54	287.23
781.721	250.36
781.903	231.93
782.085	262.65
782.267	313.85
782.448	272.89
782.63	260.6
782.812	238.08
782.993	205.31
783.175	229.88
783.357	246.27
783.538	287.23
783.72	205.31
783.901	307.71
784.083	258.56
784.264	250.36
784.446	236.03
784.627	244.22
784.809	256.51
784.99	207.36
785.172	264.7
785.353	289.28
785.535	201.21
785.716	289.28
785.897	211.45
786.079	199.16
786.26	199.16
786.441	195.07
786.623	207.36
786.804	123.39
786.985	164.35
787.167	217.6
787.348	231.93
787.529	221.69
787.71	231.93
787.891	256.51
788.073	203.26
788.254	197.12
788.435	211.45
788.616	178.69
788.797	168.45
788.978	264.7
789.159	135.68
789.34	68.09
789.522	233.98
789.703	113.15
789.884	242.17
790.065	203.26
790.246	178.69
790.427	178.69
790.607	201.21
790.788	123.39
790.969	193.02
791.15	221.69
791.331	162.3
791.512	156.16
791.693	133.63
791.874	188.93
792.054	154.11
792.235	213.5
792.416	184.83
792.597	174.59
792.778	94.72
792.958	182.78
793.139	104.96
793.32	219.64
793.5	156.16
793.681	145.92
793.862	143.87
794.042	127.49
794.223	156.16
794.404	109.05
794.584	178.69
794.765	215.55
794.945	125.44
795.126	219.64
795.306	154.11
795.487	145.92
795.667	133.63
795.848	123.39
796.028	94.72
796.209	199.16
796.389	221.69
796.57	176.64
796.75	123.39
796.93	96.77
797.111	164.35
797.291	176.64
797.471	102.91
797.652	127.49
797.832	70.14
798.012	135.68
798.192	115.2
798.373	107.01
798.553	90.62
798.733	213.5
798.913	152.06
799.093	90.62
799.274	100.86
799.454	135.68
799.634	176.64
799.814	156.16
799.994	109.05
800.174	158.21
800.354	121.34
800.534	119.29
800.714	86.53
800.894	188.93
801.074	186.88
801.254	147.97
801.434	137.73
801.614	133.63
801.794	123.39
801.974	406.01
802.154	107.01
802.334	143.87
802.514	119.29
802.693	182.78
802.873	125.44
803.053	141.82
803.233	129.53
803.413	186.88
803.592	90.62
803.772	115.2
803.952	147.97
804.131	121.34
804.311	86.53
804.491	104.96
804.67	100.86
804.85	150.01
805.03	98.81
805.209	121.34
805.389	100.86
805.568	141.82
805.748	94.72
805.928	121.34
806.107	100.86
806.287	119.29
806.466	104.96
806.646	141.82
806.825	45.57
807.004	164.35
807.184	61.95
807.363	90.62
807.543	59.9
807.722	41.47
807.901	164.35
808.081	41.47
808.26	98.81
808.439	74.24
808.619	20.99
808.798	121.34
808.977	59.9
809.156	125.44
809.336	102.91
809.515	131.58
809.694	53.76
809.873	27.14
810.052	59.9
810.231	78.33
810.411	55.81
810.59	86.53
810.769	92.67
810.948	125.44
811.127	29.18
811.306	84.48
811.485	131.58
811.664	102.91
811.843	123.39
812.022	-32.26
812.201	137.73
812.38	141.82
812.559	57.86
812.737	125.44
812.916	57.86
813.095	76.29
813.274	61.95
813.453	64
813.632	35.33
813.811	117.25
813.989	12.8
814.168	55.81
814.347	98.81
814.526	53.76
814.704	100.86
814.883	41.47
815.062	55.81
815.24	84.48
815.419	76.29
815.598	18.94
815.776	33.28
815.955	98.81
816.133	43.52
816.312	10.75
816.49	64
816.669	94.72
816.847	86.53
817.026	8.7
817.204	55.81
817.383	70.14
817.561	31.23
817.74	20.99
817.918	162.3
818.097	123.39
818.275	18.94
818.453	131.58
818.632	70.14
818.81	80.38
818.988	25.09
819.167	82.43
819.345	55.81
819.523	72.19
819.701	43.52
819.879	92.67
820.058	109.05
820.236	-1.54
820.414	143.87
820.592	92.67
820.77	64
820.948	80.38
821.127	78.33
821.305	88.57
821.483	47.62
821.661	90.62
821.839	31.23
822.017	125.44
822.195	35.33
822.373	72.19
822.551	64
822.729	49.66
822.907	74.24
823.085	68.09
823.262	20.99
823.44	66.05
823.618	55.81
823.796	111.1
823.974	35.33
824.152	45.57
824.329	37.38
824.507	12.8
824.685	96.77
824.863	64
825.04	74.24
825.218	86.53
825.396	57.86
825.574	43.52
825.751	33.28
825.929	41.47
826.107	51.71
826.284	66.05
826.462	57.86
826.639	45.57
826.817	0.51
826.994	18.94
827.172	119.29
827.349	141.82
827.527	115.2
827.704	70.14
827.882	18.94
828.059	45.57
828.237	18.94
828.414	78.33
828.591	78.33
828.769	78.33
828.946	41.47
829.124	76.29
829.301	102.91
829.478	109.05
829.655	61.95
829.833	10.75
830.01	51.71
830.187	104.96
830.364	-40.45
830.542	119.29
830.719	37.38
830.896	102.91
831.073	49.66
831.25	37.38
831.427	14.85
831.604	0.51
831.782	107.01
831.959	41.47
832.136	14.85
832.313	113.15
832.49	64
832.667	-36.35
832.844	104.96
833.021	41.47
833.198	121.34
833.374	59.9
833.551	6.66
833.728	76.29
833.905	90.62
834.082	20.99
834.259	66.05
834.436	139.77
834.612	-38.4
834.789	45.57
834.966	61.95
835.143	72.19
835.319	-48.64
835.496	90.62
835.673	64
835.85	25.09
836.026	8.7
836.203	45.57
836.38	37.38
836.556	47.62
836.733	14.85
836.909	33.28
837.086	37.38
837.262	-40.45
837.439	59.9
837.616	29.18
837.792	41.47
837.968	0.51
838.145	2.56
838.321	6.66
838.498	27.14
838.674	-5.63
838.851	64
839.027	18.94
839.203	84.48
839.38	2.56
839.556	18.94
839.732	0.51
839.909	16.9
840.085	8.7
840.261	31.23
840.437	70.14
840.614	14.85
840.79	57.86
840.966	76.29
841.142	14.85
841.318	0.51
841.494	37.38
841.671	31.23
841.847	-13.82
842.023	51.71
842.199	47.62
842.375	57.86
842.551	55.81
842.727	-24.06
842.903	18.94
843.079	72.19
843.255	68.09
843.431	64
843.607	-15.87
843.783	59.9
843.959	-22.02
844.134	-42.5
844.31	59.9
844.486	23.04
844.662	18.94
844.838	27.14
845.013	-7.68
845.189	35.33
845.365	-5.63
845.541	43.52
845.716	10.75
845.892	74.24
846.068	102.91
846.244	8.7
846.419	37.38
846.595	33.28
846.77	57.86
846.946	86.53
847.122	-26.11
847.297	-5.63
847.473	33.28
847.648	18.94
847.824	57.86
847.999	-36.35
848.175	25.09
848.35	55.81
848.526	14.85
848.701	33.28
848.876	-30.21
849.052	39.42
849.227	18.94
849.403	27.14
849.578	-1.54
849.753	35.33
849.929	-22.02
850.104	-58.88
850.279	16.9
850.454	51.71
850.63	41.47
850.805	4.61
850.98	25.09
851.155	2.56
851.33	47.62
851.505	20.99
851.681	88.57
851.856	61.95
852.031	4.61
852.206	-11.78
852.381	45.57
852.556	-36.35
852.731	33.28
852.906	45.57
853.081	0.51
853.256	-24.06
853.431	-3.58
853.606	-34.3
853.781	20.99
853.956	-3.58
854.131	33.28
854.305	78.33
854.48	55.81
854.655	-38.4
854.83	23.04
855.005	-28.16
855.18	29.18
855.354	-5.63
855.529	-5.63
855.704	14.85
855.879	-38.4
856.053	27.14
856.228	45.57
856.403	12.8
856.577	16.9
856.752	-36.35
856.926	2.56
857.101	57.86
857.276	53.76
857.45	59.9
857.625	66.05
857.799	37.38
857.974	-13.82
858.148	-28.16
858.323	59.9
858.497	35.33
858.672	94.72
858.846	-28.16
859.02	-19.97
859.195	2.56
859.369	27.14
859.543	23.04
859.718	-3.58
859.892	-19.97
860.066	18.94
860.241	47.62
860.415	76.29
860.589	70.14
860.763	16.9
860.938	16.9
861.112	10.75
861.286	23.04
861.46	49.66
861.634	-3.58
861.808	76.29
861.982	-13.82
862.157	-13.82
862.331	-26.11
862.505	37.38
862.679	18.94
862.853	25.09
863.027	-44.54
863.201	33.28
863.375	92.67
863.549	33.28
863.722	29.18
863.896	35.33
864.07	18.94
864.244	4.61
864.418	68.09
864.592	33.28
864.766	14.85
864.939	33.28
865.113	-7.68
865.287	0.51
865.461	10.75
865.634	-48.64
865.808	-5.63
865.982	4.61
866.156	-13.82
866.329	2.56
866.503	74.24
866.676	49.66
866.85	8.7
867.024	45.57
867.197	6.66
867.371	35.33
867.544	-56.83
867.718	-5.63
867.891	6.66
868.065	31.23
868.238	31.23
868.412	-1.54
868.585	-52.74
868.759	-13.82
868.932	-36.35
869.105	16.9
869.279	2.56
869.452	43.52
869.625	-9.73
869.799	37.38
869.972	20.99
870.145	-19.97
870.319	23.04
870.492	25.09
870.665	57.86
870.838	20.99
871.011	-46.59
871.185	6.66
871.358	4.61
871.531	78.33
871.704	29.18
871.877	16.9
872.05	0.51
872.223	2.56
872.396	-3.58
872.569	-19.97
872.742	-3.58
872.915	41.47
873.088	0.51
873.261	-11.78
873.434	-13.82
873.607	-7.68
873.78	4.61
873.953	-32.26
874.126	-19.97
874.299	-13.82
874.471	-28.16
874.644	12.8
874.817	-1.54
874.99	-36.35
875.163	16.9
875.335	-7.68
875.508	18.94
875.681	51.71
875.853	37.38
876.026	2.56
876.199	51.71
876.371	57.86
876.544	0.51
876.717	18.94
876.889	-38.4
877.062	2.56
877.234	-42.5
877.407	8.7
877.579	-19.97
877.752	4.61
877.924	2.56
878.097	-9.73
878.269	-9.73
878.442	0.51
878.614	14.85
878.786	8.7
878.959	59.9
879.131	-38.4
879.303	2.56
879.476	18.94
879.648	16.9
879.82	37.38
879.993	25.09
880.165	-48.64
880.337	-65.02
880.509	4.61
880.681	16.9
880.854	-56.83
881.026	-3.58
881.198	74.24
881.37	-81.41
881.542	-5.63
881.714	-65.02
881.886	33.28
882.058	-30.21
882.23	12.8
882.402	-89.6
882.574	74.24
882.746	0.51
882.918	4.61
883.09	4.61
883.262	49.66
883.434	-24.06
883.606	10.75
883.778	70.14
883.95	8.7
884.122	37.38
884.293	12.8
884.465	-5.63
884.637	90.62
884.809	-46.59
884.98	27.14
885.152	-22.02
885.324	33.28
885.496	-48.64
885.667	-46.59
885.839	16.9
886.011	-15.87
886.182	86.53
886.354	66.05
886.525	-17.92
886.697	-56.83
886.869	102.91
887.04	-36.35
887.212	8.7
887.383	35.33
887.555	-56.83
887.726	-13.82
887.897	27.14
888.069	-7.68
888.24	-1.54
888.412	-7.68
888.583	-50.69
888.754	18.94
888.926	66.05
889.097	84.48
889.268	41.47
889.44	57.86
889.611	2.56
889.782	-34.3
889.953	-60.93
890.125	-17.92
890.296	-95.74
890.467	-32.26
890.638	18.94
890.809	57.86
890.98	-26.11
891.151	68.09
891.323	-5.63
891.494	29.18
891.665	12.8
891.836	25.09
892.007	-3.58
892.178	27.14
892.349	-19.97
892.52	41.47
892.691	-9.73
892.862	-5.63
893.032	8.7
893.203	2.56
893.374	41.47
893.545	18.94
893.716	-46.59
893.887	-38.4
894.057	-9.73
894.228	20.99
894.399	-28.16
894.57	29.18
894.74	-22.02
894.911	18.94
895.082	16.9
895.253	76.29
895.423	59.9
895.594	2.56
895.764	25.09
895.935	41.47
896.106	-17.92
896.276	-38.4
896.447	-7.68
896.617	49.66
896.788	84.48
896.958	-19.97
897.129	-7.68
897.299	-77.31
897.47	-26.11
897.64	-24.06
897.81	72.19
897.981	-3.58
898.151	-50.69
898.322	45.57
898.492	-36.35
898.662	-22.02
898.832	-36.35
899.003	-52.74
899.173	27.14
899.343	33.28
899.513	25.09
