Data from USB4F104151__24__13-52-38-963.txt Node

Date: Thu Mar 13 13:52:38 EDT 2025
User: louis
Spectrometer: USB4F10415
Trigger mode: 4
Integration Time (sec): 1.000000E-2
Scans to average: 1
Electric dark correction enabled: true
Nonlinearity correction enabled: false
Boxcar width: 0
XAxis mode: Wavelengths
Number of Pixels in Spectrum: 3648
>>>>>Begin Spectral Data<<<<<
178.204	-50.86
178.424	-50.86
178.644	-50.86
178.864	-100.01
179.084	-48.81
179.304	-42.67
179.524	-46.76
179.744	-52.91
179.964	31.06
180.184	51.54
180.404	-48.81
180.624	12.63
180.844	45.4
181.064	-34.47
181.283	51.54
181.503	-11.95
181.723	45.4
181.943	-50.86
182.163	-13.99
182.383	33.11
182.602	-24.23
182.822	-11.95
183.042	29.01
183.262	-83.63
183.482	-1.71
183.701	-13.99
183.921	24.92
184.141	-16.04
184.361	14.68
184.58	33.11
184.8	0.34
185.02	-13.99
185.239	-5.8
185.459	96.6
185.679	6.49
185.898	37.2
186.118	-26.28
186.338	14.68
186.557	-26.28
186.777	-13.99
186.997	51.54
187.216	-1.71
187.436	49.49
187.655	35.16
187.875	8.53
188.095	-20.14
188.314	2.39
188.534	78.16
188.753	8.53
188.973	-22.19
189.192	88.4
189.412	-20.14
189.631	-36.52
189.851	-5.8
190.07	86.36
190.29	-59.05
190.509	22.87
190.729	-5.8
190.948	-40.62
191.168	45.4
191.387	0.34
191.607	4.44
191.826	-22.19
192.045	-28.33
192.265	-36.52
192.484	-32.43
192.704	-3.75
192.923	-52.91
193.142	51.54
193.362	-65.19
193.581	53.59
193.8	4.44
194.02	-28.33
194.239	-26.28
194.458	-7.85
194.678	31.06
194.897	63.83
195.116	-42.67
195.335	6.49
195.555	33.11
195.774	6.49
195.993	-18.09
196.212	43.35
196.432	33.11
196.651	-7.85
196.87	-46.76
197.089	-18.09
197.308	-20.14
197.528	20.82
197.747	6.49
197.966	18.77
198.185	12.63
198.404	-46.76
198.623	-7.85
198.842	98.64
199.062	49.49
199.281	33.11
199.5	-71.34
199.719	65.88
199.938	41.3
200.157	33.11
200.376	55.64
200.595	-1.71
200.814	-5.8
201.033	-42.67
201.252	6.49
201.471	45.4
201.69	18.77
201.909	-18.09
202.128	-18.09
202.347	2.39
202.566	-40.62
202.785	14.68
203.004	37.2
203.223	-28.33
203.442	6.49
203.661	-7.85
203.879	35.16
204.098	-9.9
204.317	-5.8
204.536	53.59
204.755	-40.62
204.974	-16.04
205.193	24.92
205.411	14.68
205.63	59.73
205.849	-22.19
206.068	-48.81
206.287	-22.19
206.505	-7.85
206.724	-48.81
206.943	35.16
207.162	57.68
207.381	-34.47
207.599	-28.33
207.818	8.53
208.037	-32.43
208.255	-11.95
208.474	33.11
208.693	-44.71
208.911	-5.8
209.13	14.68
209.349	18.77
209.567	-5.8
209.786	26.96
210.005	82.26
210.223	31.06
210.442	-20.14
210.661	76.12
210.879	-38.57
211.098	-13.99
211.316	29.01
211.535	0.34
211.753	-1.71
211.972	-9.9
212.191	-16.04
212.409	10.58
212.628	-11.95
212.846	133.46
213.065	20.82
213.283	4.44
213.502	-16.04
213.72	51.54
213.938	-1.71
214.157	-16.04
214.375	59.73
214.594	-1.71
214.812	-3.75
215.031	-67.24
215.249	-3.75
215.467	-1.71
215.686	10.58
215.904	16.73
216.122	6.49
216.341	49.49
216.559	45.4
216.778	-3.75
216.996	-52.91
217.214	-61.1
217.432	-1.71
217.651	69.97
217.869	-20.14
218.087	12.63
218.306	-11.95
218.524	57.68
218.742	-20.14
218.96	41.3
219.179	33.11
219.397	-44.71
219.615	-18.09
219.833	6.49
220.051	-38.57
220.27	-16.04
220.488	35.16
220.706	-34.47
220.924	88.4
221.142	22.87
221.36	53.59
221.578	84.31
221.796	16.73
222.015	-34.47
222.233	-57
222.451	47.44
222.669	10.58
222.887	35.16
223.105	-93.87
223.323	-3.75
223.541	-18.09
223.759	-26.28
223.977	-11.95
224.195	35.16
224.413	16.73
224.631	-5.8
224.849	-59.05
225.067	10.58
225.285	-16.04
225.503	-48.81
225.721	4.44
225.939	-16.04
226.157	12.63
226.375	65.88
226.592	-16.04
226.81	55.64
227.028	4.44
227.246	67.92
227.464	-11.95
227.682	-38.57
227.9	-9.9
228.117	-26.28
228.335	2.39
228.553	24.92
228.771	26.96
228.989	-1.71
229.206	14.68
229.424	-16.04
229.642	-9.9
229.86	78.16
230.077	14.68
230.295	-22.19
230.513	-9.9
230.731	67.92
230.948	2.39
231.166	16.73
231.384	-16.04
231.601	22.87
231.819	10.58
232.037	24.92
232.254	6.49
232.472	115.03
232.689	-18.09
232.907	31.06
233.125	-59.05
233.342	57.68
233.56	6.49
233.777	47.44
233.995	-11.95
234.213	104.79
234.43	-40.62
234.648	31.06
234.865	-3.75
235.083	47.44
235.3	33.11
235.518	-63.15
235.735	-3.75
235.953	-9.9
236.17	29.01
236.388	26.96
236.605	63.83
236.822	26.96
237.04	69.97
237.257	-18.09
237.475	4.44
237.692	22.87
237.909	12.63
238.127	63.83
238.344	98.64
238.562	35.16
238.779	-32.43
238.996	-3.75
239.214	45.4
239.431	18.77
239.648	-9.9
239.865	18.77
240.083	20.82
240.3	10.58
240.517	33.11
240.735	57.68
240.952	-28.33
241.169	-5.8
241.386	-42.67
241.603	41.3
241.821	-1.71
242.038	84.31
242.255	16.73
242.472	6.49
242.689	33.11
242.907	72.02
243.124	-40.62
243.341	43.35
243.558	-7.85
243.775	10.58
243.992	57.68
244.209	22.87
244.426	59.73
244.643	4.44
244.86	-7.85
245.078	-16.04
245.295	-1.71
245.512	-7.85
245.729	-9.9
245.946	26.96
246.163	8.53
246.38	-63.15
246.597	-48.81
246.814	10.58
247.031	53.59
247.248	74.07
247.464	-11.95
247.681	55.64
247.898	57.68
248.115	57.68
248.332	20.82
248.549	8.53
248.766	26.96
248.983	-34.47
249.2	31.06
249.417	-44.71
249.633	26.96
249.85	45.4
250.067	92.5
250.284	16.73
250.501	-11.95
250.717	6.49
250.934	-5.8
251.151	16.73
251.368	45.4
251.585	86.36
251.801	-44.71
252.018	-9.9
252.235	-38.57
252.451	24.92
252.668	12.63
252.885	-9.9
253.102	53.59
253.318	-42.67
253.535	37.2
253.752	39.25
253.968	47.44
254.185	53.59
254.401	14.68
254.618	55.64
254.835	18.77
255.051	33.11
255.268	-1.71
255.484	-30.38
255.701	61.78
255.917	57.68
256.134	-24.23
256.351	37.2
256.567	31.06
256.784	49.49
257	-42.67
257.217	18.77
257.433	22.87
257.65	24.92
257.866	94.55
258.082	43.35
258.299	-44.71
258.515	41.3
258.732	-71.34
258.948	14.68
259.165	2.39
259.381	29.01
259.597	-26.28
259.814	45.4
260.03	49.49
260.246	63.83
260.463	-28.33
260.679	22.87
260.895	18.77
261.112	35.16
261.328	20.82
261.544	-26.28
261.761	-9.9
261.977	78.16
262.193	-7.85
262.409	8.53
262.626	-1.71
262.842	4.44
263.058	-38.57
263.274	-9.9
263.49	43.35
263.707	2.39
263.923	-26.28
264.139	14.68
264.355	-24.23
264.571	-24.23
264.787	-65.19
265.004	31.06
265.22	45.4
265.436	37.2
265.652	123.22
265.868	-32.43
266.084	57.68
266.3	-30.38
266.516	29.01
266.732	20.82
266.948	2.39
267.164	59.73
267.38	-16.04
267.596	41.3
267.812	-18.09
268.028	-5.8
268.244	53.59
268.46	47.44
268.676	10.58
268.892	-9.9
269.108	8.53
269.324	-57
269.54	-26.28
269.756	-46.76
269.972	55.64
270.188	20.82
270.403	6.49
270.619	-22.19
270.835	-32.43
271.051	8.53
271.267	-34.47
271.483	78.16
271.698	-1.71
271.914	45.4
272.13	33.11
272.346	57.68
272.562	-48.81
272.777	4.44
272.993	-40.62
273.209	63.83
273.425	31.06
273.64	45.4
273.856	49.49
274.072	-9.9
274.287	45.4
274.503	-22.19
274.719	-32.43
274.934	-38.57
275.15	37.2
275.366	39.25
275.581	63.83
275.797	-3.75
276.012	-1.71
276.228	16.73
276.444	-24.23
276.659	-69.29
276.875	43.35
277.09	31.06
277.306	-11.95
277.521	-13.99
277.737	2.39
277.952	0.34
278.168	72.02
278.383	106.84
278.599	-18.09
278.814	43.35
279.03	-5.8
279.245	-5.8
279.461	-22.19
279.676	14.68
279.892	59.73
280.107	-40.62
280.322	6.49
280.538	-9.9
280.753	-30.38
280.969	-40.62
281.184	37.2
281.399	-11.95
281.615	20.82
281.83	31.06
282.045	86.36
282.26	4.44
282.476	-30.38
282.691	26.96
282.906	-20.14
283.122	53.59
283.337	-38.57
283.552	90.45
283.767	-69.29
283.983	53.59
284.198	-32.43
284.413	-42.67
284.628	-26.28
284.843	4.44
285.058	22.87
285.274	47.44
285.489	12.63
285.704	4.44
285.919	-9.9
286.134	16.73
286.349	-26.28
286.564	-13.99
286.779	39.25
286.995	98.64
287.21	-16.04
287.425	12.63
287.64	39.25
287.855	88.4
288.07	39.25
288.285	22.87
288.5	26.96
288.715	-7.85
288.93	37.2
289.145	-16.04
289.36	16.73
289.575	53.59
289.79	37.2
290.004	-46.76
290.219	6.49
290.434	43.35
290.649	41.3
290.864	-30.38
291.079	18.77
291.294	16.73
291.509	-7.85
291.724	10.58
291.938	51.54
292.153	49.49
292.368	-40.62
292.583	80.21
292.798	6.49
293.012	10.58
293.227	-13.99
293.442	102.74
293.657	-13.99
293.871	47.44
294.086	-16.04
294.301	63.83
294.516	33.11
294.73	43.35
294.945	29.01
295.16	4.44
295.374	31.06
295.589	33.11
295.804	-42.67
296.018	31.06
296.233	26.96
296.447	-13.99
296.662	51.54
296.877	20.82
297.091	31.06
297.306	22.87
297.52	12.63
297.735	-24.23
297.949	-11.95
298.164	-28.33
298.378	43.35
298.593	12.63
298.807	37.2
299.022	76.12
299.236	41.3
299.451	24.92
299.665	6.49
299.88	-34.47
300.094	127.32
300.309	26.96
300.523	-1.71
300.737	74.07
300.952	22.87
301.166	37.2
301.381	31.06
301.595	24.92
301.809	57.68
302.024	53.59
302.238	18.77
302.452	37.2
302.667	-57
302.881	74.07
303.095	-9.9
303.309	72.02
303.524	24.92
303.738	-18.09
303.952	-26.28
304.166	-28.33
304.381	37.2
304.595	14.68
304.809	-11.95
305.023	55.64
305.237	-9.9
305.452	74.07
305.666	106.84
305.88	47.44
306.094	24.92
306.308	72.02
306.522	76.12
306.736	88.4
306.95	-28.33
307.164	35.16
307.379	35.16
307.593	-9.9
307.807	-1.71
308.021	-13.99
308.235	67.92
308.449	-20.14
308.663	74.07
308.877	33.11
309.091	-32.43
309.305	47.44
309.519	-52.91
309.733	2.39
309.947	0.34
310.161	18.77
310.374	41.3
310.588	2.39
310.802	-30.38
311.016	-46.76
311.23	31.06
311.444	47.44
311.658	57.68
311.872	47.44
312.085	39.25
312.299	69.97
312.513	22.87
312.727	51.54
312.941	-54.95
313.154	-38.57
313.368	4.44
313.582	33.11
313.796	10.58
314.009	69.97
314.223	29.01
314.437	-13.99
314.651	24.92
314.864	49.49
315.078	41.3
315.292	94.55
315.505	-63.15
315.719	24.92
315.933	-9.9
316.146	61.78
316.36	-79.53
316.573	51.54
316.787	67.92
317.001	-1.71
317.214	53.59
317.428	67.92
317.641	-34.47
317.855	22.87
318.068	74.07
318.282	6.49
318.495	29.01
318.709	-24.23
318.922	-3.75
319.136	-36.52
319.349	16.73
319.563	0.34
319.776	37.2
319.99	2.39
320.203	65.88
320.417	-50.86
320.63	45.4
320.843	39.25
321.057	53.59
321.27	-34.47
321.483	61.78
321.697	84.31
321.91	33.11
322.124	45.4
322.337	-9.9
322.55	-28.33
322.763	18.77
322.977	-3.75
323.19	59.73
323.403	61.78
323.617	0.34
323.83	6.49
324.043	4.44
324.256	6.49
324.469	45.4
324.683	43.35
324.896	20.82
325.109	2.39
325.322	-22.19
325.535	24.92
325.748	82.26
325.962	-13.99
326.175	-34.47
326.388	-42.67
326.601	-9.9
326.814	49.49
327.027	-24.23
327.24	59.73
327.453	18.77
327.666	49.49
327.879	82.26
328.092	2.39
328.305	55.64
328.518	22.87
328.731	31.06
328.944	26.96
329.157	22.87
329.37	2.39
329.583	8.53
329.796	33.11
330.009	43.35
330.222	24.92
330.435	14.68
330.648	6.49
330.861	-38.57
331.073	72.02
331.286	0.34
331.499	33.11
331.712	4.44
331.925	-40.62
332.138	-87.72
332.35	43.35
332.563	41.3
332.776	86.36
332.989	-5.8
333.202	-44.71
333.414	61.78
333.627	74.07
333.84	0.34
334.053	2.39
334.265	84.31
334.478	-30.38
334.691	22.87
334.903	-16.04
335.116	98.64
335.329	-67.24
335.541	-1.71
335.754	0.34
335.966	31.06
336.179	41.3
336.392	51.54
336.604	55.64
336.817	84.31
337.029	51.54
337.242	61.78
337.454	26.96
337.667	29.01
337.88	-24.23
338.092	24.92
338.305	37.2
338.517	22.87
338.729	0.34
338.942	4.44
339.154	63.83
339.367	26.96
339.579	41.3
339.792	-3.75
340.004	26.96
340.217	41.3
340.429	51.54
340.641	-81.58
340.854	65.88
341.066	-26.28
341.278	59.73
341.491	22.87
341.703	-26.28
341.915	-28.33
342.128	39.25
342.34	49.49
342.552	41.3
342.764	12.63
342.977	69.97
343.189	-13.99
343.401	39.25
343.613	78.16
343.826	-26.28
344.038	-13.99
344.25	63.83
344.462	76.12
344.674	49.49
344.886	-52.91
345.099	26.96
345.311	33.11
345.523	76.12
345.735	-36.52
345.947	72.02
346.159	2.39
346.371	37.2
346.583	-9.9
346.795	41.3
347.007	-5.8
347.219	53.59
347.431	-11.95
347.643	45.4
347.855	-30.38
348.067	-18.09
348.279	72.02
348.491	4.44
348.703	-11.95
348.915	41.3
349.127	22.87
349.339	26.96
349.551	-9.9
349.763	0.34
349.975	-48.81
350.187	-24.23
350.399	18.77
350.61	35.16
350.822	-46.76
351.034	69.97
351.246	-26.28
351.458	90.45
351.669	18.77
351.881	-18.09
352.093	2.39
352.305	24.92
352.517	78.16
352.728	39.25
352.94	74.07
353.152	49.49
353.363	49.49
353.575	49.49
353.787	6.49
353.999	35.16
354.21	-5.8
354.422	39.25
354.633	39.25
354.845	88.4
355.057	-16.04
355.268	6.49
355.48	39.25
355.692	57.68
355.903	55.64
356.115	20.82
356.326	67.92
356.538	78.16
356.749	20.82
356.961	18.77
357.172	2.39
357.384	78.16
357.595	45.4
357.807	43.35
358.018	31.06
358.23	12.63
358.441	18.77
358.653	-81.58
358.864	-5.8
359.075	-7.85
359.287	-65.19
359.498	39.25
359.709	-11.95
359.921	33.11
360.132	37.2
360.344	39.25
360.555	16.73
360.766	33.11
360.977	-13.99
361.189	-30.38
361.4	-28.33
361.611	24.92
361.823	-16.04
362.034	41.3
362.245	74.07
362.456	-40.62
362.667	16.73
362.879	-48.81
363.09	-13.99
363.301	49.49
363.512	14.68
363.723	22.87
363.935	63.83
364.146	47.44
364.357	-11.95
364.568	76.12
364.779	-7.85
364.99	82.26
365.201	-42.67
365.412	37.2
365.623	-36.52
365.834	14.68
366.045	31.06
366.256	16.73
366.467	45.4
366.678	43.35
366.889	10.58
367.1	26.96
367.311	29.01
367.522	78.16
367.733	26.96
367.944	-9.9
368.155	72.02
368.366	12.63
368.577	112.98
368.788	0.34
368.999	-9.9
369.209	35.16
369.42	18.77
369.631	63.83
369.842	-24.23
370.053	45.4
370.264	82.26
370.474	96.6
370.685	-16.04
370.896	-36.52
371.107	129.36
371.317	153.94
371.528	59.73
371.739	86.36
371.95	53.59
372.16	49.49
372.371	20.82
372.582	59.73
372.792	35.16
373.003	49.49
373.214	31.06
373.424	80.21
373.635	49.49
373.846	35.16
374.056	-30.38
374.267	63.83
374.477	10.58
374.688	37.2
374.898	47.44
375.109	-5.8
375.319	4.44
375.53	67.92
375.74	84.31
375.951	14.68
376.161	-5.8
376.372	43.35
376.582	-30.38
376.793	86.36
377.003	-11.95
377.214	63.83
377.424	-42.67
377.635	-34.47
377.845	74.07
378.055	61.78
378.266	16.73
378.476	33.11
378.686	29.01
378.897	2.39
379.107	-16.04
379.317	57.68
379.528	-18.09
379.738	22.87
379.948	26.96
380.158	80.21
380.369	-32.43
380.579	16.73
380.789	41.3
380.999	78.16
381.21	51.54
381.42	37.2
381.63	39.25
381.84	4.44
382.05	20.82
382.261	63.83
382.471	-1.71
382.681	47.44
382.891	78.16
383.101	39.25
383.311	20.82
383.521	37.2
383.731	24.92
383.941	47.44
384.151	67.92
384.361	88.4
384.571	31.06
384.781	49.49
384.991	22.87
385.201	96.6
385.411	43.35
385.621	-5.8
385.831	24.92
386.041	49.49
386.251	39.25
386.461	72.02
386.671	6.49
386.881	26.96
387.091	108.88
387.301	82.26
387.511	-1.71
387.72	39.25
387.93	29.01
388.14	-54.95
388.35	2.39
388.56	92.5
388.769	14.68
388.979	31.06
389.189	-22.19
389.399	92.5
389.609	26.96
389.818	31.06
390.028	-40.62
390.238	78.16
390.447	37.2
390.657	92.5
390.867	8.53
391.076	-36.52
391.286	78.16
391.496	43.35
391.705	0.34
391.915	59.73
392.125	51.54
392.334	20.82
392.544	41.3
392.753	41.3
392.963	-26.28
393.172	106.84
393.382	-1.71
393.591	67.92
393.801	51.54
394.01	80.21
394.22	14.68
394.429	22.87
394.639	-7.85
394.848	47.44
395.058	43.35
395.267	92.5
395.477	65.88
395.686	33.11
395.895	117.08
396.105	63.83
396.314	80.21
396.524	10.58
396.733	53.59
396.942	12.63
397.152	129.36
397.361	35.16
397.57	43.35
397.78	74.07
397.989	22.87
398.198	39.25
398.407	45.4
398.617	29.01
398.826	108.88
399.035	37.2
399.244	26.96
399.453	117.08
399.663	84.31
399.872	129.36
400.081	10.58
400.29	43.35
400.499	80.21
400.708	86.36
400.917	6.49
401.127	37.2
401.336	65.88
401.545	22.87
401.754	119.12
401.963	74.07
402.172	117.08
402.381	115.03
402.59	67.92
402.799	151.89
403.008	33.11
403.217	90.45
403.426	139.6
403.635	69.97
403.844	49.49
404.053	94.55
404.262	31.06
404.471	92.5
404.68	110.93
404.888	53.59
405.097	104.79
405.306	108.88
405.515	117.08
405.724	139.6
405.933	82.26
406.142	127.32
406.35	117.08
406.559	94.55
406.768	155.99
406.977	158.03
407.185	133.46
407.394	170.32
407.603	108.88
407.812	108.88
408.02	104.79
408.229	149.84
408.438	119.12
408.646	90.45
408.855	260.43
409.064	158.03
409.272	147.8
409.481	133.46
409.69	246.1
409.898	51.54
410.107	205.14
410.315	254.29
410.524	162.13
410.733	233.81
410.941	217.43
411.15	209.23
411.358	153.94
411.567	246.1
411.775	248.15
411.984	227.67
412.192	383.31
412.401	287.06
412.609	285.01
412.818	225.62
413.026	332.11
413.234	377.17
413.443	346.45
413.651	362.83
413.86	350.54
414.068	399.7
414.276	371.02
414.485	385.36
414.693	389.46
414.901	409.94
415.11	477.52
415.318	477.52
415.526	444.75
415.734	512.33
415.943	504.14
416.151	516.43
416.359	528.72
416.567	606.54
416.776	610.64
416.984	543.05
417.192	567.63
417.4	610.64
417.608	641.36
417.817	618.83
418.025	678.22
418.233	794.95
418.441	725.32
418.649	899.4
418.857	823.62
419.065	926.02
419.273	833.86
419.481	792.91
419.689	987.46
419.897	1053
420.105	987.46
420.313	1069.38
420.521	1044.81
420.729	1038.66
420.937	1110.34
421.145	1214.79
421.353	1163.59
421.561	1171.78
421.769	1306.95
421.977	1378.62
422.185	1419.58
422.393	1503.55
422.601	1511.74
422.809	1575.23
423.017	1481.02
423.224	1630.52
423.432	1622.33
423.64	1562.94
423.848	1765.69
424.056	1710.4
424.263	2001.21
424.471	1966.39
424.679	1790.27
424.887	2029.88
425.094	1970.49
425.302	2042.17
425.51	2220.34
425.718	2206
425.925	2150.71
426.133	2332.98
426.341	2439.47
426.548	2531.63
426.756	2562.35
426.964	2611.5
427.171	2758.96
427.379	3057.96
427.586	2922.79
427.794	3060.01
428.001	3100.97
428.209	3219.75
428.417	3164.45
428.624	3301.67
428.832	3522.85
429.039	3391.78
429.247	3363.11
429.454	3631.39
429.662	3967.26
429.869	3582.24
430.076	4186.39
430.284	3801.37
430.491	4170.01
430.699	4213.01
430.906	4184.34
431.114	4231.44
431.321	4516.11
431.528	4604.18
431.736	4815.12
431.943	5089.54
432.15	4878.6
432.358	4931.85
432.565	5177.61
432.772	5325.06
432.979	5536
433.187	5845.24
433.394	5622.02
433.601	5939.45
433.808	6113.53
434.016	6123.77
434.223	6328.56
434.43	6691.06
434.637	6553.84
434.844	6953.2
435.052	7018.73
435.259	7080.17
435.466	6949.1
435.673	7284.97
435.88	7497.95
436.087	7809.25
436.294	7921.88
436.501	7786.72
436.708	7811.29
436.915	8282.33
437.122	8480.98
437.329	8444.12
437.537	8761.55
437.743	8990.92
437.95	8896.72
438.157	9277.64
438.364	9590.98
438.571	9531.59
438.778	9447.62
438.985	10516.66
439.192	10121.4
439.399	10535.09
439.606	10381.49
439.813	10805.42
440.02	11288.75
440.227	11262.12
440.433	11276.46
440.64	11526.31
440.847	11442.34
441.054	11563.17
441.261	12624.02
441.467	12355.74
441.674	12312.73
441.881	12867.73
442.088	13060.24
442.294	12875.92
442.501	13082.77
442.708	13518.98
442.914	13981.82
443.121	14745.72
443.328	14295.16
443.534	15282.28
443.741	14893.17
443.948	14811.25
444.154	15732.84
444.361	15505.51
444.568	15566.95
444.774	15825
444.981	15896.67
445.187	16111.71
445.394	16961.62
445.6	17006.67
445.807	18446.4
446.013	17666.12
446.22	18155.58
446.426	18841.65
446.633	18796.6
446.839	19470.38
447.046	18700.34
447.252	19851.3
447.459	19910.69
447.665	19701.8
447.871	20613.15
448.078	21579.79
448.284	20561.95
448.491	20787.22
448.697	21819.4
448.903	22255.62
449.11	22126.6
449.316	22032.39
449.522	22181.89
449.728	22722.55
449.935	23126
450.141	23154.68
450.347	23547.89
450.553	22777.85
450.76	23396.34
450.966	23592.94
451.172	23554.03
451.378	24252.39
451.584	23400.43
451.791	24307.68
451.997	23881.7
452.203	24610.78
452.409	24522.72
452.615	24133.61
452.821	23674.86
453.027	23017.46
453.233	24715.23
453.44	23498.73
453.646	23756.78
453.852	23590.89
454.058	24031.21
454.264	23511.02
454.47	23883.75
454.676	23103.48
454.882	24121.32
455.088	21917.7
455.294	22214.66
455.5	22595.58
455.705	22847.48
455.911	21751.82
456.117	21626.89
456.323	21141.52
456.529	20303.9
456.735	21024.79
456.941	20316.19
457.147	19832.87
457.352	19376.17
457.558	19144.75
457.764	19167.28
457.97	18894.9
458.176	18380.86
458.381	18380.86
458.587	17651.78
458.793	17541.19
458.999	16828.5
459.204	18047.04
459.41	17289.29
459.616	16160.86
459.821	15927.39
460.027	15923.3
460.233	15900.77
460.438	15028.34
460.644	15239.28
460.85	14459
461.055	14323.83
461.261	14358.65
461.466	13123.73
461.672	13000.85
461.878	13887.62
462.083	12652.69
462.289	12554.39
462.494	12372.12
462.7	11894.94
462.905	11751.59
463.111	12331.16
463.316	12122.27
463.522	12126.36
463.727	11610.28
463.932	11927.71
464.138	11905.18
464.343	11813.03
464.549	11518.12
464.754	11896.99
464.959	11983.01
465.165	11552.93
465.37	11180.2
465.575	11102.38
465.781	11272.36
465.986	11202.73
466.191	11016.37
466.397	10815.66
466.602	10369.21
466.807	10891.44
467.012	10490.04
467.218	10561.72
467.423	10522.8
467.628	10561.72
467.833	11262.12
468.038	10621.11
468.244	10293.43
468.449	10674.35
468.654	10291.38
468.859	10338.49
469.064	10090.68
469.269	9869.5
469.474	9754.82
469.679	10064.06
469.885	9863.36
470.09	9994.43
470.295	10064.06
470.5	9789.63
470.705	9765.06
470.91	9556.16
471.115	9439.43
471.32	9607.36
471.525	9482.44
471.73	9169.1
471.935	9261.26
472.139	9081.03
472.344	9119.95
472.549	9035.98
472.754	8931.53
472.959	8673.49
473.164	8480.98
473.369	8339.67
473.574	8788.18
473.778	8734.93
473.983	8444.12
474.188	8728.78
474.393	8132.83
474.598	8204.5
474.802	8036.57
475.007	8118.49
475.212	8093.91
475.417	7700.7
475.621	7678.18
475.826	7829.73
476.031	7622.88
476.235	7551.2
476.44	7606.5
476.645	7545.06
476.849	7637.22
477.054	7520.48
477.259	7203.05
477.463	7368.93
477.668	7092.46
477.872	7258.34
478.077	7000.3
478.282	6830.32
478.486	6934.76
478.691	6727.92
478.895	6830.32
479.1	6703.34
479.304	6777.07
479.509	6519.03
479.713	6723.82
479.918	6576.37
480.122	6455.54
480.326	6713.58
480.531	6686.96
480.735	6459.63
480.94	6662.38
481.144	6492.4
481.348	6316.28
481.553	6482.16
481.757	6269.17
481.961	6166.78
482.166	6437.11
482.37	6437.11
482.574	6152.44
482.778	6254.84
482.983	6508.79
483.187	6502.64
483.391	6400.24
483.595	6347
483.8	6258.93
484.004	6301.94
484.208	6338.8
484.412	6320.37
484.616	6437.11
484.821	6488.31
485.025	6136.06
485.229	6287.61
485.433	6207.73
485.637	6256.89
485.841	6332.66
486.045	6441.2
486.249	6410.48
486.453	6250.74
486.657	6273.27
486.861	6504.69
487.065	6277.37
487.269	6283.51
487.473	6222.07
487.677	6457.59
487.881	6357.24
488.085	6308.09
488.289	6363.38
488.493	6408.44
488.697	6527.22
488.901	6334.71
489.105	6459.63
489.309	6445.3
489.512	6455.54
489.716	6490.35
489.92	6547.7
490.124	6379.76
490.328	6693.1
490.531	6523.12
490.735	6465.78
490.939	6586.61
491.143	6590.7
491.346	6592.75
491.55	6523.12
491.754	6664.43
491.958	6844.65
492.161	6734.06
492.365	6779.12
492.569	6729.97
492.772	6844.65
492.976	6838.51
493.18	6971.63
493.383	7176.42
493.587	7100.65
493.79	7291.11
493.994	7057.64
494.197	7153.9
494.401	7157.99
494.605	7321.83
494.808	7319.78
495.012	7252.2
495.215	7403.75
495.419	7536.87
495.622	7500
495.825	7618.79
496.029	7624.93
496.232	7856.35
496.436	7864.54
496.639	8081.63
496.843	7993.56
497.046	7985.37
497.249	8059.1
497.453	8216.79
497.656	8265.94
497.859	8417.49
498.063	8610
498.266	8593.62
498.469	8536.28
498.673	8732.88
498.876	8825.04
499.079	8902.86
499.282	8927.44
499.485	9273.54
499.689	9365.7
499.892	9337.03
500.095	9345.22
500.298	9601.22
500.501	9488.58
500.705	9820.35
500.908	9988.28
501.111	10170.55
501.314	9892.03
501.517	10422.45
501.72	10457.27
501.923	10528.95
502.126	10578.1
502.329	10770.61
502.532	10954.93
502.735	10965.17
502.938	11294.89
503.141	11176.11
503.344	11919.52
503.547	11679.91
503.75	11862.18
503.953	11944.1
504.156	12140.7
504.359	12021.92
504.562	12216.47
504.765	12458.14
504.968	12558.49
505.17	12920.98
505.373	12945.55
505.576	13355.15
505.779	13394.06
505.982	13738.12
506.185	13801.6
506.387	13949.06
506.59	13996.16
506.793	14409.85
506.996	14196.86
507.198	14594.17
507.401	14776.44
507.604	14891.12
507.807	15302.76
508.009	15429.74
508.212	15282.28
508.415	15843.43
508.617	15808.61
508.82	15978.59
509.022	15951.97
509.225	16494.68
509.428	16746.58
509.63	16726.1
509.833	16799.83
510.035	17360.97
510.238	17315.92
510.44	17596.49
510.643	17954.88
510.845	18217.02
511.048	17905.73
511.25	18411.58
511.453	18466.88
511.655	19154.99
511.858	19019.83
512.06	19433.52
512.262	19537.96
512.465	19642.41
512.667	19804.2
512.87	20035.62
513.072	20185.12
513.274	20785.18
513.477	21045.27
513.679	21155.86
513.881	21583.88
514.084	21786.63
514.286	22116.36
514.488	22081.54
514.69	22372.35
514.893	22960.12
515.095	22913.02
515.297	23144.44
515.499	23427.06
515.701	23611.37
515.904	24186.85
516.106	24354.79
516.308	24268.77
516.51	24719.32
516.712	24930.26
516.914	24895.45
517.116	25690.06
517.318	25438.16
517.52	26204.1
517.722	26263.49
517.925	26460.1
518.127	27084.73
518.329	27123.64
518.531	26986.43
518.733	28141.48
518.935	27883.44
519.136	27994.03
519.338	28495.78
519.54	28704.67
519.742	29378.45
519.944	29452.18
520.146	29880.21
520.348	30021.52
520.55	29900.69
520.752	30314.37
520.954	31033.21
521.155	30556.04
521.357	31203.19
521.559	31600.5
521.761	31772.53
521.963	32077.68
522.164	32302.95
522.366	32259.95
522.568	33032.03
522.77	32788.32
522.971	33527.64
523.173	33310.55
523.375	33445.72
523.576	33568.6
523.778	33627.99
523.98	34389.83
524.181	34279.24
524.383	34660.16
524.584	35225.4
524.786	35174.2
524.988	35280.7
525.189	35780.4
525.391	35827.51
525.592	36017.97
525.794	36128.56
525.995	36310.83
526.197	36204.33
526.398	36534.06
526.6	36386.6
526.801	37166.88
527.003	37197.6
527.204	36859.68
527.406	37424.92
527.607	37273.37
527.808	37846.8
528.01	37359.39
528.211	37902.1
528.412	38592.26
528.614	38035.22
528.815	38010.64
529.016	38780.68
529.218	38027.03
529.419	38446.86
529.62	38848.26
529.822	38524.68
530.023	38924.04
530.224	39089.92
530.425	38954.75
530.626	38643.46
530.828	38815.49
531.029	39763.7
531.23	39104.26
531.431	39401.21
531.632	39419.64
531.833	39472.89
532.035	39745.27
532.236	39663.35
532.437	40001.27
532.638	39632.63
532.839	39722.74
533.04	40050.42
533.241	39810.81
533.442	40255.22
533.643	40036.08
533.844	39444.22
534.045	40068.85
534.246	39874.29
534.447	40335.09
534.648	39997.17
534.849	40576.75
535.05	39945.97
535.251	40353.52
535.451	39778.04
535.652	40472.3
535.853	40210.16
536.054	40273.65
536.255	40427.24
536.456	39892.72
536.657	40787.69
536.857	40777.45
537.058	40689.38
537.259	40304.37
537.46	40423.15
537.66	40355.57
537.861	40503.02
538.062	40177.39
538.263	40546.03
538.463	40294.13
538.664	40523.5
538.865	40548.07
539.065	40910.57
539.266	40171.25
539.466	40802.02
539.667	39976.69
539.868	41064.16
540.068	40756.97
540.269	40378.09
540.469	40795.88
540.67	40429.29
540.87	40701.67
541.071	40300.27
541.271	40963.81
541.472	40638.19
541.672	40306.41
541.873	40355.57
542.073	39952.12
542.274	40724.2
542.474	40156.91
542.675	39964.4
542.875	40972
543.075	40591.08
543.276	40304.37
543.476	40732.39
543.676	40066.8
543.877	40441.58
544.077	40509.16
544.277	40519.4
544.478	40120.05
544.678	40701.67
544.878	40267.5
545.078	40584.94
545.279	40066.8
545.479	40236.78
545.679	40365.81
545.879	40578.79
546.079	40763.11
546.28	40410.86
546.48	40042.23
546.68	40204.02
546.88	40683.24
547.08	40374
547.28	40394.48
547.48	40371.95
547.68	40369.9
547.88	40539.88
548.081	40644.33
548.281	40212.21
548.481	40320.75
548.681	40697.58
548.881	40468.2
549.081	40519.4
549.28	40384.24
549.48	40382.19
549.68	40546.03
549.88	40777.45
550.08	40570.6
550.28	40509.16
550.48	40322.8
550.68	40902.37
550.88	40005.36
551.08	40486.64
551.279	40285.93
551.479	40107.76
551.679	40748.78
551.879	40134.38
552.079	40681.19
552.278	40328.94
552.478	40318.7
552.678	40122.1
552.878	40425.2
553.077	40320.75
553.277	39995.12
553.477	40824.55
553.676	40273.65
553.876	39888.63
554.076	40511.21
554.275	40353.52
554.475	39741.17
554.674	40201.97
554.874	40175.34
555.074	40013.55
555.273	40132.34
555.473	40236.78
555.672	39943.92
555.872	40212.21
556.071	40107.76
556.271	40013.55
556.47	39507.71
556.67	39415.55
556.869	39857.91
557.068	40007.41
557.268	39788.28
557.467	39671.54
557.667	40101.62
557.866	39759.61
558.065	39532.28
558.265	39257.85
558.464	39413.5
558.663	39634.68
558.863	38987.52
559.062	39716.6
559.261	39091.97
559.461	39094.02
559.66	39089.92
559.859	39511.8
560.058	38946.56
560.258	39153.41
560.457	38790.92
560.656	39159.55
560.855	38665.99
561.054	38846.21
561.253	38385.42
561.453	39153.41
561.652	38727.43
561.851	38969.09
562.05	38776.58
562.249	38352.65
562.448	38803.21
562.647	38594.31
562.846	38418.19
563.045	38477.58
563.244	38252.3
563.443	38438.67
563.642	38084.37
563.841	38248.21
564.04	38070.03
564.239	38498.06
564.438	37570.33
564.637	38201.1
564.836	38020.88
565.035	37949.2
565.234	38000.4
565.432	37496.6
565.631	37617.43
565.83	37373.72
566.029	37732.12
566.228	37406.49
566.427	37261.08
566.625	37322.52
566.824	36724.52
567.023	37422.87
567.222	36804.39
567.42	37377.82
567.619	37060.38
567.818	37044
568.016	36667.17
568.215	36972.32
568.414	36658.98
568.612	37125.92
568.811	36261.68
569.01	36745
569.208	36527.91
569.407	36452.14
569.605	35921.71
569.804	36536.1
570.002	35882.8
570.201	36239.15
570.4	36020.02
570.598	35761.97
570.797	35718.96
570.995	35974.96
571.193	35755.83
571.392	36040.5
571.59	35544.89
571.789	35016.51
571.987	35508.02
572.186	35600.18
572.384	35012.42
572.582	34967.36
572.781	35190.59
572.979	34860.87
573.177	34877.25
573.376	35014.46
573.574	34666.31
573.772	35057.47
573.971	34547.53
574.169	34324.3
574.367	34101.07
574.565	34307.91
574.763	34094.93
574.962	33718.1
575.16	33886.03
575.358	34117.45
575.556	33070.94
575.754	34037.58
575.952	33767.25
576.151	33648.47
576.349	33193.82
576.547	33185.63
576.745	33242.97
576.943	33017.69
577.141	33185.63
577.339	32853.86
577.537	32663.39
577.735	32712.55
577.933	32399.21
578.131	32857.95
578.329	32399.21
578.527	32102.25
578.725	32216.94
578.923	32360.3
579.121	32143.21
579.319	32210.79
579.516	32419.69
579.714	31776.62
579.912	31760.24
580.11	31690.61
580.308	31502.2
580.506	31500.15
580.704	31063.93
580.901	31473.53
581.099	31594.36
581.297	30742.4
581.495	30955.39
581.692	30975.87
581.89	30873.47
582.088	31254.39
582.285	31123.32
582.483	30846.85
582.681	30642.05
582.878	30947.2
583.076	30113.67
583.274	30535.56
583.471	30052.23
583.669	30121.87
583.866	30001.04
584.064	30402.44
584.262	29640.59
584.459	30330.76
584.657	29742.99
584.854	29966.22
585.052	29511.57
585.249	29804.43
585.447	29755.28
585.644	29433.75
585.841	29456.28
586.039	29724.56
586.236	28956.57
586.434	29001.63
586.631	28874.65
586.828	29163.42
587.026	28694.43
587.223	28682.14
587.42	28635.04
587.618	28845.98
587.815	28237.73
588.012	28389.28
588.21	28362.66
588.407	28911.52
588.604	28215.21
588.801	28084.14
588.999	28250.02
589.196	27785.13
589.393	28063.66
589.59	27639.73
589.787	27842.48
589.984	27547.57
590.182	27271.09
590.379	27891.63
590.576	27451.31
590.773	27535.28
590.97	27199.41
591.167	27594.67
591.364	26986.43
591.561	27103.16
591.758	26628.03
591.955	26740.67
592.152	27199.41
592.349	27008.95
592.546	26865.6
592.743	26904.51
592.94	26245.06
593.137	26658.75
593.334	26484.67
593.531	26202.05
593.727	26585.02
593.924	26226.63
594.121	26128.33
594.318	26081.22
594.515	25653.2
594.712	26310.6
594.908	25681.87
595.105	26116.04
595.302	25821.13
595.499	25581.52
595.696	25552.85
595.892	25581.52
596.089	25481.17
596.286	25610.19
596.482	25235.41
596.679	24903.64
596.876	25352.15
597.072	25053.14
597.269	24938.46
597.466	25067.48
597.662	25200.6
597.859	25100.25
598.055	24674.27
598.252	24911.83
598.448	24709.08
598.645	24743.9
598.841	24025.06
599.038	24569.82
599.234	24524.77
599.431	24031.21
599.627	24233.96
599.824	24455.14
600.02	23891.94
600.217	24231.91
600.413	23850.99
600.609	23711.72
600.806	23719.92
601.002	23592.94
601.198	23781.35
601.395	23771.11
601.591	23508.97
601.787	23357.42
601.984	23156.72
602.18	23515.12
602.376	23058.42
602.572	23029.75
602.769	23056.37
602.965	22870.01
603.161	23138.29
603.357	22614.01
603.553	23054.33
603.75	22992.89
603.946	22405.12
604.142	22339.58
604.338	22452.22
604.534	22618.11
604.73	22173.7
604.926	22396.93
605.122	22353.92
605.318	22108.16
605.514	21891.08
605.71	21735.43
605.906	21848.07
606.102	21999.62
606.298	21544.97
606.494	21819.4
606.69	21891.08
606.886	21905.42
607.082	20959.25
607.278	21571.6
607.474	21123.09
607.67	21381.14
607.866	21129.23
608.062	21311.5
608.257	20895.77
608.453	21123.09
608.649	20879.38
608.845	20529.18
609.041	20891.67
609.236	20764.7
609.432	20746.26
609.628	20656.15
609.824	20578.33
610.019	20682.78
610.215	20260.9
610.411	20555.8
610.606	20527.13
610.802	20496.41
610.998	20291.62
611.193	20293.66
611.389	20111.39
611.584	20080.67
611.78	20037.67
611.976	20199.46
612.171	20221.98
612.367	20074.53
612.562	19914.79
612.758	19828.77
612.953	19775.53
613.149	19879.97
613.344	19619.88
613.539	20064.29
613.735	19413.04
613.93	19730.47
614.126	19386.41
614.321	19814.44
614.517	19621.93
614.712	19677.23
614.907	19417.13
615.103	19398.7
615.298	19154.99
615.493	19363.89
615.688	19380.27
615.884	19212.34
616.079	18946.1
616.274	18849.85
616.47	19093.55
616.665	18989.11
616.86	18726.97
617.055	18636.86
617.25	18831.41
617.445	18696.25
617.641	18497.6
617.836	18751.54
618.031	18135.1
618.226	18563.13
618.421	18432.06
618.616	18587.71
618.811	18294.85
619.006	18442.3
619.201	18137.15
619.396	18151.49
619.591	17887.3
619.786	18186.3
619.981	17674.31
620.176	17817.67
620.371	17590.34
620.566	17686.6
620.761	17637.45
620.956	17592.39
621.151	17168.46
621.346	17363.02
621.541	17156.18
621.735	17211.47
621.93	16945.23
622.125	17182.8
622.32	16703.57
622.515	16783.45
622.709	16633.94
622.904	16414.81
623.099	16431.19
623.294	16552.02
623.488	16334.94
623.683	16461.91
623.878	16056.42
624.072	16136.29
624.267	16250.97
624.462	15919.2
624.656	15800.42
624.851	15509.61
625.046	15741.03
625.24	15618.15
625.435	15614.06
625.629	15308.91
625.824	15390.83
626.018	15130.73
626.213	14911.6
626.407	15116.4
626.602	14913.65
626.796	15194.22
626.991	14893.17
627.185	14837.87
627.38	14643.32
627.574	14811.25
627.768	14534.78
627.963	14424.19
628.157	14338.17
628.352	14309.5
628.546	14033.02
628.74	14137.47
628.935	13842.56
629.129	14014.59
629.323	13963.39
629.517	13973.63
629.712	13883.52
629.906	13830.27
630.1	13504.65
630.294	13602.95
630.489	13523.08
630.683	13637.77
630.877	13312.14
631.071	13465.74
631.265	13297.8
631.459	13336.71
631.653	13170.83
631.848	12892.3
632.042	13082.77
632.236	12822.67
632.43	12724.37
632.624	12720.28
632.818	12624.02
633.012	12619.92
633.206	12624.02
633.4	12824.72
633.594	12558.49
633.788	12398.74
633.982	12417.18
634.176	12241.05
634.369	12263.58
634.563	12329.11
634.757	12183.71
634.951	12103.84
635.145	11790.5
635.339	11946.14
635.533	12011.68
635.726	11802.79
635.92	11585.7
636.114	11724.96
636.308	11583.65
636.501	11606.18
636.695	11589.8
636.889	11452.58
637.083	11264.17
637.276	11382.95
637.47	11198.63
637.664	11282.6
637.857	11217.07
638.051	11161.77
638.244	10834.1
638.438	10954.93
638.632	10952.88
638.825	10842.29
639.019	10797.23
639.212	10803.38
639.406	10705.07
639.599	10543.28
639.793	10639.54
639.986	10414.26
640.18	10344.63
640.373	10338.49
640.567	10311.86
640.76	10205.37
640.954	10199.23
641.147	10143.93
641.34	10037.44
641.534	10115.26
641.727	10150.07
641.92	9818.3
642.114	9861.31
642.307	9775.3
642.5	9621.7
642.694	9568.45
642.887	9642.18
643.08	9580.74
643.273	9480.39
643.467	9451.72
643.66	9220.3
643.853	9502.92
644.046	9380.04
644.239	9302.22
644.432	9185.48
644.626	9050.32
644.819	8947.92
645.012	9234.63
645.205	8990.92
645.398	9054.41
645.591	8970.44
645.784	8843.47
645.977	8775.89
646.17	8921.29
646.363	8655.06
646.556	8638.67
646.749	8474.84
646.942	8319.19
647.135	8411.35
647.328	8513.75
647.521	8538.32
647.714	8255.7
647.907	8200.41
648.099	8294.61
648.292	8394.97
648.485	8249.56
648.678	8155.35
648.871	7971.04
649.064	8171.74
649.256	8003.8
649.449	7907.55
649.642	7796.96
649.835	7770.33
650.027	7848.16
650.22	7698.66
650.413	7655.65
650.605	7637.22
650.798	7743.71
650.991	7485.67
651.183	7454.95
651.376	7256.29
651.568	7438.56
651.761	7348.45
651.954	7246.05
652.146	7241.96
652.339	7325.93
652.531	7096.55
652.724	7188.71
652.916	7020.78
653.109	7168.23
653.301	6977.77
653.494	6994.15
653.686	6953.2
653.879	6934.76
654.071	6875.37
654.263	6813.93
654.456	6760.69
654.648	6805.74
654.84	6758.64
655.033	6521.07
655.225	6684.91
655.417	6564.08
655.61	6519.03
655.802	6439.16
655.994	6324.47
656.186	6461.68
656.379	6213.88
656.571	6303.99
656.763	6320.37
656.955	6340.85
657.148	6267.13
657.34	6103.29
657.532	6095.1
657.724	6041.85
657.916	6101.24
658.108	6023.42
658.3	5882.11
658.492	5902.59
658.684	5869.82
658.876	5947.64
659.068	5640.45
659.26	5955.83
659.452	5761.28
659.644	5595.39
659.836	5523.71
660.028	5699.84
660.22	5597.44
660.412	5556.48
660.604	5425.41
660.796	5425.41
660.988	5468.42
661.18	5363.97
661.372	5277.96
661.563	5300.48
661.755	5196.04
661.947	5171.46
662.139	5284.1
662.331	5175.56
662.522	4909.32
662.714	5196.04
662.906	5040.39
663.097	5110.02
663.289	4923.66
663.481	5050.63
663.673	4995.34
663.864	4911.37
664.056	4696.33
664.247	4849.93
664.439	4800.78
664.631	4727.05
664.822	4833.55
665.014	4786.44
665.205	4587.79
665.397	4466.96
665.588	4516.11
665.78	4491.54
665.971	4559.12
666.163	4411.67
666.354	4573.46
666.546	4643.09
666.737	4434.19
666.929	4258.07
667.12	4348.18
667.311	4264.21
667.503	4313.36
667.694	4358.42
667.885	4151.57
668.077	4247.83
668.268	4278.55
668.459	4223.25
668.651	4170.01
668.842	4069.66
669.033	4192.53
669.224	4071.7
669.416	4016.41
669.607	4186.39
669.798	4024.6
669.989	4086.04
670.18	4012.31
670.371	4043.03
670.563	4133.14
670.754	3932.44
670.945	4108.57
671.136	3944.73
671.327	3934.49
671.518	3922.2
671.709	3848.47
671.9	3899.67
672.091	3920.15
672.282	3725.6
672.473	3768.6
672.664	3844.38
672.855	3739.93
673.046	3830.04
673.237	3770.65
673.428	3756.32
673.619	3752.22
673.809	3717.4
674	3559.71
674.191	3635.49
674.382	3623.2
674.573	3756.32
674.764	3645.73
674.954	3664.16
675.145	3572
675.336	3576.09
675.527	3688.73
675.717	3528.99
675.908	3526.94
676.099	3442.98
676.289	3406.11
676.48	3600.67
676.671	3408.16
676.861	3393.83
677.052	3430.69
677.243	3465.5
677.433	3488.03
677.624	3549.47
677.814	3350.82
678.005	3352.87
678.195	3223.84
678.386	3418.4
678.576	3354.91
678.767	3354.91
678.957	3391.78
679.148	3383.59
679.338	3311.91
679.529	3219.75
679.719	3293.48
679.909	3322.15
680.1	3438.88
680.29	3297.57
680.481	3393.83
680.671	3258.66
680.861	3273
681.052	3295.52
681.242	3273
681.432	3236.13
681.622	3203.36
681.813	3244.32
682.003	3371.3
682.193	3070.25
682.383	3258.66
682.573	3330.34
682.764	3076.39
682.954	3172.64
683.144	3115.3
683.334	3035.43
683.524	3143.97
683.714	3094.82
683.904	3184.93
684.094	3160.36
684.284	3121.45
684.474	3137.83
684.664	2914.6
684.854	3121.45
685.044	2967.85
685.234	3076.39
685.424	2992.42
685.614	2961.7
685.804	3150.12
685.994	3133.73
686.184	3029.29
686.374	3082.53
686.564	2986.28
686.753	2930.98
686.943	3017
687.133	2933.03
687.323	2965.8
687.513	2957.61
687.702	3014.95
687.892	2941.22
688.082	2994.47
688.272	2904.36
688.461	2980.14
688.651	2875.69
688.841	2824.49
689.03	2963.75
689.22	2847.02
689.41	3023.14
689.599	2978.09
689.789	2945.32
689.979	2963.75
690.168	2947.37
690.358	2863.4
690.547	2949.42
690.737	3088.68
690.926	2887.98
691.116	2855.21
691.305	2894.12
691.495	2912.55
691.684	2961.7
691.874	2877.74
692.063	2863.4
692.252	2879.79
692.442	2898.22
692.631	2867.5
692.82	2785.58
693.01	2857.26
693.199	2763.05
693.388	2890.03
693.578	2849.07
693.767	2900.27
693.956	2830.63
694.146	2855.21
694.335	2801.96
694.524	2930.98
694.713	2761
694.902	2855.21
695.092	2873.64
695.281	2832.68
695.47	2801.96
695.659	2887.98
695.848	2873.64
696.037	2836.78
696.226	2926.89
696.415	2830.63
696.604	2982.18
696.793	2890.03
696.982	2756.91
697.171	2814.25
697.36	2871.59
697.549	2826.54
697.738	2836.78
697.927	2808.11
698.116	2957.61
698.305	2742.57
698.494	2890.03
698.683	2892.07
698.872	2810.15
699.061	2814.25
699.25	2783.53
699.438	2570.54
699.627	2799.91
699.816	2787.63
700.005	2761
700.193	2869.55
700.382	2707.76
700.571	2693.42
700.76	2750.76
700.948	2826.54
701.137	2730.28
701.326	2640.17
701.514	2652.46
701.703	2775.34
701.892	2746.67
702.08	2720.04
702.269	2705.71
702.457	2679.08
702.646	2654.51
702.834	2689.32
703.023	2625.84
703.212	2705.71
703.4	2656.56
703.589	2654.51
703.777	2550.06
703.965	2550.06
704.154	2597.17
704.342	2668.84
704.531	2709.8
704.719	2679.08
704.907	2681.13
705.096	2658.6
705.284	2625.84
705.472	2509.1
705.661	2623.79
705.849	2625.84
706.037	2474.29
706.226	2564.4
706.414	2451.76
706.602	2558.25
706.79	2478.38
706.979	2570.54
707.167	2445.62
707.355	2464.05
707.543	2482.48
707.731	2486.58
707.919	2464.05
708.107	2408.75
708.296	2455.86
708.484	2402.61
708.672	2427.18
708.86	2367.79
709.048	2459.95
709.236	2459.95
709.424	2550.06
709.612	2408.75
709.8	2302.26
709.988	2246.96
710.176	2386.22
710.364	2304.31
710.551	2373.94
710.739	2310.45
710.927	2212.15
711.115	2263.35
711.303	2306.35
711.491	2378.03
711.679	2318.64
711.866	2244.92
712.054	2160.95
712.242	2181.43
712.43	2210.1
712.617	2365.75
712.805	2163
712.993	2267.44
713.181	2218.29
713.368	2201.91
713.556	2171.19
713.744	2146.61
713.931	2193.72
714.119	2099.51
714.306	2079.03
714.494	2091.32
714.682	2220.34
714.869	2027.83
715.057	2062.65
715.244	2064.69
715.432	2058.55
715.619	2058.55
715.807	1980.73
715.994	2189.62
716.182	2066.74
716.369	2134.32
716.556	2064.69
716.744	1956.15
716.931	2031.93
717.119	2044.21
717.306	2021.69
717.493	1945.91
717.681	2107.7
717.868	1814.84
718.055	1950.01
718.242	1823.03
718.43	1929.53
718.617	1882.42
718.804	1997.11
718.991	1888.57
719.179	1894.71
719.366	1950.01
719.553	1925.43
719.74	1837.37
719.927	1820.99
720.114	1796.41
720.301	1931.58
720.488	1868.09
720.676	1820.99
720.863	1794.36
721.05	1777.98
721.237	1784.12
721.424	1728.83
721.611	1790.27
721.798	1798.46
721.985	1812.79
722.172	1739.07
722.358	1876.28
722.545	1685.82
722.732	1851.71
722.919	1763.64
723.106	1593.66
723.293	1673.53
723.48	1700.16
723.667	1712.44
723.853	1601.85
724.04	1694.01
724.227	1669.44
724.414	1777.98
724.6	1698.11
724.787	1605.95
724.974	1665.34
725.161	1687.87
725.347	1591.61
725.534	1478.97
725.72	1696.06
725.907	1550.65
726.094	1583.42
726.28	1534.27
726.467	1503.55
726.653	1556.8
726.84	1509.69
727.027	1610.04
727.213	1593.66
727.4	1714.49
727.586	1601.85
727.773	1575.23
727.959	1487.17
728.145	1470.78
728.332	1503.55
728.518	1511.74
728.705	1476.93
728.891	1427.78
729.077	1517.89
729.264	1569.09
729.45	1470.78
729.636	1517.89
729.823	1509.69
730.009	1521.98
730.195	1468.73
730.382	1466.69
730.568	1423.68
730.754	1399.1
730.94	1521.98
731.126	1478.97
731.313	1411.39
731.499	1444.16
731.685	1329.47
731.871	1415.49
732.057	1405.25
732.243	1440.06
732.429	1397.06
732.615	1378.62
732.801	1325.38
732.987	1395.01
733.173	1421.63
733.359	1323.33
733.545	1278.27
733.731	1276.23
733.917	1300.8
734.103	1339.71
734.289	1333.57
734.475	1306.95
734.661	1343.81
734.847	1276.23
735.033	1229.12
735.219	1227.07
735.404	1286.47
735.59	1366.34
735.776	1288.51
735.962	1270.08
736.148	1202.5
736.333	1192.26
736.519	1300.8
736.705	1249.6
736.89	1222.98
737.076	1251.65
737.262	1163.59
737.447	1347.9
737.633	1251.65
737.819	1145.16
738.004	1188.16
738.19	1169.73
738.375	1222.98
738.561	1323.33
738.747	1151.3
738.932	1116.48
739.118	1161.54
739.303	1165.64
739.489	1194.31
739.674	1120.58
739.859	1087.81
740.045	1093.96
740.23	1186.12
740.416	1112.39
740.601	1108.29
740.786	1040.71
740.972	1005.89
741.157	1009.99
741.342	1108.29
741.528	1151.3
741.713	1122.63
741.898	1102.15
742.084	1075.52
742.269	1026.37
742.454	1096
742.639	1046.85
742.824	1118.53
743.01	1161.54
743.195	1028.42
743.38	1077.57
743.565	1014.09
743.75	1028.42
743.935	1096
744.12	1100.1
744.305	971.08
744.49	1020.23
744.675	1016.13
744.86	971.08
745.045	989.51
745.23	954.69
745.415	962.89
745.6	1007.94
745.785	930.12
745.97	942.41
746.155	952.65
746.34	911.69
746.525	1009.99
746.71	979.27
746.895	1085.76
747.079	928.07
747.264	946.5
747.449	1001.8
747.634	919.88
747.819	921.93
748.003	944.45
748.188	895.3
748.373	880.97
748.557	880.97
748.742	891.21
748.927	811.34
749.111	926.02
749.296	823.62
749.481	883.02
749.665	833.86
749.85	840.01
750.034	850.25
750.219	835.91
750.404	776.52
750.588	805.19
750.773	807.24
750.957	825.67
751.141	827.72
751.326	817.48
751.51	907.59
751.695	780.62
751.879	770.38
752.064	815.43
752.248	760.14
752.432	735.56
752.617	792.91
752.801	778.57
752.985	870.73
753.17	815.43
753.354	670.03
753.538	784.71
753.722	653.64
753.907	725.32
754.091	749.9
754.275	684.36
754.459	749.9
754.643	772.43
754.828	756.04
755.012	784.71
755.196	749.9
755.38	715.08
755.564	665.93
755.748	700.75
755.932	688.46
756.116	715.08
756.3	676.17
756.484	647.5
756.668	702.79
756.852	715.08
757.036	627.02
757.22	614.73
757.404	604.49
757.588	598.35
757.772	579.92
757.956	610.64
758.14	530.77
758.323	618.83
758.507	559.44
758.691	618.83
758.875	612.68
759.059	665.93
759.242	612.68
759.426	538.96
759.61	604.49
759.794	549.2
759.977	633.16
760.161	608.59
760.345	532.81
760.528	584.01
760.712	598.35
760.895	534.86
761.079	541.01
761.263	547.15
761.446	538.96
761.63	610.64
761.813	459.09
761.997	608.59
762.18	592.2
762.364	502.09
762.547	559.44
762.731	606.54
762.914	590.16
763.098	588.11
763.281	581.96
763.464	567.63
763.648	508.24
763.831	489.81
764.015	592.2
764.198	522.57
764.381	559.44
764.564	559.44
764.748	538.96
764.931	559.44
765.114	498
765.297	512.33
765.481	522.57
765.664	483.66
765.847	553.29
766.03	563.53
766.213	498
766.397	528.72
766.58	561.48
766.763	512.33
766.946	469.33
767.129	551.24
767.312	444.75
767.495	561.48
767.678	487.76
767.861	518.48
768.044	489.81
768.227	510.29
768.41	579.92
768.593	508.24
768.776	571.72
768.959	524.62
769.142	588.11
769.324	459.09
769.507	491.85
769.69	471.37
769.873	389.46
770.056	586.06
770.239	418.13
770.421	477.52
770.604	530.77
770.787	538.96
770.97	426.32
771.152	426.32
771.335	487.76
771.518	444.75
771.7	450.89
771.883	469.33
772.066	430.41
772.248	459.09
772.431	555.34
772.613	442.7
772.796	502.09
772.978	471.37
773.161	467.28
773.343	477.52
773.526	403.79
773.708	485.71
773.891	424.27
774.073	377.17
774.256	383.31
774.438	473.42
774.621	471.37
774.803	428.37
774.985	436.56
775.168	444.75
775.35	409.94
775.532	426.32
775.715	448.85
775.897	368.98
776.079	354.64
776.261	411.98
776.444	450.89
776.626	405.84
776.808	471.37
776.99	381.26
777.173	416.08
777.355	407.89
777.537	366.93
777.719	297.3
777.901	350.54
778.083	352.59
778.265	307.54
778.447	407.89
778.629	373.07
778.811	332.11
778.993	354.64
779.175	274.77
779.357	395.6
779.539	315.73
779.721	307.54
779.903	381.26
780.085	350.54
780.267	340.3
780.449	381.26
780.631	330.06
780.812	237.91
780.994	418.13
781.176	354.64
781.358	287.06
781.54	387.41
781.721	336.21
781.903	356.69
782.085	342.35
782.267	258.39
782.448	297.3
782.63	377.17
782.812	325.97
782.993	254.29
783.175	391.5
783.357	330.06
783.538	252.24
783.72	313.68
783.901	237.91
784.083	289.1
784.264	256.34
784.446	211.28
784.627	258.39
784.809	274.77
784.99	307.54
785.172	239.95
785.353	270.67
785.535	233.81
785.716	282.96
785.897	223.57
786.079	278.87
786.26	289.1
786.441	260.43
786.623	282.96
786.804	213.33
786.985	280.91
787.167	213.33
787.348	231.76
787.529	254.29
787.71	229.71
787.891	305.49
788.073	248.15
788.254	254.29
788.435	242
788.616	221.52
788.797	203.09
788.978	301.39
789.159	174.42
789.34	299.34
789.522	225.62
789.703	207.19
789.884	254.29
790.065	235.86
790.246	184.66
790.427	84.31
790.607	207.19
790.788	268.63
790.969	233.81
791.15	194.9
791.331	270.67
791.512	205.14
791.693	164.18
791.874	137.56
792.054	235.86
792.235	192.85
792.416	137.56
792.597	125.27
792.778	166.23
792.958	205.14
793.139	149.84
793.32	190.8
793.5	180.56
793.681	332.11
793.862	131.41
794.042	262.48
794.223	211.28
794.404	233.81
794.584	94.55
794.765	172.37
794.945	223.57
795.126	100.69
795.306	141.65
795.487	133.46
795.667	184.66
795.848	155.99
796.028	155.99
796.209	153.94
796.389	149.84
796.57	196.95
796.75	235.86
796.93	100.69
797.111	168.27
797.291	162.13
797.471	123.22
797.652	108.88
797.832	135.51
798.012	133.46
798.192	139.6
798.373	174.42
798.553	168.27
798.733	227.67
798.913	141.65
799.093	184.66
799.274	147.8
799.454	160.08
799.634	102.74
799.814	98.64
799.994	135.51
800.174	106.84
800.354	80.21
800.534	135.51
800.714	174.42
800.894	129.36
801.074	172.37
801.254	160.08
801.434	151.89
801.614	137.56
801.794	139.6
801.974	242
802.154	100.69
802.334	151.89
802.514	72.02
802.693	82.26
802.873	129.36
803.053	84.31
803.233	84.31
803.413	178.51
803.592	135.51
803.772	147.8
803.952	110.93
804.131	119.12
804.311	69.97
804.491	133.46
804.67	35.16
804.85	61.78
805.03	98.64
805.209	125.27
805.389	131.41
805.568	92.5
805.748	137.56
805.928	178.51
806.107	80.21
806.287	86.36
806.466	155.99
806.646	82.26
806.825	133.46
807.004	131.41
807.184	69.97
807.363	174.42
807.543	115.03
807.722	131.41
807.901	110.93
808.081	86.36
808.26	94.55
808.439	35.16
808.619	92.5
808.798	127.32
808.977	166.23
809.156	104.79
809.336	96.6
809.515	80.21
809.694	33.11
809.873	112.98
810.052	80.21
810.231	121.17
810.411	168.27
810.59	88.4
810.769	63.83
810.948	112.98
811.127	80.21
811.306	115.03
811.485	115.03
811.664	115.03
811.843	49.49
812.022	151.89
812.201	92.5
812.38	100.69
812.559	47.44
812.737	67.92
812.916	67.92
813.095	94.55
813.274	147.8
813.453	72.02
813.632	63.83
813.811	127.32
813.989	117.08
814.168	131.41
814.347	92.5
814.526	141.65
814.704	65.88
814.883	82.26
815.062	78.16
815.24	63.83
815.419	47.44
815.598	84.31
815.776	47.44
815.955	72.02
816.133	12.63
816.312	43.35
816.49	0.34
816.669	94.55
816.847	0.34
817.026	59.73
817.204	147.8
817.383	96.6
817.561	26.96
817.74	74.07
817.918	102.74
818.097	102.74
818.275	88.4
818.453	90.45
818.632	84.31
818.81	92.5
818.988	24.92
819.167	74.07
819.345	53.59
819.523	63.83
819.701	29.01
819.879	59.73
820.058	115.03
820.236	135.51
820.414	98.64
820.592	22.87
820.77	117.08
820.948	10.58
821.127	29.01
821.305	45.4
821.483	6.49
821.661	65.88
821.839	98.64
822.017	-30.38
822.195	63.83
822.373	108.88
822.551	-5.8
822.729	33.11
822.907	86.36
823.085	16.73
823.262	127.32
823.44	72.02
823.618	96.6
823.796	74.07
823.974	43.35
824.152	6.49
824.329	59.73
824.507	37.2
824.685	8.53
824.863	123.22
825.04	22.87
825.218	41.3
825.396	88.4
825.574	-1.71
825.751	69.97
825.929	80.21
826.107	78.16
826.284	125.27
826.462	59.73
826.639	29.01
826.817	37.2
826.994	151.89
827.172	53.59
827.349	-26.28
827.527	37.2
827.704	43.35
827.882	98.64
828.059	82.26
828.237	-11.95
828.414	-13.99
828.591	16.73
828.769	100.69
828.946	16.73
829.124	24.92
829.301	59.73
829.478	6.49
829.655	49.49
829.833	63.83
830.01	16.73
830.187	8.53
830.364	35.16
830.542	67.92
830.719	22.87
830.896	35.16
831.073	-16.04
831.25	74.07
831.427	-1.71
831.604	33.11
831.782	-32.43
831.959	94.55
832.136	43.35
832.313	115.03
832.49	96.6
832.667	96.6
832.844	63.83
833.021	72.02
833.198	67.92
833.374	61.78
833.551	39.25
833.728	51.54
833.905	14.68
834.082	57.68
834.259	22.87
834.436	94.55
834.612	26.96
834.789	33.11
834.966	14.68
835.143	37.2
835.319	6.49
835.496	57.68
835.673	8.53
835.85	-28.33
836.026	49.49
836.203	133.46
836.38	-9.9
836.556	98.64
836.733	20.82
836.909	65.88
837.086	-1.71
837.262	61.78
837.439	-36.52
837.616	-11.95
837.792	22.87
837.968	55.64
838.145	26.96
838.321	110.93
838.498	45.4
838.674	61.78
838.851	-42.67
839.027	41.3
839.203	24.92
839.38	51.54
839.556	-13.99
839.732	16.73
839.909	14.68
840.085	57.68
840.261	16.73
840.437	65.88
840.614	53.59
840.79	29.01
840.966	121.17
841.142	37.2
841.318	35.16
841.494	14.68
841.671	92.5
841.847	94.55
842.023	14.68
842.199	69.97
842.375	2.39
842.551	-30.38
842.727	-11.95
842.903	98.64
843.079	29.01
843.255	14.68
843.431	4.44
843.607	-11.95
843.783	29.01
843.959	-7.85
844.134	35.16
844.31	-13.99
844.486	20.82
844.662	135.51
844.838	67.92
845.013	43.35
845.189	47.44
845.365	4.44
845.541	72.02
845.716	43.35
845.892	24.92
846.068	24.92
846.244	45.4
846.419	-69.29
846.595	10.58
846.77	31.06
846.946	16.73
847.122	-28.33
847.297	6.49
847.473	16.73
847.648	22.87
847.824	57.68
847.999	51.54
848.175	37.2
848.35	6.49
848.526	26.96
848.701	18.77
848.876	-67.24
849.052	76.12
849.227	0.34
849.403	0.34
849.578	41.3
849.753	18.77
849.929	12.63
850.104	-65.19
850.279	10.58
850.454	37.2
850.63	67.92
850.805	-13.99
850.98	33.11
851.155	-3.75
851.33	96.6
851.505	37.2
851.681	-18.09
851.856	0.34
852.031	45.4
852.206	10.58
852.381	49.49
852.556	-46.76
852.731	63.83
852.906	-67.24
853.081	20.82
853.256	22.87
853.431	-7.85
853.606	49.49
853.781	8.53
853.956	-26.28
854.131	4.44
854.305	10.58
854.48	24.92
854.655	-36.52
854.83	20.82
855.005	-5.8
855.18	22.87
855.354	24.92
855.529	4.44
855.704	18.77
855.879	-3.75
856.053	0.34
856.228	31.06
856.403	4.44
856.577	18.77
856.752	-18.09
856.926	-57
857.101	37.2
857.276	14.68
857.45	14.68
857.625	10.58
857.799	-38.57
857.974	82.26
858.148	-63.15
858.323	-30.38
858.497	24.92
858.672	0.34
858.846	76.12
859.02	8.53
859.195	-42.67
859.369	24.92
859.543	45.4
859.718	31.06
859.892	31.06
860.066	92.5
860.241	0.34
860.415	-16.04
860.589	-63.15
860.763	-59.05
860.938	29.01
861.112	6.49
861.286	-28.33
861.46	41.3
861.634	-50.86
861.808	20.82
861.982	-28.33
862.157	-20.14
862.331	-40.62
862.505	-42.67
862.679	6.49
862.853	33.11
863.027	-9.9
863.201	16.73
863.375	-30.38
863.549	0.34
863.722	22.87
863.896	96.6
864.07	12.63
864.244	41.3
864.418	-22.19
864.592	39.25
864.766	22.87
864.939	90.45
865.113	14.68
865.287	26.96
865.461	-34.47
865.634	31.06
865.808	-9.9
865.982	-32.43
866.156	-34.47
866.329	-44.71
866.503	-40.62
866.676	-1.71
866.85	63.83
867.024	-18.09
867.197	67.92
867.371	-5.8
867.544	-24.23
867.718	-40.62
867.891	63.83
868.065	-36.52
868.238	41.3
868.412	43.35
868.585	-13.99
868.759	-28.33
868.932	24.92
869.105	10.58
869.279	4.44
869.452	96.6
869.625	-16.04
869.799	-11.95
869.972	-42.67
870.145	31.06
870.319	-3.75
870.492	49.49
870.665	24.92
870.838	24.92
871.011	37.2
871.185	-11.95
871.358	18.77
871.531	8.53
871.704	-32.43
871.877	4.44
872.05	14.68
872.223	47.44
872.396	-69.29
872.569	55.64
872.742	-28.33
872.915	16.73
873.088	-3.75
873.261	6.49
873.434	-34.47
873.607	49.49
873.78	94.55
873.953	0.34
874.126	4.44
874.299	14.68
874.471	6.49
874.644	33.11
874.817	-11.95
874.99	35.16
875.163	0.34
875.335	43.35
875.508	-32.43
875.681	14.68
875.853	-9.9
876.026	8.53
876.199	-16.04
876.371	14.68
876.544	6.49
876.717	-11.95
876.889	-9.9
877.062	31.06
877.234	-36.52
877.407	12.63
877.579	22.87
877.752	45.4
877.924	24.92
878.097	37.2
878.269	-30.38
878.442	-38.57
878.614	-16.04
878.786	59.73
878.959	24.92
879.131	-22.19
879.303	26.96
879.476	26.96
879.648	2.39
879.82	49.49
879.993	16.73
880.165	22.87
880.337	-61.1
880.509	67.92
880.681	-48.81
880.854	43.35
881.026	-9.9
881.198	12.63
881.37	14.68
881.542	-32.43
881.714	-11.95
881.886	65.88
882.058	-5.8
882.23	-93.87
882.402	-28.33
882.574	-26.28
882.746	-57
882.918	39.25
883.09	12.63
883.262	55.64
883.434	-50.86
883.606	0.34
883.778	-13.99
883.95	22.87
884.122	0.34
884.293	39.25
884.465	-44.71
884.637	-42.67
884.809	0.34
884.98	86.36
885.152	-28.33
885.324	-57
885.496	6.49
885.667	-7.85
885.839	-24.23
886.011	16.73
886.182	6.49
886.354	43.35
886.525	-75.43
886.697	55.64
886.869	26.96
887.04	-73.39
887.212	65.88
887.383	24.92
887.555	35.16
887.726	31.06
887.897	-16.04
888.069	-81.58
888.24	-7.85
888.412	45.4
888.583	-9.9
888.754	-22.19
888.926	-20.14
889.097	-50.86
889.268	-22.19
889.44	-13.99
889.611	18.77
889.782	-48.81
889.953	2.39
890.125	4.44
890.296	-42.67
890.467	0.34
890.638	-1.71
890.809	47.44
890.98	-30.38
891.151	-18.09
891.323	6.49
891.494	-9.9
891.665	43.35
891.836	-30.38
892.007	16.73
892.178	-59.05
892.349	37.2
892.52	-1.71
892.691	-38.57
892.862	-48.81
893.032	-79.53
893.203	76.12
893.374	-26.28
893.545	12.63
893.716	-5.8
893.887	0.34
894.057	-63.15
894.228	-13.99
894.399	-16.04
894.57	6.49
894.74	-7.85
894.911	65.88
895.082	-5.8
895.253	-26.28
895.423	2.39
895.594	-28.33
895.764	-44.71
895.935	-3.75
896.106	12.63
896.276	-59.05
896.447	8.53
896.617	-1.71
896.788	4.44
896.958	53.59
897.129	4.44
897.299	37.2
897.47	-24.23
897.64	-11.95
897.81	-26.28
897.981	-110.25
898.151	-61.1
898.322	-32.43
898.492	-59.05
898.662	4.44
898.832	-13.99
899.003	22.87
899.173	55.64
899.343	22.87
899.513	-22.19
