Data from USB4F104151__136__13-58-09-356.txt Node

Date: Thu Mar 13 13:58:09 EDT 2025
User: louis
Spectrometer: USB4F10415
Trigger mode: 4
Integration Time (sec): 1.000000E-2
Scans to average: 1
Electric dark correction enabled: true
Nonlinearity correction enabled: false
Boxcar width: 0
XAxis mode: Wavelengths
Number of Pixels in Spectrum: 3648
>>>>>Begin Spectral Data<<<<<
178.204	-50.35
178.424	-50.35
178.644	-50.35
178.864	-13.48
179.084	11.09
179.304	62.29
179.524	-42.15
179.744	56.15
179.964	-25.77
180.184	0.85
180.404	0.85
180.624	-50.35
180.844	15.19
181.064	-21.67
181.283	23.38
181.503	-13.48
181.723	-5.29
181.943	-29.87
182.163	4.95
182.383	27.48
182.602	-27.82
182.822	31.57
183.042	68.44
183.262	-19.63
183.482	56.15
183.701	-27.82
183.921	70.48
184.141	-31.91
184.361	107.35
184.58	-56.49
184.8	9.05
185.02	19.29
185.239	15.19
185.459	-46.25
185.679	13.14
185.898	43.86
186.118	27.48
186.338	43.86
186.557	21.33
186.777	0.85
186.997	52.05
187.216	43.86
187.436	43.86
187.655	29.52
187.875	27.48
188.095	15.19
188.314	72.53
188.534	-1.19
188.753	58.2
188.973	66.39
189.192	33.62
189.412	9.05
189.631	-9.39
189.851	-25.77
190.07	90.96
190.29	31.57
190.509	-56.49
190.729	25.43
190.948	52.05
191.168	154.45
191.387	-11.43
191.607	7
191.826	52.05
192.045	64.34
192.265	33.62
192.484	27.48
192.704	2.9
192.923	25.43
193.142	4.95
193.362	2.9
193.581	25.43
193.8	31.57
194.02	52.05
194.239	52.05
194.458	-13.48
194.678	23.38
194.897	-19.63
195.116	-64.68
195.335	23.38
195.555	-5.29
195.774	33.62
195.993	-27.82
196.212	-25.77
196.432	2.9
196.651	13.14
196.87	41.81
197.089	64.34
197.308	-5.29
197.528	43.86
197.747	-5.29
197.966	2.9
198.185	-17.58
198.404	-19.63
198.623	23.38
198.842	-50.35
199.062	-33.96
199.281	52.05
199.5	0.85
199.719	17.24
199.938	-19.63
200.157	15.19
200.376	27.48
200.595	54.1
200.814	19.29
201.033	54.1
201.252	60.24
201.471	7
201.69	-50.35
201.909	52.05
202.128	50
202.347	47.96
202.566	2.9
202.785	19.29
203.004	-21.67
203.223	84.82
203.442	15.19
203.661	35.67
203.879	-15.53
204.098	-27.82
204.317	-5.29
204.536	15.19
204.755	29.52
204.974	-3.24
205.193	-52.39
205.411	19.29
205.63	-3.24
205.849	95.06
206.068	4.95
206.287	-54.44
206.505	39.76
206.724	-42.15
206.943	-3.24
207.162	-36.01
207.381	2.9
207.599	50
207.818	-27.82
208.037	0.85
208.255	-40.11
208.474	15.19
208.693	-3.24
208.911	15.19
209.13	-9.39
209.349	19.29
209.567	35.67
209.786	37.72
210.005	-5.29
210.223	7
210.442	11.09
210.661	-36.01
210.879	78.68
211.098	11.09
211.316	74.58
211.535	-15.53
211.753	-9.39
211.972	15.19
212.191	7
212.409	7
212.628	2.9
212.846	-60.59
213.065	-9.39
213.283	-70.83
213.502	-11.43
213.72	-27.82
213.938	-5.29
214.157	21.33
214.375	37.72
214.594	23.38
214.812	93.01
215.031	0.85
215.249	35.67
215.467	21.33
215.686	35.67
215.904	39.76
216.122	60.24
216.341	47.96
216.559	23.38
216.778	-1.19
216.996	66.39
217.214	-27.82
217.432	-38.06
217.651	-9.39
217.869	-3.24
218.087	-9.39
218.306	52.05
218.524	80.72
218.742	25.43
218.96	19.29
219.179	27.48
219.397	29.52
219.615	37.72
219.833	15.19
220.051	35.67
220.27	27.48
220.488	-23.72
220.706	-21.67
220.924	47.96
221.142	-1.19
221.36	23.38
221.578	62.29
221.796	19.29
222.015	9.05
222.233	115.54
222.451	39.76
222.669	33.62
222.887	21.33
223.105	54.1
223.323	-25.77
223.541	-11.43
223.759	-50.35
223.977	21.33
224.195	35.67
224.413	4.95
224.631	52.05
224.849	13.14
225.067	19.29
225.285	-13.48
225.503	-5.29
225.721	43.86
225.939	64.34
226.157	-21.67
226.375	11.09
226.592	11.09
226.81	-1.19
227.028	-17.58
227.246	72.53
227.464	27.48
227.682	-9.39
227.9	23.38
228.117	17.24
228.335	21.33
228.553	-54.44
228.771	33.62
228.989	-19.63
229.206	66.39
229.424	93.01
229.642	19.29
229.86	-1.19
230.077	56.15
230.295	7
230.513	-58.54
230.731	-21.67
230.948	15.19
231.166	117.59
231.384	39.76
231.601	-3.24
231.819	-27.82
232.037	-13.48
232.254	33.62
232.472	-3.24
232.689	35.67
232.907	35.67
233.125	52.05
233.342	-17.58
233.56	-9.39
233.777	93.01
233.995	-9.39
234.213	2.9
234.43	35.67
234.648	35.67
234.865	21.33
235.083	7
235.3	-36.01
235.518	-5.29
235.735	-9.39
235.953	4.95
236.17	-40.11
236.388	15.19
236.605	13.14
236.822	37.72
237.04	29.52
237.257	39.76
237.475	35.67
237.692	35.67
237.909	-52.39
238.127	-11.43
238.344	31.57
238.562	19.29
238.779	15.19
238.996	47.96
239.214	13.14
239.431	27.48
239.648	2.9
239.865	43.86
240.083	41.81
240.3	-13.48
240.517	70.48
240.735	11.09
240.952	-9.39
241.169	74.58
241.386	-29.87
241.603	68.44
241.821	-9.39
242.038	15.19
242.255	64.34
242.472	-54.44
242.689	-25.77
242.907	-1.19
243.124	15.19
243.341	74.58
243.558	56.15
243.775	-62.63
243.992	-1.19
244.209	37.72
244.426	-1.19
244.643	23.38
244.86	54.1
245.078	45.91
245.295	15.19
245.512	-27.82
245.729	-7.34
245.946	25.43
246.163	76.63
246.38	43.86
246.597	54.1
246.814	25.43
247.031	-7.34
247.248	15.19
247.464	70.48
247.681	-15.53
247.898	29.52
248.115	58.2
248.332	31.57
248.549	-1.19
248.766	-13.48
248.983	68.44
249.2	35.67
249.417	-5.29
249.633	-48.3
249.85	64.34
250.067	2.9
250.284	-13.48
250.501	-27.82
250.717	19.29
250.934	13.14
251.151	107.35
251.368	-56.49
251.585	-40.11
251.801	0.85
252.018	58.2
252.235	39.76
252.451	4.95
252.668	58.2
252.885	45.91
253.102	-42.15
253.318	68.44
253.535	-17.58
253.752	-50.35
253.968	-21.67
254.185	-3.24
254.401	4.95
254.618	9.05
254.835	27.48
255.051	64.34
255.268	-42.15
255.484	56.15
255.701	-66.73
255.917	68.44
256.134	-17.58
256.351	-29.87
256.567	0.85
256.784	-36.01
257	7
257.217	82.77
257.433	4.95
257.65	13.14
257.866	29.52
258.082	19.29
258.299	56.15
258.515	13.14
258.732	-9.39
258.948	45.91
259.165	-31.91
259.381	13.14
259.597	11.09
259.814	-21.67
260.03	56.15
260.246	2.9
260.463	-33.96
260.679	78.68
260.895	21.33
261.112	43.86
261.328	-11.43
261.544	17.24
261.761	45.91
261.977	-21.67
262.193	23.38
262.409	21.33
262.626	27.48
262.842	4.95
263.058	72.53
263.274	-3.24
263.49	88.92
263.707	13.14
263.923	84.82
264.139	-25.77
264.355	66.39
264.571	47.96
264.787	15.19
265.004	15.19
265.22	33.62
265.436	-36.01
265.652	-15.53
265.868	95.06
266.084	-52.39
266.3	-36.01
266.516	72.53
266.732	29.52
266.948	7
267.164	29.52
267.38	-46.25
267.596	62.29
267.812	-13.48
268.028	21.33
268.244	2.9
268.46	4.95
268.676	33.62
268.892	-11.43
269.108	-3.24
269.324	72.53
269.54	93.01
269.756	-15.53
269.972	-27.82
270.188	-44.2
270.403	-3.24
270.619	37.72
270.835	29.52
271.051	-70.83
271.267	39.76
271.483	4.95
271.698	-40.11
271.914	-1.19
272.13	-11.43
272.346	-17.58
272.562	-5.29
272.777	68.44
272.993	-15.53
273.209	-42.15
273.425	-44.2
273.64	60.24
273.856	27.48
274.072	17.24
274.287	13.14
274.503	23.38
274.719	56.15
274.934	-83.11
275.15	-7.34
275.366	31.57
275.581	35.67
275.797	45.91
276.012	13.14
276.228	-23.72
276.444	45.91
276.659	2.9
276.875	74.58
277.09	-29.87
277.306	0.85
277.521	70.48
277.737	19.29
277.952	31.57
278.168	-25.77
278.383	23.38
278.599	70.48
278.814	19.29
279.03	13.14
279.245	62.29
279.461	-5.29
279.676	35.67
279.892	17.24
280.107	66.39
280.322	-7.34
280.538	17.24
280.753	17.24
280.969	31.57
281.184	29.52
281.399	0.85
281.615	58.2
281.83	27.48
282.045	-13.48
282.26	19.29
282.476	-9.39
282.691	35.67
282.906	127.83
283.122	29.52
283.337	-1.19
283.552	-11.43
283.767	-70.83
283.983	-5.29
284.198	-89.26
284.413	-3.24
284.628	17.24
284.843	15.19
285.058	19.29
285.274	-52.39
285.489	-3.24
285.704	17.24
285.919	-11.43
286.134	21.33
286.349	4.95
286.564	-3.24
286.779	88.92
286.995	9.05
287.21	-19.63
287.425	9.05
287.64	-9.39
287.855	-3.24
288.07	-11.43
288.285	29.52
288.5	7
288.715	-1.19
288.93	27.48
289.145	76.63
289.36	62.29
289.575	-68.78
289.79	-31.91
290.004	17.24
290.219	7
290.434	9.05
290.649	62.29
290.864	11.09
291.079	-5.29
291.294	82.77
291.509	45.91
291.724	72.53
291.938	-7.34
292.153	37.72
292.368	-9.39
292.583	-3.24
292.798	31.57
293.012	-46.25
293.227	2.9
293.442	58.2
293.657	19.29
293.871	2.9
294.086	105.3
294.301	72.53
294.516	62.29
294.73	76.63
294.945	-40.11
295.16	70.48
295.374	56.15
295.589	35.67
295.804	-17.58
296.018	9.05
296.233	39.76
296.447	21.33
296.662	-9.39
296.877	84.82
297.091	-40.11
297.306	37.72
297.52	21.33
297.735	-23.72
297.949	82.77
298.164	25.43
298.378	-36.01
298.593	47.96
298.807	-17.58
299.022	54.1
299.236	-1.19
299.451	41.81
299.665	35.67
299.88	2.9
300.094	-27.82
300.309	25.43
300.523	-27.82
300.737	-11.43
300.952	-29.87
301.166	-19.63
301.381	41.81
301.595	23.38
301.809	35.67
302.024	37.72
302.238	13.14
302.452	-3.24
302.667	-15.53
302.881	-38.06
303.095	33.62
303.309	-38.06
303.524	9.05
303.738	95.06
303.952	4.95
304.166	-11.43
304.381	78.68
304.595	45.91
304.809	-23.72
305.023	72.53
305.237	-1.19
305.452	2.9
305.666	-5.29
305.88	52.05
306.094	41.81
306.308	11.09
306.522	39.76
306.736	33.62
306.95	-5.29
307.164	-3.24
307.379	52.05
307.593	25.43
307.807	-21.67
308.021	7
308.235	-38.06
308.449	-7.34
308.663	35.67
308.877	33.62
309.091	-21.67
309.305	35.67
309.519	41.81
309.733	33.62
309.947	-36.01
310.161	37.72
310.374	7
310.588	43.86
310.802	-48.3
311.016	19.29
311.23	-40.11
311.444	2.9
311.658	17.24
311.872	45.91
312.085	11.09
312.299	80.72
312.513	13.14
312.727	-36.01
312.941	19.29
313.154	50
313.368	-15.53
313.582	78.68
313.796	-101.55
314.009	-13.48
314.223	15.19
314.437	70.48
314.651	-11.43
314.864	-1.19
315.078	-9.39
315.292	52.05
315.505	4.95
315.719	68.44
315.933	-44.2
316.146	-11.43
316.36	-36.01
316.573	43.86
316.787	-31.91
317.001	35.67
317.214	39.76
317.428	11.09
317.641	-13.48
317.855	-40.11
318.068	13.14
318.282	37.72
318.495	62.29
318.709	23.38
318.922	-64.68
319.136	2.9
319.349	15.19
319.563	39.76
319.776	37.72
319.99	-17.58
320.203	-11.43
320.417	35.67
320.63	33.62
320.843	37.72
321.057	45.91
321.27	25.43
321.483	33.62
321.697	76.63
321.91	62.29
322.124	-3.24
322.337	-3.24
322.55	39.76
322.763	-3.24
322.977	95.06
323.19	-13.48
323.403	52.05
323.617	58.2
323.83	62.29
324.043	29.52
324.256	13.14
324.469	-17.58
324.683	4.95
324.896	68.44
325.109	86.87
325.322	-33.96
325.535	-1.19
325.748	-48.3
325.962	-5.29
326.175	-5.29
326.388	-23.72
326.601	-3.24
326.814	-40.11
327.027	-17.58
327.24	15.19
327.453	11.09
327.666	-3.24
327.879	54.1
328.092	68.44
328.305	9.05
328.518	-5.29
328.731	11.09
328.944	13.14
329.157	31.57
329.37	31.57
329.583	-15.53
329.796	115.54
330.009	-9.39
330.222	58.2
330.435	-54.44
330.648	95.06
330.861	-15.53
331.073	45.91
331.286	29.52
331.499	101.2
331.712	-11.43
331.925	37.72
332.138	50
332.35	119.64
332.563	7
332.776	15.19
332.989	-13.48
333.202	-23.72
333.414	4.95
333.627	37.72
333.84	-64.68
334.053	19.29
334.265	-1.19
334.478	33.62
334.691	-36.01
334.903	60.24
335.116	-23.72
335.329	23.38
335.541	-40.11
335.754	15.19
335.966	-29.87
336.179	27.48
336.392	64.34
336.604	88.92
336.817	35.67
337.029	60.24
337.242	78.68
337.454	2.9
337.667	-48.3
337.88	52.05
338.092	7
338.305	27.48
338.517	-13.48
338.729	-42.15
338.942	-7.34
339.154	19.29
339.367	54.1
339.579	31.57
339.792	19.29
340.004	60.24
340.217	-58.54
340.429	58.2
340.641	25.43
340.854	-21.67
341.066	50
341.278	29.52
341.491	19.29
341.703	0.85
341.915	-3.24
342.128	-9.39
342.34	-23.72
342.552	-17.58
342.764	-50.35
342.977	-5.29
343.189	41.81
343.401	54.1
343.613	43.86
343.826	21.33
344.038	-17.58
344.25	45.91
344.462	45.91
344.674	27.48
344.886	31.57
345.099	78.68
345.311	58.2
345.523	45.91
345.735	21.33
345.947	-5.29
346.159	-25.77
346.371	-3.24
346.583	-58.54
346.795	39.76
347.007	31.57
347.219	39.76
347.431	39.76
347.643	31.57
347.855	66.39
348.067	84.82
348.279	23.38
348.491	-33.96
348.703	31.57
348.915	23.38
349.127	56.15
349.339	-5.29
349.551	60.24
349.763	93.01
349.975	-93.35
350.187	39.76
350.399	-29.87
350.61	47.96
350.822	25.43
351.034	25.43
351.246	88.92
351.458	-31.91
351.669	17.24
351.881	43.86
352.093	56.15
352.305	17.24
352.517	33.62
352.728	43.86
352.94	41.81
353.152	60.24
353.363	-15.53
353.575	68.44
353.787	93.01
353.999	21.33
354.21	11.09
354.422	13.14
354.633	133.97
354.845	19.29
355.057	66.39
355.268	-13.48
355.48	7
355.692	-27.82
355.903	39.76
356.115	66.39
356.326	-1.19
356.538	19.29
356.749	-33.96
356.961	50
357.172	4.95
357.384	54.1
357.595	47.96
357.807	-11.43
358.018	-13.48
358.23	31.57
358.441	52.05
358.653	21.33
358.864	66.39
359.075	11.09
359.287	-3.24
359.498	39.76
359.709	-70.83
359.921	11.09
360.132	37.72
360.344	27.48
360.555	45.91
360.766	45.91
360.977	7
361.189	2.9
361.4	35.67
361.611	52.05
361.823	-7.34
362.034	45.91
362.245	52.05
362.456	15.19
362.667	103.25
362.879	9.05
363.09	47.96
363.301	43.86
363.512	35.67
363.723	37.72
363.935	33.62
364.146	39.76
364.357	-9.39
364.568	37.72
364.779	13.14
364.99	-40.11
365.201	52.05
365.412	-60.59
365.623	4.95
365.834	41.81
366.045	7
366.256	15.19
366.467	45.91
366.678	-3.24
366.889	-31.91
367.1	45.91
367.311	-33.96
367.522	-5.29
367.733	13.14
367.944	111.44
368.155	-36.01
368.366	0.85
368.577	-38.06
368.788	111.44
368.999	-76.97
369.209	97.11
369.42	60.24
369.631	29.52
369.842	37.72
370.053	7
370.264	-3.24
370.474	52.05
370.685	15.19
370.896	9.05
371.107	-7.34
371.317	13.14
371.528	13.14
371.739	52.05
371.95	84.82
372.16	54.1
372.371	15.19
372.582	-3.24
372.792	70.48
373.003	43.86
373.214	93.01
373.424	-1.19
373.635	7
373.846	66.39
374.056	58.2
374.267	-38.06
374.477	47.96
374.688	31.57
374.898	-36.01
375.109	66.39
375.319	123.73
375.53	60.24
375.74	-23.72
375.951	56.15
376.161	7
376.372	43.86
376.582	2.9
376.793	47.96
377.003	-15.53
377.214	17.24
377.424	19.29
377.635	41.81
377.845	13.14
378.055	95.06
378.266	-11.43
378.476	-11.43
378.686	97.11
378.897	78.68
379.107	68.44
379.317	13.14
379.528	2.9
379.738	60.24
379.948	86.87
380.158	45.91
380.369	39.76
380.579	-50.35
380.789	-29.87
380.999	-3.24
381.21	80.72
381.42	31.57
381.63	39.76
381.84	13.14
382.05	-27.82
382.261	-9.39
382.471	43.86
382.681	19.29
382.891	45.91
383.101	-17.58
383.311	-36.01
383.521	60.24
383.731	11.09
383.941	64.34
384.151	2.9
384.361	37.72
384.571	4.95
384.781	-1.19
384.991	54.1
385.201	66.39
385.411	-7.34
385.621	9.05
385.831	-21.67
386.041	50
386.251	9.05
386.461	35.67
386.671	0.85
386.881	45.91
387.091	9.05
387.301	2.9
387.511	39.76
387.72	13.14
387.93	17.24
388.14	-1.19
388.35	-5.29
388.56	-5.29
388.769	56.15
388.979	31.57
389.189	-15.53
389.399	4.95
389.609	-21.67
389.818	21.33
390.028	37.72
390.238	0.85
390.447	-23.72
390.657	74.58
390.867	-7.34
391.076	93.01
391.286	29.52
391.496	45.91
391.705	19.29
391.915	31.57
392.125	54.1
392.334	29.52
392.544	-23.72
392.753	19.29
392.963	101.2
393.172	41.81
393.382	4.95
393.591	33.62
393.801	60.24
394.01	37.72
394.22	11.09
394.429	7
394.639	19.29
394.848	9.05
395.058	37.72
395.267	52.05
395.477	35.67
395.686	25.43
395.895	54.1
396.105	80.72
396.314	37.72
396.524	70.48
396.733	19.29
396.942	-1.19
397.152	-11.43
397.361	4.95
397.57	68.44
397.78	54.1
397.989	33.62
398.198	70.48
398.407	68.44
398.617	33.62
398.826	111.44
399.035	68.44
399.244	93.01
399.453	103.25
399.663	86.87
399.872	35.67
400.081	152.4
400.29	35.67
400.499	2.9
400.708	4.95
400.917	54.1
401.127	19.29
401.336	2.9
401.545	140.12
401.754	52.05
401.963	45.91
402.172	31.57
402.381	70.48
402.59	60.24
402.799	9.05
403.008	54.1
403.217	2.9
403.426	43.86
403.635	72.53
403.844	68.44
404.053	43.86
404.262	58.2
404.471	23.38
404.68	15.19
404.888	84.82
405.097	17.24
405.306	23.38
405.515	50
405.724	97.11
405.933	47.96
406.142	70.48
406.35	70.48
406.559	39.76
406.768	93.01
406.977	78.68
407.185	99.16
407.394	84.82
407.603	123.73
407.812	136.02
408.02	119.64
408.229	123.73
408.438	129.88
408.646	142.16
408.855	138.07
409.064	191.31
409.272	43.86
409.481	160.59
409.69	78.68
409.898	117.59
410.107	105.3
410.315	164.69
410.524	150.36
410.733	76.63
410.941	140.12
411.15	123.73
411.358	127.83
411.567	133.97
411.775	129.88
411.984	144.21
412.192	213.84
412.401	164.69
412.609	168.79
412.818	209.75
413.026	125.78
413.234	181.07
413.443	129.88
413.651	222.03
413.86	248.66
414.068	250.71
414.276	213.84
414.485	191.31
414.693	306
414.901	213.84
415.11	185.17
415.318	281.43
415.526	258.9
415.734	369.49
415.943	254.8
416.151	289.62
416.359	265.04
416.567	256.85
416.776	367.44
416.984	330.58
417.192	346.96
417.4	334.67
417.608	355.15
417.817	359.25
418.025	398.16
418.233	420.69
418.441	396.11
418.649	377.68
418.857	416.59
419.065	506.7
419.273	435.02
419.481	430.93
419.689	580.43
419.897	559.95
420.105	570.19
420.313	586.57
420.521	557.9
420.729	578.38
420.937	535.37
421.145	635.72
421.353	662.35
421.561	693.07
421.769	688.97
421.977	807.75
422.185	725.83
422.393	793.42
422.601	717.64
422.809	772.94
423.017	807.75
423.224	899.91
423.432	924.49
423.64	844.62
423.848	895.82
424.056	924.49
424.263	1119.04
424.471	1061.7
424.679	1094.47
424.887	1108.8
425.094	1110.85
425.302	1213.25
425.51	1102.66
425.718	1274.69
425.925	1270.59
426.133	1252.16
426.341	1432.38
426.548	1348.42
426.756	1463.1
426.964	1317.7
427.171	1506.11
427.379	1571.65
427.586	1588.03
427.794	1618.75
428.001	1696.57
428.209	1755.96
428.417	1690.43
428.624	1981.24
428.832	1817.4
429.039	1848.12
429.247	1755.96
429.454	2022.2
429.662	2044.73
429.869	1948.47
430.076	2018.1
430.284	1944.38
430.491	2204.47
430.699	2241.33
430.906	2292.53
431.114	2362.16
431.321	2374.45
431.528	2528.05
431.736	2575.15
431.943	2597.68
432.15	2544.43
432.358	2607.92
432.565	2792.23
432.772	2853.67
432.979	2894.63
433.187	2851.63
433.394	2917.16
433.601	3148.58
433.808	3226.4
434.016	3121.96
434.223	3359.52
434.43	3578.65
434.637	3406.63
434.844	3623.71
435.052	3754.78
435.259	3670.81
435.466	3609.37
435.673	3509.02
435.88	3992.34
436.087	4029.21
436.294	4199.19
436.501	3986.2
436.708	4035.35
436.915	4201.24
437.122	4397.84
437.329	4344.6
437.537	4543.25
437.743	4649.74
437.95	4700.94
438.157	4868.88
438.364	4993.8
438.571	4946.7
438.778	4977.42
438.985	5364.48
439.192	5274.37
439.399	5522.18
439.606	5430.02
439.813	5747.45
440.02	5839.61
440.227	5878.52
440.433	5675.77
440.64	6048.51
440.847	5862.14
441.054	5972.73
441.261	6466.29
441.467	6548.21
441.674	6560.5
441.881	6728.43
442.088	6732.53
442.294	6503.15
442.501	6836.97
442.708	6968.04
442.914	7215.85
443.121	7580.39
443.328	7443.17
443.534	7854.81
443.741	7576.29
443.948	7492.32
444.154	8002.27
444.361	8090.33
444.568	8024.79
444.774	8272.6
444.981	8157.91
445.187	8544.98
445.394	8635.09
445.6	8639.19
445.807	9501.38
446.013	9200.33
446.22	9220.81
446.426	9632.45
446.633	9740.99
446.839	10140.35
447.046	9667.27
447.252	10019.52
447.459	10064.57
447.665	10087.1
447.871	10691.25
448.078	10865.33
448.284	10283.7
448.491	10900.14
448.697	11250.35
448.903	11346.6
449.11	11426.47
449.316	11268.78
449.522	11575.97
449.728	11854.5
449.935	11829.92
450.141	11905.7
450.347	12112.54
450.553	11737.76
450.76	12169.88
450.966	12606.1
451.172	12178.08
451.378	12626.58
451.584	12239.51
451.791	12593.81
451.997	12712.6
452.203	12602.01
452.409	12704.4
452.615	12769.94
452.821	12069.53
453.027	12094.11
453.233	12722.84
453.44	12331.67
453.646	12364.44
453.852	12399.26
454.058	12575.38
454.264	12407.45
454.47	12311.19
454.676	12264.09
454.882	12624.53
455.088	11614.88
455.294	11711.14
455.5	12077.73
455.705	11997.85
455.911	11602.6
456.117	11410.09
456.323	11020.97
456.529	10597.04
456.735	11264.68
456.941	10769.07
457.147	10541.75
457.352	10429.11
457.558	10468.02
457.764	10248.89
457.97	10021.56
458.176	9999.04
458.381	9870.01
458.587	9542.34
458.793	9349.83
458.999	8848.08
459.204	9554.63
459.41	9317.06
459.616	8600.27
459.821	8815.31
460.027	8501.97
460.233	8350.42
460.438	8147.67
460.644	8237.78
460.85	7860.96
461.055	7604.96
461.261	7666.4
461.466	7066.35
461.672	6945.52
461.878	7369.44
462.083	7107.3
462.289	6836.97
462.494	6738.67
462.7	6408.95
462.905	6279.93
463.111	6441.72
463.316	6499.06
463.522	6232.82
463.727	6441.72
463.932	6382.32
464.138	6320.88
464.343	6214.39
464.549	6005.5
464.754	6146.81
464.959	6216.44
465.165	6343.41
465.37	5942.01
465.575	5737.21
465.781	6195.96
465.986	5991.16
466.191	5905.15
466.397	5643.01
466.602	5368.58
466.807	5698.3
467.012	5561.09
467.218	5665.53
467.423	5532.42
467.628	5401.35
467.833	5853.95
468.038	5501.7
468.244	5530.37
468.449	5604.1
468.654	5460.74
468.859	5497.6
469.064	5344
469.269	5149.45
469.474	5245.7
469.679	5225.22
469.885	5323.52
470.09	5153.54
470.295	5311.24
470.5	5085.96
470.705	5171.97
470.91	4942.6
471.115	4963.08
471.32	5010.18
471.525	5030.66
471.73	4872.97
471.935	4752.14
472.139	4666.13
472.344	4616.97
472.549	4631.31
472.754	4623.12
472.959	4602.64
473.164	4477.71
473.369	4510.48
473.574	4573.97
473.778	4475.67
473.983	4369.17
474.188	4420.37
474.393	4303.64
474.598	4238.1
474.802	4078.36
475.007	4158.23
475.212	4234
475.417	4078.36
475.621	4172.57
475.826	4186.9
476.031	3922.71
476.235	4045.59
476.44	3975.96
476.645	3889.95
476.849	3873.56
477.054	3824.41
477.259	3713.82
477.463	3691.29
477.668	3797.79
477.872	3891.99
478.077	3758.88
478.282	3644.19
478.486	3595.04
478.691	3515.17
478.895	3552.03
479.1	3578.65
479.304	3574.56
479.509	3402.53
479.713	3488.54
479.918	3400.48
480.122	3232.55
480.326	3552.03
480.531	3324.71
480.735	3267.36
480.94	3300.13
481.144	3492.64
481.348	3369.76
481.553	3218.21
481.757	3306.27
481.961	3410.72
482.166	3427.11
482.37	3304.23
482.574	3429.15
482.778	3404.58
482.983	3353.38
483.187	3318.56
483.391	3277.6
483.595	3232.55
483.8	3334.95
484.004	3302.18
484.208	3390.24
484.412	3293.99
484.616	3232.55
484.821	3238.69
485.025	3234.6
485.229	3312.42
485.433	3214.12
485.637	3287.84
485.841	3275.56
486.045	3316.51
486.249	3224.36
486.453	3279.65
486.657	3189.54
486.861	3267.36
487.065	3332.9
487.269	3304.23
487.473	3183.4
487.677	3273.51
487.881	3275.56
488.085	3222.31
488.289	3293.99
488.493	3185.44
488.697	3289.89
488.901	3248.93
489.105	3316.51
489.309	3281.7
489.512	3418.91
489.716	3275.56
489.92	3431.2
490.124	3449.63
490.328	3380
490.531	3283.75
490.735	3363.62
490.939	3371.81
491.143	3402.53
491.346	3388.19
491.55	3425.06
491.754	3502.88
491.958	3558.18
492.161	3361.57
492.365	3484.45
492.569	3509.02
492.772	3431.2
492.976	3535.65
493.18	3595.04
493.383	3490.59
493.587	3480.35
493.79	3607.33
493.994	3398.43
494.197	3636
494.401	3560.22
494.605	3613.47
494.808	3771.16
495.012	3719.96
495.215	3732.25
495.419	3824.41
495.622	3722.01
495.825	3834.65
496.029	4016.92
496.232	3859.23
496.436	3803.93
496.639	4090.65
496.843	4016.92
497.046	4197.14
497.249	4191
497.453	4127.51
497.656	4309.78
497.859	4199.19
498.063	4272.92
498.266	4375.31
498.469	4279.06
498.673	4363.03
498.876	4516.62
499.079	4498.19
499.282	4485.9
499.485	4743.95
499.689	4561.68
499.892	4678.41
500.095	4786.96
500.298	4864.78
500.501	4870.92
500.705	5045
500.908	4944.65
501.111	5024.52
501.314	5235.46
501.517	5188.36
501.72	5188.36
501.923	5346.05
502.126	5391.11
502.329	5632.77
502.532	5530.37
502.735	5391.11
502.938	5843.71
503.141	5704.45
503.344	5870.33
503.547	5827.32
503.75	5966.59
503.953	6177.53
504.156	6005.5
504.359	6271.73
504.562	6187.77
504.765	6370.04
504.968	6443.76
505.17	6605.55
505.373	6630.13
505.576	6720.24
505.779	6822.64
505.982	6861.55
506.185	7037.67
506.387	6982.38
506.59	7115.5
506.793	7281.38
506.996	7211.75
507.198	7506.66
507.401	7383.78
507.604	7568.1
507.807	7779.04
508.009	7719.65
508.212	7897.82
508.415	8114.91
508.617	7949.02
508.82	8198.87
509.022	8239.83
509.225	8319.7
509.428	8413.91
509.63	8444.63
509.833	8665.81
510.035	8772.3
510.238	8743.63
510.44	8889.04
510.643	9267.91
510.845	9155.27
511.048	9185.99
511.25	9489.09
511.453	9640.64
511.655	9908.93
511.858	9775.81
512.06	9908.93
512.262	9982.65
512.465	9974.46
512.667	10318.52
512.87	10394.29
513.072	10367.67
513.274	10713.78
513.477	10715.83
513.679	11088.56
513.881	11225.77
514.084	11236.01
514.286	11487.91
514.488	11401.9
514.69	12032.67
514.893	11813.54
515.095	11938.46
515.297	12173.98
515.499	12386.97
515.701	12352.15
515.904	12622.48
516.106	12800.66
516.308	12806.8
516.51	13044.37
516.712	13097.61
516.914	13294.22
517.116	13560.45
517.318	13316.75
517.52	13755.01
517.722	13798.02
517.925	14023.3
518.127	14441.08
518.329	14389.88
518.531	14369.4
518.733	14744.18
518.935	14891.63
519.136	14938.74
519.338	15147.63
519.54	15370.86
519.742	15426.15
519.944	15618.66
520.146	16020.06
520.348	15676.01
520.55	15956.58
520.752	16198.24
520.954	16812.63
521.155	16724.57
521.357	16593.5
521.559	16820.82
521.761	17216.08
521.963	17314.38
522.164	17529.42
522.366	17564.23
522.568	17795.65
522.77	17871.43
522.971	18020.93
523.173	18022.98
523.375	18455.1
523.576	18379.32
523.778	18354.75
523.98	18655.8
524.181	18805.3
524.383	18756.15
524.584	19229.23
524.786	19132.98
524.988	19210.8
525.189	19573.29
525.391	19647.02
525.592	19810.86
525.794	19700.26
525.995	19857.96
526.197	20001.32
526.398	20245.02
526.6	20482.59
526.801	20408.86
527.003	20546.08
527.204	20408.86
527.406	20990.49
527.607	20804.12
527.808	21387.79
528.01	20892.18
528.211	20910.61
528.412	21543.44
528.614	21477.9
528.815	21701.13
529.016	22004.23
529.218	21731.85
529.419	21776.91
529.62	21580.3
529.822	21924.36
530.023	22071.81
530.224	22254.08
530.425	21697.03
530.626	22143.49
530.828	21860.87
531.029	22387.2
531.23	22090.24
531.431	22055.43
531.632	22571.52
531.833	22407.68
532.035	22358.53
532.236	22831.61
532.437	22839.8
532.638	22454.78
532.839	22882.81
533.04	22780.41
533.241	22665.72
533.442	23097.84
533.643	22946.3
533.844	22716.92
534.045	22934.01
534.246	22667.77
534.447	23075.32
534.648	22811.13
534.849	22739.45
535.05	23067.13
535.251	22651.39
535.451	22942.2
535.652	23040.5
535.853	23007.73
536.054	23126.52
536.255	23239.15
536.456	23255.54
536.657	23618.03
536.857	23083.51
537.058	23380.46
537.259	23284.21
537.46	23192.05
537.66	23093.75
537.861	23230.96
538.062	22952.44
538.263	23370.22
538.463	23382.51
538.664	23259.63
538.865	23257.59
539.065	23388.66
539.266	23159.28
539.466	23241.2
539.667	23030.26
539.868	23577.07
540.068	23300.59
540.269	23101.94
540.469	23386.61
540.67	23085.56
540.87	23224.82
541.071	23327.22
541.271	23425.52
541.472	23546.35
541.672	23144.95
541.873	23093.75
542.073	23046.65
542.274	23466.48
542.474	23335.41
542.675	23368.18
542.875	23499.25
543.075	23304.69
543.276	23169.52
543.476	23355.89
543.676	22974.97
543.877	23546.35
544.077	23605.74
544.277	23058.93
544.478	23171.57
544.678	23394.8
544.878	23263.73
545.078	23233.01
545.279	22954.49
545.479	23165.43
545.679	23603.69
545.879	23585.26
546.079	23288.31
546.28	23362.03
546.48	23147
546.68	23310.83
546.88	23310.83
547.08	23581.17
547.28	23308.79
547.48	23159.28
547.68	23511.53
547.88	23349.75
548.081	23314.93
548.281	23290.35
548.481	23820.78
548.681	23523.82
548.881	23423.47
549.081	23050.74
549.28	23507.44
549.48	23624.17
549.68	23103.99
549.88	23355.89
550.08	23280.11
550.28	23603.69
550.48	23335.41
550.68	23259.63
550.88	23448.05
551.08	23222.77
551.279	23278.07
551.479	23155.19
551.679	23382.51
551.879	23208.44
552.079	23362.03
552.278	23216.63
552.478	23396.85
552.678	23308.79
552.878	23206.39
553.077	23187.96
553.277	23161.33
553.477	23392.75
553.676	23024.12
553.876	23441.9
554.076	22999.54
554.275	23067.13
554.475	22841.85
554.674	23398.9
554.874	22977.01
555.074	22981.11
555.273	23046.65
555.473	23120.37
555.672	22813.18
555.872	22987.25
556.071	22936.06
556.271	22761.98
556.47	22962.68
556.67	22635
556.869	22870.52
557.068	22999.54
557.268	22714.87
557.467	22626.81
557.667	22714.87
557.866	22727.16
558.065	22792.7
558.265	22467.07
558.464	22743.55
558.663	22499.84
558.863	22436.35
559.062	22790.65
559.261	22018.57
559.461	22655.48
559.66	22168.07
559.859	22198.79
560.058	22028.81
560.258	22387.2
560.457	22192.64
560.656	22282.75
560.855	22069.76
561.054	22215.17
561.253	22123.01
561.453	22039.05
561.652	22229.51
561.851	22030.85
562.05	21961.22
562.249	21733.9
562.448	21975.56
562.647	21813.77
562.846	21721.61
563.045	21932.55
563.244	21555.72
563.443	21889.54
563.642	21477.9
563.841	21520.91
564.04	21391.89
564.239	21463.57
564.438	21178.9
564.637	21570.06
564.836	21336.59
565.035	21477.9
565.234	21447.18
565.432	21291.54
565.631	21101.08
565.83	21182.99
566.029	20898.33
566.228	21375.5
566.427	20980.25
566.625	20734.49
566.824	20566.56
567.023	20933.14
567.222	20593.18
567.42	20783.64
567.619	21035.54
567.818	20490.78
568.016	20601.37
568.215	20658.71
568.414	20511.26
568.612	20525.6
568.811	20052.52
569.01	20347.42
569.208	19784.23
569.407	20222.5
569.605	20300.32
569.804	20359.71
570.002	19878.44
570.201	19913.25
570.4	19767.85
570.598	19927.59
570.797	19313.2
570.995	19755.56
571.193	19470.89
571.392	19556.91
571.59	19386.93
571.789	19528.24
571.987	19319.34
572.186	19515.95
572.384	19307.05
572.582	18989.62
572.781	19130.93
572.979	18836.02
573.177	19137.07
573.376	19014.2
573.574	18897.46
573.772	18868.79
573.971	18623.03
574.169	18735.67
574.367	18328.13
574.565	18469.44
574.763	18246.21
574.962	18504.25
575.16	18272.83
575.358	18459.2
575.556	18135.62
575.754	18614.84
575.952	17967.68
576.151	18113.09
576.349	18022.98
576.547	17891.91
576.745	17769.03
576.943	17891.91
577.141	17646.15
577.339	17785.41
577.537	17582.67
577.735	17795.65
577.933	17433.16
578.131	17642.06
578.329	17465.93
578.527	17181.26
578.725	17488.46
578.923	17345.1
579.121	17259.09
579.319	17171.02
579.516	17345.1
579.714	16992.85
579.912	16935.51
580.11	16945.75
580.308	16974.42
580.506	16659.03
580.704	16661.08
580.901	16857.68
581.099	17087.06
581.297	16546.39
581.495	16480.86
581.692	16411.23
581.89	16239.2
582.088	16724.57
582.285	16509.53
582.483	16472.67
582.681	16409.18
582.878	16312.92
583.076	16108.13
583.274	16331.36
583.471	16018.02
583.669	15901.28
583.866	15719.01
584.064	15866.47
584.262	15628.9
584.459	15770.21
584.657	15706.73
584.854	15737.45
585.052	15749.73
585.249	15606.38
585.447	15440.49
585.644	15424.11
585.841	15358.57
586.039	15467.11
586.236	15135.34
586.434	15245.93
586.631	15346.28
586.828	15196.78
587.026	15415.91
587.223	15254.12
587.42	14920.31
587.618	14918.26
587.815	14705.27
588.012	14895.73
588.21	14836.34
588.407	14891.63
588.604	14735.99
588.801	14490.23
588.999	14889.59
589.196	14652.02
589.393	14717.56
589.59	14525.05
589.787	14576.25
589.984	14275.2
590.182	14113.41
590.379	14406.27
590.576	14135.93
590.773	14207.61
590.97	14303.87
591.167	14250.62
591.364	13953.66
591.561	14164.61
591.758	13830.79
591.955	14037.63
592.152	13970.05
592.349	13800.07
592.546	13818.5
592.743	13933.18
592.94	13611.65
593.137	13664.9
593.334	13777.54
593.531	13423.24
593.727	13865.6
593.924	13716.1
594.121	13451.91
594.318	13589.13
594.515	13263.5
594.712	13318.79
594.908	13208.2
595.105	13374.09
595.302	13343.37
595.499	13191.82
595.696	12995.22
595.892	13027.98
596.089	13130.38
596.286	13154.96
596.482	13089.42
596.679	12905.1
596.876	12833.43
597.072	13058.7
597.269	12935.82
597.466	12784.27
597.662	12659.35
597.859	12563.09
598.055	12728.98
598.252	12528.28
598.448	12503.7
598.645	12630.68
598.841	12507.8
599.038	12405.4
599.234	12503.7
599.431	12444.31
599.627	12350.1
599.824	12216.99
600.02	12251.8
600.217	12280.47
600.413	12348.06
600.609	12145.31
600.806	12022.43
601.002	12034.72
601.198	11983.52
601.395	11926.18
601.591	11786.91
601.787	11987.61
601.984	11848.35
602.18	11960.99
602.376	11944.61
602.572	11741.86
602.769	11723.43
602.965	11786.91
603.161	11625.12
603.357	11563.68
603.553	11578.02
603.75	11614.88
603.946	11541.16
604.142	11514.53
604.338	11145.9
604.534	11514.53
604.73	11135.66
604.926	11307.69
605.122	11074.22
605.318	11248.3
605.514	11045.55
605.71	11160.24
605.906	11115.18
606.102	11094.7
606.298	11225.77
606.494	10998.45
606.69	10947.25
606.886	11070.12
607.082	10633.91
607.278	10902.19
607.474	10685.11
607.67	10982.06
607.866	10625.72
608.062	10736.31
608.257	10709.68
608.453	10666.67
608.649	10695.35
608.845	10437.3
609.041	10455.73
609.236	10595
609.432	10535.6
609.628	10203.83
609.824	10259.13
610.019	10285.75
610.215	10306.23
610.411	10169.02
610.606	10166.97
610.802	10078.91
610.998	10169.02
611.193	10267.32
611.389	10083
611.584	10029.76
611.78	10013.37
611.976	9988.8
612.171	9841.34
612.367	9996.99
612.562	9857.73
612.758	9913.02
612.953	9704.13
613.149	9726.66
613.344	9634.5
613.539	9876.16
613.735	9562.82
613.93	9749.18
614.126	9573.06
614.321	9583.3
614.517	9530.05
614.712	9392.84
614.907	9568.96
615.103	9519.81
615.298	9415.37
615.493	9743.04
615.688	9222.86
615.884	9548.48
616.079	9280.2
616.274	9319.11
616.47	9325.26
616.665	9333.45
616.86	9040.59
617.055	9208.52
617.25	9190.09
617.445	9226.95
617.641	9056.97
617.836	9120.46
618.031	9016.01
618.226	9102.03
618.421	8913.61
618.616	9097.93
618.811	8688.34
619.006	8786.64
619.201	8594.13
619.396	8839.89
619.591	8508.12
619.786	8669.91
619.981	8606.42
620.176	8661.71
620.371	8430.29
620.566	8555.22
620.761	8301.27
620.956	8504.02
621.151	8276.7
621.346	8381.14
621.541	8313.56
621.735	8067.8
621.93	8323.8
622.125	8166.1
622.32	8174.3
622.515	7989.98
622.709	7965.4
622.904	7869.15
623.099	8006.36
623.294	7750.37
623.488	7811.81
623.683	8024.79
623.878	7795.42
624.072	7852.77
624.267	7572.19
624.462	7803.61
624.656	7408.36
624.851	7621.35
625.046	7396.07
625.24	7422.69
625.435	7367.4
625.629	7418.6
625.824	7351.01
626.018	7512.8
626.213	7074.54
626.407	7252.71
626.602	7092.97
626.796	7172.84
626.991	7047.91
627.185	6968.04
627.38	7092.97
627.574	7125.74
627.768	6818.54
627.963	7017.19
628.157	6810.35
628.352	6904.56
628.546	6654.7
628.74	6750.96
628.935	6666.99
629.129	6798.06
629.323	6677.23
629.517	6634.22
629.712	6540.02
629.906	6515.44
630.1	6591.22
630.294	6466.29
630.489	6292.21
630.683	6519.54
630.877	6562.55
631.071	6531.83
631.265	6431.48
631.459	6298.36
631.653	6202.1
631.848	6175.48
632.042	6202.1
632.236	6279.93
632.43	6298.36
632.624	6126.33
632.818	6023.93
633.012	6159.1
633.206	6015.74
633.4	6058.74
633.594	5868.28
633.788	5872.38
633.982	5903.1
634.176	5929.72
634.369	5731.07
634.563	5806.84
634.757	5739.26
634.951	5919.48
635.145	5802.75
635.339	5808.89
635.533	5776.13
635.726	5710.59
635.92	5466.88
636.114	5534.46
636.308	5712.64
636.501	5567.23
636.695	5690.11
636.889	5389.06
637.083	5485.31
637.276	5301
637.47	5444.35
637.664	5200.65
637.857	5327.62
638.051	5268.23
638.244	5059.34
638.438	5092.1
638.632	5016.33
638.825	5104.39
639.019	5255.94
639.212	5104.39
639.406	5102.34
639.599	4989.71
639.793	5012.23
639.986	4932.36
640.18	5001.99
640.373	4973.32
640.567	4799.24
640.76	4805.39
640.954	4850.44
641.147	4795.15
641.34	4754.19
641.534	4711.18
641.727	4631.31
641.92	4715.28
642.114	4690.7
642.307	4737.81
642.5	4805.39
642.694	4487.95
642.887	4510.48
643.08	4504.34
643.273	4567.82
643.467	4477.71
643.66	4500.24
643.853	4354.83
644.046	4274.96
644.239	4320.02
644.432	4279.06
644.626	4180.76
644.819	4150.04
645.012	4383.51
645.205	4143.89
645.398	4119.32
645.591	3994.39
645.784	4096.79
645.977	3943.19
646.17	3986.2
646.363	3957.53
646.556	3799.84
646.749	3926.81
646.942	3939.1
647.135	3943.19
647.328	3861.27
647.521	3820.32
647.714	3844.89
647.907	3894.04
648.099	3662.62
648.292	3838.75
648.485	3607.33
648.678	3615.52
648.871	3668.77
649.064	3644.19
649.256	3625.76
649.449	3568.41
649.642	3695.39
649.835	3488.54
650.027	3519.26
650.22	3554.08
650.413	3609.37
650.605	3445.54
650.798	3476.26
650.991	3431.2
651.183	3345.19
651.376	3308.32
651.568	3392.29
651.761	3298.08
651.954	3244.84
652.146	3246.88
652.339	3154.73
652.531	3234.6
652.724	3187.49
652.916	3246.88
653.109	3091.24
653.301	3164.97
653.494	3183.4
653.686	3158.82
653.879	3154.73
654.071	3091.24
654.263	3101.48
654.456	3109.67
654.648	3203.88
654.84	3066.66
655.033	3052.33
655.225	2956.07
655.417	2878.25
655.61	3150.63
655.802	2880.3
655.994	2857.77
656.186	2884.39
656.379	2831.15
656.571	2888.49
656.763	2775.85
656.955	2730.8
657.148	2765.61
657.34	2716.46
657.532	2710.32
657.724	2650.92
657.916	2685.74
658.108	2769.71
658.3	2593.58
658.492	2681.64
658.684	2620.21
658.876	2499.38
659.068	2587.44
659.26	2642.73
659.452	2700.08
659.644	2612.01
659.836	2487.09
660.028	2526
660.22	2507.57
660.412	2382.64
660.604	2372.4
660.796	2448.18
660.988	2480.94
661.18	2376.5
661.372	2448.18
661.563	2267.95
661.755	2323.25
661.947	2337.59
662.139	2235.19
662.331	2247.48
662.522	2210.61
662.714	2173.75
662.906	2259.76
663.097	2231.09
663.289	2353.97
663.481	2190.13
663.673	2198.32
663.864	2304.82
664.056	2208.56
664.247	2200.37
664.439	2118.45
664.631	2083.64
664.822	2173.75
665.014	2186.04
665.205	2157.36
665.397	2042.68
665.588	2169.65
665.78	2036.53
665.971	2087.73
666.163	2001.72
666.354	2128.69
666.546	2040.63
666.737	1919.8
666.929	1927.99
667.12	2003.77
667.311	2050.87
667.503	2040.63
667.694	1909.56
667.885	1964.86
668.077	1927.99
668.268	1880.89
668.459	1876.79
668.651	1952.57
668.842	1915.7
669.033	1739.58
669.224	1801.02
669.416	1882.94
669.607	1825.59
669.798	1850.17
669.989	1825.59
670.18	1760.06
670.371	1823.55
670.563	1844.03
670.754	1807.16
670.945	1860.41
671.136	1770.3
671.327	1706.81
671.518	1563.45
671.709	1788.73
671.9	1782.59
672.091	1751.87
672.282	1637.18
672.473	1690.43
672.664	1772.35
672.855	1780.54
673.046	1700.67
673.237	1647.42
673.428	1778.49
673.619	1719.1
673.809	1680.19
674	1631.04
674.191	1588.03
674.382	1686.33
674.573	1723.2
674.764	1649.47
674.954	1633.08
675.145	1639.23
675.336	1712.96
675.527	1545.02
675.717	1700.67
675.908	1628.99
676.099	1690.43
676.289	1635.13
676.48	1565.5
676.671	1575.74
676.861	1596.22
677.052	1536.83
677.243	1475.39
677.433	1678.14
677.624	1575.74
677.814	1626.94
678.005	1526.59
678.195	1637.18
678.386	1506.11
678.576	1518.4
678.767	1473.34
678.957	1575.74
679.148	1643.32
679.338	1485.63
679.529	1506.11
679.719	1432.38
679.909	1633.08
680.1	1596.22
680.29	1512.25
680.481	1518.4
680.671	1411.9
680.861	1479.49
681.052	1567.55
681.242	1583.93
681.432	1518.4
681.622	1596.22
681.813	1520.45
682.003	1495.87
682.193	1448.77
682.383	1526.59
682.573	1487.68
682.764	1487.68
682.954	1403.71
683.144	1383.23
683.334	1557.31
683.524	1590.08
683.714	1463.1
683.904	1575.74
684.094	1463.1
684.284	1487.68
684.474	1465.15
684.664	1440.58
684.854	1461.06
685.044	1504.06
685.234	1391.42
685.424	1436.48
685.614	1508.16
685.804	1448.77
685.994	1463.1
686.184	1526.59
686.374	1389.38
686.564	1555.26
686.753	1407.81
686.943	1465.15
687.133	1489.73
687.323	1424.19
687.513	1459.01
687.702	1397.57
687.892	1442.62
688.082	1473.34
688.272	1477.44
688.461	1426.24
688.651	1479.49
688.841	1467.2
689.03	1448.77
689.22	1397.57
689.41	1424.19
689.599	1454.91
689.789	1407.81
689.979	1407.81
690.168	1399.62
690.358	1487.68
690.547	1495.87
690.737	1446.72
690.926	1459.01
691.116	1465.15
691.305	1514.3
691.495	1454.91
691.684	1471.29
691.874	1506.11
692.063	1516.35
692.252	1520.45
692.442	1512.25
692.631	1483.58
692.82	1424.19
693.01	1575.74
693.199	1553.21
693.388	1436.48
693.578	1571.65
693.767	1434.43
693.956	1342.27
694.146	1502.01
694.335	1452.86
694.524	1508.16
694.713	1450.82
694.902	1540.93
695.092	1524.54
695.281	1518.4
695.47	1424.19
695.659	1463.1
695.848	1510.21
696.037	1440.58
696.226	1528.64
696.415	1426.24
696.604	1485.63
696.793	1516.35
696.982	1506.11
697.171	1440.58
697.36	1495.87
697.549	1559.36
697.738	1444.67
697.927	1588.03
698.116	1446.72
698.305	1497.92
698.494	1487.68
698.683	1514.3
698.872	1438.53
699.061	1450.82
699.25	1534.78
699.438	1512.25
699.627	1502.01
699.816	1547.07
700.005	1633.08
700.193	1532.73
700.382	1485.63
700.571	1557.31
700.76	1583.93
700.948	1545.02
701.137	1592.13
701.326	1508.16
701.514	1489.73
701.703	1553.21
701.892	1471.29
702.08	1526.59
702.269	1571.65
702.457	1571.65
702.646	1559.36
702.834	1573.69
703.023	1553.21
703.212	1452.86
703.4	1459.01
703.589	1553.21
703.777	1514.3
703.965	1530.69
704.154	1524.54
704.342	1381.18
704.531	1602.36
704.719	1514.3
704.907	1585.98
705.096	1536.83
705.284	1518.4
705.472	1487.68
705.661	1565.5
705.849	1551.17
706.037	1561.41
706.226	1551.17
706.414	1424.19
706.602	1424.19
706.79	1407.81
706.979	1530.69
707.167	1518.4
707.355	1514.3
707.543	1514.3
707.731	1413.95
707.919	1432.38
708.107	1391.42
708.296	1405.76
708.484	1315.65
708.672	1360.7
708.86	1473.34
709.048	1397.57
709.236	1370.94
709.424	1461.06
709.612	1526.59
709.8	1438.53
709.988	1489.73
710.176	1440.58
710.364	1428.29
710.551	1471.29
710.739	1411.9
710.927	1375.04
711.115	1434.43
711.303	1475.39
711.491	1411.9
711.679	1297.22
711.866	1344.32
712.054	1391.42
712.242	1416
712.43	1309.51
712.617	1329.99
712.805	1358.66
712.993	1387.33
713.181	1297.22
713.368	1266.5
713.556	1305.41
713.744	1262.4
713.931	1389.38
714.119	1268.55
714.306	1293.12
714.494	1409.86
714.682	1327.94
714.869	1350.46
715.057	1295.17
715.244	1340.22
715.432	1383.23
715.619	1272.64
715.807	1205.06
715.994	1334.08
716.182	1289.03
716.369	1344.32
716.556	1280.83
716.744	1231.68
716.931	1258.31
717.119	1272.64
717.306	1157.96
717.493	1250.11
717.681	1168.2
717.868	1166.15
718.055	1293.12
718.242	1215.3
718.43	1250.11
718.617	1313.6
718.804	1241.92
718.991	1133.38
719.179	1227.59
719.366	1266.5
719.553	1157.96
719.74	1205.06
719.927	1262.4
720.114	1219.39
720.301	1190.72
720.488	1241.92
720.676	1211.2
720.863	1166.15
721.05	1219.39
721.237	1121.09
721.424	1131.33
721.611	1207.11
721.798	1104.71
721.985	1078.08
722.172	1088.32
722.358	1157.96
722.545	1143.62
722.732	1104.71
722.919	1110.85
723.106	1133.38
723.293	1180.48
723.48	1143.62
723.667	1039.17
723.853	1176.39
724.04	1082.18
724.227	1198.92
724.414	1043.27
724.6	1166.15
724.787	1069.89
724.974	1094.47
725.161	1063.75
725.347	1090.37
725.534	1223.49
725.72	1082.18
725.907	1166.15
726.094	1033.03
726.28	1055.56
726.467	1039.17
726.653	1026.89
726.84	1055.56
727.027	1143.62
727.213	1020.74
727.4	1123.14
727.586	1112.9
727.773	985.93
727.959	938.82
728.145	1088.32
728.332	1063.75
728.518	1047.37
728.705	1104.71
728.891	1026.89
729.077	994.12
729.264	965.45
729.45	1028.93
729.636	1057.61
729.823	938.82
730.009	971.59
730.195	1012.55
730.382	985.93
730.568	930.63
730.754	994.12
730.94	977.73
731.126	1004.36
731.313	951.11
731.499	1043.27
731.685	1030.98
731.871	914.25
732.057	1028.93
732.243	1041.22
732.429	1055.56
732.615	951.11
732.801	1014.6
732.987	985.93
733.173	809.8
733.359	969.54
733.545	942.92
733.731	920.39
733.917	940.87
734.103	920.39
734.289	998.21
734.475	936.78
734.661	961.35
734.847	895.82
735.033	891.72
735.219	877.38
735.404	947.01
735.59	979.78
735.776	955.21
735.962	901.96
736.148	940.87
736.333	828.23
736.519	865.1
736.705	889.67
736.89	977.73
737.076	904.01
737.262	877.38
737.447	885.58
737.633	817.99
737.819	904.01
738.004	893.77
738.19	897.86
738.375	867.14
738.561	916.3
738.747	873.29
738.932	824.14
739.118	936.78
739.303	817.99
739.489	801.61
739.674	801.61
739.859	910.15
740.045	820.04
740.23	817.99
740.416	717.64
740.601	789.32
740.786	826.18
740.972	856.9
741.157	736.07
741.342	799.56
741.528	756.55
741.713	822.09
741.898	744.27
742.084	799.56
742.269	856.9
742.454	762.7
742.639	725.83
742.824	766.79
743.01	811.85
743.195	764.75
743.38	725.83
743.565	832.33
743.75	785.23
743.935	785.23
744.12	660.3
744.305	682.83
744.49	688.97
744.675	826.18
744.86	731.98
745.045	779.08
745.23	752.46
745.415	652.11
745.6	713.55
745.785	781.13
745.97	731.98
746.155	699.21
746.34	662.35
746.525	707.4
746.71	701.26
746.895	729.93
747.079	611.15
747.264	652.11
747.449	707.4
747.634	682.83
747.819	572.24
748.003	639.82
748.188	650.06
748.373	650.06
748.557	648.01
748.742	625.48
748.927	633.68
749.111	674.64
749.296	633.68
749.481	680.78
749.665	631.63
749.85	641.87
750.034	578.38
750.219	582.48
750.404	691.02
750.588	619.34
750.773	502.61
750.957	570.19
751.141	605
751.326	521.04
751.51	543.57
751.695	600.91
751.879	623.44
752.064	580.43
752.248	584.52
752.432	551.76
752.617	467.79
752.801	623.44
752.985	508.75
753.17	545.61
753.354	523.09
753.538	600.91
753.722	492.37
753.907	521.04
754.091	527.18
754.275	498.51
754.459	572.24
754.643	576.33
754.828	539.47
755.012	510.8
755.196	496.46
755.38	576.33
755.564	613.2
755.748	469.84
755.932	533.33
756.116	478.03
756.3	486.22
756.484	437.07
756.668	482.13
756.852	424.78
757.036	422.73
757.22	478.03
757.404	490.32
757.588	498.51
757.772	387.92
757.956	523.09
758.14	422.73
758.323	469.84
758.507	402.26
758.691	500.56
758.875	420.69
759.059	488.27
759.242	435.02
759.426	396.11
759.61	469.84
759.794	420.69
759.977	402.26
760.161	455.5
760.345	523.09
760.528	469.84
760.712	449.36
760.895	396.11
761.079	412.5
761.263	412.5
761.446	414.54
761.63	328.53
761.813	469.84
761.997	383.82
762.18	392.02
762.364	406.35
762.547	408.4
762.731	412.5
762.914	389.97
763.098	346.96
763.281	373.58
763.464	342.86
763.648	361.3
763.831	367.44
764.015	447.31
764.198	355.15
764.381	400.21
764.564	412.5
764.748	437.07
764.931	377.68
765.114	289.62
765.297	383.82
765.481	275.28
765.664	463.69
765.847	344.91
766.03	435.02
766.213	371.54
766.397	373.58
766.58	306
766.763	445.26
766.946	279.38
767.129	369.49
767.312	389.97
767.495	353.1
767.678	430.93
767.861	439.12
768.044	336.72
768.227	363.34
768.41	398.16
768.593	338.77
768.776	381.78
768.959	392.02
769.142	316.24
769.324	326.48
769.507	346.96
769.69	377.68
769.873	353.1
770.056	359.25
770.239	346.96
770.421	381.78
770.604	383.82
770.787	326.48
770.97	373.58
771.152	295.76
771.335	355.15
771.518	369.49
771.7	379.73
771.883	363.34
772.066	320.34
772.248	420.69
772.431	346.96
772.613	297.81
772.796	293.71
772.978	359.25
773.161	338.77
773.343	369.49
773.526	301.9
773.708	324.43
773.891	256.85
774.073	291.66
774.256	275.28
774.438	377.68
774.621	344.91
774.803	295.76
774.985	209.75
775.168	269.14
775.35	291.66
775.532	363.34
775.715	308.05
775.897	269.14
776.079	267.09
776.261	265.04
776.444	234.32
776.626	230.23
776.808	265.04
776.99	330.58
777.173	336.72
777.355	209.75
777.537	324.43
777.719	310.1
777.901	256.85
778.083	260.95
778.265	230.23
778.447	289.62
778.629	291.66
778.811	232.27
778.993	295.76
779.175	275.28
779.357	322.38
779.539	228.18
779.721	215.89
779.903	232.27
780.085	228.18
780.267	252.75
780.449	254.8
780.631	265.04
780.812	207.7
780.994	226.13
781.176	179.03
781.358	273.23
781.54	191.31
781.721	291.66
781.903	230.23
782.085	234.32
782.267	248.66
782.448	232.27
782.63	172.88
782.812	240.47
782.993	275.28
783.175	142.16
783.357	209.75
783.538	273.23
783.72	240.47
783.901	158.55
784.083	246.61
784.264	166.74
784.446	148.31
784.627	193.36
784.809	181.07
784.99	129.88
785.172	310.1
785.353	156.5
785.535	183.12
785.716	166.74
785.897	179.03
786.079	179.03
786.26	193.36
786.441	144.21
786.623	185.17
786.804	215.89
786.985	215.89
787.167	144.21
787.348	156.5
787.529	127.83
787.71	152.4
787.891	152.4
788.073	105.3
788.254	187.22
788.435	176.98
788.616	78.68
788.797	103.25
788.978	211.79
789.159	68.44
789.34	166.74
789.522	158.55
789.703	117.59
789.884	185.17
790.065	191.31
790.246	150.36
790.427	123.73
790.607	187.22
790.788	142.16
790.969	119.64
791.15	172.88
791.331	105.3
791.512	78.68
791.693	152.4
791.874	176.98
792.054	181.07
792.235	176.98
792.416	185.17
792.597	17.24
792.778	109.4
792.958	123.73
793.139	146.26
793.32	129.88
793.5	168.79
793.681	174.93
793.862	58.2
794.042	152.4
794.223	199.51
794.404	109.4
794.584	133.97
794.765	113.49
794.945	154.45
795.126	142.16
795.306	158.55
795.487	78.68
795.667	140.12
795.848	78.68
796.028	107.35
796.209	179.03
796.389	166.74
796.57	193.36
796.75	76.63
796.93	86.87
797.111	125.78
797.291	76.63
797.471	84.82
797.652	111.44
797.832	154.45
798.012	203.6
798.192	97.11
798.373	86.87
798.553	195.41
798.733	88.92
798.913	107.35
799.093	70.48
799.274	109.4
799.454	101.2
799.634	101.2
799.814	144.21
799.994	35.67
800.174	150.36
800.354	127.83
800.534	58.2
800.714	168.79
800.894	107.35
801.074	93.01
801.254	68.44
801.434	115.54
801.614	142.16
801.794	80.72
801.974	359.25
802.154	162.64
802.334	72.53
802.514	45.91
802.693	127.83
802.873	27.48
803.053	101.2
803.233	140.12
803.413	68.44
803.592	52.05
803.772	138.07
803.952	50
804.131	78.68
804.311	76.63
804.491	170.83
804.67	45.91
804.85	43.86
805.03	56.15
805.209	144.21
805.389	105.3
805.568	101.2
805.748	76.63
805.928	117.59
806.107	123.73
806.287	76.63
806.466	117.59
806.646	78.68
806.825	68.44
807.004	80.72
807.184	70.48
807.363	115.54
807.543	45.91
807.722	56.15
807.901	119.64
808.081	90.96
808.26	68.44
808.439	76.63
808.619	31.57
808.798	74.58
808.977	29.52
809.156	31.57
809.336	82.77
809.515	93.01
809.694	76.63
809.873	45.91
810.052	52.05
810.231	107.35
810.411	125.78
810.59	86.87
810.769	86.87
810.948	101.2
811.127	95.06
811.306	158.55
811.485	41.81
811.664	156.5
811.843	121.68
812.022	133.97
812.201	90.96
812.38	60.24
812.559	111.44
812.737	111.44
812.916	45.91
813.095	47.96
813.274	101.2
813.453	93.01
813.632	41.81
813.811	88.92
813.989	111.44
814.168	33.62
814.347	140.12
814.526	41.81
814.704	19.29
814.883	37.72
815.062	39.76
815.24	45.91
815.419	54.1
815.598	60.24
815.776	35.67
815.955	76.63
816.133	31.57
816.312	50
816.49	70.48
816.669	56.15
816.847	60.24
817.026	68.44
817.204	99.16
817.383	37.72
817.561	84.82
817.74	70.48
817.918	74.58
818.097	78.68
818.275	43.86
818.453	-1.19
818.632	15.19
818.81	37.72
818.988	93.01
819.167	86.87
819.345	23.38
819.523	97.11
819.701	9.05
819.879	152.4
820.058	43.86
820.236	68.44
820.414	39.76
820.592	11.09
820.77	50
820.948	39.76
821.127	74.58
821.305	29.52
821.483	64.34
821.661	103.25
821.839	88.92
822.017	0.85
822.195	68.44
822.373	107.35
822.551	66.39
822.729	80.72
822.907	-13.48
823.085	13.14
823.262	47.96
823.44	-13.48
823.618	31.57
823.796	78.68
823.974	37.72
824.152	60.24
824.329	33.62
824.507	56.15
824.685	-5.29
824.863	2.9
825.04	29.52
825.218	78.68
825.396	2.9
825.574	21.33
825.751	74.58
825.929	60.24
826.107	31.57
826.284	35.67
826.462	9.05
826.639	93.01
826.817	-79.02
826.994	58.2
827.172	50
827.349	70.48
827.527	2.9
827.704	19.29
827.882	101.2
828.059	52.05
828.237	70.48
828.414	37.72
828.591	58.2
828.769	105.3
828.946	2.9
829.124	56.15
829.301	43.86
829.478	54.1
829.655	133.97
829.833	56.15
830.01	-25.77
830.187	35.67
830.364	45.91
830.542	54.1
830.719	41.81
830.896	56.15
831.073	54.1
831.25	-19.63
831.427	-66.73
831.604	97.11
831.782	33.62
831.959	50
832.136	21.33
832.313	52.05
832.49	-7.34
832.667	111.44
832.844	-3.24
833.021	86.87
833.198	84.82
833.374	68.44
833.551	21.33
833.728	43.86
833.905	-9.39
834.082	52.05
834.259	-1.19
834.436	29.52
834.612	13.14
834.789	50
834.966	9.05
835.143	70.48
835.319	-13.48
835.496	76.63
835.673	43.86
835.85	11.09
836.026	-11.43
836.203	45.91
836.38	-11.43
836.556	-44.2
836.733	-11.43
836.909	52.05
837.086	39.76
837.262	25.43
837.439	-5.29
837.616	37.72
837.792	-66.73
837.968	39.76
838.145	39.76
838.321	64.34
838.498	86.87
838.674	-23.72
838.851	-3.24
839.027	-25.77
839.203	27.48
839.38	31.57
839.556	-17.58
839.732	-15.53
839.909	35.67
840.085	-1.19
840.261	37.72
840.437	-19.63
840.614	9.05
840.79	35.67
840.966	31.57
841.142	9.05
841.318	82.77
841.494	93.01
841.671	33.62
841.847	70.48
842.023	-25.77
842.199	72.53
842.375	35.67
842.551	31.57
842.727	-42.15
842.903	93.01
843.079	41.81
843.255	2.9
843.431	31.57
843.607	4.95
843.783	-38.06
843.959	148.31
844.134	-29.87
844.31	93.01
844.486	21.33
844.662	17.24
844.838	19.29
845.013	23.38
845.189	31.57
845.365	45.91
845.541	62.29
845.716	131.92
845.892	45.91
846.068	54.1
846.244	-29.87
846.419	7
846.595	35.67
846.77	13.14
846.946	7
847.122	-11.43
847.297	-15.53
847.473	2.9
847.648	56.15
847.824	-9.39
847.999	-70.83
848.175	58.2
848.35	-21.67
848.526	29.52
848.701	125.78
848.876	-25.77
849.052	54.1
849.227	37.72
849.403	0.85
849.578	35.67
849.753	7
849.929	45.91
850.104	41.81
850.279	103.25
850.454	-46.25
850.63	27.48
850.805	9.05
850.98	2.9
851.155	4.95
851.33	2.9
851.505	-1.19
851.681	21.33
851.856	2.9
852.031	-3.24
852.206	-21.67
852.381	50
852.556	74.58
852.731	-1.19
852.906	45.91
853.081	86.87
853.256	0.85
853.431	-52.39
853.606	21.33
853.781	43.86
853.956	-72.87
854.131	43.86
854.305	-3.24
854.48	-31.91
854.655	-50.35
854.83	25.43
855.005	88.92
855.18	0.85
855.354	-7.34
855.529	72.53
855.704	17.24
855.879	121.68
856.053	-64.68
856.228	11.09
856.403	31.57
856.577	11.09
856.752	-29.87
856.926	-3.24
857.101	39.76
857.276	76.63
857.45	-17.58
857.625	41.81
857.799	23.38
857.974	29.52
858.148	11.09
858.323	-40.11
858.497	-42.15
858.672	88.92
858.846	17.24
859.02	37.72
859.195	-3.24
859.369	33.62
859.543	-7.34
859.718	25.43
859.892	4.95
860.066	-23.72
860.241	23.38
860.415	-15.53
860.589	35.67
860.763	97.11
860.938	-33.96
861.112	39.76
861.286	-9.39
861.46	21.33
861.634	64.34
861.808	-33.96
861.982	-50.35
862.157	11.09
862.331	-76.97
862.505	-21.67
862.679	23.38
862.853	21.33
863.027	31.57
863.201	-27.82
863.375	-19.63
863.549	-62.63
863.722	31.57
863.896	-54.44
864.07	58.2
864.244	19.29
864.418	-21.67
864.592	82.77
864.766	23.38
864.939	19.29
865.113	68.44
865.287	4.95
865.461	27.48
865.634	4.95
865.808	45.91
865.982	-3.24
866.156	23.38
866.329	76.63
866.503	7
866.676	13.14
866.85	-42.15
867.024	-3.24
867.197	23.38
867.371	62.29
867.544	39.76
867.718	-5.29
867.891	33.62
868.065	-44.2
868.238	7
868.412	127.83
868.585	62.29
868.759	70.48
868.932	-31.91
869.105	11.09
869.279	-17.58
869.452	9.05
869.625	-7.34
869.799	19.29
869.972	-13.48
870.145	52.05
870.319	9.05
870.492	15.19
870.665	25.43
870.838	-31.91
871.011	0.85
871.185	13.14
871.358	-21.67
871.531	-3.24
871.704	-11.43
871.877	25.43
872.05	19.29
872.223	-36.01
872.396	-42.15
872.569	-9.39
872.742	-7.34
872.915	29.52
873.088	-27.82
873.261	43.86
873.434	-29.87
873.607	-3.24
873.78	52.05
873.953	13.14
874.126	37.72
874.299	-3.24
874.471	4.95
874.644	17.24
874.817	2.9
874.99	107.35
875.163	27.48
875.335	0.85
875.508	25.43
875.681	11.09
875.853	4.95
876.026	39.76
876.199	-27.82
876.371	33.62
876.544	93.01
876.717	43.86
876.889	-13.48
877.062	-62.63
877.234	-5.29
877.407	23.38
877.579	29.52
877.752	47.96
877.924	-81.07
878.097	27.48
878.269	2.9
878.442	43.86
878.614	43.86
878.786	19.29
878.959	25.43
879.131	-3.24
879.303	11.09
879.476	43.86
879.648	19.29
879.82	68.44
879.993	25.43
880.165	-40.11
880.337	2.9
880.509	11.09
880.681	56.15
880.854	60.24
881.026	33.62
881.198	9.05
881.37	9.05
881.542	-9.39
881.714	21.33
881.886	45.91
882.058	-25.77
882.23	19.29
882.402	-29.87
882.574	-17.58
882.746	21.33
882.918	13.14
883.09	27.48
883.262	15.19
883.434	-9.39
883.606	-56.49
883.778	23.38
883.95	29.52
884.122	-3.24
884.293	68.44
884.465	86.87
884.637	62.29
884.809	-3.24
884.98	19.29
885.152	101.2
885.324	-15.53
885.496	54.1
885.667	97.11
885.839	27.48
886.011	64.34
886.182	11.09
886.354	25.43
886.525	74.58
886.697	33.62
886.869	33.62
887.04	7
887.212	15.19
887.383	21.33
887.555	45.91
887.726	-11.43
887.897	43.86
888.069	31.57
888.24	72.53
888.412	23.38
888.583	15.19
888.754	60.24
888.926	-36.01
889.097	37.72
889.268	-58.54
889.44	19.29
889.611	52.05
889.782	-56.49
889.953	11.09
890.125	45.91
890.296	15.19
890.467	-1.19
890.638	35.67
890.809	70.48
890.98	11.09
891.151	27.48
891.323	21.33
891.494	-5.29
891.665	-13.48
891.836	129.88
892.007	9.05
892.178	-42.15
892.349	-38.06
892.52	-85.16
892.691	76.63
892.862	21.33
893.032	-11.43
893.203	62.29
893.374	4.95
893.545	19.29
893.716	-46.25
893.887	37.72
894.057	13.14
894.228	-19.63
894.399	90.96
894.57	29.52
894.74	13.14
894.911	27.48
895.082	-29.87
895.253	93.01
895.423	41.81
895.594	56.15
895.764	-9.39
895.935	-36.01
896.106	-42.15
896.276	29.52
896.447	56.15
896.617	0.85
896.788	-15.53
896.958	82.77
897.129	-36.01
897.299	-27.82
897.47	4.95
897.64	17.24
897.81	52.05
897.981	50
898.151	2.9
898.322	-33.96
898.492	-13.48
898.662	-31.91
898.832	-7.34
899.003	-83.11
899.173	4.95
899.343	-52.39
899.513	25.43
