Data from USB4F104151__285__14-02-30-758.txt Node

Date: Thu Mar 13 14:02:30 EDT 2025
User: louis
Spectrometer: USB4F10415
Trigger mode: 4
Integration Time (sec): 1.000000E-2
Scans to average: 1
Electric dark correction enabled: true
Nonlinearity correction enabled: false
Boxcar width: 0
XAxis mode: Wavelengths
Number of Pixels in Spectrum: 3648
>>>>>Begin Spectral Data<<<<<
178.204	-0.68
178.424	-0.68
178.644	-0.68
178.864	-78.51
179.084	-62.12
179.304	-29.35
179.524	25.94
179.744	-0.68
179.964	-43.69
180.184	38.23
180.404	52.56
180.624	1.37
180.844	13.65
181.064	-66.22
181.283	109.91
181.503	-35.5
181.723	-66.22
181.943	-12.97
182.163	5.46
182.383	36.18
182.602	-33.45
182.822	-33.45
183.042	40.28
183.262	-68.27
183.482	-19.11
183.701	-58.03
183.921	30.04
184.141	-66.22
184.361	-6.83
184.58	-19.11
184.8	36.18
185.02	-55.98
185.239	-35.5
185.459	-31.4
185.679	-39.59
185.898	-37.55
186.118	9.56
186.338	-15.02
186.557	3.41
186.777	9.56
186.997	40.28
187.216	-2.73
187.436	40.28
187.655	11.61
187.875	56.66
188.095	-10.92
188.314	-0.68
188.534	-6.83
188.753	34.13
188.973	-12.97
189.192	-6.83
189.412	-76.46
189.631	-8.87
189.851	48.47
190.07	9.56
190.29	-29.35
190.509	-8.87
190.729	-0.68
190.948	71
191.168	99.67
191.387	13.65
191.607	-53.93
191.826	50.52
192.045	-74.41
192.265	3.41
192.484	-10.92
192.704	17.75
192.923	-10.92
193.142	-27.31
193.362	34.13
193.581	-12.97
193.8	-68.27
194.02	15.7
194.239	-58.03
194.458	-10.92
194.678	52.56
194.897	-31.4
195.116	-33.45
195.335	-72.36
195.555	3.41
195.774	-2.73
195.993	25.94
196.212	15.7
196.432	-25.26
196.651	-4.78
196.87	-92.84
197.089	-27.31
197.308	-35.5
197.528	32.08
197.747	-39.59
197.966	-2.73
198.185	25.94
198.404	-2.73
198.623	9.56
198.842	3.41
199.062	-25.26
199.281	9.56
199.5	-43.69
199.719	15.7
199.938	5.46
200.157	54.61
200.376	-41.64
200.595	-21.16
200.814	-45.74
201.033	32.08
201.252	1.37
201.471	54.61
201.69	-33.45
201.909	23.89
202.128	-0.68
202.347	15.7
202.566	-23.21
202.785	-19.11
203.004	-39.59
203.223	68.95
203.442	-37.55
203.661	34.13
203.879	-6.83
204.098	58.71
204.317	38.23
204.536	-21.16
204.755	-55.98
204.974	-35.5
205.193	-12.97
205.411	-58.03
205.63	-12.97
205.849	-4.78
206.068	56.66
206.287	-4.78
206.505	-35.5
206.724	-19.11
206.943	-19.11
207.162	-58.03
207.381	17.75
207.599	-27.31
207.818	-70.31
208.037	-2.73
208.255	34.13
208.474	46.42
208.693	38.23
208.911	99.67
209.13	25.94
209.349	30.04
209.567	-45.74
209.786	27.99
210.005	-27.31
210.223	-43.69
210.442	-58.03
210.661	17.75
210.879	-31.4
211.098	32.08
211.316	-45.74
211.535	25.94
211.753	32.08
211.972	-27.31
212.191	23.89
212.409	-27.31
212.628	95.57
212.846	-45.74
213.065	52.56
213.283	5.46
213.502	15.7
213.72	-33.45
213.938	5.46
214.157	11.61
214.375	-8.87
214.594	-21.16
214.812	30.04
215.031	-55.98
215.249	-15.02
215.467	19.8
215.686	-64.17
215.904	-37.55
216.122	-33.45
216.341	62.8
216.559	-6.83
216.778	25.94
216.996	-19.11
217.214	-51.88
217.432	3.41
217.651	21.85
217.869	-6.83
218.087	-19.11
218.306	-19.11
218.524	50.52
218.742	38.23
218.96	-17.07
219.179	-4.78
219.397	23.89
219.615	9.56
219.833	3.41
220.051	40.28
220.27	-21.16
220.488	-27.31
220.706	13.65
220.924	-33.45
221.142	-43.69
221.36	66.9
221.578	-33.45
221.796	-25.26
222.015	-60.07
222.233	-39.59
222.451	34.13
222.669	-76.46
222.887	17.75
223.105	15.7
223.323	5.46
223.541	-84.65
223.759	1.37
223.977	-74.41
224.195	-47.79
224.413	-41.64
224.631	15.7
224.849	-31.4
225.067	34.13
225.285	34.13
225.503	9.56
225.721	-23.21
225.939	-60.07
226.157	1.37
226.375	36.18
226.592	73.04
226.81	52.56
227.028	5.46
227.246	21.85
227.464	-0.68
227.682	73.04
227.9	30.04
228.117	-76.46
228.335	-29.35
228.553	-51.88
228.771	73.04
228.989	-53.93
229.206	17.75
229.424	1.37
229.642	13.65
229.86	19.8
230.077	17.75
230.295	5.46
230.513	46.42
230.731	46.42
230.948	-53.93
231.166	56.66
231.384	-27.31
231.601	-4.78
231.819	-17.07
232.037	-27.31
232.254	5.46
232.472	-27.31
232.689	7.51
232.907	11.61
233.125	-23.21
233.342	23.89
233.56	-10.92
233.777	-51.88
233.995	13.65
234.213	-6.83
234.43	21.85
234.648	-4.78
234.865	-10.92
235.083	-23.21
235.3	25.94
235.518	-2.73
235.735	-47.79
235.953	-15.02
236.17	7.51
236.388	-35.5
236.605	-2.73
236.822	-31.4
237.04	15.7
237.257	15.7
237.475	-27.31
237.692	56.66
237.909	3.41
238.127	-64.17
238.344	21.85
238.562	-2.73
238.779	27.99
238.996	40.28
239.214	3.41
239.431	23.89
239.648	-33.45
239.865	13.65
240.083	-29.35
240.3	3.41
240.517	38.23
240.735	-39.59
240.952	-25.26
241.169	25.94
241.386	-31.4
241.603	21.85
241.821	-51.88
242.038	15.7
242.255	-35.5
242.472	-41.64
242.689	30.04
242.907	13.65
243.124	-19.11
243.341	9.56
243.558	30.04
243.775	25.94
243.992	-17.07
244.209	-37.55
244.426	11.61
244.643	-31.4
244.86	23.89
245.078	-51.88
245.295	38.23
245.512	81.24
245.729	-8.87
245.946	54.61
246.163	-35.5
246.38	32.08
246.597	5.46
246.814	32.08
247.031	-10.92
247.248	15.7
247.464	-68.27
247.681	-4.78
247.898	13.65
248.115	30.04
248.332	-0.68
248.549	34.13
248.766	5.46
248.983	-19.11
249.2	-51.88
249.417	54.61
249.633	-4.78
249.85	-27.31
250.067	40.28
250.284	1.37
250.501	-0.68
250.717	13.65
250.934	-19.11
251.151	-8.87
251.368	9.56
251.585	-43.69
251.801	40.28
252.018	11.61
252.235	-19.11
252.451	-35.5
252.668	-29.35
252.885	54.61
253.102	25.94
253.318	-19.11
253.535	-80.55
253.752	21.85
253.968	-41.64
254.185	-31.4
254.401	-19.11
254.618	-76.46
254.835	-29.35
255.051	-19.11
255.268	32.08
255.484	-41.64
255.701	-25.26
255.917	-2.73
256.134	9.56
256.351	5.46
256.567	-68.27
256.784	-55.98
257	15.7
257.217	27.99
257.433	34.13
257.65	40.28
257.866	17.75
258.082	-33.45
258.299	-29.35
258.515	9.56
258.732	-109.22
258.948	-25.26
259.165	-84.65
259.381	52.56
259.597	-17.07
259.814	-31.4
260.03	-39.59
260.246	40.28
260.463	38.23
260.679	-19.11
260.895	15.7
261.112	-15.02
261.328	7.51
261.544	-76.46
261.761	52.56
261.977	7.51
262.193	-80.55
262.409	103.76
262.626	25.94
262.842	32.08
263.058	-43.69
263.274	-19.11
263.49	32.08
263.707	48.47
263.923	27.99
264.139	13.65
264.355	-23.21
264.571	36.18
264.787	11.61
265.004	15.7
265.22	9.56
265.436	-39.59
265.652	-15.02
265.868	83.28
266.084	11.61
266.3	-80.55
266.516	-33.45
266.732	30.04
266.948	13.65
267.164	-33.45
267.38	7.51
267.596	-55.98
267.812	-27.31
268.028	54.61
268.244	-6.83
268.46	-2.73
268.676	-8.87
268.892	7.51
269.108	7.51
269.324	-43.69
269.54	-25.26
269.756	17.75
269.972	11.61
270.188	-43.69
270.403	19.8
270.619	-29.35
270.835	7.51
271.051	11.61
271.267	73.04
271.483	-80.55
271.698	-10.92
271.914	71
272.13	-60.07
272.346	3.41
272.562	17.75
272.777	-37.55
272.993	-35.5
273.209	38.23
273.425	87.38
273.64	9.56
273.856	17.75
274.072	73.04
274.287	-74.41
274.503	-25.26
274.719	17.75
274.934	30.04
275.15	-2.73
275.366	-12.97
275.581	-49.83
275.797	-17.07
276.012	38.23
276.228	48.47
276.444	30.04
276.659	-33.45
276.875	-80.55
277.09	7.51
277.306	-31.4
277.521	19.8
277.737	9.56
277.952	23.89
278.168	32.08
278.383	64.85
278.599	23.89
278.814	60.76
279.03	50.52
279.245	1.37
279.461	-25.26
279.676	-19.11
279.892	-21.16
280.107	-27.31
280.322	23.89
280.538	17.75
280.753	-4.78
280.969	-15.02
281.184	19.8
281.399	-0.68
281.615	21.85
281.83	73.04
282.045	-72.36
282.26	68.95
282.476	-49.83
282.691	-49.83
282.906	48.47
283.122	38.23
283.337	-21.16
283.552	-8.87
283.767	-2.73
283.983	52.56
284.198	50.52
284.413	-68.27
284.628	-12.97
284.843	21.85
285.058	99.67
285.274	-12.97
285.489	32.08
285.704	36.18
285.919	48.47
286.134	-2.73
286.349	9.56
286.564	17.75
286.779	-10.92
286.995	-0.68
287.21	-49.83
287.425	-23.21
287.64	-55.98
287.855	1.37
288.07	1.37
288.285	-2.73
288.5	-29.35
288.715	-43.69
288.93	-2.73
289.145	85.33
289.36	9.56
289.575	-47.79
289.79	11.61
290.004	36.18
290.219	46.42
290.434	-23.21
290.649	40.28
290.864	40.28
291.079	5.46
291.294	-29.35
291.509	1.37
291.724	-4.78
291.938	68.95
292.153	-27.31
292.368	56.66
292.583	30.04
292.798	27.99
293.012	50.52
293.227	-29.35
293.442	9.56
293.657	40.28
293.871	97.62
294.086	-45.74
294.301	30.04
294.516	21.85
294.73	25.94
294.945	46.42
295.16	-43.69
295.374	-23.21
295.589	46.42
295.804	-10.92
296.018	-2.73
296.233	30.04
296.447	54.61
296.662	-2.73
296.877	-10.92
297.091	46.42
297.306	62.8
297.52	-8.87
297.735	-25.26
297.949	15.7
298.164	7.51
298.378	71
298.593	30.04
298.807	-2.73
299.022	64.85
299.236	-10.92
299.451	40.28
299.665	7.51
299.88	27.99
300.094	38.23
300.309	5.46
300.523	-33.45
300.737	-0.68
300.952	21.85
301.166	95.57
301.381	1.37
301.595	-17.07
301.809	-31.4
302.024	64.85
302.238	-33.45
302.452	21.85
302.667	-31.4
302.881	-8.87
303.095	-23.21
303.309	42.32
303.524	-2.73
303.738	40.28
303.952	21.85
304.166	32.08
304.381	-88.75
304.595	5.46
304.809	40.28
305.023	30.04
305.237	21.85
305.452	-10.92
305.666	1.37
305.88	54.61
306.094	1.37
306.308	-39.59
306.522	-27.31
306.736	9.56
306.95	9.56
307.164	-68.27
307.379	52.56
307.593	46.42
307.807	-17.07
308.021	1.37
308.235	-6.83
308.449	-6.83
308.663	23.89
308.877	-10.92
309.091	13.65
309.305	-23.21
309.519	-37.55
309.733	32.08
309.947	-76.46
310.161	-0.68
310.374	30.04
310.588	66.9
310.802	-0.68
311.016	-19.11
311.23	-78.51
311.444	46.42
311.658	32.08
311.872	46.42
312.085	27.99
312.299	-4.78
312.513	-15.02
312.727	-17.07
312.941	30.04
313.154	50.52
313.368	-25.26
313.582	9.56
313.796	9.56
314.009	15.7
314.223	34.13
314.437	9.56
314.651	-31.4
314.864	46.42
315.078	1.37
315.292	-0.68
315.505	30.04
315.719	-23.21
315.933	-2.73
316.146	7.51
316.36	64.85
316.573	-21.16
316.787	-0.68
317.001	5.46
317.214	-8.87
317.428	-35.5
317.641	-8.87
317.855	5.46
318.068	7.51
318.282	75.09
318.495	1.37
318.709	-0.68
318.922	-29.35
319.136	-19.11
319.349	-25.26
319.563	68.95
319.776	9.56
319.99	15.7
320.203	1.37
320.417	-35.5
320.63	23.89
320.843	25.94
321.057	-10.92
321.27	21.85
321.483	52.56
321.697	40.28
321.91	-60.07
322.124	38.23
322.337	21.85
322.55	27.99
322.763	-8.87
322.977	17.75
323.19	13.65
323.403	52.56
323.617	1.37
323.83	27.99
324.043	5.46
324.256	58.71
324.469	-45.74
324.683	38.23
324.896	25.94
325.109	21.85
325.322	17.75
325.535	75.09
325.748	-8.87
325.962	17.75
326.175	-19.11
326.388	-19.11
326.601	7.51
326.814	32.08
327.027	-2.73
327.24	-31.4
327.453	-39.59
327.666	21.85
327.879	21.85
328.092	27.99
328.305	1.37
328.518	-29.35
328.731	1.37
328.944	38.23
329.157	-51.88
329.37	54.61
329.583	44.37
329.796	44.37
330.009	-12.97
330.222	5.46
330.435	-35.5
330.648	56.66
330.861	-49.83
331.073	-39.59
331.286	-10.92
331.499	54.61
331.712	-0.68
331.925	21.85
332.138	-17.07
332.35	56.66
332.563	42.32
332.776	40.28
332.989	46.42
333.202	64.85
333.414	-12.97
333.627	54.61
333.84	-2.73
334.053	58.71
334.265	56.66
334.478	-41.64
334.691	83.28
334.903	5.46
335.116	-35.5
335.329	21.85
335.541	-21.16
335.754	7.51
335.966	21.85
336.179	5.46
336.392	1.37
336.604	19.8
336.817	23.89
337.029	83.28
337.242	42.32
337.454	-6.83
337.667	-76.46
337.88	9.56
338.092	-6.83
338.305	64.85
338.517	-47.79
338.729	3.41
338.942	64.85
339.154	5.46
339.367	-27.31
339.579	38.23
339.792	-60.07
340.004	-45.74
340.217	27.99
340.429	54.61
340.641	-25.26
340.854	46.42
341.066	-17.07
341.278	7.51
341.491	-19.11
341.703	36.18
341.915	-58.03
342.128	5.46
342.34	7.51
342.552	42.32
342.764	-43.69
342.977	25.94
343.189	-2.73
343.401	1.37
343.613	17.75
343.826	27.99
344.038	-43.69
344.25	36.18
344.462	75.09
344.674	75.09
344.886	25.94
345.099	9.56
345.311	25.94
345.523	46.42
345.735	-53.93
345.947	99.67
346.159	54.61
346.371	50.52
346.583	1.37
346.795	21.85
347.007	3.41
347.219	-17.07
347.431	21.85
347.643	15.7
347.855	-15.02
348.067	54.61
348.279	-29.35
348.491	27.99
348.703	40.28
348.915	38.23
349.127	15.7
349.339	-8.87
349.551	17.75
349.763	62.8
349.975	36.18
350.187	42.32
350.399	9.56
350.61	56.66
350.822	50.52
351.034	50.52
351.246	-0.68
351.458	-8.87
351.669	-0.68
351.881	32.08
352.093	11.61
352.305	23.89
352.517	-47.79
352.728	-25.26
352.94	83.28
353.152	44.37
353.363	75.09
353.575	32.08
353.787	23.89
353.999	13.65
354.21	-2.73
354.422	79.19
354.633	-23.21
354.845	75.09
355.057	7.51
355.268	25.94
355.48	103.76
355.692	32.08
355.903	54.61
356.115	-84.65
356.326	15.7
356.538	50.52
356.749	11.61
356.961	64.85
357.172	40.28
357.384	68.95
357.595	5.46
357.807	101.72
358.018	30.04
358.23	46.42
358.441	-21.16
358.653	-12.97
358.864	34.13
359.075	52.56
359.287	-23.21
359.498	9.56
359.709	-4.78
359.921	-8.87
360.132	9.56
360.344	36.18
360.555	32.08
360.766	56.66
360.977	5.46
361.189	7.51
361.4	79.19
361.611	5.46
361.823	38.23
362.034	25.94
362.245	-2.73
362.456	62.8
362.667	25.94
362.879	-35.5
363.09	-12.97
363.301	-10.92
363.512	-15.02
363.723	-0.68
363.935	13.65
364.146	64.85
364.357	-92.84
364.568	42.32
364.779	-47.79
364.99	44.37
365.201	46.42
365.412	114
365.623	-0.68
365.834	66.9
366.045	7.51
366.256	81.24
366.467	46.42
366.678	-39.59
366.889	48.47
367.1	50.52
367.311	15.7
367.522	68.95
367.733	54.61
367.944	111.96
368.155	79.19
368.366	44.37
368.577	-27.31
368.788	-23.21
368.999	15.7
369.209	25.94
369.42	-33.45
369.631	17.75
369.842	46.42
370.053	-41.64
370.264	48.47
370.474	50.52
370.685	81.24
370.896	46.42
371.107	7.51
371.317	79.19
371.528	1.37
371.739	13.65
371.95	9.56
372.16	85.33
372.371	-10.92
372.582	1.37
372.792	-62.12
373.003	11.61
373.214	-12.97
373.424	34.13
373.635	23.89
373.846	44.37
374.056	-33.45
374.267	38.23
374.477	-8.87
374.688	5.46
374.898	19.8
375.109	-10.92
375.319	13.65
375.53	-6.83
375.74	38.23
375.951	30.04
376.161	34.13
376.372	87.38
376.582	-70.31
376.793	1.37
377.003	5.46
377.214	56.66
377.424	38.23
377.635	50.52
377.845	-19.11
378.055	46.42
378.266	103.76
378.476	64.85
378.686	66.9
378.897	30.04
379.107	62.8
379.317	-21.16
379.528	-23.21
379.738	48.47
379.948	-0.68
380.158	34.13
380.369	34.13
380.579	30.04
380.789	21.85
380.999	30.04
381.21	38.23
381.42	36.18
381.63	21.85
381.84	-12.97
382.05	46.42
382.261	64.85
382.471	46.42
382.681	-17.07
382.891	38.23
383.101	46.42
383.311	-4.78
383.521	-31.4
383.731	11.61
383.941	77.14
384.151	23.89
384.361	-39.59
384.571	95.57
384.781	103.76
384.991	-10.92
385.201	3.41
385.411	7.51
385.621	44.37
385.831	40.28
386.041	38.23
386.251	30.04
386.461	48.47
386.671	-19.11
386.881	-27.31
387.091	38.23
387.301	77.14
387.511	58.71
387.72	13.65
387.93	68.95
388.14	48.47
388.35	54.61
388.56	64.85
388.769	19.8
388.979	40.28
389.189	-19.11
389.399	-0.68
389.609	3.41
389.818	25.94
390.028	23.89
390.238	5.46
390.447	-15.02
390.657	66.9
390.867	19.8
391.076	9.56
391.286	56.66
391.496	5.46
391.705	5.46
391.915	15.7
392.125	64.85
392.334	7.51
392.544	81.24
392.753	81.24
392.963	19.8
393.172	66.9
393.382	17.75
393.591	50.52
393.801	30.04
394.01	32.08
394.22	-6.83
394.429	17.75
394.639	36.18
394.848	64.85
395.058	50.52
395.267	48.47
395.477	-4.78
395.686	-8.87
395.895	83.28
396.105	71
396.314	42.32
396.524	73.04
396.733	77.14
396.942	75.09
397.152	75.09
397.361	169.3
397.57	60.76
397.78	62.8
397.989	48.47
398.198	68.95
398.407	54.61
398.617	105.81
398.826	64.85
399.035	116.05
399.244	109.91
399.453	40.28
399.663	111.96
399.872	71
400.081	52.56
400.29	99.67
400.499	109.91
400.708	93.52
400.917	62.8
401.127	56.66
401.336	79.19
401.545	23.89
401.754	95.57
401.963	81.24
402.172	85.33
402.381	58.71
402.59	54.61
402.799	95.57
403.008	75.09
403.217	62.8
403.426	50.52
403.635	87.38
403.844	157.01
404.053	132.44
404.262	126.29
404.471	177.49
404.68	99.67
404.888	120.15
405.097	107.86
405.306	97.62
405.515	236.88
405.724	234.83
405.933	152.91
406.142	234.83
406.35	128.34
406.559	73.04
406.768	171.35
406.977	189.78
407.185	183.63
407.394	157.01
407.603	169.3
407.812	222.55
408.02	226.64
408.229	302.42
408.438	206.16
408.646	238.93
408.855	169.3
409.064	216.4
409.272	263.51
409.481	267.6
409.69	365.9
409.898	333.14
410.107	240.98
410.315	308.56
410.524	382.29
410.733	339.28
410.941	390.48
411.15	390.48
411.358	372.05
411.567	443.73
411.775	456.01
411.984	398.67
412.192	441.68
412.401	439.63
412.609	523.6
412.818	474.45
413.026	447.82
413.234	529.74
413.443	523.6
413.651	521.55
413.86	617.8
414.068	568.65
414.276	603.47
414.485	712.01
414.693	619.85
414.901	771.4
415.11	728.39
415.318	712.01
415.526	830.79
415.734	810.31
415.943	787.79
416.151	884.04
416.359	920.9
416.567	804.17
416.776	906.57
416.984	955.72
417.192	1090.88
417.4	976.2
417.608	1045.83
417.817	1111.36
418.025	1107.27
418.233	1226.05
418.441	1056.07
418.649	1279.3
418.857	1353.02
419.065	1377.6
419.273	1400.13
419.481	1389.89
419.689	1436.99
419.897	1523.01
420.105	1574.21
420.313	1654.08
420.521	1547.58
420.729	1713.47
420.937	1711.42
421.145	1819.96
421.353	1942.84
421.561	2055.48
421.769	1873.21
421.977	2125.11
422.185	2209.08
422.393	2344.24
422.601	2381.1
422.809	2352.43
423.017	2473.26
423.224	2463.02
423.432	2510.13
423.64	2739.5
423.848	2751.79
424.056	2864.43
424.263	3052.84
424.471	3028.26
424.679	2987.3
424.887	3323.17
425.094	3351.84
425.302	3292.45
425.51	3456.29
425.718	3534.11
425.925	3743
426.133	3794.2
426.341	4003.1
426.548	4056.34
426.756	4103.45
426.964	4066.58
427.171	4420.88
427.379	4373.78
427.586	4635.92
427.794	4668.69
428.001	4990.22
428.209	5305.6
428.417	4973.83
428.624	5481.73
428.832	5416.19
429.039	5391.62
429.247	5575.94
429.454	5917.95
429.662	6321.4
429.869	5868.8
430.076	6409.46
430.284	6042.87
430.491	6302.97
430.699	6888.68
430.906	6821.1
431.114	7021.8
431.321	7136.49
431.528	7267.56
431.736	7716.06
431.943	7924.96
432.15	7632.1
432.358	7953.63
432.565	8367.32
432.772	8498.39
432.979	8744.14
433.187	8858.83
433.394	8971.47
433.601	9682.11
433.808	9585.86
434.016	9471.17
434.223	9813.18
434.43	10677.43
434.637	10249.4
434.844	10917.04
435.052	11240.62
435.259	10990.77
435.466	11181.23
435.673	11285.67
435.88	11826.34
436.087	12225.69
436.294	12545.17
436.501	12235.93
436.708	12416.15
436.915	12809.36
437.122	13460.62
437.329	13323.4
437.537	13948.03
437.743	14007.42
437.95	13655.17
438.157	14666.87
438.364	15148.14
438.571	15006.83
438.778	14996.59
438.985	16499.8
439.192	15977.57
439.399	16299.1
439.606	15922.27
439.813	16981.07
440.02	17914.95
440.227	17716.29
440.433	17323.08
440.64	18218.05
440.847	17767.49
441.054	18142.27
441.261	19567.66
441.467	19432.49
441.674	19729.45
441.881	20243.49
442.088	20397.09
442.294	20155.43
442.501	20667.42
442.708	21154.83
442.914	22115.33
443.121	22879.22
443.328	22508.54
443.534	23913.45
443.741	23213.04
443.948	23043.06
444.154	24374.24
444.361	24529.89
444.568	24402.91
444.774	24527.84
444.981	24892.38
445.187	25603.02
445.394	26704.83
445.6	26325.96
445.807	29012.89
446.013	27540.4
446.22	28273.57
446.426	29172.63
446.633	29418.39
446.839	30280.58
447.046	29287.32
447.252	30925.69
447.459	30868.35
447.665	30233.48
447.871	32082.8
448.078	33491.8
448.284	31695.73
448.491	32633.7
448.697	33682.26
448.903	34534.21
449.11	34288.46
449.316	34093.9
449.522	34710.34
449.728	35525.43
449.935	35945.26
450.141	35711.8
450.347	36530.98
450.553	35582.77
450.76	35765.04
450.966	37112.61
451.172	36404.01
451.378	37387.03
451.584	36782.88
451.791	37593.88
451.997	37411.61
452.203	38208.27
452.409	38019.86
452.615	37600.02
452.821	36469.54
453.027	36035.38
453.233	38038.29
453.44	36440.87
453.646	36856.61
453.852	36662.05
454.058	37552.92
454.264	36444.97
454.47	37419.8
454.676	35978.03
454.882	37704.47
455.088	34145.1
455.294	35193.66
455.5	35287.87
455.705	35502.9
455.911	34196.3
456.117	33514.33
456.323	33442.65
456.529	31394.68
456.735	32785.25
456.941	31859.57
457.147	31167.35
457.352	30712.7
457.558	30288.78
457.764	29868.94
457.97	29520.79
458.176	29103
458.381	28638.11
458.587	27378.61
458.793	27620.27
458.999	26532.8
459.204	28249
459.41	27317.17
459.616	25469.9
459.821	25252.82
460.027	25465.81
460.233	24681.44
460.438	23569.39
460.644	24067.05
460.85	22887.42
461.055	22410.24
461.261	22297.6
461.466	20691.99
461.672	20302.88
461.878	21478.41
462.083	19842.09
462.289	20059.17
462.494	19708.97
462.7	18472
462.905	18220.1
463.111	18687.03
463.316	18918.45
463.522	18402.36
463.727	18578.49
463.932	18433.08
464.138	18359.36
464.343	18426.94
464.549	17910.85
464.754	18535.48
464.959	18420.8
465.165	18168.9
465.37	17087.57
465.575	17007.7
465.781	17689.67
465.986	18015.3
466.191	17179.73
466.397	16723.03
466.602	16010.34
466.807	16565.34
467.012	16313.44
467.218	16604.25
467.423	16168.03
467.628	16467.03
467.833	16841.81
468.038	16155.74
468.244	16065.63
468.449	16548.95
468.654	15881.31
468.859	16061.54
469.064	15780.96
469.269	14969.97
469.474	15201.39
469.679	15469.67
469.885	15035.5
470.09	15537.26
470.295	15350.89
470.5	15037.55
470.705	15096.94
470.91	14507.13
471.115	14632.05
471.32	14697.59
471.525	14599.29
471.73	14240.89
471.935	14097.53
472.139	13579.4
472.344	13857.92
472.549	13843.59
472.754	13657.22
472.959	13411.46
473.164	13073.55
473.369	12977.3
473.574	13345.93
473.778	13358.22
473.983	12827.79
474.188	12995.73
474.393	12477.59
474.598	12530.84
474.802	12446.87
475.007	12231.83
475.212	12262.55
475.417	11795.62
475.621	11947.17
475.826	12039.33
476.031	11611.3
476.235	11603.11
476.44	11670.69
476.645	11480.23
476.849	11445.41
477.054	11371.69
477.259	11162.79
477.463	11095.21
477.668	10970.29
477.872	10736.82
478.077	10790.06
478.282	10429.62
478.486	10480.82
478.691	10110.14
478.895	10450.1
479.1	10376.37
479.304	10214.59
479.509	9856.19
479.713	10247.35
479.918	9831.62
480.122	9790.66
480.326	9934.01
480.531	9917.63
480.735	9737.41
480.94	9673.92
481.144	10128.57
481.348	9592
481.553	9647.3
481.757	9569.48
481.961	9518.28
482.166	9714.88
482.37	9657.54
482.574	9356.49
482.778	9587.91
482.983	9608.39
483.187	9626.82
483.391	9743.55
483.595	9370.82
483.8	9501.89
484.004	9600.19
484.208	9612.48
484.412	9469.12
484.616	9559.24
484.821	9528.52
485.025	9254.09
485.229	9514.18
485.433	9293
485.637	9673.92
485.841	9403.59
486.045	9362.63
486.249	9438.41
486.453	9329.86
486.657	9413.83
486.861	9503.94
487.065	9067.72
487.269	9399.49
487.473	9311.43
487.677	9532.61
487.881	9620.67
488.085	9309.38
488.289	9391.3
488.493	9198.79
488.697	9575.62
488.901	9536.71
489.105	9565.38
489.309	9559.24
489.512	9542.85
489.716	9641.15
489.92	9659.59
490.124	9579.72
490.328	9690.31
490.531	9761.98
490.735	9718.98
490.939	9776.32
491.143	9678.02
491.346	9671.87
491.55	9786.56
491.754	9923.77
491.958	10091.71
492.161	9862.33
492.365	10052.8
492.569	10108.09
492.772	10130.62
492.976	10194.11
493.18	10142.91
493.383	10384.57
493.587	10294.46
493.79	10458.29
493.994	10403
494.197	10403
494.401	10364.09
494.605	10540.21
494.808	10648.75
495.012	10652.85
495.215	10771.63
495.419	10912.94
495.622	10826.93
495.825	11074.73
496.029	11111.6
496.232	11261.1
496.436	11130.03
496.639	11621.54
496.843	11502.76
497.046	11709.6
497.249	11941.02
497.453	11994.27
497.656	11986.08
497.859	12143.77
498.063	12061.85
498.266	12485.78
498.469	12616.85
498.673	12315.8
498.876	12807.31
499.079	12844.18
499.282	12924.05
499.485	13212.81
499.689	13268.11
499.892	13485.19
500.095	13460.62
500.298	13694.08
500.501	13558.92
500.705	13862.02
500.908	14060.67
501.111	14349.43
501.314	14324.86
501.517	14652.53
501.72	14746.74
501.923	14767.22
502.126	15010.93
502.329	15484.01
502.532	15473.77
502.735	15486.06
502.938	15713.38
503.141	16008.29
503.344	16010.34
503.547	16061.54
503.75	16581.72
503.953	16845.91
504.156	16876.63
504.359	17183.82
504.562	17038.42
504.765	17507.4
504.968	17605.7
505.17	18197.57
505.373	17943.62
505.576	18342.97
505.779	18480.19
505.982	18773.05
506.185	19219.5
506.387	19256.37
506.59	19250.22
506.793	19657.77
506.996	19715.11
507.198	20126.75
507.401	20276.26
507.604	20196.39
507.807	20550.68
508.009	20960.28
508.212	21128.21
508.415	21414.93
508.617	21636.11
508.82	22027.27
509.022	21810.18
509.225	22361.09
509.428	22522.88
509.63	22985.72
509.833	22578.17
510.035	23190.52
510.238	23280.63
510.44	23491.57
510.643	24183.78
510.845	24435.68
511.048	24101.86
511.25	24552.41
511.453	24724.44
511.655	25617.36
511.858	25521.1
512.06	25830.35
512.262	26258.37
512.465	26237.89
512.667	26612.67
512.87	26717.12
513.072	26852.28
513.274	27587.5
513.477	27786.16
513.679	27915.18
513.881	28062.63
514.084	28558.24
514.286	28277.67
514.488	28734.37
514.69	29703.06
514.893	29832.08
515.095	29891.47
515.297	30417.8
515.499	30258.06
515.701	31009.66
515.904	31239.03
516.106	31150.97
516.308	31662.96
516.51	31851.38
516.712	31882.09
516.914	32441.19
517.116	33131.36
517.318	32854.88
517.52	33454.93
517.722	33641.3
517.925	34171.72
518.127	34687.81
518.329	34501.45
518.531	34614.09
518.733	35185.47
518.935	35988.27
519.136	35658.55
519.338	36266.8
519.54	36617
519.742	36821.8
519.944	36963.11
520.146	37749.53
520.348	37899.03
520.55	37892.88
520.752	38456.07
520.954	38947.59
521.155	38773.51
521.357	39316.22
521.559	39416.57
521.761	39940.85
521.963	40006.39
522.164	40364.78
522.366	40338.16
522.568	41112.29
522.77	40999.65
522.971	41753.3
523.173	41788.12
523.375	42480.33
523.576	42128.08
523.778	42101.46
523.98	42674.89
524.181	42982.09
524.383	42765
524.584	43958.97
524.786	43797.18
524.988	43657.92
525.189	44305.07
525.391	44452.53
525.592	45097.64
525.794	44903.08
525.995	44794.54
526.197	45114.02
526.398	45097.64
526.6	45695.64
526.801	45894.3
527.003	46107.29
527.204	45529.76
527.406	46166.68
527.607	45933.21
527.808	46688.91
528.01	46002.84
528.211	46346.9
528.412	47770.24
528.614	47291.01
528.815	47043.21
529.016	47456.9
529.218	47096.45
529.419	47475.33
529.62	47663.74
529.822	47266.44
530.023	47729.28
530.224	47909.5
530.425	47606.4
530.626	47458.95
530.828	47467.14
531.029	48751.21
531.23	47921.79
531.431	47903.35
531.632	48478.83
531.833	48513.65
532.035	48497.27
532.236	48689.77
532.437	48614
532.638	48497.27
532.839	48587.38
533.04	48474.74
533.241	48001.66
533.442	49298.02
533.643	48435.83
533.844	48738.93
534.045	48867.95
534.246	48605.81
534.447	48831.08
534.648	49087.08
534.849	49232.49
535.05	48218.74
535.251	48757.36
535.451	48861.8
535.652	48839.28
535.853	49117.8
536.054	48937.58
536.255	49293.93
536.456	49056.36
536.657	49603.17
536.857	48986.73
537.058	48722.54
537.259	49021.55
537.46	49427.04
537.66	49058.41
537.861	49060.46
538.062	49082.98
538.263	49318.5
538.463	48646.77
538.664	49085.03
538.865	49175.14
539.065	49588.83
539.266	48738.93
539.466	49738.33
539.667	48444.02
539.868	49486.43
540.068	49367.65
540.269	48740.97
540.469	49373.8
540.67	48896.62
540.87	48956.01
541.071	48867.95
541.271	49263.21
541.472	49035.88
541.672	48605.81
541.873	48906.86
542.073	48626.29
542.274	49496.67
542.474	49060.46
542.675	48491.12
542.875	48865.9
543.075	48968.3
543.276	48874.09
543.476	48951.91
543.676	48415.35
543.877	48999.02
544.077	49056.36
544.277	48726.64
544.478	48667.25
544.678	49156.71
544.878	48583.28
545.078	48949.87
545.279	48384.63
545.479	48839.28
545.679	48679.53
545.879	48974.44
546.079	48777.84
546.28	49134.18
546.48	48380.53
546.68	48775.79
546.88	48685.68
547.08	48743.02
547.28	48542.32
547.48	48587.38
547.68	48673.39
547.88	48544.37
548.081	48673.39
548.281	48614
548.481	48628.34
548.681	48841.32
548.881	48734.83
549.081	48583.28
549.28	48802.41
549.48	48597.62
549.68	48515.7
549.88	48796.27
550.08	47997.56
550.28	48915.05
550.48	48687.73
550.68	48616.05
550.88	48216.69
551.08	48620.14
551.279	48220.79
551.479	48308.85
551.679	48495.22
551.879	48188.02
552.079	48519.79
552.278	48136.82
552.478	48317.04
552.678	48470.64
552.878	48654.96
553.077	48104.06
553.277	47780.48
553.477	48183.93
553.676	47940.22
553.876	48011.9
554.076	47860.35
554.275	47780.48
554.475	47506.05
554.674	48116.34
554.874	47968.89
555.074	47901.31
555.273	47727.23
555.473	48061.05
555.672	47784.57
555.872	47944.31
556.071	47651.45
556.271	47940.22
556.47	47706.75
556.67	47487.62
556.869	47850.11
557.068	47585.92
557.268	47471.23
557.467	47108.74
557.667	47803
557.866	46901.9
558.065	47417.99
558.265	47145.61
558.464	46809.74
558.663	47284.87
558.863	46549.65
559.062	47342.21
559.261	46961.29
559.461	47258.24
559.66	46219.92
559.859	46977.67
560.058	46494.35
560.258	46559.89
560.457	46246.55
560.656	46586.51
560.855	46195.35
561.054	46600.85
561.253	46314.13
561.453	46033.56
561.652	46500.5
561.851	46594.7
562.05	46283.41
562.249	45896.34
562.448	45990.55
562.647	45933.21
562.846	45914.78
563.045	45671.07
563.244	45763.23
563.443	46295.7
563.642	45271.71
563.841	45630.11
564.04	45488.8
564.239	46377.62
564.438	45292.19
564.637	45324.96
564.836	45304.48
565.035	44765.87
565.234	45152.93
565.432	44667.56
565.631	45107.88
565.83	45269.67
566.029	44481.2
566.228	44405.42
566.427	44339.89
566.625	44337.84
566.824	44077.75
567.023	44468.91
567.222	43317.95
567.42	44190.39
567.619	43989.69
567.818	43864.76
568.016	43936.44
568.215	44346.03
568.414	43420.35
568.612	44014.26
568.811	43416.25
569.01	43250.37
569.208	42885.83
569.407	43541.18
569.605	43139.78
569.804	43373.25
570.002	42797.77
570.201	43086.53
570.4	42889.93
570.598	42480.33
570.797	42261.2
570.995	42468.05
571.193	41915.09
571.392	42887.88
571.59	42197.71
571.789	42019.54
571.987	41919.19
572.186	41640.67
572.384	41972.44
572.582	41827.03
572.781	41741.02
572.979	41296.61
573.177	41145.06
573.376	41462.49
573.574	41339.61
573.772	41003.75
573.971	40925.92
574.169	40821.48
574.367	40622.83
574.565	40563.43
574.763	40862.44
574.962	40229.62
575.16	40346.35
575.358	40409.84
575.556	39871.22
575.754	40385.26
575.952	39617.27
576.151	39721.72
576.349	39869.17
576.547	39467.77
576.745	39299.84
576.943	39248.64
577.141	39496.44
577.339	39398.14
577.537	39308.03
577.735	38988.55
577.933	38642.44
578.131	38695.69
578.329	38521.61
578.527	38480.65
578.725	38544.14
578.923	38642.44
579.121	38001.43
579.319	38325
579.516	38613.77
579.714	38335.24
579.912	37608.22
580.11	38005.52
580.308	37837.59
580.506	37337.88
580.704	37247.77
580.901	37649.17
581.099	37370.65
581.297	37012.26
581.495	36938.53
581.692	37407.51
581.89	36907.81
582.088	37083.94
582.285	36680.49
582.483	36668.2
582.681	36805.41
582.878	36223.79
583.076	36274.99
583.274	35986.22
583.471	35980.08
583.669	36289.32
583.866	35853.11
584.064	35619.64
584.262	35386.17
584.459	35742.52
584.657	35429.18
584.854	35529.53
585.052	35007.3
585.249	35318.59
585.447	35375.93
585.644	34988.86
585.841	35105.6
586.039	35502.9
586.236	34532.17
586.434	34696
586.631	34448.2
586.828	34808.64
587.026	34589.51
587.223	34462.54
587.42	33977.17
587.618	34229.07
587.815	34073.42
588.012	34216.78
588.21	33520.47
588.407	34126.67
588.604	33532.76
588.801	33229.66
588.999	33354.58
589.196	33237.85
589.393	33272.67
589.59	33213.27
589.787	33067.87
589.984	32994.14
590.182	32762.72
590.379	33110.88
590.576	32596.84
590.773	32926.56
590.97	32883.55
591.167	32762.72
591.364	32133.99
591.561	32318.31
591.758	31945.58
591.955	32152.43
592.152	32154.47
592.349	31636.34
592.546	32027.5
592.743	31843.18
592.94	31185.79
593.137	31533.94
593.334	31689.59
593.531	31257.46
593.727	31603.57
593.924	31419.25
594.121	31042.43
594.318	31591.28
594.515	30716.8
594.712	30720.9
594.908	30516.1
595.105	30837.63
595.302	30337.93
595.499	30536.58
595.696	30137.23
595.892	30059.4
596.089	30012.3
596.286	30405.51
596.482	30129.03
596.679	30499.72
596.876	29842.32
597.072	29819.79
597.269	29832.08
597.466	29617.04
597.662	29553.55
597.859	29375.38
598.055	29463.44
598.252	28955.55
598.448	29275.03
598.645	28849.05
598.841	28754.85
599.038	29117.34
599.234	28969.88
599.431	28347.3
599.627	28838.81
599.824	28838.81
600.02	28218.28
600.217	28558.24
600.413	28359.59
600.609	28244.9
600.806	27843.5
601.002	28171.18
601.198	27818.92
601.395	27933.61
601.591	27540.4
601.787	27902.89
601.984	27585.46
602.18	27939.75
602.376	27425.71
602.572	27431.86
602.769	27405.24
602.965	26911.67
603.161	27255.73
603.357	26958.78
603.553	27018.17
603.75	27052.98
603.946	26981.31
604.142	26878.91
604.338	26321.86
604.534	26645.44
604.73	26481.6
604.926	26471.36
605.122	26422.21
605.318	26194.89
605.514	25674.7
605.71	26133.45
605.906	25906.12
606.102	25861.07
606.298	25744.33
606.494	25580.49
606.69	25449.42
606.886	25664.46
607.082	25449.42
607.278	25582.54
607.474	25113.56
607.67	25422.8
607.866	24886.23
608.062	25265.11
608.257	24996.82
608.453	25154.52
608.649	24808.41
608.845	24855.51
609.041	24595.42
609.236	24759.26
609.432	24824.79
609.628	24552.41
609.824	24591.33
610.019	24728.54
610.215	24196.07
610.411	24378.34
610.606	24222.69
610.802	24110.05
610.998	24194.02
611.193	24140.77
611.389	24011.75
611.584	23704.56
611.78	23536.62
611.976	23796.71
612.171	23864.3
612.367	23618.54
612.562	23804.91
612.758	23221.23
612.953	23321.59
613.149	23630.83
613.344	23157.75
613.539	23557.1
613.735	23178.23
613.93	23370.74
614.126	23057.4
614.321	23266.29
614.517	23305.2
614.712	23114.74
614.907	22735.87
615.103	23161.84
615.298	22727.67
615.493	23360.5
615.688	22672.38
615.884	22899.7
616.079	22309.89
616.274	22449.15
616.47	22326.27
616.665	22721.53
616.86	22443.01
617.055	22526.97
617.25	22090.76
617.445	22213.63
617.641	22244.35
617.836	22264.83
618.031	21765.13
618.226	21865.48
618.421	21910.53
618.616	22086.66
618.811	21546
619.006	21785.61
619.201	21160.98
619.396	21443.6
619.591	21398.54
619.786	21476.37
619.981	21109.78
620.176	21220.37
620.371	21105.68
620.566	21294.1
620.761	20677.66
620.956	21058.58
621.151	20476.96
621.346	20698.14
621.541	20360.22
621.735	20458.53
621.93	20110.37
622.125	20263.97
622.32	19706.92
622.515	20026.4
622.709	19837.99
622.904	19866.66
623.099	19194.93
623.294	19604.52
623.488	19391.53
623.683	19711.02
623.878	19143.73
624.072	19205.17
624.267	19037.23
624.462	19158.06
624.656	18975.8
624.851	18566.2
625.046	18603.07
625.24	18641.98
625.435	18201.66
625.629	18340.93
625.824	18170.94
626.018	18422.84
626.213	17830.98
626.407	18005.06
626.602	17812.55
626.796	18033.73
626.991	17765.45
627.185	17736.77
627.38	17345.61
627.574	17300.56
627.768	17097.81
627.963	17312.85
628.157	17101.9
628.352	16919.64
628.546	16872.53
628.74	17001.55
628.935	16956.5
629.129	16860.24
629.323	16421.98
629.517	16632.92
629.712	16315.48
629.906	16395.36
630.1	16010.34
630.294	16020.58
630.489	15993.95
630.683	16077.92
630.877	15680.61
631.071	15740.01
631.265	15895.65
631.459	15737.96
631.653	15623.27
631.848	15416.43
632.042	15129.71
632.236	15430.76
632.43	15309.93
632.624	15357.03
632.818	15109.23
633.012	14902.39
633.206	14965.87
633.4	15215.73
633.594	14668.92
633.788	14640.25
633.982	14967.92
634.176	14576.76
634.369	14472.31
634.563	14769.27
634.757	14146.69
634.951	14318.71
635.145	14279.8
635.339	14081.15
635.533	14244.99
635.726	13997.18
635.92	13753.48
636.114	14054.53
636.308	13839.49
636.501	13751.43
636.695	13757.57
636.889	13431.94
637.083	13472.9
637.276	13538.44
637.47	13292.68
637.664	13384.84
637.857	13157.52
638.051	13405.32
638.244	12827.79
638.438	13081.74
638.632	12801.17
638.825	12762.26
639.019	12506.26
639.212	12424.34
639.406	12539.03
639.599	12479.64
639.793	12551.32
639.986	12113.05
640.18	12432.54
640.373	12233.88
640.567	12227.74
640.76	12256.41
640.954	12088.48
641.147	11920.54
641.34	11773.09
641.534	11908.26
641.727	11756.71
641.92	11697.31
642.114	11650.21
642.307	11682.98
642.5	11410.6
642.694	11441.32
642.887	11058.35
643.08	11613.35
643.273	11541.67
643.467	11287.72
643.66	11259.05
643.853	11015.34
644.046	11230.38
644.239	10788.02
644.432	10812.59
644.626	10886.32
644.819	10943.66
645.012	10804.4
645.205	10710.19
645.398	10691.76
645.591	10695.86
645.784	10308.79
645.977	10204.35
646.17	10308.79
646.363	10155.19
646.556	10216.63
646.749	10052.8
646.942	10171.58
647.135	10011.84
647.328	10058.94
647.521	9907.39
647.714	9837.76
647.907	9755.84
648.099	9587.91
648.292	9823.42
648.485	9632.96
648.678	9589.95
648.871	9495.75
649.064	9426.12
649.256	9575.62
649.449	9374.92
649.642	9471.17
649.835	9356.49
650.027	9348.29
650.22	9102.54
650.413	9258.18
650.605	9139.4
650.798	8989.9
650.991	9059.53
651.183	8907.98
651.376	8791.25
651.568	8742.1
651.761	8637.65
651.954	8604.88
652.146	8717.52
652.339	8791.25
652.531	8608.98
652.724	8439
652.916	8443.09
653.109	8379.61
653.301	8250.58
653.494	8299.73
653.686	8158.42
653.879	8082.65
654.071	8219.86
654.263	8010.97
654.456	8105.18
654.648	8000.73
654.84	7847.13
655.033	7804.13
655.225	7838.94
655.417	7804.13
655.61	7904.48
655.802	7795.93
655.994	7462.12
656.186	7732.45
656.379	7613.67
656.571	7613.67
656.763	7644.38
656.955	7472.36
657.148	7423.2
657.34	7546.08
657.532	7271.65
657.724	7443.68
657.916	7324.9
658.108	7273.7
658.3	7050.47
658.492	7124.2
658.684	7025.9
658.876	6995.18
659.068	6984.94
659.26	7054.57
659.452	6845.68
659.644	6976.75
659.836	6800.62
660.028	6599.92
660.22	6642.93
660.412	6831.34
660.604	6589.68
660.796	6640.88
660.988	6518
661.18	6518
661.372	6589.68
661.563	6493.43
661.755	6329.59
661.947	6372.6
662.139	6305.01
662.331	6233.33
662.522	6296.82
662.714	6145.27
662.906	6221.05
663.097	6366.45
663.289	6296.82
663.481	6149.37
663.673	6085.88
663.864	6003.96
664.056	5784.83
664.247	6044.92
664.439	5743.87
664.631	5844.22
664.822	5782.78
665.014	5850.36
665.205	5643.52
665.397	5664
665.588	5817.6
665.78	5629.18
665.971	5600.51
666.163	5690.62
666.354	5575.94
666.546	5446.91
666.737	5608.7
666.929	5522.69
667.12	5451.01
667.311	5489.92
667.503	5430.53
667.694	5293.32
667.885	5242.12
668.077	5395.72
668.268	5354.76
668.459	5338.37
668.651	5219.59
668.842	5135.62
669.033	5145.86
669.224	5129.48
669.416	5162.25
669.607	5141.77
669.798	5115.14
669.989	5051.66
670.18	5049.61
670.371	4934.92
670.563	5043.46
670.754	4896.01
670.945	4760.84
671.136	4859.15
671.327	4805.9
671.518	4871.44
671.709	4857.1
671.9	4951.31
672.091	4766.99
672.282	4719.89
672.473	4717.84
672.664	4736.27
672.855	4756.75
673.046	4840.72
673.237	4683.02
673.428	4666.64
673.619	4398.35
673.809	4605.2
674	4494.61
674.191	4504.85
674.382	4572.43
674.573	4652.3
674.764	4484.37
674.954	4439.31
675.145	4388.11
675.336	4470.03
675.527	4388.11
675.717	4404.5
675.908	4300.05
676.099	4330.77
676.289	4345.11
676.48	4152.6
676.671	4195.61
676.861	4314.39
677.052	4240.66
677.243	4142.36
677.433	4214.04
677.624	4107.54
677.814	4099.35
678.005	4191.51
678.195	4076.82
678.386	4080.92
678.576	3964.18
678.767	4009.24
678.957	4046.1
679.148	4060.44
679.338	3974.42
679.529	4136.21
679.719	3958.04
679.909	4011.29
680.1	3953.94
680.29	3925.27
680.481	3863.83
680.671	4027.67
680.861	3925.27
681.052	3845.4
681.242	3890.46
681.432	3925.27
681.622	3921.18
681.813	3931.42
682.003	3851.55
682.193	3829.02
682.383	3896.6
682.573	3587.36
682.764	3734.81
682.954	3706.14
683.144	3757.34
683.334	3779.87
683.524	3689.76
683.714	3857.69
683.904	3718.43
684.094	3745.05
684.284	3820.83
684.474	3728.67
684.664	3640.61
684.854	3673.37
685.044	3525.92
685.234	3675.42
685.424	3613.98
685.614	3640.61
685.804	3706.14
685.994	3712.28
686.184	3560.73
686.374	3613.98
686.564	3650.85
686.753	3611.93
686.943	3587.36
687.133	3513.63
687.323	3497.25
687.513	3558.69
687.702	3579.17
687.892	3503.39
688.082	3464.48
688.272	3511.58
688.461	3527.97
688.651	3495.2
688.841	3554.59
689.03	3439.9
689.22	3368.23
689.41	3532.06
689.599	3497.25
689.789	3325.22
689.979	3468.58
690.168	3398.95
690.358	3376.42
690.547	3323.17
690.737	3448.1
690.926	3462.43
691.116	3347.75
691.305	3474.72
691.495	3355.94
691.684	3353.89
691.874	3222.82
692.063	3278.12
692.252	3341.6
692.442	3380.51
692.631	3378.47
692.82	3239.2
693.01	3355.94
693.199	3468.58
693.388	3253.54
693.578	3337.51
693.767	3282.21
693.956	3239.2
694.146	3294.5
694.335	3302.69
694.524	3253.54
694.713	3257.64
694.902	3138.85
695.092	3190.05
695.281	3304.74
695.47	3257.64
695.659	3202.34
695.848	3243.3
696.037	3335.46
696.226	3274.02
696.415	3314.98
696.604	3224.87
696.793	3239.2
696.982	3337.51
697.171	3159.33
697.36	3204.39
697.549	3157.29
697.738	3185.96
697.927	3163.43
698.116	3140.9
698.305	3177.76
698.494	3185.96
698.683	3134.76
698.872	3267.88
699.061	3198.24
699.25	3263.78
699.438	3110.18
699.627	3106.09
699.816	3099.94
700.005	3058.98
700.193	3169.57
700.382	3132.71
700.571	3077.41
700.76	3015.98
700.948	3228.96
701.137	3040.55
701.326	3044.65
701.514	3110.18
701.703	3067.17
701.892	2956.58
702.08	3044.65
702.269	3087.65
702.457	2977.06
702.646	3044.65
702.834	2956.58
703.023	3087.65
703.212	2999.59
703.4	2981.16
703.589	2889
703.777	2989.35
703.965	2991.4
704.154	2966.82
704.342	2942.25
704.531	2946.34
704.719	3044.65
704.907	3024.17
705.096	2870.57
705.284	2915.62
705.472	2829.61
705.661	2942.25
705.849	2913.58
706.037	2866.47
706.226	2917.67
706.414	2921.77
706.602	2968.87
706.79	2958.63
706.979	3069.22
707.167	2876.71
707.355	2766.12
707.543	2821.42
707.731	2798.89
707.919	2817.32
708.107	2811.18
708.296	2907.43
708.484	2831.66
708.672	2833.71
708.86	2702.64
709.048	2860.33
709.236	2872.62
709.424	2692.4
709.612	2800.94
709.8	2641.2
709.988	2624.81
710.176	2835.75
710.364	2725.16
710.551	2776.36
710.739	2655.53
710.927	2637.1
711.115	2536.75
711.303	2633.01
711.491	2716.97
711.679	2473.26
711.866	2637.1
712.054	2499.89
712.242	2544.94
712.43	2618.67
712.617	2520.37
712.805	2647.34
712.993	2469.17
713.181	2551.09
713.368	2573.61
713.556	2528.56
713.744	2465.07
713.931	2352.43
714.119	2520.37
714.306	2602.29
714.494	2381.1
714.682	2467.12
714.869	2340.15
715.057	2352.43
715.244	2354.48
715.432	2499.89
715.619	2458.93
715.807	2348.34
715.994	2479.41
716.182	2323.76
716.369	2485.55
716.556	2426.16
716.744	2290.99
716.931	2374.96
717.119	2458.93
717.306	2290.99
717.493	2364.72
717.681	2358.58
717.868	2327.86
718.055	2393.39
718.242	2358.58
718.43	2211.12
718.617	2164.02
718.804	2243.89
718.991	2176.31
719.179	2211.12
719.366	2125.11
719.553	2178.36
719.74	2245.94
719.927	2225.46
720.114	2219.32
720.301	2164.02
720.488	2088.25
720.676	2239.8
720.863	2129.2
721.05	2121.01
721.237	2059.57
721.424	2071.86
721.611	2004.28
721.798	2037.05
721.985	2151.73
722.172	2065.72
722.358	2080.05
722.545	2006.33
722.732	1963.32
722.919	2059.57
723.106	1981.75
723.293	2133.3
723.48	2114.87
723.667	1979.7
723.853	2065.72
724.04	1979.7
724.227	1987.89
724.414	1991.99
724.6	2053.43
724.787	1910.07
724.974	2057.53
725.161	1932.6
725.347	1926.46
725.534	1951.03
725.72	1852.73
725.907	1903.93
726.094	1856.83
726.28	1873.21
726.467	1932.6
726.653	1934.65
726.84	1895.74
727.027	1951.03
727.213	1813.82
727.4	1799.48
727.586	1961.27
727.773	1822.01
727.959	1817.91
728.145	1795.39
728.332	1776.95
728.518	1805.63
728.705	1846.59
728.891	1774.91
729.077	1826.11
729.264	1776.95
729.45	1727.8
729.636	1828.15
729.823	1783.1
730.009	1727.8
730.195	1672.51
730.382	1781.05
730.568	1735.99
730.754	1776.95
730.94	1744.19
731.126	1684.8
731.313	1856.83
731.499	1701.18
731.685	1807.67
731.871	1695.04
732.057	1637.69
732.243	1621.31
732.429	1713.47
732.615	1707.32
732.801	1721.66
732.987	1652.03
733.173	1629.5
733.359	1621.31
733.545	1533.25
733.731	1639.74
733.917	1629.5
734.103	1602.88
734.289	1654.08
734.475	1680.7
734.661	1682.75
734.847	1586.49
735.033	1545.53
735.219	1582.4
735.404	1545.53
735.59	1549.63
735.776	1557.82
735.962	1570.11
736.148	1598.78
736.333	1570.11
736.519	1508.67
736.705	1578.3
736.89	1473.85
737.076	1549.63
737.262	1617.21
737.447	1480
737.633	1504.57
737.819	1447.23
738.004	1486.14
738.19	1496.38
738.375	1512.77
738.561	1561.92
738.747	1514.81
738.932	1484.09
739.118	1496.38
739.303	1396.03
739.489	1457.47
739.674	1559.87
739.859	1414.46
740.045	1389.89
740.23	1338.69
740.416	1350.98
740.601	1447.23
740.786	1436.99
740.972	1303.87
741.157	1443.14
741.342	1361.22
741.528	1258.82
741.713	1389.89
741.898	1334.59
742.084	1307.97
742.269	1375.55
742.454	1443.14
742.639	1350.98
742.824	1355.07
743.01	1387.84
743.195	1301.83
743.38	1283.39
743.565	1324.35
743.75	1254.72
743.935	1381.7
744.12	1332.54
744.305	1205.57
744.49	1346.88
744.675	1316.16
744.86	1252.67
745.045	1244.48
745.23	1193.28
745.415	1195.33
745.6	1252.67
745.785	1183.04
745.97	1230.15
746.155	1226.05
746.34	1248.58
746.525	1185.09
746.71	1221.95
746.895	1119.56
747.079	1154.37
747.264	1185.09
747.449	1121.6
747.634	1117.51
747.819	1219.91
748.003	1097.03
748.188	1252.67
748.373	1080.64
748.557	1166.66
748.742	1140.04
748.927	1144.13
749.111	1086.79
749.296	1172.8
749.481	1160.52
749.665	1150.28
749.85	1031.49
750.034	1154.37
750.219	1064.26
750.404	1115.46
750.588	1058.12
750.773	968.01
750.957	1056.07
751.141	1006.92
751.326	1031.49
751.51	1103.17
751.695	1070.4
751.879	978.25
752.064	1006.92
752.248	1031.49
752.432	1004.87
752.617	869.7
752.801	941.38
752.985	843.08
753.17	1049.93
753.354	925
753.538	972.1
753.722	908.62
753.907	922.95
754.091	922.95
754.275	974.15
754.459	773.45
754.643	904.52
754.828	900.42
755.012	865.61
755.196	861.51
755.38	939.33
755.564	894.28
755.748	853.32
755.932	750.92
756.116	830.79
756.3	810.31
756.484	847.18
756.668	865.61
756.852	818.5
757.036	826.7
757.22	757.07
757.404	892.23
757.588	765.26
757.772	816.46
757.956	853.32
758.14	689.48
758.323	716.11
758.507	781.64
758.691	824.65
758.875	759.11
759.059	800.07
759.242	748.87
759.426	701.77
759.61	732.49
759.794	699.72
759.977	750.92
760.161	769.35
760.345	826.7
760.528	755.02
760.712	697.67
760.895	748.87
761.079	691.53
761.263	693.58
761.446	712.01
761.63	718.15
761.813	791.88
761.997	669
762.18	675.15
762.364	652.62
762.547	689.48
762.731	697.67
762.914	718.15
763.098	709.96
763.281	611.66
763.464	669
763.648	714.06
763.831	648.52
764.015	650.57
764.198	685.39
764.381	693.58
764.564	673.1
764.748	595.28
764.931	634.19
765.114	554.32
765.297	681.29
765.481	691.53
765.664	685.39
765.847	578.89
766.03	644.43
766.213	597.32
766.397	718.15
766.58	580.94
766.763	630.09
766.946	640.33
767.129	709.96
767.312	632.14
767.495	589.13
767.678	632.14
767.861	593.23
768.044	570.7
768.227	613.71
768.41	578.89
768.593	656.72
768.776	578.89
768.959	666.96
769.142	570.7
769.324	556.36
769.507	499.02
769.69	550.22
769.873	488.78
770.056	677.19
770.239	587.08
770.421	539.98
770.604	562.51
770.787	566.6
770.97	593.23
771.152	607.56
771.335	533.84
771.518	587.08
771.7	568.65
771.883	556.36
772.066	558.41
772.248	636.24
772.431	519.5
772.613	628.04
772.796	505.17
772.978	572.75
773.161	507.21
773.343	566.6
773.526	513.36
773.708	542.03
773.891	445.77
774.073	521.55
774.256	517.45
774.438	478.54
774.621	480.59
774.803	546.12
774.985	490.83
775.168	509.26
775.35	474.45
775.532	474.45
775.715	533.84
775.897	488.78
776.079	496.97
776.261	480.59
776.444	478.54
776.626	515.41
776.808	437.58
776.99	464.21
777.173	398.67
777.355	476.49
777.537	613.71
777.719	439.63
777.901	460.11
778.083	415.06
778.265	382.29
778.447	492.88
778.629	441.68
778.811	343.38
778.993	423.25
779.175	435.53
779.357	456.01
779.539	392.53
779.721	396.62
779.903	370
780.085	361.81
780.267	378.19
780.449	472.4
780.631	427.34
780.812	423.25
780.994	400.72
781.176	367.95
781.358	413.01
781.54	384.34
781.721	443.73
781.903	382.29
782.085	331.09
782.267	320.85
782.448	390.48
782.63	308.56
782.812	392.53
782.993	376.14
783.175	290.13
783.357	310.61
783.538	378.19
783.72	316.75
783.901	394.58
784.083	347.47
784.264	279.89
784.446	367.95
784.627	310.61
784.809	269.65
784.99	335.18
785.172	396.62
785.353	296.27
785.535	318.8
785.716	306.51
785.897	316.75
786.079	259.41
786.26	292.18
786.441	294.22
786.623	283.98
786.804	189.78
786.985	249.17
787.167	310.61
787.348	294.22
787.529	318.8
787.71	275.79
787.891	279.89
788.073	322.9
788.254	179.54
788.435	257.36
788.616	210.26
788.797	234.83
788.978	228.69
789.159	232.79
789.34	263.51
789.522	257.36
789.703	333.14
789.884	269.65
790.065	216.4
790.246	273.75
790.427	259.41
790.607	283.98
790.788	333.14
790.969	226.64
791.15	175.44
791.331	324.94
791.512	226.64
791.693	216.4
791.874	245.07
792.054	238.93
792.235	212.31
792.416	238.93
792.597	171.35
792.778	243.03
792.958	263.51
793.139	226.64
793.32	243.03
793.5	187.73
793.681	224.59
793.862	204.11
794.042	157.01
794.223	138.58
794.404	228.69
794.584	208.21
794.765	204.11
794.945	154.96
795.126	202.07
795.306	204.11
795.487	150.87
795.667	150.87
795.848	218.45
796.028	226.64
796.209	193.87
796.389	230.74
796.57	173.39
796.75	204.11
796.93	243.03
797.111	138.58
797.291	187.73
797.471	179.54
797.652	132.44
797.832	134.48
798.012	232.79
798.192	103.76
798.373	202.07
798.553	165.2
798.733	148.82
798.913	144.72
799.093	169.3
799.274	187.73
799.454	193.87
799.634	103.76
799.814	204.11
799.994	105.81
800.174	181.59
800.354	200.02
800.534	171.35
800.714	126.29
800.894	136.53
801.074	142.68
801.254	64.85
801.434	208.21
801.614	157.01
801.794	89.43
801.974	417.1
802.154	103.76
802.334	177.49
802.514	136.53
802.693	97.62
802.873	21.85
803.053	175.44
803.233	109.91
803.413	154.96
803.592	136.53
803.772	189.78
803.952	157.01
804.131	179.54
804.311	177.49
804.491	161.11
804.67	105.81
804.85	118.1
805.03	148.82
805.209	216.4
805.389	83.28
805.568	48.47
805.748	177.49
805.928	124.24
806.107	114
806.287	83.28
806.466	128.34
806.646	200.02
806.825	73.04
807.004	97.62
807.184	73.04
807.363	111.96
807.543	109.91
807.722	71
807.901	132.44
808.081	144.72
808.26	68.95
808.439	136.53
808.619	95.57
808.798	111.96
808.977	116.05
809.156	165.2
809.336	130.39
809.515	118.1
809.694	83.28
809.873	48.47
810.052	97.62
810.231	101.72
810.411	48.47
810.59	161.11
810.769	99.67
810.948	40.28
811.127	27.99
811.306	62.8
811.485	152.91
811.664	150.87
811.843	87.38
812.022	132.44
812.201	73.04
812.38	91.48
812.559	161.11
812.737	152.91
812.916	81.24
813.095	46.42
813.274	97.62
813.453	48.47
813.632	40.28
813.811	140.63
813.989	32.08
814.168	128.34
814.347	62.8
814.526	81.24
814.704	161.11
814.883	7.51
815.062	107.86
815.24	-8.87
815.419	38.23
815.598	148.82
815.776	-29.35
815.955	25.94
816.133	46.42
816.312	64.85
816.49	21.85
816.669	120.15
816.847	97.62
817.026	71
817.204	48.47
817.383	128.34
817.561	21.85
817.74	83.28
817.918	93.52
818.097	111.96
818.275	73.04
818.453	64.85
818.632	56.66
818.81	54.61
818.988	85.33
819.167	73.04
819.345	-6.83
819.523	48.47
819.701	30.04
819.879	71
820.058	34.13
820.236	71
820.414	81.24
820.592	23.89
820.77	66.9
820.948	89.43
821.127	9.56
821.305	120.15
821.483	21.85
821.661	144.72
821.839	40.28
822.017	68.95
822.195	48.47
822.373	79.19
822.551	-17.07
822.729	71
822.907	36.18
823.085	40.28
823.262	32.08
823.44	75.09
823.618	19.8
823.796	9.56
823.974	83.28
824.152	75.09
824.329	56.66
824.507	23.89
824.685	23.89
824.863	62.8
825.04	54.61
825.218	48.47
825.396	-21.16
825.574	163.15
825.751	-8.87
825.929	13.65
826.107	40.28
826.284	36.18
826.462	17.75
826.639	21.85
826.817	68.95
826.994	66.9
827.172	-8.87
827.349	7.51
827.527	107.86
827.704	46.42
827.882	30.04
828.059	111.96
828.237	5.46
828.414	46.42
828.591	1.37
828.769	-21.16
828.946	44.37
829.124	95.57
829.301	50.52
829.478	27.99
829.655	-0.68
829.833	68.95
830.01	9.56
830.187	71
830.364	50.52
830.542	3.41
830.719	95.57
830.896	64.85
831.073	48.47
831.25	48.47
831.427	19.8
831.604	-27.31
831.782	27.99
831.959	56.66
832.136	46.42
832.313	27.99
832.49	50.52
832.667	-6.83
832.844	-37.55
833.021	103.76
833.198	38.23
833.374	11.61
833.551	62.8
833.728	81.24
833.905	56.66
834.082	62.8
834.259	-0.68
834.436	38.23
834.612	21.85
834.789	46.42
834.966	36.18
835.143	27.99
835.319	44.37
835.496	54.61
835.673	83.28
835.85	85.33
836.026	46.42
836.203	23.89
836.38	-19.11
836.556	-62.12
836.733	32.08
836.909	66.9
837.086	36.18
837.262	-12.97
837.439	38.23
837.616	118.1
837.792	71
837.968	-4.78
838.145	56.66
838.321	79.19
838.498	71
838.674	87.38
838.851	-47.79
839.027	-23.21
839.203	75.09
839.38	56.66
839.556	120.15
839.732	64.85
839.909	30.04
840.085	7.51
840.261	30.04
840.437	13.65
840.614	1.37
840.79	21.85
840.966	-35.5
841.142	79.19
841.318	71
841.494	-23.21
841.671	34.13
841.847	13.65
842.023	50.52
842.199	-55.98
842.375	130.39
842.551	48.47
842.727	1.37
842.903	46.42
843.079	-43.69
843.255	38.23
843.431	11.61
843.607	1.37
843.783	-55.98
843.959	50.52
844.134	-55.98
844.31	30.04
844.486	38.23
844.662	40.28
844.838	-58.03
845.013	40.28
845.189	101.72
845.365	-2.73
845.541	64.85
845.716	25.94
845.892	21.85
846.068	-0.68
846.244	38.23
846.419	3.41
846.595	-19.11
846.77	-12.97
846.946	11.61
847.122	87.38
847.297	21.85
847.473	21.85
847.648	-45.74
847.824	38.23
847.999	87.38
848.175	23.89
848.35	-51.88
848.526	60.76
848.701	-15.02
848.876	-0.68
849.052	17.75
849.227	40.28
849.403	46.42
849.578	-10.92
849.753	99.67
849.929	169.3
850.104	44.37
850.279	-12.97
850.454	3.41
850.63	15.7
850.805	-17.07
850.98	-17.07
851.155	32.08
851.33	-2.73
851.505	83.28
851.681	46.42
851.856	-66.22
852.031	13.65
852.206	7.51
852.381	-45.74
852.556	73.04
852.731	-70.31
852.906	40.28
853.081	27.99
853.256	-27.31
853.431	-86.7
853.606	54.61
853.781	64.85
853.956	17.75
854.131	15.7
854.305	19.8
854.48	-10.92
854.655	17.75
854.83	1.37
855.005	-2.73
855.18	-8.87
855.354	-45.74
855.529	9.56
855.704	-31.4
855.879	-10.92
856.053	-2.73
856.228	15.7
856.403	-10.92
856.577	25.94
856.752	13.65
856.926	40.28
857.101	34.13
857.276	-53.93
857.45	-66.22
857.625	-0.68
857.799	62.8
857.974	15.7
858.148	-64.17
858.323	21.85
858.497	46.42
858.672	5.46
858.846	17.75
859.02	-27.31
859.195	11.61
859.369	-0.68
859.543	-25.26
859.718	-6.83
859.892	15.7
860.066	46.42
860.241	-53.93
860.415	17.75
860.589	54.61
860.763	1.37
860.938	23.89
861.112	27.99
861.286	-23.21
861.46	-15.02
861.634	21.85
861.808	-4.78
861.982	-109.22
862.157	-23.21
862.331	7.51
862.505	-2.73
862.679	-19.11
862.853	-2.73
863.027	-29.35
863.201	42.32
863.375	44.37
863.549	21.85
863.722	-10.92
863.896	13.65
864.07	-37.55
864.244	46.42
864.418	17.75
864.592	-19.11
864.766	-21.16
864.939	-25.26
865.113	19.8
865.287	-23.21
865.461	-25.26
865.634	-60.07
865.808	21.85
865.982	-19.11
866.156	-8.87
866.329	9.56
866.503	-43.69
866.676	11.61
866.85	-35.5
867.024	9.56
867.197	5.46
867.371	32.08
867.544	58.71
867.718	-39.59
867.891	34.13
868.065	15.7
868.238	-39.59
868.412	21.85
868.585	1.37
868.759	1.37
868.932	-29.35
869.105	34.13
869.279	-6.83
869.452	46.42
869.625	9.56
869.799	-10.92
869.972	7.51
870.145	-21.16
870.319	-60.07
870.492	-4.78
870.665	38.23
870.838	-10.92
871.011	-10.92
871.185	13.65
871.358	21.85
871.531	34.13
871.704	-0.68
871.877	19.8
872.05	-43.69
872.223	-35.5
872.396	-15.02
872.569	21.85
872.742	-2.73
872.915	-21.16
873.088	3.41
873.261	-8.87
873.434	-10.92
873.607	7.51
873.78	21.85
873.953	27.99
874.126	-27.31
874.299	5.46
874.471	5.46
874.644	-2.73
874.817	11.61
874.99	23.89
875.163	77.14
875.335	-12.97
875.508	1.37
875.681	30.04
875.853	-17.07
876.026	-41.64
876.199	-45.74
876.371	-15.02
876.544	-62.12
876.717	-15.02
876.889	-27.31
877.062	-27.31
877.234	-55.98
877.407	-47.79
877.579	85.33
877.752	-60.07
877.924	-60.07
878.097	-62.12
878.269	-80.55
878.442	21.85
878.614	38.23
878.786	-58.03
878.959	-17.07
879.131	32.08
879.303	-60.07
879.476	-49.83
879.648	-55.98
879.82	13.65
879.993	-17.07
880.165	-27.31
880.337	-117.42
880.509	1.37
880.681	-31.4
880.854	-35.5
881.026	1.37
881.198	64.85
881.37	-4.78
881.542	-35.5
881.714	1.37
881.886	-35.5
882.058	-27.31
882.23	-49.83
882.402	-33.45
882.574	-37.55
882.746	5.46
882.918	3.41
883.09	-60.07
883.262	11.61
883.434	-37.55
883.606	15.7
883.778	-19.11
883.95	-41.64
884.122	-31.4
884.293	-6.83
884.465	-39.59
884.637	-47.79
884.809	-39.59
884.98	-2.73
885.152	-47.79
885.324	-31.4
885.496	-12.97
885.667	1.37
885.839	-17.07
886.011	-2.73
886.182	-55.98
886.354	-49.83
886.525	-72.36
886.697	46.42
886.869	-17.07
887.04	-88.75
887.212	-21.16
887.383	32.08
887.555	-27.31
887.726	-72.36
887.897	-43.69
888.069	25.94
888.24	5.46
888.412	-2.73
888.583	-8.87
888.754	27.99
888.926	-47.79
889.097	-8.87
889.268	-2.73
889.44	34.13
889.611	-82.6
889.782	17.75
889.953	21.85
890.125	-17.07
890.296	-31.4
890.467	5.46
890.638	-70.31
890.809	-2.73
890.98	25.94
891.151	32.08
891.323	-31.4
891.494	-47.79
891.665	-12.97
891.836	-58.03
892.007	13.65
892.178	15.7
892.349	-2.73
892.52	-43.69
892.691	1.37
892.862	-6.83
893.032	-35.5
893.203	-15.02
893.374	56.66
893.545	13.65
893.716	-51.88
893.887	44.37
894.057	-0.68
894.228	-68.27
894.399	-51.88
894.57	-27.31
894.74	-39.59
894.911	23.89
895.082	46.42
895.253	32.08
895.423	-80.55
895.594	-15.02
895.764	-23.21
895.935	-15.02
896.106	13.65
896.276	-19.11
896.447	-21.16
896.617	23.89
896.788	3.41
896.958	-21.16
897.129	1.37
897.299	56.66
897.47	-37.55
897.64	-23.21
897.81	-35.5
897.981	32.08
898.151	11.61
898.322	-62.12
898.492	-19.11
898.662	-31.4
898.832	-33.45
899.003	-23.21
899.173	-53.93
899.343	-2.73
899.513	-98.99
