Data from USB4F104151__34__13-52-51-381.txt Node

Date: Thu Mar 13 13:52:51 EDT 2025
User: louis
Spectrometer: USB4F10415
Trigger mode: 4
Integration Time (sec): 1.000000E-2
Scans to average: 1
Electric dark correction enabled: true
Nonlinearity correction enabled: false
Boxcar width: 0
XAxis mode: Wavelengths
Number of Pixels in Spectrum: 3648
>>>>>Begin Spectral Data<<<<<
178.204	-62.63
178.424	-62.63
178.644	-62.63
178.864	-62.63
179.084	-122.02
179.304	-21.67
179.524	15.19
179.744	0.85
179.964	-19.63
180.184	-36.01
180.404	23.38
180.624	-13.48
180.844	-9.39
181.064	27.48
181.283	13.14
181.503	-11.43
181.723	31.57
181.943	-74.92
182.163	23.38
182.383	-62.63
182.602	-38.06
182.822	-1.19
183.042	4.95
183.262	-1.19
183.482	-1.19
183.701	-58.54
183.921	-11.43
184.141	41.81
184.361	0.85
184.58	13.14
184.8	15.19
185.02	31.57
185.239	-11.43
185.459	-5.29
185.679	9.05
185.898	-11.43
186.118	-42.15
186.338	19.29
186.557	-15.53
186.777	-83.11
186.997	27.48
187.216	-38.06
187.436	-1.19
187.655	27.48
187.875	-3.24
188.095	-21.67
188.314	-1.19
188.534	19.29
188.753	148.31
188.973	11.09
189.192	21.33
189.412	-29.87
189.631	-15.53
189.851	7
190.07	37.72
190.29	-7.34
190.509	-1.19
190.729	-50.35
190.948	13.14
191.168	31.57
191.387	21.33
191.607	-11.43
191.826	-19.63
192.045	-31.91
192.265	11.09
192.484	-115.88
192.704	41.81
192.923	37.72
193.142	35.67
193.362	-17.58
193.581	-7.34
193.8	15.19
194.02	58.2
194.239	-79.02
194.458	7
194.678	-11.43
194.897	-15.53
195.116	25.43
195.335	-25.77
195.555	9.05
195.774	31.57
195.993	-1.19
196.212	4.95
196.432	54.1
196.651	4.95
196.87	-11.43
197.089	115.54
197.308	-5.29
197.528	27.48
197.747	19.29
197.966	-5.29
198.185	4.95
198.404	39.76
198.623	-46.25
198.842	13.14
199.062	-1.19
199.281	13.14
199.5	-9.39
199.719	-40.11
199.938	-9.39
200.157	-27.82
200.376	-13.48
200.595	21.33
200.814	-23.72
201.033	-38.06
201.252	-52.39
201.471	13.14
201.69	25.43
201.909	21.33
202.128	-31.91
202.347	9.05
202.566	13.14
202.785	-62.63
203.004	7
203.223	0.85
203.442	19.29
203.661	-60.59
203.879	27.48
204.098	21.33
204.317	-1.19
204.536	-36.01
204.755	-1.19
204.974	19.29
205.193	-64.68
205.411	60.24
205.63	-33.96
205.849	9.05
206.068	-91.31
206.287	54.1
206.505	17.24
206.724	9.05
206.943	-36.01
207.162	54.1
207.381	17.24
207.599	25.43
207.818	50
208.037	-79.02
208.255	33.62
208.474	19.29
208.693	-7.34
208.911	15.19
209.13	-66.73
209.349	-74.92
209.567	19.29
209.786	13.14
210.005	-31.91
210.223	45.91
210.442	-29.87
210.661	29.52
210.879	-13.48
211.098	15.19
211.316	-13.48
211.535	35.67
211.753	43.86
211.972	109.4
212.191	-33.96
212.409	13.14
212.628	2.9
212.846	-70.83
213.065	-17.58
213.283	47.96
213.502	15.19
213.72	50
213.938	-60.59
214.157	11.09
214.375	72.53
214.594	19.29
214.812	54.1
215.031	-50.35
215.249	35.67
215.467	9.05
215.686	31.57
215.904	41.81
216.122	43.86
216.341	39.76
216.559	-58.54
216.778	-58.54
216.996	-9.39
217.214	64.34
217.432	35.67
217.651	68.44
217.869	72.53
218.087	23.38
218.306	37.72
218.524	68.44
218.742	35.67
218.96	2.9
219.179	2.9
219.397	60.24
219.615	31.57
219.833	-1.19
220.051	60.24
220.27	76.63
220.488	-15.53
220.706	-29.87
220.924	-3.24
221.142	62.29
221.36	19.29
221.578	-19.63
221.796	-38.06
222.015	-27.82
222.233	-21.67
222.451	-33.96
222.669	35.67
222.887	-11.43
223.105	2.9
223.323	31.57
223.541	-19.63
223.759	19.29
223.977	15.19
224.195	-11.43
224.413	29.52
224.631	-21.67
224.849	17.24
225.067	15.19
225.285	-31.91
225.503	-27.82
225.721	13.14
225.939	-5.29
226.157	35.67
226.375	23.38
226.592	70.48
226.81	21.33
227.028	-42.15
227.246	-9.39
227.464	39.76
227.682	0.85
227.9	7
228.117	-3.24
228.335	43.86
228.553	-15.53
228.771	-7.34
228.989	2.9
229.206	-58.54
229.424	31.57
229.642	-21.67
229.86	-42.15
230.077	-7.34
230.295	-38.06
230.513	0.85
230.731	23.38
230.948	-25.77
231.166	-7.34
231.384	33.62
231.601	17.24
231.819	19.29
232.037	-7.34
232.254	-11.43
232.472	-1.19
232.689	7
232.907	31.57
233.125	54.1
233.342	31.57
233.56	41.81
233.777	52.05
233.995	39.76
234.213	64.34
234.43	27.48
234.648	-15.53
234.865	-21.67
235.083	-40.11
235.3	23.38
235.518	25.43
235.735	-19.63
235.953	21.33
236.17	-25.77
236.388	47.96
236.605	15.19
236.822	23.38
237.04	60.24
237.257	-25.77
237.475	31.57
237.692	-25.77
237.909	-44.2
238.127	-15.53
238.344	-5.29
238.562	37.72
238.779	60.24
238.996	-23.72
239.214	11.09
239.431	-42.15
239.648	15.19
239.865	45.91
240.083	39.76
240.3	7
240.517	-13.48
240.735	25.43
240.952	-48.3
241.169	35.67
241.386	80.72
241.603	19.29
241.821	9.05
242.038	17.24
242.255	52.05
242.472	-38.06
242.689	-3.24
242.907	7
243.124	35.67
243.341	0.85
243.558	-25.77
243.775	-19.63
243.992	-38.06
244.209	-1.19
244.426	27.48
244.643	37.72
244.86	-3.24
245.078	50
245.295	-38.06
245.512	-1.19
245.729	-72.87
245.946	31.57
246.163	7
246.38	13.14
246.597	-31.91
246.814	11.09
247.031	39.76
247.248	-7.34
247.464	-7.34
247.681	-50.35
247.898	0.85
248.115	64.34
248.332	-5.29
248.549	37.72
248.766	11.09
248.983	-5.29
249.2	52.05
249.417	23.38
249.633	41.81
249.85	-7.34
250.067	-36.01
250.284	21.33
250.501	-25.77
250.717	-36.01
250.934	2.9
251.151	-81.07
251.368	19.29
251.585	29.52
251.801	25.43
252.018	-11.43
252.235	21.33
252.451	33.62
252.668	-64.68
252.885	52.05
253.102	27.48
253.318	13.14
253.535	-21.67
253.752	-23.72
253.968	-38.06
254.185	43.86
254.401	23.38
254.618	93.01
254.835	33.62
255.051	19.29
255.268	19.29
255.484	-15.53
255.701	60.24
255.917	4.95
256.134	-9.39
256.351	-81.07
256.567	-29.87
256.784	23.38
257	-48.3
257.217	15.19
257.433	-58.54
257.65	-17.58
257.866	-72.87
258.082	9.05
258.299	-9.39
258.515	-48.3
258.732	-13.48
258.948	0.85
259.165	29.52
259.381	4.95
259.597	-33.96
259.814	17.24
260.03	11.09
260.246	7
260.463	-21.67
260.679	13.14
260.895	-23.72
261.112	0.85
261.328	-79.02
261.544	27.48
261.761	-13.48
261.977	19.29
262.193	47.96
262.409	23.38
262.626	35.67
262.842	-5.29
263.058	-46.25
263.274	-66.73
263.49	68.44
263.707	37.72
263.923	-15.53
264.139	-3.24
264.355	19.29
264.571	-25.77
264.787	0.85
265.004	4.95
265.22	4.95
265.436	-19.63
265.652	-68.78
265.868	-38.06
266.084	25.43
266.3	-81.07
266.516	-31.91
266.732	90.96
266.948	-31.91
267.164	41.81
267.38	-33.96
267.596	95.06
267.812	17.24
268.028	37.72
268.244	62.29
268.46	17.24
268.676	-5.29
268.892	31.57
269.108	50
269.324	45.91
269.54	-64.68
269.756	-27.82
269.972	4.95
270.188	-23.72
270.403	33.62
270.619	0.85
270.835	0.85
271.051	43.86
271.267	11.09
271.483	-23.72
271.698	68.44
271.914	64.34
272.13	-25.77
272.346	-44.2
272.562	-17.58
272.777	60.24
272.993	4.95
273.209	-33.96
273.425	72.53
273.64	13.14
273.856	-13.48
274.072	13.14
274.287	-29.87
274.503	21.33
274.719	52.05
274.934	-9.39
275.15	0.85
275.366	-9.39
275.581	60.24
275.797	23.38
276.012	31.57
276.228	7
276.444	-48.3
276.659	-21.67
276.875	29.52
277.09	33.62
277.306	47.96
277.521	43.86
277.737	-48.3
277.952	-21.67
278.168	23.38
278.383	78.68
278.599	4.95
278.814	33.62
279.03	-15.53
279.245	72.53
279.461	-25.77
279.676	-9.39
279.892	-40.11
280.107	37.72
280.322	23.38
280.538	86.87
280.753	19.29
280.969	54.1
281.184	-19.63
281.399	19.29
281.615	-3.24
281.83	-7.34
282.045	-31.91
282.26	23.38
282.476	31.57
282.691	54.1
282.906	68.44
283.122	35.67
283.337	-13.48
283.552	-23.72
283.767	-19.63
283.983	47.96
284.198	-19.63
284.413	41.81
284.628	-31.91
284.843	-13.48
285.058	-9.39
285.274	-23.72
285.489	9.05
285.704	33.62
285.919	72.53
286.134	-29.87
286.349	76.63
286.564	88.92
286.779	35.67
286.995	17.24
287.21	13.14
287.425	56.15
287.64	-23.72
287.855	-1.19
288.07	-7.34
288.285	-7.34
288.5	29.52
288.715	-11.43
288.93	-19.63
289.145	60.24
289.36	58.2
289.575	17.24
289.79	50
290.004	-17.58
290.219	-5.29
290.434	29.52
290.649	11.09
290.864	45.91
291.079	27.48
291.294	-36.01
291.509	-31.91
291.724	41.81
291.938	15.19
292.153	-9.39
292.368	-31.91
292.583	47.96
292.798	-27.82
293.012	13.14
293.227	45.91
293.442	23.38
293.657	-11.43
293.871	99.16
294.086	-25.77
294.301	13.14
294.516	60.24
294.73	29.52
294.945	2.9
295.16	9.05
295.374	21.33
295.589	35.67
295.804	2.9
296.018	101.2
296.233	9.05
296.447	21.33
296.662	-36.01
296.877	-5.29
297.091	-52.39
297.306	60.24
297.52	58.2
297.735	27.48
297.949	25.43
298.164	21.33
298.378	-60.59
298.593	-58.54
298.807	-21.67
299.022	33.62
299.236	-3.24
299.451	0.85
299.665	-11.43
299.88	9.05
300.094	-40.11
300.309	37.72
300.523	35.67
300.737	15.19
300.952	2.9
301.166	27.48
301.381	-36.01
301.595	31.57
301.809	56.15
302.024	-36.01
302.238	-1.19
302.452	11.09
302.667	11.09
302.881	0.85
303.095	11.09
303.309	35.67
303.524	2.9
303.738	50
303.952	0.85
304.166	-11.43
304.381	78.68
304.595	123.73
304.809	39.76
305.023	-13.48
305.237	33.62
305.452	-40.11
305.666	11.09
305.88	13.14
306.094	56.15
306.308	103.25
306.522	-7.34
306.736	-42.15
306.95	-21.67
307.164	7
307.379	15.19
307.593	62.29
307.807	84.82
308.021	50
308.235	27.48
308.449	-29.87
308.663	56.15
308.877	11.09
309.091	-9.39
309.305	-29.87
309.519	-38.06
309.733	-23.72
309.947	-54.44
310.161	17.24
310.374	-64.68
310.588	-3.24
310.802	72.53
311.016	29.52
311.23	9.05
311.444	-5.29
311.658	39.76
311.872	-21.67
312.085	33.62
312.299	9.05
312.513	56.15
312.727	35.67
312.941	33.62
313.154	64.34
313.368	115.54
313.582	31.57
313.796	-52.39
314.009	17.24
314.223	-19.63
314.437	41.81
314.651	23.38
314.864	17.24
315.078	-33.96
315.292	-50.35
315.505	56.15
315.719	23.38
315.933	-31.91
316.146	35.67
316.36	-29.87
316.573	47.96
316.787	29.52
317.001	93.01
317.214	-60.59
317.428	11.09
317.641	4.95
317.855	-44.2
318.068	-36.01
318.282	50
318.495	-15.53
318.709	-7.34
318.922	-11.43
319.136	33.62
319.349	19.29
319.563	-15.53
319.776	-54.44
319.99	2.9
320.203	21.33
320.417	50
320.63	25.43
320.843	45.91
321.057	56.15
321.27	-11.43
321.483	37.72
321.697	13.14
321.91	56.15
322.124	54.1
322.337	4.95
322.55	13.14
322.763	82.77
322.977	29.52
323.19	70.48
323.403	2.9
323.617	0.85
323.83	-1.19
324.043	-15.53
324.256	15.19
324.469	15.19
324.683	-5.29
324.896	21.33
325.109	-5.29
325.322	15.19
325.535	11.09
325.748	31.57
325.962	62.29
326.175	-23.72
326.388	52.05
326.601	60.24
326.814	13.14
327.027	17.24
327.24	68.44
327.453	37.72
327.666	-23.72
327.879	7
328.092	2.9
328.305	25.43
328.518	50
328.731	-25.77
328.944	-11.43
329.157	80.72
329.37	33.62
329.583	7
329.796	19.29
330.009	9.05
330.222	-79.02
330.435	45.91
330.648	15.19
330.861	-15.53
331.073	-9.39
331.286	-19.63
331.499	17.24
331.712	29.52
331.925	7
332.138	-9.39
332.35	66.39
332.563	2.9
332.776	31.57
332.989	0.85
333.202	37.72
333.414	19.29
333.627	-5.29
333.84	-3.24
334.053	7
334.265	-44.2
334.478	13.14
334.691	0.85
334.903	19.29
335.116	29.52
335.329	47.96
335.541	-50.35
335.754	-42.15
335.966	27.48
336.179	17.24
336.392	21.33
336.604	19.29
336.817	56.15
337.029	70.48
337.242	15.19
337.454	15.19
337.667	4.95
337.88	-15.53
338.092	0.85
338.305	76.63
338.517	13.14
338.729	23.38
338.942	4.95
339.154	-5.29
339.367	35.67
339.579	17.24
339.792	-27.82
340.004	35.67
340.217	-7.34
340.429	-5.29
340.641	-7.34
340.854	39.76
341.066	9.05
341.278	-1.19
341.491	13.14
341.703	60.24
341.915	29.52
342.128	86.87
342.34	-11.43
342.552	-27.82
342.764	-48.3
342.977	74.58
343.189	-13.48
343.401	21.33
343.613	41.81
343.826	4.95
344.038	37.72
344.25	-11.43
344.462	43.86
344.674	105.3
344.886	-31.91
345.099	29.52
345.311	-7.34
345.523	-31.91
345.735	-23.72
345.947	54.1
346.159	76.63
346.371	19.29
346.583	4.95
346.795	68.44
347.007	60.24
347.219	17.24
347.431	23.38
347.643	70.48
347.855	-1.19
348.067	-1.19
348.279	0.85
348.491	-17.58
348.703	37.72
348.915	9.05
349.127	29.52
349.339	17.24
349.551	27.48
349.763	52.05
349.975	-33.96
350.187	76.63
350.399	9.05
350.61	54.1
350.822	47.96
351.034	33.62
351.246	47.96
351.458	15.19
351.669	19.29
351.881	39.76
352.093	-33.96
352.305	62.29
352.517	2.9
352.728	-5.29
352.94	35.67
353.152	47.96
353.363	33.62
353.575	-29.87
353.787	43.86
353.999	-79.02
354.21	-5.29
354.422	41.81
354.633	0.85
354.845	17.24
355.057	62.29
355.268	76.63
355.48	27.48
355.692	4.95
355.903	62.29
356.115	-36.01
356.326	99.16
356.538	84.82
356.749	93.01
356.961	17.24
357.172	17.24
357.384	50
357.595	76.63
357.807	11.09
358.018	-79.02
358.23	-19.63
358.441	-21.67
358.653	41.81
358.864	107.35
359.075	-1.19
359.287	103.25
359.498	84.82
359.709	45.91
359.921	-40.11
360.132	101.2
360.344	66.39
360.555	-25.77
360.766	31.57
360.977	-1.19
361.189	19.29
361.4	25.43
361.611	54.1
361.823	-52.39
362.034	-19.63
362.245	-15.53
362.456	37.72
362.667	15.19
362.879	-23.72
363.09	21.33
363.301	-40.11
363.512	23.38
363.723	2.9
363.935	7
364.146	-19.63
364.357	43.86
364.568	39.76
364.779	7
364.99	-3.24
365.201	76.63
365.412	-52.39
365.623	72.53
365.834	35.67
366.045	4.95
366.256	-9.39
366.467	45.91
366.678	7
366.889	62.29
367.1	7
367.311	-29.87
367.522	35.67
367.733	25.43
367.944	50
368.155	76.63
368.366	-1.19
368.577	43.86
368.788	62.29
368.999	-15.53
369.209	13.14
369.42	15.19
369.631	62.29
369.842	-72.87
370.053	13.14
370.264	-1.19
370.474	33.62
370.685	21.33
370.896	43.86
371.107	-38.06
371.317	31.57
371.528	15.19
371.739	52.05
371.95	27.48
372.16	101.2
372.371	-76.97
372.582	60.24
372.792	-9.39
373.003	9.05
373.214	95.06
373.424	43.86
373.635	4.95
373.846	62.29
374.056	-1.19
374.267	-1.19
374.477	19.29
374.688	2.9
374.898	19.29
375.109	17.24
375.319	47.96
375.53	-44.2
375.74	86.87
375.951	-5.29
376.161	15.19
376.372	-17.58
376.582	43.86
376.793	23.38
377.003	99.16
377.214	50
377.424	115.54
377.635	25.43
377.845	-9.39
378.055	101.2
378.266	-5.29
378.476	-27.82
378.686	35.67
378.897	74.58
379.107	-5.29
379.317	52.05
379.528	58.2
379.738	80.72
379.948	25.43
380.158	66.39
380.369	4.95
380.579	33.62
380.789	43.86
380.999	2.9
381.21	0.85
381.42	19.29
381.63	35.67
381.84	84.82
382.05	-5.29
382.261	-31.91
382.471	-9.39
382.681	62.29
382.891	58.2
383.101	74.58
383.311	7
383.521	17.24
383.731	9.05
383.941	25.43
384.151	39.76
384.361	37.72
384.571	35.67
384.781	0.85
384.991	27.48
385.201	60.24
385.411	88.92
385.621	105.3
385.831	43.86
386.041	97.11
386.251	-25.77
386.461	33.62
386.671	25.43
386.881	31.57
387.091	-33.96
387.301	52.05
387.511	-19.63
387.72	-19.63
387.93	-33.96
388.14	31.57
388.35	72.53
388.56	37.72
388.769	9.05
388.979	-7.34
389.189	2.9
389.399	43.86
389.609	56.15
389.818	68.44
390.028	-38.06
390.238	7
390.447	64.34
390.657	66.39
390.867	-21.67
391.076	15.19
391.286	47.96
391.496	27.48
391.705	82.77
391.915	-3.24
392.125	50
392.334	33.62
392.544	62.29
392.753	-1.19
392.963	58.2
393.172	27.48
393.382	17.24
393.591	117.59
393.801	19.29
394.01	70.48
394.22	64.34
394.429	97.11
394.639	39.76
394.848	58.2
395.058	31.57
395.267	84.82
395.477	88.92
395.686	41.81
395.895	23.38
396.105	72.53
396.314	115.54
396.524	50
396.733	7
396.942	58.2
397.152	80.72
397.361	84.82
397.57	70.48
397.78	56.15
397.989	25.43
398.198	72.53
398.407	86.87
398.617	52.05
398.826	107.35
399.035	62.29
399.244	68.44
399.453	41.81
399.663	95.06
399.872	62.29
400.081	125.78
400.29	111.44
400.499	99.16
400.708	129.88
400.917	52.05
401.127	-33.96
401.336	31.57
401.545	82.77
401.754	78.68
401.963	56.15
402.172	52.05
402.381	35.67
402.59	84.82
402.799	37.72
403.008	64.34
403.217	109.4
403.426	111.44
403.635	23.38
403.844	93.01
404.053	23.38
404.262	121.68
404.471	74.58
404.68	107.35
404.888	103.25
405.097	117.59
405.306	86.87
405.515	88.92
405.724	31.57
405.933	66.39
406.142	84.82
406.35	144.21
406.559	170.83
406.768	136.02
406.977	144.21
407.185	121.68
407.394	99.16
407.603	105.3
407.812	133.97
408.02	152.4
408.229	105.3
408.438	78.68
408.646	115.54
408.855	164.69
409.064	127.83
409.272	207.7
409.481	187.22
409.69	144.21
409.898	127.83
410.107	281.43
410.315	125.78
410.524	238.42
410.733	279.38
410.941	207.7
411.15	217.94
411.358	254.8
411.567	250.71
411.775	217.94
411.984	332.62
412.192	287.57
412.401	273.23
412.609	322.38
412.818	392.02
413.026	285.52
413.234	285.52
413.443	306
413.651	314.19
413.86	443.21
414.068	344.91
414.276	387.92
414.485	389.97
414.693	355.15
414.901	449.36
415.11	346.96
415.318	473.93
415.526	447.31
415.734	490.32
415.943	518.99
416.151	484.17
416.359	529.23
416.567	594.76
416.776	533.33
416.984	693.07
417.192	541.52
417.4	635.72
417.608	521.04
417.817	609.1
418.025	676.68
418.233	766.79
418.441	742.22
418.649	748.36
418.857	750.41
419.065	799.56
419.273	828.23
419.481	815.94
419.689	848.71
419.897	955.21
420.105	1004.36
420.313	965.45
420.521	979.78
420.729	1121.09
420.937	1008.45
421.145	1123.14
421.353	1166.15
421.561	1209.15
421.769	1293.12
421.977	1342.27
422.185	1291.07
422.393	1383.23
422.601	1467.2
422.809	1377.09
423.017	1450.82
423.224	1577.79
423.432	1723.2
423.64	1561.41
423.848	1758.01
424.056	1657.66
424.263	1741.63
424.471	1778.49
424.679	1821.5
424.887	1946.42
425.094	2020.15
425.302	2032.44
425.51	1985.34
425.718	2100.02
425.925	2233.14
426.133	2294.58
426.341	2517.81
426.548	2573.1
426.756	2489.14
426.964	2497.33
427.171	2720.56
427.379	2800.43
427.586	2886.44
427.794	2968.36
428.001	2976.55
428.209	3253.03
428.417	3087.14
428.624	3410.72
428.832	3293.99
429.039	3427.11
429.247	3263.27
429.454	3707.68
429.662	3822.36
429.869	3576.61
430.076	3920.67
430.284	3799.84
430.491	3935
430.699	4207.38
430.906	4158.23
431.114	4244.24
431.321	4256.53
431.528	4459.28
431.736	4686.61
431.943	4922.12
432.15	4709.13
432.358	4614.93
432.565	5069.58
432.772	5040.9
432.979	5382.92
433.187	5368.58
433.394	5505.79
433.601	5950.2
433.808	5794.56
434.016	5733.12
434.223	6148.86
434.43	6531.83
434.637	6349.56
434.844	6822.64
435.052	6884.08
435.259	6732.53
435.466	6773.49
435.673	6742.77
435.88	7217.9
436.087	7645.92
436.294	7715.55
436.501	7353.06
436.708	7776.99
436.915	7875.29
437.122	8262.36
437.329	8248.02
437.537	8551.12
437.743	8389.33
437.95	8399.57
438.157	9011.92
438.364	9403.08
438.571	9220.81
438.778	9263.82
438.985	10029.76
439.192	9693.89
439.399	10066.62
439.606	9894.59
439.813	10439.35
440.02	10998.45
440.227	10926.77
440.433	10640.05
440.64	11442.85
440.847	11123.37
441.054	11293.35
441.261	12092.06
441.467	12042.91
441.674	12067.49
441.881	12792.47
442.088	12477.08
442.294	12575.38
442.501	12835.47
442.708	13013.65
442.914	13496.97
443.121	14051.97
443.328	13867.65
443.534	14725.75
443.741	14369.4
443.948	14178.94
444.154	15012.46
444.361	15151.73
444.568	15180.4
444.774	15092.34
444.981	15090.29
445.187	15938.15
445.394	16755.29
445.6	16169.57
445.807	17730.12
446.013	17091.15
446.22	17175.12
446.426	18004.55
446.633	17951.3
446.839	18840.12
447.046	17979.97
447.252	19173.94
447.459	19108.4
447.665	19108.4
447.871	19649.07
448.078	20410.91
448.284	19431.98
448.491	20199.97
448.697	20863.51
448.903	21322.26
449.11	21475.85
449.316	20970.01
449.522	21258.77
449.728	22002.18
449.935	21891.59
450.141	22123.01
450.347	22536.7
450.553	22028.81
450.76	22217.22
450.966	22811.13
451.172	22428.16
451.378	23091.7
451.584	22647.29
451.791	22995.45
451.997	23130.61
452.203	23615.98
452.409	23378.42
452.615	23575.02
452.821	22596.09
453.027	22010.37
453.233	23384.56
453.44	22514.17
453.646	22723.07
453.852	22622.72
454.058	23187.96
454.264	22284.8
454.47	23048.69
454.676	22280.71
454.882	23214.58
455.088	21053.97
455.294	21215.76
455.5	21854.73
455.705	21807.62
455.911	20785.69
456.117	20709.91
456.323	20156.96
456.529	19169.84
456.735	20171.3
456.941	19415.6
457.147	19341.87
457.352	18577.98
457.558	18188.86
457.764	18451
457.97	18020.93
458.176	17478.22
458.381	17863.24
458.587	16743
458.793	16869.97
458.999	15919.71
459.204	17031.76
459.41	16427.61
459.616	15649.38
459.821	15559.27
460.027	15209.07
460.233	14946.93
460.438	14422.65
460.644	14695.03
460.85	13826.69
461.055	13560.45
461.261	13460.1
461.466	12620.44
461.672	12165.79
461.878	13009.55
462.083	12393.11
462.289	12143.26
462.494	11848.35
462.7	11315.88
462.905	11098.8
463.111	11549.35
463.316	11438.76
463.522	11303.59
463.727	11213.48
463.932	11369.13
464.138	11135.66
464.343	11217.58
464.549	10810.03
464.754	11446.95
464.959	11197.1
465.165	11250.35
465.37	10650.29
465.575	10232.51
465.781	10828.46
465.986	10789.55
466.191	10222.27
466.397	10230.46
466.602	9665.22
466.807	10058.43
467.012	10046.14
467.218	10134.2
467.423	10013.37
467.628	10341.05
467.833	10328.76
468.038	10164.92
468.244	9833.15
468.449	10099.39
468.654	9898.69
468.859	9710.27
469.064	9695.94
469.269	9437.89
469.474	9327.3
469.679	9568.96
469.885	9237.19
470.09	9341.64
470.295	9439.94
470.5	9059.02
470.705	9204.42
470.91	9024.2
471.115	8903.37
471.32	9065.16
471.525	8821.45
471.73	8735.44
471.935	8714.96
472.139	8366.81
472.344	8452.82
472.549	8438.48
472.754	8516.31
472.959	8325.85
473.164	8205.02
473.369	7891.68
473.574	8264.41
473.778	8241.88
473.983	8131.29
474.188	8088.28
474.393	7615.2
474.598	7701.22
474.802	7797.47
475.007	7351.01
475.212	7467.75
475.417	7164.65
475.621	7453.41
475.826	7320.29
476.031	7215.85
476.235	7146.22
476.44	7125.74
476.645	7084.78
476.849	7086.83
477.054	7203.56
477.259	6785.77
477.463	6839.02
477.668	6662.9
477.872	6873.84
478.077	6648.56
478.282	6767.34
478.486	6370.04
478.691	6468.34
478.895	6347.51
479.1	6296.31
479.304	6359.8
479.509	6060.79
479.713	6163.19
479.918	6144.76
480.122	6111.99
480.326	6118.14
480.531	6023.93
480.735	6048.51
480.94	5997.31
481.144	6202.1
481.348	5708.54
481.553	5976.83
481.757	5985.02
481.961	6099.7
482.166	6032.12
482.37	5917.44
482.574	5907.2
482.778	6015.74
482.983	6122.23
483.187	5935.87
483.391	6013.69
483.595	5915.39
483.8	5864.19
484.004	5948.15
484.208	6034.17
484.412	6157.05
484.616	5915.39
484.821	5907.2
485.025	5753.6
485.229	5907.2
485.433	6044.41
485.637	5853.95
485.841	6009.59
486.045	5847.8
486.249	5872.38
486.453	5880.57
486.657	5810.94
486.861	5851.9
487.065	5675.77
487.269	6028.03
487.473	5987.07
487.677	6066.94
487.881	6011.64
488.085	5880.57
488.289	6103.8
488.493	6081.27
488.697	6038.27
488.901	6060.79
489.105	5929.72
489.309	5958.39
489.512	5886.72
489.716	5935.87
489.92	6030.07
490.124	5991.16
490.328	6210.29
490.531	6007.55
490.735	6046.46
490.939	6222.58
491.143	6218.49
491.346	6062.84
491.55	6257.4
491.754	6099.7
491.958	6347.51
492.161	6255.35
492.365	6312.69
492.569	6195.96
492.772	6198.01
492.976	6382.32
493.18	6431.48
493.383	6589.17
493.587	6576.88
493.79	6697.71
493.994	6419.19
494.197	6669.04
494.401	6703.86
494.605	6570.74
494.808	6765.29
495.012	6716.14
495.215	6796.01
495.419	7002.86
495.622	7049.96
495.825	7123.69
496.029	6984.43
496.232	7230.18
496.436	7193.32
496.639	7328.49
496.843	7279.33
497.046	7477.99
497.249	7602.91
497.453	7832.29
497.656	7625.44
497.859	7711.46
498.063	7801.57
498.266	8022.75
498.469	7973.6
498.673	7940.83
498.876	8233.69
499.079	8319.7
499.282	8227.54
499.485	8575.7
499.689	8385.24
499.892	8723.15
500.095	8694.48
500.298	8956.62
500.501	8723.15
500.705	9128.65
500.908	9261.77
501.111	9341.64
501.314	9446.09
501.517	9568.96
501.72	9740.99
501.923	9540.29
502.126	10013.37
502.329	10115.77
502.532	10121.91
502.735	10072.76
502.938	10273.46
503.141	10457.78
503.344	10754.74
503.547	10595
503.75	10738.35
503.953	11147.95
504.156	11123.37
504.359	11301.54
504.562	11342.5
504.765	11698.85
504.968	11772.58
505.17	11901.6
505.373	11893.41
505.576	12229.27
505.779	12427.93
505.982	12278.43
506.185	12685.97
506.387	12747.41
506.59	12991.12
506.793	12968.59
506.996	13030.03
507.198	13294.22
507.401	13466.25
507.604	13974.14
507.807	13918.85
508.009	14074.49
508.212	14109.31
508.415	14498.42
508.617	14410.36
508.82	14834.29
509.022	14740.08
509.225	15043.18
509.428	15278.7
509.63	15559.27
509.833	15561.32
510.035	15962.72
510.238	15827.56
510.44	16437.85
510.643	16372.32
510.845	16759.38
511.048	16738.9
511.25	16970.32
511.453	17050.19
511.655	17797.7
511.858	17535.56
512.06	17758.79
512.262	17971.78
512.465	18190.91
512.667	18577.98
512.87	18758.2
513.072	18950.71
513.274	19046.96
513.477	19458.6
513.679	19685.93
513.881	20017.7
514.084	19898.92
514.286	20142.63
514.488	20283.94
514.69	20920.85
514.893	21266.96
515.095	21230.1
515.297	21459.47
515.499	21639.69
515.701	22147.59
515.904	22000.13
516.106	22557.18
516.308	22665.72
516.51	22747.64
516.712	23394.8
516.914	23212.53
517.116	23706.09
517.318	24179.17
517.52	24111.59
517.722	24150.5
517.925	24789.47
518.127	24875.48
518.329	25680.33
518.531	25035.22
518.733	25606.61
518.935	26139.08
519.136	26100.17
519.338	26862.01
519.54	26624.45
519.742	27095.48
519.944	27183.54
520.146	27591.09
520.348	28025.26
520.55	28015.02
520.752	28103.08
520.954	28744.09
521.155	28647.84
521.357	29147.54
521.559	29419.92
521.761	29718.93
521.963	29622.67
522.164	29860.24
522.366	30339.46
522.568	30626.18
522.77	30847.36
522.971	31164.79
523.173	31541.62
523.375	31521.14
523.576	31515
523.778	31707.51
523.98	32065.9
524.181	32405.86
524.383	31924.59
524.584	33014.11
524.786	33050.97
524.988	33366.36
525.189	32958.81
525.391	33618.26
525.592	33847.63
525.794	33771.86
525.995	34464.07
526.197	33941.84
526.398	34087.25
526.6	34142.54
526.801	34916.67
527.003	34668.87
527.204	34918.72
527.406	35354.94
527.607	35539.26
527.808	35510.58
528.01	35131.71
528.211	35770.68
528.412	36262.19
528.614	36114.73
528.815	36354.35
529.016	36532.52
529.218	36106.54
529.419	36952.35
529.62	36622.63
529.822	36391.21
530.023	36694.31
530.224	36843.81
530.425	36938.02
530.626	36473.13
530.828	36342.06
531.029	37601.56
531.23	37028.13
531.431	36940.07
531.632	37265.69
531.833	37615.9
532.035	37237.02
532.236	37396.76
532.437	37355.8
532.638	37423.39
532.839	37513.5
533.04	37699.86
533.241	37452.06
533.442	38318.35
533.643	37818.64
533.844	37726.49
534.045	37810.45
534.246	37564.7
534.447	38215.95
534.648	37880.08
534.849	37968.15
535.05	37615.9
535.251	38238.48
535.451	37910.8
535.652	38273.29
535.853	37724.44
536.054	38039.82
536.255	38297.87
536.456	37642.52
536.657	38742.28
536.857	37822.74
537.058	38158.61
537.259	38457.61
537.46	38443.27
537.66	38310.16
537.861	38064.4
538.062	38285.58
538.263	38719.75
538.463	38144.27
538.664	38185.23
538.865	38527.24
539.065	38015.25
539.266	37884.18
539.466	38349.07
539.667	37751.06
539.868	38467.85
540.068	38097.17
540.269	38281.49
540.469	38445.32
540.67	37982.48
540.87	38263.05
541.071	37955.86
541.271	38682.89
541.472	38404.36
541.672	38654.22
541.873	38230.29
542.073	37945.62
542.274	38256.91
542.474	38131.98
542.675	38000.91
542.875	38297.87
543.075	38267.15
543.276	38301.96
543.476	38762.76
543.676	37882.13
543.877	38174.99
544.077	38166.8
544.277	37992.72
544.478	37851.41
544.678	38519.05
544.878	38101.26
545.078	38330.64
545.279	37562.65
545.479	37814.55
545.679	38174.99
545.879	37937.43
546.079	38181.13
546.28	38037.78
546.48	37857.56
546.68	38404.36
546.88	38244.62
547.08	38322.44
547.28	38119.7
547.48	37679.38
547.68	38195.47
547.88	37933.33
548.081	37904.66
548.281	37906.71
548.481	37679.38
548.681	38170.89
548.881	38064.4
549.081	38131.98
549.28	38150.42
549.48	38201.61
549.68	37871.89
549.88	38797.57
550.08	37826.84
550.28	38140.18
550.48	38066.45
550.68	38359.31
550.88	37732.63
551.08	38279.44
551.279	38039.82
551.479	37929.23
551.679	37996.82
551.879	37689.62
552.079	38594.82
552.278	38121.74
552.478	38039.82
552.678	37902.61
552.878	38183.18
553.077	37978.39
553.277	37411.1
553.477	38359.31
553.676	37337.37
553.876	38113.55
554.076	37433.63
554.275	37857.56
554.475	37826.84
554.674	37802.26
554.874	37789.97
555.074	37775.64
555.273	37894.42
555.473	37912.85
555.672	37331.23
555.872	37540.12
556.071	37333.28
556.271	38142.22
556.47	37466.39
556.67	37538.07
556.869	37312.8
557.068	37241.12
557.268	37091.62
557.467	37443.87
557.667	37153.05
557.866	36901.15
558.065	37269.79
558.265	36845.86
558.464	36862.24
558.663	37017.89
558.863	36645.16
559.062	37136.67
559.261	36366.63
559.461	36788.52
559.66	36667.69
559.859	36587.82
560.058	36098.35
560.258	36481.32
560.457	36344.11
560.656	36616.49
560.855	36499.75
561.054	36495.66
561.253	36217.13
561.453	36108.59
561.652	36485.42
561.851	36417.83
562.05	35836.21
562.249	35832.11
562.448	36327.72
562.647	36036.91
562.846	35823.92
563.045	35813.68
563.244	35453.24
563.443	36114.73
563.642	35250.49
563.841	35508.54
564.04	35297.59
564.239	35928.37
564.438	35297.59
564.637	35926.32
564.836	35367.23
565.035	35240.25
565.234	35574.07
565.432	35078.46
565.631	35230.01
565.83	35066.17
566.029	34842.95
566.228	34820.42
566.427	34980.16
566.625	34539.85
566.824	34435.4
567.023	34638.15
567.222	34136.4
567.42	35031.36
567.619	34502.98
567.818	34234.7
568.016	33894.74
568.215	34658.63
568.414	34140.49
568.612	34459.98
568.811	33890.64
569.01	34023.76
569.208	33366.36
569.407	33794.39
569.605	33622.36
569.804	33691.99
570.002	33249.63
570.201	33554.77
570.4	33501.53
570.598	33022.3
570.797	33032.54
570.995	33077.6
571.193	33018.21
571.392	33284.44
571.59	32569.7
571.789	32672.1
571.987	32629.09
572.186	32489.83
572.384	32393.58
572.582	32702.82
572.781	32436.58
572.979	31945.07
573.177	31906.16
573.376	32133.48
573.574	31519.09
573.772	31818.1
573.971	31461.75
574.169	31297.91
574.367	31328.63
574.565	31545.72
574.763	31287.67
574.962	31043.96
575.16	30937.47
575.358	30968.19
575.556	30830.97
575.754	30861.69
575.952	30214.54
576.151	30716.29
576.349	30407.05
576.547	30429.57
576.745	30339.46
576.943	30437.76
577.141	29804.94
577.339	30337.41
577.537	29727.12
577.735	29729.17
577.933	29720.98
578.131	29954.44
578.329	29340.05
578.527	29331.86
578.725	29997.45
578.923	29645.2
579.121	29594
579.319	29127.06
579.516	29268.37
579.714	29079.96
579.912	29002.14
580.11	28780.96
580.308	29288.85
580.506	29010.33
580.704	28195.24
580.901	28426.66
581.099	28555.68
581.297	28348.84
581.495	28242.34
581.692	28418.47
581.89	27967.91
582.088	28283.3
582.285	28025.26
582.483	27681.2
582.681	28088.74
582.878	27738.54
583.076	27683.25
583.274	27826.6
583.471	27404.72
583.669	27568.56
583.866	27408.82
584.064	27404.72
584.262	27070.9
584.459	27201.97
584.657	27019.71
584.854	27277.75
585.052	26634.69
585.249	26831.29
585.447	26757.57
585.644	26587.58
585.841	26454.47
586.039	26546.62
586.236	26298.82
586.434	26073.54
586.631	26159.56
586.828	26245.57
587.026	26251.72
587.223	25901.51
587.42	26065.35
587.618	25958.86
587.815	25627.09
588.012	25467.34
588.21	25762.25
588.407	25938.38
588.604	25625.04
588.801	25289.17
588.999	25323.99
589.196	25346.51
589.393	25280.98
589.59	24955.35
589.787	25336.27
589.984	24734.17
590.182	24343.01
590.379	24832.47
590.576	24934.87
590.773	24472.03
590.97	24105.45
591.167	24863.19
591.364	23996.9
591.561	24297.95
591.758	24134.12
591.955	24216.04
592.152	24328.67
592.349	23814.63
592.546	24013.29
592.743	23865.83
592.94	23558.64
593.137	23869.93
593.334	23886.31
593.531	23480.82
593.727	23638.51
593.924	23689.71
594.121	23249.39
594.318	23421.42
594.515	23286.26
594.712	23529.97
594.908	23421.42
595.105	23327.22
595.302	23237.11
595.499	22931.96
595.696	22880.76
595.892	22694.4
596.089	22839.8
596.286	22731.26
596.482	22569.47
596.679	22751.74
596.876	22712.83
597.072	22301.19
597.269	22673.92
597.466	22295.04
597.662	22213.12
597.859	22180.35
598.055	22168.07
598.252	22170.12
598.448	22141.44
598.645	21905.93
598.841	21875.21
599.038	21809.67
599.234	21527.05
599.431	21619.21
599.627	21412.37
599.824	21484.05
600.02	21465.61
600.217	21531.15
600.413	21488.14
600.609	21402.13
600.806	21076.5
601.002	21410.32
601.198	20847.13
601.395	21135.89
601.591	20945.43
601.787	21000.72
601.984	20873.75
602.18	21144.08
602.376	20693.53
602.572	20517.4
602.769	20640.28
602.965	20445.73
603.161	20167.2
603.357	20242.98
603.553	20474.4
603.75	20337.18
603.946	19968.55
604.142	20242.98
604.338	19989.03
604.534	20085.28
604.73	19896.87
604.926	19565.1
605.122	19755.56
605.318	19386.93
605.514	19829.29
605.71	19579.43
605.906	19474.99
606.102	19286.58
606.298	19366.45
606.494	19415.6
606.69	19307.05
606.886	19243.57
607.082	19221.04
607.278	18915.89
607.474	18891.32
607.67	18797.11
607.866	18573.88
608.062	18846.26
608.257	18776.63
608.453	18930.23
608.649	18547.26
608.845	18321.98
609.041	18381.37
609.236	18684.47
609.432	18600.51
609.628	18309.69
609.824	18360.89
610.019	18186.82
610.215	18078.27
610.411	18305.6
610.606	18061.89
610.802	17918.53
610.998	18025.03
611.193	17916.48
611.389	17926.72
611.584	17803.85
611.78	17719.88
611.976	17584.71
612.171	17920.58
612.367	17584.71
612.562	17486.41
612.758	17148.5
612.953	17420.88
613.149	17486.41
613.344	17269.33
613.539	17590.86
613.735	17437.26
613.93	17267.28
614.126	17025.62
614.321	17449.55
614.517	16966.23
614.712	17091.15
614.907	16878.16
615.103	17209.93
615.298	16564.82
615.493	17087.06
615.688	16554.58
615.884	17160.78
616.079	16527.96
616.274	17019.47
616.47	16710.23
616.665	16603.74
616.86	16298.59
617.055	16443.99
617.25	16200.29
617.445	16390.75
617.641	16366.17
617.836	16331.36
618.031	16063.07
618.226	16333.4
618.421	15968.87
618.616	16503.39
618.811	16110.18
619.006	16487
619.201	15825.51
619.396	15839.84
619.591	15508.07
619.786	15792.74
619.981	15692.39
620.176	15684.2
620.371	15284.84
620.566	15245.93
620.761	15268.46
620.956	15424.11
621.151	15069.81
621.346	15053.42
621.541	14887.54
621.735	14930.55
621.93	14711.41
622.125	14961.27
622.32	14695.03
622.515	14774.9
622.709	14375.55
622.904	14400.12
623.099	14262.91
623.294	14572.15
623.488	14197.37
623.683	14213.76
623.878	13789.83
624.072	13957.76
624.267	14037.63
624.462	14115.45
624.656	13648.52
624.851	13705.86
625.046	13525.64
625.24	13533.83
625.435	13613.7
625.629	13413
625.824	13296.27
626.018	13333.13
626.213	12847.76
626.407	13025.93
626.602	12917.39
626.796	13013.65
626.991	12876.43
627.185	12712.6
627.38	12669.59
627.574	12640.92
627.768	12628.63
627.963	12380.82
628.157	12552.85
628.352	12534.42
628.546	12346.01
628.74	12405.4
628.935	11963.04
629.129	12042.91
629.323	12126.88
629.517	11977.37
629.712	11797.15
629.906	11889.31
630.1	11795.11
630.294	11766.43
630.489	11743.91
630.683	11733.67
630.877	11760.29
631.071	11416.23
631.265	11526.82
631.459	11561.64
631.653	11322.02
631.848	11252.39
632.042	11211.43
632.236	11307.69
632.43	10994.35
632.624	11080.36
632.818	10830.51
633.012	10840.75
633.206	10842.8
633.4	10850.99
633.594	10551.99
633.788	10814.13
633.982	10832.56
634.176	10474.17
634.369	10568.37
634.563	10791.6
634.757	10523.32
634.951	10506.93
635.145	10351.29
635.339	10445.49
635.533	10232.51
635.726	10214.07
635.92	10173.11
636.114	10105.53
636.308	10085.05
636.501	10160.83
636.695	9923.26
636.889	9695.94
637.083	9777.86
637.276	9841.34
637.47	9677.51
637.664	9544.39
637.857	9712.32
638.051	9583.3
638.244	9534.15
638.438	9276.1
638.632	9511.62
638.825	9198.28
639.019	9183.95
639.212	9167.56
639.406	9087.69
639.599	9177.8
639.793	9122.51
639.986	8923.85
640.18	9036.49
640.373	8850.13
640.567	8909.52
640.76	8938.19
640.954	8737.49
641.147	8747.73
641.34	8846.03
641.534	8815.31
641.727	8712.91
641.92	8538.84
642.114	8516.31
642.307	8506.07
642.5	8389.33
642.694	8211.16
642.887	8151.77
643.08	8413.91
643.273	8293.08
643.467	8241.88
643.66	8121.05
643.853	7936.73
644.046	7848.67
644.239	7885.53
644.432	7783.13
644.626	7899.87
644.819	7813.85
645.012	7719.65
645.205	7723.74
645.398	7666.4
645.591	7725.79
645.784	7455.46
645.977	7502.56
646.17	7729.89
646.363	7414.5
646.556	7152.36
646.749	7252.71
646.942	7293.67
647.135	7408.36
647.328	7248.61
647.521	7269.09
647.714	7111.4
647.907	7052.01
648.099	7023.34
648.292	6974.19
648.485	6896.36
648.678	6935.28
648.871	6927.08
649.064	6867.69
649.256	6843.12
649.449	6712.05
649.642	6771.44
649.835	6497.01
650.027	6531.83
650.22	6619.89
650.413	6525.68
650.605	6542.07
650.798	6443.76
650.991	6451.95
651.183	6267.64
651.376	6363.89
651.568	6261.49
651.761	6230.77
651.954	6150.9
652.146	6263.54
652.339	6095.61
652.531	6064.89
652.724	6103.8
652.916	5921.53
653.109	6046.46
653.301	5823.23
653.494	5987.07
653.686	5825.28
653.879	5954.3
654.071	6025.98
654.263	5935.87
654.456	5735.17
654.648	5602.05
654.84	5628.67
655.033	5634.82
655.225	5507.84
655.417	5548.8
655.61	5419.78
655.802	5415.68
655.994	5464.83
656.186	5446.4
656.379	5354.24
656.571	5212.93
656.763	5229.32
656.955	5290.76
657.148	5333.76
657.34	5378.82
657.532	5131.02
657.724	5137.16
657.916	5075.72
658.108	4981.51
658.3	5030.66
658.492	4983.56
658.684	4901.64
658.876	5014.28
659.068	4848.4
659.26	4868.88
659.452	4836.11
659.644	4907.79
659.836	4746
660.028	4834.06
660.22	4623.12
660.412	4670.22
660.604	4578.06
660.796	4586.26
660.988	4565.78
661.18	4676.37
661.372	4430.61
661.563	4420.37
661.755	4397.84
661.947	4395.79
662.139	4246.29
662.331	4338.45
662.522	4264.72
662.714	4475.67
662.906	4250.39
663.097	4291.35
663.289	4096.79
663.481	4203.29
663.673	4385.55
663.864	4018.97
664.056	4002.58
664.247	4250.39
664.439	3967.77
664.631	3932.95
664.822	3959.58
665.014	3996.44
665.205	3891.99
665.397	3891.99
665.588	3871.51
665.78	3910.43
665.971	3797.79
666.163	4043.54
666.354	3824.41
666.546	3791.64
666.737	3740.44
666.929	3787.55
667.12	3894.04
667.311	3592.99
667.503	3781.4
667.694	3742.49
667.885	3728.16
668.077	3638.05
668.268	3562.27
668.459	3674.91
668.651	3531.55
668.842	3552.03
669.033	3627.81
669.224	3533.6
669.416	3414.82
669.607	3511.07
669.798	3404.58
669.989	3535.65
670.18	3552.03
670.371	3318.56
670.563	3361.57
670.754	3263.27
670.945	3248.93
671.136	3287.84
671.327	3312.42
671.518	3273.51
671.709	3320.61
671.9	3261.22
672.091	3097.38
672.282	3173.16
672.473	3142.44
672.664	3324.71
672.855	3101.48
673.046	3248.93
673.237	3068.71
673.428	3066.66
673.619	3154.73
673.809	3117.86
674	3142.44
674.191	3115.81
674.382	3062.57
674.573	3085.09
674.764	3107.62
674.954	3144.49
675.145	3056.42
675.336	2956.07
675.527	3009.32
675.717	3035.94
675.908	2820.91
676.099	2884.39
676.289	3005.22
676.48	2964.26
676.671	2947.88
676.861	2900.78
677.052	2837.29
677.243	2884.39
677.433	2951.98
677.624	2931.5
677.814	2972.46
678.005	2851.63
678.195	2896.68
678.386	2831.15
678.576	2945.83
678.767	2741.04
678.957	2906.92
679.148	2757.42
679.338	2724.65
679.529	2757.42
679.719	2728.75
679.909	2788.14
680.1	2728.75
680.29	2839.34
680.481	2843.43
680.671	2816.81
680.861	2683.69
681.052	2745.13
681.242	2853.67
681.432	2710.32
681.622	2663.21
681.813	2706.22
682.003	2759.47
682.193	2638.64
682.383	2724.65
682.573	2693.93
682.764	2734.89
682.954	2720.56
683.144	2695.98
683.334	2663.21
683.524	2677.55
683.714	2620.21
683.904	2722.6
684.094	2745.13
684.284	2585.39
684.474	2659.12
684.664	2609.97
684.854	2569.01
685.044	2648.88
685.234	2622.25
685.424	2581.29
685.614	2636.59
685.804	2521.9
685.994	2677.55
686.184	2652.97
686.374	2630.45
686.564	2560.81
686.753	2593.58
686.943	2659.12
687.133	2511.66
687.323	2528.05
687.513	2458.42
687.702	2622.25
687.892	2571.05
688.082	2601.77
688.272	2575.15
688.461	2417.46
688.651	2612.01
688.841	2546.48
689.03	2491.18
689.22	2550.57
689.41	2448.18
689.599	2499.38
689.789	2728.75
689.979	2540.33
690.168	2491.18
690.358	2454.32
690.547	2538.29
690.737	2548.53
690.926	2642.73
691.116	2480.94
691.305	2663.21
691.495	2515.76
691.684	2468.66
691.874	2556.72
692.063	2542.38
692.252	2536.24
692.442	2528.05
692.631	2370.35
692.82	2466.61
693.01	2648.88
693.199	2517.81
693.388	2466.61
693.578	2460.46
693.767	2538.29
693.956	2417.46
694.146	2546.48
694.335	2464.56
694.524	2577.2
694.713	2523.95
694.902	2544.43
695.092	2482.99
695.281	2566.96
695.47	2628.4
695.659	2540.33
695.848	2468.66
696.037	2497.33
696.226	2542.38
696.415	2382.64
696.604	2480.94
696.793	2536.24
696.982	2411.31
697.171	2388.78
697.36	2661.16
697.549	2538.29
697.738	2499.38
697.927	2542.38
698.116	2472.75
698.305	2462.51
698.494	2624.3
698.683	2489.14
698.872	2480.94
699.061	2591.53
699.25	2558.77
699.438	2374.45
699.627	2458.42
699.816	2575.15
700.005	2552.62
700.193	2538.29
700.382	2548.53
700.571	2577.2
700.76	2501.42
700.948	2499.38
701.137	2556.72
701.326	2501.42
701.514	2442.03
701.703	2439.98
701.892	2548.53
702.08	2454.32
702.269	2509.62
702.457	2526
702.646	2474.8
702.834	2444.08
703.023	2405.17
703.212	2437.94
703.4	2339.63
703.589	2448.18
703.777	2376.5
703.965	2378.55
704.154	2571.05
704.342	2474.8
704.531	2370.35
704.719	2310.96
704.907	2487.09
705.096	2437.94
705.284	2380.59
705.472	2384.69
705.661	2427.7
705.849	2376.5
706.037	2323.25
706.226	2425.65
706.414	2360.11
706.602	2282.29
706.79	2331.44
706.979	2286.39
707.167	2343.73
707.355	2390.83
707.543	2253.62
707.731	2278.19
707.919	2325.3
708.107	2272.05
708.296	2239.28
708.484	2231.09
708.672	2222.9
708.86	2122.55
709.048	2267.95
709.236	2224.95
709.424	2298.67
709.612	2196.28
709.8	2204.47
709.988	2202.42
710.176	2227
710.364	2186.04
710.551	2161.46
710.739	2153.27
710.927	2253.62
711.115	2212.66
711.303	2186.04
711.491	2151.22
711.679	2038.58
711.866	2165.56
712.054	2163.51
712.242	2227
712.43	2229.04
712.617	2188.08
712.805	2034.49
712.993	2104.12
713.181	1983.29
713.368	2057.01
713.556	2011.96
713.744	2128.69
713.931	2183.99
714.119	2114.36
714.306	2175.8
714.494	1964.86
714.682	1989.43
714.869	2077.49
715.057	2050.87
715.244	2003.77
715.432	1907.51
715.619	1989.43
715.807	1973.05
715.994	2009.91
716.182	1960.76
716.369	1983.29
716.556	1971
716.744	1927.99
716.931	2040.63
717.119	2005.81
717.306	1946.42
717.493	2018.1
717.681	1854.27
717.868	1829.69
718.055	1864.5
718.242	1917.75
718.43	1917.75
718.617	1893.18
718.804	1909.56
718.991	1852.22
719.179	1852.22
719.366	1891.13
719.553	1751.87
719.74	1786.68
719.927	1811.26
720.114	1745.72
720.301	1821.5
720.488	1678.14
720.676	1682.24
720.863	1684.28
721.05	1821.5
721.237	1758.01
721.424	1778.49
721.611	1626.94
721.798	1780.54
721.985	1833.79
722.172	1753.91
722.358	1760.06
722.545	1745.72
722.732	1696.57
722.919	1688.38
723.106	1596.22
723.293	1635.13
723.48	1727.29
723.667	1641.28
723.853	1692.48
724.04	1690.43
724.227	1626.94
724.414	1641.28
724.6	1649.47
724.787	1522.49
724.974	1684.28
725.161	1557.31
725.347	1583.93
725.534	1610.56
725.72	1592.13
725.907	1602.36
726.094	1526.59
726.28	1616.7
726.467	1538.88
726.653	1530.69
726.84	1499.97
727.027	1614.65
727.213	1495.87
727.4	1559.36
727.586	1499.97
727.773	1506.11
727.959	1534.78
728.145	1491.77
728.332	1463.1
728.518	1489.73
728.705	1487.68
728.891	1495.87
729.077	1573.69
729.264	1504.06
729.45	1428.29
729.636	1504.06
729.823	1422.14
730.009	1420.1
730.195	1387.33
730.382	1381.18
730.568	1436.48
730.754	1375.04
730.94	1420.1
731.126	1366.85
731.313	1459.01
731.499	1430.34
731.685	1481.53
731.871	1377.09
732.057	1473.34
732.243	1354.56
732.429	1278.79
732.615	1403.71
732.801	1403.71
732.987	1416
733.173	1280.83
733.359	1393.47
733.545	1372.99
733.731	1264.45
733.917	1301.31
734.103	1358.66
734.289	1360.7
734.475	1297.22
734.661	1364.8
734.847	1305.41
735.033	1246.02
735.219	1332.03
735.404	1372.99
735.59	1303.36
735.776	1276.74
735.962	1346.37
736.148	1301.31
736.333	1233.73
736.519	1209.15
736.705	1229.63
736.89	1235.78
737.076	1317.7
737.262	1305.41
737.447	1219.39
737.633	1200.96
737.819	1237.83
738.004	1295.17
738.19	1235.78
738.375	1198.92
738.561	1180.48
738.747	1225.54
738.932	1135.43
739.118	1209.15
739.303	1205.06
739.489	1028.93
739.674	1139.52
739.859	1194.82
740.045	1157.96
740.23	1176.39
740.416	1264.45
740.601	1055.56
740.786	1174.34
740.972	1203.01
741.157	1190.72
741.342	1215.3
741.528	1071.94
741.713	1088.32
741.898	1112.9
742.084	1024.84
742.269	1164.1
742.454	1049.41
742.639	1235.78
742.824	1063.75
743.01	1014.6
743.195	1104.71
743.38	1055.56
743.565	1102.66
743.75	1063.75
743.935	1065.8
744.12	1030.98
744.305	1022.79
744.49	965.45
744.675	1037.13
744.86	963.4
745.045	987.97
745.23	1071.94
745.415	1082.18
745.6	1037.13
745.785	1000.26
745.97	1026.89
746.155	949.06
746.34	1012.55
746.525	940.87
746.71	924.49
746.895	981.83
747.079	1010.5
747.264	910.15
747.449	981.83
747.634	897.86
747.819	1024.84
748.003	899.91
748.188	928.58
748.373	928.58
748.557	936.78
748.742	932.68
748.927	877.38
749.111	889.67
749.296	791.37
749.481	830.28
749.665	846.66
749.85	951.11
750.034	949.06
750.219	881.48
750.404	809.8
750.588	828.23
750.773	811.85
750.957	904.01
751.141	791.37
751.326	830.28
751.51	787.27
751.695	871.24
751.879	760.65
752.064	754.51
752.248	897.86
752.432	803.66
752.617	791.37
752.801	727.88
752.985	772.94
753.17	760.65
753.354	785.23
753.538	781.13
753.722	752.46
753.907	678.73
754.091	672.59
754.275	742.22
754.459	656.2
754.643	850.76
754.828	701.26
755.012	648.01
755.196	715.59
755.38	746.31
755.564	668.49
755.748	705.35
755.932	648.01
756.116	658.25
756.3	723.79
756.484	715.59
756.668	697.16
756.852	648.01
757.036	594.76
757.22	650.06
757.404	607.05
757.588	631.63
757.772	645.96
757.956	660.3
758.14	688.97
758.323	607.05
758.507	674.64
758.691	666.44
758.875	594.76
759.059	615.24
759.242	619.34
759.426	621.39
759.61	637.77
759.794	615.24
759.977	598.86
760.161	688.97
760.345	629.58
760.528	719.69
760.712	496.46
760.895	678.73
761.079	586.57
761.263	611.15
761.446	564.04
761.63	586.57
761.813	633.68
761.997	623.44
762.18	656.2
762.364	570.19
762.547	559.95
762.731	547.66
762.914	525.13
763.098	531.28
763.281	596.81
763.464	607.05
763.648	516.94
763.831	580.43
764.015	533.33
764.198	576.33
764.381	430.93
764.564	484.17
764.748	525.13
764.931	504.65
765.114	482.13
765.297	523.09
765.481	562
765.664	451.41
765.847	559.95
766.03	547.66
766.213	543.57
766.397	547.66
766.58	467.79
766.763	553.8
766.946	551.76
767.129	478.03
767.312	553.8
767.495	494.41
767.678	500.56
767.861	547.66
768.044	461.65
768.227	559.95
768.41	518.99
768.593	516.94
768.776	504.65
768.959	523.09
769.142	420.69
769.324	484.17
769.507	494.41
769.69	492.37
769.873	471.89
770.056	475.98
770.239	475.98
770.421	473.93
770.604	437.07
770.787	467.79
770.97	465.74
771.152	488.27
771.335	439.12
771.518	430.93
771.7	494.41
771.883	463.69
772.066	451.41
772.248	482.13
772.431	496.46
772.613	461.65
772.796	406.35
772.978	432.97
773.161	482.13
773.343	439.12
773.526	465.74
773.708	486.22
773.891	410.45
774.073	512.85
774.256	373.58
774.438	465.74
774.621	404.3
774.803	461.65
774.985	432.97
775.168	412.5
775.35	412.5
775.532	449.36
775.715	418.64
775.897	416.59
776.079	381.78
776.261	428.88
776.444	385.87
776.626	420.69
776.808	408.4
776.99	414.54
777.173	439.12
777.355	455.5
777.537	379.73
777.719	389.97
777.901	306
778.083	363.34
778.265	330.58
778.447	365.39
778.629	301.9
778.811	428.88
778.993	383.82
779.175	363.34
779.357	328.53
779.539	359.25
779.721	324.43
779.903	303.95
780.085	383.82
780.267	336.72
780.449	342.86
780.631	379.73
780.812	271.19
780.994	295.76
781.176	320.34
781.358	324.43
781.54	338.77
781.721	277.33
781.903	273.23
782.085	275.28
782.267	250.71
782.448	285.52
782.63	271.19
782.812	295.76
782.993	318.29
783.175	351.06
783.357	269.14
783.538	316.24
783.72	281.43
783.901	275.28
784.083	310.1
784.264	275.28
784.446	336.72
784.627	293.71
784.809	328.53
784.99	279.38
785.172	189.27
785.353	318.29
785.535	336.72
785.716	260.95
785.897	303.95
786.079	322.38
786.26	211.79
786.441	322.38
786.623	256.85
786.804	273.23
786.985	215.89
787.167	234.32
787.348	246.61
787.529	269.14
787.71	301.9
787.891	207.7
788.073	287.57
788.254	248.66
788.435	185.17
788.616	219.99
788.797	258.9
788.978	187.22
789.159	287.57
789.34	240.47
789.522	228.18
789.703	236.37
789.884	320.34
790.065	254.8
790.246	183.12
790.427	207.7
790.607	248.66
790.788	244.56
790.969	215.89
791.15	211.79
791.331	125.78
791.512	133.97
791.693	256.85
791.874	195.41
792.054	203.6
792.235	215.89
792.416	191.31
792.597	156.5
792.778	172.88
792.958	138.07
793.139	203.6
793.32	187.22
793.5	187.22
793.681	232.27
793.862	154.45
794.042	136.02
794.223	115.54
794.404	166.74
794.584	187.22
794.765	224.08
794.945	140.12
795.126	146.26
795.306	187.22
795.487	103.25
795.667	201.55
795.848	181.07
796.028	146.26
796.209	256.85
796.389	224.08
796.57	142.16
796.75	179.03
796.93	119.64
797.111	185.17
797.291	232.27
797.471	138.07
797.652	115.54
797.832	189.27
798.012	179.03
798.192	154.45
798.373	187.22
798.553	105.3
798.733	219.99
798.913	133.97
799.093	50
799.274	90.96
799.454	226.13
799.634	113.49
799.814	195.41
799.994	101.2
800.174	152.4
800.354	174.93
800.534	86.87
800.714	125.78
800.894	228.18
801.074	133.97
801.254	97.11
801.434	148.31
801.614	146.26
801.794	84.82
801.974	306
802.154	80.72
802.334	107.35
802.514	93.01
802.693	72.53
802.873	82.77
803.053	95.06
803.233	170.83
803.413	86.87
803.592	232.27
803.772	162.64
803.952	90.96
804.131	95.06
804.311	168.79
804.491	105.3
804.67	64.34
804.85	148.31
805.03	133.97
805.209	101.2
805.389	70.48
805.568	123.73
805.748	129.88
805.928	88.92
806.107	142.16
806.287	156.5
806.466	90.96
806.646	136.02
806.825	113.49
807.004	160.59
807.184	72.53
807.363	15.19
807.543	88.92
807.722	56.15
807.901	54.1
808.081	158.55
808.26	181.07
808.439	154.45
808.619	115.54
808.798	17.24
808.977	103.25
809.156	35.67
809.336	41.81
809.515	72.53
809.694	123.73
809.873	115.54
810.052	43.86
810.231	62.29
810.411	58.2
810.59	138.07
810.769	37.72
810.948	78.68
811.127	90.96
811.306	74.58
811.485	97.11
811.664	70.48
811.843	144.21
812.022	84.82
812.201	47.96
812.38	131.92
812.559	119.64
812.737	27.48
812.916	25.43
813.095	80.72
813.274	80.72
813.453	23.38
813.632	84.82
813.811	84.82
813.989	80.72
814.168	80.72
814.347	47.96
814.526	23.38
814.704	52.05
814.883	101.2
815.062	37.72
815.24	76.63
815.419	58.2
815.598	52.05
815.776	43.86
815.955	72.53
816.133	88.92
816.312	68.44
816.49	52.05
816.669	68.44
816.847	27.48
817.026	88.92
817.204	109.4
817.383	25.43
817.561	62.29
817.74	76.63
817.918	-3.24
818.097	45.91
818.275	76.63
818.453	52.05
818.632	58.2
818.81	25.43
818.988	60.24
819.167	70.48
819.345	4.95
819.523	70.48
819.701	31.57
819.879	103.25
820.058	82.77
820.236	80.72
820.414	86.87
820.592	80.72
820.77	25.43
820.948	86.87
821.127	68.44
821.305	152.4
821.483	-27.82
821.661	142.16
821.839	56.15
822.017	56.15
822.195	45.91
822.373	52.05
822.551	86.87
822.729	64.34
822.907	95.06
823.085	19.29
823.262	129.88
823.44	103.25
823.618	142.16
823.796	56.15
823.974	54.1
824.152	95.06
824.329	66.39
824.507	74.58
824.685	84.82
824.863	35.67
825.04	37.72
825.218	95.06
825.396	72.53
825.574	72.53
825.751	45.91
825.929	119.64
826.107	2.9
826.284	119.64
826.462	82.77
826.639	13.14
826.817	21.33
826.994	54.1
827.172	84.82
827.349	99.16
827.527	136.02
827.704	45.91
827.882	101.2
828.059	-11.43
828.237	-7.34
828.414	80.72
828.591	29.52
828.769	37.72
828.946	15.19
829.124	56.15
829.301	43.86
829.478	127.83
829.655	123.73
829.833	33.62
830.01	21.33
830.187	66.39
830.364	74.58
830.542	-33.96
830.719	52.05
830.896	41.81
831.073	7
831.25	58.2
831.427	64.34
831.604	37.72
831.782	-1.19
831.959	72.53
832.136	37.72
832.313	62.29
832.49	43.86
832.667	60.24
832.844	117.59
833.021	35.67
833.198	58.2
833.374	68.44
833.551	35.67
833.728	4.95
833.905	45.91
834.082	-5.29
834.259	43.86
834.436	72.53
834.612	15.19
834.789	52.05
834.966	25.43
835.143	7
835.319	50
835.496	43.86
835.673	68.44
835.85	-7.34
836.026	13.14
836.203	-7.34
836.38	13.14
836.556	45.91
836.733	35.67
836.909	52.05
837.086	58.2
837.262	58.2
837.439	64.34
837.616	45.91
837.792	13.14
837.968	15.19
838.145	41.81
838.321	19.29
838.498	4.95
838.674	80.72
838.851	56.15
839.027	31.57
839.203	72.53
839.38	-44.2
839.556	58.2
839.732	-3.24
839.909	17.24
840.085	78.68
840.261	35.67
840.437	47.96
840.614	11.09
840.79	-5.29
840.966	-15.53
841.142	41.81
841.318	19.29
841.494	29.52
841.671	-15.53
841.847	39.76
842.023	-23.72
842.199	54.1
842.375	41.81
842.551	54.1
842.727	-1.19
842.903	9.05
843.079	-23.72
843.255	-7.34
843.431	37.72
843.607	-15.53
843.783	2.9
843.959	60.24
844.134	0.85
844.31	21.33
844.486	-9.39
844.662	17.24
844.838	-42.15
845.013	37.72
845.189	41.81
845.365	-44.2
845.541	35.67
845.716	37.72
845.892	-40.11
846.068	52.05
846.244	35.67
846.419	0.85
846.595	-19.63
846.77	25.43
846.946	41.81
847.122	39.76
847.297	41.81
847.473	88.92
847.648	33.62
847.824	-27.82
847.999	33.62
848.175	31.57
848.35	74.58
848.526	35.67
848.701	-1.19
848.876	-9.39
849.052	-44.2
849.227	-17.58
849.403	35.67
849.578	13.14
849.753	31.57
849.929	23.38
850.104	-31.91
850.279	111.44
850.454	-27.82
850.63	15.19
850.805	17.24
850.98	4.95
851.155	-31.91
851.33	23.38
851.505	-9.39
851.681	72.53
851.856	-64.68
852.031	15.19
852.206	9.05
852.381	29.52
852.556	-13.48
852.731	35.67
852.906	7
853.081	29.52
853.256	-19.63
853.431	-52.39
853.606	-11.43
853.781	7
853.956	-36.01
854.131	47.96
854.305	-7.34
854.48	76.63
854.655	-54.44
854.83	39.76
855.005	15.19
855.18	15.19
855.354	-5.29
855.529	2.9
855.704	-29.87
855.879	43.86
856.053	11.09
856.228	-15.53
856.403	2.9
856.577	-19.63
856.752	17.24
856.926	-17.58
857.101	39.76
857.276	43.86
857.45	-68.78
857.625	52.05
857.799	2.9
857.974	13.14
858.148	-74.92
858.323	-42.15
858.497	-13.48
858.672	41.81
858.846	-11.43
859.02	47.96
859.195	-11.43
859.369	-13.48
859.543	25.43
859.718	-13.48
859.892	33.62
860.066	27.48
860.241	9.05
860.415	41.81
860.589	29.52
860.763	0.85
860.938	-27.82
861.112	33.62
861.286	17.24
861.46	19.29
861.634	-29.87
861.808	31.57
861.982	21.33
862.157	2.9
862.331	-3.24
862.505	19.29
862.679	-13.48
862.853	19.29
863.027	33.62
863.201	74.58
863.375	4.95
863.549	33.62
863.722	60.24
863.896	7
864.07	25.43
864.244	-31.91
864.418	37.72
864.592	-68.78
864.766	54.1
864.939	-46.25
865.113	-19.63
865.287	47.96
865.461	-70.83
865.634	50
865.808	84.82
865.982	93.01
866.156	50
866.329	-11.43
866.503	2.9
866.676	-15.53
866.85	-25.77
867.024	15.19
867.197	54.1
867.371	-54.44
867.544	-46.25
867.718	-33.96
867.891	-62.63
868.065	-19.63
868.238	-33.96
868.412	21.33
868.585	-3.24
868.759	-31.91
868.932	-17.58
869.105	7
869.279	-7.34
869.452	93.01
869.625	-33.96
869.799	41.81
869.972	70.48
870.145	50
870.319	-15.53
870.492	21.33
870.665	-27.82
870.838	-7.34
871.011	-50.35
871.185	-9.39
871.358	9.05
871.531	15.19
871.704	-13.48
871.877	39.76
872.05	4.95
872.223	39.76
872.396	13.14
872.569	25.43
872.742	-62.63
872.915	23.38
873.088	-25.77
873.261	11.09
873.434	21.33
873.607	-5.29
873.78	-31.91
873.953	-52.39
874.126	-3.24
874.299	-60.59
874.471	50
874.644	17.24
874.817	-25.77
874.99	-1.19
875.163	-40.11
875.335	7
875.508	4.95
875.681	56.15
875.853	21.33
876.026	41.81
876.199	31.57
876.371	70.48
876.544	2.9
876.717	29.52
876.889	25.43
877.062	0.85
877.234	-9.39
877.407	37.72
877.579	21.33
877.752	-70.83
877.924	-15.53
878.097	21.33
878.269	-60.59
878.442	-13.48
878.614	-9.39
878.786	2.9
878.959	-36.01
879.131	23.38
879.303	-79.02
879.476	-9.39
879.648	29.52
879.82	31.57
879.993	-17.58
880.165	2.9
880.337	-13.48
880.509	33.62
880.681	0.85
880.854	17.24
881.026	-13.48
881.198	-62.63
881.37	21.33
881.542	70.48
881.714	0.85
881.886	-58.54
882.058	19.29
882.23	31.57
882.402	15.19
882.574	45.91
882.746	7
882.918	35.67
883.09	0.85
883.262	13.14
883.434	35.67
883.606	97.11
883.778	-11.43
883.95	19.29
884.122	-31.91
884.293	39.76
884.465	-19.63
884.637	11.09
884.809	-42.15
884.98	-29.87
885.152	-23.72
885.324	-17.58
885.496	-23.72
885.667	15.19
885.839	-33.96
886.011	45.91
886.182	19.29
886.354	21.33
886.525	17.24
886.697	-5.29
886.869	-15.53
887.04	-5.29
887.212	-11.43
887.383	-11.43
887.555	-19.63
887.726	33.62
887.897	31.57
888.069	-36.01
888.24	-1.19
888.412	-38.06
888.583	-27.82
888.754	-48.3
888.926	-7.34
889.097	17.24
889.268	39.76
889.44	-38.06
889.611	43.86
889.782	31.57
889.953	-7.34
890.125	66.39
890.296	-87.21
890.467	-3.24
890.638	39.76
890.809	-3.24
890.98	0.85
891.151	56.15
891.323	23.38
891.494	43.86
891.665	-9.39
891.836	-31.91
892.007	19.29
892.178	84.82
892.349	-19.63
892.52	-11.43
892.691	-15.53
892.862	39.76
893.032	-56.49
893.203	-50.35
893.374	27.48
893.545	-31.91
893.716	43.86
893.887	-122.02
894.057	7
894.228	7
894.399	11.09
894.57	-29.87
894.74	37.72
894.911	-42.15
895.082	-27.82
895.253	-11.43
895.423	-46.25
895.594	-29.87
895.764	52.05
895.935	11.09
896.106	41.81
896.276	19.29
896.447	-54.44
896.617	31.57
896.788	-87.21
896.958	29.52
897.129	-17.58
897.299	-66.73
897.47	41.81
897.64	17.24
897.81	-17.58
897.981	56.15
898.151	0.85
898.322	43.86
898.492	9.05
898.662	7
898.832	11.09
899.003	56.15
899.173	43.86
899.343	35.67
899.513	25.43
