Data from USB4F104151__84__13-54-24-310.txt Node

Date: Thu Mar 13 13:54:24 EDT 2025
User: louis
Spectrometer: USB4F10415
Trigger mode: 4
Integration Time (sec): 1.000000E-2
Scans to average: 1
Electric dark correction enabled: true
Nonlinearity correction enabled: false
Boxcar width: 0
XAxis mode: Wavelengths
Number of Pixels in Spectrum: 3648
>>>>>Begin Spectral Data<<<<<
178.204	-19.29
178.424	-19.29
178.644	-19.29
178.864	-25.43
179.084	-33.62
179.304	11.43
179.524	36.01
179.744	-27.48
179.964	11.43
180.184	31.91
180.404	-47.96
180.624	-9.05
180.844	-2.9
181.064	-0.85
181.283	-23.38
181.503	5.29
181.723	15.53
181.943	7.34
182.163	-9.05
182.383	21.67
182.602	44.2
182.822	58.54
183.042	21.67
183.262	40.11
183.482	103.59
183.701	68.78
183.921	36.01
184.141	-21.33
184.361	74.92
184.58	93.35
184.8	-52.05
185.02	-93.01
185.239	54.44
185.459	42.15
185.679	11.43
185.898	52.39
186.118	17.58
186.338	-31.57
186.557	42.15
186.777	17.58
186.997	36.01
187.216	-27.48
187.436	36.01
187.655	-15.19
187.875	56.49
188.095	-39.76
188.314	81.07
188.534	-0.85
188.753	81.07
188.973	81.07
189.192	83.11
189.412	76.97
189.631	44.2
189.851	62.63
190.07	58.54
190.29	17.58
190.509	-66.39
190.729	38.06
190.948	23.72
191.168	-39.76
191.387	31.91
191.607	36.01
191.826	64.68
192.045	27.82
192.265	27.82
192.484	46.25
192.704	-0.85
192.923	-19.29
193.142	117.93
193.362	19.63
193.581	13.48
193.8	-15.19
194.02	-21.33
194.239	58.54
194.458	27.82
194.678	-13.14
194.897	19.63
195.116	17.58
195.335	-23.38
195.555	-11.09
195.774	9.39
195.993	-0.85
196.212	50.35
196.432	5.29
196.651	56.49
196.87	19.63
197.089	74.92
197.308	13.48
197.528	42.15
197.747	-7
197.966	-39.76
198.185	9.39
198.404	-15.19
198.623	76.97
198.842	38.06
199.062	56.49
199.281	81.07
199.5	19.63
199.719	-13.14
199.938	5.29
200.157	-23.38
200.376	46.25
200.595	105.64
200.814	40.11
201.033	-7
201.252	83.11
201.471	-7
201.69	74.92
201.909	52.39
202.128	17.58
202.347	-2.9
202.566	115.88
202.785	5.29
203.004	74.92
203.223	40.11
203.442	64.68
203.661	70.83
203.879	21.67
204.098	38.06
204.317	76.97
204.536	-17.24
204.755	52.39
204.974	36.01
205.193	44.2
205.411	21.67
205.63	-23.38
205.849	31.91
206.068	89.26
206.287	-7
206.505	21.67
206.724	81.07
206.943	-41.81
207.162	23.72
207.381	33.96
207.599	56.49
207.818	-7
208.037	46.25
208.255	3.24
208.474	42.15
208.693	111.78
208.911	74.92
209.13	11.43
209.349	33.96
209.567	19.63
209.786	25.77
210.005	-0.85
210.223	68.78
210.442	21.67
210.661	15.53
210.879	66.73
211.098	56.49
211.316	11.43
211.535	64.68
211.753	21.67
211.972	81.07
212.191	-23.38
212.409	19.63
212.628	21.67
212.846	50.35
213.065	29.87
213.283	68.78
213.502	15.53
213.72	64.68
213.938	11.43
214.157	66.73
214.375	-31.57
214.594	44.2
214.812	107.69
215.031	-21.33
215.249	52.39
215.467	27.82
215.686	68.78
215.904	-19.29
216.122	-9.05
216.341	3.24
216.559	15.53
216.778	17.58
216.996	79.02
217.214	50.35
217.432	15.53
217.651	21.67
217.869	13.48
218.087	19.63
218.306	33.96
218.524	64.68
218.742	91.31
218.96	54.44
219.179	-21.33
219.397	33.96
219.615	-4.95
219.833	56.49
220.051	40.11
220.27	-15.19
220.488	29.87
220.706	11.43
220.924	-7
221.142	54.44
221.36	72.87
221.578	9.39
221.796	-17.24
222.015	25.77
222.233	7.34
222.451	15.53
222.669	38.06
222.887	23.72
223.105	1.19
223.323	7.34
223.541	21.67
223.759	38.06
223.977	38.06
224.195	42.15
224.413	46.25
224.631	89.26
224.849	-11.09
225.067	3.24
225.285	70.83
225.503	27.82
225.721	27.82
225.939	-33.62
226.157	15.53
226.375	62.63
226.592	-4.95
226.81	-64.34
227.028	70.83
227.246	91.31
227.464	54.44
227.682	132.26
227.9	58.54
228.117	-50
228.335	15.53
228.553	25.77
228.771	7.34
228.989	99.5
229.206	72.87
229.424	33.96
229.642	-39.76
229.86	3.24
230.077	85.16
230.295	42.15
230.513	50.35
230.731	-17.24
230.948	19.63
231.166	54.44
231.384	3.24
231.601	9.39
231.819	-31.57
232.037	31.91
232.254	50.35
232.472	52.39
232.689	38.06
232.907	9.39
233.125	-37.72
233.342	68.78
233.56	-7
233.777	105.64
233.995	70.83
234.213	62.63
234.43	21.67
234.648	62.63
234.865	19.63
235.083	-29.52
235.3	-7
235.518	52.39
235.735	58.54
235.953	38.06
236.17	56.49
236.388	-7
236.605	21.67
236.822	40.11
237.04	5.29
237.257	60.59
237.475	21.67
237.692	38.06
237.909	-25.43
238.127	19.63
238.344	11.43
238.562	62.63
238.779	42.15
238.996	70.83
239.214	23.72
239.431	-21.33
239.648	64.68
239.865	76.97
240.083	50.35
240.3	85.16
240.517	29.87
240.735	70.83
240.952	36.01
241.169	111.78
241.386	31.91
241.603	17.58
241.821	15.53
242.038	42.15
242.255	36.01
242.472	93.35
242.689	48.3
242.907	-7
243.124	-17.24
243.341	5.29
243.558	-27.48
243.775	19.63
243.992	50.35
244.209	48.3
244.426	-0.85
244.643	72.87
244.86	5.29
245.078	25.77
245.295	72.87
245.512	-7
245.729	5.29
245.946	9.39
246.163	38.06
246.38	72.87
246.597	27.82
246.814	38.06
247.031	3.24
247.248	29.87
247.464	17.58
247.681	52.39
247.898	17.58
248.115	33.96
248.332	17.58
248.549	17.58
248.766	56.49
248.983	85.16
249.2	-62.29
249.417	31.91
249.633	31.91
249.85	-0.85
250.067	50.35
250.284	46.25
250.501	72.87
250.717	7.34
250.934	60.59
251.151	29.87
251.368	33.96
251.585	3.24
251.801	31.91
252.018	15.53
252.235	36.01
252.451	-2.9
252.668	-7
252.885	52.39
253.102	62.63
253.318	52.39
253.535	11.43
253.752	58.54
253.968	-23.38
254.185	1.19
254.401	21.67
254.618	83.11
254.835	68.78
255.051	42.15
255.268	27.82
255.484	44.2
255.701	68.78
255.917	31.91
256.134	21.67
256.351	83.11
256.567	-13.14
256.784	50.35
257	40.11
257.217	68.78
257.433	9.39
257.65	-13.14
257.866	58.54
258.082	5.29
258.299	-37.72
258.515	56.49
258.732	58.54
258.948	54.44
259.165	19.63
259.381	15.53
259.597	-13.14
259.814	7.34
260.03	64.68
260.246	103.59
260.463	54.44
260.679	31.91
260.895	-41.81
261.112	21.67
261.328	-27.48
261.544	105.64
261.761	60.59
261.977	-7
262.193	21.67
262.409	-25.43
262.626	19.63
262.842	54.44
263.058	-21.33
263.274	3.24
263.49	52.39
263.707	40.11
263.923	76.97
264.139	-15.19
264.355	-4.95
264.571	58.54
264.787	5.29
265.004	142.5
265.22	13.48
265.436	27.82
265.652	-13.14
265.868	25.77
266.084	7.34
266.3	-25.43
266.516	11.43
266.732	44.2
266.948	-21.33
267.164	-23.38
267.38	7.34
267.596	87.21
267.812	-7
268.028	72.87
268.244	15.53
268.46	31.91
268.676	-21.33
268.892	29.87
269.108	7.34
269.324	66.73
269.54	17.58
269.756	7.34
269.972	3.24
270.188	46.25
270.403	-19.29
270.619	-4.95
270.835	-23.38
271.051	31.91
271.267	25.77
271.483	21.67
271.698	21.67
271.914	31.91
272.13	5.29
272.346	1.19
272.562	46.25
272.777	124.07
272.993	-13.14
273.209	-29.52
273.425	25.77
273.64	21.67
273.856	38.06
274.072	44.2
274.287	31.91
274.503	5.29
274.719	50.35
274.934	-7
275.15	7.34
275.366	74.92
275.581	74.92
275.797	66.73
276.012	56.49
276.228	15.53
276.444	60.59
276.659	148.65
276.875	38.06
277.09	-9.05
277.306	40.11
277.521	25.77
277.737	29.87
277.952	9.39
278.168	-7
278.383	66.73
278.599	-11.09
278.814	81.07
279.03	-2.9
279.245	46.25
279.461	9.39
279.676	19.63
279.892	-13.14
280.107	81.07
280.322	52.39
280.538	15.53
280.753	31.91
280.969	33.96
281.184	19.63
281.399	76.97
281.615	-7
281.83	68.78
282.045	9.39
282.26	-45.91
282.476	23.72
282.691	1.19
282.906	5.29
283.122	60.59
283.337	48.3
283.552	-4.95
283.767	23.72
283.983	54.44
284.198	-21.33
284.413	27.82
284.628	50.35
284.843	-7
285.058	11.43
285.274	66.73
285.489	27.82
285.704	54.44
285.919	105.64
286.134	44.2
286.349	54.44
286.564	13.48
286.779	11.43
286.995	115.88
287.21	-43.86
287.425	-2.9
287.64	101.55
287.855	7.34
288.07	-52.05
288.285	-7
288.5	29.87
288.715	83.11
288.93	79.02
289.145	72.87
289.36	99.5
289.575	74.92
289.79	-0.85
290.004	36.01
290.219	56.49
290.434	42.15
290.649	17.58
290.864	56.49
291.079	3.24
291.294	60.59
291.509	13.48
291.724	50.35
291.938	-23.38
292.153	50.35
292.368	17.58
292.583	31.91
292.798	25.77
293.012	64.68
293.227	7.34
293.442	76.97
293.657	87.21
293.871	48.3
294.086	103.59
294.301	27.82
294.516	23.72
294.73	97.45
294.945	36.01
295.16	15.53
295.374	1.19
295.589	15.53
295.804	48.3
296.018	-7
296.233	68.78
296.447	72.87
296.662	107.69
296.877	40.11
297.091	11.43
297.306	79.02
297.52	117.93
297.735	50.35
297.949	76.97
298.164	87.21
298.378	54.44
298.593	15.53
298.807	-70.48
299.022	17.58
299.236	11.43
299.451	-2.9
299.665	79.02
299.88	97.45
300.094	-2.9
300.309	31.91
300.523	46.25
300.737	66.73
300.952	36.01
301.166	48.3
301.381	50.35
301.595	48.3
301.809	81.07
302.024	97.45
302.238	25.77
302.452	50.35
302.667	50.35
302.881	9.39
303.095	40.11
303.309	83.11
303.524	-0.85
303.738	93.35
303.952	11.43
304.166	79.02
304.381	52.39
304.595	87.21
304.809	21.67
305.023	66.73
305.237	58.54
305.452	76.97
305.666	91.31
305.88	42.15
306.094	33.96
306.308	97.45
306.522	48.3
306.736	72.87
306.95	81.07
307.164	58.54
307.379	5.29
307.593	13.48
307.807	25.77
308.021	83.11
308.235	50.35
308.449	44.2
308.663	-7
308.877	95.4
309.091	9.39
309.305	48.3
309.519	81.07
309.733	38.06
309.947	25.77
310.161	15.53
310.374	5.29
310.588	36.01
310.802	3.24
311.016	93.35
311.23	19.63
311.444	48.3
311.658	5.29
311.872	-17.24
312.085	13.48
312.299	-23.38
312.513	56.49
312.727	1.19
312.941	-33.62
313.154	-2.9
313.368	113.83
313.582	79.02
313.796	50.35
314.009	54.44
314.223	19.63
314.437	60.59
314.651	56.49
314.864	17.58
315.078	9.39
315.292	87.21
315.505	79.02
315.719	52.39
315.933	40.11
316.146	9.39
316.36	42.15
316.573	7.34
316.787	17.58
317.001	31.91
317.214	99.5
317.428	119.98
317.641	-25.43
317.855	-13.14
318.068	23.72
318.282	-0.85
318.495	27.82
318.709	52.39
318.922	107.69
319.136	56.49
319.349	-4.95
319.563	38.06
319.776	15.53
319.99	40.11
320.203	105.64
320.417	-31.57
320.63	93.35
320.843	60.59
321.057	25.77
321.27	17.58
321.483	42.15
321.697	138.41
321.91	21.67
322.124	27.82
322.337	31.91
322.55	-2.9
322.763	-4.95
322.977	15.53
323.19	7.34
323.403	29.87
323.617	44.2
323.83	33.96
324.043	13.48
324.256	83.11
324.469	3.24
324.683	99.5
324.896	50.35
325.109	66.73
325.322	40.11
325.535	79.02
325.748	36.01
325.962	-19.29
326.175	42.15
326.388	105.64
326.601	33.96
326.814	-39.76
327.027	5.29
327.24	31.91
327.453	-52.05
327.666	115.88
327.879	99.5
328.092	52.39
328.305	-0.85
328.518	-11.09
328.731	60.59
328.944	58.54
329.157	44.2
329.37	31.91
329.583	79.02
329.796	54.44
330.009	9.39
330.222	91.31
330.435	29.87
330.648	56.49
330.861	1.19
331.073	13.48
331.286	-0.85
331.499	48.3
331.712	1.19
331.925	122.02
332.138	31.91
332.35	79.02
332.563	-13.14
332.776	58.54
332.989	-0.85
333.202	29.87
333.414	46.25
333.627	46.25
333.84	40.11
334.053	7.34
334.265	5.29
334.478	17.58
334.691	9.39
334.903	33.96
335.116	-23.38
335.329	31.91
335.541	-11.09
335.754	87.21
335.966	83.11
336.179	70.83
336.392	27.82
336.604	60.59
336.817	-31.57
337.029	40.11
337.242	5.29
337.454	58.54
337.667	40.11
337.88	50.35
338.092	-19.29
338.305	48.3
338.517	-9.05
338.729	62.63
338.942	46.25
339.154	-13.14
339.367	13.48
339.579	50.35
339.792	-7
340.004	31.91
340.217	15.53
340.429	5.29
340.641	62.63
340.854	56.49
341.066	83.11
341.278	13.48
341.491	119.98
341.703	79.02
341.915	64.68
342.128	5.29
342.34	46.25
342.552	60.59
342.764	66.73
342.977	11.43
343.189	48.3
343.401	-27.48
343.613	42.15
343.826	74.92
344.038	56.49
344.25	3.24
344.462	48.3
344.674	17.58
344.886	62.63
345.099	42.15
345.311	64.68
345.523	60.59
345.735	68.78
345.947	93.35
346.159	97.45
346.371	132.26
346.583	113.83
346.795	107.69
347.007	56.49
347.219	40.11
347.431	42.15
347.643	23.72
347.855	58.54
348.067	-23.38
348.279	21.67
348.491	9.39
348.703	31.91
348.915	87.21
349.127	-2.9
349.339	76.97
349.551	38.06
349.763	11.43
349.975	-2.9
350.187	5.29
350.399	19.63
350.61	85.16
350.822	17.58
351.034	7.34
351.246	15.53
351.458	25.77
351.669	21.67
351.881	25.77
352.093	62.63
352.305	56.49
352.517	11.43
352.728	52.39
352.94	-0.85
353.152	40.11
353.363	33.96
353.575	-50
353.787	83.11
353.999	101.55
354.21	-29.52
354.422	91.31
354.633	76.97
354.845	-66.39
355.057	56.49
355.268	17.58
355.48	89.26
355.692	68.78
355.903	58.54
356.115	-9.05
356.326	31.91
356.538	42.15
356.749	40.11
356.961	64.68
357.172	27.82
357.384	-4.95
357.595	99.5
357.807	9.39
358.018	72.87
358.23	79.02
358.441	42.15
358.653	13.48
358.864	9.39
359.075	101.55
359.287	11.43
359.498	52.39
359.709	93.35
359.921	97.45
360.132	13.48
360.344	79.02
360.555	19.63
360.766	54.44
360.977	1.19
361.189	50.35
361.4	19.63
361.611	62.63
361.823	-54.1
362.034	70.83
362.245	52.39
362.456	79.02
362.667	21.67
362.879	48.3
363.09	15.53
363.301	-15.19
363.512	136.36
363.723	95.4
363.935	-0.85
364.146	36.01
364.357	23.72
364.568	1.19
364.779	70.83
364.99	72.87
365.201	36.01
365.412	79.02
365.623	-29.52
365.834	-54.1
366.045	48.3
366.256	23.72
366.467	5.29
366.678	15.53
366.889	-31.57
367.1	72.87
367.311	64.68
367.522	95.4
367.733	-9.05
367.944	46.25
368.155	25.77
368.366	58.54
368.577	9.39
368.788	56.49
368.999	17.58
369.209	99.5
369.42	42.15
369.631	91.31
369.842	111.78
370.053	58.54
370.264	72.87
370.474	42.15
370.685	29.87
370.896	31.91
371.107	83.11
371.317	-2.9
371.528	46.25
371.739	40.11
371.95	105.64
372.16	11.43
372.371	-68.44
372.582	76.97
372.792	50.35
373.003	13.48
373.214	44.2
373.424	105.64
373.635	23.72
373.846	-2.9
374.056	54.44
374.267	56.49
374.477	144.55
374.688	7.34
374.898	46.25
375.109	42.15
375.319	5.29
375.53	42.15
375.74	46.25
375.951	42.15
376.161	11.43
376.372	93.35
376.582	31.91
376.793	66.73
377.003	46.25
377.214	56.49
377.424	19.63
377.635	52.39
377.845	-43.86
378.055	126.12
378.266	97.45
378.476	56.49
378.686	-58.2
378.897	58.54
379.107	31.91
379.317	56.49
379.528	54.44
379.738	25.77
379.948	48.3
380.158	21.67
380.369	52.39
380.579	3.24
380.789	56.49
380.999	17.58
381.21	87.21
381.42	44.2
381.63	13.48
381.84	58.54
382.05	60.59
382.261	64.68
382.471	60.59
382.681	-0.85
382.891	132.26
383.101	1.19
383.311	9.39
383.521	62.63
383.731	40.11
383.941	74.92
384.151	56.49
384.361	27.82
384.571	46.25
384.781	64.68
384.991	70.83
385.201	1.19
385.411	25.77
385.621	103.59
385.831	27.82
386.041	52.39
386.251	36.01
386.461	44.2
386.671	31.91
386.881	95.4
387.091	68.78
387.301	42.15
387.511	5.29
387.72	-7
387.93	58.54
388.14	1.19
388.35	52.39
388.56	74.92
388.769	38.06
388.979	33.96
389.189	66.73
389.399	79.02
389.609	132.26
389.818	23.72
390.028	23.72
390.238	-17.24
390.447	60.59
390.657	-9.05
390.867	38.06
391.076	29.87
391.286	60.59
391.496	122.02
391.705	68.78
391.915	50.35
392.125	15.53
392.334	85.16
392.544	99.5
392.753	66.73
392.963	38.06
393.172	81.07
393.382	95.4
393.591	68.78
393.801	-11.09
394.01	42.15
394.22	74.92
394.429	46.25
394.639	66.73
394.848	66.73
395.058	-7
395.267	19.63
395.477	9.39
395.686	62.63
395.895	89.26
396.105	13.48
396.314	91.31
396.524	132.26
396.733	138.41
396.942	81.07
397.152	89.26
397.361	42.15
397.57	56.49
397.78	113.83
397.989	58.54
398.198	40.11
398.407	5.29
398.617	74.92
398.826	128.17
399.035	99.5
399.244	38.06
399.453	111.78
399.663	76.97
399.872	62.63
400.081	70.83
400.29	74.92
400.499	97.45
400.708	97.45
400.917	66.73
401.127	85.16
401.336	-21.33
401.545	113.83
401.754	54.44
401.963	66.73
402.172	56.49
402.381	85.16
402.59	70.83
402.799	130.22
403.008	58.54
403.217	48.3
403.426	56.49
403.635	72.87
403.844	29.87
404.053	52.39
404.262	48.3
404.471	79.02
404.68	105.64
404.888	132.26
405.097	54.44
405.306	76.97
405.515	109.74
405.724	83.11
405.933	58.54
406.142	42.15
406.35	72.87
406.559	48.3
406.768	111.78
406.977	105.64
407.185	146.6
407.394	97.45
407.603	128.17
407.812	46.25
408.02	117.93
408.229	87.21
408.438	97.45
408.646	72.87
408.855	83.11
409.064	124.07
409.272	134.31
409.481	177.32
409.69	134.31
409.898	152.74
410.107	117.93
410.315	158.89
410.524	197.8
410.733	150.7
410.941	124.07
411.15	169.13
411.358	144.55
411.567	173.22
411.775	212.14
411.984	208.04
412.192	253.09
412.401	216.23
412.609	271.53
412.818	210.09
413.026	265.38
413.234	269.48
413.443	230.57
413.651	232.62
413.86	279.72
414.068	255.14
414.276	251.05
414.485	300.2
414.693	326.82
414.901	281.77
415.11	310.44
415.318	279.72
415.526	302.25
415.734	341.16
415.943	255.14
416.151	332.97
416.359	355.49
416.567	320.68
416.776	355.49
416.984	373.92
417.192	459.94
417.4	406.69
417.608	418.98
417.817	384.16
418.025	541.86
418.233	474.28
418.441	539.81
418.649	523.43
418.857	550.05
419.065	593.06
419.273	578.72
419.481	562.34
419.689	593.06
419.897	634.02
420.105	552.1
420.313	732.32
420.521	750.75
420.729	742.56
420.937	660.64
421.145	715.94
421.353	746.66
421.561	838.81
421.769	773.28
421.977	890.01
422.185	847.01
422.393	924.83
422.601	941.21
422.809	941.21
423.017	1084.57
423.224	1008.8
423.432	1082.52
423.64	1039.51
423.848	998.56
424.056	1094.81
424.263	1141.91
424.471	1252.5
424.679	1266.84
424.887	1283.22
425.094	1248.41
425.302	1281.18
425.51	1410.2
425.718	1420.44
425.925	1383.57
426.133	1356.95
426.341	1535.12
426.548	1668.24
426.756	1588.37
426.964	1614.99
427.171	1643.67
427.379	1668.24
427.586	1809.55
427.794	1789.07
428.001	1866.89
428.209	2153.61
428.417	2004.11
428.624	1959.05
428.832	2094.22
429.039	2034.83
429.247	2110.6
429.454	2317.45
429.662	2376.84
429.869	2260.1
430.076	2522.24
430.284	2235.53
430.491	2448.52
430.699	2528.39
430.906	2598.02
431.114	2575.49
431.321	2733.18
431.528	2751.62
431.736	2915.45
431.943	3007.61
432.15	2968.7
432.358	2929.79
432.565	3224.7
432.772	3185.79
432.979	3306.62
433.187	3284.09
433.394	3370.1
433.601	3681.39
433.808	3597.43
434.016	3624.05
434.223	3802.22
434.43	3935.34
434.637	3964.01
434.844	4105.32
435.052	4301.93
435.259	4215.91
435.466	4150.38
435.673	4228.2
435.88	4398.18
436.087	4635.75
436.294	4727.91
436.501	4627.56
436.708	4691.04
436.915	4901.98
437.122	5049.44
437.329	4922.46
437.537	5176.41
437.743	5338.2
437.95	5221.47
438.157	5553.24
438.364	5741.65
438.571	5710.93
438.778	5780.56
438.985	6239.31
439.192	5913.68
439.399	6192.2
439.606	6083.66
439.813	6405.19
440.02	6790.21
440.227	6685.76
440.433	6562.89
440.64	6878.27
440.847	6677.57
441.054	6886.47
441.261	7304.25
441.467	7287.87
441.674	7208
441.881	7658.55
442.088	7693.37
442.294	7724.08
442.501	7840.82
442.708	7982.13
442.914	8313.9
443.121	8709.16
443.328	8401.96
443.534	8895.52
443.741	8909.86
443.948	8721.45
444.154	9360.41
444.361	9362.46
444.568	9141.28
444.774	9288.73
444.981	9389.08
445.187	9550.87
445.394	10271.76
445.6	9942.03
445.807	10820.61
446.013	10349.58
446.22	10634.25
446.426	10951.68
446.633	11047.94
446.839	11607.03
447.046	11000.83
447.252	11498.49
447.459	11877.37
447.665	11625.47
447.871	12024.82
448.078	12692.46
448.284	12061.68
448.491	12411.89
448.697	12901.35
448.903	13018.08
449.11	13034.47
449.316	13054.95
449.522	13196.26
449.728	13489.12
449.935	13474.78
450.141	13640.67
450.347	13994.97
450.553	13358.05
450.76	13650.91
450.966	13988.82
451.172	13769.69
451.378	14291.92
451.584	13906.9
451.791	14353.36
451.997	14150.61
452.203	14451.66
452.409	14498.77
452.615	14435.28
452.821	13902.81
453.027	13614.04
453.233	14451.66
453.44	13874.13
453.646	13835.22
453.852	14019.54
454.058	14232.53
454.264	13911
454.47	14156.75
454.676	13630.43
454.882	14218.19
455.088	13054.95
455.294	13333.47
455.5	13427.68
455.705	13532.12
455.911	12874.73
456.117	12561.39
456.323	12389.36
456.529	11815.93
456.735	12469.23
456.941	11858.93
457.147	11828.21
457.352	11504.64
457.558	11328.51
457.764	11412.48
457.97	10943.49
458.176	10857.48
458.381	11013.12
458.587	10155.02
458.793	10499.08
458.999	9798.68
459.204	10566.67
459.41	10333.2
459.616	9663.51
459.821	9585.69
460.027	9438.23
460.233	9212.96
460.438	8928.29
460.644	9139.23
460.85	8563.75
461.055	8229.93
461.261	8557.61
461.466	7961.65
461.672	7558.2
461.878	8176.69
462.083	7713.84
462.289	7390.27
462.494	7267.39
462.7	7124.03
462.905	6960.19
463.111	7220.28
463.316	7322.68
463.522	7095.36
463.727	7052.35
463.932	6984.77
464.138	6841.41
464.343	6941.76
464.549	6765.64
464.754	6964.29
464.959	7052.35
465.165	6859.84
465.37	6581.32
465.575	6464.58
465.781	6863.94
465.986	6902.85
466.191	6423.62
466.397	6405.19
466.602	6284.36
466.807	6310.99
467.012	6304.84
467.218	6282.31
467.423	5946.45
467.628	6229.07
467.833	6480.97
468.038	6310.99
468.244	6065.23
468.449	6194.25
468.654	6235.21
468.859	6132.81
469.064	6014.03
469.269	5801.04
469.474	5938.26
469.679	5872.72
469.885	5842
470.09	5790.8
470.295	5905.49
470.5	5674.07
470.705	5594.2
470.91	5569.62
471.115	5614.68
471.32	5629.01
471.525	5565.53
471.73	5434.46
471.935	5416.02
472.139	5227.61
472.344	5184.6
472.549	5219.42
472.754	5274.71
472.959	5114.97
473.164	4928.61
473.369	4957.28
473.574	5092.44
473.778	5024.86
473.983	4912.22
474.188	4996.19
474.393	4768.87
474.598	4752.48
474.802	4707.43
475.007	4660.32
475.212	4729.95
475.417	4535.4
475.621	4461.67
475.826	4633.7
476.031	4490.34
476.235	4406.38
476.44	4437.09
476.645	4170.86
476.849	4379.75
477.054	4338.79
477.259	4291.69
477.463	4226.15
477.668	4070.51
477.872	4207.72
478.077	3990.64
478.282	4226.15
478.486	4158.57
478.691	3984.49
478.895	4023.41
479.1	3929.2
479.304	4050.03
479.509	3800.18
479.713	3845.23
479.918	3888.24
480.122	3845.23
480.326	3796.08
480.531	3896.43
480.735	3851.38
480.94	3677.3
481.144	3933.29
481.348	3599.48
481.553	3681.39
481.757	3628.15
481.961	3822.7
482.166	3744.88
482.37	3794.03
482.574	3570.8
482.778	3615.86
482.983	3818.61
483.187	3693.68
483.391	3759.22
483.595	3693.68
483.8	3574.9
484.004	3667.06
484.208	3822.7
484.412	3701.87
484.616	3679.35
484.821	3687.54
485.025	3660.91
485.229	3695.73
485.433	3710.07
485.637	3632.24
485.841	3538.04
486.045	3644.53
486.249	3720.31
486.453	3808.37
486.657	3734.64
486.861	3716.21
487.065	3564.66
487.269	3695.73
487.473	3671.15
487.677	3677.3
487.881	3720.31
488.085	3609.72
488.289	3761.27
488.493	3761.27
488.697	3693.68
488.901	3708.02
489.105	3611.76
489.309	3828.85
489.512	3886.19
489.716	3855.47
489.92	3816.56
490.124	3736.69
490.328	3818.61
490.531	3699.83
490.735	3873.9
490.939	3757.17
491.143	3794.03
491.346	3804.27
491.55	4082.8
491.754	3914.86
491.958	3845.23
492.161	3918.96
492.365	3968.11
492.569	3972.21
492.772	3892.34
492.976	4027.5
493.18	4050.03
493.383	4025.45
493.587	4017.26
493.79	4187.24
493.994	4203.63
494.197	4148.33
494.401	4162.67
494.605	4246.63
494.808	4299.88
495.012	4246.63
495.215	4279.4
495.419	4332.65
495.622	4398.18
495.825	4471.91
496.029	4592.74
496.232	4652.13
496.436	4496.49
496.639	4680.8
496.843	4598.88
497.046	4721.76
497.249	4762.72
497.453	4854.88
497.656	4940.9
497.859	4869.22
498.063	4879.46
498.266	4967.52
498.469	5018.72
498.673	5084.25
498.876	5139.55
499.079	5250.14
499.282	5330.01
499.485	5366.87
499.689	5387.35
499.892	5575.77
500.095	5694.55
500.298	5588.05
500.501	5739.6
500.705	5774.42
500.908	5833.81
501.111	5944.4
501.314	5905.49
501.517	5952.59
501.72	6161.48
501.923	6155.34
502.126	6247.5
502.329	6241.36
502.532	6517.83
502.735	6591.56
502.938	6536.26
503.141	6587.46
503.344	6863.94
503.547	6886.47
503.75	6884.42
503.953	7015.49
504.156	7099.45
504.359	7230.52
504.562	7246.91
504.765	7502.9
504.968	7627.83
505.17	7699.51
505.373	7646.26
505.576	7814.2
505.779	7990.32
505.982	7836.72
506.185	8047.66
506.387	8256.56
506.59	8254.51
506.793	8332.33
506.996	8500.26
507.198	8670.25
507.401	8762.4
507.604	8819.75
507.807	9100.32
508.009	9126.94
508.212	9122.85
508.415	9151.52
508.617	9348.12
508.82	9487.39
509.022	9550.87
509.225	9997.33
509.428	10056.72
509.63	9948.18
509.833	10062.87
510.035	10400.78
510.238	10185.74
510.44	10662.92
510.643	10605.58
510.845	10839.05
511.048	10679.3
511.25	10986.5
511.453	11174.91
511.655	11541.5
511.858	11609.08
512.06	11604.99
512.262	11910.13
512.465	11701.24
512.667	12047.35
512.87	12227.57
513.072	12276.72
513.274	12696.55
513.477	12852.2
513.679	12551.15
513.881	12770.28
514.084	13226.98
514.286	13411.29
514.488	13499.36
514.69	13796.31
514.893	14046.16
515.095	14072.79
515.297	14234.58
515.499	14367.7
515.701	14496.72
515.904	14908.36
516.106	14705.61
516.308	14820.3
516.51	15315.9
516.712	15477.69
516.914	15324.1
517.116	16116.66
517.318	15778.75
517.52	15938.49
517.722	16143.28
517.925	16518.06
518.127	16864.17
518.329	16812.97
518.531	16974.76
518.733	17296.29
518.935	17593.25
519.136	17642.4
519.338	17826.71
519.54	17978.26
519.742	17963.93
519.944	18340.75
520.146	18733.96
520.348	18684.81
520.55	18832.27
520.752	19141.51
520.954	19446.66
521.155	19405.7
521.357	19389.31
521.559	19909.5
521.761	20089.72
521.963	20067.19
522.164	20368.24
522.366	20570.99
522.568	20603.76
522.77	20941.68
522.971	21185.38
523.173	21228.39
523.375	21080.94
523.576	21463.91
523.778	21625.7
523.98	21814.11
524.181	21891.93
524.383	22264.66
524.584	22467.41
524.786	22565.71
524.988	22719.31
525.189	22993.74
525.391	23051.08
525.592	23188.3
525.794	23348.04
525.995	23292.74
526.197	23305.03
526.398	23544.64
526.6	23679.81
526.801	23835.45
527.003	23669.57
527.204	24243
527.406	24351.54
527.607	24238.9
527.808	24484.66
528.01	24150.84
528.211	24890.16
528.412	25314.09
528.614	24793.9
528.815	25113.39
529.016	25228.07
529.218	25097
529.419	25236.27
529.62	25414.44
529.822	25285.42
530.023	25475.88
530.224	25539.36
530.425	25424.68
530.626	25273.13
530.828	25379.62
531.029	25965.34
531.23	25572.13
531.431	25561.89
531.632	25858.85
531.833	26104.6
532.035	25840.42
532.236	26016.54
532.437	26020.64
532.638	26514.2
532.839	26098.46
533.04	26354.46
533.241	25903.9
533.442	26581.78
533.643	26409.75
533.844	26270.49
534.045	26534.68
534.246	26442.52
534.447	26729.23
534.648	26454.81
534.849	26587.92
535.05	26493.72
535.251	26686.23
535.451	26559.25
535.652	26837.78
535.853	26503.96
536.054	26940.18
536.255	26852.11
536.456	26501.91
536.657	27110.16
536.857	26888.98
537.058	26608.4
537.259	26800.91
537.46	27306.76
537.66	26819.35
537.861	27116.3
538.062	26776.34
538.263	27171.6
538.463	26753.81
538.664	26860.3
538.865	26909.46
539.065	26862.35
539.266	26592.02
539.466	27106.06
539.667	26848.02
539.868	27126.54
540.068	27036.43
540.269	26477.33
540.469	26936.08
540.67	27007.76
540.87	26626.84
541.071	26700.56
541.271	27015.95
541.472	26739.47
541.672	26821.39
541.873	26911.5
542.073	26604.31
542.274	26811.15
542.474	26741.52
542.675	26518.29
542.875	27138.83
543.075	26977.04
543.276	26651.41
543.476	27325.19
543.676	26802.96
543.877	27020.05
544.077	27171.6
544.277	26700.56
544.478	27288.33
544.678	27173.64
544.878	26977.04
545.078	26968.85
545.279	26774.29
545.479	26739.47
545.679	27183.88
545.879	26899.22
546.079	26831.63
546.28	26905.36
546.48	26546.97
546.68	27075.34
546.88	27071.25
547.08	26663.7
547.28	27071.25
547.48	26858.26
547.68	27065.1
547.88	27077.39
548.081	27169.55
548.281	26886.93
548.481	26868.5
548.681	26850.06
548.881	26757.91
549.081	26925.84
549.28	26704.66
549.48	27210.51
549.68	26567.45
549.88	27337.48
550.08	26624.79
550.28	27093.77
550.48	26958.61
550.68	27038.48
550.88	26759.95
551.08	26776.34
551.279	27048.72
551.479	26694.42
551.679	26948.37
551.879	26843.92
552.079	27327.24
552.278	26563.35
552.478	26827.54
552.678	27132.68
552.878	26936.08
553.077	26995.47
553.277	26622.74
553.477	27177.74
553.676	26544.92
553.876	26575.64
554.076	26770.19
554.275	26745.62
554.475	26915.6
554.674	27046.67
554.874	26712.85
555.074	26522.39
555.273	26645.27
555.473	26469.14
555.672	26303.26
555.872	26645.27
556.071	26733.33
556.271	26700.56
556.47	26090.27
556.67	26260.25
556.869	26389.27
557.068	26483.48
557.268	26250.01
557.467	26243.87
557.667	25971.49
557.866	26229.53
558.065	26016.54
558.265	25860.9
558.464	25975.58
558.663	26104.6
558.863	25912.1
559.062	26415.9
559.261	25725.73
559.461	25922.34
559.66	25578.28
559.859	25764.64
560.058	25305.9
560.258	25746.21
560.457	25568.04
560.656	25795.36
560.855	25748.26
561.054	25828.13
561.253	25674.53
561.453	25369.38
561.652	25598.76
561.851	25211.69
562.05	25305.9
562.249	25217.83
562.448	25551.65
562.647	25209.64
562.846	25172.78
563.045	25187.11
563.244	24564.53
563.443	25238.31
563.642	24902.45
563.841	24914.73
564.04	25031.47
564.239	25330.47
564.438	24843.06
564.637	24933.17
564.836	24591.16
565.035	24347.45
565.234	24517.43
565.432	24314.68
565.631	24320.82
565.83	24468.28
566.029	24232.76
566.228	24503.09
566.427	24263.48
566.625	24054.59
566.824	23849.79
567.023	24202.04
567.222	23819.07
567.42	24007.48
567.619	24005.44
567.818	23900.99
568.016	23876.41
568.215	23898.94
568.414	23345.99
568.612	23923.52
568.811	23427.91
569.01	23364.42
569.208	23169.87
569.407	23472.96
569.605	23059.27
569.804	23061.32
570.002	23030.6
570.201	22946.64
570.4	22952.78
570.598	22645.59
570.797	22457.17
570.995	22649.68
571.193	22502.23
571.392	23044.94
571.59	22432.6
571.789	22350.68
571.987	22659.92
572.186	22350.68
572.384	22250.33
572.582	22287.19
572.781	22403.92
572.979	21605.22
573.177	22066.01
573.376	22186.84
573.574	21658.46
573.772	21996.38
573.971	21627.74
574.169	21742.43
574.367	21455.72
574.565	21760.86
574.763	21377.89
574.962	21371.75
575.16	21207.91
575.358	21072.75
575.556	21078.89
575.754	21295.97
575.952	20939.63
576.151	20947.82
576.349	20593.52
576.547	20466.55
576.745	20659.06
576.943	20898.67
577.141	20636.53
577.339	20679.54
577.537	20202.36
577.735	20269.94
577.933	20075.38
578.131	20460.4
578.329	20173.69
578.527	20003.71
578.725	20161.4
578.923	20099.96
579.121	19803
579.319	19835.77
579.516	19786.62
579.714	19596.16
579.912	19626.88
580.11	19516.29
580.308	19481.47
580.506	19317.64
580.704	19151.75
580.901	19254.15
581.099	19221.38
581.297	18910.09
581.495	19266.44
581.692	19168.13
581.89	18926.47
582.088	19170.18
582.285	18871.18
582.483	18965.39
582.681	18611.09
582.878	18770.83
583.076	18406.29
583.274	18719.63
583.471	18328.47
583.669	18226.07
583.866	18211.73
584.064	18488.21
584.262	18260.88
584.459	18414.48
584.657	18064.28
584.854	18066.33
585.052	17927.07
585.249	17992.6
585.447	17974.17
585.644	17867.67
585.841	18002.84
586.039	17757.08
586.236	17900.44
586.434	17474.46
586.631	17335.2
586.828	17374.11
587.026	17644.45
587.223	17367.97
587.42	16974.76
587.618	17288.1
587.815	16833.45
588.012	17179.56
588.21	17111.97
588.407	17130.41
588.604	16991.14
588.801	17111.97
588.999	16909.22
589.196	16886.7
589.393	16757.67
589.59	16772.01
589.787	16741.29
589.984	16647.08
590.182	16499.63
590.379	16622.51
590.576	16556.97
590.773	16423.86
590.97	16374.7
591.167	16546.73
591.364	16182.2
591.561	16329.65
591.758	15969.21
591.955	15936.44
592.152	16321.46
592.349	15915.96
592.546	15918.01
592.743	16204.72
592.94	15688.64
593.137	15940.54
593.334	15662.01
593.531	15389.63
593.727	15659.96
593.924	15535.04
594.121	15410.11
594.318	15596.48
594.515	15537.09
594.712	15639.48
594.908	15539.13
595.105	15516.61
595.302	15350.72
595.499	15352.77
595.696	15236.03
595.892	15315.9
596.089	15264.71
596.286	15184.83
596.482	15047.62
596.679	15074.24
596.876	15125.44
597.072	15158.21
597.269	14883.78
597.466	14633.93
597.662	14986.18
597.859	14750.67
598.055	14728.14
598.252	14529.48
598.448	14775.24
598.645	14451.66
598.841	14326.74
599.038	14406.61
599.234	14435.28
599.431	14263.25
599.627	14144.47
599.824	14390.22
600.02	14005.2
600.217	14158.8
600.413	14097.36
600.609	14189.52
600.806	13890.52
601.002	14187.47
601.198	14091.22
601.395	13628.38
601.591	13894.61
601.787	13994.97
601.984	13771.74
602.18	13861.85
602.376	13587.42
602.572	13630.43
602.769	13763.54
602.965	13505.5
603.161	13614.04
603.357	13360.09
603.553	13413.34
603.75	13458.4
603.946	13190.11
604.142	13388.77
604.338	13179.87
604.534	13263.84
604.73	12938.21
604.926	12948.45
605.122	13116.39
605.318	13028.32
605.514	13036.52
605.71	12827.62
605.906	12717.03
606.102	12825.57
606.298	12889.06
606.494	12665.83
606.69	12768.23
606.886	12782.57
607.082	12436.46
607.278	12508.14
607.474	12246
607.67	12508.14
607.866	12403.69
608.062	12520.43
608.257	12260.34
608.453	12221.42
608.649	12350.45
608.845	12307.44
609.041	12268.53
609.236	12143.6
609.432	12037.11
609.628	12215.28
609.824	11914.23
610.019	11897.85
610.215	11842.55
610.411	11897.85
610.606	11910.13
610.802	11705.34
610.998	11693.05
611.193	11738.1
611.389	11553.79
611.584	11650.04
611.78	11658.23
611.976	11459.58
612.171	11551.74
612.367	11576.31
612.562	11303.93
612.758	11564.03
612.953	11303.93
613.149	11529.21
613.344	11498.49
613.539	11375.61
613.735	11133.95
613.93	11174.91
614.126	11158.53
614.321	11207.68
614.517	11123.71
614.712	11140.1
614.907	10976.26
615.103	11078.66
615.298	11197.44
615.493	11033.6
615.688	10689.54
615.884	11133.95
616.079	10587.15
616.274	10880
616.47	10757.13
616.665	10552.33
616.86	10703.88
617.055	10826.76
617.25	10732.55
617.445	10581
617.641	10204.17
617.836	10470.41
618.031	10408.97
618.226	10503.18
618.421	10245.13
618.616	10406.92
618.811	10318.86
619.006	10349.58
619.201	9927.7
619.396	10222.61
619.591	10042.39
619.786	10214.41
619.981	9939.99
620.176	10040.34
620.371	9851.92
620.566	9899.03
620.761	9780.25
620.956	9880.6
621.151	9815.06
621.346	9657.37
621.541	9534.49
621.735	9649.18
621.93	9608.22
622.125	9382.94
622.32	9477.15
622.515	9413.66
622.709	9452.57
622.904	9282.59
623.099	9063.46
623.294	9141.28
623.488	9272.35
623.683	9102.37
623.878	8750.12
624.072	8952.87
624.267	8928.29
624.462	8786.98
624.656	8791.08
624.851	8846.37
625.046	8694.82
625.24	8668.2
625.435	8608.81
625.629	8526.89
625.824	8539.18
626.018	8582.18
626.213	8227.89
626.407	8320.04
626.602	8354.86
626.796	8299.56
626.991	8182.83
627.185	8334.38
627.38	7982.13
627.574	8100.91
627.768	8111.15
627.963	8072.24
628.157	7935.03
628.352	8053.81
628.546	7906.35
628.74	7844.91
628.935	7703.61
629.129	7748.66
629.323	7975.98
629.517	7908.4
629.712	7556.15
629.906	7580.73
630.1	7527.48
630.294	7496.76
630.489	7474.23
630.683	7455.8
630.877	7461.94
631.071	7670.84
631.265	7420.99
631.459	7416.89
631.653	7259.2
631.848	7208
632.042	7216.19
632.236	7138.37
632.43	6986.82
632.624	6990.91
632.818	7117.89
633.012	7117.89
633.206	6954.05
633.4	6886.47
633.594	7046.21
633.788	6976.58
633.982	6831.17
634.176	6720.58
634.369	6757.44
634.563	6630.47
634.757	6706.24
634.951	6511.69
635.145	6605.89
635.339	6599.75
635.533	6569.03
635.726	6458.44
635.92	6526.02
636.114	6470.73
636.308	6460.49
636.501	6370.38
636.695	6411.34
636.889	6452.3
637.083	6464.58
637.276	6341.71
637.47	6315.08
637.664	6087.76
637.857	6247.5
638.051	6095.95
638.244	5946.45
638.438	6093.9
638.632	5956.69
638.825	5897.3
639.019	5932.11
639.212	5856.34
639.406	5782.61
639.599	5807.19
639.793	5801.04
639.986	5729.36
640.18	5719.12
640.373	5659.73
640.567	5596.25
640.76	5612.63
640.954	5510.23
641.147	5592.15
641.34	5543
641.534	5612.63
641.727	5454.94
641.92	5436.5
642.114	5442.65
642.307	5483.61
642.5	5264.47
642.694	5131.36
642.887	5260.38
643.08	5211.23
643.273	5192.8
643.467	5090.4
643.66	5168.22
643.853	5037.15
644.046	5004.38
644.239	5049.44
644.432	5039.2
644.626	4838.5
644.819	4840.54
645.012	4969.57
645.205	4932.7
645.398	4854.88
645.591	4775.01
645.784	4729.95
645.977	4691.04
646.17	4791.39
646.363	4662.37
646.556	4582.5
646.749	4457.57
646.942	4576.36
647.135	4439.14
647.328	4537.45
647.521	4611.17
647.714	4508.77
647.907	4387.94
648.099	4320.36
648.292	4433
648.485	4201.58
648.678	4301.93
648.871	4224.11
649.064	4162.67
649.256	4187.24
649.449	4131.95
649.642	4082.8
649.835	4111.47
650.027	4117.61
650.22	4050.03
650.413	4125.8
650.605	4052.08
650.798	4039.79
650.991	3898.48
651.183	3970.16
651.376	3861.62
651.568	3918.96
651.761	3851.38
651.954	3890.29
652.146	3806.32
652.339	3849.33
652.531	3812.46
652.724	3826.8
652.916	3634.29
653.109	3728.5
653.301	3761.27
653.494	3632.24
653.686	3587.19
653.879	3585.14
654.071	3527.8
654.263	3562.61
654.456	3679.35
654.648	3470.45
654.84	3468.41
655.033	3548.28
655.225	3431.54
655.417	3433.59
655.61	3415.16
655.802	3425.4
655.994	3296.38
656.186	3349.62
656.379	3384.44
656.571	3316.86
656.763	3298.42
656.955	3150.97
657.148	3222.65
657.34	3159.16
657.532	3148.92
657.724	3181.69
657.916	3144.83
658.108	3064.96
658.3	3142.78
658.492	3087.48
658.684	3208.31
658.876	3105.92
659.068	3114.11
659.26	2862.21
659.452	3079.29
659.644	2946.17
659.836	2937.98
660.028	2972.8
660.22	2866.3
660.412	2839.68
660.604	2784.38
660.796	2819.2
660.988	2903.17
661.18	2786.43
661.372	2765.95
661.563	2759.81
661.755	2827.39
661.947	2716.8
662.139	2614.4
662.331	2686.08
662.522	2677.89
662.714	2620.55
662.906	2782.34
663.097	2600.07
663.289	2575.49
663.481	2471.04
663.673	2579.59
663.864	2473.09
664.056	2452.61
664.247	2548.87
664.439	2512
664.631	2528.39
664.822	2415.75
665.014	2440.33
665.205	2428.04
665.397	2483.33
665.588	2448.52
665.78	2315.4
665.971	2335.88
666.163	2268.3
666.354	2376.84
666.546	2253.96
666.737	2358.41
666.929	2247.82
667.12	2399.37
667.311	2301.06
667.503	2176.14
667.694	2247.82
667.885	2190.47
668.077	2278.54
668.268	2184.33
668.459	2180.23
668.651	2176.14
668.842	2278.54
669.033	2208.9
669.224	2165.9
669.416	2284.68
669.607	2059.4
669.798	2167.95
669.989	2112.65
670.18	2143.37
670.371	2157.71
670.563	2100.36
670.754	2196.62
670.945	1987.72
671.136	2155.66
671.327	2145.42
671.518	1907.85
671.709	2043.02
671.9	2057.36
672.091	2043.02
672.282	1936.53
672.473	2047.12
672.664	2086.03
672.855	2106.51
673.046	2038.92
673.237	1983.63
673.428	1948.81
673.619	2055.31
673.809	1965.2
674	1975.44
674.191	1834.13
674.382	1938.57
674.573	1977.48
674.764	1860.75
674.954	1901.71
675.145	1897.61
675.336	1922.19
675.527	1944.72
675.717	1809.55
675.908	1883.28
676.099	2047.12
676.289	1889.42
676.48	1803.41
676.671	1909.9
676.861	1885.33
677.052	1866.89
677.243	1881.23
677.433	1897.61
677.624	1846.41
677.814	1817.74
678.005	1797.26
678.195	1840.27
678.386	1887.37
678.576	1889.42
678.767	1774.74
678.957	1858.7
679.148	1883.28
679.338	1891.47
679.529	1848.46
679.719	1821.84
679.909	1834.13
680.1	1784.98
680.29	1832.08
680.481	1795.22
680.671	1801.36
680.861	1836.17
681.052	1842.32
681.242	1842.32
681.432	1844.37
681.622	1864.85
681.813	1817.74
682.003	1774.74
682.193	1830.03
682.383	1801.36
682.573	1807.5
682.764	1842.32
682.954	1762.45
683.144	1758.35
683.334	1762.45
683.524	1787.02
683.714	1668.24
683.904	1727.63
684.094	1799.31
684.284	1844.37
684.474	1776.78
684.664	1823.89
684.854	1770.64
685.044	1823.89
685.234	1774.74
685.424	1725.58
685.614	1760.4
685.804	1825.93
685.994	1772.69
686.184	1825.93
686.374	1768.59
686.564	1723.54
686.753	1723.54
686.943	1725.58
687.133	1719.44
687.323	1772.69
687.513	1823.89
687.702	1793.17
687.892	1784.98
688.082	1631.38
688.272	1805.46
688.461	1752.21
688.651	1772.69
688.841	1772.69
689.03	1832.08
689.22	1752.21
689.41	1717.39
689.599	1825.93
689.789	1784.98
689.979	1682.58
690.168	1801.36
690.358	1694.86
690.547	1684.62
690.737	1770.64
690.926	1772.69
691.116	1807.5
691.305	1778.83
691.495	1770.64
691.684	1778.83
691.874	1750.16
692.063	1737.87
692.252	1686.67
692.442	1744.02
692.631	1637.52
692.82	1760.4
693.01	1705.1
693.199	1752.21
693.388	1778.83
693.578	1782.93
693.767	1690.77
693.956	1645.71
694.146	1698.96
694.335	1729.68
694.524	1705.1
694.713	1809.55
694.902	1809.55
695.092	1752.21
695.281	1731.73
695.47	1832.08
695.659	1895.57
695.848	1725.58
696.037	1791.12
696.226	1766.54
696.415	1707.15
696.604	1811.6
696.793	1741.97
696.982	1881.23
697.171	1741.97
697.36	1836.17
697.549	1776.78
697.738	1721.49
697.927	1864.85
698.116	1909.9
698.305	1817.74
698.494	1752.21
698.683	1647.76
698.872	1795.22
699.061	1791.12
699.25	1725.58
699.438	1846.41
699.627	1811.6
699.816	1825.93
700.005	1860.75
700.193	1844.37
700.382	1860.75
700.571	1791.12
700.76	1846.41
700.948	1797.26
701.137	1887.37
701.326	1744.02
701.514	1807.5
701.703	1813.65
701.892	1789.07
702.08	1848.46
702.269	1864.85
702.457	1827.98
702.646	1784.98
702.834	1705.1
703.023	1893.52
703.212	1741.97
703.4	1752.21
703.589	1934.48
703.777	1866.89
703.965	1776.78
704.154	1850.51
704.342	1801.36
704.531	1838.22
704.719	1764.5
704.907	1784.98
705.096	1903.76
705.284	1780.88
705.472	1795.22
705.661	1748.11
705.849	1870.99
706.037	1805.46
706.226	1797.26
706.414	1811.6
706.602	1768.59
706.79	1739.92
706.979	1844.37
707.167	1715.34
707.355	1729.68
707.543	1752.21
707.731	1717.39
707.919	1756.3
708.107	1682.58
708.296	1692.82
708.484	1817.74
708.672	1701.01
708.86	1701.01
709.048	1705.1
709.236	1684.62
709.424	1774.74
709.612	1690.77
709.8	1733.78
709.988	1778.83
710.176	1754.26
710.364	1776.78
710.551	1655.95
710.739	1643.67
710.927	1713.3
711.115	1709.2
711.303	1731.73
711.491	1701.01
711.679	1686.67
711.866	1735.82
712.054	1639.57
712.242	1621.14
712.43	1664.15
712.617	1602.71
712.805	1580.18
712.993	1567.89
713.181	1604.75
713.368	1709.2
713.556	1610.9
713.744	1541.27
713.931	1711.25
714.119	1633.43
714.306	1590.42
714.494	1563.79
714.682	1594.51
714.869	1543.32
715.057	1535.12
715.244	1592.47
715.432	1455.25
715.619	1553.55
715.807	1596.56
715.994	1539.22
716.182	1467.54
716.369	1543.32
716.556	1524.88
716.744	1510.55
716.931	1395.86
717.119	1633.43
717.306	1426.58
717.493	1567.89
717.681	1504.4
717.868	1479.83
718.055	1518.74
718.242	1500.31
718.43	1483.92
718.617	1473.68
718.804	1461.4
718.991	1434.77
719.179	1465.49
719.366	1451.16
719.553	1399.96
719.74	1459.35
719.927	1561.75
720.114	1496.21
720.301	1369.24
720.488	1352.85
720.676	1453.2
720.863	1422.48
721.05	1432.72
721.237	1424.53
721.424	1406.1
721.611	1416.34
721.798	1406.1
721.985	1285.27
722.172	1361.05
722.358	1408.15
722.545	1389.72
722.732	1397.91
722.919	1363.09
723.106	1418.39
723.293	1369.24
723.48	1279.13
723.667	1389.72
723.853	1361.05
724.04	1309.85
724.227	1363.09
724.414	1322.13
724.6	1326.23
724.787	1375.38
724.974	1399.96
725.161	1391.77
725.347	1336.47
725.534	1266.84
725.72	1275.03
725.907	1256.6
726.094	1293.46
726.28	1256.6
726.467	1293.46
726.653	1203.35
726.84	1240.22
727.027	1336.47
727.213	1160.34
727.4	1313.94
727.586	1242.26
727.773	1244.31
727.959	1268.89
728.145	1234.07
728.332	1236.12
728.518	1320.09
728.705	1287.32
728.891	1232.02
729.077	1221.78
729.264	1268.89
729.45	1170.58
729.636	1287.32
729.823	1150.11
730.009	1191.06
730.195	1162.39
730.382	1182.87
730.568	1168.54
730.754	1133.72
730.94	1193.11
731.126	1270.94
731.313	1189.02
731.499	1160.34
731.685	1219.74
731.871	1236.12
732.057	1225.88
732.243	1211.54
732.429	1082.52
732.615	1178.78
732.801	1244.31
732.987	1156.25
733.173	1096.86
733.359	1184.92
733.545	1223.83
733.731	1150.11
733.917	1070.23
734.103	1119.39
734.289	1193.11
734.475	1164.44
734.661	1135.77
734.847	1172.63
735.033	1143.96
735.219	1037.47
735.404	1098.91
735.59	1004.7
735.776	1109.15
735.962	1051.8
736.148	1178.78
736.333	1078.43
736.519	1070.23
736.705	1045.66
736.89	1119.39
737.076	1012.89
737.262	1062.04
737.447	961.69
737.633	1092.76
737.819	1076.38
738.004	1045.66
738.19	1027.23
738.375	1041.56
738.561	1066.14
738.747	1043.61
738.932	1014.94
739.118	1057.95
739.303	1053.85
739.489	1010.84
739.674	1076.38
739.859	1010.84
740.045	1002.65
740.23	1016.99
740.416	881.82
740.601	988.32
740.786	1025.18
740.972	967.84
741.157	973.98
741.342	924.83
741.528	986.27
741.713	1053.85
741.898	918.68
742.084	984.22
742.269	945.31
742.454	1019.04
742.639	1041.56
742.824	933.02
743.01	941.21
743.195	961.69
743.38	937.12
743.565	971.93
743.75	973.98
743.935	920.73
744.12	951.45
744.305	935.07
744.49	873.63
744.675	885.92
744.86	967.84
745.045	912.54
745.23	914.59
745.415	871.58
745.6	875.68
745.785	820.38
745.97	967.84
746.155	955.55
746.34	924.83
746.525	832.67
746.71	867.49
746.895	871.58
747.079	793.76
747.264	836.77
747.449	822.43
747.634	793.76
747.819	824.48
748.003	834.72
748.188	789.66
748.373	812.19
748.557	818.33
748.742	812.19
748.927	865.44
749.111	861.34
749.296	773.28
749.481	775.33
749.665	742.56
749.85	781.47
750.034	775.33
750.219	814.24
750.404	779.42
750.588	787.61
750.773	734.37
750.957	713.89
751.141	713.89
751.326	736.42
751.51	693.41
751.695	717.98
751.879	705.7
752.064	765.09
752.248	689.31
752.432	664.74
752.617	638.11
752.801	738.46
752.985	703.65
753.17	654.5
753.354	599.2
753.538	640.16
753.722	713.89
753.907	662.69
754.091	660.64
754.275	638.11
754.459	683.17
754.643	588.96
754.828	666.78
755.012	654.5
755.196	640.16
755.38	734.37
755.564	652.45
755.748	607.39
755.932	599.2
756.116	525.47
756.3	550.05
756.484	593.06
756.668	595.11
756.852	605.35
757.036	666.78
757.22	591.01
757.404	591.01
757.588	599.2
757.772	515.23
757.956	621.73
758.14	511.14
758.323	638.11
758.507	556.19
758.691	531.62
758.875	656.54
759.059	564.39
759.242	533.67
759.426	537.76
759.61	568.48
759.794	556.19
759.977	611.49
760.161	562.34
760.345	597.15
760.528	562.34
760.712	509.09
760.895	552.1
761.079	548
761.263	603.3
761.446	519.33
761.63	464.04
761.813	439.46
761.997	457.89
762.18	492.71
762.364	578.72
762.547	449.7
762.731	580.77
762.914	529.57
763.098	461.99
763.281	527.52
763.464	535.71
763.648	478.37
763.831	556.19
764.015	521.38
764.198	511.14
764.381	494.76
764.564	464.04
764.748	453.8
764.931	488.61
765.114	537.76
765.297	519.33
765.481	470.18
765.664	480.42
765.847	435.36
766.03	492.71
766.213	457.89
766.397	453.8
766.58	459.94
766.763	418.98
766.946	482.47
767.129	507.04
767.312	537.76
767.495	482.47
767.678	490.66
767.861	513.19
768.044	466.08
768.227	445.6
768.41	472.23
768.593	468.13
768.776	535.71
768.959	394.4
769.142	537.76
769.324	392.36
769.507	425.12
769.69	412.84
769.873	441.51
770.056	427.17
770.239	431.27
770.421	441.51
770.604	402.6
770.787	408.74
770.97	496.8
771.152	408.74
771.335	421.03
771.518	412.84
771.7	435.36
771.883	392.36
772.066	388.26
772.248	425.12
772.431	439.46
772.613	392.36
772.796	394.4
772.978	433.32
773.161	398.5
773.343	367.78
773.526	345.25
773.708	341.16
773.891	390.31
774.073	349.35
774.256	410.79
774.438	382.12
774.621	349.35
774.803	457.89
774.985	361.64
775.168	359.59
775.35	404.64
775.532	402.6
775.715	408.74
775.897	384.16
776.079	421.03
776.261	355.49
776.444	339.11
776.626	269.48
776.808	443.56
776.99	300.2
777.173	310.44
777.355	300.2
777.537	349.35
777.719	298.15
777.901	326.82
778.083	339.11
778.265	347.3
778.447	316.58
778.629	337.06
778.811	304.29
778.993	294.05
779.175	302.25
779.357	267.43
779.539	294.05
779.721	259.24
779.903	292.01
780.085	275.62
780.267	287.91
780.449	265.38
780.631	296.1
780.812	382.12
780.994	310.44
781.176	302.25
781.358	304.29
781.54	279.72
781.721	244.9
781.903	322.73
782.085	326.82
782.267	251.05
782.448	296.1
782.63	263.33
782.812	308.39
782.993	335.01
783.175	257.19
783.357	330.92
783.538	320.68
783.72	249
783.901	255.14
784.083	212.14
784.264	267.43
784.446	253.09
784.627	246.95
784.809	185.51
784.99	249
785.172	261.29
785.353	218.28
785.535	255.14
785.716	230.57
785.897	193.7
786.079	265.38
786.26	234.66
786.441	255.14
786.623	269.48
786.804	275.62
786.985	244.9
787.167	281.77
787.348	171.18
787.529	175.27
787.71	249
787.891	246.95
788.073	201.9
788.254	195.75
788.435	222.38
788.616	257.19
788.797	210.09
788.978	193.7
789.159	222.38
789.34	226.47
789.522	171.18
789.703	216.23
789.884	156.84
790.065	191.66
790.246	193.7
790.427	183.46
790.607	203.94
790.788	218.28
790.969	177.32
791.15	187.56
791.331	214.18
791.512	189.61
791.693	169.13
791.874	224.42
792.054	152.74
792.235	160.94
792.416	183.46
792.597	197.8
792.778	185.51
792.958	228.52
793.139	154.79
793.32	107.69
793.5	201.9
793.681	195.75
793.862	62.63
794.042	146.6
794.223	154.79
794.404	150.7
794.584	122.02
794.765	134.31
794.945	156.84
795.126	154.79
795.306	195.75
795.487	222.38
795.667	144.55
795.848	246.95
796.028	128.17
796.209	134.31
796.389	171.18
796.57	83.11
796.75	109.74
796.93	152.74
797.111	177.32
797.291	130.22
797.471	140.46
797.652	105.64
797.832	109.74
798.012	126.12
798.192	146.6
798.373	165.03
798.553	150.7
798.733	124.07
798.913	144.55
799.093	134.31
799.274	175.27
799.454	173.22
799.634	181.42
799.814	195.75
799.994	162.98
800.174	140.46
800.354	89.26
800.534	95.4
800.714	117.93
800.894	158.89
801.074	148.65
801.254	156.84
801.434	154.79
801.614	169.13
801.794	91.31
801.974	380.07
802.154	87.21
802.334	134.31
802.514	115.88
802.693	162.98
802.873	109.74
803.053	197.8
803.233	107.69
803.413	91.31
803.592	85.16
803.772	83.11
803.952	189.61
804.131	203.94
804.311	140.46
804.491	101.55
804.67	158.89
804.85	144.55
805.03	115.88
805.209	31.91
805.389	95.4
805.568	60.59
805.748	70.83
805.928	97.45
806.107	38.06
806.287	150.7
806.466	85.16
806.646	109.74
806.825	109.74
807.004	181.42
807.184	107.69
807.363	64.68
807.543	132.26
807.722	79.02
807.901	160.94
808.081	48.3
808.26	46.25
808.439	97.45
808.619	72.87
808.798	95.4
808.977	95.4
809.156	162.98
809.336	101.55
809.515	109.74
809.694	31.91
809.873	40.11
810.052	87.21
810.231	124.07
810.411	99.5
810.59	122.02
810.769	113.83
810.948	122.02
811.127	52.39
811.306	107.69
811.485	38.06
811.664	124.07
811.843	54.44
812.022	29.87
812.201	95.4
812.38	68.78
812.559	85.16
812.737	138.41
812.916	68.78
813.095	109.74
813.274	117.93
813.453	27.82
813.632	103.59
813.811	138.41
813.989	95.4
814.168	81.07
814.347	40.11
814.526	-7
814.704	138.41
814.883	89.26
815.062	44.2
815.24	117.93
815.419	74.92
815.598	99.5
815.776	109.74
815.955	52.39
816.133	46.25
816.312	68.78
816.49	93.35
816.669	97.45
816.847	85.16
817.026	93.35
817.204	97.45
817.383	103.59
817.561	97.45
817.74	38.06
817.918	79.02
818.097	101.55
818.275	89.26
818.453	74.92
818.632	81.07
818.81	93.35
818.988	54.44
819.167	23.72
819.345	58.54
819.523	21.67
819.701	64.68
819.879	81.07
820.058	62.63
820.236	85.16
820.414	1.19
820.592	44.2
820.77	76.97
820.948	79.02
821.127	11.43
821.305	91.31
821.483	72.87
821.661	89.26
821.839	-25.43
822.017	109.74
822.195	107.69
822.373	64.68
822.551	64.68
822.729	68.78
822.907	54.44
823.085	85.16
823.262	21.67
823.44	54.44
823.618	136.36
823.796	66.73
823.974	9.39
824.152	-2.9
824.329	66.73
824.507	60.59
824.685	99.5
824.863	68.78
825.04	64.68
825.218	40.11
825.396	50.35
825.574	140.46
825.751	56.49
825.929	140.46
826.107	130.22
826.284	138.41
826.462	56.49
826.639	52.39
826.817	15.53
826.994	74.92
827.172	115.88
827.349	126.12
827.527	56.49
827.704	99.5
827.882	5.29
828.059	97.45
828.237	79.02
828.414	58.54
828.591	56.49
828.769	95.4
828.946	83.11
829.124	58.54
829.301	3.24
829.478	99.5
829.655	21.67
829.833	89.26
830.01	11.43
830.187	46.25
830.364	-11.09
830.542	54.44
830.719	36.01
830.896	21.67
831.073	29.87
831.25	93.35
831.427	70.83
831.604	132.26
831.782	103.59
831.959	31.91
832.136	68.78
832.313	27.82
832.49	48.3
832.667	70.83
832.844	13.48
833.021	64.68
833.198	50.35
833.374	7.34
833.551	62.63
833.728	56.49
833.905	101.55
834.082	38.06
834.259	9.39
834.436	60.59
834.612	46.25
834.789	62.63
834.966	81.07
835.143	103.59
835.319	-23.38
835.496	58.54
835.673	3.24
835.85	81.07
836.026	136.36
836.203	-11.09
836.38	101.55
836.556	87.21
836.733	83.11
836.909	68.78
837.086	31.91
837.262	60.59
837.439	105.64
837.616	58.54
837.792	56.49
837.968	50.35
838.145	-27.48
838.321	95.4
838.498	21.67
838.674	7.34
838.851	70.83
839.027	13.48
839.203	72.87
839.38	9.39
839.556	93.35
839.732	25.77
839.909	44.2
840.085	119.98
840.261	-13.14
840.437	23.72
840.614	40.11
840.79	113.83
840.966	70.83
841.142	-23.38
841.318	48.3
841.494	130.22
841.671	11.43
841.847	101.55
842.023	-25.43
842.199	-25.43
842.375	27.82
842.551	17.58
842.727	7.34
842.903	68.78
843.079	-52.05
843.255	56.49
843.431	62.63
843.607	101.55
843.783	40.11
843.959	40.11
844.134	-23.38
844.31	99.5
844.486	79.02
844.662	56.49
844.838	-19.29
845.013	3.24
845.189	54.44
845.365	11.43
845.541	23.72
845.716	70.83
845.892	62.63
846.068	31.91
846.244	-0.85
846.419	64.68
846.595	-62.29
846.77	3.24
846.946	33.96
847.122	76.97
847.297	9.39
847.473	19.63
847.648	31.91
847.824	103.59
847.999	33.96
848.175	-23.38
848.35	87.21
848.526	-60.24
848.701	46.25
848.876	89.26
849.052	-15.19
849.227	99.5
849.403	-31.57
849.578	19.63
849.753	21.67
849.929	70.83
850.104	-47.96
850.279	13.48
850.454	38.06
850.63	27.82
850.805	56.49
850.98	64.68
851.155	33.96
851.33	38.06
851.505	-27.48
851.681	64.68
851.856	54.44
852.031	36.01
852.206	72.87
852.381	68.78
852.556	113.83
852.731	64.68
852.906	15.53
853.081	111.78
853.256	62.63
853.431	1.19
853.606	9.39
853.781	-13.14
853.956	105.64
854.131	52.39
854.305	-15.19
854.48	38.06
854.655	11.43
854.83	36.01
855.005	46.25
855.18	-0.85
855.354	83.11
855.529	60.59
855.704	36.01
855.879	72.87
856.053	79.02
856.228	3.24
856.403	56.49
856.577	5.29
856.752	91.31
856.926	60.59
857.101	68.78
857.276	17.58
857.45	19.63
857.625	60.59
857.799	29.87
857.974	111.78
858.148	-0.85
858.323	52.39
858.497	46.25
858.672	46.25
858.846	46.25
859.02	54.44
859.195	-17.24
859.369	15.53
859.543	38.06
859.718	66.73
859.892	95.4
860.066	27.82
860.241	-41.81
860.415	19.63
860.589	-23.38
860.763	81.07
860.938	7.34
861.112	-23.38
861.286	27.82
861.46	-43.86
861.634	1.19
861.808	-13.14
861.982	74.92
862.157	15.53
862.331	23.72
862.505	95.4
862.679	27.82
862.853	29.87
863.027	62.63
863.201	23.72
863.375	-9.05
863.549	42.15
863.722	48.3
863.896	72.87
864.07	58.54
864.244	-9.05
864.418	25.77
864.592	25.77
864.766	15.53
864.939	83.11
865.113	-7
865.287	107.69
865.461	40.11
865.634	21.67
865.808	31.91
865.982	66.73
866.156	27.82
866.329	15.53
866.503	5.29
866.676	54.44
866.85	105.64
867.024	23.72
867.197	64.68
867.371	-21.33
867.544	19.63
867.718	111.78
867.891	-13.14
868.065	42.15
868.238	42.15
868.412	58.54
868.585	38.06
868.759	66.73
868.932	46.25
869.105	-29.52
869.279	62.63
869.452	-7
869.625	21.67
869.799	38.06
869.972	64.68
870.145	40.11
870.319	-27.48
870.492	93.35
870.665	13.48
870.838	13.48
871.011	-45.91
871.185	27.82
871.358	46.25
871.531	89.26
871.704	23.72
871.877	19.63
872.05	95.4
872.223	5.29
872.396	13.48
872.569	31.91
872.742	15.53
872.915	31.91
873.088	38.06
873.261	-9.05
873.434	-15.19
873.607	-50
873.78	42.15
873.953	27.82
874.126	68.78
874.299	81.07
874.471	-11.09
874.644	119.98
874.817	46.25
874.99	9.39
875.163	52.39
875.335	42.15
875.508	-33.62
875.681	70.83
875.853	15.53
876.026	-4.95
876.199	-0.85
876.371	13.48
876.544	33.96
876.717	-9.05
876.889	33.96
877.062	111.78
877.234	29.87
877.407	-17.24
877.579	13.48
877.752	-31.57
877.924	79.02
878.097	44.2
878.269	56.49
878.442	25.77
878.614	-23.38
878.786	27.82
878.959	3.24
879.131	46.25
879.303	-7
879.476	-21.33
879.648	40.11
879.82	36.01
879.993	-7
880.165	56.49
880.337	-45.91
880.509	25.77
880.681	50.35
880.854	1.19
881.026	15.53
881.198	105.64
881.37	-50
881.542	64.68
881.714	66.73
881.886	-7
882.058	38.06
882.23	85.16
882.402	-2.9
882.574	91.31
882.746	52.39
882.918	27.82
883.09	-39.76
883.262	36.01
883.434	5.29
883.606	17.58
883.778	36.01
883.95	29.87
884.122	70.83
884.293	-4.95
884.465	29.87
884.637	70.83
884.809	27.82
884.98	29.87
885.152	-58.2
885.324	40.11
885.496	33.96
885.667	-19.29
885.839	-2.9
886.011	74.92
886.182	-17.24
886.354	50.35
886.525	-9.05
886.697	44.2
886.869	7.34
887.04	54.44
887.212	-0.85
887.383	74.92
887.555	15.53
887.726	29.87
887.897	-50
888.069	62.63
888.24	3.24
888.412	-50
888.583	3.24
888.754	-13.14
888.926	-21.33
889.097	31.91
889.268	9.39
889.44	7.34
889.611	68.78
889.782	91.31
889.953	93.35
890.125	56.49
890.296	-19.29
890.467	-25.43
890.638	85.16
890.809	-13.14
890.98	79.02
891.151	29.87
891.323	54.44
891.494	3.24
891.665	1.19
891.836	17.58
892.007	36.01
892.178	-7
892.349	66.73
892.52	79.02
892.691	15.53
892.862	124.07
893.032	11.43
893.203	-7
893.374	19.63
893.545	48.3
893.716	13.48
893.887	44.2
894.057	62.63
894.228	5.29
894.399	19.63
894.57	-11.09
894.74	5.29
894.911	48.3
895.082	50.35
895.253	-23.38
895.423	21.67
895.594	48.3
895.764	70.83
895.935	-17.24
896.106	33.96
896.276	64.68
896.447	48.3
896.617	11.43
896.788	-15.19
896.958	81.07
897.129	79.02
897.299	70.83
897.47	58.54
897.64	97.45
897.81	-27.48
897.981	81.07
898.151	99.5
898.322	46.25
898.492	36.01
898.662	48.3
898.832	54.44
899.003	13.48
899.173	21.67
899.343	-0.85
899.513	-15.19
