Data from USB4F104151__126__13-57-57-118.txt Node

Date: Thu Mar 13 13:57:57 EDT 2025
User: louis
Spectrometer: USB4F10415
Trigger mode: 4
Integration Time (sec): 1.000000E-2
Scans to average: 1
Electric dark correction enabled: true
Nonlinearity correction enabled: false
Boxcar width: 0
XAxis mode: Wavelengths
Number of Pixels in Spectrum: 3648
>>>>>Begin Spectral Data<<<<<
178.204	-10.92
178.424	-10.92
178.644	-10.92
178.864	-119.46
179.084	-62.12
179.304	-19.11
179.524	44.37
179.744	-21.16
179.964	19.8
180.184	-19.11
180.404	3.41
180.624	17.75
180.844	30.04
181.064	21.85
181.283	7.51
181.503	-64.17
181.723	-21.16
181.943	-72.36
182.163	85.33
182.383	36.18
182.602	19.8
182.822	-6.83
183.042	-37.55
183.262	3.41
183.482	-55.98
183.701	48.47
183.921	60.76
184.141	-19.11
184.361	32.08
184.58	66.9
184.8	-27.31
185.02	27.99
185.239	107.86
185.459	27.99
185.679	58.71
185.898	-6.83
186.118	17.75
186.338	-8.87
186.557	27.99
186.777	52.56
186.997	52.56
187.216	17.75
187.436	1.37
187.655	-8.87
187.875	-10.92
188.095	13.65
188.314	-2.73
188.534	-29.35
188.753	95.57
188.973	60.76
189.192	44.37
189.412	103.76
189.631	89.43
189.851	3.41
190.07	15.7
190.29	27.99
190.509	17.75
190.729	71
190.948	25.94
191.168	66.9
191.387	15.7
191.607	34.13
191.826	62.8
192.045	60.76
192.265	11.61
192.484	75.09
192.704	-2.73
192.923	56.66
193.142	27.99
193.362	21.85
193.581	17.75
193.8	91.48
194.02	66.9
194.239	-10.92
194.458	52.56
194.678	15.7
194.897	9.56
195.116	9.56
195.335	66.9
195.555	32.08
195.774	50.52
195.993	107.86
196.212	17.75
196.432	34.13
196.651	-6.83
196.87	-6.83
197.089	56.66
197.308	5.46
197.528	38.23
197.747	-0.68
197.966	66.9
198.185	-4.78
198.404	50.52
198.623	-47.79
198.842	85.33
199.062	11.61
199.281	42.32
199.5	-12.97
199.719	17.75
199.938	68.95
200.157	91.48
200.376	54.61
200.595	23.89
200.814	-4.78
201.033	1.37
201.252	75.09
201.471	-4.78
201.69	-12.97
201.909	-2.73
202.128	-12.97
202.347	3.41
202.566	91.48
202.785	-15.02
203.004	11.61
203.223	95.57
203.442	30.04
203.661	52.56
203.879	52.56
204.098	-29.35
204.317	-8.87
204.536	9.56
204.755	68.95
204.974	15.7
205.193	-10.92
205.411	71
205.63	-6.83
205.849	32.08
206.068	-39.59
206.287	71
206.505	60.76
206.724	25.94
206.943	15.7
207.162	79.19
207.381	36.18
207.599	-0.68
207.818	13.65
208.037	68.95
208.255	-17.07
208.474	11.61
208.693	1.37
208.911	-31.4
209.13	17.75
209.349	21.85
209.567	79.19
209.786	48.47
210.005	48.47
210.223	-29.35
210.442	38.23
210.661	50.52
210.879	-0.68
211.098	52.56
211.316	40.28
211.535	21.85
211.753	25.94
211.972	9.56
212.191	27.99
212.409	34.13
212.628	154.96
212.846	-10.92
213.065	50.52
213.283	58.71
213.502	5.46
213.72	36.18
213.938	-10.92
214.157	77.14
214.375	36.18
214.594	42.32
214.812	-47.79
215.031	81.24
215.249	64.85
215.467	71
215.686	-10.92
215.904	36.18
216.122	87.38
216.341	73.04
216.559	-0.68
216.778	66.9
216.996	27.99
217.214	3.41
217.432	-53.93
217.651	58.71
217.869	-19.11
218.087	19.8
218.306	40.28
218.524	50.52
218.742	89.43
218.96	5.46
219.179	-60.07
219.397	-29.35
219.615	54.61
219.833	77.14
220.051	77.14
220.27	58.71
220.488	62.8
220.706	-55.98
220.924	9.56
221.142	75.09
221.36	19.8
221.578	34.13
221.796	-19.11
222.015	27.99
222.233	21.85
222.451	71
222.669	62.8
222.887	34.13
223.105	34.13
223.323	30.04
223.541	19.8
223.759	-2.73
223.977	11.61
224.195	34.13
224.413	-33.45
224.631	83.28
224.849	17.75
225.067	46.42
225.285	-8.87
225.503	-17.07
225.721	34.13
225.939	60.76
226.157	68.95
226.375	95.57
226.592	-51.88
226.81	44.37
227.028	-25.26
227.246	5.46
227.464	71
227.682	44.37
227.9	27.99
228.117	73.04
228.335	89.43
228.553	21.85
228.771	-37.55
228.989	9.56
229.206	64.85
229.424	52.56
229.642	25.94
229.86	17.75
230.077	15.7
230.295	-12.97
230.513	34.13
230.731	44.37
230.948	21.85
231.166	46.42
231.384	66.9
231.601	21.85
231.819	56.66
232.037	-0.68
232.254	19.8
232.472	-21.16
232.689	107.86
232.907	56.66
233.125	27.99
233.342	-10.92
233.56	9.56
233.777	19.8
233.995	79.19
234.213	93.52
234.43	25.94
234.648	46.42
234.865	44.37
235.083	36.18
235.3	71
235.518	36.18
235.735	-4.78
235.953	62.8
236.17	66.9
236.388	13.65
236.605	3.41
236.822	116.05
237.04	52.56
237.257	7.51
237.475	23.89
237.692	-12.97
237.909	-15.02
238.127	50.52
238.344	56.66
238.562	-10.92
238.779	-8.87
238.996	79.19
239.214	-4.78
239.431	17.75
239.648	-49.83
239.865	13.65
240.083	75.09
240.3	-0.68
240.517	25.94
240.735	48.47
240.952	85.33
241.169	21.85
241.386	-8.87
241.603	25.94
241.821	62.8
242.038	40.28
242.255	34.13
242.472	23.89
242.689	83.28
242.907	15.7
243.124	1.37
243.341	-35.5
243.558	3.41
243.775	54.61
243.992	21.85
244.209	19.8
244.426	56.66
244.643	62.8
244.86	60.76
245.078	15.7
245.295	-8.87
245.512	42.32
245.729	27.99
245.946	54.61
246.163	19.8
246.38	7.51
246.597	-10.92
246.814	19.8
247.031	79.19
247.248	58.71
247.464	75.09
247.681	32.08
247.898	58.71
248.115	38.23
248.332	66.9
248.549	101.72
248.766	-2.73
248.983	44.37
249.2	64.85
249.417	-0.68
249.633	-15.02
249.85	-43.69
250.067	-33.45
250.284	-10.92
250.501	46.42
250.717	54.61
250.934	-2.73
251.151	-41.64
251.368	56.66
251.585	13.65
251.801	-4.78
252.018	-10.92
252.235	66.9
252.451	-29.35
252.668	11.61
252.885	5.46
253.102	32.08
253.318	23.89
253.535	48.47
253.752	21.85
253.968	42.32
254.185	-15.02
254.401	3.41
254.618	13.65
254.835	48.47
255.051	34.13
255.268	21.85
255.484	30.04
255.701	42.32
255.917	30.04
256.134	-37.55
256.351	30.04
256.567	97.62
256.784	15.7
257	60.76
257.217	13.65
257.433	56.66
257.65	56.66
257.866	19.8
258.082	13.65
258.299	-15.02
258.515	99.67
258.732	-33.45
258.948	48.47
259.165	30.04
259.381	109.91
259.597	68.95
259.814	23.89
260.03	7.51
260.246	93.52
260.463	9.56
260.679	75.09
260.895	23.89
261.112	56.66
261.328	13.65
261.544	62.8
261.761	122.2
261.977	52.56
262.193	40.28
262.409	58.71
262.626	5.46
262.842	11.61
263.058	-2.73
263.274	56.66
263.49	-51.88
263.707	79.19
263.923	75.09
264.139	-2.73
264.355	1.37
264.571	17.75
264.787	-8.87
265.004	27.99
265.22	32.08
265.436	42.32
265.652	23.89
265.868	58.71
266.084	15.7
266.3	-49.83
266.516	48.47
266.732	71
266.948	21.85
267.164	52.56
267.38	56.66
267.596	36.18
267.812	17.75
268.028	58.71
268.244	54.61
268.46	66.9
268.676	50.52
268.892	30.04
269.108	1.37
269.324	52.56
269.54	17.75
269.756	75.09
269.972	-45.74
270.188	81.24
270.403	93.52
270.619	40.28
270.835	34.13
271.051	62.8
271.267	68.95
271.483	21.85
271.698	-10.92
271.914	38.23
272.13	46.42
272.346	15.7
272.562	9.56
272.777	5.46
272.993	13.65
273.209	52.56
273.425	48.47
273.64	58.71
273.856	42.32
274.072	58.71
274.287	-8.87
274.503	105.81
274.719	19.8
274.934	1.37
275.15	46.42
275.366	11.61
275.581	30.04
275.797	50.52
276.012	-39.59
276.228	38.23
276.444	54.61
276.659	13.65
276.875	75.09
277.09	68.95
277.306	13.65
277.521	15.7
277.737	50.52
277.952	25.94
278.168	60.76
278.383	93.52
278.599	58.71
278.814	-8.87
279.03	64.85
279.245	9.56
279.461	-4.78
279.676	-4.78
279.892	-23.21
280.107	83.28
280.322	77.14
280.538	27.99
280.753	-35.5
280.969	62.8
281.184	66.9
281.399	97.62
281.615	68.95
281.83	79.19
282.045	-33.45
282.26	60.76
282.476	23.89
282.691	30.04
282.906	56.66
283.122	11.61
283.337	-10.92
283.552	25.94
283.767	-47.79
283.983	50.52
284.198	-6.83
284.413	71
284.628	19.8
284.843	42.32
285.058	50.52
285.274	46.42
285.489	58.71
285.704	44.37
285.919	68.95
286.134	36.18
286.349	9.56
286.564	54.61
286.779	27.99
286.995	5.46
287.21	66.9
287.425	66.9
287.64	73.04
287.855	-6.83
288.07	13.65
288.285	52.56
288.5	32.08
288.715	89.43
288.93	11.61
289.145	99.67
289.36	83.28
289.575	50.52
289.79	58.71
290.004	54.61
290.219	23.89
290.434	-4.78
290.649	25.94
290.864	77.14
291.079	114
291.294	-4.78
291.509	44.37
291.724	-8.87
291.938	23.89
292.153	11.61
292.368	3.41
292.583	60.76
292.798	21.85
293.012	83.28
293.227	30.04
293.442	30.04
293.657	-2.73
293.871	58.71
294.086	85.33
294.301	66.9
294.516	30.04
294.73	23.89
294.945	5.46
295.16	13.65
295.374	44.37
295.589	99.67
295.804	-6.83
296.018	114
296.233	60.76
296.447	-19.11
296.662	15.7
296.877	30.04
297.091	5.46
297.306	-12.97
297.52	89.43
297.735	66.9
297.949	19.8
298.164	34.13
298.378	71
298.593	48.47
298.807	-6.83
299.022	11.61
299.236	62.8
299.451	36.18
299.665	42.32
299.88	126.29
300.094	54.61
300.309	62.8
300.523	25.94
300.737	-4.78
300.952	21.85
301.166	91.48
301.381	60.76
301.595	58.71
301.809	3.41
302.024	11.61
302.238	52.56
302.452	19.8
302.667	32.08
302.881	21.85
303.095	85.33
303.309	66.9
303.524	25.94
303.738	56.66
303.952	32.08
304.166	109.91
304.381	32.08
304.595	58.71
304.809	56.66
305.023	-19.11
305.237	73.04
305.452	-12.97
305.666	9.56
305.88	34.13
306.094	-23.21
306.308	138.58
306.522	68.95
306.736	13.65
306.95	50.52
307.164	66.9
307.379	46.42
307.593	83.28
307.807	40.28
308.021	19.8
308.235	79.19
308.449	101.72
308.663	-41.64
308.877	85.33
309.091	17.75
309.305	23.89
309.519	1.37
309.733	93.52
309.947	13.65
310.161	44.37
310.374	56.66
310.588	64.85
310.802	60.76
311.016	-29.35
311.23	-8.87
311.444	124.24
311.658	32.08
311.872	27.99
312.085	1.37
312.299	60.76
312.513	19.8
312.727	-0.68
312.941	32.08
313.154	25.94
313.368	-43.69
313.582	62.8
313.796	91.48
314.009	122.2
314.223	-35.5
314.437	19.8
314.651	11.61
314.864	-21.16
315.078	11.61
315.292	58.71
315.505	36.18
315.719	83.28
315.933	87.38
316.146	46.42
316.36	17.75
316.573	116.05
316.787	3.41
317.001	75.09
317.214	54.61
317.428	-43.69
317.641	-10.92
317.855	95.57
318.068	11.61
318.282	52.56
318.495	118.1
318.709	58.71
318.922	21.85
319.136	87.38
319.349	60.76
319.563	25.94
319.776	58.71
319.99	23.89
320.203	13.65
320.417	17.75
320.63	48.47
320.843	62.8
321.057	-51.88
321.27	42.32
321.483	38.23
321.697	136.53
321.91	32.08
322.124	91.48
322.337	-4.78
322.55	13.65
322.763	107.86
322.977	-12.97
323.19	5.46
323.403	23.89
323.617	73.04
323.83	85.33
324.043	32.08
324.256	11.61
324.469	30.04
324.683	54.61
324.896	-25.26
325.109	50.52
325.322	46.42
325.535	97.62
325.748	56.66
325.962	97.62
326.175	44.37
326.388	15.7
326.601	1.37
326.814	15.7
327.027	68.95
327.24	58.71
327.453	-12.97
327.666	1.37
327.879	66.9
328.092	34.13
328.305	-8.87
328.518	50.52
328.731	109.91
328.944	71
329.157	91.48
329.37	46.42
329.583	44.37
329.796	-12.97
330.009	62.8
330.222	116.05
330.435	95.57
330.648	38.23
330.861	-23.21
331.073	58.71
331.286	83.28
331.499	15.7
331.712	-47.79
331.925	111.96
332.138	52.56
332.35	25.94
332.563	-0.68
332.776	101.72
332.989	-12.97
333.202	36.18
333.414	54.61
333.627	44.37
333.84	32.08
334.053	32.08
334.265	54.61
334.478	48.47
334.691	-0.68
334.903	36.18
335.116	25.94
335.329	85.33
335.541	81.24
335.754	46.42
335.966	75.09
336.179	-6.83
336.392	60.76
336.604	13.65
336.817	-37.55
337.029	52.56
337.242	-29.35
337.454	52.56
337.667	38.23
337.88	48.47
338.092	95.57
338.305	116.05
338.517	36.18
338.729	44.37
338.942	17.75
339.154	-4.78
339.367	-23.21
339.579	124.24
339.792	64.85
340.004	27.99
340.217	-12.97
340.429	36.18
340.641	42.32
340.854	44.37
341.066	64.85
341.278	52.56
341.491	40.28
341.703	97.62
341.915	17.75
342.128	9.56
342.34	60.76
342.552	71
342.764	11.61
342.977	52.56
343.189	36.18
343.401	44.37
343.613	36.18
343.826	75.09
344.038	79.19
344.25	99.67
344.462	9.56
344.674	40.28
344.886	-15.02
345.099	42.32
345.311	105.81
345.523	-8.87
345.735	66.9
345.947	124.24
346.159	44.37
346.371	42.32
346.583	44.37
346.795	91.48
347.007	34.13
347.219	91.48
347.431	71
347.643	38.23
347.855	19.8
348.067	83.28
348.279	60.76
348.491	19.8
348.703	25.94
348.915	36.18
349.127	9.56
349.339	15.7
349.551	58.71
349.763	83.28
349.975	-0.68
350.187	142.68
350.399	87.38
350.61	66.9
350.822	27.99
351.034	83.28
351.246	21.85
351.458	52.56
351.669	9.56
351.881	9.56
352.093	85.33
352.305	21.85
352.517	36.18
352.728	40.28
352.94	58.71
353.152	109.91
353.363	-4.78
353.575	132.44
353.787	93.52
353.999	-2.73
354.21	-45.74
354.422	66.9
354.633	54.61
354.845	64.85
355.057	93.52
355.268	109.91
355.48	-23.21
355.692	5.46
355.903	60.76
356.115	36.18
356.326	48.47
356.538	52.56
356.749	-12.97
356.961	46.42
357.172	40.28
357.384	5.46
357.595	15.7
357.807	62.8
358.018	13.65
358.23	-6.83
358.441	138.58
358.653	9.56
358.864	71
359.075	46.42
359.287	66.9
359.498	68.95
359.709	-4.78
359.921	-10.92
360.132	34.13
360.344	97.62
360.555	32.08
360.766	64.85
360.977	114
361.189	36.18
361.4	66.9
361.611	-2.73
361.823	79.19
362.034	140.63
362.245	62.8
362.456	-19.11
362.667	23.89
362.879	-17.07
363.09	-15.02
363.301	64.85
363.512	3.41
363.723	30.04
363.935	66.9
364.146	60.76
364.357	79.19
364.568	66.9
364.779	89.43
364.99	126.29
365.201	25.94
365.412	34.13
365.623	-29.35
365.834	62.8
366.045	73.04
366.256	27.99
366.467	54.61
366.678	19.8
366.889	36.18
367.1	32.08
367.311	9.56
367.522	91.48
367.733	77.14
367.944	79.19
368.155	99.67
368.366	34.13
368.577	56.66
368.788	132.44
368.999	27.99
369.209	85.33
369.42	3.41
369.631	73.04
369.842	48.47
370.053	44.37
370.264	34.13
370.474	56.66
370.685	54.61
370.896	13.65
371.107	25.94
371.317	42.32
371.528	71
371.739	42.32
371.95	7.51
372.16	5.46
372.371	79.19
372.582	77.14
372.792	77.14
373.003	21.85
373.214	50.52
373.424	64.85
373.635	62.8
373.846	118.1
374.056	81.24
374.267	46.42
374.477	38.23
374.688	-12.97
374.898	-31.4
375.109	7.51
375.319	71
375.53	38.23
375.74	48.47
375.951	62.8
376.161	85.33
376.372	9.56
376.582	1.37
376.793	77.14
377.003	-25.26
377.214	34.13
377.424	17.75
377.635	19.8
377.845	62.8
378.055	21.85
378.266	52.56
378.476	73.04
378.686	109.91
378.897	64.85
379.107	42.32
379.317	62.8
379.528	38.23
379.738	73.04
379.948	30.04
380.158	73.04
380.369	75.09
380.579	42.32
380.789	91.48
380.999	75.09
381.21	52.56
381.42	109.91
381.63	-31.4
381.84	85.33
382.05	1.37
382.261	54.61
382.471	89.43
382.681	56.66
382.891	-29.35
383.101	64.85
383.311	9.56
383.521	93.52
383.731	42.32
383.941	66.9
384.151	75.09
384.361	23.89
384.571	118.1
384.781	87.38
384.991	54.61
385.201	54.61
385.411	50.52
385.621	60.76
385.831	42.32
386.041	60.76
386.251	105.81
386.461	73.04
386.671	64.85
386.881	19.8
387.091	48.47
387.301	48.47
387.511	21.85
387.72	11.61
387.93	50.52
388.14	9.56
388.35	120.15
388.56	75.09
388.769	75.09
388.979	75.09
389.189	42.32
389.399	97.62
389.609	62.8
389.818	79.19
390.028	48.47
390.238	75.09
390.447	30.04
390.657	103.76
390.867	7.51
391.076	62.8
391.286	99.67
391.496	52.56
391.705	9.56
391.915	48.47
392.125	27.99
392.334	114
392.544	109.91
392.753	15.7
392.963	118.1
393.172	101.72
393.382	83.28
393.591	46.42
393.801	3.41
394.01	142.68
394.22	68.95
394.429	34.13
394.639	111.96
394.848	95.57
395.058	46.42
395.267	99.67
395.477	75.09
395.686	25.94
395.895	134.48
396.105	50.52
396.314	56.66
396.524	89.43
396.733	99.67
396.942	89.43
397.152	25.94
397.361	152.91
397.57	118.1
397.78	161.11
397.989	114
398.198	60.76
398.407	148.82
398.617	134.48
398.826	64.85
399.035	152.91
399.244	144.72
399.453	71
399.663	118.1
399.872	64.85
400.081	71
400.29	101.72
400.499	30.04
400.708	167.25
400.917	15.7
401.127	87.38
401.336	120.15
401.545	142.68
401.754	66.9
401.963	85.33
402.172	85.33
402.381	58.71
402.59	107.86
402.799	154.96
403.008	120.15
403.217	101.72
403.426	159.06
403.635	134.48
403.844	157.01
404.053	126.29
404.262	38.23
404.471	183.63
404.68	130.39
404.888	136.53
405.097	60.76
405.306	91.48
405.515	126.29
405.724	105.81
405.933	185.68
406.142	124.24
406.35	136.53
406.559	159.06
406.768	222.55
406.977	204.11
407.185	167.25
407.394	238.93
407.603	222.55
407.812	214.35
408.02	161.11
408.229	185.68
408.438	167.25
408.646	200.02
408.855	157.01
409.064	263.51
409.272	251.22
409.481	273.75
409.69	251.22
409.898	251.22
410.107	384.34
410.315	228.69
410.524	283.99
410.733	296.27
410.941	398.67
411.15	306.51
411.358	314.7
411.567	363.86
411.775	333.14
411.984	382.29
412.192	351.57
412.401	460.11
412.609	376.14
412.818	423.25
413.026	441.68
413.234	445.77
413.443	456.01
413.651	427.34
413.86	511.31
414.068	566.6
414.276	523.6
414.485	562.51
414.693	513.36
414.901	552.27
415.11	615.76
415.318	605.52
415.526	599.37
415.734	718.15
415.943	730.44
416.151	679.24
416.359	689.48
416.567	795.98
416.776	857.42
416.984	804.17
417.192	877.9
417.4	898.38
417.608	838.98
417.817	888.14
418.025	951.62
418.233	1013.06
418.441	935.24
418.649	978.25
418.857	1142.08
419.065	1068.36
419.273	1054.02
419.481	1125.7
419.689	1258.82
419.897	1236.29
420.105	1340.74
420.313	1289.54
420.521	1353.02
420.729	1355.07
420.937	1566.01
421.145	1393.98
421.353	1590.59
421.561	1668.41
421.769	1664.32
421.977	1686.84
422.185	1799.48
422.393	1799.48
422.601	1965.37
422.809	2041.14
423.017	1953.08
423.224	2135.35
423.432	2127.16
423.64	2180.4
423.848	2331.95
424.056	2276.66
424.263	2450.74
424.471	2528.56
424.679	2497.84
424.887	2645.29
425.094	2577.71
425.302	2665.77
425.51	2712.88
425.718	2929.96
425.925	2905.38
426.133	3079.46
426.341	3265.83
426.548	3335.46
426.756	3388.71
426.964	3390.75
427.171	3607.84
427.379	3753.24
427.586	3775.77
427.794	3833.11
428.001	4009.24
428.209	4152.6
428.417	4199.7
428.624	4560.14
428.832	4556.05
429.039	4472.08
429.247	4439.31
429.454	4824.33
429.662	5106.95
429.869	4885.77
430.076	5135.62
430.284	4877.58
430.491	5211.4
430.699	5489.92
430.906	5453.06
431.114	5455.11
431.321	5790.97
431.528	5887.23
431.736	6268.15
431.943	6503.67
432.15	6370.55
432.358	6460.66
432.565	6745.33
432.772	6925.55
432.979	7101.67
433.187	7210.22
433.394	7152.87
433.601	7910.62
433.808	7818.46
434.016	7744.74
434.223	7976.16
434.43	8627.41
434.637	8447.19
434.844	8934.6
435.052	9223.37
435.259	9039.05
435.466	9002.19
435.673	9043.15
435.88	9530.56
436.087	10091.71
436.294	10040.51
436.501	9931.97
436.708	10339.51
436.915	10376.38
437.122	10798.26
437.329	10687.67
437.537	11144.36
437.743	11416.74
437.95	11443.37
438.157	11900.06
438.364	12336.28
438.571	12393.62
438.778	12326.04
438.985	13311.11
439.192	12883.09
439.399	13405.32
439.606	12983.44
439.813	13720.71
440.02	14615.67
440.227	14447.74
440.433	14279.8
440.64	14756.98
440.847	14523.51
441.054	14982.26
441.261	15979.62
441.467	15447.15
441.674	15801.44
441.881	16438.36
442.088	16475.23
442.294	16327.77
442.501	16708.69
442.708	17114.19
442.914	17593.42
443.121	18598.97
443.328	18103.36
443.534	19463.21
443.741	19094.58
443.948	18615.35
444.154	20026.4
444.361	19700.78
444.568	19999.78
444.774	20145.19
444.981	20200.48
445.187	20837.4
445.394	21705.74
445.6	21445.65
445.807	23356.4
446.013	22160.39
446.22	22694.91
446.426	23647.21
446.633	23843.82
446.839	24425.44
447.046	23426.03
447.252	25043.93
447.459	25029.59
447.665	24742.88
447.871	25686.99
448.078	26833.85
448.284	25777.1
448.491	26575.81
448.697	27255.73
448.903	27605.94
449.11	28062.63
449.316	27517.87
449.522	28304.29
449.728	28916.64
449.935	29062.04
450.141	28904.35
450.347	29621.14
450.553	28597.15
450.76	29094.81
450.966	29926.28
451.172	29741.97
451.378	30385.03
451.584	29660.05
451.791	30303.11
451.997	30432.13
452.203	31005.56
452.409	30757.76
452.615	30724.99
452.821	29772.69
453.027	29268.89
453.233	30641.03
453.44	29504.4
453.646	30057.35
453.852	30043.02
454.058	30722.94
454.264	29565.84
454.47	30198.66
454.676	29246.36
454.882	30444.42
455.088	27737.01
455.294	28079.02
455.5	28918.68
455.705	28908.44
455.911	27861.93
456.117	27292.6
456.323	27018.17
456.529	25209.81
456.735	26756.03
456.941	25740.24
457.147	25334.74
457.352	25037.78
457.558	24605.66
457.764	24349.67
457.97	23940.07
458.176	23100.4
458.381	23383.02
458.587	22371.33
458.793	22434.81
458.999	21341.2
459.204	22936.57
459.41	22217.73
459.616	20859.93
459.821	20620.31
460.027	20771.86
460.233	20014.12
460.438	19043.38
460.644	19377.2
460.85	18744.38
461.055	18152.51
461.261	17964.1
461.466	16837.72
461.672	16215.13
461.878	17540.17
462.083	16118.88
462.289	16163.93
462.494	15944.8
462.7	15062.13
462.905	14625.91
463.111	15613.03
463.316	15203.44
463.522	14904.43
463.727	15058.03
463.932	14822.52
464.138	14771.32
464.343	14978.16
464.549	14322.81
464.754	14742.64
464.959	14974.06
465.165	14842.99
465.37	14079.1
465.575	13833.35
465.781	14357.63
465.986	14374.01
466.191	13997.18
466.397	13577.35
466.602	12946.58
466.807	13489.29
467.012	13321.35
467.218	13272.2
467.423	13335.69
467.628	13325.45
467.833	13712.52
468.038	13239.44
468.244	12727.44
468.449	13485.19
468.654	12809.36
468.859	12883.09
469.064	12887.18
469.269	12381.34
469.474	12455.06
469.679	12655.76
469.885	12264.6
470.09	12305.56
470.295	12541.08
470.5	11863.2
470.705	12182.68
470.91	11957.41
471.115	12018.85
471.32	12035.23
471.525	11922.59
471.73	11558.05
471.935	11519.14
472.139	11248.81
472.344	11250.86
472.549	11074.73
472.754	11052.2
472.959	10925.23
473.164	10585.27
473.369	10378.42
473.574	10771.63
473.778	10749.11
473.983	10587.32
474.188	10523.83
474.393	10245.3
474.598	10335.42
474.802	9981.12
475.007	10022.08
475.212	9999.55
475.417	9804.99
475.621	9671.87
475.826	9721.02
476.031	9546.95
476.235	9301.19
476.44	9606.34
476.645	9493.7
476.849	9321.67
477.054	9008.33
477.259	9010.38
477.463	9049.29
477.668	8905.93
477.872	8975.56
478.077	8844.49
478.282	8645.84
478.486	8680.66
478.691	8465.62
478.895	8430.8
479.1	8492.24
479.304	8291.54
479.509	8293.59
479.713	8303.83
479.918	8125.66
480.122	7988.44
480.326	8232.15
480.531	8246.49
480.735	8021.21
480.94	7976.16
481.144	8293.59
481.348	7716.06
481.553	7967.96
481.757	7750.88
481.961	7808.22
482.166	7857.37
482.37	8008.92
482.574	7660.77
482.778	7683.3
482.983	8041.69
483.187	7906.52
483.391	7953.63
483.595	7789.79
483.8	7501.03
484.004	7681.25
484.208	7865.57
484.412	7605.47
484.616	7724.26
484.821	7945.44
485.025	7574.75
485.229	7791.84
485.433	7853.28
485.637	7830.75
485.841	7623.9
486.045	7636.19
486.249	7650.53
486.453	7517.41
486.657	7754.97
486.861	7857.37
487.065	7591.14
487.269	7699.68
487.473	7529.7
487.677	7922.91
487.881	7800.03
488.085	7783.65
488.289	7746.78
488.493	7728.35
488.697	8000.73
488.901	7787.74
489.105	7824.61
489.309	7830.75
489.512	7912.67
489.716	7838.94
489.92	7927
490.124	7660.77
490.328	7879.9
490.531	7871.71
490.735	7922.91
490.939	7933.15
491.143	8000.73
491.346	8004.83
491.55	8111.32
491.754	8086.75
491.958	7937.24
492.161	8049.88
492.365	8189.14
492.569	8189.14
492.772	8131.8
492.976	8113.37
493.18	8160.47
493.383	8312.02
493.587	8297.69
493.79	8455.38
493.994	8125.66
494.197	8402.13
494.401	8568.02
494.605	8525.01
494.808	8611.03
495.012	8746.19
495.215	8860.88
495.419	8893.65
495.622	8989.9
495.825	9026.76
496.029	8955.08
496.232	9200.84
496.436	9147.59
496.639	9579.72
496.843	9389.25
497.046	9616.58
497.249	9825.47
497.453	9671.87
497.656	9835.71
497.859	9774.27
498.063	9944.25
498.266	10210.49
498.469	10151.1
498.673	10144.95
498.876	10351.8
499.079	10572.98
499.282	10742.96
499.485	10740.91
499.689	10636.47
499.892	11031.72
500.095	11076.78
500.298	11232.43
500.501	11142.32
500.705	11353.26
500.908	11476.13
501.111	11674.79
501.314	11791.52
501.517	12022.94
501.72	12053.66
501.923	12280.99
502.126	12522.65
502.329	12741.78
502.532	12653.72
502.735	12995.73
502.938	12983.44
503.141	12979.34
503.344	13509.77
503.547	13395.08
503.75	13610.12
503.953	13837.44
504.156	13933.7
504.359	14148.73
504.562	14279.8
504.765	14466.17
504.968	14648.44
505.17	14730.36
505.373	14791.8
505.576	15142
505.779	15348.84
505.982	15498.34
506.185	15658.09
506.387	15666.28
506.59	15643.75
506.793	16311.39
506.996	15967.33
507.198	16778.33
507.401	16833.62
507.604	16936.02
507.807	17179.73
508.009	17362
508.212	17196.11
508.415	17466.44
508.617	17794.12
508.82	17851.46
509.022	18154.56
509.225	18287.68
509.428	18615.35
509.63	18750.52
509.833	18973.75
510.035	19139.63
510.238	19168.3
510.44	19690.54
510.643	20108.32
510.845	19969.06
511.048	20122.66
511.25	20605.98
511.453	20671.51
511.655	21382.16
511.858	21210.13
512.06	21265.42
512.262	21713.93
512.465	21619.72
512.667	21926.92
512.87	22236.16
513.072	22107.14
513.274	23090.17
513.477	22922.23
513.679	23006.2
513.881	23276.53
514.084	23981.03
514.286	23852.01
514.488	24021.99
514.69	24673.24
514.893	24880.09
515.095	24949.72
515.297	24962.01
515.499	25496.53
515.701	25807.82
515.904	25863.11
516.106	26172.36
516.308	26387.39
516.51	26368.96
516.712	26919.87
516.914	27210.68
517.116	27714.48
517.318	27648.94
517.52	28122.02
517.722	28023.72
517.925	28877.72
518.127	28781.47
518.329	29211.54
518.531	29223.83
518.733	29563.79
518.935	29965.2
519.136	29606.8
519.338	30503.81
519.54	30663.55
519.742	31071.1
519.944	30892.93
520.146	31380.34
520.348	31691.63
520.55	31949.68
520.752	32017.26
520.954	32645.99
521.155	32387.94
521.357	32955.23
521.559	33526.61
521.761	33708.88
521.963	33547.09
522.164	34083.66
522.366	33708.88
522.568	34472.78
522.77	34890.56
522.971	35568.44
523.173	34880.32
523.375	35201.85
523.576	35265.34
523.778	35777.33
523.98	35947.31
524.181	36076.33
524.383	36164.4
524.584	36739.88
524.786	36520.74
524.988	36678.44
525.189	36881.19
525.391	37454.62
525.592	37735.19
525.794	37856.02
525.995	38030.1
526.197	38054.67
526.398	38007.57
526.6	38419.21
526.801	38624.01
527.003	39033.6
527.204	38716.17
527.406	39052.03
527.607	39191.3
527.808	39447.29
528.01	39088.9
528.211	39363.32
528.412	40000.24
528.614	39578.36
528.815	39936.76
529.016	40157.94
529.218	40260.33
529.419	40151.79
529.62	40538.86
529.822	40325.87
530.023	40338.16
530.224	40495.85
530.425	40549.1
530.626	40565.48
530.828	40700.65
531.029	41442.01
531.23	40907.49
531.431	41196.26
531.632	41128.67
531.833	41108.19
532.035	41202.4
532.236	41284.32
532.437	41513.69
532.638	41179.87
532.839	41808.6
533.04	41624.28
533.241	41181.92
533.442	41884.37
533.643	41566.94
533.844	41325.28
534.045	41587.42
534.246	41437.92
534.447	41724.63
534.648	41611.99
534.849	41546.46
535.05	41509.6
535.251	41620.19
535.451	41632.47
535.652	41898.71
535.853	41765.59
536.054	41906.9
536.255	42048.21
536.456	41859.8
536.657	42367.69
536.857	41775.83
537.058	41558.75
537.259	42332.88
537.46	42185.43
537.66	41675.48
537.861	42197.71
538.062	41802.46
538.263	41947.86
538.463	41724.63
538.664	41763.54
538.865	42339.02
539.065	42627.79
539.266	41732.82
539.466	42429.13
539.667	41892.57
539.868	42089.17
540.068	41833.18
540.269	42234.58
540.469	41980.63
540.67	41954.01
540.87	41990.87
541.071	41784.02
541.271	41845.46
541.472	41941.72
541.672	41505.5
541.873	41896.66
542.073	41149.15
542.274	41902.81
542.474	41442.01
542.675	41669.34
542.875	42293.97
543.075	41845.46
543.276	41421.53
543.476	42238.67
543.676	41573.08
543.877	41687.77
544.077	41628.38
544.277	41931.48
544.478	42076.88
544.678	41755.35
544.878	41968.34
545.078	42109.65
545.279	41499.36
545.479	41687.77
545.679	42269.39
545.879	41997.01
546.079	41937.62
546.28	41495.26
546.48	41458.4
546.68	42238.67
546.88	41689.82
547.08	41689.82
547.28	41902.81
547.48	41695.96
547.68	41923.29
547.88	41370.33
548.081	41722.58
548.281	41605.85
548.481	41249.5
548.681	42156.75
548.881	41442.01
549.081	41761.5
549.28	41388.77
549.48	41769.69
549.68	41095.91
549.88	41954.01
550.08	41399.01
550.28	41730.78
550.48	41280.22
550.68	41552.6
550.88	41456.35
551.08	41358.05
551.279	41917.14
551.479	41880.28
551.679	41665.24
551.879	41626.33
552.079	41734.87
552.278	41581.27
552.478	41384.67
552.678	41460.44
552.878	41824.98
553.077	41036.52
553.277	41132.77
553.477	41814.74
553.676	41173.73
553.876	41188.06
554.076	41339.61
554.275	40841.96
554.475	40768.23
554.674	41366.24
554.874	41190.11
555.074	41235.17
555.273	41597.66
555.473	41726.68
555.672	41022.18
555.872	41147.11
556.071	41140.96
556.271	41210.59
556.47	41265.89
556.67	40475.37
556.869	40876.77
557.068	40622.83
557.268	40411.88
557.467	40778.47
557.667	40506.09
557.866	40577.77
558.065	40420.08
558.265	40401.64
558.464	40162.03
558.663	40801
558.863	39734.01
559.062	40876.77
559.261	40076.02
559.461	40784.61
559.66	39826.17
559.859	39889.65
560.058	39609.08
560.258	40139.5
560.457	39469.82
560.656	40016.63
560.855	39990
561.054	40114.93
561.253	39332.61
561.453	39383.8
561.652	39521.02
561.851	39793.4
562.05	39691
562.249	39080.71
562.448	39789.3
562.647	39162.62
562.846	39217.92
563.045	39119.62
563.244	39250.69
563.443	39492.35
563.642	38857.48
563.841	39072.51
564.04	38738.69
564.239	39146.24
564.438	38843.14
564.637	38628.1
564.836	38681.35
565.035	38271.76
565.234	38611.72
565.432	38267.66
565.631	38243.09
565.83	38263.57
566.029	38388.49
566.228	38079.25
566.427	38218.51
566.625	38468.36
566.824	38150.93
567.023	38349.58
567.222	37628.7
567.42	38167.31
567.619	37882.64
567.818	37808.92
568.016	37444.38
568.215	37913.36
568.414	37419.8
568.612	37706.52
568.811	37575.45
569.01	37352.22
569.208	36549.42
569.407	37061.41
569.605	36633.38
569.804	37122.85
570.002	36614.95
570.201	36422.44
570.4	36410.15
570.598	36201.26
570.797	36154.16
570.995	36596.52
571.193	35849.01
571.392	36426.54
571.59	36064.05
571.789	36047.66
571.987	35785.52
572.186	35799.86
572.384	35492.66
572.582	35738.42
572.781	35672.89
572.979	35289.91
573.177	35810.1
573.376	35388.22
573.574	34628.42
573.772	35533.62
573.971	34911.04
574.169	34908.99
574.367	34503.49
574.565	35052.35
574.763	34618.18
574.962	34804.55
575.16	33999.69
575.358	34235.21
575.556	34491.21
575.754	34700.1
575.952	33823.57
576.151	34562.89
576.349	33712.98
576.547	33917.78
576.745	33409.88
576.943	34022.22
577.141	33696.6
577.339	33213.27
577.537	33291.1
577.735	33276.76
577.933	33198.94
578.131	32865.12
578.329	32775.01
578.527	33102.68
578.725	32564.07
578.923	33041.25
579.121	32389.99
579.319	32355.18
579.516	32443.24
579.714	32349.03
579.912	32392.04
580.11	32346.98
580.308	32187.24
580.506	32129.9
580.704	31601.52
580.901	31849.33
581.099	31902.57
581.297	31507.32
581.495	31431.54
581.692	31654.77
581.89	31236.98
582.088	31691.63
582.285	31357.81
582.483	31249.27
582.681	31150.97
582.878	31062.91
583.076	30733.18
583.274	30839.68
583.471	30430.08
583.669	30823.29
583.866	30352.26
584.064	30446.47
584.262	30139.27
584.459	30569.35
584.657	30110.6
584.854	30202.76
585.052	29870.99
585.249	29940.62
585.447	29971.34
585.644	29776.78
585.841	29778.83
586.039	29885.33
586.236	29531.03
586.434	29197.21
586.631	29260.69
586.828	29457.3
587.026	29430.68
587.223	29109.15
587.42	28855.2
587.618	29152.15
587.815	28662.69
588.012	28740.51
588.21	28613.54
588.407	29074.33
588.604	28662.69
588.801	28570.53
588.999	28287.91
589.196	28156.84
589.393	28509.09
589.59	27909.04
589.787	28119.98
589.984	28017.58
590.182	27696.05
590.379	27796.4
590.576	27667.38
590.773	27712.43
590.97	27696.05
591.167	27816.88
591.364	27329.46
591.561	27456.43
591.758	27274.17
591.955	27026.36
592.152	27182.01
592.349	26827.71
592.546	27036.6
592.743	26889.15
592.94	26438.59
593.137	26772.41
593.334	26899.39
593.531	26461.12
593.727	26686.4
593.924	26584
594.121	26434.5
594.318	26123.21
594.515	26074.06
594.712	26520.51
594.908	25852.87
595.105	26117.06
595.302	25936.84
595.499	26239.94
595.696	25660.37
595.892	25658.32
596.089	25727.95
596.286	25650.13
596.482	25584.59
596.679	25631.69
596.876	25654.22
597.072	24976.34
597.269	25289.68
597.466	24988.63
597.662	24875.99
597.859	25101.27
598.055	24998.87
598.252	24724.44
598.448	24935.38
598.645	24820.7
598.841	24488.93
599.038	24781.79
599.234	24591.33
599.431	24490.98
599.627	24218.6
599.824	24470.5
600.02	23976.94
600.217	24118.25
600.413	23976.94
600.609	23907.3
600.806	23870.44
601.002	23985.13
601.198	23581.68
601.395	23837.67
601.591	23636.97
601.787	23505.9
601.984	23258.1
602.18	23583.73
602.376	23217.14
602.572	22907.9
602.769	23167.99
602.965	23067.64
603.161	23151.6
603.357	22932.47
603.553	22723.58
603.75	22649.85
603.946	22574.08
604.142	22647.8
604.338	22299.65
604.534	22416.38
604.73	22213.63
604.926	21941.25
605.122	22258.69
605.318	22139.91
605.514	22066.18
605.71	22160.39
605.906	22008.84
606.102	21951.49
606.298	21718.03
606.494	21810.18
606.69	21734.41
606.886	21720.07
607.082	21404.69
607.278	21646.35
607.474	21529.61
607.67	21574.67
607.866	21220.37
608.062	21187.6
608.257	21011.48
608.453	21081.11
608.649	21220.37
608.845	20685.85
609.041	20886.55
609.236	21021.72
609.432	20575.26
609.628	20724.76
609.824	20636.7
610.019	20788.25
610.215	20438.05
610.411	20554.78
610.606	20347.93
610.802	20554.78
610.998	20337.69
611.193	20345.89
611.389	20392.99
611.584	20053.03
611.78	20186.15
611.976	19989.54
612.171	20145.19
612.367	20243.49
612.562	19696.68
612.758	19653.67
612.953	19723.3
613.149	20044.84
613.344	19403.82
613.539	20032.55
613.735	19733.54
613.93	19721.26
614.126	19504.17
614.321	19780.65
614.517	19586.09
614.712	19541.04
614.907	19340.33
615.103	19573.8
615.298	19237.94
615.493	19381.29
615.688	18844.73
615.884	19383.34
616.079	18973.75
616.274	19246.13
616.47	18992.18
616.665	19088.43
616.86	18869.3
617.055	18367.55
617.25	18613.31
617.445	18916.4
617.641	18424.89
617.836	18850.87
618.031	18472
618.226	18574.39
618.421	18392.12
618.616	18502.72
618.811	18015.3
619.006	18519.1
619.201	18195.52
619.396	17906.76
619.591	17800.26
619.786	17931.33
619.981	17697.86
620.176	17886.28
620.371	17622.09
620.566	17914.95
620.761	17165.39
620.956	17376.33
621.151	17359.95
621.346	17282.13
621.541	17269.84
621.735	17185.87
621.93	16739.41
622.125	16727.13
622.32	16641.11
622.515	16829.52
622.709	16759.89
622.904	16366.68
623.099	16473.18
623.294	16368.73
623.488	16350.3
623.683	16122.98
623.878	15733.86
624.072	16208.99
624.267	16051.3
624.462	15797.35
624.656	15727.72
624.851	15643.75
625.046	15567.98
625.24	15850.6
625.435	15307.88
625.629	15223.92
625.824	15129.71
626.018	15156.33
626.213	14871.67
626.407	14998.64
626.602	14836.85
626.796	15217.77
626.991	14763.12
627.185	14613.62
627.38	14748.79
627.574	14357.63
627.768	14605.43
627.963	14417.02
628.157	14279.8
628.352	14716.02
628.546	14134.4
628.74	14027.9
628.935	14017.66
629.129	14148.73
629.323	13673.6
629.517	13692.04
629.712	13896.83
629.906	13646.98
630.1	13417.61
630.294	13728.9
630.489	13311.11
630.683	13384.84
630.877	13272.2
631.071	13223.05
631.265	13513.86
631.459	13149.32
631.653	12977.3
631.848	12819.6
632.042	12891.28
632.236	12891.28
632.43	12864.66
632.624	12983.44
632.818	12625.04
633.012	12410.01
633.206	12579.99
633.4	12504.21
633.594	12381.34
633.788	12434.58
633.982	12321.95
634.176	12203.16
634.369	12242.07
634.563	12170.4
634.757	12035.23
634.951	12117.15
635.145	12137.63
635.339	11844.77
635.533	11715.75
635.726	11742.37
635.92	11529.38
636.114	11519.14
636.308	11388.07
636.501	11461.8
636.695	11586.72
636.889	11426.98
637.083	11203.75
637.276	11283.63
637.47	11168.94
637.664	10978.48
637.857	11201.71
638.051	10871.98
638.244	10906.8
638.438	10994.86
638.632	10712.24
638.825	10695.86
639.019	10585.27
639.212	10433.72
639.406	10788.02
639.599	10548.4
639.793	10431.67
639.986	10321.08
640.18	10192.06
640.373	10390.71
640.567	10140.86
640.76	10259.64
640.954	10339.51
641.147	9979.07
641.34	10020.03
641.534	9721.02
641.727	9804.99
641.92	9727.17
642.114	9708.74
642.307	9860.29
642.5	9710.79
642.694	9647.3
642.887	9682.11
643.08	9575.62
643.273	9290.95
643.467	9327.81
643.66	9192.65
643.853	9188.55
644.046	9061.58
644.239	9178.31
644.432	9012.43
644.626	9000.14
644.819	9094.35
645.012	8834.25
645.205	8983.76
645.398	8881.36
645.591	8719.57
645.784	8674.51
645.977	8647.89
646.17	8674.51
646.363	8565.97
646.556	8565.97
646.749	8545.49
646.942	8608.98
647.135	8260.82
647.328	8379.61
647.521	8340.69
647.714	8037.59
647.907	8176.86
648.099	8137.95
648.292	8133.85
648.485	8162.52
648.678	7972.06
648.871	7914.72
649.064	7740.64
649.256	7810.27
649.449	7611.62
649.642	7498.98
649.835	7701.73
650.027	7689.44
650.22	7675.1
650.413	7671.01
650.605	7609.57
650.798	7503.07
650.991	7435.49
651.183	7277.8
651.376	7195.88
651.568	7326.95
651.761	7339.24
651.954	7138.54
652.146	7126.25
652.339	7191.78
652.531	7279.85
652.724	7173.35
652.916	6812.91
653.109	6890.73
653.301	6833.39
653.494	6894.83
653.686	6845.68
653.879	6878.44
654.071	6737.13
654.263	6546.67
654.456	6903.02
654.648	6675.7
654.84	6520.05
655.033	6538.48
655.225	6618.35
655.417	6524.15
655.61	6458.61
655.802	6515.95
655.994	6458.61
656.186	6171.9
656.379	6382.84
656.571	6319.35
656.763	6175.99
656.955	6300.92
657.148	6237.43
657.34	6247.67
657.532	5956.86
657.724	6128.89
657.916	6069.5
658.108	5895.42
658.3	5907.71
658.492	5946.62
658.684	5870.84
658.876	5905.66
659.068	5805.31
659.26	5729.53
659.452	5805.31
659.644	5879.04
659.836	5688.57
660.028	5590.27
660.22	5526.78
660.412	5547.26
660.604	5448.96
660.796	5571.84
660.988	5457.15
661.18	5274.88
661.372	5328.13
661.563	5481.73
661.755	5197.06
661.947	5262.6
662.139	5199.11
662.331	5311.75
662.522	5303.56
662.714	5152.01
662.906	5090.57
663.097	5115.14
663.289	4961.55
663.481	5043.46
663.673	4961.55
663.864	4916.49
664.056	5018.89
664.247	4881.67
664.439	4846.86
664.631	4936.97
664.822	4916.49
665.014	4830.48
665.205	4844.81
665.397	4633.87
665.588	4803.85
665.78	4650.25
665.971	4556.05
666.163	4529.42
666.354	4635.92
666.546	4742.41
666.737	4482.32
666.929	4670.73
667.12	4472.08
667.311	4539.66
667.503	4545.81
667.694	4517.14
667.885	4357.39
668.077	4414.74
668.268	4300.05
668.459	4295.96
668.651	4220.18
668.842	4164.89
669.033	4183.32
669.224	4158.74
669.416	4341.01
669.607	4195.61
669.798	4230.42
669.989	4019.48
670.18	4211.99
670.371	4154.65
670.563	4185.37
670.754	3982.62
670.945	4048.15
671.136	4062.49
671.327	3980.57
671.518	3935.51
671.709	3917.08
671.9	3976.47
672.091	3980.57
672.282	3841.31
672.473	3982.62
672.664	3925.27
672.855	3902.75
673.046	3872.03
673.237	3869.98
673.428	3749.15
673.619	3753.24
673.809	3738.91
674	3786.01
674.191	3734.81
674.382	3636.51
674.573	3605.79
674.764	3573.02
674.954	3669.28
675.145	3487.01
675.336	3671.33
675.527	3589.41
675.717	3642.65
675.908	3482.91
676.099	3550.5
676.289	3538.21
676.48	3591.45
676.671	3452.19
676.861	3568.93
677.052	3577.12
677.243	3417.38
677.433	3476.77
677.624	3487.01
677.814	3437.86
678.005	3484.96
678.195	3409.19
678.386	3493.15
678.576	3294.5
678.767	3400.99
678.957	3487.01
679.148	3466.53
679.338	3425.57
679.529	3257.64
679.719	3317.03
679.909	3351.84
680.1	3253.54
680.29	3347.75
680.481	3296.55
680.671	3183.91
680.861	3253.54
681.052	3355.94
681.242	3214.63
681.432	3253.54
681.622	3110.18
681.813	3306.79
682.003	3269.92
682.193	3179.81
682.383	3185.96
682.573	3245.35
682.764	3200.29
682.954	3093.8
683.144	3194.15
683.334	3101.99
683.524	2958.63
683.714	3112.23
683.904	2968.87
684.094	3085.61
684.284	3118.37
684.474	3071.27
684.664	3007.78
684.854	3071.27
685.044	3038.5
685.234	3120.42
685.424	3030.31
685.614	3120.42
685.804	2862.38
685.994	2905.38
686.184	3145
686.374	3007.78
686.564	3058.98
686.753	2895.15
686.943	3040.55
687.133	3007.78
687.323	2876.71
687.513	3061.03
687.702	2895.15
687.892	3013.93
688.082	2884.91
688.272	2919.72
688.461	3007.78
688.651	2868.52
688.841	2737.45
689.03	2825.51
689.22	2858.28
689.41	2886.95
689.599	2686.25
689.789	2778.41
689.979	2848.04
690.168	2792.75
690.358	2714.92
690.547	2817.32
690.737	2757.93
690.926	2811.18
691.116	2667.82
691.305	2837.8
691.495	2694.44
691.684	2712.88
691.874	2741.55
692.063	2737.45
692.252	2719.02
692.442	2747.69
692.631	2657.58
692.82	2721.07
693.01	2764.08
693.199	2682.16
693.388	2774.31
693.578	2772.27
693.767	2876.71
693.956	2692.4
694.146	2762.03
694.335	2780.46
694.524	2626.86
694.713	2762.03
694.902	2698.54
695.092	2733.36
695.281	2714.92
695.47	2641.2
695.659	2665.77
695.848	2757.93
696.037	2684.2
696.226	2604.33
696.415	2778.41
696.604	2600.24
696.793	2614.57
696.982	2667.82
697.171	2694.44
697.36	2626.86
697.549	2698.54
697.738	2661.68
697.927	2633.01
698.116	2583.85
698.305	2534.7
698.494	2708.78
698.683	2657.58
698.872	2753.84
699.061	2590
699.25	2747.69
699.438	2700.59
699.627	2608.43
699.816	2682.16
700.005	2577.71
700.193	2739.5
700.382	2579.76
700.571	2680.11
700.76	2637.1
700.948	2577.71
701.137	2577.71
701.326	2637.1
701.514	2460.98
701.703	2616.62
701.892	2465.07
702.08	2612.53
702.269	2635.05
702.457	2624.81
702.646	2682.16
702.834	2532.65
703.023	2510.13
703.212	2520.37
703.4	2436.4
703.589	2463.02
703.777	2522.41
703.965	2633.01
704.154	2553.13
704.342	2440.5
704.531	2440.5
704.719	2542.89
704.907	2391.34
705.096	2458.93
705.284	2503.98
705.472	2444.59
705.661	2374.96
705.849	2497.84
706.037	2438.45
706.226	2434.35
706.414	2415.92
706.602	2475.31
706.79	2411.82
706.979	2387.25
707.167	2286.9
707.355	2407.73
707.543	2471.22
707.731	2395.44
707.919	2274.61
708.107	2288.95
708.296	2329.91
708.484	2221.36
708.672	2499.89
708.86	2290.99
709.048	2303.28
709.236	2161.97
709.424	2301.23
709.612	2241.84
709.8	2170.16
709.988	2200.88
710.176	2239.8
710.364	2233.65
710.551	2213.17
710.739	2301.23
710.927	2184.5
711.115	2278.71
711.303	2303.28
711.491	2215.22
711.679	2194.74
711.866	2207.03
712.054	2186.55
712.242	2071.86
712.43	2135.35
712.617	2061.62
712.805	2112.82
712.993	2192.69
713.181	2090.29
713.368	2016.57
713.556	2161.97
713.744	2000.18
713.931	2104.63
714.119	2080.05
714.306	2053.43
714.494	2102.58
714.682	2043.19
714.869	1975.61
715.057	1961.27
715.244	1924.41
715.432	2067.77
715.619	2000.18
715.807	2018.61
715.994	1985.85
716.182	2037.05
716.369	1920.31
716.556	2045.24
716.744	1985.85
716.931	1903.93
717.119	1948.98
717.306	2020.66
717.493	1860.92
717.681	1955.13
717.868	1916.22
718.055	1852.73
718.242	1865.02
718.43	1873.21
718.617	1862.97
718.804	1940.79
718.991	1871.16
719.179	1887.54
719.366	1826.11
719.553	1819.96
719.74	1805.63
719.927	1856.83
720.114	1793.34
720.301	1867.06
720.488	1770.81
720.676	1793.34
720.863	1858.87
721.05	1795.39
721.237	1723.71
721.424	1797.43
721.611	1752.38
721.798	1674.56
721.985	1748.28
722.172	1754.43
722.358	1697.08
722.545	1666.36
722.732	1660.22
722.919	1787.19
723.106	1670.46
723.293	1721.66
723.48	1733.95
723.667	1645.88
723.853	1649.98
724.04	1690.94
724.227	1637.69
724.414	1680.7
724.6	1525.05
724.787	1717.56
724.974	1668.41
725.161	1576.25
725.347	1580.35
725.534	1635.64
725.72	1549.63
725.907	1580.35
726.094	1516.86
726.28	1580.35
726.467	1627.45
726.653	1553.73
726.84	1527.1
727.027	1619.26
727.213	1504.57
727.4	1539.39
727.586	1516.86
727.773	1475.9
727.959	1465.66
728.145	1525.05
728.332	1482.05
728.518	1500.48
728.705	1531.2
728.891	1475.9
729.077	1488.19
729.264	1506.62
729.45	1527.1
729.636	1488.19
729.823	1494.33
730.009	1592.64
730.195	1467.71
730.382	1424.7
730.568	1387.84
730.754	1455.42
730.94	1383.74
731.126	1385.79
731.313	1359.17
731.499	1410.37
731.685	1447.23
731.871	1436.99
732.057	1400.13
732.243	1350.98
732.429	1420.61
732.615	1357.12
732.801	1238.34
732.987	1305.92
733.173	1418.56
733.359	1357.12
733.545	1369.41
733.731	1334.59
733.917	1387.84
734.103	1391.94
734.289	1443.14
734.475	1275.2
734.661	1363.26
734.847	1305.92
735.033	1328.45
735.219	1363.26
735.404	1295.68
735.59	1344.83
735.776	1297.73
735.962	1264.96
736.148	1340.74
736.333	1264.96
736.519	1363.26
736.705	1332.54
736.89	1273.15
737.076	1297.73
737.262	1219.91
737.447	1226.05
737.633	1256.77
737.819	1228.1
738.004	1281.35
738.19	1252.67
738.375	1267.01
738.561	1250.63
738.747	1221.95
738.932	1205.57
739.118	1195.33
739.303	1234.24
739.489	1101.12
739.674	1172.8
739.859	1189.19
740.045	1162.56
740.23	1189.19
740.416	1256.77
740.601	1195.33
740.786	1078.6
740.972	1094.98
741.157	1213.76
741.342	1158.47
741.528	1250.63
741.713	1152.32
741.898	1150.28
742.084	1181
742.269	1158.47
742.454	1056.07
742.639	1037.64
742.824	1127.75
743.01	1137.99
743.195	1137.99
743.38	1121.6
743.565	1088.84
743.75	1068.36
743.935	1027.4
744.12	1047.88
744.305	1013.06
744.49	1068.36
744.675	1019.21
744.86	912.71
745.045	1064.26
745.23	1051.97
745.415	1015.11
745.6	1041.73
745.785	1054.02
745.97	1017.16
746.155	1082.69
746.34	1041.73
746.525	1000.77
746.71	951.62
746.895	1006.92
747.079	955.72
747.264	879.94
747.449	965.96
747.634	888.14
747.819	978.25
748.003	1035.59
748.188	890.18
748.373	867.66
748.557	851.27
748.742	1008.97
748.927	931.14
749.111	935.24
749.296	804.17
749.481	798.03
749.665	892.23
749.85	832.84
750.034	906.57
750.219	836.94
750.404	824.65
750.588	845.13
750.773	806.22
750.957	894.28
751.141	892.23
751.326	890.18
751.51	781.64
751.695	836.94
751.879	865.61
752.064	869.7
752.248	746.83
752.432	898.38
752.617	865.61
752.801	871.75
752.985	785.74
753.17	783.69
753.354	783.69
753.538	783.69
753.722	779.59
753.907	802.12
754.091	793.93
754.275	763.21
754.459	714.06
754.643	767.31
754.828	752.97
755.012	695.63
755.196	775.5
755.38	730.44
755.564	726.35
755.748	677.19
755.932	677.19
756.116	757.07
756.3	738.63
756.484	789.83
756.668	619.85
756.852	630.09
757.036	642.38
757.22	709.96
757.404	712.01
757.588	664.91
757.772	759.11
757.956	675.15
758.14	648.52
758.323	648.52
758.507	619.85
758.691	595.28
758.875	640.33
759.059	687.43
759.242	570.7
759.426	621.9
759.61	628.04
759.794	628.04
759.977	615.76
760.161	695.63
760.345	652.62
760.528	560.46
760.712	572.75
760.895	652.62
761.079	556.36
761.263	562.51
761.446	570.7
761.63	693.58
761.813	607.56
761.997	677.19
762.18	539.98
762.364	615.76
762.547	550.22
762.731	548.17
762.914	544.08
763.098	529.74
763.281	595.28
763.464	548.17
763.648	630.09
763.831	607.56
764.015	509.26
764.198	554.32
764.381	529.74
764.564	550.22
764.748	490.83
764.931	544.08
765.114	564.56
765.297	578.89
765.481	523.6
765.664	517.45
765.847	562.51
766.03	537.93
766.213	546.12
766.397	488.78
766.58	492.88
766.763	546.12
766.946	623.95
767.129	476.49
767.312	550.22
767.495	527.69
767.678	603.47
767.861	480.59
768.044	509.26
768.227	466.25
768.41	480.59
768.593	513.36
768.776	599.37
768.959	470.35
769.142	505.17
769.324	507.21
769.507	484.69
769.69	480.59
769.873	472.4
770.056	542.03
770.239	507.21
770.421	509.26
770.604	476.49
770.787	480.59
770.97	503.12
771.152	406.86
771.335	464.21
771.518	486.73
771.7	445.77
771.883	492.88
772.066	507.21
772.248	421.2
772.431	494.93
772.613	539.98
772.796	470.35
772.978	478.54
773.161	460.11
773.343	509.26
773.526	410.96
773.708	439.63
773.891	419.15
774.073	488.78
774.256	406.86
774.438	439.63
774.621	372.05
774.803	447.82
774.985	345.42
775.168	474.45
775.35	451.92
775.532	509.26
775.715	408.91
775.897	402.77
776.079	324.94
776.261	439.63
776.444	357.71
776.626	400.72
776.808	435.53
776.99	337.23
777.173	265.55
777.355	472.4
777.537	370
777.719	396.62
777.901	335.18
778.083	396.62
778.265	343.38
778.447	376.14
778.629	382.29
778.811	413.01
778.993	396.62
779.175	404.82
779.357	318.8
779.539	279.89
779.721	382.29
779.903	408.91
780.085	298.32
780.267	329.04
780.449	367.95
780.631	322.9
780.812	339.28
780.994	361.81
781.176	292.18
781.358	296.27
781.54	341.33
781.721	322.9
781.903	361.81
782.085	339.28
782.267	318.8
782.448	386.38
782.63	357.71
782.812	333.14
782.993	312.66
783.175	382.29
783.357	302.42
783.538	283.99
783.72	331.09
783.901	261.46
784.083	322.9
784.264	302.42
784.446	267.6
784.627	251.22
784.809	304.46
784.99	337.23
785.172	290.13
785.353	310.61
785.535	189.78
785.716	206.16
785.897	339.28
786.079	283.99
786.26	224.59
786.441	249.17
786.623	257.36
786.804	224.59
786.985	294.22
787.167	286.03
787.348	281.94
787.529	267.6
787.71	269.65
787.891	187.73
788.073	329.04
788.254	222.55
788.435	240.98
788.616	257.36
788.797	247.12
788.978	329.04
789.159	265.55
789.34	232.79
789.522	208.21
789.703	191.83
789.884	200.02
790.065	234.83
790.246	173.39
790.427	175.44
790.607	236.88
790.788	265.55
790.969	183.63
791.15	212.31
791.331	208.21
791.512	206.16
791.693	161.11
791.874	214.35
792.054	259.41
792.235	263.51
792.416	220.5
792.597	177.49
792.778	255.31
792.958	308.56
793.139	185.68
793.32	240.98
793.5	206.16
793.681	224.59
793.862	210.26
794.042	183.63
794.223	218.45
794.404	206.16
794.584	216.4
794.765	159.06
794.945	240.98
795.126	159.06
795.306	216.4
795.487	185.68
795.667	126.29
795.848	187.73
796.028	169.3
796.209	144.72
796.389	216.4
796.57	159.06
796.75	163.15
796.93	107.86
797.111	189.78
797.291	222.55
797.471	163.15
797.652	173.39
797.832	173.39
798.012	179.54
798.192	206.16
798.373	206.16
798.553	116.05
798.733	157.01
798.913	109.91
799.093	204.11
799.274	191.83
799.454	208.21
799.634	122.2
799.814	146.77
799.994	140.63
800.174	150.87
800.354	111.96
800.534	154.96
800.714	150.87
800.894	193.87
801.074	140.63
801.254	132.44
801.434	216.4
801.614	105.81
801.794	161.11
801.974	396.62
802.154	146.77
802.334	154.96
802.514	111.96
802.693	224.59
802.873	95.57
803.053	161.11
803.233	173.39
803.413	144.72
803.592	142.68
803.772	107.86
803.952	93.52
804.131	167.25
804.311	124.24
804.491	163.15
804.67	130.39
804.85	136.53
805.03	193.87
805.209	169.3
805.389	140.63
805.568	79.19
805.748	187.73
805.928	58.71
806.107	134.48
806.287	101.72
806.466	210.26
806.646	157.01
806.825	128.34
807.004	167.25
807.184	122.2
807.363	124.24
807.543	7.51
807.722	75.09
807.901	159.06
808.081	107.86
808.26	114
808.439	144.72
808.619	132.44
808.798	148.82
808.977	19.8
809.156	154.96
809.336	107.86
809.515	91.48
809.694	77.14
809.873	107.86
810.052	120.15
810.231	54.61
810.411	109.91
810.59	87.38
810.769	134.48
810.948	114
811.127	54.61
811.306	138.58
811.485	89.43
811.664	109.91
811.843	132.44
812.022	107.86
812.201	130.39
812.38	85.33
812.559	27.99
812.737	111.96
812.916	103.76
813.095	148.82
813.274	148.82
813.453	140.63
813.632	83.28
813.811	91.48
813.989	71
814.168	202.07
814.347	40.28
814.526	173.39
814.704	52.56
814.883	144.72
815.062	93.52
815.24	124.24
815.419	124.24
815.598	103.76
815.776	38.23
815.955	138.58
816.133	124.24
816.312	71
816.49	60.76
816.669	60.76
816.847	91.48
817.026	120.15
817.204	89.43
817.383	30.04
817.561	109.91
817.74	50.52
817.918	150.87
818.097	89.43
818.275	91.48
818.453	99.67
818.632	91.48
818.81	71
818.988	140.63
819.167	83.28
819.345	95.57
819.523	87.38
819.701	-2.73
819.879	122.2
820.058	62.8
820.236	87.38
820.414	68.95
820.592	71
820.77	46.42
820.948	136.53
821.127	66.9
821.305	58.71
821.483	36.18
821.661	120.15
821.839	91.48
822.017	132.44
822.195	73.04
822.373	85.33
822.551	44.37
822.729	44.37
822.907	132.44
823.085	171.35
823.262	-0.68
823.44	32.08
823.618	83.28
823.796	19.8
823.974	79.19
824.152	17.75
824.329	36.18
824.507	46.42
824.685	154.96
824.863	118.1
825.04	89.43
825.218	116.05
825.396	68.95
825.574	136.53
825.751	64.85
825.929	97.62
826.107	75.09
826.284	79.19
826.462	38.23
826.639	-10.92
826.817	9.56
826.994	116.05
827.172	111.96
827.349	189.78
827.527	71
827.704	95.57
827.882	130.39
828.059	13.65
828.237	150.87
828.414	81.24
828.591	-2.73
828.769	27.99
828.946	34.13
829.124	81.24
829.301	91.48
829.478	58.71
829.655	42.32
829.833	25.94
830.01	58.71
830.187	23.89
830.364	83.28
830.542	36.18
830.719	50.52
830.896	109.91
831.073	101.72
831.25	52.56
831.427	68.95
831.604	83.28
831.782	68.95
831.959	107.86
832.136	75.09
832.313	103.76
832.49	38.23
832.667	42.32
832.844	42.32
833.021	73.04
833.198	25.94
833.374	68.95
833.551	114
833.728	77.14
833.905	17.75
834.082	73.04
834.259	36.18
834.436	66.9
834.612	13.65
834.789	-27.31
834.966	40.28
835.143	107.86
835.319	134.48
835.496	40.28
835.673	118.1
835.85	116.05
836.026	5.46
836.203	77.14
836.38	42.32
836.556	17.75
836.733	34.13
836.909	77.14
837.086	-12.97
837.262	-4.78
837.439	-33.45
837.616	46.42
837.792	5.46
837.968	7.51
838.145	58.71
838.321	118.1
838.498	85.33
838.674	19.8
838.851	85.33
839.027	34.13
839.203	52.56
839.38	68.95
839.556	54.61
839.732	85.33
839.909	64.85
840.085	66.9
840.261	30.04
840.437	95.57
840.614	17.75
840.79	56.66
840.966	19.8
841.142	-2.73
841.318	58.71
841.494	56.66
841.671	-15.02
841.847	105.81
842.023	95.57
842.199	30.04
842.375	101.72
842.551	-6.83
842.727	23.89
842.903	-12.97
843.079	17.75
843.255	58.71
843.431	7.51
843.607	9.56
843.783	81.24
843.959	58.71
844.134	75.09
844.31	77.14
844.486	-6.83
844.662	93.52
844.838	23.89
845.013	27.99
845.189	73.04
845.365	-25.26
845.541	15.7
845.716	-12.97
845.892	81.24
846.068	66.9
846.244	36.18
846.419	50.52
846.595	-23.21
846.77	60.76
846.946	66.9
847.122	126.29
847.297	83.28
847.473	85.33
847.648	54.61
847.824	75.09
847.999	-6.83
848.175	-33.45
848.35	85.33
848.526	54.61
848.701	11.61
848.876	27.99
849.052	-12.97
849.227	38.23
849.403	42.32
849.578	38.23
849.753	1.37
849.929	1.37
850.104	23.89
850.279	44.37
850.454	46.42
850.63	54.61
850.805	-2.73
850.98	54.61
851.155	3.41
851.33	60.76
851.505	7.51
851.681	36.18
851.856	-10.92
852.031	-21.16
852.206	19.8
852.381	40.28
852.556	36.18
852.731	25.94
852.906	56.66
853.081	66.9
853.256	105.81
853.431	-4.78
853.606	9.56
853.781	38.23
853.956	-41.64
854.131	52.56
854.305	91.48
854.48	34.13
854.655	48.47
854.83	97.62
855.005	-21.16
855.18	34.13
855.354	15.7
855.529	-2.73
855.704	48.47
855.879	73.04
856.053	48.47
856.228	15.7
856.403	-4.78
856.577	91.48
856.752	44.37
856.926	1.37
857.101	-15.02
857.276	66.9
857.45	17.75
857.625	83.28
857.799	5.46
857.974	68.95
858.148	44.37
858.323	56.66
858.497	-0.68
858.672	71
858.846	56.66
859.02	11.61
859.195	38.23
859.369	30.04
859.543	3.41
859.718	68.95
859.892	60.76
860.066	75.09
860.241	23.89
860.415	9.56
860.589	19.8
860.763	-19.11
860.938	-45.74
861.112	50.52
861.286	50.52
861.46	-23.21
861.634	60.76
861.808	36.18
861.982	-47.79
862.157	48.47
862.331	44.37
862.505	68.95
862.679	64.85
862.853	27.99
863.027	-41.64
863.201	36.18
863.375	68.95
863.549	75.09
863.722	36.18
863.896	19.8
864.07	48.47
864.244	-15.02
864.418	1.37
864.592	7.51
864.766	-4.78
864.939	60.76
865.113	13.65
865.287	66.9
865.461	13.65
865.634	34.13
865.808	36.18
865.982	-19.11
866.156	-29.35
866.329	15.7
866.503	-39.59
866.676	58.71
866.85	7.51
867.024	-10.92
867.197	68.95
867.371	85.33
867.544	9.56
867.718	58.71
867.891	25.94
868.065	-47.79
868.238	66.9
868.412	17.75
868.585	134.48
868.759	32.08
868.932	34.13
869.105	-49.83
869.279	25.94
869.452	34.13
869.625	-12.97
869.799	91.48
869.972	-21.16
870.145	40.28
870.319	71
870.492	30.04
870.665	15.7
870.838	-17.07
871.011	11.61
871.185	-53.93
871.358	-25.26
871.531	-4.78
871.704	-25.26
871.877	66.9
872.05	-21.16
872.223	27.99
872.396	48.47
872.569	66.9
872.742	-47.79
872.915	34.13
873.088	27.99
873.261	-41.64
873.434	-62.12
873.607	40.28
873.78	15.7
873.953	-15.02
874.126	25.94
874.299	19.8
874.471	-25.26
874.644	-15.02
874.817	11.61
874.99	44.37
875.163	19.8
875.335	5.46
875.508	50.52
875.681	34.13
875.853	-29.35
876.026	19.8
876.199	-4.78
876.371	27.99
876.544	34.13
876.717	71
876.889	3.41
877.062	19.8
877.234	64.85
877.407	17.75
877.579	19.8
877.752	5.46
877.924	-25.26
878.097	5.46
878.269	-12.97
878.442	-6.83
878.614	9.56
878.786	27.99
878.959	-15.02
879.131	27.99
879.303	30.04
879.476	75.09
879.648	17.75
879.82	-43.69
879.993	-21.16
880.165	-10.92
880.337	-31.4
880.509	34.13
880.681	15.7
880.854	46.42
881.026	30.04
881.198	30.04
881.37	-25.26
881.542	-10.92
881.714	62.8
881.886	23.89
882.058	60.76
882.23	50.52
882.402	15.7
882.574	66.9
882.746	11.61
882.918	27.99
883.09	-90.79
883.262	13.65
883.434	15.7
883.606	52.56
883.778	5.46
883.95	46.42
884.122	42.32
884.293	62.8
884.465	52.56
884.637	-25.26
884.809	-4.78
884.98	85.33
885.152	-10.92
885.324	46.42
885.496	-6.83
885.667	52.56
885.839	62.8
886.011	-10.92
886.182	-15.02
886.354	54.61
886.525	9.56
886.697	-19.11
886.869	-53.93
887.04	93.52
887.212	7.51
887.383	-45.74
887.555	13.65
887.726	-60.07
887.897	-10.92
888.069	91.48
888.24	56.66
888.412	-2.73
888.583	3.41
888.754	25.94
888.926	58.71
889.097	-41.64
889.268	9.56
889.44	107.86
889.611	-64.17
889.782	21.85
889.953	-8.87
890.125	79.19
890.296	-41.64
890.467	50.52
890.638	-17.07
890.809	9.56
890.98	71
891.151	-25.26
891.323	-2.73
891.494	-0.68
891.665	56.66
891.836	25.94
892.007	-10.92
892.178	-27.31
892.349	32.08
892.52	3.41
892.691	-68.27
892.862	62.8
893.032	36.18
893.203	-15.02
893.374	21.85
893.545	54.61
893.716	25.94
893.887	21.85
894.057	-0.68
894.228	-2.73
894.399	54.61
894.57	9.56
894.74	44.37
894.911	75.09
895.082	-45.74
895.253	15.7
895.423	46.42
895.594	5.46
895.764	9.56
895.935	46.42
896.106	1.37
896.276	-27.31
896.447	13.65
896.617	32.08
896.788	-10.92
896.958	-31.4
897.129	-19.11
897.299	5.46
897.47	42.32
897.64	38.23
897.81	-6.83
897.981	58.71
898.151	-58.03
898.322	-25.26
898.492	7.51
898.662	58.71
898.832	23.89
899.003	-19.11
899.173	-25.26
899.343	-15.02
899.513	7.51
