Data from USB4F104151__104__13-54-44-748.txt Node

Date: Thu Mar 13 13:54:44 EDT 2025
User: louis
Spectrometer: USB4F10415
Trigger mode: 4
Integration Time (sec): 1.000000E-2
Scans to average: 1
Electric dark correction enabled: true
Nonlinearity correction enabled: false
Boxcar width: 0
XAxis mode: Wavelengths
Number of Pixels in Spectrum: 3648
>>>>>Begin Spectral Data<<<<<
178.204	35.33
178.424	35.33
178.644	35.33
178.864	-93.69
179.084	-77.31
179.304	33.28
179.524	-24.06
179.744	-28.16
179.964	-32.26
180.184	10.75
180.404	4.61
180.624	16.9
180.844	-19.97
181.064	-28.16
181.283	-5.63
181.503	49.66
181.723	23.04
181.943	43.52
182.163	35.33
182.383	-65.02
182.602	45.57
182.822	-36.35
183.042	-15.87
183.262	-42.5
183.482	35.33
183.701	-11.78
183.921	-5.63
184.141	6.66
184.361	-32.26
184.58	-3.58
184.8	-15.87
185.02	-1.54
185.239	27.14
185.459	-19.97
185.679	37.38
185.898	35.33
186.118	6.66
186.338	-40.45
186.557	68.09
186.777	-44.54
186.997	51.71
187.216	29.18
187.436	68.09
187.655	98.81
187.875	-26.11
188.095	39.42
188.314	31.23
188.534	6.66
188.753	37.38
188.973	53.76
189.192	-3.58
189.412	33.28
189.631	-34.3
189.851	51.71
190.07	111.1
190.29	-46.59
190.509	-22.02
190.729	27.14
190.948	31.23
191.168	33.28
191.387	37.38
191.607	57.86
191.826	-1.54
192.045	64
192.265	31.23
192.484	-19.97
192.704	70.14
192.923	0.51
193.142	10.75
193.362	-69.12
193.581	68.09
193.8	-34.3
194.02	20.99
194.239	14.85
194.458	74.24
194.678	-7.68
194.897	20.99
195.116	-1.54
195.335	80.38
195.555	12.8
195.774	35.33
195.993	43.52
196.212	6.66
196.432	23.04
196.651	-30.21
196.87	-44.54
197.089	-36.35
197.308	12.8
197.528	-95.74
197.747	-1.54
197.966	-34.3
198.185	35.33
198.404	53.76
198.623	-44.54
198.842	16.9
199.062	64
199.281	92.67
199.5	-60.93
199.719	8.7
199.938	-15.87
200.157	-3.58
200.376	78.33
200.595	-15.87
200.814	-19.97
201.033	-32.26
201.252	10.75
201.471	18.94
201.69	25.09
201.909	98.81
202.128	-1.54
202.347	41.47
202.566	20.99
202.785	-5.63
203.004	2.56
203.223	80.38
203.442	41.47
203.661	23.04
203.879	45.57
204.098	31.23
204.317	-36.35
204.536	64
204.755	0.51
204.974	29.18
205.193	-30.21
205.411	-1.54
205.63	-30.21
205.849	4.61
206.068	-34.3
206.287	-9.73
206.505	31.23
206.724	41.47
206.943	-50.69
207.162	12.8
207.381	-3.58
207.599	55.81
207.818	-65.02
208.037	2.56
208.255	-75.26
208.474	61.95
208.693	8.7
208.911	47.62
209.13	-46.59
209.349	14.85
209.567	45.57
209.786	31.23
210.005	45.57
210.223	8.7
210.442	-3.58
210.661	10.75
210.879	-81.41
211.098	23.04
211.316	31.23
211.535	111.1
211.753	-81.41
211.972	37.38
212.191	-1.54
212.409	-3.58
212.628	43.52
212.846	-9.73
213.065	29.18
213.283	68.09
213.502	-56.83
213.72	14.85
213.938	-34.3
214.157	-13.82
214.375	41.47
214.594	-32.26
214.812	-9.73
215.031	10.75
215.249	23.04
215.467	2.56
215.686	12.8
215.904	6.66
216.122	45.57
216.341	-3.58
216.559	-11.78
216.778	25.09
216.996	-48.64
217.214	47.62
217.432	-34.3
217.651	-58.88
217.869	51.71
218.087	57.86
218.306	4.61
218.524	23.04
218.742	-60.93
218.96	-19.97
219.179	68.09
219.397	25.09
219.615	29.18
219.833	-1.54
220.051	80.38
220.27	37.38
220.488	-13.82
220.706	-26.11
220.924	16.9
221.142	2.56
221.36	-19.97
221.578	12.8
221.796	-36.35
222.015	31.23
222.233	4.61
222.451	29.18
222.669	-50.69
222.887	-28.16
223.105	8.7
223.323	-22.02
223.541	-95.74
223.759	-11.78
223.977	-26.11
224.195	86.53
224.413	72.19
224.631	45.57
224.849	-19.97
225.067	18.94
225.285	20.99
225.503	39.42
225.721	20.99
225.939	16.9
226.157	33.28
226.375	29.18
226.592	-40.45
226.81	29.18
227.028	31.23
227.246	6.66
227.464	16.9
227.682	49.66
227.9	-22.02
228.117	-17.92
228.335	10.75
228.553	25.09
228.771	-11.78
228.989	70.14
229.206	-5.63
229.424	-22.02
229.642	10.75
229.86	27.14
230.077	-42.5
230.295	27.14
230.513	29.18
230.731	41.47
230.948	27.14
231.166	-34.3
231.384	-15.87
231.601	29.18
231.819	88.57
232.037	23.04
232.254	10.75
232.472	59.9
232.689	6.66
232.907	-15.87
233.125	27.14
233.342	33.28
233.56	-73.21
233.777	-19.97
233.995	29.18
234.213	4.61
234.43	113.15
234.648	14.85
234.865	-30.21
235.083	-1.54
235.3	35.33
235.518	0.51
235.735	8.7
235.953	20.99
236.17	-15.87
236.388	-62.98
236.605	49.66
236.822	-7.68
237.04	-1.54
237.257	78.33
237.475	4.61
237.692	29.18
237.909	16.9
238.127	-42.5
238.344	86.53
238.562	23.04
238.779	2.56
238.996	-28.16
239.214	-5.63
239.431	-34.3
239.648	-34.3
239.865	41.47
240.083	51.71
240.3	-1.54
240.517	29.18
240.735	-19.97
240.952	41.47
241.169	10.75
241.386	-19.97
241.603	47.62
241.821	-17.92
242.038	23.04
242.255	20.99
242.472	29.18
242.689	12.8
242.907	37.38
243.124	23.04
243.341	25.09
243.558	-17.92
243.775	-44.54
243.992	-1.54
244.209	14.85
244.426	-3.58
244.643	-1.54
244.86	2.56
245.078	29.18
245.295	-9.73
245.512	72.19
245.729	-22.02
245.946	-40.45
246.163	-11.78
246.38	27.14
246.597	8.7
246.814	92.67
247.031	-1.54
247.248	8.7
247.464	33.28
247.681	-1.54
247.898	-17.92
248.115	14.85
248.332	-11.78
248.549	55.81
248.766	35.33
248.983	29.18
249.2	20.99
249.417	43.52
249.633	-3.58
249.85	25.09
250.067	8.7
250.284	-3.58
250.501	-9.73
250.717	39.42
250.934	14.85
251.151	-44.54
251.368	-15.87
251.585	41.47
251.801	-3.58
252.018	0.51
252.235	-19.97
252.451	31.23
252.668	-62.98
252.885	90.62
253.102	-11.78
253.318	27.14
253.535	27.14
253.752	-52.74
253.968	10.75
254.185	-22.02
254.401	-1.54
254.618	12.8
254.835	25.09
255.051	90.62
255.268	51.71
255.484	-9.73
255.701	-1.54
255.917	94.72
256.134	-1.54
256.351	31.23
256.567	-7.68
256.784	-28.16
257	-5.63
257.217	27.14
257.433	45.57
257.65	115.2
257.866	-7.68
258.082	-1.54
258.299	-42.5
258.515	25.09
258.732	-19.97
258.948	51.71
259.165	6.66
259.381	80.38
259.597	45.57
259.814	0.51
260.03	-11.78
260.246	2.56
260.463	-26.11
260.679	27.14
260.895	29.18
261.112	-1.54
261.328	-58.88
261.544	53.76
261.761	29.18
261.977	39.42
262.193	-34.3
262.409	33.28
262.626	-3.58
262.842	64
263.058	2.56
263.274	59.9
263.49	-19.97
263.707	27.14
263.923	4.61
264.139	-3.58
264.355	-1.54
264.571	-11.78
264.787	29.18
265.004	45.57
265.22	66.05
265.436	-26.11
265.652	-75.26
265.868	2.56
266.084	-15.87
266.3	-15.87
266.516	-38.4
266.732	20.99
266.948	53.76
267.164	-1.54
267.38	37.38
267.596	39.42
267.812	57.86
268.028	-7.68
268.244	-7.68
268.46	53.76
268.676	-50.69
268.892	8.7
269.108	-11.78
269.324	25.09
269.54	-28.16
269.756	-13.82
269.972	88.57
270.188	-1.54
270.403	0.51
270.619	8.7
270.835	-15.87
271.051	49.66
271.267	4.61
271.483	59.9
271.698	25.09
271.914	25.09
272.13	-36.35
272.346	64
272.562	33.28
272.777	55.81
272.993	41.47
273.209	4.61
273.425	-101.89
273.64	102.91
273.856	37.38
274.072	61.95
274.287	35.33
274.503	43.52
274.719	29.18
274.934	18.94
275.15	-9.73
275.366	66.05
275.581	14.85
275.797	-19.97
276.012	47.62
276.228	49.66
276.444	53.76
276.659	16.9
276.875	-7.68
277.09	12.8
277.306	14.85
277.521	6.66
277.737	-5.63
277.952	41.47
278.168	33.28
278.383	16.9
278.599	-11.78
278.814	107.01
279.03	37.38
279.245	-34.3
279.461	-5.63
279.676	6.66
279.892	4.61
280.107	12.8
280.322	-3.58
280.538	-32.26
280.753	-1.54
280.969	27.14
281.184	-3.58
281.399	33.28
281.615	31.23
281.83	47.62
282.045	-26.11
282.26	25.09
282.476	68.09
282.691	104.96
282.906	-11.78
283.122	23.04
283.337	-67.07
283.552	-13.82
283.767	31.23
283.983	27.14
284.198	-15.87
284.413	-19.97
284.628	-46.59
284.843	-19.97
285.058	-95.74
285.274	27.14
285.489	-36.35
285.704	53.76
285.919	6.66
286.134	-11.78
286.349	37.38
286.564	96.77
286.779	45.57
286.995	27.14
287.21	35.33
287.425	-34.3
287.64	-22.02
287.855	43.52
288.07	-9.73
288.285	45.57
288.5	39.42
288.715	94.72
288.93	20.99
289.145	31.23
289.36	-60.93
289.575	37.38
289.79	31.23
290.004	45.57
290.219	70.14
290.434	27.14
290.649	39.42
290.864	18.94
291.079	-17.92
291.294	-7.68
291.509	8.7
291.724	-34.3
291.938	-3.58
292.153	-1.54
292.368	-15.87
292.583	-15.87
292.798	51.71
293.012	37.38
293.227	16.9
293.442	-67.07
293.657	47.62
293.871	-19.97
294.086	37.38
294.301	39.42
294.516	2.56
294.73	39.42
294.945	8.7
295.16	-13.82
295.374	6.66
295.589	33.28
295.804	14.85
296.018	2.56
296.233	4.61
296.447	45.57
296.662	-3.58
296.877	59.9
297.091	-13.82
297.306	47.62
297.52	-44.54
297.735	-13.82
297.949	61.95
298.164	57.86
298.378	-1.54
298.593	8.7
298.807	-24.06
299.022	14.85
299.236	4.61
299.451	10.75
299.665	4.61
299.88	-26.11
300.094	45.57
300.309	10.75
300.523	-44.54
300.737	45.57
300.952	0.51
301.166	59.9
301.381	0.51
301.595	2.56
301.809	31.23
302.024	16.9
302.238	-9.73
302.452	-52.74
302.667	-9.73
302.881	-3.58
303.095	78.33
303.309	-40.45
303.524	2.56
303.738	37.38
303.952	8.7
304.166	33.28
304.381	14.85
304.595	41.47
304.809	16.9
305.023	31.23
305.237	59.9
305.452	51.71
305.666	41.47
305.88	45.57
306.094	-15.87
306.308	51.71
306.522	20.99
306.736	90.62
306.95	29.18
307.164	14.85
307.379	6.66
307.593	53.76
307.807	66.05
308.021	12.8
308.235	61.95
308.449	61.95
308.663	74.24
308.877	31.23
309.091	31.23
309.305	-30.21
309.519	10.75
309.733	25.09
309.947	2.56
310.161	-34.3
310.374	10.75
310.588	86.53
310.802	-28.16
311.016	31.23
311.23	51.71
311.444	2.56
311.658	49.66
311.872	-17.92
312.085	55.81
312.299	55.81
312.513	8.7
312.727	57.86
312.941	35.33
313.154	29.18
313.368	-24.06
313.582	-28.16
313.796	94.72
314.009	-40.45
314.223	61.95
314.437	-36.35
314.651	-77.31
314.864	14.85
315.078	6.66
315.292	37.38
315.505	33.28
315.719	74.24
315.933	61.95
316.146	66.05
316.36	2.56
316.573	90.62
316.787	37.38
317.001	2.56
317.214	-9.73
317.428	-24.06
317.641	53.76
317.855	70.14
318.068	25.09
318.282	39.42
318.495	45.57
318.709	43.52
318.922	45.57
319.136	47.62
319.349	51.71
319.563	20.99
319.776	94.72
319.99	39.42
320.203	20.99
320.417	-11.78
320.63	35.33
320.843	-24.06
321.057	78.33
321.27	20.99
321.483	45.57
321.697	12.8
321.91	39.42
322.124	29.18
322.337	51.71
322.55	33.28
322.763	94.72
322.977	-52.74
323.19	-1.54
323.403	6.66
323.617	12.8
323.83	-22.02
324.043	-26.11
324.256	43.52
324.469	53.76
324.683	12.8
324.896	-1.54
325.109	90.62
325.322	-17.92
325.535	14.85
325.748	-22.02
325.962	41.47
326.175	-36.35
326.388	-9.73
326.601	80.38
326.814	-22.02
327.027	0.51
327.24	39.42
327.453	-9.73
327.666	80.38
327.879	70.14
328.092	14.85
328.305	31.23
328.518	2.56
328.731	53.76
328.944	47.62
329.157	-9.73
329.37	-9.73
329.583	33.28
329.796	27.14
330.009	4.61
330.222	43.52
330.435	23.04
330.648	10.75
330.861	16.9
331.073	-58.88
331.286	64
331.499	-32.26
331.712	6.66
331.925	-17.92
332.138	74.24
332.35	-32.26
332.563	23.04
332.776	-19.97
332.989	-3.58
333.202	61.95
333.414	-5.63
333.627	39.42
333.84	66.05
334.053	-15.87
334.265	-44.54
334.478	8.7
334.691	0.51
334.903	41.47
335.116	55.81
335.329	41.47
335.541	0.51
335.754	43.52
335.966	53.76
336.179	23.04
336.392	33.28
336.604	-1.54
336.817	94.72
337.029	27.14
337.242	37.38
337.454	-13.82
337.667	53.76
337.88	14.85
338.092	76.29
338.305	10.75
338.517	12.8
338.729	102.91
338.942	29.18
339.154	-19.97
339.367	57.86
339.579	14.85
339.792	68.09
340.004	25.09
340.217	49.66
340.429	51.71
340.641	29.18
340.854	2.56
341.066	33.28
341.278	25.09
341.491	10.75
341.703	16.9
341.915	-46.59
342.128	90.62
342.34	-79.36
342.552	57.86
342.764	-1.54
342.977	27.14
343.189	10.75
343.401	57.86
343.613	-5.63
343.826	113.15
344.038	18.94
344.25	55.81
344.462	37.38
344.674	31.23
344.886	-40.45
345.099	-11.78
345.311	-3.58
345.523	25.09
345.735	-11.78
345.947	76.29
346.159	96.77
346.371	18.94
346.583	-7.68
346.795	29.18
347.007	-5.63
347.219	-17.92
347.431	-30.21
347.643	41.47
347.855	102.91
348.067	4.61
348.279	-73.21
348.491	29.18
348.703	66.05
348.915	66.05
349.127	4.61
349.339	4.61
349.551	37.38
349.763	6.66
349.975	-22.02
350.187	119.29
350.399	72.19
350.61	-26.11
350.822	6.66
351.034	39.42
351.246	72.19
351.458	-58.88
351.669	20.99
351.881	47.62
352.093	70.14
352.305	-19.97
352.517	-60.93
352.728	55.81
352.94	-11.78
353.152	72.19
353.363	76.29
353.575	-7.68
353.787	-54.78
353.999	-32.26
354.21	55.81
354.422	4.61
354.633	37.38
354.845	-38.4
355.057	41.47
355.268	-5.63
355.48	27.14
355.692	57.86
355.903	-44.54
356.115	2.56
356.326	78.33
356.538	49.66
356.749	43.52
356.961	82.43
357.172	31.23
357.384	8.7
357.595	35.33
357.807	96.77
358.018	-24.06
358.23	16.9
358.441	68.09
358.653	12.8
358.864	-1.54
359.075	84.48
359.287	37.38
359.498	51.71
359.709	10.75
359.921	-1.54
360.132	4.61
360.344	51.71
360.555	14.85
360.766	-11.78
360.977	8.7
361.189	70.14
361.4	-15.87
361.611	94.72
361.823	90.62
362.034	0.51
362.245	37.38
362.456	29.18
362.667	2.56
362.879	-7.68
363.09	31.23
363.301	2.56
363.512	57.86
363.723	-22.02
363.935	68.09
364.146	39.42
364.357	66.05
364.568	88.57
364.779	27.14
364.99	23.04
365.201	10.75
365.412	27.14
365.623	68.09
365.834	33.28
366.045	27.14
366.256	59.9
366.467	2.56
366.678	8.7
366.889	6.66
367.1	72.19
367.311	-34.3
367.522	-30.21
367.733	59.9
367.944	82.43
368.155	39.42
368.366	90.62
368.577	33.28
368.788	66.05
368.999	-58.88
369.209	10.75
369.42	-17.92
369.631	16.9
369.842	-38.4
370.053	49.66
370.264	27.14
370.474	45.57
370.685	53.76
370.896	84.48
371.107	2.56
371.317	39.42
371.528	47.62
371.739	-5.63
371.95	27.14
372.16	-67.07
372.371	18.94
372.582	82.43
372.792	29.18
373.003	18.94
373.214	29.18
373.424	-3.58
373.635	33.28
373.846	45.57
374.056	68.09
374.267	4.61
374.477	41.47
374.688	29.18
374.898	18.94
375.109	-24.06
375.319	45.57
375.53	57.86
375.74	88.57
375.951	68.09
376.161	-38.4
376.372	14.85
376.582	-19.97
376.793	51.71
377.003	10.75
377.214	-56.83
377.424	6.66
377.635	4.61
377.845	4.61
378.055	41.47
378.266	29.18
378.476	-15.87
378.686	18.94
378.897	6.66
379.107	-54.78
379.317	129.53
379.528	8.7
379.738	39.42
379.948	14.85
380.158	14.85
380.369	133.63
380.579	137.73
380.789	4.61
380.999	80.38
381.21	-19.97
381.42	88.57
381.63	-26.11
381.84	86.53
382.05	4.61
382.261	64
382.471	23.04
382.681	-13.82
382.891	78.33
383.101	94.72
383.311	37.38
383.521	51.71
383.731	37.38
383.941	16.9
384.151	90.62
384.361	64
384.571	20.99
384.781	41.47
384.991	94.72
385.201	35.33
385.411	10.75
385.621	27.14
385.831	-11.78
386.041	66.05
386.251	158.21
386.461	51.71
386.671	31.23
386.881	0.51
387.091	29.18
387.301	23.04
387.511	59.9
387.72	14.85
387.93	8.7
388.14	47.62
388.35	-3.58
388.56	29.18
388.769	4.61
388.979	41.47
389.189	20.99
389.399	12.8
389.609	61.95
389.818	27.14
390.028	20.99
390.238	-15.87
390.447	29.18
390.657	104.96
390.867	72.19
391.076	2.56
391.286	125.44
391.496	23.04
391.705	-1.54
391.915	14.85
392.125	27.14
392.334	51.71
392.544	82.43
392.753	0.51
392.963	84.48
393.172	57.86
393.382	-81.41
393.591	16.9
393.801	37.38
394.01	162.3
394.22	57.86
394.429	59.9
394.639	76.29
394.848	47.62
395.058	39.42
395.267	45.57
395.477	37.38
395.686	35.33
395.895	109.05
396.105	61.95
396.314	104.96
396.524	66.05
396.733	25.09
396.942	59.9
397.152	64
397.361	66.05
397.57	43.52
397.78	55.81
397.989	64
398.198	115.2
398.407	-13.82
398.617	107.01
398.826	121.34
399.035	104.96
399.244	55.81
399.453	82.43
399.663	107.01
399.872	2.56
400.081	117.25
400.29	41.47
400.499	57.86
400.708	55.81
400.917	80.38
401.127	111.1
401.336	8.7
401.545	102.91
401.754	31.23
401.963	125.44
402.172	55.81
402.381	33.28
402.59	61.95
402.799	41.47
403.008	96.77
403.217	31.23
403.426	76.29
403.635	23.04
403.844	147.97
404.053	78.33
404.262	72.19
404.471	45.57
404.68	76.29
404.888	94.72
405.097	41.47
405.306	80.38
405.515	104.96
405.724	14.85
405.933	90.62
406.142	70.14
406.35	162.3
406.559	141.82
406.768	139.77
406.977	147.97
407.185	100.86
407.394	174.59
407.603	70.14
407.812	94.72
408.02	125.44
408.229	145.92
408.438	154.11
408.646	137.73
408.855	147.97
409.064	168.45
409.272	123.39
409.481	123.39
409.69	150.01
409.898	207.36
410.107	244.22
410.315	160.25
410.524	197.12
410.733	162.3
410.941	201.21
411.15	215.55
411.358	217.6
411.567	270.84
411.775	279.04
411.984	287.23
412.192	209.4
412.401	285.18
412.609	199.16
412.818	289.28
413.026	256.51
413.234	332.28
413.443	272.89
413.651	305.66
413.86	322.04
414.068	424.44
414.276	436.73
414.485	340.47
414.693	356.86
414.901	340.47
415.11	469.5
415.318	391.67
415.526	395.77
415.734	553.46
415.943	475.64
416.151	449.02
416.359	530.94
416.567	549.37
416.776	512.5
416.984	619
417.192	578.04
417.4	655.86
417.608	631.29
417.817	575.99
418.025	629.24
418.233	711.16
418.441	776.69
418.649	694.77
418.857	745.97
419.065	858.61
419.273	754.16
419.481	803.32
419.689	895.47
419.897	961.01
420.105	854.51
420.313	881.14
420.521	1022.45
420.729	1016.3
420.937	999.92
421.145	1004.02
421.353	1130.99
421.561	1186.29
421.769	1151.47
421.977	1270.25
422.185	1198.57
422.393	1429.99
422.601	1382.89
422.809	1417.71
423.017	1417.71
423.224	1399.27
423.432	1456.62
423.64	1505.77
423.848	1591.78
424.056	1698.28
424.263	1761.77
424.471	1761.77
424.679	1772
424.887	1888.74
425.094	1925.6
425.302	1935.84
425.51	1905.12
425.718	2075.1
425.925	2236.89
426.133	2247.13
426.341	2335.2
426.548	2386.4
426.756	2298.33
426.964	2417.12
427.171	2494.94
427.379	2699.73
427.586	2486.75
427.794	2787.8
428.001	2902.48
428.209	3002.83
428.417	2877.91
428.624	3125.71
428.832	3119.57
429.039	3148.24
429.247	3230.16
429.454	3400.14
429.662	3520.97
429.869	3498.44
430.076	3678.66
430.284	3568.07
430.491	3748.29
430.699	3903.94
430.906	3936.71
431.114	3989.96
431.321	4243.9
431.528	4299.2
431.736	4532.67
431.943	4551.1
432.15	4516.28
432.358	4600.25
432.565	4968.88
432.772	4841.91
432.979	5099.95
433.187	5179.82
433.394	5206.45
433.601	5470.64
433.808	5468.59
434.016	5568.94
434.223	5849.51
434.43	6171.04
434.637	5960.1
434.844	6455.71
435.052	6441.37
435.259	6496.67
435.466	6431.13
435.673	6422.94
435.88	6777.24
436.087	7197.07
436.294	7373.2
436.501	7111.06
436.708	7303.57
436.915	7403.92
437.122	7958.92
437.329	7780.75
437.537	8112.52
437.743	8196.48
437.95	8094.08
438.157	8624.51
438.364	8931.7
438.571	8923.51
438.778	8954.23
438.985	9556.33
439.192	9357.68
439.399	9523.57
439.606	9286
439.813	9939.3
440.02	10652
440.227	10348.9
440.433	10185.06
440.64	10508.64
440.847	10578.27
441.054	10723.68
441.261	11348.31
441.467	11213.14
441.674	11467.09
441.881	11907.4
442.088	11995.46
442.294	11970.89
442.501	12249.41
442.708	12503.36
442.914	12812.6
443.121	13398.32
443.328	12816.7
443.534	14045.48
443.741	13660.46
443.948	13222.2
444.154	14545.19
444.361	14137.64
444.568	14336.29
444.774	14385.44
444.981	14616.86
445.187	14965.02
445.394	15589.65
445.6	15622.42
445.807	16740.61
446.013	16199.94
446.22	16480.52
446.426	17164.54
446.633	17242.36
446.839	18047.21
447.046	17008.89
447.252	18002.16
447.459	17877.23
447.665	17897.71
447.871	18807.01
448.078	19509.46
448.284	18413.8
448.491	19073.24
448.697	19644.63
448.903	20334.79
449.11	20119.76
449.316	19787.99
449.522	20099.28
449.728	20650.18
449.935	20744.39
450.141	20865.22
450.347	21606.58
450.553	20682.95
450.76	20947.14
450.966	21854.39
451.172	21340.35
451.378	22053.04
451.584	21391.55
451.791	22313.13
451.997	21932.21
452.203	22401.19
452.409	22255.79
452.615	22243.5
452.821	21442.74
453.027	21000.38
453.233	22085.81
453.44	21205.18
453.646	21821.62
453.852	21991.6
454.058	21883.06
454.264	21612.73
454.47	21862.58
454.676	21274.81
454.882	21993.65
455.088	20228.3
455.294	20445.38
455.5	20615.37
455.705	20588.74
455.911	19828.95
456.117	19671.25
456.323	19278.04
456.529	18235.63
456.735	19249.37
456.941	18786.53
457.147	18376.94
457.352	17625.33
457.558	17479.93
457.764	17309.94
457.97	17133.82
458.176	16886.01
458.381	16787.71
458.587	15898.89
458.793	16097.55
458.999	15116.57
459.204	16496.9
459.41	15829.26
459.616	14809.37
459.821	14725.41
460.027	14942.49
460.233	14360.87
460.438	13693.23
460.644	14213.42
460.85	13349.17
461.055	12906.81
461.261	12929.34
461.466	12005.7
461.672	11759.95
461.878	12794.17
462.083	11434.32
462.289	11536.72
462.494	11368.79
462.7	10867.03
462.905	10594.65
463.111	10881.37
463.316	10998.1
463.522	10635.61
463.727	10731.87
463.932	10692.96
464.138	10660.19
464.343	10824.03
464.549	10467.68
464.754	10826.07
464.959	10668.38
465.165	10703.2
465.37	10043.75
465.575	10023.27
465.781	10162.53
465.986	10371.43
466.191	9939.3
466.397	9650.54
466.602	9279.86
466.807	9412.98
467.012	9636.2
467.218	9501.04
467.423	9472.37
467.628	9707.88
467.833	10066.28
468.038	9650.54
468.244	9306.48
468.449	9617.77
468.654	9283.95
468.859	9236.85
469.064	9286
469.269	8839.55
469.474	8935.8
469.679	9085.3
469.885	8915.32
470.09	8927.61
470.295	8796.54
470.5	8552.83
470.705	8747.39
470.91	8542.59
471.115	8241.54
471.32	8610.17
471.525	8575.36
471.73	8384.9
471.935	8255.87
472.139	8014.21
472.344	8030.6
472.549	7995.78
472.754	8024.45
472.959	7852.42
473.164	7604.62
473.369	7534.99
473.574	7784.84
473.778	7815.56
473.983	7774.6
474.188	7612.81
474.393	7297.42
474.598	7420.3
474.802	7303.57
475.007	7272.85
475.212	6990.23
475.417	6824.34
475.621	6861.21
475.826	7010.71
476.031	6791.58
476.235	6683.03
476.44	6850.97
476.645	6865.3
476.849	6701.47
477.054	6662.55
477.259	6500.76
477.463	6369.69
477.668	6390.17
477.872	6484.38
478.077	6259.1
478.282	6179.23
478.486	6052.26
478.691	6021.54
478.895	6197.67
479.1	6152.61
479.304	6105.51
479.509	5833.13
479.713	5996.96
479.918	5857.7
480.122	5906.85
480.326	5855.65
480.531	5824.94
480.735	5833.13
480.94	5644.71
481.144	5888.42
481.348	5595.56
481.553	5654.95
481.757	5677.48
481.961	5845.41
482.166	5726.63
482.37	5689.77
482.574	5542.32
482.778	5482.92
482.983	5722.54
483.187	5654.95
483.391	5786.02
483.595	5720.49
483.8	5601.71
484.004	5581.23
484.208	5845.41
484.412	5646.76
484.616	5720.49
484.821	5710.25
485.025	5566.89
485.229	5589.42
485.433	5681.58
485.637	5695.91
485.841	5683.63
486.045	5710.25
486.249	5702.06
486.453	5573.03
486.657	5691.82
486.861	5638.57
487.065	5441.96
487.269	5691.82
487.473	5609.9
487.677	5597.61
487.881	5530.03
488.085	5595.56
488.289	5679.53
488.493	5732.78
488.697	5636.52
488.901	5595.56
489.105	5695.91
489.309	5618.09
489.512	5589.42
489.716	5693.87
489.92	5763.5
490.124	5665.19
490.328	5786.02
490.531	5736.87
490.735	5882.28
490.939	5894.57
491.143	5722.54
491.346	5816.74
491.55	6070.69
491.754	5781.93
491.958	6050.21
492.161	6005.16
492.365	5923.24
492.569	5999.01
492.772	5986.72
492.976	5992.87
493.18	5937.57
493.383	5996.96
493.587	6226.34
493.79	6109.6
493.994	6123.94
494.197	6183.33
494.401	6281.63
494.605	6142.37
494.808	6388.13
495.012	6363.55
495.215	6592.92
495.419	6533.53
495.622	6517.15
495.825	6506.91
496.029	6812.06
496.232	6842.78
496.436	6791.58
496.639	6898.07
496.843	7018.9
497.046	7029.14
497.249	7117.2
497.453	7190.93
497.656	7319.95
497.859	7207.31
498.063	7389.58
498.266	7510.41
498.469	7643.53
498.673	7801.22
498.876	7588.24
499.079	7750.03
499.282	7932.29
499.485	8089.99
499.689	8040.84
499.892	8212.87
500.095	7917.96
500.298	8163.72
500.501	8335.74
500.705	8681.85
500.908	8661.37
501.111	8804.73
501.314	8868.22
501.517	8864.12
501.72	9171.32
501.923	9058.68
502.126	9245.04
502.329	9255.28
502.532	9314.67
502.735	9517.42
502.938	9857.39
503.141	9769.32
503.344	9830.76
503.547	9853.29
503.75	10246.5
503.953	10410.34
504.156	10477.92
504.359	10318.18
504.562	10439.01
504.765	10778.97
504.968	11006.3
505.17	11174.23
505.373	11120.98
505.576	11448.66
505.779	11405.65
505.982	11626.83
506.185	11788.62
506.387	11960.65
506.59	11870.54
506.793	12378.44
506.996	12271.94
507.198	12599.62
507.401	12663.1
507.604	12587.33
507.807	13109.56
508.009	12927.29
508.212	13257.01
508.415	13457.71
508.617	13564.21
508.82	13812.01
509.022	13824.3
509.225	13789.49
509.428	14096.68
509.63	14416.16
509.833	14281
510.035	14788.89
510.238	14586.15
510.44	15120.67
510.643	15214.87
510.845	15391
511.048	15384.85
511.25	15718.67
511.453	15819.02
511.655	16478.47
511.858	15966.48
512.06	16496.9
512.262	16396.55
512.465	16578.82
512.667	16689.41
512.87	17148.15
513.072	17432.82
513.274	17510.64
513.477	17869.04
513.679	17846.51
513.881	18288.87
514.084	18395.37
514.286	18628.84
514.488	18520.29
514.69	19157.21
514.893	19357.91
515.095	19423.45
515.297	19622.1
515.499	19861.71
515.701	20029.65
515.904	20082.89
516.106	20693.19
516.308	20539.59
516.51	21080.25
516.712	21131.45
516.914	21334.2
517.116	21498.04
517.318	21360.83
517.52	21887.15
517.722	22044.85
517.925	22438.06
518.127	22640.81
518.329	22902.95
518.531	22849.7
518.733	23619.74
518.935	23484.57
519.136	23685.27
519.338	23961.75
519.54	24330.38
519.742	24871.04
519.944	24643.72
520.146	25331.84
520.348	25553.02
520.55	25258.11
520.752	25432.19
520.954	25872.5
521.155	25612.41
521.357	26216.56
521.559	26609.77
521.761	27070.56
521.963	27060.32
522.164	27279.46
522.366	27738.2
522.568	27807.83
522.77	27674.71
522.971	28227.67
523.173	28186.71
523.375	28457.04
523.576	28842.06
523.778	28901.45
523.98	29089.86
524.181	29040.71
524.383	29548.61
524.584	29841.46
524.786	29853.75
524.988	29855.8
525.189	30244.91
525.391	30429.23
525.592	30613.55
525.794	30668.84
525.995	30869.54
526.197	30894.12
526.398	31117.35
526.6	31563.81
526.801	31653.92
527.003	31729.69
527.204	31408.16
527.406	32231.44
527.607	31651.87
527.808	31954.97
528.01	32294.93
528.211	32081.94
528.412	32933.9
528.614	32485.39
528.815	32669.71
529.016	33177.61
529.218	32862.22
529.419	32743.44
529.62	33146.89
529.822	33058.82
530.023	33134.6
530.224	33234.95
530.425	32974.86
530.626	33284.1
530.828	33273.86
531.029	33814.52
531.23	33742.85
531.431	33556.48
531.632	33763.32
531.833	33812.48
532.035	33753.08
532.236	34068.47
532.437	34017.27
532.638	33904.63
532.839	34123.77
533.04	34156.53
533.241	33869.82
533.442	34703.34
533.643	34240.5
533.844	34021.37
534.045	34400.24
534.246	33826.81
534.447	34289.65
534.648	34115.58
534.849	34510.83
535.05	34363.38
535.251	34404.34
535.451	34347
535.652	34322.42
535.853	34297.84
536.054	34240.5
536.255	34740.21
536.456	34109.43
536.657	34992.11
536.857	34584.56
537.058	34146.29
537.259	34740.21
537.46	34609.14
537.66	34332.66
537.861	34439.15
538.062	34322.42
538.263	34461.68
538.463	34433.01
538.664	34588.66
538.865	34605.04
539.065	34760.69
539.266	34324.47
539.466	34858.99
539.667	34160.63
539.868	34822.12
540.068	34371.57
540.269	34414.58
540.469	34734.06
540.67	34373.62
540.87	34717.68
541.071	34828.27
541.271	34803.69
541.472	34283.51
541.672	34457.59
541.873	34258.93
542.073	33894.39
542.274	34705.39
542.474	34846.7
542.675	34523.12
542.875	34711.53
543.075	34394.1
543.276	34144.25
543.476	34586.61
543.676	34316.28
543.877	34717.68
544.077	34428.91
544.277	34758.64
544.478	34373.62
544.678	34656.24
544.878	34383.86
545.078	34390
545.279	34039.8
545.479	34332.66
545.679	34324.47
545.879	34537.46
546.079	34504.69
546.28	34449.39
546.48	34248.69
546.68	34541.55
546.88	34766.83
547.08	34666.48
547.28	34519.03
547.48	34336.76
547.68	34412.53
547.88	33935.35
548.081	34303.99
548.281	34340.85
548.481	34750.45
548.681	34799.6
548.881	34717.68
549.081	34451.44
549.28	34375.67
549.48	34299.89
549.68	34263.03
549.88	34770.93
550.08	34238.45
550.28	34332.66
550.48	34553.84
550.68	34699.25
550.88	34252.79
551.08	34383.86
551.279	34193.4
551.479	34394.1
551.679	34537.46
551.879	34439.15
552.079	34271.22
552.278	34365.43
552.478	34502.64
552.678	34582.51
552.878	34111.48
553.077	34156.53
553.277	34017.27
553.477	34594.8
553.676	34078.71
553.876	34172.92
554.076	34191.35
554.275	33984.51
554.475	33908.73
554.674	34103.29
554.874	33894.39
555.074	34111.48
555.273	34068.47
555.473	33873.92
555.672	34191.35
555.872	33929.21
556.071	33730.56
556.271	34447.35
556.47	33748.99
556.67	33345.54
556.869	33538.05
557.068	33966.07
557.268	33415.17
557.467	33673.21
557.667	33241.09
557.866	33703.93
558.065	33237
558.265	33200.13
558.464	33183.75
558.663	33708.03
558.863	33064.97
559.062	33447.94
559.261	32890.89
559.461	33302.53
559.66	32753.68
559.859	32974.86
560.058	32808.97
560.258	32792.59
560.457	32620.56
560.656	32800.78
560.855	32747.53
561.054	32595.98
561.253	32423.95
561.453	32667.66
561.652	32894.99
561.851	32557.07
562.05	32704.52
562.249	32290.84
562.448	32372.75
562.647	32264.21
562.846	31948.82
563.045	32290.84
563.244	31885.34
563.443	32462.86
563.642	31703.07
563.841	32022.55
564.04	31928.34
564.239	31940.63
564.438	31893.53
564.637	31631.39
564.836	32049.17
565.035	31588.38
565.234	31893.53
565.432	31705.12
565.631	31623.2
565.83	31555.61
566.029	31014.95
566.228	31125.54
566.427	31344.67
566.625	30914.6
566.824	30871.59
567.023	31305.76
567.222	30539.82
567.42	31148.07
567.619	30756.91
567.818	30926.89
568.016	30543.92
568.215	30701.61
568.414	30322.74
568.612	30550.06
568.811	30408.75
569.01	30375.98
569.208	30296.11
569.407	30625.84
569.605	30158.9
569.804	30646.32
570.002	29618.24
570.201	30074.93
570.4	29937.72
570.598	29691.96
570.797	29464.64
570.995	29196.35
571.193	29098.05
571.392	29595.71
571.59	29155.4
571.789	29126.72
571.987	29177.92
572.186	28942.41
572.384	28737.61
572.582	28899.4
572.781	28815.43
572.979	28635.21
573.177	28813.38
573.376	28694.6
573.574	28510.28
573.772	28778.57
573.971	28448.85
574.169	28229.71
574.367	27992.15
574.565	28246.1
574.763	27883.61
574.962	27971.67
575.16	27680.86
575.358	27717.72
575.556	27361.37
575.754	27926.61
575.952	27435.1
576.151	27662.43
576.349	27244.64
576.547	27123.81
576.745	27265.12
576.943	27347.04
577.141	26937.44
577.339	27207.78
577.537	26652.78
577.735	26845.29
577.933	26687.59
578.131	26394.73
578.329	26488.94
578.527	26071.15
578.725	26144.88
578.923	26341.49
579.121	26253.42
579.319	26062.96
579.516	25985.14
579.714	25948.28
579.912	25979
580.11	25839.73
580.308	25804.92
580.506	25352.32
580.704	25491.58
580.901	25526.39
581.099	25737.34
581.297	25143.42
581.495	25270.4
581.692	25505.91
581.89	24840.32
582.088	25436.28
582.285	25176.19
582.483	25069.7
582.681	25110.66
582.878	24746.12
583.076	24574.09
583.274	24629.38
583.471	24170.64
583.669	24701.06
583.866	24242.32
584.064	24397.96
584.262	23926.93
584.459	24275.09
584.657	24053.9
584.854	24414.35
585.052	23885.97
585.249	23926.93
585.447	24051.86
585.644	23750.81
585.841	23623.83
586.039	23756.95
586.236	23486.62
586.434	23451.8
586.631	23224.48
586.828	23226.53
587.026	23556.25
587.223	23302.3
587.42	22851.75
587.618	23064.74
587.815	22941.86
588.012	22833.32
588.21	22511.78
588.407	23056.54
588.604	23054.5
588.801	22546.6
588.999	22466.73
589.196	22364.33
589.393	22581.42
589.59	22589.61
589.787	22169.77
589.984	22034.61
590.182	21891.25
590.379	22263.98
590.576	22180.01
590.773	21964.98
590.97	21999.79
591.167	21686.45
591.364	21672.12
591.561	21866.67
591.758	21522.62
591.955	21495.99
592.152	21518.52
592.349	21557.43
592.546	21608.63
592.743	21473.46
592.94	21194.94
593.137	21346.49
593.334	21301.43
593.531	20979.9
593.727	21295.29
593.924	20912.32
594.121	20818.11
594.318	21285.05
594.515	20670.66
594.712	20984
594.908	20740.29
595.105	20576.45
595.302	20570.31
595.499	20664.52
595.696	20480.2
595.892	20162.76
596.089	20533.45
596.286	20418.76
596.482	19951.82
596.679	20377.8
596.876	20203.72
597.072	20023.5
597.269	20027.6
597.466	20089.04
597.662	19634.39
597.859	19833.04
598.055	19695.83
598.252	19626.2
598.448	19796.18
598.645	19642.58
598.841	19482.84
599.038	19368.15
599.234	19275.99
599.431	19443.93
599.627	19189.98
599.824	18995.42
600.02	19237.08
600.217	19146.97
600.413	18979.04
600.609	18847.97
600.806	18790.63
601.002	18919.65
601.198	18673.89
601.395	18768.1
601.591	18489.57
601.787	18677.99
601.984	18731.23
602.18	18637.03
602.376	18264.3
602.572	18209
602.769	18254.06
602.965	18090.22
603.161	18563.3
603.357	18182.38
603.553	18024.68
603.75	17907.95
603.946	17848.56
604.142	17887.47
604.338	17567.99
604.534	17813.74
604.73	17561.84
604.926	17514.74
605.122	17428.73
605.318	17862.9
605.514	17094.91
605.71	17277.18
605.906	17279.22
606.102	17254.65
606.298	17408.25
606.494	17125.63
606.69	17311.99
606.886	17113.34
607.082	16744.7
607.278	17205.5
607.474	16701.7
607.67	16875.77
607.866	16460.04
608.062	16900.35
608.257	16492.8
608.453	16619.78
608.649	16660.74
608.845	16464.13
609.041	16408.84
609.236	16554.24
609.432	16443.65
609.628	16032.01
609.824	16396.55
610.019	16124.17
610.215	16189.7
610.411	16175.37
610.606	16306.44
610.802	16044.3
610.998	15896.85
611.193	15993.1
611.389	15751.44
611.584	15808.78
611.78	15669.52
611.976	15687.95
612.171	15698.19
612.367	15491.35
612.562	15603.99
612.758	15421.72
612.953	15573.27
613.149	15493.4
613.344	15161.62
613.539	15464.72
613.735	15311.13
613.93	15266.07
614.126	15333.65
614.321	15280.41
614.517	15098.14
614.712	15018.27
614.907	14795.04
615.103	15122.71
615.298	15212.82
615.493	15014.17
615.688	14504.23
615.884	15104.28
616.079	14676.26
616.274	14569.76
616.47	14725.41
616.665	14962.97
616.86	14610.72
617.055	14643.49
617.25	14635.3
617.445	14729.5
617.641	14278.95
617.836	14623.01
618.031	14176.55
618.226	14369.06
618.421	14174.5
618.616	14258.47
618.811	14008.62
619.006	14231.85
619.201	13881.64
619.396	14111.02
619.591	13699.37
619.786	13832.49
619.981	13521.2
620.176	13562.16
620.371	13623.6
620.566	13537.59
620.761	13488.43
620.956	13660.46
621.151	13433.14
621.346	13269.3
621.541	13084.98
621.735	13404.47
621.93	13054.26
622.125	13130.04
622.32	12923.19
622.515	13123.9
622.709	12878.14
622.904	12947.77
623.099	12640.58
623.294	12677.44
623.488	12493.12
623.683	12548.42
623.878	12323.14
624.072	12411.2
624.267	12314.95
624.462	12239.17
624.656	12261.7
624.851	12357.96
625.046	11964.75
625.24	11989.32
625.435	11739.47
625.629	11710.8
625.824	11712.85
626.018	11616.59
626.213	11389.27
626.407	11669.84
626.602	11366.74
626.796	11327.83
626.991	11587.92
627.185	11434.32
627.38	11370.83
627.574	11387.22
627.768	10989.91
627.963	10959.19
628.157	11192.66
628.352	11116.89
628.546	10834.27
628.74	10813.79
628.935	10971.48
629.129	10778.97
629.323	10615.13
629.517	10645.85
629.712	10631.52
629.906	10563.93
630.1	10385.76
630.294	10584.41
630.489	10295.65
630.683	10309.99
630.877	10180.96
631.071	9959.78
631.265	10103.14
631.459	9982.31
631.653	10084.71
631.848	10060.13
632.042	10017.13
632.236	10043.75
632.43	10037.61
632.624	9832.81
632.818	9851.24
633.012	9736.56
633.206	9664.88
633.4	9628.01
633.594	9576.81
633.788	9367.92
633.982	9392.5
634.176	9460.08
634.369	9253.23
634.563	9159.03
634.757	9185.65
634.951	9326.96
635.145	9173.36
635.339	9222.52
635.533	9247.09
635.726	9232.76
635.92	8943.99
636.114	8855.93
636.308	8878.46
636.501	8919.42
636.695	8876.41
636.889	8843.64
637.083	8493.44
637.276	8503.68
637.47	8436.1
637.664	8700.28
637.857	8495.49
638.051	8479.1
638.244	8323.46
638.438	8282.5
638.632	8335.74
638.825	8081.8
639.019	8143.24
639.212	8118.66
639.406	8219.01
639.599	8157.57
639.793	7967.11
639.986	7909.77
640.18	7911.82
640.373	8006.02
640.567	7776.65
640.76	7758.22
640.954	7842.18
641.147	7704.97
641.34	7752.07
641.534	7754.12
641.727	7735.69
641.92	7506.32
642.114	7432.59
642.307	7516.56
642.5	7401.87
642.694	7244.18
642.887	7324.05
643.08	7428.49
643.273	7287.18
643.467	7307.66
643.66	7197.07
643.853	7106.96
644.046	6834.58
644.239	6932.89
644.432	7047.57
644.626	6844.82
644.819	6777.24
645.012	6959.51
645.205	6748.57
645.398	6814.1
645.591	6709.66
645.784	6803.86
645.977	6488.48
646.17	6580.64
646.363	6599.07
646.556	6371.74
646.749	6549.92
646.942	6308.26
647.135	6384.03
647.328	6328.74
647.521	6424.99
647.714	6304.16
647.907	6248.86
648.099	6191.52
648.292	6285.73
648.485	6207.91
648.678	6039.97
648.871	5972.39
649.064	5843.37
649.256	6078.88
649.449	5833.13
649.642	5855.65
649.835	5759.4
650.027	5917.09
650.22	5722.54
650.413	5700.01
650.605	5683.63
650.798	5745.06
650.991	5624.23
651.183	5644.71
651.376	5585.32
651.568	5597.61
651.761	5620.14
651.954	5460.4
652.146	5456.3
652.339	5540.27
652.531	5474.73
652.724	5349.81
652.916	5296.56
653.109	5312.94
653.301	5454.25
653.494	5327.28
653.686	5095.86
653.879	5161.39
654.071	5018.04
654.263	5167.54
654.456	5089.71
654.648	4934.07
654.84	5061.04
655.033	4913.59
655.225	4886.97
655.417	4819.38
655.61	4876.73
655.802	4833.72
655.994	4786.61
656.186	4792.76
656.379	4757.94
656.571	4903.35
656.763	4796.85
656.955	4671.93
657.148	4757.94
657.34	4581.82
657.532	4643.26
657.724	4563.39
657.916	4415.93
658.108	4495.8
658.3	4465.08
658.492	4364.73
658.684	4327.87
658.876	4250.05
659.068	4286.91
659.26	4286.91
659.452	4297.15
659.644	4268.48
659.836	4252.1
660.028	4329.92
660.22	4307.39
660.412	4176.32
660.604	4086.21
660.796	4092.35
660.988	4192.7
661.18	4000.19
661.372	4037.06
661.563	4026.82
661.755	3926.47
661.947	3936.71
662.139	3840.45
662.331	3885.51
662.522	3762.63
662.714	4010.43
662.906	3828.17
663.097	3779.01
663.289	3684.81
663.481	3711.43
663.673	3721.67
663.864	3574.22
664.056	3805.64
664.247	3629.51
664.439	3670.47
664.631	3647.94
664.822	3467.72
665.014	3424.72
665.205	3613.13
665.397	3439.05
665.588	3582.41
665.78	3414.48
665.971	3396.04
666.163	3559.88
666.354	3387.85
666.546	3361.23
666.737	3371.47
666.929	3516.87
667.12	3318.22
667.311	3324.37
667.503	3207.63
667.694	3205.58
667.885	3232.21
668.077	3314.13
668.268	3150.29
668.459	3181.01
668.651	3146.19
668.842	3209.68
669.033	3230.16
669.224	3078.61
669.416	3236.3
669.607	3162.58
669.798	3107.28
669.989	3140.05
670.18	2986.45
670.371	3072.47
670.563	3049.94
670.754	3004.88
670.945	2968.02
671.136	3031.51
671.327	3109.33
671.518	3013.07
671.709	3086.8
671.9	2988.5
672.091	2943.44
672.282	2922.96
672.473	2890.2
672.664	3021.27
672.855	2898.39
673.046	2929.11
673.237	2707.93
673.428	2877.91
673.619	2746.84
673.809	2918.87
674	2773.46
674.191	2853.33
674.382	2845.14
674.573	2789.85
674.764	2785.75
674.954	2800.09
675.145	2666.97
675.336	2693.59
675.527	2730.45
675.717	2767.32
675.908	2683.35
676.099	2593.24
676.289	2767.32
676.48	2755.03
676.671	2738.65
676.861	2703.83
677.052	2685.4
677.243	2572.76
677.433	2722.26
677.624	2568.66
677.814	2548.19
678.005	2689.49
678.195	2662.87
678.386	2589.14
678.576	2609.62
678.767	2677.21
678.957	2656.73
679.148	2570.71
679.338	2599.38
679.529	2601.43
679.719	2583
679.909	2589.14
680.1	2646.49
680.29	2542.04
680.481	2550.23
680.671	2578.9
680.861	2511.32
681.052	2466.27
681.242	2398.68
681.432	2570.71
681.622	2544.09
681.813	2433.5
682.003	2511.32
682.193	2443.74
682.383	2488.79
682.573	2599.38
682.764	2499.03
682.954	2501.08
683.144	2501.08
683.334	2441.69
683.524	2400.73
683.714	2431.45
683.904	2314.72
684.094	2480.6
684.284	2501.08
684.474	2466.27
684.664	2374.11
684.854	2453.98
685.044	2423.26
685.234	2370.01
685.424	2380.25
685.614	2451.93
685.804	2353.63
685.994	2511.32
686.184	2406.88
686.374	2345.44
686.564	2353.63
686.753	2394.59
686.943	2347.48
687.133	2449.88
687.323	2253.28
687.513	2345.44
687.702	2240.99
687.892	2292.19
688.082	2308.57
688.272	2404.83
688.461	2308.57
688.651	2353.63
688.841	2292.19
689.03	2298.33
689.22	2265.57
689.41	2331.1
689.599	2359.77
689.789	2382.3
689.979	2234.85
690.168	2314.72
690.358	2384.35
690.547	2306.52
690.737	2374.11
690.926	2333.15
691.116	2351.58
691.305	2251.23
691.495	2337.24
691.684	2279.9
691.874	2277.85
692.063	2269.66
692.252	2304.48
692.442	2361.82
692.631	2372.06
692.82	2271.71
693.01	2226.65
693.199	2216.41
693.388	2265.57
693.578	2396.64
693.767	2286.05
693.956	2259.42
694.146	2367.96
694.335	2236.89
694.524	2185.69
694.713	2298.33
694.902	2269.66
695.092	2238.94
695.281	2261.47
695.47	2257.37
695.659	2304.48
695.848	2445.79
696.037	2240.99
696.226	2359.77
696.415	2228.7
696.604	2267.61
696.793	2357.72
696.982	2302.43
697.171	2462.17
697.36	2314.72
697.549	2331.1
697.738	2312.67
697.927	2263.52
698.116	2222.56
698.305	2212.32
698.494	2142.69
698.683	2269.66
698.872	2245.09
699.061	2152.93
699.25	2193.89
699.438	2347.48
699.627	2267.61
699.816	2281.95
700.005	2308.57
700.193	2312.67
700.382	2261.47
700.571	2267.61
700.76	2361.82
700.948	2312.67
701.137	2228.7
701.326	2197.98
701.514	2271.71
701.703	2245.09
701.892	2181.6
702.08	2261.47
702.269	2249.18
702.457	2234.85
702.646	2300.38
702.834	2214.37
703.023	2185.69
703.212	2157.02
703.4	2148.83
703.589	2134.5
703.777	2273.76
703.965	2204.13
704.154	2159.07
704.342	2304.48
704.531	2136.54
704.719	2095.58
704.907	2204.13
705.096	2163.17
705.284	2136.54
705.472	2257.37
705.661	2206.17
705.849	2208.22
706.037	2177.5
706.226	2114.02
706.414	2177.5
706.602	2068.96
706.79	2107.87
706.979	2083.3
707.167	2128.35
707.355	2142.69
707.543	2214.37
707.731	2118.11
707.919	2167.26
708.107	2064.86
708.296	2101.73
708.484	2040.29
708.672	2091.49
708.86	1995.23
709.048	2138.59
709.236	2060.77
709.424	1968.61
709.612	2005.47
709.8	2079.2
709.988	1968.61
710.176	2007.52
710.364	2005.47
710.551	2028
710.739	1954.27
710.927	2034.14
711.115	2034.14
711.303	1968.61
711.491	1819.11
711.679	1933.79
711.866	1999.33
712.054	1997.28
712.242	1925.6
712.43	2001.38
712.617	1964.51
712.805	1919.46
712.993	1892.84
713.181	1917.41
713.368	1845.73
713.556	1903.07
713.744	1849.83
713.931	1888.74
714.119	1864.16
714.306	1878.5
714.494	2040.29
714.682	1917.41
714.869	1757.67
715.057	1997.28
715.244	1829.35
715.432	1733.09
715.619	1864.16
715.807	1778.15
715.994	1825.25
716.182	1872.36
716.369	1849.83
716.556	1804.77
716.744	1735.14
716.931	1767.91
717.119	1800.68
717.306	1890.79
717.493	1747.43
717.681	1827.3
717.868	1694.18
718.055	1753.57
718.242	1737.19
718.43	1720.81
718.617	1694.18
718.804	1722.85
718.991	1849.83
719.179	1743.33
719.366	1651.17
719.553	1751.53
719.74	1608.17
719.927	1688.04
720.114	1751.53
720.301	1688.04
720.488	1665.51
720.676	1597.93
720.863	1638.89
721.05	1546.73
721.237	1616.36
721.424	1589.74
721.611	1624.55
721.798	1685.99
721.985	1667.56
722.172	1511.91
722.358	1544.68
722.545	1473
722.732	1546.73
722.919	1595.88
723.106	1567.21
723.293	1542.63
723.48	1524.2
723.667	1569.26
723.853	1548.78
724.04	1513.96
724.227	1587.69
724.414	1489.39
724.6	1516.01
724.787	1366.51
724.974	1485.29
725.161	1454.57
725.347	1358.32
725.534	1464.81
725.72	1516.01
725.907	1468.91
726.094	1409.51
726.28	1495.53
726.467	1464.81
726.653	1444.33
726.84	1423.85
727.027	1513.96
727.213	1393.13
727.4	1415.66
727.586	1516.01
727.773	1464.81
727.959	1432.04
728.145	1354.22
728.332	1352.17
728.518	1419.75
728.705	1378.79
728.891	1384.94
729.077	1409.51
729.264	1436.14
729.45	1346.03
729.636	1446.38
729.823	1368.56
730.009	1343.98
730.195	1343.98
730.382	1341.93
730.568	1391.08
730.754	1321.45
730.94	1325.55
731.126	1309.16
731.313	1378.79
731.499	1315.31
731.685	1372.65
731.871	1313.26
732.057	1286.64
732.243	1282.54
732.429	1274.35
732.615	1368.56
732.801	1286.64
732.987	1296.88
733.173	1358.32
733.359	1253.87
733.545	1325.55
733.731	1278.44
733.917	1276.4
734.103	1294.83
734.289	1327.6
734.475	1217.01
734.661	1266.16
734.847	1212.91
735.033	1249.77
735.219	1133.04
735.404	1227.25
735.59	1233.39
735.776	1192.43
735.962	1102.32
736.148	1253.87
736.333	1221.1
736.519	1245.68
736.705	1237.49
736.89	1227.25
737.076	1137.13
737.262	1151.47
737.447	1235.44
737.633	1130.99
737.819	1169.9
738.004	1108.46
738.19	1186.29
738.375	1180.14
738.561	1155.57
738.747	1210.86
738.932	1145.33
739.118	1169.9
739.303	1110.51
739.489	1174
739.674	1114.61
739.859	1192.43
740.045	1147.37
740.23	1141.23
740.416	1325.55
740.601	1104.37
740.786	1116.65
740.972	1069.55
741.157	1087.98
741.342	1028.59
741.528	1163.76
741.713	1124.85
741.898	1151.47
742.084	1141.23
742.269	1122.8
742.454	1118.7
742.639	1034.74
742.824	1128.94
743.01	1026.54
743.195	1065.46
743.38	1038.83
743.565	1036.78
743.75	1079.79
743.935	993.78
744.12	1006.06
744.305	1040.88
744.49	1001.97
744.675	1090.03
744.86	1004.02
745.045	973.3
745.23	905.71
745.415	1006.06
745.6	936.43
745.785	922.1
745.97	942.58
746.155	952.82
746.34	969.2
746.525	950.77
746.71	872.95
746.895	913.91
747.079	958.96
747.264	940.53
747.449	948.72
747.634	928.24
747.819	899.57
748.003	893.43
748.188	834.04
748.373	909.81
748.557	936.43
748.742	977.39
748.927	825.84
749.111	850.42
749.296	928.24
749.481	899.57
749.665	897.52
749.85	793.08
750.034	780.79
750.219	915.95
750.404	852.47
750.588	791.03
750.773	831.99
750.957	815.6
751.141	770.55
751.326	846.32
751.51	850.42
751.695	786.93
751.879	872.95
752.064	788.98
752.248	827.89
752.432	846.32
752.617	739.83
752.801	856.56
752.985	737.78
753.17	889.33
753.354	729.59
753.538	727.54
753.722	768.5
753.907	713.21
754.091	711.16
754.275	723.44
754.459	768.5
754.643	778.74
754.828	776.69
755.012	793.08
755.196	700.92
755.38	670.2
755.564	768.5
755.748	643.57
755.932	723.44
756.116	791.03
756.3	756.21
756.484	662.01
756.668	651.77
756.852	713.21
757.036	664.05
757.22	694.77
757.404	655.86
757.588	594.42
757.772	643.57
757.956	608.76
758.14	619
758.323	537.08
758.507	573.94
758.691	586.23
758.875	643.57
759.059	676.34
759.242	633.33
759.426	643.57
759.61	625.14
759.794	612.85
759.977	616.95
760.161	629.24
760.345	586.23
760.528	651.77
760.712	571.9
760.895	547.32
761.079	561.66
761.263	578.04
761.446	565.75
761.63	608.76
761.813	633.33
761.997	563.7
762.18	584.18
762.364	498.17
762.547	528.89
762.731	590.33
762.914	528.89
763.098	492.02
763.281	573.94
763.464	526.84
763.648	553.46
763.831	506.36
764.015	467.45
764.198	520.7
764.381	504.31
764.564	565.75
764.748	555.51
764.931	586.23
765.114	578.04
765.297	590.33
765.481	592.37
765.664	498.17
765.847	440.83
766.03	526.84
766.213	403.96
766.397	526.84
766.58	463.35
766.763	479.74
766.946	528.89
767.129	483.83
767.312	559.61
767.495	449.02
767.678	506.36
767.861	494.07
768.044	516.6
768.227	537.08
768.41	508.41
768.593	489.98
768.776	428.54
768.959	516.6
769.142	520.7
769.324	481.78
769.507	477.69
769.69	446.97
769.873	514.55
770.056	496.12
770.239	412.15
770.421	440.83
770.604	428.54
770.787	455.16
770.97	434.68
771.152	463.35
771.335	434.68
771.518	436.73
771.7	453.11
771.883	463.35
772.066	399.87
772.248	465.4
772.431	475.64
772.613	465.4
772.796	473.59
772.978	412.15
773.161	459.26
773.343	379.39
773.526	360.95
773.708	451.07
773.891	401.91
774.073	383.48
774.256	403.96
774.438	434.68
774.621	379.39
774.803	363
774.985	385.53
775.168	426.49
775.35	373.24
775.532	354.81
775.715	369.15
775.897	356.86
776.079	356.86
776.261	334.33
776.444	375.29
776.626	369.15
776.808	434.68
776.99	320
777.173	322.04
777.355	311.8
777.537	332.28
777.719	438.78
777.901	403.96
778.083	363
778.265	371.19
778.447	344.57
778.629	420.35
778.811	348.67
778.993	360.95
779.175	289.28
779.357	389.63
779.539	305.66
779.721	266.75
779.903	256.51
780.085	233.98
780.267	313.85
780.449	332.28
780.631	365.05
780.812	401.91
780.994	242.17
781.176	313.85
781.358	315.9
781.54	346.62
781.721	338.43
781.903	303.61
782.085	270.84
782.267	385.53
782.448	346.62
782.63	276.99
782.812	215.55
782.993	299.52
783.175	285.18
783.357	293.37
783.538	201.21
783.72	338.43
783.901	301.56
784.083	270.84
784.264	293.37
784.446	217.6
784.627	240.12
784.809	260.6
784.99	250.36
785.172	205.31
785.353	201.21
785.535	270.84
785.716	225.79
785.897	244.22
786.079	279.04
786.26	233.98
786.441	260.6
786.623	147.97
786.804	281.08
786.985	193.02
787.167	227.84
787.348	188.93
787.529	268.8
787.71	252.41
787.891	168.45
788.073	182.78
788.254	184.83
788.435	166.4
788.616	260.6
788.797	188.93
788.978	244.22
789.159	209.4
789.34	178.69
789.522	166.4
789.703	164.35
789.884	207.36
790.065	281.08
790.246	242.17
790.427	238.08
790.607	240.12
790.788	143.87
790.969	154.11
791.15	242.17
791.331	152.06
791.512	186.88
791.693	190.97
791.874	246.27
792.054	115.2
792.235	182.78
792.416	272.89
792.597	233.98
792.778	160.25
792.958	199.16
793.139	209.4
793.32	158.21
793.5	186.88
793.681	172.54
793.862	102.91
794.042	281.08
794.223	164.35
794.404	86.53
794.584	156.16
794.765	88.57
794.945	211.45
795.126	197.12
795.306	121.34
795.487	207.36
795.667	213.5
795.848	119.29
796.028	168.45
796.209	180.73
796.389	90.62
796.57	178.69
796.75	156.16
796.93	158.21
797.111	170.49
797.291	80.38
797.471	135.68
797.652	80.38
797.832	107.01
798.012	176.64
798.192	129.53
798.373	188.93
798.553	109.05
798.733	166.4
798.913	143.87
799.093	178.69
799.274	170.49
799.454	102.91
799.634	176.64
799.814	135.68
799.994	104.96
800.174	94.72
800.354	100.86
800.534	176.64
800.714	152.06
800.894	193.02
801.074	104.96
801.254	154.11
801.434	156.16
801.614	135.68
801.794	162.3
801.974	342.52
802.154	94.72
802.334	176.64
802.514	143.87
802.693	133.63
802.873	164.35
803.053	78.33
803.233	104.96
803.413	94.72
803.592	102.91
803.772	125.44
803.952	104.96
804.131	100.86
804.311	166.4
804.491	166.4
804.67	127.49
804.85	107.01
805.03	137.73
805.209	145.92
805.389	113.15
805.568	135.68
805.748	88.57
805.928	100.86
806.107	184.83
806.287	78.33
806.466	133.63
806.646	137.73
806.825	80.38
807.004	76.29
807.184	86.53
807.363	109.05
807.543	129.53
807.722	104.96
807.901	82.43
808.081	39.42
808.26	84.48
808.439	137.73
808.619	111.1
808.798	76.29
808.977	74.24
809.156	104.96
809.336	51.71
809.515	90.62
809.694	84.48
809.873	96.77
810.052	109.05
810.231	47.62
810.411	90.62
810.59	102.91
810.769	84.48
810.948	107.01
811.127	29.18
811.306	53.76
811.485	96.77
811.664	96.77
811.843	31.23
812.022	162.3
812.201	2.56
812.38	66.05
812.559	45.57
812.737	64
812.916	78.33
813.095	76.29
813.274	55.81
813.453	135.68
813.632	41.47
813.811	64
813.989	147.97
814.168	117.25
814.347	66.05
814.526	121.34
814.704	61.95
814.883	94.72
815.062	53.76
815.24	20.99
815.419	102.91
815.598	39.42
815.776	47.62
815.955	47.62
816.133	43.52
816.312	94.72
816.49	55.81
816.669	41.47
816.847	10.75
817.026	84.48
817.204	61.95
817.383	82.43
817.561	109.05
817.74	51.71
817.918	76.29
818.097	45.57
818.275	31.23
818.453	74.24
818.632	59.9
818.81	96.77
818.988	74.24
819.167	20.99
819.345	25.09
819.523	29.18
819.701	107.01
819.879	25.09
820.058	23.04
820.236	20.99
820.414	98.81
820.592	4.61
820.77	14.85
820.948	80.38
821.127	31.23
821.305	37.38
821.483	12.8
821.661	23.04
821.839	55.81
822.017	66.05
822.195	80.38
822.373	51.71
822.551	-5.63
822.729	53.76
822.907	117.25
823.085	31.23
823.262	86.53
823.44	64
823.618	35.33
823.796	-15.87
823.974	107.01
824.152	45.57
824.329	37.38
824.507	57.86
824.685	78.33
824.863	57.86
825.04	23.04
825.218	61.95
825.396	-17.92
825.574	80.38
825.751	18.94
825.929	-26.11
826.107	14.85
826.284	37.38
826.462	113.15
826.639	107.01
826.817	35.33
826.994	49.66
827.172	23.04
827.349	2.56
827.527	66.05
827.704	39.42
827.882	45.57
828.059	82.43
828.237	41.47
828.414	25.09
828.591	61.95
828.769	76.29
828.946	27.14
829.124	86.53
829.301	12.8
829.478	41.47
829.655	66.05
829.833	47.62
830.01	8.7
830.187	0.51
830.364	51.71
830.542	39.42
830.719	41.47
830.896	33.28
831.073	41.47
831.25	25.09
831.427	20.99
831.604	41.47
831.782	66.05
831.959	23.04
832.136	57.86
832.313	12.8
832.49	33.28
832.667	14.85
832.844	61.95
833.021	27.14
833.198	45.57
833.374	25.09
833.551	82.43
833.728	25.09
833.905	12.8
834.082	-7.68
834.259	31.23
834.436	-5.63
834.612	6.66
834.789	55.81
834.966	16.9
835.143	51.71
835.319	10.75
835.496	-19.97
835.673	43.52
835.85	39.42
836.026	6.66
836.203	37.38
836.38	76.29
836.556	2.56
836.733	25.09
836.909	-9.73
837.086	10.75
837.262	59.9
837.439	82.43
837.616	74.24
837.792	8.7
837.968	49.66
838.145	20.99
838.321	12.8
838.498	31.23
838.674	88.57
838.851	-7.68
839.027	59.9
839.203	14.85
839.38	98.81
839.556	53.76
839.732	90.62
839.909	51.71
840.085	49.66
840.261	59.9
840.437	80.38
840.614	10.75
840.79	-9.73
840.966	29.18
841.142	14.85
841.318	-9.73
841.494	51.71
841.671	6.66
841.847	51.71
842.023	-3.58
842.199	57.86
842.375	-40.45
842.551	14.85
842.727	2.56
842.903	100.86
843.079	25.09
843.255	12.8
843.431	-3.58
843.607	16.9
843.783	10.75
843.959	53.76
844.134	98.81
844.31	35.33
844.486	12.8
844.662	-1.54
844.838	35.33
845.013	31.23
845.189	14.85
845.365	-9.73
845.541	94.72
845.716	20.99
845.892	-7.68
846.068	18.94
846.244	12.8
846.419	37.38
846.595	104.96
846.77	-5.63
846.946	84.48
847.122	-7.68
847.297	12.8
847.473	0.51
847.648	10.75
847.824	23.04
847.999	20.99
848.175	-52.74
848.35	-24.06
848.526	37.38
848.701	12.8
848.876	23.04
849.052	-15.87
849.227	53.76
849.403	41.47
849.578	-38.4
849.753	23.04
849.929	16.9
850.104	-19.97
850.279	16.9
850.454	16.9
850.63	59.9
850.805	-83.45
850.98	43.52
851.155	23.04
851.33	8.7
851.505	-48.64
851.681	-11.78
851.856	23.04
852.031	8.7
852.206	41.47
852.381	64
852.556	20.99
852.731	53.76
852.906	18.94
853.081	10.75
853.256	59.9
853.431	123.39
853.606	2.56
853.781	45.57
853.956	10.75
854.131	82.43
854.305	47.62
854.48	-62.98
854.655	-5.63
854.83	35.33
855.005	45.57
855.18	88.57
855.354	25.09
855.529	4.61
855.704	-13.82
855.879	47.62
856.053	2.56
856.228	29.18
856.403	2.56
856.577	6.66
856.752	31.23
856.926	-11.78
857.101	76.29
857.276	-19.97
857.45	4.61
857.625	-11.78
857.799	6.66
857.974	90.62
858.148	68.09
858.323	-22.02
858.497	10.75
858.672	31.23
858.846	12.8
859.02	14.85
859.195	61.95
859.369	2.56
859.543	2.56
859.718	-3.58
859.892	-26.11
860.066	25.09
860.241	-17.92
860.415	-13.82
860.589	10.75
860.763	23.04
860.938	-34.3
861.112	59.9
861.286	-60.93
861.46	45.57
861.634	12.8
861.808	18.94
861.982	18.94
862.157	-40.45
862.331	29.18
862.505	-28.16
862.679	-3.58
862.853	53.76
863.027	-19.97
863.201	47.62
863.375	4.61
863.549	70.14
863.722	-26.11
863.896	41.47
864.07	2.56
864.244	31.23
864.418	-40.45
864.592	45.57
864.766	51.71
864.939	0.51
865.113	-42.5
865.287	20.99
865.461	51.71
865.634	-81.41
865.808	31.23
865.982	-71.17
866.156	-28.16
866.329	12.8
866.503	-13.82
866.676	31.23
866.85	-1.54
867.024	-52.74
867.197	23.04
867.371	-1.54
867.544	10.75
867.718	-65.02
867.891	8.7
868.065	-46.59
868.238	55.81
868.412	72.19
868.585	14.85
868.759	10.75
868.932	-22.02
869.105	35.33
869.279	31.23
869.452	70.14
869.625	37.38
869.799	27.14
869.972	4.61
870.145	-28.16
870.319	-5.63
870.492	-1.54
870.665	-17.92
870.838	31.23
871.011	-40.45
871.185	47.62
871.358	-69.12
871.531	20.99
871.704	-26.11
871.877	66.05
872.05	-46.59
872.223	6.66
872.396	-26.11
872.569	2.56
872.742	27.14
872.915	-13.82
873.088	-24.06
873.261	4.61
873.434	-34.3
873.607	-34.3
873.78	-26.11
873.953	-91.65
874.126	70.14
874.299	10.75
874.471	-93.69
874.644	-3.58
874.817	-7.68
874.99	45.57
875.163	12.8
875.335	51.71
875.508	-50.69
875.681	37.38
875.853	23.04
876.026	-5.63
876.199	12.8
876.371	-19.97
876.544	61.95
876.717	-19.97
876.889	18.94
877.062	-5.63
877.234	-13.82
877.407	-3.58
877.579	-19.97
877.752	43.52
877.924	-5.63
878.097	47.62
878.269	14.85
878.442	-54.78
878.614	-22.02
878.786	0.51
878.959	18.94
879.131	-19.97
879.303	20.99
879.476	33.28
879.648	-15.87
879.82	16.9
879.993	18.94
880.165	70.14
880.337	-40.45
880.509	-7.68
880.681	-46.59
880.854	6.66
881.026	4.61
881.198	-28.16
881.37	-79.36
881.542	55.81
881.714	-1.54
881.886	-11.78
882.058	31.23
882.23	-28.16
882.402	10.75
882.574	-15.87
882.746	-9.73
882.918	4.61
883.09	64
883.262	25.09
883.434	-15.87
883.606	-9.73
883.778	-22.02
883.95	-9.73
884.122	59.9
884.293	-40.45
884.465	18.94
884.637	104.96
884.809	-34.3
884.98	-13.82
885.152	-32.26
885.324	31.23
885.496	18.94
885.667	16.9
885.839	14.85
886.011	27.14
886.182	12.8
886.354	-1.54
886.525	4.61
886.697	-7.68
886.869	-34.3
887.04	70.14
887.212	-9.73
887.383	-73.21
887.555	-93.69
887.726	84.48
887.897	-73.21
888.069	4.61
888.24	37.38
888.412	14.85
888.583	-85.5
888.754	0.51
888.926	-3.58
889.097	-58.88
889.268	4.61
889.44	6.66
889.611	-50.69
889.782	-58.88
889.953	-58.88
890.125	-32.26
890.296	47.62
890.467	-38.4
890.638	23.04
890.809	45.57
890.98	-7.68
891.151	14.85
891.323	-17.92
891.494	-69.12
891.665	-95.74
891.836	18.94
892.007	6.66
892.178	-7.68
892.349	2.56
892.52	74.24
892.691	-19.97
892.862	-15.87
893.032	4.61
893.203	47.62
893.374	8.7
893.545	2.56
893.716	8.7
893.887	-67.07
894.057	8.7
894.228	-42.5
894.399	27.14
894.57	41.47
894.74	-19.97
894.911	0.51
895.082	-3.58
895.253	10.75
895.423	4.61
895.594	-30.21
895.764	-11.78
895.935	-30.21
896.106	-83.45
896.276	57.86
896.447	-19.97
896.617	-26.11
896.788	12.8
896.958	18.94
897.129	51.71
897.299	-7.68
897.47	70.14
897.64	-26.11
897.81	2.56
897.981	49.66
898.151	29.18
898.322	-58.88
898.492	23.04
898.662	74.24
898.832	-30.21
899.003	-9.73
899.173	2.56
899.343	-73.21
899.513	-62.98
