Data from USB4F104151__130__13-57-59-677.txt Node

Date: Thu Mar 13 13:57:59 EDT 2025
User: louis
Spectrometer: USB4F10415
Trigger mode: 4
Integration Time (sec): 1.000000E-2
Scans to average: 1
Electric dark correction enabled: true
Nonlinearity correction enabled: false
Boxcar width: 0
XAxis mode: Wavelengths
Number of Pixels in Spectrum: 3648
>>>>>Begin Spectral Data<<<<<
178.204	-58.88
178.424	-58.88
178.644	-58.88
178.864	-5.63
179.084	-81.41
179.304	27.14
179.524	-50.69
179.744	-1.54
179.964	-15.87
180.184	18.94
180.404	49.66
180.624	-28.16
180.844	0.51
181.064	14.85
181.283	-28.16
181.503	31.23
181.723	-17.92
181.943	-15.87
182.163	49.66
182.383	59.9
182.602	-7.68
182.822	6.66
183.042	70.14
183.262	0.51
183.482	94.72
183.701	6.66
183.921	45.57
184.141	33.28
184.361	27.14
184.58	8.7
184.8	-19.97
185.02	25.09
185.239	47.62
185.459	53.76
185.679	16.9
185.898	88.57
186.118	35.33
186.338	10.75
186.557	45.57
186.777	20.99
186.997	-30.21
187.216	-17.92
187.436	70.14
187.655	33.28
187.875	4.61
188.095	33.28
188.314	43.52
188.534	33.28
188.753	86.53
188.973	39.42
189.192	66.05
189.412	-38.4
189.631	10.75
189.851	-11.78
190.07	14.85
190.29	12.8
190.509	2.56
190.729	6.66
190.948	-28.16
191.168	61.95
191.387	-15.87
191.607	29.18
191.826	-56.83
192.045	-7.68
192.265	4.61
192.484	-19.97
192.704	57.86
192.923	31.23
193.142	43.52
193.362	-28.16
193.581	41.47
193.8	51.71
194.02	-1.54
194.239	0.51
194.458	10.75
194.678	47.62
194.897	51.71
195.116	4.61
195.335	27.14
195.555	0.51
195.774	16.9
195.993	20.99
196.212	-67.07
196.432	57.86
196.651	39.42
196.87	23.04
197.089	45.57
197.308	20.99
197.528	37.38
197.747	84.48
197.966	18.94
198.185	27.14
198.404	49.66
198.623	4.61
198.842	41.47
199.062	119.29
199.281	66.05
199.5	0.51
199.719	-5.63
199.938	51.71
200.157	12.8
200.376	8.7
200.595	64
200.814	-32.26
201.033	-1.54
201.252	-97.79
201.471	0.51
201.69	18.94
201.909	35.33
202.128	35.33
202.347	78.33
202.566	29.18
202.785	53.76
203.004	-13.82
203.223	125.44
203.442	49.66
203.661	39.42
203.879	55.81
204.098	53.76
204.317	4.61
204.536	47.62
204.755	25.09
204.974	27.14
205.193	53.76
205.411	107.01
205.63	31.23
205.849	47.62
206.068	29.18
206.287	-13.82
206.505	72.19
206.724	80.38
206.943	16.9
207.162	59.9
207.381	-15.87
207.599	102.91
207.818	-3.58
208.037	45.57
208.255	31.23
208.474	18.94
208.693	27.14
208.911	49.66
209.13	113.15
209.349	45.57
209.567	72.19
209.786	64
210.005	16.9
210.223	27.14
210.442	-116.22
210.661	35.33
210.879	70.14
211.098	47.62
211.316	100.86
211.535	0.51
211.753	27.14
211.972	41.47
212.191	6.66
212.409	107.01
212.628	-1.54
212.846	82.43
213.065	86.53
213.283	64
213.502	37.38
213.72	47.62
213.938	-54.78
214.157	6.66
214.375	31.23
214.594	84.48
214.812	8.7
215.031	-26.11
215.249	2.56
215.467	121.34
215.686	39.42
215.904	-7.68
216.122	4.61
216.341	27.14
216.559	68.09
216.778	-46.59
216.996	10.75
217.214	84.48
217.432	-22.02
217.651	-73.21
217.869	-34.3
218.087	23.04
218.306	-13.82
218.524	49.66
218.742	-17.92
218.96	53.76
219.179	-24.06
219.397	55.81
219.615	-15.87
219.833	51.71
220.051	41.47
220.27	61.95
220.488	25.09
220.706	51.71
220.924	-5.63
221.142	33.28
221.36	55.81
221.578	107.01
221.796	49.66
222.015	39.42
222.233	6.66
222.451	31.23
222.669	-7.68
222.887	25.09
223.105	10.75
223.323	10.75
223.541	-83.45
223.759	29.18
223.977	4.61
224.195	10.75
224.413	-26.11
224.631	-40.45
224.849	-26.11
225.067	-7.68
225.285	-15.87
225.503	72.19
225.721	29.18
225.939	78.33
226.157	6.66
226.375	27.14
226.592	-7.68
226.81	117.25
227.028	109.05
227.246	49.66
227.464	47.62
227.682	55.81
227.9	12.8
228.117	37.38
228.335	14.85
228.553	37.38
228.771	33.28
228.989	43.52
229.206	78.33
229.424	78.33
229.642	16.9
229.86	64
230.077	41.47
230.295	16.9
230.513	39.42
230.731	59.9
230.948	39.42
231.166	29.18
231.384	76.29
231.601	35.33
231.819	-11.78
232.037	127.49
232.254	49.66
232.472	80.38
232.689	53.76
232.907	43.52
233.125	2.56
233.342	96.77
233.56	35.33
233.777	-67.07
233.995	45.57
234.213	-7.68
234.43	53.76
234.648	12.8
234.865	-65.02
235.083	47.62
235.3	64
235.518	68.09
235.735	29.18
235.953	-1.54
236.17	35.33
236.388	6.66
236.605	57.86
236.822	39.42
237.04	35.33
237.257	43.52
237.475	-11.78
237.692	31.23
237.909	18.94
238.127	43.52
238.344	12.8
238.562	59.9
238.779	27.14
238.996	-17.92
239.214	68.09
239.431	76.29
239.648	-17.92
239.865	31.23
240.083	129.53
240.3	39.42
240.517	29.18
240.735	55.81
240.952	33.28
241.169	-1.54
241.386	2.56
241.603	107.01
241.821	-13.82
242.038	45.57
242.255	78.33
242.472	-30.21
242.689	-7.68
242.907	68.09
243.124	8.7
243.341	86.53
243.558	2.56
243.775	-26.11
243.992	-9.73
244.209	51.71
244.426	6.66
244.643	86.53
244.86	25.09
245.078	-65.02
245.295	-48.64
245.512	43.52
245.729	-5.63
245.946	12.8
246.163	-13.82
246.38	31.23
246.597	-7.68
246.814	31.23
247.031	66.05
247.248	33.28
247.464	70.14
247.681	-34.3
247.898	66.05
248.115	16.9
248.332	43.52
248.549	84.48
248.766	-44.54
248.983	16.9
249.2	61.95
249.417	82.43
249.633	-5.63
249.85	31.23
250.067	51.71
250.284	-22.02
250.501	33.28
250.717	45.57
250.934	0.51
251.151	74.24
251.368	35.33
251.585	127.49
251.801	-24.06
252.018	18.94
252.235	8.7
252.451	-17.92
252.668	35.33
252.885	72.19
253.102	55.81
253.318	90.62
253.535	-38.4
253.752	-15.87
253.968	39.42
254.185	45.57
254.401	39.42
254.618	33.28
254.835	10.75
255.051	51.71
255.268	68.09
255.484	131.58
255.701	27.14
255.917	80.38
256.134	-11.78
256.351	14.85
256.567	43.52
256.784	51.71
257	78.33
257.217	2.56
257.433	90.62
257.65	55.81
257.866	25.09
258.082	41.47
258.299	27.14
258.515	4.61
258.732	6.66
258.948	35.33
259.165	-28.16
259.381	18.94
259.597	39.42
259.814	61.95
260.03	-22.02
260.246	66.05
260.463	-28.16
260.679	45.57
260.895	6.66
261.112	23.04
261.328	27.14
261.544	66.05
261.761	35.33
261.977	61.95
262.193	-9.73
262.409	43.52
262.626	31.23
262.842	64
263.058	84.48
263.274	35.33
263.49	0.51
263.707	-48.64
263.923	-9.73
264.139	25.09
264.355	-28.16
264.571	55.81
264.787	115.2
265.004	64
265.22	4.61
265.436	-13.82
265.652	37.38
265.868	39.42
266.084	-48.64
266.3	-5.63
266.516	23.04
266.732	76.29
266.948	-17.92
267.164	98.81
267.38	51.71
267.596	88.57
267.812	98.81
268.028	-40.45
268.244	20.99
268.46	-22.02
268.676	72.19
268.892	45.57
269.108	43.52
269.324	-15.87
269.54	4.61
269.756	64
269.972	80.38
270.188	-42.5
270.403	35.33
270.619	18.94
270.835	-28.16
271.051	-28.16
271.267	74.24
271.483	84.48
271.698	20.99
271.914	43.52
272.13	10.75
272.346	23.04
272.562	49.66
272.777	47.62
272.993	-5.63
273.209	-3.58
273.425	35.33
273.64	57.86
273.856	39.42
274.072	25.09
274.287	39.42
274.503	43.52
274.719	94.72
274.934	74.24
275.15	84.48
275.366	47.62
275.581	6.66
275.797	68.09
276.012	23.04
276.228	0.51
276.444	49.66
276.659	37.38
276.875	47.62
277.09	98.81
277.306	25.09
277.521	64
277.737	6.66
277.952	131.58
278.168	35.33
278.383	8.7
278.599	55.81
278.814	43.52
279.03	25.09
279.245	57.86
279.461	31.23
279.676	23.04
279.892	10.75
280.107	49.66
280.322	74.24
280.538	27.14
280.753	104.96
280.969	55.81
281.184	49.66
281.399	-9.73
281.615	74.24
281.83	78.33
282.045	45.57
282.26	57.86
282.476	-11.78
282.691	92.67
282.906	-22.02
283.122	-11.78
283.337	-7.68
283.552	25.09
283.767	61.95
283.983	31.23
284.198	14.85
284.413	6.66
284.628	6.66
284.843	66.05
285.058	59.9
285.274	82.43
285.489	10.75
285.704	47.62
285.919	16.9
286.134	76.29
286.349	-9.73
286.564	-1.54
286.779	74.24
286.995	6.66
287.21	35.33
287.425	14.85
287.64	-19.97
287.855	39.42
288.07	55.81
288.285	72.19
288.5	68.09
288.715	53.76
288.93	-19.97
289.145	8.7
289.36	12.8
289.575	39.42
289.79	51.71
290.004	76.29
290.219	74.24
290.434	2.56
290.649	45.57
290.864	57.86
291.079	41.47
291.294	88.57
291.509	25.09
291.724	10.75
291.938	18.94
292.153	-7.68
292.368	14.85
292.583	29.18
292.798	-3.58
293.012	59.9
293.227	45.57
293.442	86.53
293.657	102.91
293.871	12.8
294.086	20.99
294.301	96.77
294.516	45.57
294.73	59.9
294.945	35.33
295.16	8.7
295.374	-32.26
295.589	14.85
295.804	14.85
296.018	-5.63
296.233	66.05
296.447	92.67
296.662	39.42
296.877	-15.87
297.091	33.28
297.306	2.56
297.52	-17.92
297.735	4.61
297.949	-17.92
298.164	31.23
298.378	100.86
298.593	33.28
298.807	-48.64
299.022	33.28
299.236	6.66
299.451	45.57
299.665	45.57
299.88	49.66
300.094	-50.69
300.309	68.09
300.523	16.9
300.737	20.99
300.952	113.15
301.166	31.23
301.381	47.62
301.595	23.04
301.809	27.14
302.024	37.38
302.238	41.47
302.452	23.04
302.667	-7.68
302.881	121.34
303.095	33.28
303.309	72.19
303.524	4.61
303.738	12.8
303.952	4.61
304.166	61.95
304.381	-9.73
304.595	76.29
304.809	35.33
305.023	49.66
305.237	80.38
305.452	43.52
305.666	-44.54
305.88	51.71
306.094	10.75
306.308	39.42
306.522	25.09
306.736	23.04
306.95	55.81
307.164	43.52
307.379	100.86
307.593	104.96
307.807	39.42
308.021	57.86
308.235	6.66
308.449	-34.3
308.663	84.48
308.877	129.53
309.091	84.48
309.305	0.51
309.519	-26.11
309.733	109.05
309.947	-5.63
310.161	-1.54
310.374	-54.78
310.588	8.7
310.802	88.57
311.016	-62.98
311.23	84.48
311.444	25.09
311.658	20.99
311.872	129.53
312.085	-9.73
312.299	61.95
312.513	23.04
312.727	84.48
312.941	23.04
313.154	12.8
313.368	18.94
313.582	55.81
313.796	47.62
314.009	88.57
314.223	55.81
314.437	57.86
314.651	96.77
314.864	-1.54
315.078	74.24
315.292	55.81
315.505	10.75
315.719	41.47
315.933	84.48
316.146	10.75
316.36	27.14
316.573	31.23
316.787	49.66
317.001	29.18
317.214	39.42
317.428	47.62
317.641	16.9
317.855	131.58
318.068	23.04
318.282	45.57
318.495	41.47
318.709	6.66
318.922	2.56
319.136	80.38
319.349	6.66
319.563	-15.87
319.776	74.24
319.99	16.9
320.203	33.28
320.417	8.7
320.63	37.38
320.843	123.39
321.057	20.99
321.27	55.81
321.483	-11.78
321.697	74.24
321.91	33.28
322.124	6.66
322.337	49.66
322.55	4.61
322.763	20.99
322.977	31.23
323.19	57.86
323.403	92.67
323.617	-9.73
323.83	-9.73
324.043	39.42
324.256	31.23
324.469	25.09
324.683	27.14
324.896	66.05
325.109	61.95
325.322	100.86
325.535	-46.59
325.748	2.56
325.962	4.61
326.175	-15.87
326.388	72.19
326.601	14.85
326.814	68.09
327.027	82.43
327.24	127.49
327.453	14.85
327.666	104.96
327.879	4.61
328.092	35.33
328.305	55.81
328.518	49.66
328.731	-9.73
328.944	-7.68
329.157	-1.54
329.37	-48.64
329.583	68.09
329.796	76.29
330.009	20.99
330.222	37.38
330.435	37.38
330.648	-15.87
330.861	41.47
331.073	45.57
331.286	94.72
331.499	33.28
331.712	43.52
331.925	35.33
332.138	25.09
332.35	45.57
332.563	53.76
332.776	61.95
332.989	25.09
333.202	64
333.414	64
333.627	14.85
333.84	47.62
334.053	27.14
334.265	4.61
334.478	59.9
334.691	39.42
334.903	39.42
335.116	-13.82
335.329	4.61
335.541	55.81
335.754	39.42
335.966	23.04
336.179	68.09
336.392	47.62
336.604	14.85
336.817	-19.97
337.029	31.23
337.242	41.47
337.454	16.9
337.667	74.24
337.88	8.7
338.092	2.56
338.305	90.62
338.517	33.28
338.729	27.14
338.942	10.75
339.154	4.61
339.367	31.23
339.579	23.04
339.792	33.28
340.004	47.62
340.217	47.62
340.429	33.28
340.641	10.75
340.854	55.81
341.066	61.95
341.278	86.53
341.491	49.66
341.703	76.29
341.915	-19.97
342.128	113.15
342.34	-1.54
342.552	47.62
342.764	10.75
342.977	-30.21
343.189	57.86
343.401	43.52
343.613	47.62
343.826	49.66
344.038	41.47
344.25	66.05
344.462	92.67
344.674	111.1
344.886	14.85
345.099	88.57
345.311	107.01
345.523	78.33
345.735	2.56
345.947	61.95
346.159	76.29
346.371	64
346.583	23.04
346.795	-1.54
347.007	6.66
347.219	8.7
347.431	39.42
347.643	2.56
347.855	29.18
348.067	102.91
348.279	-11.78
348.491	18.94
348.703	64
348.915	27.14
349.127	47.62
349.339	47.62
349.551	-32.26
349.763	43.52
349.975	82.43
350.187	92.67
350.399	117.25
350.61	61.95
350.822	88.57
351.034	41.47
351.246	27.14
351.458	14.85
351.669	51.71
351.881	23.04
352.093	78.33
352.305	45.57
352.517	-9.73
352.728	64
352.94	64
353.152	61.95
353.363	78.33
353.575	88.57
353.787	59.9
353.999	29.18
354.21	96.77
354.422	61.95
354.633	135.68
354.845	76.29
355.057	-58.88
355.268	66.05
355.48	80.38
355.692	39.42
355.903	84.48
356.115	-1.54
356.326	-9.73
356.538	137.73
356.749	84.48
356.961	43.52
357.172	53.76
357.384	94.72
357.595	94.72
357.807	109.05
358.018	41.47
358.23	66.05
358.441	-40.45
358.653	37.38
358.864	47.62
359.075	45.57
359.287	16.9
359.498	86.53
359.709	43.52
359.921	25.09
360.132	6.66
360.344	64
360.555	64
360.766	82.43
360.977	8.7
361.189	66.05
361.4	74.24
361.611	16.9
361.823	-5.63
362.034	31.23
362.245	-7.68
362.456	-1.54
362.667	33.28
362.879	57.86
363.09	37.38
363.301	74.24
363.512	10.75
363.723	-9.73
363.935	43.52
364.146	64
364.357	47.62
364.568	43.52
364.779	18.94
364.99	86.53
365.201	39.42
365.412	82.43
365.623	6.66
365.834	27.14
366.045	31.23
366.256	82.43
366.467	66.05
366.678	121.34
366.889	61.95
367.1	14.85
367.311	102.91
367.522	20.99
367.733	74.24
367.944	55.81
368.155	-1.54
368.366	64
368.577	33.28
368.788	64
368.999	53.76
369.209	90.62
369.42	129.53
369.631	57.86
369.842	111.1
370.053	64
370.264	10.75
370.474	47.62
370.685	23.04
370.896	55.81
371.107	41.47
371.317	18.94
371.528	-13.82
371.739	31.23
371.95	25.09
372.16	123.39
372.371	35.33
372.582	66.05
372.792	23.04
373.003	82.43
373.214	-17.92
373.424	39.42
373.635	76.29
373.846	35.33
374.056	80.38
374.267	113.15
374.477	12.8
374.688	55.81
374.898	98.81
375.109	96.77
375.319	117.25
375.53	-5.63
375.74	57.86
375.951	-46.59
376.161	90.62
376.372	16.9
376.582	23.04
376.793	-7.68
377.003	-19.97
377.214	31.23
377.424	47.62
377.635	-17.92
377.845	45.57
378.055	-1.54
378.266	16.9
378.476	39.42
378.686	129.53
378.897	-9.73
379.107	27.14
379.317	123.39
379.528	55.81
379.738	86.53
379.948	49.66
380.158	31.23
380.369	45.57
380.579	98.81
380.789	29.18
380.999	66.05
381.21	35.33
381.42	27.14
381.63	61.95
381.84	135.68
382.05	57.86
382.261	14.85
382.471	57.86
382.681	92.67
382.891	66.05
383.101	66.05
383.311	80.38
383.521	0.51
383.731	137.73
383.941	33.28
384.151	64
384.361	51.71
384.571	4.61
384.781	57.86
384.991	84.48
385.201	72.19
385.411	82.43
385.621	125.44
385.831	35.33
386.041	123.39
386.251	86.53
386.461	129.53
386.671	-7.68
386.881	31.23
387.091	16.9
387.301	16.9
387.511	64
387.72	84.48
387.93	14.85
388.14	10.75
388.35	64
388.56	82.43
388.769	-1.54
388.979	70.14
389.189	16.9
389.399	61.95
389.609	61.95
389.818	66.05
390.028	-13.82
390.238	33.28
390.447	-19.97
390.657	72.19
390.867	20.99
391.076	109.05
391.286	70.14
391.496	113.15
391.705	92.67
391.915	55.81
392.125	66.05
392.334	66.05
392.544	45.57
392.753	88.57
392.963	86.53
393.172	94.72
393.382	80.38
393.591	80.38
393.801	-1.54
394.01	20.99
394.22	72.19
394.429	57.86
394.639	45.57
394.848	135.68
395.058	10.75
395.267	107.01
395.477	117.25
395.686	37.38
395.895	92.67
396.105	92.67
396.314	70.14
396.524	188.93
396.733	55.81
396.942	78.33
397.152	76.29
397.361	39.42
397.57	86.53
397.78	90.62
397.989	33.28
398.198	104.96
398.407	88.57
398.617	49.66
398.826	57.86
399.035	74.24
399.244	74.24
399.453	82.43
399.663	139.77
399.872	90.62
400.081	98.81
400.29	92.67
400.499	90.62
400.708	96.77
400.917	57.86
401.127	154.11
401.336	160.25
401.545	88.57
401.754	205.31
401.963	188.93
402.172	102.91
402.381	115.2
402.59	123.39
402.799	68.09
403.008	115.2
403.217	102.91
403.426	2.56
403.635	170.49
403.844	143.87
404.053	143.87
404.262	88.57
404.471	229.88
404.68	164.35
404.888	176.64
405.097	186.88
405.306	170.49
405.515	174.59
405.724	127.49
405.933	133.63
406.142	139.77
406.35	111.1
406.559	215.55
406.768	137.73
406.977	180.73
407.185	131.58
407.394	242.17
407.603	137.73
407.812	215.55
408.02	203.26
408.229	207.36
408.438	197.12
408.646	209.4
408.855	227.84
409.064	225.79
409.272	205.31
409.481	164.35
409.69	285.18
409.898	276.99
410.107	287.23
410.315	320
410.524	303.61
410.733	295.42
410.941	213.5
411.15	270.84
411.358	365.05
411.567	315.9
411.775	383.48
411.984	354.81
412.192	367.1
412.401	532.98
412.609	442.87
412.818	389.63
413.026	426.49
413.234	520.7
413.443	432.63
413.651	602.61
413.86	510.46
414.068	596.47
414.276	590.33
414.485	559.61
414.693	471.54
414.901	580.09
415.11	600.57
415.318	664.05
415.526	578.04
415.734	674.29
415.943	731.64
416.151	805.36
416.359	754.16
416.567	801.27
416.776	823.8
416.984	874.99
417.192	868.85
417.4	846.32
417.608	907.76
417.817	907.76
418.025	985.58
418.233	1079.79
418.441	1042.93
418.649	1118.7
418.857	1114.61
419.065	1067.5
419.273	1167.85
419.481	1245.68
419.689	1262.06
419.897	1260.01
420.105	1343.98
420.313	1341.93
420.521	1358.32
420.729	1446.38
420.937	1479.15
421.145	1563.11
421.353	1702.37
421.561	1749.48
421.769	1765.86
421.977	1862.12
422.185	1667.56
422.393	1907.17
422.601	2007.52
422.809	2028
423.017	1997.28
423.224	2105.82
423.432	2179.55
423.64	2243.04
423.848	2451.93
424.056	2327
424.263	2509.27
424.471	2476.51
424.679	2587.1
424.887	2669.02
425.094	2705.88
425.302	2849.24
425.51	2836.95
425.718	2949.59
425.925	3013.07
426.133	3103.18
426.341	3213.77
426.548	3369.42
426.756	3357.13
426.964	3473.87
427.171	3635.66
427.379	3738.05
427.586	3914.18
427.794	3992
428.001	4143.55
428.209	4262.33
428.417	4280.77
428.624	4561.34
428.832	4563.39
429.039	4440.51
429.247	4397.5
429.454	5102
429.662	5280.18
429.869	4956.6
430.076	5235.12
430.284	5110.19
430.491	5218.74
430.699	5669.29
430.906	5695.91
431.114	5865.89
431.321	6058.4
431.528	6023.59
431.736	6398.37
431.943	6793.62
432.15	6470.05
432.358	6699.42
432.565	7055.76
432.772	6758.81
432.979	7209.36
433.187	7295.38
433.394	7358.86
433.601	7903.62
433.808	7952.77
434.016	7975.3
434.223	8208.77
434.43	8690.04
434.637	8669.56
434.844	9079.16
435.052	9113.97
435.259	9267.57
435.466	9404.78
435.673	9144.69
435.88	9646.44
436.087	10264.93
436.294	10203.49
436.501	9976.17
436.708	10244.45
436.915	10461.54
437.122	11141.46
437.329	10994.01
437.537	11254.1
437.743	11540.82
437.95	11417.94
438.157	12024.14
438.364	12718.4
438.571	12362.05
438.778	12591.42
438.985	13533.49
439.192	13168.95
439.399	13515.06
439.606	13080.89
439.813	14147.88
440.02	14881.05
440.227	14450.98
440.433	14324.01
440.64	14915.87
440.847	14899.48
441.054	15227.16
441.261	16238.86
441.467	15989
441.674	16214.28
441.881	16859.39
442.088	16939.26
442.294	16812.29
442.501	17043.71
442.708	17432.82
442.914	18149.61
443.121	18893.02
443.328	18243.82
443.534	19749.07
443.741	19110.11
443.948	18925.79
444.154	20465.86
444.361	20166.86
444.568	20140.24
444.774	20250.83
444.981	20768.96
445.187	20883.65
445.394	21813.43
445.6	21758.13
445.807	23804.05
446.013	22894.75
446.22	23249.05
446.426	23869.59
446.633	24086.67
446.839	24948.87
447.046	24043.67
447.252	25528.44
447.459	25864.31
447.665	25548.92
447.871	26191.98
448.078	27662.43
448.284	26144.88
448.491	26939.49
448.697	28340.3
448.903	28536.91
449.11	28563.53
449.316	27955.29
449.522	28692.55
449.728	29157.44
449.935	29237.31
450.141	29837.37
450.347	30281.78
450.553	29009.99
450.76	29521.98
450.966	30548.01
451.172	30386.22
451.378	30951.46
451.584	30253.11
451.791	31213.6
451.997	31322.15
452.203	31436.83
452.409	31326.24
452.615	31524.89
452.821	30029.88
453.027	29820.98
453.233	31600.67
453.44	30103.6
453.646	30238.77
453.852	30539.82
454.058	31094.82
454.264	30222.39
454.47	30912.55
454.676	30124.08
454.882	31088.68
455.088	28192.85
455.294	28633.16
455.5	29384.77
455.705	28874.82
455.911	28153.94
456.117	27707.48
456.323	27627.61
456.529	25987.19
456.735	27201.63
456.941	26443.88
457.147	25804.92
457.352	25206.91
457.558	24834.18
457.764	24858.76
457.97	24283.28
458.176	23783.57
458.381	24217.74
458.587	22780.07
458.793	22689.96
458.999	21409.98
459.204	23197.85
459.41	22677.67
459.616	20906.18
459.821	21115.07
460.027	20965.57
460.233	20529.35
460.438	19515.61
460.644	19845.33
460.85	18933.98
461.055	18587.88
461.261	18473.19
461.466	17146.11
461.672	16713.98
461.878	17924.33
462.083	16828.67
462.289	16453.89
462.494	16185.61
462.7	15352.09
462.905	15053.08
463.111	15642.9
463.316	15681.81
463.522	15223.06
463.727	15466.77
463.932	15171.86
464.138	15114.52
464.343	15155.48
464.549	14833.95
464.754	15173.91
464.959	15108.38
465.165	15024.41
465.37	14399.78
465.575	14039.34
465.781	14663.97
465.986	14709.02
466.191	13904.17
466.397	13560.11
466.602	13099.32
466.807	13553.97
467.012	13900.08
467.218	13648.18
467.423	13408.56
467.628	13371.7
467.833	14170.41
468.038	13619.5
468.244	13316.4
468.449	13848.88
468.654	13390.13
468.859	13164.86
469.064	12898.62
469.269	12765.5
469.474	12679.49
469.679	13103.42
469.885	12423.49
470.09	12794.17
470.295	12405.06
470.5	12194.12
470.705	12517.7
470.91	12061
471.115	12015.94
471.32	12134.73
471.525	12171.59
471.73	11802.96
471.935	11794.76
472.139	11348.31
472.344	11530.58
472.549	11520.34
472.754	11313.49
472.959	10953.05
473.164	10887.51
473.369	10905.95
473.574	11016.54
473.778	10936.67
473.983	10850.65
474.188	10592.61
474.393	10475.87
474.598	10449.25
474.802	10307.94
475.007	9959.78
475.212	10393.95
475.417	9873.77
475.621	9898.34
475.826	10019.18
476.031	9886.06
476.235	9501.04
476.44	9562.48
476.645	9429.36
476.849	9617.77
477.054	9300.34
477.259	9406.83
477.463	9306.48
477.668	8952.18
477.872	9122.16
478.077	9101.69
478.282	8913.27
478.486	8657.28
478.691	8765.82
478.895	8550.78
479.1	8565.12
479.304	8657.28
479.509	8247.68
479.713	8622.46
479.918	8229.25
480.122	8081.8
480.326	8227.2
480.531	8251.78
480.735	8393.09
480.94	8223.11
481.144	8286.59
481.348	7907.72
481.553	8083.84
481.757	7799.18
481.961	8298.88
482.166	7985.54
482.37	8106.37
482.574	7897.48
482.778	7950.73
482.983	8042.89
483.187	7823.75
483.391	7956.87
483.595	7938.44
483.8	7920.01
484.004	7825.8
484.208	8149.38
484.412	7588.24
484.616	7895.43
484.821	7907.72
485.025	7760.27
485.229	7995.78
485.433	7782.79
485.637	7985.54
485.841	7799.18
486.045	7778.7
486.249	7831.94
486.453	7907.72
486.657	7858.57
486.861	7788.94
487.065	7600.52
487.269	7844.23
487.473	7868.81
487.677	7950.73
487.881	7866.76
488.085	7920.01
488.289	8110.47
488.493	7926.15
488.697	8028.55
488.901	7936.39
489.105	7819.66
489.309	7999.88
489.512	7977.35
489.716	7928.2
489.92	7782.79
490.124	7877
490.328	8229.25
490.531	8071.56
490.735	8200.58
490.939	8323.46
491.143	8010.12
491.346	8204.67
491.55	8063.36
491.754	8284.55
491.958	8413.57
492.161	8329.6
492.365	8272.26
492.569	8161.67
492.772	8268.16
492.976	8616.32
493.18	8472.96
493.383	8683.9
493.587	8425.86
493.79	8606.08
493.994	8755.58
494.197	8585.6
494.401	8849.78
494.605	8724.86
494.808	8927.61
495.012	9101.69
495.215	9027.96
495.419	9279.86
495.622	9189.75
495.825	9230.71
496.029	9179.51
496.232	9384.3
496.436	9435.5
496.639	9607.53
496.843	9533.81
497.046	9820.52
497.249	10107.24
497.453	9898.34
497.656	9998.7
497.859	10094.95
498.063	10332.51
498.266	10232.16
498.469	10420.58
498.673	10545.5
498.876	10594.65
499.079	10680.67
499.282	10631.52
499.485	11051.35
499.689	10926.43
499.892	11190.61
500.095	11270.48
500.298	11370.83
500.501	11514.19
500.705	11663.69
500.908	11845.96
501.111	11983.18
501.314	12349.76
501.517	12196.17
501.72	12394.82
501.923	12253.51
502.126	12482.88
502.329	12884.28
502.532	12890.43
502.735	13254.97
502.938	13207.86
503.141	13371.7
503.344	13662.51
503.547	13599.02
503.75	13799.73
503.953	14000.43
504.156	14160.17
504.359	14422.31
504.562	14256.42
504.765	14713.12
504.968	14799.13
505.17	14942.49
505.373	15020.31
505.576	15307.03
505.779	15794.45
505.982	15593.75
506.185	16025.87
506.387	15972.62
506.59	16095.5
506.793	16599.3
506.996	16548.1
507.198	17006.84
507.401	16769.28
507.604	17189.11
507.807	17516.79
508.009	17563.89
508.212	17819.89
508.415	17817.84
508.617	18190.57
508.82	18471.14
509.022	18460.9
509.225	18942.17
509.428	18901.22
509.63	19282.14
509.833	19151.07
510.035	19755.22
510.238	19597.52
510.44	19841.23
510.643	20578.5
510.845	20449.48
511.048	20572.36
511.25	20658.37
511.453	20912.32
511.655	21622.97
511.858	21641.4
512.06	21647.54
512.262	21897.39
512.465	21983.41
512.667	22169.77
512.87	22866.08
513.072	22886.56
513.274	23064.74
513.477	23330.97
513.679	23476.38
513.881	23931.03
514.084	24283.28
514.286	24017.04
514.488	24641.67
514.69	24850.56
514.893	25299.07
515.095	25380.99
515.297	25788.53
515.499	25720.95
515.701	25995.38
515.904	26337.39
516.106	26411.12
516.308	27013.22
516.51	27062.37
516.712	27234.4
516.914	27510.88
517.116	28078.16
517.318	28334.16
517.52	28291.15
517.722	28301.39
517.925	28792.9
518.127	29519.93
518.329	29651
518.531	29806.65
518.733	30171.19
518.935	30212.15
519.136	30650.41
519.338	30904.36
519.54	30871.59
519.742	31842.33
519.944	31295.52
520.146	32032.79
520.348	32319.51
520.55	32483.34
520.752	32890.89
520.954	33241.09
521.155	33132.55
521.357	33417.22
521.559	33863.68
521.761	34258.93
521.963	34334.71
522.164	34447.35
522.366	34711.53
522.568	35299.3
522.77	35295.21
522.971	35639.26
523.173	35508.19
523.375	36042.71
523.576	36224.98
523.778	36011.99
523.98	36804.56
524.181	36716.5
524.383	36718.54
524.584	37597.12
524.786	37177.29
524.988	37193.67
525.189	37840.83
525.391	38401.97
525.592	38410.17
525.794	38506.42
525.995	38432.69
526.197	38369.21
526.398	38911.92
526.6	39278.5
526.801	39036.84
527.003	39497.64
527.204	39610.28
527.406	39868.32
527.607	39761.83
527.808	40126.36
528.01	39997.34
528.211	40523.67
528.412	40722.32
528.614	40191.9
528.815	40585.11
529.016	40966.03
529.218	40521.62
529.419	40843.15
529.62	40925.07
529.822	40787.86
530.023	40992.65
530.224	40783.76
530.425	41025.42
530.626	41093
530.828	41183.12
531.029	42035.07
531.23	41219.98
531.431	41439.11
531.632	41480.07
531.833	41930.62
532.035	41637.76
532.236	42043.26
532.437	41951.1
532.638	41424.78
532.839	42119.04
533.04	42114.94
533.241	41815.94
533.442	42686.32
533.643	42313.59
533.844	42061.69
534.045	42411.9
534.246	41754.5
534.447	42801.01
534.648	42250.11
534.849	42358.65
535.05	42385.27
535.251	42190.72
535.451	42403.7
535.652	42626.93
535.853	42438.52
536.054	42459
536.255	42563.45
536.456	42129.28
536.657	43042.67
536.857	42727.28
537.058	42133.37
537.259	43020.14
537.46	42831.73
537.66	42364.79
537.861	43259.76
538.062	42758
538.263	42657.65
538.463	42788.72
538.664	42184.57
538.865	42813.3
539.065	42846.07
539.266	42573.69
539.466	43042.67
539.667	42622.84
539.868	42780.53
540.068	42403.7
540.269	42819.44
540.469	42737.52
540.67	42364.79
540.87	42364.79
541.071	42479.48
541.271	42854.26
541.472	42741.62
541.672	42289.02
541.873	42307.45
542.073	42162.04
542.274	42807.15
542.474	42338.17
542.675	42131.33
542.875	42839.92
543.075	42618.74
543.276	41867.14
543.476	42776.44
543.676	42309.5
543.877	42733.43
544.077	42280.83
544.277	42774.39
544.478	42575.73
544.678	42309.5
544.878	42440.57
545.078	42168.19
545.279	42092.41
545.479	42016.64
545.679	42628.98
545.879	42254.2
546.079	42350.46
546.28	42385.27
546.48	42096.51
546.68	42667.89
546.88	42747.76
547.08	42547.06
547.28	42254.2
547.48	41789.31
547.68	42309.5
547.88	42157.95
548.081	42391.42
548.281	42465.14
548.481	41772.93
548.681	42692.47
548.881	42198.91
549.081	42321.79
549.28	42088.32
549.48	42782.58
549.68	42071.93
549.88	42454.9
550.08	42254.2
550.28	42321.79
550.48	42241.92
550.68	42698.61
550.88	42110.85
551.08	41912.19
551.279	42332.03
551.479	41932.67
551.679	42264.44
551.879	42219.39
552.079	42479.48
552.278	42037.12
552.478	42004.35
552.678	42010.49
552.878	42381.18
553.077	41985.92
553.277	41987.97
553.477	42514.3
553.676	42078.08
553.876	41990.02
554.076	41820.03
554.275	42024.83
554.475	41717.64
554.674	41955.2
554.874	41824.13
555.074	41822.08
555.273	41944.96
555.473	42057.6
555.672	41201.55
555.872	41666.44
556.071	41410.44
556.271	41912.19
556.47	41162.64
556.67	41566.09
556.869	41377.67
557.068	41432.97
557.268	41435.02
557.467	41211.79
557.667	40974.22
557.866	41254.79
558.065	41201.55
558.265	40820.63
558.464	41150.35
558.663	41154.44
558.863	40628.12
559.062	41461.64
559.261	40562.58
559.461	41197.45
559.66	40712.08
559.859	40761.23
560.058	40167.32
560.258	40302.49
560.457	40091.55
560.656	40615.83
560.855	40384.41
561.054	40335.26
561.253	39698.34
561.453	40036.25
561.652	40212.38
561.851	40282.01
562.05	39983.01
562.249	40009.63
562.448	40013.73
562.647	39989.15
562.846	39600.04
563.045	40028.06
563.244	39411.62
563.443	40212.38
563.642	39151.53
563.841	39675.81
564.04	39491.49
564.239	39559.08
564.438	39131.05
564.637	39655.33
564.836	39311.27
565.035	38969.26
565.234	39143.34
565.432	39139.24
565.631	39086
565.83	39180.2
566.029	39081.9
566.228	38942.64
566.427	38760.37
566.625	38408.12
566.824	38334.39
567.023	38586.29
567.222	38002.62
567.42	38762.42
567.619	38272.95
567.818	38096.83
568.016	38334.39
568.215	38690.74
568.414	38117.31
568.612	38473.65
568.811	37861.31
569.01	37771.2
569.208	37361.61
569.407	37941.18
569.605	37255.11
569.804	38039.48
570.002	37228.49
570.201	37304.26
570.4	37298.12
570.598	37013.45
570.797	36808.65
570.995	37484.48
571.193	36583.38
571.392	36806.61
571.59	36335.57
571.789	36759.5
571.987	36337.62
572.186	36427.73
572.384	35964.89
572.582	36220.89
572.781	36519.89
572.979	35989.47
573.177	35928.03
573.376	36073.43
573.574	35794.91
573.772	36085.72
573.971	35805.15
574.169	35409.89
574.367	35221.48
574.565	35348.45
574.763	35289.06
574.962	35010.54
575.16	34875.37
575.358	34932.71
575.556	34529.27
575.754	34977.77
575.952	34371.57
576.151	34916.33
576.349	34283.51
576.547	34330.61
576.745	34514.93
576.943	34480.11
577.141	33871.87
577.339	33851.39
577.537	33861.63
577.735	33871.87
577.933	33587.2
578.131	33722.37
578.329	33523.71
578.527	33142.79
578.725	33433.6
578.923	33730.56
579.121	33093.64
579.319	33290.24
579.516	33398.79
579.714	32782.35
579.912	32958.47
580.11	33028.1
580.308	32417.81
580.506	32638.99
580.704	32032.79
580.901	32716.81
581.099	32456.72
581.297	32301.08
581.495	31887.39
581.692	32407.57
581.89	31907.87
582.088	31838.23
582.285	31752.22
582.483	32059.41
582.681	31592.48
582.878	31369.25
583.076	31305.76
583.274	31303.71
583.471	31017
583.669	31174.69
583.866	31113.25
584.064	31064.1
584.262	30859.31
584.459	31340.58
584.657	30769.19
584.854	30818.35
585.052	30036.02
585.249	30687.28
585.447	30556.21
585.644	30029.88
585.841	30210.1
586.039	30572.59
586.236	29997.11
586.434	30083.12
586.631	29999.16
586.828	30023.73
587.026	29767.74
587.223	29653.05
587.42	29427.77
587.618	29599.8
587.815	29059.14
588.012	29349.95
588.21	29128.77
588.407	29696.06
588.604	28901.45
588.801	28997.7
588.999	28977.22
589.196	29079.62
589.393	28938.31
589.59	28526.67
589.787	28291.15
589.984	28428.37
590.182	28225.62
590.379	28612.68
590.576	28080.21
590.773	28096.6
590.97	27811.93
591.167	28051.54
591.364	27863.13
591.561	27949.14
591.758	27754.58
591.955	27330.65
592.152	27531.36
592.349	27359.33
592.546	27332.7
592.743	27752.54
592.94	27017.32
593.137	26931.3
593.334	27385.95
593.531	27101.28
593.727	27119.71
593.924	26912.87
594.121	26720.36
594.318	27093.09
594.515	26280.05
594.712	26810.47
594.908	26181.74
595.105	26318.96
595.302	25739.38
595.499	26523.76
595.696	26118.26
595.892	26126.45
596.089	26224.75
596.286	26140.79
596.482	25884.79
596.679	26046.58
596.876	26179.7
597.072	25723
597.269	25909.36
597.466	25235.58
597.662	25456.76
597.859	25399.42
598.055	25305.21
598.252	24948.87
598.448	25301.12
598.645	25225.34
598.841	24864.9
599.038	24905.86
599.234	25018.5
599.431	24449.16
599.627	24379.53
599.824	24596.62
600.02	24408.2
600.217	24789.13
600.413	24316.04
600.609	24111.25
600.806	23885.97
601.002	24494.22
601.198	24156.3
601.395	23859.35
601.591	23916.69
601.787	24043.67
601.984	23759
602.18	24168.59
602.376	23695.51
602.572	23742.61
602.769	23636.12
602.965	23269.53
603.161	23175.33
603.357	23105.7
603.553	23023.78
603.75	23103.65
603.946	22952.1
604.142	23034.02
604.338	22524.07
604.534	23079.07
604.73	22667.43
604.926	22653.09
605.122	22941.86
605.318	22483.11
605.514	22085.81
605.71	22315.18
605.906	22272.17
606.102	22190.25
606.298	21915.83
606.494	22106.29
606.69	22214.83
606.886	22218.92
607.082	21549.24
607.278	21835.95
607.474	21371.07
607.67	21647.54
607.866	21639.35
608.062	21668.02
608.257	21297.34
608.453	21317.82
608.649	21612.73
608.845	21233.85
609.041	21268.67
609.236	21260.48
609.432	21035.2
609.628	21174.46
609.824	20996.29
610.019	21188.8
610.215	21000.38
610.411	20908.22
610.606	20779.2
610.802	20910.27
610.998	20963.52
611.193	20936.9
611.389	20678.85
611.584	20472.01
611.78	20512.97
611.976	20216.01
612.171	20558.02
612.367	20394.18
612.562	20242.64
612.758	20097.23
612.953	20340.94
613.149	20349.13
613.344	20082.89
613.539	20136.14
613.735	19923.15
613.93	19806.42
614.126	19910.86
614.321	19828.95
614.517	19663.06
614.712	19724.5
614.907	19775.7
615.103	19878.1
615.298	19484.89
615.493	19656.92
615.688	19448.02
615.884	19757.27
616.079	19300.57
616.274	19405.02
616.47	19261.66
616.665	19437.78
616.86	19128.54
617.055	19097.82
617.25	19183.84
617.445	18983.13
617.641	18788.58
617.836	18696.42
618.031	18735.33
618.226	18659.56
618.421	18604.26
618.616	18671.84
618.811	18196.71
619.006	18579.68
619.201	18016.49
619.396	18202.86
619.591	17940.72
619.786	18284.78
619.981	17975.53
620.176	17850.61
620.371	17979.63
620.566	17967.34
620.761	18004.21
620.956	17733.87
621.151	17529.08
621.346	17684.72
621.541	17105.15
621.735	17479.93
621.93	17111.29
622.125	17182.97
622.32	16926.97
622.515	17023.23
622.709	16931.07
622.904	17043.71
623.099	16713.98
623.294	16937.21
623.488	16455.94
623.683	16554.24
623.878	16154.89
624.072	16488.71
624.267	16218.38
624.462	16447.75
624.656	15792.4
624.851	16019.72
625.046	15810.83
625.24	15722.77
625.435	15741.2
625.629	15663.38
625.824	15497.49
626.018	15522.07
626.213	15364.37
626.407	15274.26
626.602	14973.21
626.796	15333.65
626.991	15196.44
627.185	14973.21
627.38	14817.57
627.574	15030.55
627.768	14967.07
627.963	14731.55
628.157	14383.4
628.352	14588.19
628.546	14336.29
628.74	14391.59
628.935	14260.52
629.129	14162.22
629.323	13977.9
629.517	14053.67
629.712	14055.72
629.906	13879.6
630.1	13777.2
630.294	13695.28
630.489	13760.81
630.683	13586.74
630.877	13531.44
631.071	13672.75
631.265	13390.13
631.459	13381.94
631.653	13355.32
631.848	13105.46
632.042	13181.24
632.236	13195.57
632.43	12728.64
632.624	13218.1
632.818	12544.32
633.012	12798.27
633.206	12654.91
633.4	12806.46
633.594	12570.94
633.788	12513.6
633.982	12630.34
634.176	12527.94
634.369	12572.99
634.563	12126.53
634.757	12319.04
634.951	12341.57
635.145	12233.03
635.339	12104.01
635.533	11737.42
635.726	12003.66
635.92	11675.98
636.114	11764.04
636.308	11757.9
636.501	11850.06
636.695	11510.1
636.889	11653.45
637.083	11594.06
637.276	11501.9
637.47	11587.92
637.664	11379.03
637.857	11471.18
638.051	11225.43
638.244	11012.44
638.438	10948.95
638.632	11016.54
638.825	10864.99
639.019	10754.4
639.212	10840.41
639.406	10686.81
639.599	10871.13
639.793	10752.35
639.986	10547.55
640.18	10621.28
640.373	10412.39
640.567	10228.07
640.76	10400.1
640.954	10344.8
641.147	10015.08
641.34	10299.75
641.534	10107.24
641.727	10027.37
641.92	10000.74
642.114	9947.5
642.307	9888.11
642.5	9726.32
642.694	9646.44
642.887	9814.38
643.08	9847.15
643.273	9699.69
643.467	9625.97
643.66	9404.78
643.853	9306.48
644.046	9421.17
644.239	9486.7
644.432	9228.66
644.626	9030.01
644.819	9253.23
645.012	9212.28
645.205	8984.95
645.398	8968.57
645.591	8851.83
645.784	8978.81
645.977	8657.28
646.17	8640.89
646.363	8489.34
646.556	8489.34
646.749	8737.15
646.942	8595.84
647.135	8630.65
647.328	8444.29
647.521	8472.96
647.714	8288.64
647.907	8534.4
648.099	8206.72
648.292	8266.11
648.485	8186.24
648.678	8110.47
648.871	7973.25
649.064	8190.34
649.256	7999.88
649.449	7772.55
649.642	7838.09
649.835	7780.75
650.027	7725.45
650.22	7811.46
650.413	7653.77
650.605	7608.72
650.798	7524.75
650.991	7829.9
651.183	7504.27
651.376	7627.15
651.568	7408.01
651.761	7459.21
651.954	7436.69
652.146	7379.34
652.339	7446.93
652.531	7199.12
652.724	7184.79
652.916	7082.39
653.109	7207.31
653.301	7147.92
653.494	7012.76
653.686	6920.6
653.879	7141.78
654.071	6932.89
654.263	6906.26
654.456	6732.19
654.648	6924.69
654.84	6678.94
655.033	6623.64
655.225	6756.76
655.417	6713.75
655.61	6666.65
655.802	6744.47
655.994	6433.18
656.186	6463.9
656.379	6470.05
656.571	6502.81
656.763	6390.17
656.955	6318.5
657.148	6420.89
657.34	6320.54
657.532	6205.86
657.724	6085.03
657.916	6185.38
658.108	5994.92
658.3	6011.3
658.492	6072.74
658.684	5919.14
658.876	5964.2
659.068	5960.1
659.26	6085.03
659.452	5800.36
659.644	5790.12
659.836	5728.68
660.028	5796.26
660.22	5532.08
660.412	5671.34
660.604	5632.43
660.796	5556.65
660.988	5425.58
661.18	5368.24
661.372	5489.07
661.563	5538.22
661.755	5360.05
661.947	5452.2
662.139	5501.36
662.331	5472.68
662.522	5138.87
662.714	5224.88
662.906	5233.07
663.097	5290.42
663.289	5093.81
663.481	5091.76
663.673	5077.43
663.864	5079.47
664.056	5087.67
664.247	4925.88
664.439	4977.08
664.631	5122.48
664.822	4837.81
665.014	4925.88
665.205	4891.06
665.397	4848.05
665.588	4872.63
665.78	4610.49
665.971	4782.52
666.163	4739.51
666.354	4653.5
666.546	4616.63
666.737	4422.08
666.929	4751.8
667.12	4659.64
667.311	4417.98
667.503	4602.3
667.694	4524.47
667.885	4440.51
668.077	4413.88
668.268	4299.2
668.459	4512.19
668.651	4397.5
668.842	4366.78
669.033	4252.1
669.224	4268.48
669.416	4346.3
669.607	4227.52
669.798	4278.72
669.989	4192.7
670.18	4395.45
670.371	4190.66
670.563	4178.37
670.754	4118.98
670.945	4051.39
671.136	4231.62
671.327	4041.15
671.518	4049.35
671.709	4147.65
671.9	4012.48
672.091	4104.64
672.282	3883.46
672.473	4049.35
672.664	3826.12
672.855	3961.28
673.046	3885.51
673.237	3783.11
673.428	3951.04
673.619	3774.92
673.809	3836.36
674	3850.69
674.191	3813.83
674.382	3910.08
674.573	3733.96
674.764	3772.87
674.954	3850.69
675.145	3805.64
675.336	3666.38
675.527	3709.38
675.717	3770.82
675.908	3539.4
676.099	3729.86
676.289	3719.62
676.48	3633.61
676.671	3645.9
676.861	3678.66
677.052	3596.75
677.243	3391.95
677.433	3582.41
677.624	3678.66
677.814	3512.78
678.005	3480.01
678.195	3652.04
678.386	3643.85
678.576	3498.44
678.767	3449.29
678.957	3496.39
679.148	3475.91
679.338	3590.6
679.529	3473.87
679.719	3385.8
679.909	3563.98
680.1	3400.14
680.29	3342.8
680.481	3336.65
680.671	3426.76
680.861	3310.03
681.052	3391.95
681.242	3334.61
681.432	3434.96
681.622	3289.55
681.813	3252.69
682.003	3291.6
682.193	3146.19
682.383	3250.64
682.573	3230.16
682.764	3312.08
682.954	3119.57
683.144	3350.99
683.334	3129.81
683.524	3219.92
683.714	3129.81
683.904	3080.66
684.094	3170.77
684.284	3148.24
684.474	3103.18
684.664	3236.3
684.854	3111.38
685.044	3119.57
685.234	2951.63
685.424	3103.18
685.614	3099.09
685.804	3115.47
685.994	3082.7
686.184	3103.18
686.374	3056.08
686.564	3058.13
686.753	3129.81
686.943	3015.12
687.133	3029.46
687.323	3131.86
687.513	3027.41
687.702	3133.9
687.892	2980.31
688.082	2963.92
688.272	3041.75
688.461	2949.59
688.651	3017.17
688.841	2957.78
689.03	2902.48
689.22	2947.54
689.41	2859.48
689.599	2931.16
689.789	3015.12
689.979	2759.13
690.168	2871.76
690.358	2877.91
690.547	2851.28
690.737	2976.21
690.926	2873.81
691.116	2861.52
691.305	2904.53
691.495	2970.07
691.684	2894.29
691.874	2728.41
692.063	2884.05
692.252	2775.51
692.442	2857.43
692.631	2759.13
692.82	2894.29
693.01	2740.69
693.199	2738.65
693.388	2630.1
693.578	2834.9
693.767	2800.09
693.956	2836.95
694.146	2877.91
694.335	2699.73
694.524	2798.04
694.713	2734.55
694.902	2834.9
695.092	2777.56
695.281	2763.22
695.47	2773.46
695.659	2738.65
695.848	2732.5
696.037	2759.13
696.226	2824.66
696.415	2714.07
696.604	2822.61
696.793	2818.52
696.982	2718.17
697.171	2830.8
697.36	2804.18
697.549	2726.36
697.738	2720.21
697.927	2726.36
698.116	2689.49
698.305	2771.41
698.494	2777.56
698.683	2734.55
698.872	2716.12
699.061	2578.9
699.25	2628.06
699.438	2712.02
699.627	2539.99
699.816	2707.93
700.005	2632.15
700.193	2736.6
700.382	2609.62
700.571	2712.02
700.76	2675.16
700.948	2697.69
701.137	2707.93
701.326	2621.91
701.514	2812.37
701.703	2650.58
701.892	2734.55
702.08	2685.4
702.269	2589.14
702.457	2642.39
702.646	2628.06
702.834	2632.15
703.023	2572.76
703.212	2566.62
703.4	2554.33
703.589	2570.71
703.777	2613.72
703.965	2654.68
704.154	2529.75
704.342	2662.87
704.531	2550.23
704.719	2425.31
704.907	2533.85
705.096	2470.36
705.284	2453.98
705.472	2578.9
705.661	2486.75
705.849	2519.51
706.037	2505.18
706.226	2480.6
706.414	2378.2
706.602	2515.42
706.79	2396.64
706.979	2390.49
707.167	2456.03
707.355	2372.06
707.543	2359.77
707.731	2447.83
707.919	2427.35
708.107	2413.02
708.296	2451.93
708.484	2390.49
708.672	2398.68
708.86	2443.74
709.048	2343.39
709.236	2361.82
709.424	2462.17
709.612	2367.96
709.8	2304.48
709.988	2230.75
710.176	2318.81
710.364	2320.86
710.551	2390.49
710.739	2320.86
710.927	2294.24
711.115	2255.33
711.303	2329.05
711.491	2175.45
711.679	2259.42
711.866	2259.42
712.054	2249.18
712.242	2224.61
712.43	2238.94
712.617	2146.78
712.805	2220.51
712.993	2177.5
713.181	2163.17
713.368	2150.88
713.556	2146.78
713.744	2107.87
713.931	2210.27
714.119	2105.82
714.306	2068.96
714.494	2042.34
714.682	2152.93
714.869	2093.54
715.057	2091.49
715.244	2042.34
715.432	2107.87
715.619	2152.93
715.807	2097.63
715.994	1999.33
716.182	2122.21
716.369	2073.06
716.556	2095.58
716.744	1991.14
716.931	1991.14
717.119	2044.38
717.306	2009.57
717.493	1835.49
717.681	2052.58
717.868	1993.19
718.055	2015.71
718.242	1851.88
718.43	1933.79
718.617	1974.75
718.804	1997.28
718.991	1853.92
719.179	1868.26
719.366	1923.55
719.553	1876.45
719.74	2017.76
719.927	2023.91
720.114	1935.84
720.301	1901.03
720.488	1901.03
720.676	1792.48
720.863	1827.3
721.05	1876.45
721.237	1794.53
721.424	1726.95
721.611	1872.36
721.798	1751.53
721.985	1759.72
722.172	1683.94
722.358	1616.36
722.545	1718.76
722.732	1780.2
722.919	1747.43
723.106	1700.33
723.293	1726.95
723.48	1767.91
723.667	1608.17
723.853	1720.81
724.04	1706.47
724.227	1745.38
724.414	1642.98
724.6	1696.23
724.787	1665.51
724.974	1726.95
725.161	1657.32
725.347	1614.31
725.534	1593.83
725.72	1671.65
725.907	1624.55
726.094	1595.88
726.28	1671.65
726.467	1726.95
726.653	1663.46
726.84	1546.73
727.027	1526.25
727.213	1565.16
727.4	1530.34
727.586	1624.55
727.773	1542.63
727.959	1634.79
728.145	1485.29
728.332	1464.81
728.518	1602.02
728.705	1589.74
728.891	1466.86
729.077	1585.64
729.264	1556.97
729.45	1532.39
729.636	1567.21
729.823	1425.9
730.009	1550.82
730.195	1554.92
730.382	1464.81
730.568	1538.54
730.754	1491.43
730.94	1456.62
731.126	1481.19
731.313	1524.2
731.499	1491.43
731.685	1513.96
731.871	1520.1
732.057	1503.72
732.243	1374.7
732.429	1536.49
732.615	1360.36
732.801	1448.43
732.987	1389.03
733.173	1411.56
733.359	1397.23
733.545	1325.55
733.731	1378.79
733.917	1409.51
734.103	1464.81
734.289	1440.23
734.475	1399.27
734.661	1440.23
734.847	1350.12
735.033	1386.99
735.219	1329.64
735.404	1343.98
735.59	1317.36
735.776	1260.01
735.962	1323.5
736.148	1393.13
736.333	1407.47
736.519	1348.08
736.705	1266.16
736.89	1286.64
737.076	1260.01
737.262	1309.16
737.447	1272.3
737.633	1325.55
737.819	1300.97
738.004	1352.17
738.19	1292.78
738.375	1309.16
738.561	1208.81
738.747	1214.96
738.932	1264.11
739.118	1378.79
739.303	1249.77
739.489	1268.2
739.674	1331.69
739.859	1276.4
740.045	1237.49
740.23	1227.25
740.416	1180.14
740.601	1204.72
740.786	1159.66
740.972	1243.63
741.157	1090.03
741.342	1253.87
741.528	1239.53
741.713	1171.95
741.898	1176.05
742.084	1190.38
742.269	1165.81
742.454	1133.04
742.639	1169.9
742.824	1094.13
743.01	1227.25
743.195	1227.25
743.38	1104.37
743.565	1122.8
743.75	1145.33
743.935	1096.18
744.12	1120.75
744.305	1053.17
744.49	1092.08
744.675	1092.08
744.86	1126.89
745.045	1032.69
745.23	1096.18
745.415	1077.74
745.6	1090.03
745.785	1001.97
745.97	995.82
746.155	1014.26
746.34	1008.11
746.525	1008.11
746.71	1001.97
746.895	1030.64
747.079	1044.98
747.264	1051.12
747.449	1114.61
747.634	1079.79
747.819	961.01
748.003	1016.3
748.188	987.63
748.373	938.48
748.557	918
748.742	860.66
748.927	901.62
749.111	897.52
749.296	969.2
749.481	870.9
749.665	807.41
749.85	907.76
750.034	928.24
750.219	930.29
750.404	862.71
750.588	887.28
750.773	891.38
750.957	846.32
751.141	868.85
751.326	834.04
751.51	840.18
751.695	913.91
751.879	860.66
752.064	924.15
752.248	872.95
752.432	827.89
752.617	776.69
752.801	877.04
752.985	854.51
753.17	836.08
753.354	858.61
753.538	809.46
753.722	840.18
753.907	850.42
754.091	793.08
754.275	819.7
754.459	768.5
754.643	770.55
754.828	758.26
755.012	711.16
755.196	756.21
755.38	758.26
755.564	735.73
755.748	719.35
755.932	842.23
756.116	752.12
756.3	739.83
756.484	786.93
756.668	719.35
756.852	754.16
757.036	725.49
757.22	721.4
757.404	705.01
757.588	735.73
757.772	700.92
757.956	682.49
758.14	694.77
758.323	694.77
758.507	743.92
758.691	657.91
758.875	694.77
759.059	768.5
759.242	608.76
759.426	688.63
759.61	688.63
759.794	639.48
759.977	690.68
760.161	655.86
760.345	657.91
760.528	621.05
760.712	573.94
760.895	627.19
761.079	651.77
761.263	627.19
761.446	580.09
761.63	616.95
761.813	653.81
761.997	678.39
762.18	483.83
762.364	532.98
762.547	563.7
762.731	674.29
762.914	586.23
763.098	590.33
763.281	520.7
763.464	608.76
763.648	598.52
763.831	600.57
764.015	602.61
764.198	629.24
764.381	619
764.564	580.09
764.748	555.51
764.931	619
765.114	557.56
765.297	575.99
765.481	559.61
765.664	588.28
765.847	506.36
766.03	631.29
766.213	563.7
766.397	590.33
766.58	557.56
766.763	492.02
766.946	598.52
767.129	504.31
767.312	483.83
767.495	578.04
767.678	582.14
767.861	510.46
768.044	516.6
768.227	563.7
768.41	532.98
768.593	625.14
768.776	567.8
768.959	516.6
769.142	481.78
769.324	518.65
769.507	580.09
769.69	492.02
769.873	453.11
770.056	616.95
770.239	440.83
770.421	543.22
770.604	526.84
770.787	504.31
770.97	518.65
771.152	489.98
771.335	492.02
771.518	502.26
771.7	526.84
771.883	406.01
772.066	528.89
772.248	473.59
772.431	469.5
772.613	492.02
772.796	530.94
772.978	463.35
773.161	489.98
773.343	424.44
773.526	389.63
773.708	440.83
773.891	469.5
774.073	473.59
774.256	471.54
774.438	432.63
774.621	467.45
774.803	457.21
774.985	420.35
775.168	453.11
775.35	383.48
775.532	440.83
775.715	424.44
775.897	395.77
776.079	401.91
776.261	512.5
776.444	494.07
776.626	434.68
776.808	436.73
776.99	451.07
777.173	530.94
777.355	432.63
777.537	414.2
777.719	401.91
777.901	457.21
778.083	418.3
778.265	418.3
778.447	399.87
778.629	383.48
778.811	457.21
778.993	385.53
779.175	387.58
779.357	340.47
779.539	334.33
779.721	342.52
779.903	328.19
780.085	449.02
780.267	356.86
780.449	297.47
780.631	360.95
780.812	381.43
780.994	301.56
781.176	360.95
781.358	301.56
781.54	367.1
781.721	367.1
781.903	320
782.085	375.29
782.267	311.8
782.448	326.14
782.63	346.62
782.812	315.9
782.993	309.76
783.175	381.43
783.357	270.84
783.538	295.42
783.72	272.89
783.901	260.6
784.083	258.56
784.264	303.61
784.446	252.41
784.627	363
784.809	281.08
784.99	328.19
785.172	315.9
785.353	303.61
785.535	279.04
785.716	268.8
785.897	289.28
786.079	332.28
786.26	246.27
786.441	272.89
786.623	223.74
786.804	303.61
786.985	223.74
787.167	203.26
787.348	260.6
787.529	301.56
787.71	258.56
787.891	285.18
788.073	254.46
788.254	272.89
788.435	305.66
788.616	283.13
788.797	260.6
788.978	236.03
789.159	281.08
789.34	231.93
789.522	270.84
789.703	227.84
789.884	174.59
790.065	254.46
790.246	311.8
790.427	287.23
790.607	199.16
790.788	205.31
790.969	211.45
791.15	197.12
791.331	240.12
791.512	279.04
791.693	205.31
791.874	262.65
792.054	307.71
792.235	211.45
792.416	180.73
792.597	186.88
792.778	195.07
792.958	270.84
793.139	231.93
793.32	252.41
793.5	166.4
793.681	295.42
793.862	182.78
794.042	236.03
794.223	172.54
794.404	229.88
794.584	180.73
794.765	233.98
794.945	180.73
795.126	211.45
795.306	147.97
795.487	201.21
795.667	215.55
795.848	190.97
796.028	125.44
796.209	168.45
796.389	223.74
796.57	104.96
796.75	160.25
796.93	152.06
797.111	139.77
797.291	178.69
797.471	174.59
797.652	156.16
797.832	231.93
798.012	166.4
798.192	92.67
798.373	174.59
798.553	92.67
798.733	154.11
798.913	104.96
799.093	131.58
799.274	178.69
799.454	174.59
799.634	137.73
799.814	129.53
799.994	129.53
800.174	70.14
800.354	100.86
800.534	88.57
800.714	217.6
800.894	98.81
801.074	156.16
801.254	129.53
801.434	123.39
801.614	107.01
801.794	197.12
801.974	381.43
802.154	193.02
802.334	176.64
802.514	113.15
802.693	137.73
802.873	154.11
803.053	184.83
803.233	166.4
803.413	166.4
803.592	133.63
803.772	186.88
803.952	190.97
804.131	64
804.311	188.93
804.491	203.26
804.67	61.95
804.85	82.43
805.03	201.21
805.209	131.58
805.389	80.38
805.568	145.92
805.748	160.25
805.928	156.16
806.107	121.34
806.287	150.01
806.466	143.87
806.646	137.73
806.825	154.11
807.004	121.34
807.184	109.05
807.363	107.01
807.543	107.01
807.722	88.57
807.901	64
808.081	104.96
808.26	92.67
808.439	176.64
808.619	225.79
808.798	141.82
808.977	174.59
809.156	117.25
809.336	86.53
809.515	129.53
809.694	123.39
809.873	186.88
810.052	68.09
810.231	102.91
810.411	119.29
810.59	27.14
810.769	182.78
810.948	141.82
811.127	61.95
811.306	76.29
811.485	78.33
811.664	231.93
811.843	119.29
812.022	137.73
812.201	98.81
812.38	74.24
812.559	74.24
812.737	145.92
812.916	145.92
813.095	72.19
813.274	10.75
813.453	78.33
813.632	199.16
813.811	18.94
813.989	47.62
814.168	107.01
814.347	31.23
814.526	64
814.704	45.57
814.883	98.81
815.062	90.62
815.24	182.78
815.419	68.09
815.598	86.53
815.776	92.67
815.955	47.62
816.133	-17.92
816.312	90.62
816.49	98.81
816.669	205.31
816.847	78.33
817.026	76.29
817.204	98.81
817.383	35.33
817.561	53.76
817.74	129.53
817.918	74.24
818.097	125.44
818.275	68.09
818.453	76.29
818.632	55.81
818.81	119.29
818.988	51.71
819.167	92.67
819.345	86.53
819.523	10.75
819.701	127.49
819.879	135.68
820.058	115.2
820.236	129.53
820.414	49.66
820.592	29.18
820.77	64
820.948	98.81
821.127	88.57
821.305	64
821.483	31.23
821.661	55.81
821.839	74.24
822.017	104.96
822.195	88.57
822.373	72.19
822.551	41.47
822.729	107.01
822.907	55.81
823.085	18.94
823.262	92.67
823.44	20.99
823.618	57.86
823.796	96.77
823.974	47.62
824.152	39.42
824.329	49.66
824.507	90.62
824.685	39.42
824.863	8.7
825.04	119.29
825.218	84.48
825.396	188.93
825.574	72.19
825.751	86.53
825.929	41.47
826.107	129.53
826.284	39.42
826.462	98.81
826.639	96.77
826.817	47.62
826.994	113.15
827.172	37.38
827.349	76.29
827.527	127.49
827.704	82.43
827.882	47.62
828.059	53.76
828.237	76.29
828.414	68.09
828.591	35.33
828.769	64
828.946	55.81
829.124	12.8
829.301	64
829.478	92.67
829.655	64
829.833	98.81
830.01	104.96
830.187	16.9
830.364	25.09
830.542	14.85
830.719	49.66
830.896	70.14
831.073	150.01
831.25	80.38
831.427	96.77
831.604	41.47
831.782	-15.87
831.959	39.42
832.136	66.05
832.313	72.19
832.49	23.04
832.667	107.01
832.844	57.86
833.021	41.47
833.198	86.53
833.374	84.48
833.551	86.53
833.728	33.28
833.905	-30.21
834.082	55.81
834.259	43.52
834.436	107.01
834.612	10.75
834.789	98.81
834.966	61.95
835.143	51.71
835.319	86.53
835.496	64
835.673	14.85
835.85	113.15
836.026	61.95
836.203	14.85
836.38	51.71
836.556	35.33
836.733	25.09
836.909	33.28
837.086	51.71
837.262	109.05
837.439	49.66
837.616	-15.87
837.792	39.42
837.968	37.38
838.145	-9.73
838.321	84.48
838.498	104.96
838.674	39.42
838.851	113.15
839.027	53.76
839.203	27.14
839.38	-3.58
839.556	61.95
839.732	47.62
839.909	-15.87
840.085	49.66
840.261	33.28
840.437	98.81
840.614	68.09
840.79	39.42
840.966	41.47
841.142	59.9
841.318	16.9
841.494	61.95
841.671	4.61
841.847	94.72
842.023	51.71
842.199	2.56
842.375	6.66
842.551	66.05
842.727	-1.54
842.903	64
843.079	2.56
843.255	92.67
843.431	23.04
843.607	66.05
843.783	-3.58
843.959	-13.82
844.134	-3.58
844.31	74.24
844.486	-13.82
844.662	96.77
844.838	27.14
845.013	-17.92
845.189	64
845.365	6.66
845.541	53.76
845.716	14.85
845.892	74.24
846.068	51.71
846.244	-30.21
846.419	78.33
846.595	10.75
846.77	23.04
846.946	33.28
847.122	45.57
847.297	111.1
847.473	57.86
847.648	76.29
847.824	64
847.999	18.94
848.175	43.52
848.35	-7.68
848.526	57.86
848.701	8.7
848.876	10.75
849.052	109.05
849.227	64
849.403	23.04
849.578	45.57
849.753	55.81
849.929	57.86
850.104	-54.78
850.279	23.04
850.454	-34.3
850.63	41.47
850.805	-1.54
850.98	37.38
851.155	-17.92
851.33	14.85
851.505	-9.73
851.681	55.81
851.856	-1.54
852.031	-13.82
852.206	-3.58
852.381	41.47
852.556	33.28
852.731	43.52
852.906	12.8
853.081	90.62
853.256	76.29
853.431	-17.92
853.606	-42.5
853.781	23.04
853.956	64
854.131	33.28
854.305	-71.17
854.48	0.51
854.655	20.99
854.83	-22.02
855.005	35.33
855.18	55.81
855.354	23.04
855.529	43.52
855.704	8.7
855.879	133.63
856.053	55.81
856.228	70.14
856.403	-28.16
856.577	-26.11
856.752	27.14
856.926	6.66
857.101	16.9
857.276	-5.63
857.45	39.42
857.625	53.76
857.799	-22.02
857.974	2.56
858.148	29.18
858.323	49.66
858.497	64
858.672	78.33
858.846	66.05
859.02	16.9
859.195	25.09
859.369	49.66
859.543	4.61
859.718	55.81
859.892	-15.87
860.066	23.04
860.241	76.29
860.415	41.47
860.589	25.09
860.763	49.66
860.938	-7.68
861.112	35.33
861.286	55.81
861.46	86.53
861.634	-22.02
861.808	29.18
861.982	12.8
862.157	96.77
862.331	49.66
862.505	-42.5
862.679	-38.4
862.853	31.23
863.027	-52.74
863.201	76.29
863.375	6.66
863.549	61.95
863.722	18.94
863.896	55.81
864.07	6.66
864.244	59.9
864.418	16.9
864.592	55.81
864.766	-17.92
864.939	113.15
865.113	-26.11
865.287	6.66
865.461	14.85
865.634	53.76
865.808	10.75
865.982	47.62
866.156	-24.06
866.329	37.38
866.503	53.76
866.676	61.95
866.85	6.66
867.024	-7.68
867.197	-32.26
867.371	-26.11
867.544	-1.54
867.718	47.62
867.891	-36.35
868.065	66.05
868.238	-28.16
868.412	104.96
868.585	66.05
868.759	20.99
868.932	57.86
869.105	-5.63
869.279	90.62
869.452	41.47
869.625	35.33
869.799	-19.97
869.972	51.71
870.145	-9.73
870.319	27.14
870.492	-7.68
870.665	20.99
870.838	64
871.011	-7.68
871.185	31.23
871.358	61.95
871.531	84.48
871.704	-15.87
871.877	31.23
872.05	45.57
872.223	8.7
872.396	23.04
872.569	53.76
872.742	2.56
872.915	18.94
873.088	33.28
873.261	-15.87
873.434	8.7
873.607	-3.58
873.78	27.14
873.953	29.18
874.126	84.48
874.299	31.23
874.471	-13.82
874.644	-13.82
874.817	-13.82
874.99	2.56
875.163	-9.73
875.335	45.57
875.508	-17.92
875.681	10.75
875.853	18.94
876.026	-26.11
876.199	80.38
876.371	59.9
876.544	88.57
876.717	-32.26
876.889	-42.5
877.062	2.56
877.234	-13.82
877.407	-50.69
877.579	78.33
877.752	-50.69
877.924	33.28
878.097	68.09
878.269	57.86
878.442	14.85
878.614	90.62
878.786	55.81
878.959	-11.78
879.131	-1.54
879.303	18.94
879.476	27.14
879.648	20.99
879.82	18.94
879.993	27.14
880.165	18.94
880.337	6.66
880.509	-17.92
880.681	-9.73
880.854	-46.59
881.026	37.38
881.198	31.23
881.37	-13.82
881.542	72.19
881.714	-15.87
881.886	37.38
882.058	49.66
882.23	64
882.402	2.56
882.574	20.99
882.746	-1.54
882.918	27.14
883.09	49.66
883.262	96.77
883.434	51.71
883.606	-1.54
883.778	18.94
883.95	-26.11
884.122	-7.68
884.293	47.62
884.465	104.96
884.637	45.57
884.809	80.38
884.98	74.24
885.152	20.99
885.324	72.19
885.496	-17.92
885.667	41.47
885.839	14.85
886.011	31.23
886.182	0.51
886.354	12.8
886.525	-26.11
886.697	6.66
886.869	14.85
887.04	-65.02
887.212	-34.3
887.383	76.29
887.555	10.75
887.726	-9.73
887.897	-9.73
888.069	20.99
888.24	-93.69
888.412	-3.58
888.583	37.38
888.754	16.9
888.926	61.95
889.097	-1.54
889.268	-11.78
889.44	57.86
889.611	-13.82
889.782	-1.54
889.953	55.81
890.125	0.51
890.296	16.9
890.467	39.42
890.638	-7.68
890.809	23.04
890.98	-24.06
891.151	14.85
891.323	-19.97
891.494	29.18
891.665	39.42
891.836	100.86
892.007	23.04
892.178	66.05
892.349	6.66
892.52	-32.26
892.691	-44.54
892.862	-1.54
893.032	-15.87
893.203	20.99
893.374	10.75
893.545	18.94
893.716	6.66
893.887	33.28
894.057	-15.87
894.228	23.04
894.399	-44.54
894.57	-1.54
894.74	14.85
894.911	43.52
895.082	53.76
895.253	53.76
895.423	-5.63
895.594	-7.68
895.764	12.8
895.935	-11.78
896.106	-19.97
896.276	55.81
896.447	51.71
896.617	43.52
896.788	-22.02
896.958	2.56
897.129	8.7
897.299	86.53
897.47	29.18
897.64	55.81
897.81	-58.88
897.981	49.66
898.151	74.24
898.322	-15.87
898.492	27.14
898.662	-30.21
898.832	35.33
899.003	41.47
899.173	-9.73
899.343	41.47
899.513	2.56
