Data from USB4F104151__113__13-54-57-007.txt Node

Date: Thu Mar 13 13:54:57 EDT 2025
User: louis
Spectrometer: USB4F10415
Trigger mode: 4
Integration Time (sec): 1.000000E-2
Scans to average: 1
Electric dark correction enabled: true
Nonlinearity correction enabled: false
Boxcar width: 0
XAxis mode: Wavelengths
Number of Pixels in Spectrum: 3648
>>>>>Begin Spectral Data<<<<<
178.204	-24.75
178.424	-24.75
178.644	-24.75
178.864	-6.31
179.084	-65.71
179.304	20.31
179.524	-12.46
179.744	-43.18
179.964	40.79
180.184	32.6
180.404	-10.41
180.624	-26.79
180.844	-12.46
181.064	5.97
181.283	-0.17
181.503	1.88
181.723	3.93
181.943	26.45
182.163	-4.27
182.383	-28.84
182.602	-59.56
182.822	71.51
183.042	46.93
183.262	-30.89
183.482	32.6
183.701	51.03
183.921	28.5
184.141	-2.22
184.361	-18.6
184.58	-32.94
184.8	22.36
185.02	-12.46
185.239	-34.99
185.459	-12.46
185.679	100.18
185.898	57.17
186.118	12.12
186.338	81.75
186.557	108.37
186.777	46.93
186.997	-28.84
187.216	-16.55
187.436	12.12
187.655	26.45
187.875	79.7
188.095	77.65
188.314	87.89
188.534	24.4
188.753	-20.65
188.973	3.93
189.192	18.26
189.412	55.12
189.631	5.97
189.851	-8.36
190.07	65.36
190.29	-61.61
190.509	-10.41
190.729	-2.22
190.948	-51.37
191.168	-14.51
191.387	3.93
191.607	-26.79
191.826	44.88
192.045	18.26
192.265	69.46
192.484	-6.31
192.704	18.26
192.923	38.74
193.142	-22.7
193.362	3.93
193.581	-16.55
193.8	48.98
194.02	12.12
194.239	77.65
194.458	-2.22
194.678	-10.41
194.897	32.6
195.116	46.93
195.335	-14.51
195.555	32.6
195.774	44.88
195.993	-20.65
196.212	46.93
196.432	34.64
196.651	16.21
196.87	57.17
197.089	-12.46
197.308	8.02
197.528	46.93
197.747	-28.84
197.966	3.93
198.185	12.12
198.404	-63.66
198.623	-8.36
198.842	-88.23
199.062	-24.75
199.281	-30.89
199.5	16.21
199.719	-47.27
199.938	38.74
200.157	79.7
200.376	30.55
200.595	14.17
200.814	83.8
201.033	24.4
201.252	57.17
201.471	-2.22
201.69	36.69
201.909	30.55
202.128	-18.6
202.347	-34.99
202.566	30.55
202.785	5.97
203.004	61.27
203.223	65.36
203.442	-10.41
203.661	28.5
203.879	10.07
204.098	28.5
204.317	22.36
204.536	16.21
204.755	34.64
204.974	38.74
205.193	22.36
205.411	34.64
205.63	-4.27
205.849	32.6
206.068	1.88
206.287	67.41
206.505	-14.51
206.724	20.31
206.943	-32.94
207.162	-110.76
207.381	-26.79
207.599	18.26
207.818	36.69
208.037	12.12
208.255	83.8
208.474	55.12
208.693	-24.75
208.911	-24.75
209.13	48.98
209.349	55.12
209.567	-49.32
209.786	-16.55
210.005	-6.31
210.223	38.74
210.442	-14.51
210.661	18.26
210.879	67.41
211.098	79.7
211.316	44.88
211.535	73.56
211.753	-10.41
211.972	-45.23
212.191	34.64
212.409	-34.99
212.628	38.74
212.846	-22.7
213.065	5.97
213.283	36.69
213.502	1.88
213.72	-28.84
213.938	3.93
214.157	22.36
214.375	1.88
214.594	-4.27
214.812	28.5
215.031	-24.75
215.249	-12.46
215.467	12.12
215.686	5.97
215.904	20.31
216.122	-34.99
216.341	120.66
216.559	40.79
216.778	48.98
216.996	55.12
217.214	1.88
217.432	36.69
217.651	-18.6
217.869	48.98
218.087	10.07
218.306	18.26
218.524	32.6
218.742	26.45
218.96	10.07
219.179	-51.37
219.397	3.93
219.615	-0.17
219.833	5.97
220.051	-16.55
220.27	77.65
220.488	96.08
220.706	28.5
220.924	22.36
221.142	-26.79
221.36	5.97
221.578	24.4
221.796	85.84
222.015	100.18
222.233	38.74
222.451	36.69
222.669	34.64
222.887	48.98
223.105	46.93
223.323	75.6
223.541	22.36
223.759	40.79
223.977	8.02
224.195	87.89
224.413	44.88
224.631	61.27
224.849	-10.41
225.067	-28.84
225.285	38.74
225.503	-18.6
225.721	18.26
225.939	34.64
226.157	42.84
226.375	12.12
226.592	36.69
226.81	-8.36
227.028	61.27
227.246	26.45
227.464	79.7
227.682	55.12
227.9	3.93
228.117	73.56
228.335	-12.46
228.553	34.64
228.771	94.04
228.989	48.98
229.206	12.12
229.424	8.02
229.642	124.76
229.86	-14.51
230.077	34.64
230.295	5.97
230.513	12.12
230.731	30.55
230.948	44.88
231.166	-65.71
231.384	38.74
231.601	46.93
231.819	91.99
232.037	20.31
232.254	8.02
232.472	12.12
232.689	3.93
232.907	-20.65
233.125	-6.31
233.342	-22.7
233.56	-6.31
233.777	10.07
233.995	32.6
234.213	32.6
234.43	55.12
234.648	20.31
234.865	-12.46
235.083	5.97
235.3	24.4
235.518	36.69
235.735	34.64
235.953	-43.18
236.17	63.32
236.388	36.69
236.605	83.8
236.822	18.26
237.04	34.64
237.257	-10.41
237.475	-28.84
237.692	51.03
237.909	-12.46
238.127	46.93
238.344	-28.84
238.562	-28.84
238.779	-4.27
238.996	-6.31
239.214	-2.22
239.431	3.93
239.648	65.36
239.865	30.55
240.083	-26.79
240.3	42.84
240.517	-4.27
240.735	-43.18
240.952	30.55
241.169	73.56
241.386	-30.89
241.603	-37.03
241.821	16.21
242.038	1.88
242.255	-20.65
242.472	-8.36
242.689	-14.51
242.907	44.88
243.124	55.12
243.341	32.6
243.558	20.31
243.775	32.6
243.992	32.6
244.209	8.02
244.426	38.74
244.643	36.69
244.86	83.8
245.078	16.21
245.295	-43.18
245.512	12.12
245.729	-39.08
245.946	10.07
246.163	-4.27
246.38	36.69
246.597	65.36
246.814	32.6
247.031	36.69
247.248	98.13
247.464	-18.6
247.681	57.17
247.898	-28.84
248.115	-34.99
248.332	73.56
248.549	16.21
248.766	63.32
248.983	22.36
249.2	14.17
249.417	44.88
249.633	57.17
249.85	32.6
250.067	55.12
250.284	108.37
250.501	14.17
250.717	69.46
250.934	20.31
251.151	63.32
251.368	110.42
251.585	12.12
251.801	55.12
252.018	30.55
252.235	10.07
252.451	53.08
252.668	-77.99
252.885	46.93
253.102	44.88
253.318	46.93
253.535	-14.51
253.752	32.6
253.968	14.17
254.185	36.69
254.401	28.5
254.618	-34.99
254.835	38.74
255.051	69.46
255.268	5.97
255.484	8.02
255.701	-28.84
255.917	73.56
256.134	-2.22
256.351	8.02
256.567	-39.08
256.784	30.55
257	20.31
257.217	98.13
257.433	36.69
257.65	16.21
257.866	77.65
258.082	-16.55
258.299	67.41
258.515	28.5
258.732	32.6
258.948	32.6
259.165	-10.41
259.381	71.51
259.597	63.32
259.814	40.79
260.03	20.31
260.246	-0.17
260.463	-37.03
260.679	-2.22
260.895	59.22
261.112	48.98
261.328	59.22
261.544	38.74
261.761	44.88
261.977	16.21
262.193	-37.03
262.409	32.6
262.626	55.12
262.842	38.74
263.058	-6.31
263.274	73.56
263.49	94.04
263.707	36.69
263.923	16.21
264.139	16.21
264.355	26.45
264.571	59.22
264.787	46.93
265.004	165.71
265.22	10.07
265.436	-51.37
265.652	81.75
265.868	40.79
266.084	85.84
266.3	-22.7
266.516	44.88
266.732	34.64
266.948	26.45
267.164	71.51
267.38	-26.79
267.596	-20.65
267.812	-0.17
268.028	87.89
268.244	61.27
268.46	18.26
268.676	16.21
268.892	40.79
269.108	102.23
269.324	32.6
269.54	-14.51
269.756	104.28
269.972	-10.41
270.188	24.4
270.403	10.07
270.619	-49.32
270.835	59.22
271.051	-14.51
271.267	16.21
271.483	-8.36
271.698	5.97
271.914	75.6
272.13	-0.17
272.346	34.64
272.562	-34.99
272.777	-8.36
272.993	57.17
273.209	85.84
273.425	-14.51
273.64	53.08
273.856	18.26
274.072	-16.55
274.287	44.88
274.503	67.41
274.719	-2.22
274.934	16.21
275.15	10.07
275.366	-30.89
275.581	61.27
275.797	-49.32
276.012	1.88
276.228	38.74
276.444	48.98
276.659	85.84
276.875	53.08
277.09	-6.31
277.306	40.79
277.521	-10.41
277.737	-30.89
277.952	132.95
278.168	30.55
278.383	40.79
278.599	-57.51
278.814	12.12
279.03	71.51
279.245	-2.22
279.461	-22.7
279.676	94.04
279.892	-26.79
280.107	14.17
280.322	53.08
280.538	22.36
280.753	48.98
280.969	14.17
281.184	149.33
281.399	14.17
281.615	36.69
281.83	5.97
282.045	48.98
282.26	55.12
282.476	30.55
282.691	24.4
282.906	30.55
283.122	-41.13
283.337	26.45
283.552	22.36
283.767	-0.17
283.983	22.36
284.198	53.08
284.413	-32.94
284.628	18.26
284.843	-18.6
285.058	8.02
285.274	63.32
285.489	-59.56
285.704	-26.79
285.919	-28.84
286.134	38.74
286.349	-51.37
286.564	85.84
286.779	46.93
286.995	22.36
287.21	-14.51
287.425	40.79
287.64	71.51
287.855	22.36
288.07	61.27
288.285	-18.6
288.5	32.6
288.715	-22.7
288.93	-6.31
289.145	-24.75
289.36	53.08
289.575	48.98
289.79	8.02
290.004	65.36
290.219	-32.94
290.434	44.88
290.649	51.03
290.864	3.93
291.079	24.4
291.294	44.88
291.509	-10.41
291.724	32.6
291.938	8.02
292.153	38.74
292.368	-24.75
292.583	40.79
292.798	-12.46
293.012	20.31
293.227	36.69
293.442	102.23
293.657	18.26
293.871	10.07
294.086	16.21
294.301	5.97
294.516	8.02
294.73	-12.46
294.945	-16.55
295.16	-0.17
295.374	3.93
295.589	-0.17
295.804	-34.99
296.018	63.32
296.233	30.55
296.447	3.93
296.662	-8.36
296.877	26.45
297.091	-32.94
297.306	28.5
297.52	77.65
297.735	-6.31
297.949	55.12
298.164	63.32
298.378	14.17
298.593	53.08
298.807	-59.56
299.022	1.88
299.236	67.41
299.451	14.17
299.665	20.31
299.88	51.03
300.094	38.74
300.309	71.51
300.523	63.32
300.737	59.22
300.952	22.36
301.166	32.6
301.381	30.55
301.595	3.93
301.809	57.17
302.024	28.5
302.238	77.65
302.452	40.79
302.667	-2.22
302.881	77.65
303.095	24.4
303.309	79.7
303.524	18.26
303.738	20.31
303.952	-18.6
304.166	20.31
304.381	1.88
304.595	48.98
304.809	-59.56
305.023	-30.89
305.237	-20.65
305.452	53.08
305.666	18.26
305.88	77.65
306.094	18.26
306.308	32.6
306.522	5.97
306.736	8.02
306.95	26.45
307.164	5.97
307.379	-55.47
307.593	118.61
307.807	53.08
308.021	46.93
308.235	65.36
308.449	30.55
308.663	12.12
308.877	59.22
309.091	42.84
309.305	3.93
309.519	-57.51
309.733	53.08
309.947	16.21
310.161	18.26
310.374	69.46
310.588	44.88
310.802	-18.6
311.016	-39.08
311.23	-12.46
311.444	46.93
311.658	67.41
311.872	122.71
312.085	38.74
312.299	34.64
312.513	3.93
312.727	-2.22
312.941	-4.27
313.154	81.75
313.368	26.45
313.582	28.5
313.796	-49.32
314.009	85.84
314.223	51.03
314.437	51.03
314.651	44.88
314.864	1.88
315.078	34.64
315.292	-22.7
315.505	98.13
315.719	32.6
315.933	46.93
316.146	-6.31
316.36	38.74
316.573	28.5
316.787	34.64
317.001	16.21
317.214	55.12
317.428	87.89
317.641	16.21
317.855	79.7
318.068	12.12
318.282	16.21
318.495	40.79
318.709	59.22
318.922	-0.17
319.136	36.69
319.349	128.85
319.563	36.69
319.776	20.31
319.99	5.97
320.203	57.17
320.417	36.69
320.63	61.27
320.843	79.7
321.057	55.12
321.27	100.18
321.483	-12.46
321.697	42.84
321.91	46.93
322.124	32.6
322.337	-41.13
322.55	94.04
322.763	-30.89
322.977	-12.46
323.19	73.56
323.403	-24.75
323.617	36.69
323.83	22.36
324.043	75.6
324.256	94.04
324.469	3.93
324.683	79.7
324.896	32.6
325.109	77.65
325.322	59.22
325.535	40.79
325.748	38.74
325.962	20.31
326.175	55.12
326.388	67.41
326.601	36.69
326.814	20.31
327.027	-43.18
327.24	44.88
327.453	-30.89
327.666	-12.46
327.879	36.69
328.092	-4.27
328.305	-10.41
328.518	79.7
328.731	38.74
328.944	-0.17
329.157	18.26
329.37	32.6
329.583	114.52
329.796	67.41
330.009	16.21
330.222	-12.46
330.435	106.32
330.648	63.32
330.861	51.03
331.073	-20.65
331.286	40.79
331.499	69.46
331.712	57.17
331.925	87.89
332.138	-16.55
332.35	118.61
332.563	36.69
332.776	20.31
332.989	38.74
333.202	85.84
333.414	8.02
333.627	-4.27
333.84	-18.6
334.053	141.14
334.265	22.36
334.478	46.93
334.691	-4.27
334.903	36.69
335.116	83.8
335.329	32.6
335.541	26.45
335.754	42.84
335.966	32.6
336.179	20.31
336.392	-24.75
336.604	-8.36
336.817	67.41
337.029	14.17
337.242	20.31
337.454	10.07
337.667	-51.37
337.88	26.45
338.092	89.94
338.305	-22.7
338.517	-4.27
338.729	61.27
338.942	22.36
339.154	-22.7
339.367	16.21
339.579	36.69
339.792	-26.79
340.004	38.74
340.217	71.51
340.429	3.93
340.641	26.45
340.854	30.55
341.066	12.12
341.278	55.12
341.491	-45.23
341.703	65.36
341.915	22.36
342.128	8.02
342.34	53.08
342.552	98.13
342.764	77.65
342.977	104.28
343.189	46.93
343.401	-39.08
343.613	-12.46
343.826	40.79
344.038	10.07
344.25	98.13
344.462	67.41
344.674	53.08
344.886	32.6
345.099	53.08
345.311	-4.27
345.523	5.97
345.735	59.22
345.947	55.12
346.159	69.46
346.371	-0.17
346.583	61.27
346.795	112.47
347.007	16.21
347.219	-8.36
347.431	-16.55
347.643	55.12
347.855	114.52
348.067	63.32
348.279	46.93
348.491	73.56
348.703	5.97
348.915	38.74
349.127	67.41
349.339	22.36
349.551	48.98
349.763	20.31
349.975	71.51
350.187	83.8
350.399	46.93
350.61	61.27
350.822	87.89
351.034	-47.27
351.246	67.41
351.458	-12.46
351.669	44.88
351.881	20.31
352.093	63.32
352.305	42.84
352.517	-4.27
352.728	75.6
352.94	24.4
353.152	51.03
353.363	-12.46
353.575	1.88
353.787	34.64
353.999	22.36
354.21	59.22
354.422	22.36
354.633	10.07
354.845	118.61
355.057	40.79
355.268	67.41
355.48	3.93
355.692	16.21
355.903	71.51
356.115	51.03
356.326	-32.94
356.538	114.52
356.749	71.51
356.961	44.88
357.172	-6.31
357.384	75.6
357.595	110.42
357.807	71.51
358.018	-37.03
358.23	22.36
358.441	42.84
358.653	48.98
358.864	51.03
359.075	46.93
359.287	89.94
359.498	38.74
359.709	67.41
359.921	96.08
360.132	40.79
360.344	53.08
360.555	-10.41
360.766	61.27
360.977	110.42
361.189	40.79
361.4	26.45
361.611	22.36
361.823	85.84
362.034	46.93
362.245	118.61
362.456	-47.27
362.667	18.26
362.879	34.64
363.09	-30.89
363.301	53.08
363.512	32.6
363.723	89.94
363.935	10.07
364.146	20.31
364.357	44.88
364.568	36.69
364.779	61.27
364.99	53.08
365.201	30.55
365.412	53.08
365.623	-12.46
365.834	67.41
366.045	42.84
366.256	71.51
366.467	28.5
366.678	20.31
366.889	-14.51
367.1	5.97
367.311	-8.36
367.522	71.51
367.733	53.08
367.944	63.32
368.155	30.55
368.366	94.04
368.577	40.79
368.788	44.88
368.999	102.23
369.209	79.7
369.42	116.56
369.631	81.75
369.842	38.74
370.053	20.31
370.264	36.69
370.474	-4.27
370.685	16.21
370.896	118.61
371.107	28.5
371.317	71.51
371.528	61.27
371.739	77.65
371.95	53.08
372.16	38.74
372.371	59.22
372.582	75.6
372.792	34.64
373.003	36.69
373.214	36.69
373.424	5.97
373.635	24.4
373.846	26.45
374.056	40.79
374.267	61.27
374.477	28.5
374.688	38.74
374.898	12.12
375.109	36.69
375.319	36.69
375.53	-43.18
375.74	61.27
375.951	3.93
376.161	30.55
376.372	67.41
376.582	137.04
376.793	20.31
377.003	28.5
377.214	91.99
377.424	24.4
377.635	89.94
377.845	46.93
378.055	83.8
378.266	57.17
378.476	67.41
378.686	-47.27
378.897	61.27
379.107	65.36
379.317	42.84
379.528	53.08
379.738	30.55
379.948	1.88
380.158	34.64
380.369	69.46
380.579	40.79
380.789	59.22
380.999	71.51
381.21	67.41
381.42	30.55
381.63	-20.65
381.84	69.46
382.05	61.27
382.261	44.88
382.471	102.23
382.681	85.84
382.891	110.42
383.101	20.31
383.311	73.56
383.521	14.17
383.731	22.36
383.941	147.28
384.151	89.94
384.361	1.88
384.571	79.7
384.781	22.36
384.991	-4.27
385.201	46.93
385.411	79.7
385.621	36.69
385.831	71.51
386.041	40.79
386.251	22.36
386.461	55.12
386.671	61.27
386.881	104.28
387.091	48.98
387.301	87.89
387.511	-10.41
387.72	81.75
387.93	55.12
388.14	32.6
388.35	30.55
388.56	48.98
388.769	98.13
388.979	65.36
389.189	73.56
389.399	98.13
389.609	14.17
389.818	28.5
390.028	28.5
390.238	14.17
390.447	55.12
390.657	24.4
390.867	48.98
391.076	34.64
391.286	100.18
391.496	63.32
391.705	24.4
391.915	75.6
392.125	91.99
392.334	61.27
392.544	98.13
392.753	57.17
392.963	122.71
393.172	79.7
393.382	100.18
393.591	51.03
393.801	46.93
394.01	40.79
394.22	98.13
394.429	46.93
394.639	48.98
394.848	65.36
395.058	16.21
395.267	63.32
395.477	34.64
395.686	71.51
395.895	44.88
396.105	81.75
396.314	96.08
396.524	112.47
396.733	73.56
396.942	83.8
397.152	38.74
397.361	69.46
397.57	44.88
397.78	79.7
397.989	126.8
398.198	61.27
398.407	135
398.617	85.84
398.826	53.08
399.035	139.09
399.244	79.7
399.453	106.32
399.663	59.22
399.872	53.08
400.081	48.98
400.29	112.47
400.499	61.27
400.708	100.18
400.917	36.69
401.127	87.89
401.336	85.84
401.545	42.84
401.754	55.12
401.963	42.84
402.172	98.13
402.381	108.37
402.59	118.61
402.799	94.04
403.008	130.9
403.217	124.76
403.426	116.56
403.635	91.99
403.844	87.89
404.053	83.8
404.262	69.46
404.471	98.13
404.68	122.71
404.888	145.24
405.097	124.76
405.306	145.24
405.515	124.76
405.724	116.56
405.933	108.37
406.142	137.04
406.35	114.52
406.559	120.66
406.768	130.9
406.977	182.1
407.185	42.84
407.394	96.08
407.603	180.05
407.812	186.19
408.02	178
408.229	216.91
408.438	145.24
408.646	165.71
408.855	171.86
409.064	161.62
409.272	223.06
409.481	178
409.69	188.24
409.898	202.58
410.107	243.54
410.315	171.86
410.524	284.5
410.733	309.07
410.941	196.43
411.15	282.45
411.358	257.87
411.567	282.45
411.775	264.02
411.984	323.41
412.192	313.17
412.401	376.66
412.609	313.17
412.818	395.09
413.026	315.22
413.234	360.27
413.443	409.42
413.651	415.57
413.86	388.94
414.068	446.29
414.276	425.81
414.485	524.11
414.693	431.95
414.901	460.62
415.11	552.78
415.318	485.2
415.526	595.79
415.734	587.6
415.943	624.46
416.151	610.12
416.359	630.6
416.567	687.95
416.776	632.65
416.984	735.05
417.192	726.86
417.4	675.66
417.608	741.19
417.817	755.53
418.025	851.78
418.233	851.78
418.441	831.3
418.649	929.61
418.857	952.13
419.065	872.26
419.273	919.37
419.481	1044.29
419.689	919.37
419.897	1034.05
420.105	1154.88
420.313	1101.64
420.521	1161.03
420.729	1105.73
420.937	1238.85
421.145	1333.06
421.353	1380.16
421.561	1376.06
421.769	1386.3
421.977	1417.02
422.185	1482.56
422.393	1531.71
422.601	1773.37
422.809	1541.95
423.017	1634.11
423.224	1728.31
423.432	1756.99
423.64	1875.77
423.848	1902.39
424.056	1908.54
424.263	2125.62
424.471	2064.18
424.679	2092.85
424.887	2074.42
425.094	2215.73
425.302	2344.75
425.51	2316.08
425.718	2424.62
425.925	2496.3
426.133	2469.68
426.341	2803.5
426.548	2793.26
426.756	2760.49
426.964	2764.59
427.171	2932.52
427.379	3139.37
427.586	3118.89
427.794	3243.81
428.001	3342.11
428.209	3655.45
428.417	3522.34
428.624	3704.6
428.832	3733.28
429.039	3643.17
429.247	3745.56
429.454	4063
429.662	4314.9
429.869	4028.18
430.076	4345.62
430.284	4316.95
430.491	4325.14
430.699	4648.72
430.906	4636.43
431.114	4699.92
431.321	4953.87
431.528	4986.63
431.736	5189.38
431.943	5340.93
432.15	5332.74
432.358	5340.93
432.565	5725.95
432.772	5746.43
432.979	6108.92
433.187	6004.47
433.394	6188.79
433.601	6461.17
433.808	6573.81
434.016	6475.51
434.223	6631.15
434.43	7261.93
434.637	7065.32
434.844	7446.24
435.052	7569.12
435.259	7503.59
435.466	7593.7
435.673	7640.8
435.88	8019.67
436.087	8459.99
436.294	8431.32
436.501	8234.71
436.708	8523.48
436.915	8619.73
437.122	9043.66
437.329	9119.43
437.537	9469.64
437.743	9531.08
437.95	9432.77
438.157	10012.35
438.364	10389.17
438.571	9948.86
438.778	10288.82
438.985	11267.75
439.192	10874.54
439.399	11015.85
439.606	10866.35
439.813	11577
440.02	12439.19
440.227	11861.66
440.433	11779.75
440.64	12332.7
440.847	12203.68
441.054	12705.43
441.261	13145.74
441.467	13182.6
441.674	13487.75
441.881	13940.35
442.088	14073.47
442.294	13897.35
442.501	14233.21
442.708	14364.28
442.914	15054.45
443.121	15681.13
443.328	15050.35
443.534	16322.14
443.741	15728.23
443.948	15650.41
444.154	16545.37
444.361	16492.12
444.568	16602.71
444.774	16762.45
444.981	16907.86
445.187	17380.94
445.394	18095.68
445.6	17952.32
445.807	19463.72
446.013	18611.77
446.22	19289.65
446.426	20076.07
446.633	20203.04
446.839	21042.71
447.046	19789.35
447.252	21042.71
447.459	20917.78
447.665	20858.39
447.871	21661.19
448.078	22818.3
448.284	21548.56
448.491	22138.37
448.697	23188.98
448.903	23512.56
449.11	23719.4
449.316	23277.04
449.522	23584.24
449.728	24493.54
449.935	24313.31
450.141	24413.66
450.347	25079.25
450.553	24528.35
450.76	24354.27
450.966	25239
451.172	24921.56
451.378	25476.56
451.584	24751.58
451.791	25558.48
451.997	25566.67
452.203	25945.55
452.409	25994.7
452.615	25581.01
452.821	24735.2
453.027	24597.98
453.233	25841.1
453.44	24806.87
453.646	24862.17
453.852	25189.84
454.058	25458.13
454.264	24753.63
454.47	25048.54
454.676	24751.58
454.882	25140.69
455.088	23207.41
455.294	23674.35
455.5	23842.28
455.705	24124.9
455.911	23371.25
456.117	22582.78
456.323	22568.44
456.529	21354
456.735	21992.97
456.941	21610
457.147	21220.88
457.352	20325.92
457.558	20434.46
457.764	20420.13
457.97	19912.23
458.176	19463.72
458.381	19332.65
458.587	18517.56
458.793	18533.95
458.999	17647.18
459.204	18996.79
459.41	18247.23
459.616	17079.89
459.821	17163.86
460.027	17548.87
460.233	16877.14
460.438	16051.81
460.644	16090.72
460.85	15324.78
461.055	15263.34
461.261	14952.05
461.466	13995.65
461.672	13565.57
461.878	14446.2
462.083	13319.82
462.289	13446.79
462.494	13309.58
462.7	12805.78
462.905	12379.8
463.111	12779.15
463.316	12861.07
463.522	12517.01
463.727	12740.24
463.932	12494.49
464.138	12355.22
464.343	12332.7
464.549	11943.58
464.754	12359.32
464.959	12332.7
465.165	12263.07
465.37	11818.66
465.575	11441.83
465.781	11808.42
465.986	11830.94
466.191	11458.21
466.397	11200.17
466.602	10710.71
466.807	11249.32
467.012	11265.71
467.218	11132.59
467.423	11022
467.628	11148.97
467.833	11558.56
468.038	11042.48
468.244	10645.17
468.449	11110.06
468.654	10753.71
468.859	10596.02
469.064	10647.22
469.269	10196.67
469.474	10317.5
469.679	10571.44
469.885	10245.82
470.09	10440.37
470.295	10389.17
470.5	9957.05
470.705	10182.33
470.91	10000.06
471.115	9805.5
471.32	9891.52
471.525	10024.64
471.73	9615.04
471.935	9639.62
472.139	9252.55
472.344	9477.83
472.549	9152.2
472.754	9131.72
472.959	9111.24
473.164	8703.7
473.369	8705.74
473.574	8982.22
473.778	8992.46
473.983	8982.22
474.188	8922.83
474.393	8314.58
474.598	8535.76
474.802	8292.05
475.007	8195.8
475.212	8185.56
475.417	8240.86
475.621	8060.63
475.826	8005.34
476.031	8025.82
476.235	7683.81
476.44	8001.24
476.645	7720.67
476.849	7843.55
477.054	7878.37
477.259	7708.38
477.463	7560.93
477.668	7415.52
477.872	7417.57
478.077	7223.02
478.282	7171.82
478.486	7042.79
478.691	6975.21
478.895	7141.1
479.1	7040.75
479.304	6899.44
479.509	6868.72
479.713	7018.22
479.918	6741.74
480.122	6663.92
480.326	6913.77
480.531	6838
480.735	6823.66
480.94	6594.29
481.144	6797.04
481.348	6473.46
481.553	6594.29
481.757	6483.7
481.961	6577.9
482.166	6741.74
482.37	6557.43
482.574	6567.67
482.778	6362.87
482.983	6547.19
483.187	6461.17
483.391	6622.96
483.595	6397.68
483.8	6414.07
484.004	6354.68
484.208	6506.23
484.412	6518.51
484.616	6489.84
484.821	6469.36
485.025	6461.17
485.229	6616.82
485.433	6340.34
485.637	6463.22
485.841	6463.22
486.045	6375.16
486.249	6553.33
486.453	6459.12
486.657	6459.12
486.861	6557.43
487.065	6405.88
487.269	6534.9
487.473	6323.96
487.677	6506.23
487.881	6360.82
488.085	6455.03
488.289	6633.2
488.493	6424.31
488.697	6586.1
488.901	6375.16
489.105	6715.12
489.309	6557.43
489.512	6555.38
489.716	6538.99
489.92	6690.54
490.124	6377.2
490.328	6680.3
490.531	6588.14
490.735	6731.5
490.939	6751.98
491.143	6754.03
491.346	6723.31
491.55	6711.02
491.754	6717.17
491.958	6858.48
492.161	6940.4
492.365	6811.37
492.569	6770.41
492.772	6756.08
492.976	6915.82
493.18	7096.04
493.383	7100.14
493.587	7130.86
493.79	7196.39
493.994	7075.56
494.197	7220.97
494.401	7298.79
494.605	7163.62
494.808	7335.65
495.012	7411.43
495.215	7446.24
495.419	7423.72
495.622	7601.89
495.825	7562.98
496.029	7565.03
496.232	7853.79
496.436	7851.74
496.639	7993.05
496.843	8201.94
497.046	7937.76
497.249	8130.27
497.453	8206.04
497.656	8394.45
497.859	8263.38
498.063	8371.93
498.266	8476.37
498.469	8568.53
498.673	8367.83
498.876	8722.13
499.079	8855.25
499.282	8781.52
499.485	8996.56
499.689	9146.06
499.892	9068.23
500.095	9359.05
500.298	9580.23
500.501	9352.9
500.705	9649.86
500.908	9799.36
501.111	9838.27
501.314	10129.08
501.517	10147.51
501.72	10251.96
501.923	10241.72
502.126	10677.94
502.329	10710.71
502.532	10831.54
502.735	10702.51
502.938	11017.9
503.141	10970.8
503.344	11296.42
503.547	11243.18
503.75	11359.91
503.953	11669.16
504.156	11708.07
504.359	11638.44
504.562	11906.72
504.765	12316.31
504.968	12228.25
505.17	12424.86
505.373	12474.01
505.576	12684.95
505.779	12758.67
505.982	12816.02
506.185	13018.77
506.387	13235.85
506.59	13313.67
506.793	13659.78
506.996	13452.94
507.198	14091.9
507.401	13880.96
507.604	14188.16
507.807	14300.8
508.009	14726.77
508.212	14702.2
508.415	14812.79
508.617	15019.63
508.82	14997.1
509.022	15210.09
509.225	15572.58
509.428	15814.24
509.63	15916.64
509.833	15828.58
510.035	16205.41
510.238	16215.65
510.44	16688.73
510.643	16838.23
510.845	17012.31
511.048	16930.39
511.25	17100.37
511.453	17524.3
511.655	18015.81
511.858	17692.23
512.06	18204.22
512.262	18138.69
512.465	18529.85
512.667	18652.73
512.87	19115.57
513.072	18972.21
513.274	19146.29
513.477	19641.9
513.679	19926.57
513.881	19940.9
514.084	20192.8
514.286	20067.88
514.488	20121.12
514.69	21118.48
514.893	20946.45
515.095	21327.38
515.297	21218.83
515.499	21548.56
515.701	21562.89
515.904	22119.94
516.106	22316.54
516.308	22519.29
516.51	23006.71
516.712	22953.46
516.914	23141.88
517.116	23752.17
517.318	23625.2
517.52	23541.23
517.722	24262.12
517.925	24624.61
518.127	24753.63
518.329	24987.1
518.531	24628.7
518.733	25513.42
518.935	25947.59
519.136	25570.77
519.338	26025.42
519.54	26346.95
519.742	26506.69
519.944	26852.8
520.146	27102.65
520.348	27100.6
520.55	27796.91
520.752	27661.74
520.954	28143.02
521.155	27925.93
521.357	28552.61
521.559	28579.23
521.761	29222.3
521.963	28911
522.164	29019.55
522.366	29363.61
522.568	29631.89
522.77	29965.71
522.971	30465.41
523.173	29896.08
523.375	30700.93
523.576	30492.04
523.778	30590.34
523.98	31069.56
524.181	31028.6
524.383	31276.41
524.584	32056.68
524.786	31827.31
524.988	31898.99
525.189	32296.3
525.391	32570.72
525.592	32765.28
525.794	32812.38
525.995	32986.46
526.197	33125.72
526.398	33322.33
526.6	33504.6
526.801	33697.11
527.003	33707.35
527.204	33744.21
527.406	34047.31
527.607	34057.55
527.808	34221.39
528.01	34207.05
528.211	34473.29
528.412	35126.59
528.614	34620.74
528.815	34895.17
529.016	35112.25
529.218	34860.35
529.419	34889.02
529.62	35009.86
529.822	35009.86
530.023	35247.42
530.224	35366.2
530.425	35114.3
530.626	35003.71
530.828	34913.6
531.029	35712.31
531.23	35302.71
531.431	35523.9
531.632	35882.29
531.833	36093.23
532.035	35444.02
532.236	35908.91
532.437	36248.88
532.638	35652.92
532.839	36181.29
533.04	36257.07
533.241	35929.39
533.442	36758.82
533.643	36300.08
533.844	36318.51
534.045	36316.46
534.246	36033.84
534.447	36697.38
534.648	36259.12
534.849	36594.98
535.05	36074.8
535.251	36461.86
535.451	36218.16
535.652	36795.68
535.853	36623.65
536.054	36642.09
536.255	36513.06
536.456	36183.34
536.657	36744.48
536.857	36730.15
537.058	36281.64
537.259	36480.3
537.46	36584.74
537.66	36060.46
537.861	36734.24
538.062	36418.86
538.263	36867.36
538.463	36289.84
538.664	36418.86
538.865	36975.91
539.065	36771.11
539.266	36328.75
539.466	36601.13
539.667	36177.2
539.868	37031.2
540.068	36314.41
540.269	36396.33
540.469	36885.79
540.67	36674.85
540.87	36711.72
541.071	36490.54
541.271	36975.91
541.472	36508.97
541.672	36191.53
541.873	36734.24
542.073	36511.02
542.274	36709.67
542.474	36545.83
542.675	36289.84
542.875	37020.96
543.075	36513.06
543.276	36222.25
543.476	37100.83
543.676	36697.38
543.877	36736.29
544.077	36465.96
544.277	36551.98
544.478	36631.85
544.678	36969.76
544.878	36488.49
545.078	36779.3
545.279	36484.39
545.479	36384.04
545.679	36807.97
545.879	36482.34
546.079	36613.41
546.28	36508.97
546.48	36201.77
546.68	36660.52
546.88	36468.01
547.08	36379.95
547.28	36345.13
547.48	36115.76
547.68	36439.34
547.88	36496.68
548.081	36916.51
548.281	36605.22
548.481	36306.22
548.681	36502.82
548.881	36316.46
549.081	36283.69
549.28	36283.69
549.48	36828.45
549.68	36144.43
549.88	37070.11
550.08	36162.86
550.28	36666.66
550.48	36371.75
550.68	36541.74
550.88	36314.41
551.08	36271.4
551.279	36414.76
551.479	36097.33
551.679	36207.92
551.879	36379.95
552.079	36584.74
552.278	36394.28
552.478	36515.11
552.678	36119.85
552.878	36427.05
553.077	36298.03
553.277	35990.83
553.477	36521.26
553.676	36371.75
553.876	36021.55
554.076	36025.65
554.275	36150.57
554.475	35765.56
554.674	36255.02
554.874	35953.97
555.074	35708.21
555.273	35931.44
555.473	36138.29
555.672	35743.03
555.872	35620.15
556.071	36062.51
556.271	36156.72
556.47	35669.3
556.67	35417.4
556.869	35599.67
557.068	35534.14
557.268	35552.57
557.467	35620.15
557.667	35493.18
557.866	35446.07
558.065	35677.49
558.265	35534.14
558.464	35159.36
558.663	35405.11
558.863	35059.01
559.062	35648.82
559.261	34905.41
559.461	35343.67
559.66	35001.66
559.859	35204.41
560.058	34805.06
560.258	35099.97
560.457	34751.81
560.656	34673.99
560.855	34618.69
561.054	34596.17
561.253	34321.74
561.453	34991.42
561.652	34704.71
561.851	34880.83
562.05	34385.22
562.249	34352.46
562.448	34692.42
562.647	34458.95
562.846	34045.26
563.045	34491.72
563.244	34313.55
563.443	34200.91
563.642	33881.42
563.841	34483.53
564.04	33602.9
564.239	33975.63
564.438	33826.13
564.637	33752.4
564.836	34088.27
565.035	33783.12
565.234	33824.08
565.432	33856.85
565.631	33144.16
565.83	33965.39
566.029	33062.24
566.228	33195.35
566.427	33160.54
566.625	32828.77
566.824	32734.56
567.023	33154.4
567.222	32533.86
567.42	33340.76
567.619	32898.4
567.818	32791.9
568.016	32734.56
568.215	32742.75
568.414	32607.59
568.612	32650.6
568.811	32066.92
569.01	32451.94
569.208	32214.38
569.407	32482.66
569.605	31694.19
569.804	32275.82
570.002	31860.08
570.201	32228.71
570.4	31567.22
570.598	31669.62
570.797	31184.25
570.995	32241
571.193	31513.97
571.392	31407.48
571.59	31200.63
571.789	31135.1
571.987	31077.76
572.186	31247.74
572.384	30834.05
572.582	30819.71
572.781	30920.06
572.979	30510.47
573.177	30758.27
573.376	30573.95
573.574	30465.41
573.772	30422.41
573.971	30332.29
574.169	30309.77
574.367	30182.79
574.565	30162.31
574.763	29949.32
574.962	29820.3
575.16	29990.28
575.358	29820.3
575.556	29267.35
575.754	29703.57
575.952	29349.27
576.151	29672.85
576.349	29255.06
576.547	29109.66
576.745	29273.49
576.943	29328.79
577.141	29132.18
577.339	29300.12
577.537	28923.29
577.735	28986.78
577.933	28585.38
578.131	28757.41
578.329	28616.1
578.527	28269.99
578.725	28468.64
578.923	28403.11
579.121	28319.14
579.319	27907.5
579.516	28057
579.714	28128.68
579.912	27915.69
580.11	27633.07
580.308	28126.63
580.506	27727.28
580.704	27280.82
580.901	27704.75
581.099	27467.19
581.297	27198.9
581.495	27352.5
581.692	27235.77
581.89	27182.52
582.088	27211.19
582.285	26557.89
582.483	27033.02
582.681	26772.92
582.878	26760.64
583.076	26641.85
583.274	26805.69
583.471	26283.46
583.669	26359.24
583.866	26541.5
584.064	26514.88
584.262	26181.06
584.459	26461.63
584.657	25845.19
584.854	25970.12
585.052	25415.12
585.249	25720.27
585.447	25609.68
585.644	25337.3
585.841	25566.67
586.039	25449.94
586.236	25505.23
586.434	25566.67
586.631	25130.45
586.828	25271.76
587.026	25152.98
587.223	25195.99
587.42	24968.66
587.618	25208.28
587.815	24612.32
588.012	24643.04
588.21	24589.79
588.407	24733.15
588.604	24423.9
588.801	24344.03
588.999	24124.9
589.196	24282.59
589.393	24370.66
589.59	24108.52
589.787	24020.45
589.984	24020.45
590.182	23772.65
590.379	23913.96
590.576	23592.43
590.773	23823.85
590.97	23746.03
591.167	23911.91
591.364	23279.09
591.561	23645.68
591.758	23404.02
591.955	23617
592.152	23217.65
592.349	23098.87
592.546	22849.02
592.743	23053.81
592.94	22722.04
593.137	22967.8
593.334	22955.51
593.531	22623.74
593.727	22990.33
593.924	22961.65
594.121	22873.59
594.318	22863.35
594.515	22242.82
594.712	22623.74
594.908	22367.74
595.105	22435.33
595.302	22165
595.499	22244.87
595.696	22023.69
595.892	22132.23
596.089	21988.87
596.286	21990.92
596.482	21689.87
596.679	21923.33
596.876	21835.27
597.072	21650.95
597.269	21773.83
597.466	21485.07
597.662	21378.58
597.859	21446.16
598.055	21597.71
598.252	21173.78
598.448	21294.61
598.645	21163.54
598.841	20971.03
599.038	21132.82
599.234	21104.15
599.431	20966.93
599.627	20700.7
599.824	21034.52
600.02	20692.51
600.217	20518.43
600.413	20567.58
600.609	20606.49
600.806	20295.2
601.002	20665.88
601.198	20430.37
601.395	20229.66
601.591	20188.71
601.787	20309.54
601.984	20065.83
602.18	20176.42
602.376	20006.44
602.572	19998.24
602.769	19723.82
602.965	19691.05
603.161	20033.06
603.357	19482.16
603.553	19666.47
603.75	19750.44
603.946	19500.59
604.142	19435.05
604.338	19396.14
604.534	19600.94
604.73	19148.34
604.926	18880.05
605.122	19346.99
605.318	18808.37
605.514	18925.11
605.71	18581.05
605.906	18791.99
606.102	18888.25
606.298	18720.31
606.494	18376.25
606.69	18398.78
606.886	18505.27
607.082	18253.37
607.278	18708.02
607.474	18341.44
607.67	18165.31
607.866	18091.59
608.062	18599.48
608.257	18048.58
608.453	17997.38
608.649	18189.89
608.845	17755.72
609.041	17931.84
609.236	17815.11
609.432	17892.93
609.628	17886.79
609.824	17729.09
610.019	17802.82
610.215	17612.36
610.411	17718.85
610.606	17477.19
610.802	17614.41
610.998	17372.75
611.193	17290.83
611.389	17102.42
611.584	17151.57
611.78	17135.18
611.976	17286.73
612.171	17124.94
612.367	17063.5
612.562	16911.96
612.758	16807.51
612.953	16580.18
613.149	17419.85
613.344	16662.1
613.539	17155.66
613.735	16901.72
613.93	16821.84
614.126	16756.31
614.321	16678.49
614.517	17124.94
614.712	16399.96
614.907	16459.35
615.103	16483.93
615.298	16186.97
615.493	16760.41
615.688	16352.86
615.884	16752.21
616.079	16019.04
616.274	16266.85
616.47	16279.13
616.665	16137.82
616.86	15939.17
617.055	16057.95
617.25	16215.65
617.445	16428.63
617.641	15650.41
617.836	15922.79
618.031	16010.85
618.226	15883.87
618.421	15793.76
618.616	15709.8
618.811	15431.27
619.006	15855.2
619.201	15478.38
619.396	15431.27
619.591	15283.82
619.786	15568.49
619.981	14978.67
620.176	15283.82
620.371	14943.86
620.566	15054.45
620.761	14954.1
620.956	14894.71
621.151	14511.74
621.346	14755.44
621.541	14519.93
621.735	14524.02
621.93	14302.84
622.125	14728.82
622.32	14282.36
622.515	14384.76
622.709	14089.85
622.904	14173.82
623.099	13842.05
623.294	14397.05
623.488	13692.55
623.683	14132.86
623.878	13571.72
624.072	13850.24
624.267	13604.49
624.462	13485.7
624.656	13479.56
624.851	13293.19
625.046	13487.75
625.24	13192.84
625.435	13311.63
625.629	13434.5
625.824	12861.07
626.018	13092.49
626.213	12693.14
626.407	12953.23
626.602	12586.65
626.796	12648.08
626.991	12641.94
627.185	12502.68
627.38	12641.94
627.574	12193.44
627.768	12474.01
627.963	12224.15
628.157	12248.73
628.352	12107.42
628.546	12109.47
628.74	12367.51
628.935	11869.86
629.129	12070.56
629.323	11783.84
629.517	11964.06
629.712	11701.92
629.906	11562.66
630.1	11409.06
630.294	11501.22
630.489	11476.65
630.683	11593.38
630.877	11323.05
631.071	11325.1
631.265	11030.19
631.459	11069.1
631.653	11249.32
631.848	11132.59
632.042	11132.59
632.236	10997.42
632.43	10794.67
632.624	11030.19
632.818	10866.35
633.012	10510
633.206	10585.78
633.4	10596.02
633.594	10524.34
633.788	10725.04
633.982	10542.77
634.176	10405.56
634.369	10311.35
634.563	10348.22
634.757	10108.6
634.951	10071.74
635.145	10096.32
635.339	10426.04
635.533	9920.19
635.726	10116.79
635.92	9672.39
636.114	9817.79
636.308	9924.29
636.501	9625.28
636.695	9825.98
636.889	9762.5
637.083	9764.54
637.276	9430.73
637.47	9594.56
637.664	9383.62
637.857	9404.1
638.051	9584.32
638.244	9455.3
638.438	9289.42
638.632	9234.12
638.825	9068.23
639.019	9230.02
639.212	9010.89
639.406	9125.58
639.599	9195.21
639.793	9248.46
639.986	8697.55
640.18	8795.86
640.373	8777.42
640.567	8621.78
640.76	8580.82
640.954	8482.52
641.147	8685.26
641.34	8562.39
641.534	8543.95
641.727	8578.77
641.92	8599.25
642.114	8380.12
642.307	8298.2
642.5	8318.68
642.694	8027.87
642.887	8097.5
643.08	8265.43
643.273	8056.54
643.467	7964.38
643.66	7937.76
643.853	8034.01
644.046	7757.53
644.239	7968.48
644.432	7833.31
644.626	7677.66
644.819	7745.25
645.012	7616.23
645.205	7624.42
645.398	7573.22
645.591	7532.26
645.784	7558.88
645.977	7519.97
646.17	7542.5
646.363	7231.21
646.556	7190.25
646.749	7245.54
646.942	7270.12
647.135	7077.61
647.328	7089.9
647.521	7087.85
647.714	7007.98
647.907	7112.42
648.099	6903.53
648.292	7016.17
648.485	6809.33
648.678	6936.3
648.871	6819.57
649.064	6809.33
649.256	6809.33
649.449	6717.17
649.642	6635.25
649.835	6555.38
650.027	6684.4
650.22	6563.57
650.413	6618.86
650.605	6514.42
650.798	6315.76
650.991	6217.46
651.183	6420.21
651.376	6184.69
651.568	6416.12
651.761	6381.3
651.954	6207.22
652.146	6252.28
652.339	6084.34
652.531	6018.81
652.724	6035.19
652.916	5951.23
653.109	5881.6
653.301	5916.41
653.494	5865.21
653.686	5818.11
653.879	5779.2
654.071	5840.64
654.263	5748.48
654.456	5654.27
654.648	5639.94
654.84	5574.4
655.033	5578.5
655.225	5697.28
655.417	5476.1
655.61	5502.72
655.802	5496.58
655.994	5349.12
656.186	5392.13
656.379	5529.34
656.571	5484.29
656.763	5416.71
656.955	5256.97
657.148	5287.68
657.34	5267.2
657.532	5119.75
657.724	5099.27
657.916	5154.57
658.108	5037.83
658.3	5005.06
658.492	5076.74
658.684	5105.42
658.876	5070.6
659.068	4865.8
659.26	4970.25
659.452	4923.15
659.644	4966.15
659.836	4683.53
660.028	4857.61
660.22	4581.14
660.412	4675.34
660.604	4751.12
660.796	4650.77
660.988	4695.82
661.18	4603.66
661.372	4472.59
661.563	4597.52
661.755	4546.32
661.947	4411.15
662.139	4513.55
662.331	4439.83
662.522	4409.11
662.714	4536.08
662.906	4421.39
663.097	4265.75
663.289	4386.58
663.481	4427.54
663.673	4331.28
663.864	4294.42
664.056	4097.81
664.247	4253.46
664.439	4042.52
664.631	4075.29
664.822	4177.69
665.014	4083.48
665.205	4077.34
665.397	4220.69
665.588	3979.03
665.78	3954.46
665.971	4009.75
666.163	3845.91
666.354	3987.22
666.546	4024.09
666.737	3886.87
666.929	3854.11
667.12	3886.87
667.311	3852.06
667.503	3792.67
667.694	3866.39
667.885	3696.41
668.077	3749.66
668.268	3651.36
668.459	3700.51
668.651	3657.5
668.842	3555.1
669.033	3677.98
669.224	3653.41
669.416	3665.69
669.607	3632.93
669.798	3673.89
669.989	3569.44
670.18	3700.51
670.371	3569.44
670.563	3467.04
670.754	3528.48
670.945	3532.58
671.136	3444.51
671.327	3565.34
671.518	3497.76
671.709	3295.01
671.9	3512.1
672.091	3407.65
672.282	3323.68
672.473	3432.22
672.664	3344.16
672.855	3366.69
673.046	3376.93
673.237	3385.12
673.428	3434.27
673.619	3350.31
673.809	3231.52
674	3335.97
674.191	3131.17
674.382	3299.11
674.573	3125.03
674.764	3313.44
674.954	3331.87
675.145	3219.24
675.336	3161.89
675.527	3249.96
675.717	3122.98
675.908	3131.17
676.099	3223.33
676.289	3071.78
676.48	3041.06
676.671	3053.35
676.861	3096.36
677.052	3063.59
677.243	2969.38
677.433	3069.73
677.624	3036.97
677.814	2899.75
678.005	3088.17
678.195	3004.2
678.386	3090.21
678.576	2971.43
678.767	3010.34
678.957	2946.86
679.148	2918.18
679.338	2912.04
679.529	2963.24
679.719	2887.47
679.909	2909.99
680.1	2922.28
680.29	2920.23
680.481	2846.51
680.671	2957.1
680.861	2885.42
681.052	2848.55
681.242	2836.27
681.432	2803.5
681.622	2838.31
681.813	2864.94
682.003	2871.08
682.193	2770.73
682.383	2785.07
682.573	2881.32
682.764	2905.9
682.954	2858.79
683.144	2776.87
683.334	2860.84
683.524	2799.4
683.714	2744.11
683.904	2783.02
684.094	2711.34
684.284	2807.59
684.474	2758.44
684.664	2746.16
684.854	2670.38
685.044	2692.91
685.234	2625.33
685.424	2772.78
685.614	2801.45
685.804	2727.72
685.994	2692.91
686.184	2565.93
686.374	2676.52
686.564	2570.03
686.753	2676.52
686.943	2637.61
687.133	2721.58
687.323	2539.31
687.513	2719.53
687.702	2692.91
687.892	2610.99
688.082	2524.97
688.272	2658.09
688.461	2567.98
688.651	2565.93
688.841	2537.26
689.03	2539.31
689.22	2512.69
689.41	2635.57
689.599	2477.87
689.789	2481.97
689.979	2627.37
690.168	2576.17
690.358	2498.35
690.547	2438.96
690.737	2588.46
690.926	2596.65
691.116	2445.1
691.305	2518.83
691.495	2508.59
691.684	2518.83
691.874	2537.26
692.063	2512.69
692.252	2389.81
692.442	2553.65
692.631	2625.33
692.82	2412.34
693.01	2453.3
693.199	2408.24
693.388	2430.77
693.578	2488.11
693.767	2492.21
693.956	2422.58
694.146	2441.01
694.335	2357.04
694.524	2578.22
694.713	2522.93
694.902	2588.46
695.092	2412.34
695.281	2422.58
695.47	2400.05
695.659	2338.61
695.848	2469.68
696.037	2381.62
696.226	2395.95
696.415	2447.15
696.604	2379.57
696.793	2377.52
696.982	2441.01
697.171	2418.48
697.36	2367.28
697.549	2496.3
697.738	2426.67
697.927	2367.28
698.116	2541.36
698.305	2391.86
698.494	2393.9
698.683	2359.09
698.872	2367.28
699.061	2408.24
699.25	2395.95
699.438	2332.47
699.627	2457.39
699.816	2283.31
700.005	2318.13
700.193	2428.72
700.382	2369.33
700.571	2463.54
700.76	2393.9
700.948	2393.9
701.137	2441.01
701.326	2385.71
701.514	2402.1
701.703	2475.82
701.892	2199.35
702.08	2422.58
702.269	2461.49
702.457	2275.12
702.646	2457.39
702.834	2254.64
703.023	2465.58
703.212	2395.95
703.4	2338.61
703.589	2365.23
703.777	2289.46
703.965	2242.36
704.154	2324.27
704.342	2185.01
704.531	2375.47
704.719	2309.94
704.907	2279.22
705.096	2268.98
705.284	2232.12
705.472	2279.22
705.661	2322.23
705.849	2299.7
706.037	2203.44
706.226	2217.78
706.414	2178.87
706.602	2185.01
706.79	2246.45
706.979	2113.33
707.167	2129.72
707.355	2223.92
707.543	2176.82
707.731	2127.67
707.919	2168.63
708.107	2338.61
708.296	2211.64
708.484	2123.57
708.672	2195.25
708.86	2060.09
709.048	2119.48
709.236	2012.98
709.424	2172.72
709.612	2092.85
709.8	2125.62
709.988	2055.99
710.176	2070.33
710.364	2047.8
710.551	2131.76
710.739	2070.33
710.927	2152.24
711.115	2146.1
711.303	2094.9
711.491	1994.55
711.679	2039.61
711.866	2035.51
712.054	1961.78
712.242	1996.6
712.43	2090.81
712.617	2031.41
712.805	1922.87
712.993	1896.25
713.181	1990.45
713.368	1949.5
713.556	1986.36
713.744	1871.67
713.931	1922.87
714.119	1855.29
714.306	1888.06
714.494	1931.06
714.682	1937.21
714.869	1875.77
715.057	2033.46
715.244	1922.87
715.432	1883.96
715.619	1929.02
715.807	1890.1
715.994	1806.14
716.182	1826.62
716.369	1855.29
716.556	1740.6
716.744	1861.43
716.931	1728.31
717.119	1976.12
717.306	1789.75
717.493	1781.56
717.681	1863.48
717.868	1840.95
718.055	1832.76
718.242	1818.43
718.43	1754.94
718.617	1765.18
718.804	1752.89
718.991	1804.09
719.179	1742.65
719.366	1806.14
719.553	1730.36
719.74	1644.35
719.927	1808.19
720.114	1863.48
720.301	1771.32
720.488	1646.4
720.676	1744.7
720.863	1687.36
721.05	1677.12
721.237	1683.26
721.424	1675.07
721.611	1709.88
721.798	1654.59
721.985	1627.96
722.172	1623.87
722.358	1660.73
722.545	1652.54
722.732	1582.91
722.919	1642.3
723.106	1597.24
723.293	1625.92
723.48	1589.05
723.667	1556.29
723.853	1582.91
724.04	1593.15
724.227	1619.77
724.414	1517.37
724.6	1560.38
724.787	1478.46
724.974	1546.05
725.161	1570.62
725.347	1656.64
725.534	1584.96
725.72	1568.57
725.907	1517.37
726.094	1582.91
726.28	1529.66
726.467	1521.47
726.653	1533.76
726.84	1392.45
727.027	1492.8
727.213	1439.55
727.4	1576.77
727.586	1445.7
727.773	1470.27
727.959	1419.07
728.145	1496.89
728.332	1498.94
728.518	1451.84
728.705	1431.36
728.891	1333.06
729.077	1388.35
729.264	1480.51
729.45	1431.36
729.636	1404.74
729.823	1474.37
730.009	1595.2
730.195	1347.39
730.382	1517.37
730.568	1490.75
730.754	1392.45
730.94	1365.82
731.126	1376.06
731.313	1378.11
731.499	1318.72
731.685	1476.41
731.871	1288
732.057	1277.76
732.243	1367.87
732.429	1402.69
732.615	1390.4
732.801	1353.54
732.987	1410.88
733.173	1367.87
733.359	1312.58
733.545	1322.82
733.731	1314.63
733.917	1412.93
734.103	1273.67
734.289	1314.63
734.475	1240.9
734.661	1343.3
734.847	1310.53
735.033	1341.25
735.219	1263.43
735.404	1294.15
735.59	1371.97
735.776	1271.62
735.962	1322.82
736.148	1292.1
736.333	1216.32
736.519	1267.52
736.705	1226.56
736.89	1193.8
737.076	1288
737.262	1206.08
737.447	1267.52
737.633	1179.46
737.819	1210.18
738.004	1216.32
738.19	1152.84
738.375	1179.46
738.561	1199.94
738.747	1273.67
738.932	1185.6
739.118	1171.27
739.303	1140.55
739.489	1144.64
739.674	1183.56
739.859	1218.37
740.045	1238.85
740.23	1134.4
740.416	1093.44
740.601	1144.64
740.786	1163.08
740.972	1163.08
741.157	1103.68
741.342	1120.07
741.528	1091.4
741.713	1085.25
741.898	1101.64
742.084	1099.59
742.269	1015.62
742.454	1089.35
742.639	1077.06
742.824	1093.44
743.01	1070.92
743.195	1062.73
743.38	1120.07
743.565	1101.64
743.75	1087.3
743.935	1056.58
744.12	1134.4
744.305	1060.68
744.49	1040.2
744.675	1072.96
744.86	1072.96
745.045	1003.33
745.23	1019.72
745.415	1027.91
745.6	1003.33
745.785	1023.81
745.97	1070.92
746.155	1003.33
746.34	966.47
746.525	966.47
746.71	1011.53
746.895	1005.38
747.079	929.61
747.264	864.07
747.449	962.37
747.634	939.85
747.819	1036.1
748.003	960.33
748.188	931.66
748.373	915.27
748.557	935.75
748.742	919.37
748.927	909.13
749.111	931.66
749.296	939.85
749.481	937.8
749.665	929.61
749.85	931.66
750.034	909.13
750.219	898.89
750.404	843.59
750.588	905.03
750.773	819.02
750.957	888.65
751.141	843.59
751.326	876.36
751.51	825.16
751.695	890.7
751.879	812.87
752.064	819.02
752.248	823.11
752.432	751.43
752.617	823.11
752.801	753.48
752.985	798.54
753.17	823.11
753.354	773.96
753.538	792.39
753.722	710.47
753.907	718.67
754.091	767.82
754.275	792.39
754.459	741.19
754.643	749.39
754.828	757.58
755.012	769.87
755.196	726.86
755.38	655.18
755.564	687.95
755.748	675.66
755.932	767.82
756.116	710.47
756.3	753.48
756.484	745.29
756.668	612.17
756.852	696.14
757.036	608.08
757.22	585.55
757.404	657.23
757.588	646.99
757.772	712.52
757.956	669.52
758.14	665.42
758.323	661.32
758.507	569.16
758.691	649.04
758.875	726.86
759.059	649.04
759.242	671.56
759.426	669.52
759.61	620.36
759.794	665.42
759.977	595.79
760.161	653.13
760.345	646.99
760.528	569.16
760.712	626.51
760.895	644.94
761.079	571.21
761.263	665.42
761.446	595.79
761.63	661.32
761.813	603.98
761.997	595.79
762.18	573.26
762.364	585.55
762.547	585.55
762.731	511.82
762.914	552.78
763.098	558.92
763.281	532.3
763.464	636.75
763.648	485.2
763.831	554.83
764.015	563.02
764.198	524.11
764.381	526.16
764.564	563.02
764.748	563.02
764.931	552.78
765.114	546.64
765.297	567.12
765.481	517.97
765.664	454.48
765.847	489.29
766.03	554.83
766.213	481.1
766.397	552.78
766.58	442.19
766.763	573.26
766.946	538.45
767.129	503.63
767.312	515.92
767.495	487.25
767.678	472.91
767.861	477.01
768.044	513.87
768.227	434
768.41	573.26
768.593	509.77
768.776	560.97
768.959	520.01
769.142	538.45
769.324	554.83
769.507	558.92
769.69	446.29
769.873	431.95
770.056	485.2
770.239	456.53
770.421	446.29
770.604	546.64
770.787	421.71
770.97	479.05
771.152	434
771.335	444.24
771.518	507.73
771.7	503.63
771.883	382.8
772.066	491.34
772.248	388.94
772.431	487.25
772.613	524.11
772.796	436.05
772.978	501.58
773.161	421.71
773.343	530.25
773.526	511.82
773.708	419.66
773.891	395.09
774.073	460.62
774.256	458.57
774.438	450.38
774.621	390.99
774.803	388.94
774.985	431.95
775.168	425.81
775.35	417.61
775.532	448.33
775.715	450.38
775.897	413.52
776.079	458.57
776.261	337.74
776.444	429.9
776.626	343.89
776.808	339.79
776.99	405.33
777.173	356.18
777.355	419.66
777.537	393.04
777.719	366.42
777.901	347.98
778.083	358.22
778.265	345.94
778.447	425.81
778.629	292.69
778.811	384.85
778.993	294.74
779.175	335.7
779.357	337.74
779.539	358.22
779.721	311.12
779.903	397.14
780.085	376.66
780.267	268.11
780.449	368.46
780.631	294.74
780.812	368.46
780.994	331.6
781.176	356.18
781.358	343.89
781.54	366.42
781.721	288.59
781.903	376.66
782.085	245.59
782.267	309.07
782.448	307.02
782.63	225.11
782.812	339.79
782.993	300.88
783.175	284.5
783.357	337.74
783.538	339.79
783.72	245.59
783.901	296.78
784.083	245.59
784.264	241.49
784.446	253.78
784.627	284.5
784.809	231.25
784.99	276.31
785.172	239.44
785.353	233.3
785.535	315.22
785.716	231.25
785.897	221.01
786.079	311.12
786.26	208.72
786.441	257.87
786.623	202.58
786.804	202.58
786.985	227.15
787.167	259.92
787.348	216.91
787.529	286.54
787.71	208.72
787.891	218.96
788.073	243.54
788.254	241.49
788.435	241.49
788.616	216.91
788.797	241.49
788.978	237.39
789.159	245.59
789.34	249.68
789.522	251.73
789.703	229.2
789.884	272.21
790.065	214.87
790.246	216.91
790.427	202.58
790.607	186.19
790.788	272.21
790.969	221.01
791.15	225.11
791.331	182.1
791.512	221.01
791.693	223.06
791.874	274.26
792.054	198.48
792.235	210.77
792.416	171.86
792.597	206.67
792.778	155.47
792.958	202.58
793.139	153.43
793.32	255.83
793.5	153.43
793.681	167.76
793.862	214.87
794.042	212.82
794.223	190.29
794.404	169.81
794.584	212.82
794.765	169.81
794.945	157.52
795.126	194.39
795.306	188.24
795.487	188.24
795.667	210.77
795.848	87.89
796.028	274.26
796.209	126.8
796.389	190.29
796.57	184.15
796.75	135
796.93	128.85
797.111	128.85
797.291	122.71
797.471	231.25
797.652	161.62
797.832	122.71
798.012	184.15
798.192	186.19
798.373	153.43
798.553	194.39
798.733	81.75
798.913	155.47
799.093	190.29
799.274	206.67
799.454	157.52
799.634	87.89
799.814	171.86
799.994	137.04
800.174	104.28
800.354	153.43
800.534	147.28
800.714	106.32
800.894	130.9
801.074	188.24
801.254	75.6
801.434	163.67
801.614	85.84
801.794	132.95
801.974	362.32
802.154	94.04
802.334	89.94
802.514	186.19
802.693	216.91
802.873	108.37
803.053	157.52
803.233	137.04
803.413	184.15
803.592	96.08
803.772	110.42
803.952	139.09
804.131	112.47
804.311	186.19
804.491	108.37
804.67	96.08
804.85	139.09
805.03	106.32
805.209	153.43
805.389	102.23
805.568	163.67
805.748	89.94
805.928	165.71
806.107	91.99
806.287	147.28
806.466	155.47
806.646	169.81
806.825	104.28
807.004	46.93
807.184	91.99
807.363	102.23
807.543	130.9
807.722	79.7
807.901	139.09
808.081	122.71
808.26	63.32
808.439	153.43
808.619	81.75
808.798	135
808.977	153.43
809.156	149.33
809.336	81.75
809.515	135
809.694	83.8
809.873	122.71
810.052	83.8
810.231	137.04
810.411	83.8
810.59	94.04
810.769	102.23
810.948	116.56
811.127	124.76
811.306	135
811.485	96.08
811.664	79.7
811.843	178
812.022	71.51
812.201	61.27
812.38	169.81
812.559	79.7
812.737	135
812.916	89.94
813.095	77.65
813.274	59.22
813.453	73.56
813.632	110.42
813.811	145.24
813.989	104.28
814.168	22.36
814.347	139.09
814.526	96.08
814.704	38.74
814.883	126.8
815.062	96.08
815.24	106.32
815.419	104.28
815.598	112.47
815.776	30.55
815.955	137.04
816.133	38.74
816.312	79.7
816.49	71.51
816.669	12.12
816.847	102.23
817.026	104.28
817.204	24.4
817.383	65.36
817.561	75.6
817.74	63.32
817.918	153.43
818.097	116.56
818.275	-12.46
818.453	59.22
818.632	69.46
818.81	77.65
818.988	110.42
819.167	63.32
819.345	73.56
819.523	116.56
819.701	91.99
819.879	85.84
820.058	61.27
820.236	16.21
820.414	20.31
820.592	28.5
820.77	5.97
820.948	67.41
821.127	53.08
821.305	96.08
821.483	110.42
821.661	130.9
821.839	63.32
822.017	98.13
822.195	-34.99
822.373	63.32
822.551	-2.22
822.729	141.14
822.907	53.08
823.085	67.41
823.262	116.56
823.44	71.51
823.618	75.6
823.796	65.36
823.974	139.09
824.152	16.21
824.329	12.12
824.507	30.55
824.685	3.93
824.863	42.84
825.04	18.26
825.218	55.12
825.396	14.17
825.574	108.37
825.751	114.52
825.929	22.36
826.107	26.45
826.284	79.7
826.462	89.94
826.639	55.12
826.817	42.84
826.994	48.98
827.172	34.64
827.349	73.56
827.527	59.22
827.704	46.93
827.882	112.47
828.059	10.07
828.237	22.36
828.414	42.84
828.591	108.37
828.769	169.81
828.946	73.56
829.124	30.55
829.301	30.55
829.478	55.12
829.655	85.84
829.833	46.93
830.01	61.27
830.187	122.71
830.364	14.17
830.542	12.12
830.719	-30.89
830.896	61.27
831.073	67.41
831.25	81.75
831.427	100.18
831.604	46.93
831.782	75.6
831.959	42.84
832.136	28.5
832.313	30.55
832.49	65.36
832.667	34.64
832.844	5.97
833.021	36.69
833.198	128.85
833.374	14.17
833.551	1.88
833.728	57.17
833.905	55.12
834.082	67.41
834.259	55.12
834.436	61.27
834.612	81.75
834.789	83.8
834.966	55.12
835.143	-49.32
835.319	44.88
835.496	38.74
835.673	24.4
835.85	53.08
836.026	89.94
836.203	30.55
836.38	30.55
836.556	85.84
836.733	-0.17
836.909	48.98
837.086	61.27
837.262	55.12
837.439	-24.75
837.616	53.08
837.792	14.17
837.968	77.65
838.145	38.74
838.321	81.75
838.498	18.26
838.674	53.08
838.851	59.22
839.027	32.6
839.203	12.12
839.38	100.18
839.556	20.31
839.732	38.74
839.909	98.13
840.085	94.04
840.261	34.64
840.437	126.8
840.614	65.36
840.79	102.23
840.966	94.04
841.142	91.99
841.318	55.12
841.494	63.32
841.671	77.65
841.847	135
842.023	85.84
842.199	32.6
842.375	69.46
842.551	46.93
842.727	40.79
842.903	71.51
843.079	3.93
843.255	65.36
843.431	98.13
843.607	-10.41
843.783	-24.75
843.959	77.65
844.134	24.4
844.31	30.55
844.486	55.12
844.662	91.99
844.838	20.31
845.013	12.12
845.189	40.79
845.365	53.08
845.541	77.65
845.716	-16.55
845.892	75.6
846.068	67.41
846.244	94.04
846.419	22.36
846.595	24.4
846.77	65.36
846.946	20.31
847.122	114.52
847.297	5.97
847.473	145.24
847.648	14.17
847.824	51.03
847.999	-34.99
848.175	22.36
848.35	-12.46
848.526	30.55
848.701	28.5
848.876	-20.65
849.052	42.84
849.227	-10.41
849.403	10.07
849.578	8.02
849.753	-4.27
849.929	42.84
850.104	30.55
850.279	8.02
850.454	-28.84
850.63	38.74
850.805	18.26
850.98	-12.46
851.155	30.55
851.33	65.36
851.505	8.02
851.681	65.36
851.856	18.26
852.031	53.08
852.206	79.7
852.381	108.37
852.556	12.12
852.731	26.45
852.906	67.41
853.081	44.88
853.256	55.12
853.431	-24.75
853.606	44.88
853.781	96.08
853.956	-28.84
854.131	36.69
854.305	-0.17
854.48	1.88
854.655	30.55
854.83	24.4
855.005	-55.47
855.18	22.36
855.354	55.12
855.529	22.36
855.704	77.65
855.879	69.46
856.053	24.4
856.228	67.41
856.403	12.12
856.577	22.36
856.752	8.02
856.926	51.03
857.101	22.36
857.276	73.56
857.45	16.21
857.625	-4.27
857.799	-41.13
857.974	59.22
858.148	26.45
858.323	28.5
858.497	71.51
858.672	34.64
858.846	79.7
859.02	10.07
859.195	20.31
859.369	46.93
859.543	139.09
859.718	28.5
859.892	-32.94
860.066	-2.22
860.241	5.97
860.415	36.69
860.589	-45.23
860.763	-16.55
860.938	-6.31
861.112	102.23
861.286	-28.84
861.46	-37.03
861.634	79.7
861.808	10.07
861.982	-32.94
862.157	-30.89
862.331	24.4
862.505	26.45
862.679	-8.36
862.853	63.32
863.027	8.02
863.201	51.03
863.375	12.12
863.549	-6.31
863.722	-41.13
863.896	32.6
864.07	5.97
864.244	137.04
864.418	-2.22
864.592	1.88
864.766	8.02
864.939	14.17
865.113	-22.7
865.287	61.27
865.461	40.79
865.634	-18.6
865.808	-20.65
865.982	18.26
866.156	14.17
866.329	-41.13
866.503	-6.31
866.676	-10.41
866.85	14.17
867.024	10.07
867.197	10.07
867.371	24.4
867.544	55.12
867.718	-34.99
867.891	-12.46
868.065	36.69
868.238	34.64
868.412	28.5
868.585	-32.94
868.759	5.97
868.932	14.17
869.105	10.07
869.279	51.03
869.452	-6.31
869.625	12.12
869.799	53.08
869.972	22.36
870.145	10.07
870.319	26.45
870.492	-39.08
870.665	26.45
870.838	48.98
871.011	22.36
871.185	69.46
871.358	16.21
871.531	79.7
871.704	-18.6
871.877	-20.65
872.05	-24.75
872.223	-12.46
872.396	-32.94
872.569	36.69
872.742	-39.08
872.915	22.36
873.088	3.93
873.261	32.6
873.434	-41.13
873.607	44.88
873.78	42.84
873.953	-53.42
874.126	38.74
874.299	-4.27
874.471	-10.41
874.644	22.36
874.817	30.55
874.99	-6.31
875.163	28.5
875.335	85.84
875.508	40.79
875.681	32.6
875.853	5.97
876.026	14.17
876.199	-30.89
876.371	5.97
876.544	22.36
876.717	42.84
876.889	-16.55
877.062	10.07
877.234	-28.84
877.407	1.88
877.579	71.51
877.752	46.93
877.924	30.55
878.097	-30.89
878.269	-10.41
878.442	36.69
878.614	-34.99
878.786	65.36
878.959	-30.89
879.131	16.21
879.303	-59.56
879.476	18.26
879.648	22.36
879.82	22.36
879.993	-28.84
880.165	32.6
880.337	-37.03
880.509	71.51
880.681	-4.27
880.854	-12.46
881.026	20.31
881.198	81.75
881.37	-16.55
881.542	53.08
881.714	-61.61
881.886	-18.6
882.058	-59.56
882.23	12.12
882.402	12.12
882.574	-8.36
882.746	-6.31
882.918	61.27
883.09	-39.08
883.262	5.97
883.434	8.02
883.606	67.41
883.778	-22.7
883.95	-14.51
884.122	10.07
884.293	-102.57
884.465	-34.99
884.637	8.02
884.809	-57.51
884.98	24.4
885.152	3.93
885.324	22.36
885.496	81.75
885.667	34.64
885.839	-32.94
886.011	-59.56
886.182	10.07
886.354	53.08
886.525	69.46
886.697	12.12
886.869	3.93
887.04	55.12
887.212	67.41
887.383	12.12
887.555	-30.89
887.726	3.93
887.897	16.21
888.069	-6.31
888.24	59.22
888.412	26.45
888.583	5.97
888.754	46.93
888.926	-18.6
889.097	65.36
889.268	-55.47
889.44	28.5
889.611	12.12
889.782	65.36
889.953	-2.22
890.125	55.12
890.296	-53.42
890.467	-2.22
890.638	55.12
890.809	67.41
890.98	-30.89
891.151	36.69
891.323	-43.18
891.494	-10.41
891.665	-2.22
891.836	-2.22
892.007	65.36
892.178	81.75
892.349	-12.46
892.52	5.97
892.691	51.03
892.862	48.98
893.032	24.4
893.203	-10.41
893.374	-61.61
893.545	14.17
893.716	-10.41
893.887	-20.65
894.057	55.12
894.228	71.51
894.399	94.04
894.57	24.4
894.74	32.6
894.911	10.07
895.082	-2.22
895.253	10.07
895.423	100.18
895.594	-2.22
895.764	-10.41
895.935	-20.65
896.106	44.88
896.276	8.02
896.447	24.4
896.617	26.45
896.788	38.74
896.958	79.7
897.129	-47.27
897.299	48.98
897.47	22.36
897.64	69.46
897.81	1.88
897.981	24.4
898.151	-10.41
898.322	30.55
898.492	75.6
898.662	38.74
898.832	1.88
899.003	46.93
899.173	-16.55
899.343	8.02
899.513	-10.41
