Data from USB4F104151__247__14-01-29-365.txt Node

Date: Thu Mar 13 14:01:29 EDT 2025
User: louis
Spectrometer: USB4F10415
Trigger mode: 4
Integration Time (sec): 1.000000E-2
Scans to average: 1
Electric dark correction enabled: true
Nonlinearity correction enabled: false
Boxcar width: 0
XAxis mode: Wavelengths
Number of Pixels in Spectrum: 3648
>>>>>Begin Spectral Data<<<<<
178.204	-12.97
178.424	-12.97
178.644	-12.97
178.864	-58.03
179.084	-72.36
179.304	-55.98
179.524	-0.68
179.744	3.41
179.964	15.7
180.184	-35.5
180.404	-35.5
180.624	38.23
180.844	11.61
181.064	3.41
181.283	46.42
181.503	3.41
181.723	5.46
181.943	-33.45
182.163	-4.78
182.383	1.37
182.602	-0.68
182.822	-8.87
183.042	32.08
183.262	36.18
183.482	38.23
183.701	-49.83
183.921	3.41
184.141	23.89
184.361	81.24
184.58	89.43
184.8	34.13
185.02	50.52
185.239	30.04
185.459	42.32
185.679	48.47
185.898	-25.26
186.118	21.85
186.338	32.08
186.557	44.37
186.777	42.32
186.997	66.9
187.216	-19.11
187.436	56.66
187.655	-4.78
187.875	7.51
188.095	21.85
188.314	36.18
188.534	9.56
188.753	-4.78
188.973	62.8
189.192	13.65
189.412	50.52
189.631	11.61
189.851	13.65
190.07	93.52
190.29	-21.16
190.509	-35.5
190.729	27.99
190.948	44.37
191.168	-8.87
191.387	-12.97
191.607	54.61
191.826	40.28
192.045	87.38
192.265	-47.79
192.484	62.8
192.704	-66.22
192.923	11.61
193.142	-19.11
193.362	68.95
193.581	56.66
193.8	-0.68
194.02	-19.11
194.239	44.37
194.458	36.18
194.678	93.52
194.897	23.89
195.116	54.61
195.335	27.99
195.555	9.56
195.774	23.89
195.993	58.71
196.212	27.99
196.432	-8.87
196.651	52.56
196.87	19.8
197.089	89.43
197.308	17.75
197.528	-51.88
197.747	97.62
197.966	19.8
198.185	118.1
198.404	73.04
198.623	7.51
198.842	23.89
199.062	93.52
199.281	101.72
199.5	48.47
199.719	27.99
199.938	34.13
200.157	44.37
200.376	15.7
200.595	50.52
200.814	27.99
201.033	-29.35
201.252	109.91
201.471	42.32
201.69	-0.68
201.909	71
202.128	81.24
202.347	46.42
202.566	-68.27
202.785	38.23
203.004	11.61
203.223	62.8
203.442	40.28
203.661	-53.93
203.879	62.8
204.098	56.66
204.317	-0.68
204.536	52.56
204.755	-17.07
204.974	46.42
205.193	48.47
205.411	93.52
205.63	7.51
205.849	-27.31
206.068	3.41
206.287	60.76
206.505	7.51
206.724	32.08
206.943	58.71
207.162	56.66
207.381	5.46
207.599	-19.11
207.818	23.89
208.037	-12.97
208.255	21.85
208.474	23.89
208.693	52.56
208.911	30.04
209.13	64.85
209.349	27.99
209.567	-10.92
209.786	-8.87
210.005	3.41
210.223	130.39
210.442	23.89
210.661	81.24
210.879	13.65
211.098	21.85
211.316	21.85
211.535	52.56
211.753	5.46
211.972	19.8
212.191	-19.11
212.409	56.66
212.628	54.61
212.846	-10.92
213.065	101.72
213.283	64.85
213.502	103.76
213.72	1.37
213.938	7.51
214.157	89.43
214.375	7.51
214.594	-12.97
214.812	19.8
215.031	-29.35
215.249	38.23
215.467	38.23
215.686	-2.73
215.904	79.19
216.122	-25.26
216.341	21.85
216.559	46.42
216.778	42.32
216.996	60.76
217.214	54.61
217.432	-31.4
217.651	56.66
217.869	36.18
218.087	42.32
218.306	17.75
218.524	23.89
218.742	68.95
218.96	32.08
219.179	25.94
219.397	9.56
219.615	101.72
219.833	-45.74
220.051	-4.78
220.27	-27.31
220.488	62.8
220.706	-12.97
220.924	48.47
221.142	7.51
221.36	23.89
221.578	109.91
221.796	5.46
222.015	-2.73
222.233	85.33
222.451	32.08
222.669	68.95
222.887	81.24
223.105	21.85
223.323	-15.02
223.541	64.85
223.759	3.41
223.977	-41.64
224.195	30.04
224.413	30.04
224.631	11.61
224.849	32.08
225.067	-45.74
225.285	5.46
225.503	27.99
225.721	11.61
225.939	-29.35
226.157	38.23
226.375	50.52
226.592	54.61
226.81	40.28
227.028	-2.73
227.246	60.76
227.464	3.41
227.682	97.62
227.9	-6.83
228.117	32.08
228.335	81.24
228.553	87.38
228.771	-35.5
228.989	99.67
229.206	62.8
229.424	11.61
229.642	-2.73
229.86	52.56
230.077	32.08
230.295	11.61
230.513	-58.03
230.731	73.04
230.948	60.76
231.166	19.8
231.384	21.85
231.601	109.91
231.819	5.46
232.037	17.75
232.254	-29.35
232.472	13.65
232.689	52.56
232.907	34.13
233.125	13.65
233.342	-39.59
233.56	52.56
233.777	62.8
233.995	32.08
234.213	30.04
234.43	71
234.648	-6.83
234.865	-0.68
235.083	21.85
235.3	9.56
235.518	44.37
235.735	27.99
235.953	66.9
236.17	93.52
236.388	13.65
236.605	34.13
236.822	19.8
237.04	21.85
237.257	50.52
237.475	52.56
237.692	-0.68
237.909	13.65
238.127	46.42
238.344	7.51
238.562	62.8
238.779	-12.97
238.996	-15.02
239.214	-12.97
239.431	32.08
239.648	-29.35
239.865	54.61
240.083	36.18
240.3	27.99
240.517	7.51
240.735	85.33
240.952	50.52
241.169	19.8
241.386	34.13
241.603	52.56
241.821	52.56
242.038	-33.45
242.255	68.95
242.472	46.42
242.689	21.85
242.907	68.95
243.124	54.61
243.341	1.37
243.558	48.47
243.775	-6.83
243.992	34.13
244.209	68.95
244.426	64.85
244.643	66.9
244.86	1.37
245.078	71
245.295	36.18
245.512	40.28
245.729	-8.87
245.946	52.56
246.163	66.9
246.38	58.71
246.597	23.89
246.814	36.18
247.031	77.14
247.248	42.32
247.464	-29.35
247.681	3.41
247.898	68.95
248.115	116.05
248.332	77.14
248.549	32.08
248.766	46.42
248.983	126.29
249.2	44.37
249.417	95.57
249.633	25.94
249.85	32.08
250.067	-0.68
250.284	-17.07
250.501	42.32
250.717	9.56
250.934	17.75
251.151	66.9
251.368	-8.87
251.585	5.46
251.801	73.04
252.018	-35.5
252.235	3.41
252.451	21.85
252.668	83.28
252.885	140.63
253.102	40.28
253.318	44.37
253.535	36.18
253.752	3.41
253.968	27.99
254.185	27.99
254.401	13.65
254.618	11.61
254.835	11.61
255.051	44.37
255.268	1.37
255.484	13.65
255.701	21.85
255.917	-2.73
256.134	-8.87
256.351	42.32
256.567	21.85
256.784	77.14
257	-23.21
257.217	136.53
257.433	30.04
257.65	1.37
257.866	105.81
258.082	52.56
258.299	-29.35
258.515	58.71
258.732	75.09
258.948	3.41
259.165	73.04
259.381	27.99
259.597	13.65
259.814	38.23
260.03	15.7
260.246	-2.73
260.463	85.33
260.679	-21.16
260.895	-15.02
261.112	21.85
261.328	38.23
261.544	81.24
261.761	13.65
261.977	48.47
262.193	48.47
262.409	11.61
262.626	23.89
262.842	103.76
263.058	21.85
263.274	81.24
263.49	56.66
263.707	7.51
263.923	-27.31
264.139	60.76
264.355	71
264.571	-2.73
264.787	27.99
265.004	30.04
265.22	5.46
265.436	38.23
265.652	-0.68
265.868	27.99
266.084	-37.55
266.3	3.41
266.516	17.75
266.732	77.14
266.948	15.7
267.164	-21.16
267.38	27.99
267.596	-0.68
267.812	95.57
268.028	11.61
268.244	3.41
268.46	-12.97
268.676	36.18
268.892	38.23
269.108	-25.26
269.324	79.19
269.54	-0.68
269.756	11.61
269.972	-15.02
270.188	42.32
270.403	15.7
270.619	11.61
270.835	-2.73
271.051	13.65
271.267	-8.87
271.483	44.37
271.698	68.95
271.914	71
272.13	11.61
272.346	73.04
272.562	-4.78
272.777	44.37
272.993	56.66
273.209	5.46
273.425	-0.68
273.64	-41.64
273.856	48.47
274.072	32.08
274.287	-0.68
274.503	68.95
274.719	73.04
274.934	-58.03
275.15	107.86
275.366	73.04
275.581	-15.02
275.797	23.89
276.012	25.94
276.228	-8.87
276.444	19.8
276.659	73.04
276.875	3.41
277.09	3.41
277.306	-27.31
277.521	27.99
277.737	85.33
277.952	62.8
278.168	36.18
278.383	21.85
278.599	-12.97
278.814	9.56
279.03	-8.87
279.245	89.43
279.461	68.95
279.676	60.76
279.892	-0.68
280.107	-4.78
280.322	-60.07
280.538	3.41
280.753	23.89
280.969	54.61
281.184	-15.02
281.399	36.18
281.615	21.85
281.83	60.76
282.045	60.76
282.26	-2.73
282.476	36.18
282.691	73.04
282.906	13.65
283.122	-21.16
283.337	32.08
283.552	50.52
283.767	46.42
283.983	42.32
284.198	-8.87
284.413	44.37
284.628	-10.92
284.843	23.89
285.058	34.13
285.274	-37.55
285.489	85.33
285.704	64.85
285.919	-60.07
286.134	38.23
286.349	19.8
286.564	116.05
286.779	60.76
286.995	-12.97
287.21	64.85
287.425	21.85
287.64	44.37
287.855	21.85
288.07	27.99
288.285	-45.74
288.5	13.65
288.715	81.24
288.93	34.13
289.145	-4.78
289.36	15.7
289.575	73.04
289.79	52.56
290.004	71
290.219	36.18
290.434	109.91
290.649	75.09
290.864	13.65
291.079	-53.93
291.294	-4.78
291.509	71
291.724	56.66
291.938	44.37
292.153	-8.87
292.368	36.18
292.583	11.61
292.798	25.94
293.012	40.28
293.227	77.14
293.442	73.04
293.657	34.13
293.871	15.7
294.086	7.51
294.301	17.75
294.516	68.95
294.73	13.65
294.945	15.7
295.16	19.8
295.374	101.72
295.589	58.71
295.804	36.18
296.018	52.56
296.233	48.47
296.447	68.95
296.662	36.18
296.877	46.42
297.091	40.28
297.306	17.75
297.52	19.8
297.735	5.46
297.949	27.99
298.164	48.47
298.378	60.76
298.593	15.7
298.807	13.65
299.022	44.37
299.236	7.51
299.451	11.61
299.665	9.56
299.88	-43.69
300.094	3.41
300.309	87.38
300.523	36.18
300.737	-29.35
300.952	105.81
301.166	54.61
301.381	95.57
301.595	44.37
301.809	81.24
302.024	75.09
302.238	11.61
302.452	44.37
302.667	91.48
302.881	-21.16
303.095	44.37
303.309	32.08
303.524	56.66
303.738	56.66
303.952	9.56
304.166	-23.21
304.381	7.51
304.595	40.28
304.809	5.46
305.023	68.95
305.237	91.48
305.452	9.56
305.666	60.76
305.88	73.04
306.094	30.04
306.308	68.95
306.522	46.42
306.736	-60.07
306.95	-4.78
307.164	85.33
307.379	3.41
307.593	17.75
307.807	81.24
308.021	109.91
308.235	11.61
308.449	-17.07
308.663	21.85
308.877	5.46
309.091	-0.68
309.305	66.9
309.519	-8.87
309.733	23.89
309.947	-10.92
310.161	109.91
310.374	58.71
310.588	7.51
310.802	23.89
311.016	32.08
311.23	27.99
311.444	48.47
311.658	52.56
311.872	87.38
312.085	27.99
312.299	30.04
312.513	77.14
312.727	7.51
312.941	-6.83
313.154	21.85
313.368	19.8
313.582	-0.68
313.796	54.61
314.009	54.61
314.223	-21.16
314.437	50.52
314.651	-15.02
314.864	38.23
315.078	27.99
315.292	-12.97
315.505	-25.26
315.719	66.9
315.933	32.08
316.146	44.37
316.36	-6.83
316.573	32.08
316.787	34.13
317.001	44.37
317.214	-0.68
317.428	46.42
317.641	15.7
317.855	103.76
318.068	54.61
318.282	48.47
318.495	-8.87
318.709	103.76
318.922	50.52
319.136	64.85
319.349	-27.31
319.563	97.62
319.776	-21.16
319.99	58.71
320.203	3.41
320.417	15.7
320.63	38.23
320.843	109.91
321.057	9.56
321.27	13.65
321.483	36.18
321.697	50.52
321.91	7.51
322.124	-2.73
322.337	-15.02
322.55	5.46
322.763	34.13
322.977	71
323.19	58.71
323.403	116.05
323.617	62.8
323.83	44.37
324.043	30.04
324.256	44.37
324.469	34.13
324.683	52.56
324.896	40.28
325.109	95.57
325.322	27.99
325.535	58.71
325.748	-29.35
325.962	-45.74
326.175	5.46
326.388	25.94
326.601	13.65
326.814	36.18
327.027	9.56
327.24	15.7
327.453	50.52
327.666	77.14
327.879	44.37
328.092	40.28
328.305	15.7
328.518	44.37
328.731	56.66
328.944	1.37
329.157	66.9
329.37	13.65
329.583	85.33
329.796	13.65
330.009	-15.02
330.222	11.61
330.435	48.47
330.648	79.19
330.861	19.8
331.073	56.66
331.286	48.47
331.499	66.9
331.712	54.61
331.925	60.76
332.138	30.04
332.35	58.71
332.563	-55.98
332.776	62.8
332.989	89.43
333.202	11.61
333.414	3.41
333.627	36.18
333.84	-37.55
334.053	15.7
334.265	-4.78
334.478	32.08
334.691	46.42
334.903	-21.16
335.116	71
335.329	-0.68
335.541	83.28
335.754	73.04
335.966	48.47
336.179	-53.93
336.392	-31.4
336.604	62.8
336.817	40.28
337.029	32.08
337.242	66.9
337.454	38.23
337.667	27.99
337.88	95.57
338.092	-6.83
338.305	32.08
338.517	79.19
338.729	7.51
338.942	-4.78
339.154	30.04
339.367	36.18
339.579	54.61
339.792	66.9
340.004	-29.35
340.217	7.51
340.429	7.51
340.641	7.51
340.854	46.42
341.066	11.61
341.278	89.43
341.491	30.04
341.703	89.43
341.915	19.8
342.128	75.09
342.34	17.75
342.552	36.18
342.764	11.61
342.977	1.37
343.189	34.13
343.401	-29.35
343.613	32.08
343.826	48.47
344.038	-0.68
344.25	60.76
344.462	-4.78
344.674	71
344.886	-4.78
345.099	71
345.311	54.61
345.523	3.41
345.735	27.99
345.947	42.32
346.159	27.99
346.371	-15.02
346.583	50.52
346.795	-15.02
347.007	64.85
347.219	11.61
347.431	71
347.643	44.37
347.855	46.42
348.067	21.85
348.279	44.37
348.491	62.8
348.703	13.65
348.915	15.7
349.127	27.99
349.339	19.8
349.551	21.85
349.763	71
349.975	-15.02
350.187	-19.11
350.399	34.13
350.61	-2.73
350.822	30.04
351.034	40.28
351.246	-31.4
351.458	50.52
351.669	-2.73
351.881	30.04
352.093	44.37
352.305	25.94
352.517	93.52
352.728	13.65
352.94	13.65
353.152	-43.69
353.363	-35.5
353.575	95.57
353.787	132.44
353.999	52.56
354.21	56.66
354.422	-6.83
354.633	5.46
354.845	44.37
355.057	-23.21
355.268	52.56
355.48	99.67
355.692	85.33
355.903	34.13
356.115	103.76
356.326	1.37
356.538	68.95
356.749	40.28
356.961	93.52
357.172	21.85
357.384	77.14
357.595	87.38
357.807	13.65
358.018	50.52
358.23	15.7
358.441	58.71
358.653	17.75
358.864	-37.55
359.075	-25.26
359.287	52.56
359.498	30.04
359.709	-21.16
359.921	36.18
360.132	-0.68
360.344	36.18
360.555	60.76
360.766	38.23
360.977	44.37
361.189	48.47
361.4	30.04
361.611	3.41
361.823	52.56
362.034	-12.97
362.245	60.76
362.456	111.96
362.667	77.14
362.879	64.85
363.09	-0.68
363.301	91.48
363.512	48.47
363.723	120.15
363.935	-6.83
364.146	-17.07
364.357	-4.78
364.568	9.56
364.779	122.2
364.99	99.67
365.201	-10.92
365.412	23.89
365.623	-19.11
365.834	9.56
366.045	7.51
366.256	3.41
366.467	58.71
366.678	27.99
366.889	48.47
367.1	13.65
367.311	-0.68
367.522	52.56
367.733	54.61
367.944	46.42
368.155	56.66
368.366	23.89
368.577	50.52
368.788	89.43
368.999	52.56
369.209	36.18
369.42	89.43
369.631	68.95
369.842	68.95
370.053	52.56
370.264	11.61
370.474	60.76
370.685	68.95
370.896	-10.92
371.107	81.24
371.317	42.32
371.528	-10.92
371.739	107.86
371.95	38.23
372.16	54.61
372.371	52.56
372.582	13.65
372.792	40.28
373.003	66.9
373.214	27.99
373.424	27.99
373.635	30.04
373.846	46.42
374.056	103.76
374.267	30.04
374.477	30.04
374.688	109.91
374.898	77.14
375.109	27.99
375.319	91.48
375.53	95.57
375.74	46.42
375.951	19.8
376.161	30.04
376.372	77.14
376.582	38.23
376.793	36.18
377.003	-10.92
377.214	48.47
377.424	34.13
377.635	42.32
377.845	-2.73
378.055	-4.78
378.266	73.04
378.476	60.76
378.686	83.28
378.897	85.33
379.107	-2.73
379.317	11.61
379.528	73.04
379.738	46.42
379.948	17.75
380.158	13.65
380.369	71
380.579	15.7
380.789	-10.92
380.999	62.8
381.21	19.8
381.42	66.9
381.63	38.23
381.84	48.47
382.05	58.71
382.261	77.14
382.471	58.71
382.681	93.52
382.891	73.04
383.101	32.08
383.311	15.7
383.521	32.08
383.731	-4.78
383.941	54.61
384.151	27.99
384.361	36.18
384.571	79.19
384.781	17.75
384.991	60.76
385.201	68.95
385.411	71
385.621	27.99
385.831	9.56
386.041	93.52
386.251	68.95
386.461	44.37
386.671	56.66
386.881	105.81
387.091	40.28
387.301	95.57
387.511	52.56
387.72	87.38
387.93	15.7
388.14	36.18
388.35	66.9
388.56	56.66
388.769	68.95
388.979	5.46
389.189	52.56
389.399	21.85
389.609	13.65
389.818	77.14
390.028	122.2
390.238	73.04
390.447	19.8
390.657	7.51
390.867	19.8
391.076	54.61
391.286	62.8
391.496	71
391.705	3.41
391.915	42.32
392.125	114
392.334	25.94
392.544	130.39
392.753	60.76
392.963	60.76
393.172	64.85
393.382	-25.26
393.591	120.15
393.801	60.76
394.01	32.08
394.22	21.85
394.429	71
394.639	64.85
394.848	46.42
395.058	62.8
395.267	46.42
395.477	81.24
395.686	85.33
395.895	34.13
396.105	126.29
396.314	87.38
396.524	118.1
396.733	32.08
396.942	73.04
397.152	87.38
397.361	46.42
397.57	71
397.78	152.92
397.989	85.33
398.198	87.38
398.407	111.96
398.617	44.37
398.826	21.85
399.035	103.76
399.244	91.48
399.453	81.24
399.663	48.47
399.872	111.96
400.081	-4.78
400.29	126.29
400.499	83.28
400.708	95.57
400.917	-19.11
401.127	79.19
401.336	142.68
401.545	118.1
401.754	150.87
401.963	48.47
402.172	64.85
402.381	99.67
402.59	111.96
402.799	89.43
403.008	134.48
403.217	68.95
403.426	124.24
403.635	71
403.844	79.19
404.053	130.39
404.262	30.04
404.471	91.48
404.68	54.61
404.888	73.04
405.097	95.57
405.306	27.99
405.515	66.9
405.724	77.14
405.933	89.43
406.142	91.48
406.35	134.48
406.559	136.53
406.768	95.57
406.977	134.48
407.185	103.76
407.394	142.68
407.603	142.68
407.812	148.82
408.02	154.96
408.229	142.68
408.438	183.63
408.646	142.68
408.855	107.86
409.064	62.8
409.272	124.24
409.481	144.72
409.69	114
409.898	202.07
410.107	189.78
410.315	247.12
410.524	142.68
410.733	232.79
410.941	228.69
411.15	232.79
411.358	175.44
411.567	238.93
411.775	206.16
411.984	220.5
412.192	265.55
412.401	312.66
412.609	337.23
412.818	345.42
413.026	281.94
413.234	253.27
413.443	316.75
413.651	294.22
413.86	326.99
414.068	326.99
414.276	361.81
414.485	355.66
414.693	300.37
414.901	445.77
415.11	396.62
415.318	388.43
415.526	474.45
415.734	437.58
415.943	447.82
416.151	478.54
416.359	591.18
416.567	539.98
416.776	449.87
416.984	515.41
417.192	619.85
417.4	535.89
417.608	474.45
417.817	603.47
418.025	587.08
418.233	568.65
418.441	585.04
418.649	648.52
418.857	726.35
419.065	683.34
419.273	693.58
419.481	871.75
419.689	791.88
419.897	820.55
420.105	808.27
420.313	851.27
420.521	927.05
420.729	933.19
420.937	892.23
421.145	965.96
421.353	988.49
421.561	1011.01
421.769	1070.41
421.977	1109.32
422.185	1154.37
422.393	1197.38
422.601	1260.87
422.809	1344.83
423.017	1273.15
423.224	1336.64
423.432	1340.74
423.64	1416.51
423.848	1551.68
424.056	1533.25
424.263	1633.6
424.471	1631.55
424.679	1670.46
424.887	1660.22
425.094	1742.14
425.302	1754.43
425.51	1828.15
425.718	1813.82
425.925	1903.93
426.133	1953.08
426.341	2067.77
426.548	2295.09
426.756	2145.59
426.964	2137.4
427.171	2315.57
427.379	2370.87
427.586	2501.94
427.794	2579.76
428.001	2604.33
428.209	2716.97
428.417	2694.44
428.624	2878.76
428.832	2800.94
429.039	2776.36
429.247	2841.9
429.454	3009.83
429.662	3290.4
429.869	3075.37
430.076	3319.07
430.284	3183.91
430.491	3456.29
430.699	3630.37
430.906	3560.73
431.114	3632.41
431.321	3812.64
431.528	3865.88
431.736	4042.01
431.943	4244.76
432.15	4042.01
432.358	4236.56
432.565	4375.83
432.772	4320.53
432.979	4607.25
433.187	4652.3
433.394	4799.76
433.601	4959.5
433.808	5010.7
434.016	4844.81
434.223	5160.2
434.43	5508.35
434.637	5399.81
434.844	5768.45
435.052	5795.07
435.259	5684.48
435.466	5737.73
435.673	5879.04
435.88	6202.61
436.087	6378.74
436.294	6384.88
436.501	6186.23
436.708	6362.36
436.915	6597.87
437.122	6954.22
437.329	6991.08
437.537	7081.19
437.743	7376.1
437.95	7335.14
438.157	7752.93
438.364	7830.75
438.571	7732.45
438.778	7890.14
438.985	8686.8
439.192	8074.46
439.399	8459.48
439.606	8453.33
439.813	8770.77
440.02	9399.49
440.227	9182.41
440.433	9000.14
440.64	9278.66
440.847	9561.28
441.054	9542.85
441.261	10319.03
441.467	10017.98
441.674	10235.07
441.881	10783.92
442.088	10591.41
442.294	10454.2
442.501	10706.1
442.708	11152.56
442.914	11463.85
443.121	11777.19
443.328	11613.35
443.534	12414.1
443.741	11943.07
443.948	12008.61
444.154	12739.73
444.361	12522.65
444.568	12784.79
444.774	12827.79
444.981	12930.19
445.187	13223.05
445.394	13980.8
445.6	13587.59
445.807	15058.03
446.013	14288
446.22	14599.29
446.426	15113.33
446.633	15244.4
446.839	15787.11
447.046	15225.97
447.252	15957.09
447.459	15963.23
447.665	15836.26
447.871	16641.11
448.078	17402.96
448.284	16860.24
448.491	16962.64
448.697	17341.52
448.903	17830.98
449.11	17837.13
449.316	17591.37
449.522	17937.48
449.728	18848.82
449.935	18775.09
450.141	18857.01
450.347	19194.93
450.553	18562.11
450.76	18660.41
450.966	19254.32
451.172	19242.03
451.378	19422.25
451.584	18940.98
451.791	19743.78
451.997	19381.29
452.203	19944.49
452.409	19944.49
452.615	19704.87
452.821	18998.32
453.027	19057.71
453.233	19995.68
453.44	19215.41
453.646	19278.9
453.852	19260.46
454.058	19688.49
454.264	19115.06
454.47	19598.38
454.676	18879.54
454.882	19516.46
455.088	18246.72
455.294	18236.48
455.5	18498.62
455.705	18717.75
455.911	18021.44
456.117	17751.11
456.323	17310.8
456.529	16512.09
456.735	17042.51
456.941	16739.41
457.147	16272.48
457.352	16002.15
457.558	15795.3
457.764	15697
457.97	15797.35
458.176	15178.86
458.381	15010.93
458.587	14517.37
458.793	14543.99
458.999	13945.98
459.204	14810.23
459.41	14480.5
459.616	13356.17
459.821	13190.28
460.027	13606.02
460.233	12915.86
460.438	12393.62
460.644	12504.21
460.85	11988.13
461.055	11920.54
461.261	11637.92
461.466	11011.25
461.672	10669.23
461.878	11412.65
462.083	10603.7
462.289	10474.68
462.494	10183.87
462.7	9925.82
462.905	9768.13
463.111	9878.72
463.316	9983.17
463.522	9743.55
463.727	9876.67
463.932	9704.64
464.138	9544.9
464.343	9759.94
464.549	9424.07
464.754	9764.03
464.959	9667.78
465.165	9524.42
465.37	9254.09
465.575	8989.9
465.781	9417.93
465.986	9256.14
466.191	9180.36
466.397	8756.43
466.602	8518.87
466.807	8742.1
467.012	8570.07
467.218	8664.27
467.423	8686.8
467.628	8654.03
467.833	8875.21
468.038	8641.75
468.244	8508.63
468.449	8744.14
468.654	8482
468.859	8457.43
469.064	8457.43
469.269	8004.83
469.474	8006.88
469.679	8185.05
469.885	8004.83
470.09	8180.95
470.295	8103.13
470.5	7705.82
470.705	7980.25
470.91	7656.67
471.115	7724.26
471.32	7810.27
471.525	7804.13
471.73	7566.56
471.935	7607.52
472.139	7314.66
472.344	7318.76
472.549	7312.61
472.754	7329
472.959	7103.72
473.164	6796.53
473.369	6962.41
473.574	7361.77
473.778	7017.71
473.983	6946.03
474.188	6876.4
474.393	6681.84
474.598	6712.56
474.802	6577.39
475.007	6458.61
475.212	6503.67
475.417	6255.86
475.621	6386.93
475.826	6307.06
476.031	6286.58
476.235	6049.02
476.44	6204.66
476.645	6106.36
476.849	6100.22
477.054	6010.11
477.259	5950.71
477.463	5999.87
477.668	5940.47
477.872	5827.84
478.077	5664
478.282	5528.83
478.486	5487.87
478.691	5682.43
478.895	5559.55
479.1	5436.67
479.304	5666.05
479.509	5305.6
479.713	5342.47
479.918	5303.56
480.122	5330.18
480.326	5182.73
480.531	5336.32
480.735	5297.41
480.94	5295.36
481.144	5307.65
481.348	5283.08
481.553	5131.53
481.757	5068.04
481.961	5182.73
482.166	5272.84
482.37	5190.92
482.574	5016.84
482.778	5307.65
482.983	5172.49
483.187	5137.67
483.391	5055.75
483.595	5123.34
483.8	4984.07
484.004	5123.34
484.208	5068.04
484.412	5213.45
484.616	5225.73
484.821	5133.57
485.025	5043.46
485.229	5147.91
485.433	4926.73
485.637	5098.76
485.841	5027.08
486.045	5102.86
486.249	5035.27
486.453	5053.7
486.657	5174.53
486.861	5000.46
487.065	4928.78
487.269	5084.42
487.473	5025.03
487.677	5006.6
487.881	5098.76
488.085	5051.66
488.289	5354.76
488.493	5049.61
488.697	5076.23
488.901	5096.71
489.105	5209.35
489.309	5180.68
489.512	5047.56
489.716	5180.68
489.92	5207.3
490.124	5246.21
490.328	5321.99
490.531	5272.84
490.735	5377.28
490.939	5248.26
491.143	5319.94
491.346	5309.7
491.55	5453.06
491.754	5291.27
491.958	5393.67
492.161	5434.63
492.365	5365
492.569	5356.8
492.772	5467.39
492.976	5539.07
493.18	5434.63
493.383	5649.66
493.587	5721.34
493.79	5676.29
493.994	5694.72
494.197	5598.46
494.401	5803.26
494.605	5823.74
494.808	5909.76
495.012	5868.8
495.215	5917.95
495.419	5913.85
495.622	5854.46
495.825	6014.2
496.029	6003.96
496.232	6073.59
496.436	6184.18
496.639	6089.98
496.843	6278.39
497.046	6391.03
497.249	6462.71
497.453	6468.85
497.656	6487.28
497.859	6462.71
498.063	6518
498.266	6806.77
498.469	6870.25
498.673	6767.85
498.876	6833.39
499.079	6999.27
499.282	6997.23
499.485	7279.85
499.689	7191.78
499.892	7388.39
500.095	7331.05
500.298	7673.06
500.501	7445.73
500.705	7662.82
500.908	7736.54
501.111	7945.44
501.314	7970.01
501.517	7924.96
501.72	8178.9
501.923	8103.13
502.126	8318.17
502.329	8535.25
502.532	8457.43
502.735	8658.13
502.938	8660.18
503.141	8707.28
503.344	8928.46
503.547	8893.65
503.75	9186.51
503.953	9454.79
504.156	9393.35
504.359	9213.13
504.562	9553.09
504.765	10034.36
504.968	10013.88
505.17	9989.31
505.373	10247.35
505.576	10253.5
505.779	10341.56
505.982	10495.16
506.185	10681.52
506.387	10677.43
506.59	10898.61
506.793	10816.69
506.996	10958
507.198	11343.02
507.401	11244.71
507.604	11605.16
507.807	11801.76
508.009	11465.89
508.212	11834.53
508.415	12037.28
508.617	12399.77
508.82	12207.26
509.022	12266.65
509.225	12649.62
509.428	12700.82
509.63	12868.75
509.833	12989.58
510.035	13280.39
510.238	13362.31
510.44	13630.6
510.643	13661.32
510.845	13864.07
511.048	13659.27
511.25	13997.18
511.453	14091.39
511.655	14511.22
511.858	14431.35
512.06	14703.73
512.262	14818.42
512.465	14910.58
512.667	15078.51
512.87	15334.51
513.072	15449.19
513.274	15807.59
513.477	15889.51
513.679	16034.91
513.881	16475.23
514.084	16469.08
514.286	16483.42
514.488	16624.73
514.69	17179.73
514.893	17280.08
515.095	17480.78
515.297	17572.94
515.499	17914.95
515.701	17947.72
515.904	18371.65
516.106	18299.97
516.308	18484.28
516.51	18863.16
516.712	18758.71
516.914	19151.92
517.116	19467.31
517.318	19528.75
517.52	19581.99
517.722	19897.38
517.925	19739.69
518.127	20634.65
518.329	20530.2
518.531	20638.75
518.733	21050.39
518.935	21140.5
519.136	21050.39
519.338	21576.72
519.54	21634.06
519.742	22107.14
519.944	21931.01
520.146	22438.91
520.348	22469.63
520.55	22785.02
520.752	22905.85
520.954	23409.65
521.155	23096.31
521.357	23645.16
521.559	23501.81
521.761	24151.01
521.963	24396.77
522.164	24077.29
522.366	24447.97
522.568	24763.36
522.77	24855.51
522.971	25494.48
523.173	24943.58
523.375	25428.95
523.576	25347.03
523.778	25385.94
523.98	25650.13
524.181	26080.2
524.383	26006.47
524.584	26577.86
524.786	26768.32
524.988	26430.4
525.189	26645.44
525.391	27126.71
525.592	27106.23
525.794	27036.6
525.995	27616.18
526.197	27235.25
526.398	27587.5
526.6	27532.21
526.801	27808.69
527.003	28101.54
527.204	28128.17
527.406	28629.92
527.607	28517.28
527.808	28648.35
528.01	27976.62
528.211	28597.15
528.412	29014.94
528.614	28967.84
528.815	28738.46
529.016	29395.86
529.218	28937.12
529.419	29068.19
529.62	29393.81
529.822	29252.5
530.023	29369.24
530.224	29334.42
530.425	29516.69
530.626	29119.38
530.828	29461.4
531.029	29971.34
531.23	29506.45
531.431	29838.22
531.632	29586.32
531.833	30092.17
532.035	30090.12
532.236	29959.05
532.437	30247.82
532.638	29682.58
532.839	30188.42
533.04	30444.42
533.241	29764.5
533.442	30557.06
533.643	30282.63
533.844	30098.31
534.045	30419.85
534.246	30071.69
534.447	30225.29
534.648	30370.69
534.849	29981.58
535.05	30192.52
535.251	30382.98
535.451	30163.85
535.652	30593.92
535.853	30057.35
536.054	30507.91
536.255	30567.3
536.456	30440.32
536.657	30700.42
536.857	30559.11
537.058	30202.76
537.259	30329.73
537.46	30516.1
537.66	29946.76
537.861	30669.7
538.062	30143.37
538.263	30532.48
538.463	30262.15
538.664	30622.59
538.865	30518.15
539.065	30595.97
539.266	30231.43
539.466	30823.29
539.667	30153.61
539.868	30862.21
540.068	30548.87
540.269	30247.82
540.469	30653.31
540.67	30395.27
540.87	30589.83
541.071	30692.22
541.271	30497.67
541.472	30544.77
541.672	30444.42
541.873	30679.94
542.073	30208.9
542.274	30555.01
542.474	30116.75
542.675	30481.28
542.875	30206.86
543.075	30548.87
543.276	30022.54
543.476	30342.02
543.676	30256.01
543.877	30464.9
544.077	30344.07
544.277	30278.54
544.478	30692.22
544.678	30718.85
544.878	30348.17
545.078	30344.07
545.279	30481.28
545.479	30112.65
545.679	30198.66
545.879	30462.85
546.079	30358.41
546.28	30698.37
546.48	30149.51
546.68	30483.33
546.88	30430.08
547.08	30188.42
547.28	30477.19
547.48	30083.98
547.68	30307.21
547.88	30184.33
548.081	30419.85
548.281	30354.31
548.481	29832.08
548.681	30407.56
548.881	30520.2
549.081	30210.95
549.28	30104.46
549.48	30233.48
549.68	30202.76
549.88	30391.17
550.08	30231.43
550.28	30305.16
550.48	30151.56
550.68	30555.01
550.88	30368.65
551.08	30172.04
551.279	30382.98
551.479	30258.06
551.679	30708.61
551.879	30198.66
552.079	30501.76
552.278	30114.7
552.478	30262.15
552.678	30260.1
552.878	30118.79
553.077	30231.43
553.277	29895.57
553.477	30284.68
553.676	30126.99
553.876	30034.83
554.076	30215.05
554.275	30069.64
554.475	29787.02
554.674	30165.9
554.874	30169.99
555.074	29684.62
555.273	29957
555.473	29985.68
555.672	29789.07
555.872	29469.59
556.071	29653.9
556.271	29911.95
556.47	29928.33
556.67	29817.74
556.869	29760.4
557.068	29760.4
557.268	29598.61
557.467	29510.55
557.667	29453.2
557.866	29698.96
558.065	29580.18
558.265	29412.24
558.464	29391.76
558.663	29520.79
558.863	29207.45
559.062	29559.7
559.261	28797.85
559.461	29504.4
559.66	29082.52
559.859	29418.39
560.058	29010.84
560.258	29111.19
560.457	28765.09
560.656	28908.44
560.855	28855.2
561.054	29006.75
561.253	28519.33
561.453	28453.8
561.652	28683.17
561.851	28945.31
562.05	28797.85
562.249	28789.66
562.448	28652.45
562.647	28591.01
562.846	28453.8
563.045	28476.32
563.244	28232.61
563.443	28550.05
563.642	27982.76
563.841	27999.15
564.04	28148.65
564.239	28343.2
564.438	28326.82
564.637	28183.46
564.836	27997.1
565.035	27917.23
565.234	28140.46
565.432	27820.97
565.631	27960.23
565.83	27777.97
566.029	27536.31
566.228	27515.83
566.427	27575.22
566.625	27225.01
566.824	27114.42
567.023	27472.82
567.222	26948.54
567.42	27501.49
567.619	27112.38
567.818	27196.34
568.016	27073.46
568.215	27182.01
568.414	26880.96
568.612	27132.86
568.811	26766.27
569.01	27003.83
569.208	26526.66
569.407	26747.84
569.605	26520.51
569.804	26903.48
570.002	26295.24
570.201	26635.2
570.4	26391.49
570.598	26201.03
570.797	26031.05
570.995	26211.27
571.193	25531.34
571.392	25695.18
571.59	25791.44
571.789	25840.59
571.987	25617.36
572.186	25598.93
572.384	25373.65
572.582	25703.37
572.781	25605.07
572.979	25025.5
573.177	25318.35
573.376	25418.71
573.574	25113.56
573.772	25080.79
573.971	24908.76
574.169	25166.81
574.367	24521.7
574.565	24878.04
574.763	24718.3
574.962	24755.16
575.16	24280.03
575.358	24503.26
575.556	24101.86
575.754	24380.39
575.952	24194.02
576.151	24214.5
576.349	24312.8
576.547	24058.85
576.745	24263.65
576.943	24007.65
577.141	24026.09
577.339	23761.9
577.537	23673.84
577.735	23718.89
577.933	23325.68
578.131	23573.49
578.329	23317.49
578.527	23337.97
578.725	23428.08
578.923	23397.36
579.121	23163.89
579.319	23141.36
579.516	23137.27
579.714	22879.22
579.912	23061.49
580.11	23057.4
580.308	22817.79
580.506	22780.92
580.704	22531.07
580.901	22526.97
581.099	22950.9
581.297	22443.01
581.495	22377.47
581.692	22565.88
581.89	22213.63
582.088	22707.19
582.285	22260.74
582.483	22162.44
582.681	21980.17
582.878	21689.35
583.076	21969.93
583.274	22049.8
583.471	21556.24
583.669	21730.31
583.866	21576.72
584.064	21578.76
584.262	21369.87
584.459	21091.35
584.657	21371.92
584.854	21447.69
585.052	21081.11
585.249	21242.9
585.447	21353.49
585.644	21150.74
585.841	21079.06
586.039	21079.06
586.236	20743.19
586.434	20976.66
586.631	20773.91
586.828	20587.55
587.026	20747.29
587.223	20415.52
587.42	20167.71
587.618	20671.51
587.815	20175.91
588.012	20272.16
588.21	20036.64
588.407	20376.61
588.604	20294.69
588.801	20083.75
588.999	20182.05
589.196	20356.13
589.393	19950.63
589.59	19751.98
589.787	19803.18
589.984	19639.34
590.182	19581.99
590.379	19901.48
590.576	19350.57
590.773	19471.4
590.97	19598.38
591.167	19704.87
591.364	19026.99
591.561	19457.07
591.758	19092.53
591.955	19274.8
592.152	19323.95
592.349	19041.33
592.546	18895.92
592.743	19092.53
592.94	18693.18
593.137	18795.57
593.334	19018.8
593.531	18504.76
593.727	18709.56
593.924	18570.3
594.121	18437.18
594.318	18789.43
594.515	18232.38
594.712	18230.34
594.908	18345.02
595.105	18302.01
595.302	18324.54
595.499	18170.94
595.696	18072.64
595.892	18105.41
596.089	17951.81
596.286	18232.38
596.482	17734.73
596.679	17873.99
596.876	17534.03
597.072	17769.54
597.269	17865.8
597.466	17747.01
597.662	17505.35
597.859	17534.03
598.055	17445.96
598.252	17484.87
598.448	17495.11
598.645	17450.06
598.841	17083.47
599.038	17155.15
599.234	17263.69
599.431	17280.08
599.627	16985.17
599.824	17108.05
600.02	17118.29
600.217	17124.43
600.413	16870.48
600.609	16868.44
600.806	16780.37
601.002	16895.06
601.198	16444.51
601.395	16567.38
601.591	16495.71
601.787	16542.81
601.984	16426.07
602.18	16684.12
602.376	16274.53
602.572	16008.29
602.769	16178.27
602.965	15895.65
603.161	16041.06
603.357	16184.41
603.553	15944.8
603.75	16227.42
603.946	15893.6
604.142	15969.38
604.338	15729.77
604.534	15930.47
604.73	15668.33
604.926	15592.55
605.122	15742.05
605.318	15537.26
605.514	15488.1
605.71	15361.13
605.906	15361.13
606.102	15273.07
606.298	15311.98
606.494	15150.19
606.69	15268.97
606.886	15211.63
607.082	15064.18
607.278	14898.29
607.474	14986.35
607.67	14963.83
607.866	14855.28
608.062	15035.5
608.257	15058.03
608.453	14675.06
608.649	14978.16
608.845	14595.19
609.041	14423.16
609.236	14597.24
609.432	14500.98
609.628	14589.05
609.824	14470.26
610.019	14353.53
610.215	14619.77
610.411	14505.08
610.606	14238.84
610.802	14331
610.998	14353.53
611.193	14206.08
611.389	13954.18
611.584	14013.57
611.78	13974.66
611.976	13935.74
612.171	14167.17
612.367	13829.25
612.562	13755.52
612.758	13921.41
612.953	13806.72
613.149	13888.64
613.344	13546.63
613.539	13804.67
613.735	13628.55
613.93	13563.01
614.126	13429.9
614.321	13655.17
614.517	13556.87
614.712	13534.34
614.907	13640.84
615.103	13554.82
615.298	13313.16
615.493	13544.58
615.688	13286.54
615.884	13489.29
616.079	13065.36
616.274	13257.87
616.47	13386.89
616.665	13384.84
616.86	13081.74
617.055	13046.93
617.25	12958.86
617.445	13214.86
617.641	12684.44
617.836	13194.38
618.031	12893.33
618.226	12780.69
618.421	12815.51
618.616	12936.34
618.811	12479.64
619.006	12770.45
619.201	12309.66
619.396	12467.35
619.591	12004.51
619.786	12661.91
619.981	12211.35
620.176	12313.75
620.371	12323.99
620.566	12256.41
620.761	12051.61
620.956	12170.4
621.151	12043.42
621.346	12092.57
621.541	11818.15
621.735	12016.8
621.93	11824.29
622.125	11846.82
622.32	11545.77
622.515	11662.5
622.709	11451.56
622.904	11531.43
623.099	11525.29
623.294	11599.01
623.488	11238.57
623.683	11267.24
623.878	11142.32
624.072	11154.6
624.267	11097.26
624.462	10925.23
624.656	11087.02
624.851	11080.88
625.046	10814.64
625.24	10706.1
625.435	10566.84
625.629	10681.52
625.824	10615.99
626.018	10501.3
626.213	10517.68
626.407	10431.67
626.602	10527.92
626.796	10550.45
626.991	10159.29
627.185	10343.61
627.38	10083.52
627.574	10218.68
627.768	10017.98
627.963	10124.47
628.157	9809.09
628.352	10042.56
628.546	9647.3
628.74	9893.05
628.935	9784.51
629.129	9647.3
629.323	9458.89
629.517	9655.49
629.712	9563.33
629.906	9505.99
630.1	9503.94
630.294	9317.58
630.489	9417.93
630.683	9286.86
630.877	9206.98
631.071	9249.99
631.265	9395.4
631.459	9028.81
631.653	9112.78
631.848	8920.27
632.042	9034.96
632.236	9166.03
632.43	8950.99
632.624	8658.13
632.818	8719.57
633.012	8783.06
633.206	8680.66
633.4	8799.44
633.594	8459.48
633.788	8527.06
633.982	8670.42
634.176	8647.89
634.369	8375.51
634.563	8266.97
634.757	8271.06
634.951	8328.41
635.145	8377.56
635.339	8172.76
635.533	8285.4
635.726	8269.02
635.92	8223.96
636.114	8023.26
636.308	8113.37
636.501	7980.25
636.695	7963.87
636.889	7783.65
637.083	7828.7
637.276	7662.82
637.47	7795.93
637.664	7767.26
637.857	7644.38
638.051	7558.37
638.244	7498.98
638.438	7601.38
638.632	7394.53
638.825	7406.82
639.019	7236.84
639.212	7324.9
639.406	7279.85
639.599	7234.79
639.793	7191.78
639.986	7130.34
640.18	7222.5
640.373	7064.81
640.567	7068.91
640.76	7062.76
640.954	7050.47
641.147	7040.23
641.34	6960.36
641.534	6935.79
641.727	6831.34
641.92	6933.74
642.114	6950.12
642.307	6700.27
642.5	6579.44
642.694	6589.68
642.887	6436.08
643.08	6579.44
643.273	6417.65
643.467	6561.01
643.66	6540.53
643.853	6204.66
644.046	6276.34
644.239	6270.2
644.432	6421.75
644.626	6120.7
644.819	6364.4
645.012	6139.13
645.205	6112.5
645.398	5942.52
645.591	6032.63
645.784	5995.77
645.977	6032.63
646.17	5944.57
646.363	5946.62
646.556	5803.26
646.749	5776.64
646.942	5782.78
647.135	5926.14
647.328	5684.48
647.521	5768.45
647.714	5592.32
647.907	5811.45
648.099	5487.87
648.292	5713.15
648.485	5528.83
648.678	5551.36
648.871	5422.34
649.064	5426.43
649.256	5289.22
649.449	5285.12
649.642	5258.5
649.835	5291.27
650.027	5209.35
650.22	5201.16
650.413	5221.64
650.605	5172.49
650.798	5348.61
650.991	5018.89
651.183	5109
651.376	4934.92
651.568	4910.35
651.761	4994.31
651.954	4898.06
652.146	5033.22
652.339	4975.88
652.531	4668.69
652.724	4889.87
652.916	4859.15
653.109	4594.96
653.301	4779.28
653.494	4838.67
653.686	4754.7
653.879	4648.21
654.071	4637.97
654.263	4513.04
654.456	4742.41
654.648	4605.2
654.84	4486.42
655.033	4480.27
655.225	4467.99
655.417	4361.49
655.61	4345.11
655.802	4515.09
655.994	4234.52
656.186	4308.24
656.379	4334.87
656.571	4343.06
656.763	4375.83
656.955	4304.15
657.148	4199.7
657.34	4205.85
657.532	4211.99
657.724	4142.36
657.916	4037.91
658.108	4052.25
658.3	4109.59
658.492	4072.73
658.684	4070.68
658.876	4001.05
659.068	4017.43
659.26	4009.24
659.452	3962.14
659.644	4035.86
659.836	3822.88
660.028	3970.33
660.22	3796.25
660.412	3714.33
660.604	3570.97
660.796	3816.73
660.988	3652.89
661.18	3697.95
661.372	3616.03
661.563	3650.85
661.755	3659.04
661.947	3689.76
662.139	3603.74
662.331	3548.45
662.522	3599.65
662.714	3421.47
662.906	3525.92
663.097	3376.42
663.289	3394.85
663.481	3503.39
663.673	3435.81
663.864	3429.66
664.056	3419.43
664.247	3269.92
664.439	3370.27
664.631	3409.19
664.822	3335.46
665.014	3314.98
665.205	3286.31
665.397	3206.44
665.588	3185.96
665.78	3145
665.971	3210.53
666.163	3112.23
666.354	3222.82
666.546	3120.42
666.737	3081.51
666.929	3077.41
667.12	2985.26
667.311	3054.89
667.503	2999.59
667.694	3007.78
667.885	2970.92
668.077	3061.03
668.268	3036.45
668.459	3042.6
668.651	2907.43
668.842	2962.73
669.033	2942.25
669.224	2938.15
669.416	2936.1
669.607	2837.8
669.798	2751.79
669.989	2909.48
670.18	2802.99
670.371	2567.47
670.563	2927.91
670.754	2831.66
670.945	2692.4
671.136	2751.79
671.327	2780.46
671.518	2684.2
671.709	2749.74
671.9	2798.89
672.091	2692.4
672.282	2577.71
672.473	2633.01
672.664	2639.15
672.855	2653.48
673.046	2673.96
673.237	2610.48
673.428	2622.77
673.619	2557.23
673.809	2592.05
674	2702.64
674.191	2602.29
674.382	2600.24
674.573	2452.78
674.764	2522.41
674.954	2510.13
675.145	2442.54
675.336	2641.2
675.527	2452.78
675.717	2542.89
675.908	2569.52
676.099	2501.94
676.289	2463.02
676.48	2487.6
676.671	2469.17
676.861	2485.55
677.052	2313.52
677.243	2428.21
677.433	2387.25
677.624	2446.64
677.814	2430.26
678.005	2366.77
678.195	2426.16
678.386	2393.39
678.576	2344.24
678.767	2319.67
678.957	2460.98
679.148	2356.53
679.338	2368.82
679.529	2360.63
679.719	2442.54
679.909	2272.56
680.1	2327.86
680.29	2434.35
680.481	2297.14
680.671	2309.43
680.861	2295.09
681.052	2309.43
681.242	2307.38
681.432	2358.58
681.622	2295.09
681.813	2297.14
682.003	2241.84
682.193	2282.8
682.383	2354.48
682.573	2342.19
682.764	2225.46
682.954	2317.62
683.144	2399.54
683.334	2211.12
683.524	2321.71
683.714	2364.72
683.904	2286.9
684.094	2247.99
684.284	2233.65
684.474	2274.61
684.664	2297.14
684.854	2233.65
685.044	2235.7
685.234	2094.39
685.424	2280.75
685.614	2280.75
685.804	2247.99
685.994	2227.51
686.184	2235.7
686.374	2178.36
686.564	2127.16
686.753	2215.22
686.943	2145.59
687.133	2225.46
687.323	2190.64
687.513	2164.02
687.702	2282.8
687.892	2172.21
688.082	2209.08
688.272	2100.53
688.461	2280.75
688.651	2198.84
688.841	2153.78
689.03	2143.54
689.22	2141.49
689.41	2137.4
689.599	2100.53
689.789	2178.36
689.979	2075.96
690.168	2166.07
690.358	2098.49
690.547	2129.2
690.737	1977.66
690.926	2233.65
691.116	2104.63
691.305	2098.49
691.495	2030.9
691.684	2075.96
691.874	2170.16
692.063	2071.86
692.252	2198.84
692.442	2065.72
692.631	2063.67
692.82	2112.82
693.01	2075.96
693.199	2059.57
693.388	2045.24
693.578	2002.23
693.767	2127.16
693.956	1969.46
694.146	2137.4
694.335	2047.29
694.524	2037.05
694.713	2014.52
694.902	2055.48
695.092	2088.25
695.281	1996.09
695.47	2012.47
695.659	2063.67
695.848	1998.13
696.037	1955.13
696.226	2125.11
696.415	2082.1
696.604	2059.57
696.793	2055.48
696.982	2063.67
697.171	2092.34
697.36	2100.53
697.549	2125.11
697.738	2073.91
697.927	2174.26
698.116	2116.92
698.305	2024.76
698.494	2010.42
698.683	2104.63
698.872	2088.25
699.061	2078.01
699.25	2102.58
699.438	2053.43
699.627	2045.24
699.816	2088.25
700.005	2174.26
700.193	2018.61
700.382	2135.35
700.571	2030.9
700.76	2088.25
700.948	2037.05
701.137	2012.47
701.326	2153.78
701.514	2039.09
701.703	2086.2
701.892	1987.9
702.08	2018.61
702.269	2057.53
702.457	1994.04
702.646	2006.33
702.834	2102.58
703.023	2071.86
703.212	2073.91
703.4	1998.13
703.589	2051.38
703.777	2069.81
703.965	1987.9
704.154	1815.87
704.342	2059.57
704.531	2069.81
704.719	1979.7
704.907	1955.13
705.096	2069.81
705.284	1946.94
705.472	2049.33
705.661	2000.18
705.849	1991.99
706.037	2039.09
706.226	1979.7
706.414	1889.59
706.602	2010.42
706.79	2000.18
706.979	1969.46
707.167	1928.5
707.355	1936.7
707.543	2006.33
707.731	1969.46
707.919	1987.9
708.107	2012.47
708.296	1871.16
708.484	1828.15
708.672	1936.7
708.86	1938.74
709.048	1850.68
709.236	1815.87
709.424	1887.54
709.612	1854.78
709.8	1840.44
709.988	1883.45
710.176	1824.06
710.364	1848.63
710.551	1789.24
710.739	1824.06
710.927	1733.95
711.115	1725.76
711.303	1815.87
711.491	1799.48
711.679	1762.62
711.866	1826.11
712.054	1840.44
712.242	1752.38
712.43	1862.97
712.617	1752.38
712.805	1623.36
712.993	1844.54
713.181	1600.83
713.368	1733.95
713.556	1764.67
713.744	1729.85
713.931	1682.75
714.119	1633.6
714.306	1723.71
714.494	1811.77
714.682	1709.37
714.869	1553.73
715.057	1574.21
715.244	1670.46
715.432	1639.74
715.619	1539.39
715.807	1690.94
715.994	1619.26
716.182	1561.92
716.369	1707.32
716.556	1676.6
716.744	1584.45
716.931	1582.4
717.119	1586.49
717.306	1690.94
717.493	1508.67
717.681	1631.55
717.868	1676.6
718.055	1627.45
718.242	1566.01
718.43	1596.73
718.617	1520.96
718.804	1510.72
718.991	1537.34
719.179	1609.02
719.366	1518.91
719.553	1551.68
719.74	1432.9
719.927	1422.66
720.114	1496.38
720.301	1508.67
720.488	1494.33
720.676	1576.25
720.863	1465.66
721.05	1510.72
721.237	1422.66
721.424	1389.89
721.611	1584.45
721.798	1494.33
721.985	1467.71
722.172	1422.66
722.358	1350.98
722.545	1336.64
722.732	1441.09
722.919	1547.58
723.106	1391.94
723.293	1443.14
723.48	1387.84
723.667	1414.46
723.853	1398.08
724.04	1359.17
724.227	1387.84
724.414	1410.37
724.6	1250.63
724.787	1348.93
724.974	1340.74
725.161	1336.64
725.347	1307.97
725.534	1336.64
725.72	1396.03
725.907	1264.96
726.094	1312.07
726.28	1299.78
726.467	1400.13
726.653	1299.78
726.84	1221.95
727.027	1303.87
727.213	1211.71
727.4	1244.48
727.586	1371.46
727.773	1342.78
727.959	1273.15
728.145	1260.87
728.332	1291.59
728.518	1346.88
728.705	1350.98
728.891	1281.35
729.077	1297.73
729.264	1295.68
729.45	1213.76
729.636	1260.87
729.823	1244.48
730.009	1283.39
730.195	1234.24
730.382	1189.19
730.568	1203.52
730.754	1142.08
730.94	1174.85
731.126	1215.81
731.313	1234.24
731.499	1242.43
731.685	1291.59
731.871	1183.04
732.057	1279.3
732.243	1191.24
732.429	1150.28
732.615	1187.14
732.801	1164.61
732.987	1160.52
733.173	1185.09
733.359	1166.66
733.545	1191.24
733.731	1238.34
733.917	1142.08
734.103	1191.24
734.289	1152.32
734.475	1060.17
734.661	1232.19
734.847	1140.04
735.033	1144.13
735.219	1115.46
735.404	1178.95
735.59	1166.66
735.776	1191.24
735.962	1129.8
736.148	1211.71
736.333	1133.89
736.519	1148.23
736.705	1164.61
736.89	1080.64
737.076	1109.32
737.262	1092.93
737.447	990.53
737.633	1119.56
737.819	1000.77
738.004	1080.64
738.19	1094.98
738.375	1090.88
738.561	1097.03
738.747	1152.32
738.932	1041.73
739.118	992.58
739.303	1068.36
739.489	1019.21
739.674	994.63
739.859	1062.21
740.045	994.63
740.23	1082.69
740.416	1031.49
740.601	1027.4
740.786	1060.17
740.972	1015.11
741.157	974.15
741.342	1000.77
741.528	982.34
741.713	933.19
741.898	937.29
742.084	982.34
742.269	925
742.454	1002.82
742.639	984.39
742.824	1004.87
743.01	945.48
743.195	1006.92
743.38	972.1
743.565	888.14
743.75	1070.41
743.935	1011.01
744.12	1041.73
744.305	988.49
744.49	931.14
744.675	947.53
744.86	922.95
745.045	994.63
745.23	972.1
745.415	945.48
745.6	974.15
745.785	834.89
745.97	884.04
746.155	806.22
746.34	861.51
746.525	879.94
746.71	845.13
746.895	959.81
747.079	836.94
747.264	906.57
747.449	857.42
747.634	806.22
747.819	763.21
748.003	939.34
748.188	826.7
748.373	810.31
748.557	730.44
748.742	775.5
748.927	785.74
749.111	744.78
749.296	736.59
749.481	800.07
749.665	812.36
749.85	832.84
750.034	775.5
750.219	800.07
750.404	779.59
750.588	814.41
750.773	834.89
750.957	771.4
751.141	781.64
751.326	785.74
751.51	783.69
751.695	752.97
751.879	787.79
752.064	761.16
752.248	681.29
752.432	728.39
752.617	705.87
752.801	736.59
752.985	707.91
753.17	732.49
753.354	769.35
753.538	763.21
753.722	671.05
753.907	683.34
754.091	630.09
754.275	654.67
754.459	738.63
754.643	656.72
754.828	613.71
755.012	671.05
755.196	679.24
755.38	636.24
755.564	621.9
755.748	611.66
755.932	675.15
756.116	634.19
756.3	572.75
756.484	626
756.668	570.7
756.852	691.53
757.036	644.43
757.22	533.84
757.404	585.04
757.588	576.84
757.772	650.57
757.956	611.66
758.14	587.08
758.323	560.46
758.507	597.32
758.691	599.37
758.875	585.04
759.059	527.69
759.242	548.17
759.426	531.79
759.61	552.27
759.794	496.97
759.977	597.32
760.161	585.04
760.345	587.08
760.528	621.9
760.712	556.36
760.895	568.65
761.079	593.23
761.263	568.65
761.446	513.36
761.63	552.27
761.813	558.41
761.997	566.6
762.18	503.12
762.364	527.69
762.547	476.49
762.731	542.03
762.914	474.45
763.098	429.39
763.281	507.21
763.464	546.13
763.648	521.55
763.831	476.49
764.015	511.31
764.198	523.6
764.381	453.97
764.564	447.82
764.748	554.32
764.931	423.25
765.114	544.08
765.297	499.02
765.481	392.53
765.664	445.77
765.847	568.65
766.03	488.78
766.213	390.48
766.397	523.6
766.58	515.41
766.763	494.93
766.946	445.77
767.129	453.97
767.312	472.4
767.495	382.29
767.678	445.77
767.861	474.45
768.044	462.16
768.227	476.49
768.41	482.64
768.593	408.91
768.776	484.69
768.959	433.49
769.142	496.97
769.324	499.02
769.507	447.82
769.69	449.87
769.873	445.77
770.056	456.01
770.239	423.25
770.421	437.58
770.604	441.68
770.787	363.86
770.97	417.1
771.152	490.83
771.335	429.39
771.518	451.92
771.7	488.78
771.883	480.59
772.066	396.62
772.248	380.24
772.431	421.2
772.613	507.21
772.796	404.82
772.978	372.05
773.161	445.77
773.343	392.53
773.526	367.95
773.708	343.38
773.891	427.34
774.073	396.62
774.256	339.28
774.438	413.01
774.621	413.01
774.803	388.43
774.985	367.95
775.168	413.01
775.35	357.71
775.532	429.39
775.715	329.04
775.897	333.14
776.079	441.68
776.261	472.4
776.444	392.53
776.626	333.14
776.808	343.38
776.99	398.67
777.173	372.05
777.355	390.48
777.537	410.96
777.719	298.32
777.901	382.29
778.083	380.24
778.265	390.48
778.447	433.49
778.629	271.7
778.811	314.7
778.993	267.6
779.175	316.75
779.357	378.19
779.539	351.57
779.721	349.52
779.903	331.09
780.085	357.71
780.267	320.85
780.449	232.79
780.631	251.22
780.812	306.51
780.994	243.03
781.176	302.42
781.358	322.9
781.54	249.17
781.721	271.7
781.903	261.46
782.085	216.4
782.267	265.55
782.448	259.41
782.63	249.17
782.812	353.62
782.993	281.94
783.175	277.84
783.357	326.99
783.538	322.9
783.72	347.47
783.901	247.12
784.083	277.84
784.264	240.98
784.446	326.99
784.627	152.92
784.809	269.65
784.99	202.07
785.172	234.83
785.353	298.32
785.535	245.07
785.716	251.22
785.897	191.83
786.079	208.21
786.26	195.92
786.441	286.03
786.623	134.48
786.804	263.51
786.985	220.5
787.167	249.17
787.348	212.31
787.529	302.42
787.71	187.73
787.891	218.45
788.073	181.59
788.254	177.49
788.435	324.94
788.616	245.07
788.797	109.91
788.978	281.94
789.159	204.11
789.34	189.78
789.522	200.02
789.703	175.44
789.884	140.63
790.065	310.61
790.246	200.02
790.427	206.16
790.607	202.07
790.788	175.44
790.969	228.69
791.15	298.32
791.331	169.3
791.512	126.29
791.693	212.31
791.874	122.2
792.054	169.3
792.235	226.64
792.416	165.2
792.597	185.68
792.778	150.87
792.958	191.83
793.139	183.63
793.32	202.07
793.5	140.63
793.681	140.63
793.862	167.25
794.042	177.49
794.223	101.72
794.404	220.5
794.584	197.97
794.765	103.76
794.945	204.11
795.126	165.2
795.306	165.2
795.487	138.58
795.667	105.81
795.848	240.98
796.028	146.77
796.209	255.31
796.389	89.43
796.57	212.31
796.75	210.26
796.93	134.48
797.111	247.12
797.291	128.34
797.471	126.29
797.652	144.72
797.832	124.24
798.012	265.55
798.192	140.63
798.373	161.11
798.553	214.35
798.733	138.58
798.913	111.96
799.093	175.44
799.274	177.49
799.454	183.63
799.634	163.15
799.814	167.25
799.994	206.16
800.174	109.91
800.354	122.2
800.534	118.1
800.714	79.19
800.894	50.52
801.074	128.34
801.254	73.04
801.434	152.92
801.614	169.3
801.794	71
801.974	304.46
802.154	179.54
802.334	101.72
802.514	66.9
802.693	13.65
802.873	114
803.053	144.72
803.233	167.25
803.413	132.44
803.592	105.81
803.772	93.52
803.952	124.24
804.131	71
804.311	109.91
804.491	142.68
804.67	116.05
804.85	210.26
805.03	195.92
805.209	122.2
805.389	114
805.568	89.43
805.748	40.28
805.928	68.95
806.107	95.57
806.287	146.77
806.466	142.68
806.646	114
806.825	132.44
807.004	89.43
807.184	85.33
807.363	85.33
807.543	105.81
807.722	154.96
807.901	75.09
808.081	111.96
808.26	134.48
808.439	97.62
808.619	148.82
808.798	105.81
808.977	140.63
809.156	95.57
809.336	116.05
809.515	154.96
809.694	48.47
809.873	89.43
810.052	91.48
810.231	109.91
810.411	142.68
810.59	95.57
810.769	93.52
810.948	103.76
811.127	111.96
811.306	40.28
811.485	87.38
811.664	60.76
811.843	85.33
812.022	109.91
812.201	87.38
812.38	87.38
812.559	116.05
812.737	124.24
812.916	77.14
813.095	118.1
813.274	169.3
813.453	34.13
813.632	101.72
813.811	165.2
813.989	77.14
814.168	52.56
814.347	34.13
814.526	75.09
814.704	-8.87
814.883	77.14
815.062	140.63
815.24	79.19
815.419	36.18
815.598	105.81
815.776	13.65
815.955	118.1
816.133	21.85
816.312	64.85
816.49	128.34
816.669	58.71
816.847	42.32
817.026	101.72
817.204	89.43
817.383	97.62
817.561	68.95
817.74	118.1
817.918	97.62
818.097	118.1
818.275	19.8
818.453	36.18
818.632	114
818.81	146.77
818.988	68.95
819.167	120.15
819.345	52.56
819.523	105.81
819.701	126.29
819.879	154.96
820.058	25.94
820.236	138.58
820.414	89.43
820.592	99.67
820.77	95.57
820.948	101.72
821.127	50.52
821.305	177.49
821.483	62.8
821.661	32.08
821.839	52.56
822.017	97.62
822.195	87.38
822.373	17.75
822.551	85.33
822.729	136.53
822.907	93.52
823.085	25.94
823.262	52.56
823.44	77.14
823.618	42.32
823.796	77.14
823.974	77.14
824.152	68.95
824.329	-6.83
824.507	21.85
824.685	64.85
824.863	93.52
825.04	27.99
825.218	64.85
825.396	68.95
825.574	44.37
825.751	81.24
825.929	75.09
826.107	5.46
826.284	101.72
826.462	66.9
826.639	21.85
826.817	130.39
826.994	54.61
827.172	46.42
827.349	103.76
827.527	73.04
827.704	52.56
827.882	36.18
828.059	38.23
828.237	32.08
828.414	68.95
828.591	77.14
828.769	30.04
828.946	38.23
829.124	44.37
829.301	93.52
829.478	97.62
829.655	44.37
829.833	79.19
830.01	62.8
830.187	50.52
830.364	36.18
830.542	85.33
830.719	75.09
830.896	87.38
831.073	105.81
831.25	15.7
831.427	13.65
831.604	48.47
831.782	56.66
831.959	46.42
832.136	-17.07
832.313	89.43
832.49	-45.74
832.667	17.75
832.844	42.32
833.021	183.63
833.198	27.99
833.374	38.23
833.551	81.24
833.728	73.04
833.905	-0.68
834.082	19.8
834.259	17.75
834.436	34.13
834.612	36.18
834.789	71
834.966	103.76
835.143	60.76
835.319	-15.02
835.496	81.24
835.673	9.56
835.85	60.76
836.026	68.95
836.203	-27.31
836.38	-4.78
836.556	32.08
836.733	46.42
836.909	52.56
837.086	9.56
837.262	77.14
837.439	1.37
837.616	111.96
837.792	-55.98
837.968	40.28
838.145	40.28
838.321	27.99
838.498	9.56
838.674	107.86
838.851	19.8
839.027	111.96
839.203	50.52
839.38	23.89
839.556	-49.83
839.732	56.66
839.909	68.95
840.085	93.52
840.261	-6.83
840.437	81.24
840.614	36.18
840.79	85.33
840.966	13.65
841.142	19.8
841.318	36.18
841.494	11.61
841.671	71
841.847	62.8
842.023	21.85
842.199	95.57
842.375	21.85
842.551	-51.88
842.727	-4.78
842.903	71
843.079	-39.59
843.255	109.91
843.431	48.47
843.607	11.61
843.783	-55.98
843.959	36.18
844.134	-17.07
844.31	85.33
844.486	38.23
844.662	3.41
844.838	21.85
845.013	93.52
845.189	-4.78
845.365	68.95
845.541	89.43
845.716	21.85
845.892	36.18
846.068	77.14
846.244	15.7
846.419	21.85
846.595	38.23
846.77	75.09
846.946	17.75
847.122	23.89
847.297	40.28
847.473	118.1
847.648	87.38
847.824	13.65
847.999	114
848.175	52.56
848.35	-2.73
848.526	73.04
848.701	-45.74
848.876	118.1
849.052	13.65
849.227	44.37
849.403	3.41
849.578	21.85
849.753	27.99
849.929	38.23
850.104	44.37
850.279	13.65
850.454	3.41
850.63	5.46
850.805	15.7
850.98	50.52
851.155	60.76
851.33	105.81
851.505	73.04
851.681	105.81
851.856	97.62
852.031	93.52
852.206	60.76
852.381	146.77
852.556	17.75
852.731	87.38
852.906	19.8
853.081	38.23
853.256	-35.5
853.431	11.61
853.606	71
853.781	-6.83
853.956	-4.78
854.131	101.72
854.305	118.1
854.48	-21.16
854.655	3.41
854.83	99.67
855.005	40.28
855.18	93.52
855.354	25.94
855.529	-33.45
855.704	87.38
855.879	5.46
856.053	75.09
856.228	38.23
856.403	-2.73
856.577	27.99
856.752	19.8
856.926	36.18
857.101	-53.93
857.276	62.8
857.45	89.43
857.625	46.42
857.799	85.33
857.974	93.52
858.148	-0.68
858.323	93.52
858.497	73.04
858.672	77.14
858.846	52.56
859.02	48.47
859.195	32.08
859.369	19.8
859.543	13.65
859.718	-17.07
859.892	-2.73
860.066	13.65
860.241	-4.78
860.415	30.04
860.589	13.65
860.763	7.51
860.938	9.56
861.112	27.99
861.286	87.38
861.46	11.61
861.634	32.08
861.808	48.47
861.982	36.18
862.157	42.32
862.331	62.8
862.505	64.85
862.679	48.47
862.853	111.96
863.027	11.61
863.201	93.52
863.375	40.28
863.549	17.75
863.722	40.28
863.896	-4.78
864.07	36.18
864.244	9.56
864.418	50.52
864.592	9.56
864.766	68.95
864.939	38.23
865.113	-15.02
865.287	52.56
865.461	89.43
865.634	44.37
865.808	17.75
865.982	38.23
866.156	13.65
866.329	42.32
866.503	27.99
866.676	64.85
866.85	11.61
867.024	-8.87
867.197	7.51
867.371	50.52
867.544	-31.4
867.718	34.13
867.891	-33.45
868.065	-21.16
868.238	40.28
868.412	42.32
868.585	54.61
868.759	42.32
868.932	79.19
869.105	36.18
869.279	-12.97
869.452	54.61
869.625	54.61
869.799	71
869.972	83.28
870.145	-0.68
870.319	56.66
870.492	62.8
870.665	-12.97
870.838	-2.73
871.011	-4.78
871.185	-17.07
871.358	52.56
871.531	62.8
871.704	62.8
871.877	36.18
872.05	-25.26
872.223	25.94
872.396	66.9
872.569	54.61
872.742	3.41
872.915	11.61
873.088	19.8
873.261	32.08
873.434	21.85
873.607	25.94
873.78	62.8
873.953	-0.68
874.126	36.18
874.299	1.37
874.471	-41.64
874.644	19.8
874.817	32.08
874.99	144.72
875.163	-58.03
875.335	34.13
875.508	-4.78
875.681	36.18
875.853	19.8
876.026	13.65
876.199	13.65
876.371	-21.16
876.544	21.85
876.717	1.37
876.889	25.94
877.062	-17.07
877.234	-4.78
877.407	32.08
877.579	30.04
877.752	-0.68
877.924	17.75
878.097	3.41
878.269	13.65
878.442	-43.69
878.614	48.47
878.786	5.46
878.959	-29.35
879.131	-27.31
879.303	27.99
879.476	34.13
879.648	-0.68
879.82	7.51
879.993	30.04
880.165	27.99
880.337	-0.68
880.509	103.76
880.681	17.75
880.854	17.75
881.026	34.13
881.198	54.61
881.37	-47.79
881.542	56.66
881.714	32.08
881.886	11.61
882.058	30.04
882.23	21.85
882.402	23.89
882.574	48.47
882.746	36.18
882.918	17.75
883.09	3.41
883.262	21.85
883.434	-19.11
883.606	-0.68
883.778	15.7
883.95	32.08
884.122	-15.02
884.293	-0.68
884.465	52.56
884.637	48.47
884.809	40.28
884.98	128.34
885.152	79.19
885.324	19.8
885.496	56.66
885.667	7.51
885.839	30.04
886.011	-4.78
886.182	21.85
886.354	75.09
886.525	-0.68
886.697	-4.78
886.869	48.47
887.04	-12.97
887.212	-29.35
887.383	66.9
887.555	3.41
887.726	27.99
887.897	3.41
888.069	44.37
888.24	32.08
888.412	-55.98
888.583	91.48
888.754	-12.97
888.926	1.37
889.097	1.37
889.268	27.99
889.44	-29.35
889.611	34.13
889.782	-39.59
889.953	27.99
890.125	38.23
890.296	32.08
890.467	62.8
890.638	81.24
890.809	-4.78
890.98	19.8
891.151	1.37
891.323	77.14
891.494	38.23
891.665	11.61
891.836	64.85
892.007	73.04
892.178	17.75
892.349	17.75
892.52	-12.97
892.691	48.47
892.862	27.99
893.032	13.65
893.203	21.85
893.374	50.52
893.545	3.41
893.716	-43.69
893.887	5.46
894.057	62.8
894.228	-8.87
894.399	5.46
894.57	-27.31
894.74	-19.11
894.911	38.23
895.082	27.99
895.253	-4.78
895.423	-12.97
895.594	-12.97
895.764	-0.68
895.935	42.32
896.106	13.65
896.276	27.99
896.447	3.41
896.617	-19.11
896.788	-21.16
896.958	5.46
897.129	30.04
897.299	-70.31
897.47	15.7
897.64	68.95
897.81	-10.92
897.981	27.99
898.151	-33.45
898.322	-17.07
898.492	75.09
898.662	27.99
898.832	-12.97
899.003	77.14
899.173	11.61
899.343	79.19
899.513	-2.73
