Data from USB4F104151__267__14-02-06-240.txt Node

Date: Thu Mar 13 14:02:06 EDT 2025
User: louis
Spectrometer: USB4F10415
Trigger mode: 4
Integration Time (sec): 1.000000E-2
Scans to average: 1
Electric dark correction enabled: true
Nonlinearity correction enabled: false
Boxcar width: 0
XAxis mode: Wavelengths
Number of Pixels in Spectrum: 3648
>>>>>Begin Spectral Data<<<<<
178.204	-29.35
178.424	-29.35
178.644	-29.35
178.864	-37.55
179.084	-6.83
179.304	30.04
179.524	-49.83
179.744	30.04
179.964	19.8
180.184	19.8
180.404	46.42
180.624	-0.68
180.844	1.37
181.064	-113.32
181.283	-12.97
181.503	1.37
181.723	27.99
181.943	21.85
182.163	21.85
182.383	-6.83
182.602	71
182.822	23.89
183.042	-4.78
183.262	46.42
183.482	3.41
183.701	-8.87
183.921	-0.68
184.141	60.76
184.361	-6.83
184.58	15.7
184.8	5.46
185.02	-19.11
185.239	58.71
185.459	-47.79
185.679	3.41
185.898	30.04
186.118	38.23
186.338	11.61
186.557	13.65
186.777	5.46
186.997	44.37
187.216	9.56
187.436	5.46
187.655	19.8
187.875	48.47
188.095	-58.03
188.314	34.13
188.534	-47.79
188.753	17.75
188.973	73.04
189.192	62.8
189.412	3.41
189.631	66.9
189.851	34.13
190.07	56.66
190.29	-47.79
190.509	23.89
190.729	-2.73
190.948	42.32
191.168	62.8
191.387	13.65
191.607	5.46
191.826	9.56
192.045	21.85
192.265	11.61
192.484	-55.98
192.704	46.42
192.923	-19.11
193.142	-12.97
193.362	-12.97
193.581	46.42
193.8	3.41
194.02	9.56
194.239	11.61
194.458	-29.35
194.678	-6.83
194.897	46.42
195.116	9.56
195.335	-21.16
195.555	-15.02
195.774	17.75
195.993	25.94
196.212	-4.78
196.432	52.56
196.651	23.89
196.87	40.28
197.089	64.85
197.308	-15.02
197.528	60.76
197.747	1.37
197.966	7.51
198.185	85.33
198.404	-15.02
198.623	9.56
198.842	66.9
199.062	1.37
199.281	13.65
199.5	-41.64
199.719	60.76
199.938	50.52
200.157	34.13
200.376	79.19
200.595	3.41
200.814	-17.07
201.033	62.8
201.252	75.09
201.471	23.89
201.69	-2.73
201.909	85.33
202.128	-39.59
202.347	44.37
202.566	25.94
202.785	99.67
203.004	5.46
203.223	58.71
203.442	44.37
203.661	17.75
203.879	-21.16
204.098	-4.78
204.317	-43.69
204.536	-21.16
204.755	23.89
204.974	66.9
205.193	23.89
205.411	-6.83
205.63	44.37
205.849	-23.21
206.068	-15.02
206.287	44.37
206.505	36.18
206.724	21.85
206.943	46.42
207.162	3.41
207.381	19.8
207.599	-4.78
207.818	-39.59
208.037	1.37
208.255	-19.11
208.474	52.56
208.693	27.99
208.911	-0.68
209.13	46.42
209.349	50.52
209.567	66.9
209.786	30.04
210.005	13.65
210.223	-15.02
210.442	-21.16
210.661	66.9
210.879	34.13
211.098	-49.83
211.316	-39.59
211.535	56.66
211.753	15.7
211.972	83.28
212.191	-15.02
212.409	-41.64
212.628	42.32
212.846	-29.35
213.065	9.56
213.283	46.42
213.502	-2.73
213.72	111.96
213.938	15.7
214.157	62.8
214.375	-19.11
214.594	58.71
214.812	75.09
215.031	38.23
215.249	15.7
215.467	-55.98
215.686	7.51
215.904	19.8
216.122	52.56
216.341	-39.59
216.559	-45.74
216.778	60.76
216.996	58.71
217.214	19.8
217.432	38.23
217.651	38.23
217.869	-2.73
218.087	34.13
218.306	-55.98
218.524	-10.92
218.742	25.94
218.96	-0.68
219.179	105.81
219.397	-4.78
219.615	58.71
219.833	-25.26
220.051	25.94
220.27	42.32
220.488	50.52
220.706	32.08
220.924	-6.83
221.142	-10.92
221.36	-33.45
221.578	52.56
221.796	56.66
222.015	-12.97
222.233	62.8
222.451	19.8
222.669	32.08
222.887	19.8
223.105	-49.83
223.323	-12.97
223.541	9.56
223.759	21.85
223.977	62.8
224.195	81.24
224.413	5.46
224.631	9.56
224.849	-2.73
225.067	27.99
225.285	-4.78
225.503	60.76
225.721	50.52
225.939	-45.74
226.157	42.32
226.375	101.72
226.592	-0.68
226.81	-10.92
227.028	5.46
227.246	36.18
227.464	66.9
227.682	36.18
227.9	48.47
228.117	-17.07
228.335	30.04
228.553	-23.21
228.771	30.04
228.989	25.94
229.206	-4.78
229.424	-23.21
229.642	-12.97
229.86	13.65
230.077	32.08
230.295	1.37
230.513	17.75
230.731	46.42
230.948	68.95
231.166	34.13
231.384	68.95
231.601	17.75
231.819	42.32
232.037	60.76
232.254	15.7
232.472	-8.87
232.689	99.67
232.907	27.99
233.125	75.09
233.342	-2.73
233.56	-0.68
233.777	34.13
233.995	-4.78
234.213	58.71
234.43	-0.68
234.648	36.18
234.865	-23.21
235.083	66.9
235.3	-37.55
235.518	62.8
235.735	21.85
235.953	27.99
236.17	30.04
236.388	107.86
236.605	-2.73
236.822	50.52
237.04	81.24
237.257	-43.69
237.475	9.56
237.692	-6.83
237.909	17.75
238.127	-23.21
238.344	21.85
238.562	-21.16
238.779	50.52
238.996	-15.02
239.214	71
239.431	27.99
239.648	-6.83
239.865	-10.92
240.083	-8.87
240.3	25.94
240.517	23.89
240.735	36.18
240.952	17.75
241.169	-21.16
241.386	-23.21
241.603	58.71
241.821	36.18
242.038	-10.92
242.255	62.8
242.472	25.94
242.689	15.7
242.907	58.71
243.124	-12.97
243.341	34.13
243.558	-6.83
243.775	17.75
243.992	-47.79
244.209	-72.36
244.426	-33.45
244.643	50.52
244.86	3.41
245.078	79.19
245.295	13.65
245.512	75.09
245.729	1.37
245.946	58.71
246.163	103.76
246.38	38.23
246.597	42.32
246.814	9.56
247.031	-6.83
247.248	17.75
247.464	66.9
247.681	11.61
247.898	48.47
248.115	34.13
248.332	40.28
248.549	-12.97
248.766	93.52
248.983	15.7
249.2	50.52
249.417	-35.5
249.633	25.94
249.85	-0.68
250.067	52.56
250.284	-21.16
250.501	52.56
250.717	36.18
250.934	-31.4
251.151	83.28
251.368	50.52
251.585	34.13
251.801	9.56
252.018	-21.16
252.235	19.8
252.451	-4.78
252.668	-39.59
252.885	66.9
253.102	-2.73
253.318	30.04
253.535	-19.11
253.752	-10.92
253.968	-21.16
254.185	5.46
254.401	21.85
254.618	-10.92
254.835	95.57
255.051	-6.83
255.268	68.95
255.484	75.09
255.701	9.56
255.917	75.09
256.134	9.56
256.351	-37.55
256.567	7.51
256.784	40.28
257	-45.74
257.217	34.13
257.433	-23.21
257.65	79.19
257.866	30.04
258.082	-0.68
258.299	-33.45
258.515	40.28
258.732	11.61
258.948	-8.87
259.165	116.05
259.381	44.37
259.597	3.41
259.814	56.66
260.03	1.37
260.246	34.13
260.463	46.42
260.679	68.95
260.895	-6.83
261.112	66.9
261.328	36.18
261.544	23.89
261.761	36.18
261.977	19.8
262.193	9.56
262.409	5.46
262.626	42.32
262.842	-0.68
263.058	-8.87
263.274	71
263.49	42.32
263.707	89.43
263.923	-2.73
264.139	27.99
264.355	13.65
264.571	13.65
264.787	66.9
265.004	97.62
265.22	34.13
265.436	44.37
265.652	30.04
265.868	9.56
266.084	-29.35
266.3	5.46
266.516	27.99
266.732	9.56
266.948	1.37
267.164	-17.07
267.38	60.76
267.596	19.8
267.812	17.75
268.028	40.28
268.244	-72.36
268.46	-21.16
268.676	34.13
268.892	-0.68
269.108	30.04
269.324	5.46
269.54	38.23
269.756	71
269.972	-29.35
270.188	5.46
270.403	-6.83
270.619	66.9
270.835	-21.16
271.051	58.71
271.267	60.76
271.483	21.85
271.698	32.08
271.914	44.37
272.13	21.85
272.346	38.23
272.562	42.32
272.777	54.61
272.993	42.32
273.209	34.13
273.425	73.04
273.64	58.71
273.856	17.75
274.072	40.28
274.287	68.95
274.503	-4.78
274.719	40.28
274.934	17.75
275.15	50.52
275.366	-17.07
275.581	34.13
275.797	56.66
276.012	27.99
276.228	-10.92
276.444	23.89
276.659	58.71
276.875	11.61
277.09	3.41
277.306	-17.07
277.521	13.65
277.737	9.56
277.952	17.75
278.168	42.32
278.383	101.72
278.599	83.28
278.814	71
279.03	19.8
279.245	58.71
279.461	58.71
279.676	95.57
279.892	3.41
280.107	58.71
280.322	7.51
280.538	44.37
280.753	17.75
280.969	52.56
281.184	-19.11
281.399	68.95
281.615	9.56
281.83	46.42
282.045	-2.73
282.26	-17.07
282.476	27.99
282.691	17.75
282.906	27.99
283.122	-15.02
283.337	27.99
283.552	3.41
283.767	-2.73
283.983	25.94
284.198	-8.87
284.413	11.61
284.628	-45.74
284.843	-10.92
285.058	-51.88
285.274	-4.78
285.489	95.57
285.704	46.42
285.919	38.23
286.134	54.61
286.349	111.96
286.564	1.37
286.779	-19.11
286.995	60.76
287.21	-33.45
287.425	30.04
287.64	48.47
287.855	30.04
288.07	79.19
288.285	15.7
288.5	64.85
288.715	77.14
288.93	40.28
289.145	23.89
289.36	40.28
289.575	3.41
289.79	25.94
290.004	77.14
290.219	-10.92
290.434	38.23
290.649	64.85
290.864	30.04
291.079	40.28
291.294	-43.69
291.509	128.34
291.724	50.52
291.938	-60.07
292.153	36.18
292.368	-41.64
292.583	85.33
292.798	9.56
293.012	-39.59
293.227	-4.78
293.442	32.08
293.657	11.61
293.871	71
294.086	44.37
294.301	103.76
294.516	103.76
294.73	9.56
294.945	-4.78
295.16	11.61
295.374	85.33
295.589	5.46
295.804	75.09
296.018	13.65
296.233	42.32
296.447	21.85
296.662	46.42
296.877	93.52
297.091	21.85
297.306	9.56
297.52	-37.55
297.735	9.56
297.949	50.52
298.164	15.7
298.378	34.13
298.593	62.8
298.807	-17.07
299.022	38.23
299.236	-39.59
299.451	36.18
299.665	9.56
299.88	50.52
300.094	38.23
300.309	1.37
300.523	-6.83
300.737	11.61
300.952	19.8
301.166	-29.35
301.381	3.41
301.595	87.38
301.809	9.56
302.024	42.32
302.238	101.72
302.452	62.8
302.667	-25.26
302.881	75.09
303.095	103.76
303.309	73.04
303.524	-25.26
303.738	50.52
303.952	-23.21
304.166	19.8
304.381	9.56
304.595	132.44
304.809	7.51
305.023	44.37
305.237	15.7
305.452	-27.31
305.666	54.61
305.88	60.76
306.094	58.71
306.308	109.91
306.522	25.94
306.736	19.8
306.95	38.23
307.164	17.75
307.379	42.32
307.593	30.04
307.807	38.23
308.021	42.32
308.235	21.85
308.449	9.56
308.663	81.24
308.877	58.71
309.091	50.52
309.305	42.32
309.519	21.85
309.733	7.51
309.947	-72.36
310.161	21.85
310.374	85.33
310.588	101.72
310.802	34.13
311.016	19.8
311.23	5.46
311.444	-53.93
311.658	38.23
311.872	44.37
312.085	40.28
312.299	52.56
312.513	5.46
312.727	9.56
312.941	11.61
313.154	107.86
313.368	25.94
313.582	50.52
313.796	81.24
314.009	50.52
314.223	27.99
314.437	46.42
314.651	66.9
314.864	30.04
315.078	-15.02
315.292	38.23
315.505	19.8
315.719	91.48
315.933	38.23
316.146	48.47
316.36	1.37
316.573	116.05
316.787	34.13
317.001	25.94
317.214	38.23
317.428	25.94
317.641	13.65
317.855	54.61
318.068	46.42
318.282	62.8
318.495	15.7
318.709	17.75
318.922	73.04
319.136	42.32
319.349	19.8
319.563	46.42
319.776	21.85
319.99	71
320.203	11.61
320.417	13.65
320.63	103.76
320.843	-27.31
321.057	38.23
321.27	83.28
321.483	62.8
321.697	36.18
321.91	-4.78
322.124	7.51
322.337	97.62
322.55	9.56
322.763	-37.55
322.977	48.47
323.19	46.42
323.403	40.28
323.617	21.85
323.83	38.23
324.043	-68.27
324.256	73.04
324.469	-4.78
324.683	17.75
324.896	-25.26
325.109	-2.73
325.322	-15.02
325.535	81.24
325.748	75.09
325.962	42.32
326.175	27.99
326.388	-23.21
326.601	-64.17
326.814	3.41
327.027	36.18
327.24	118.1
327.453	23.89
327.666	38.23
327.879	-37.55
328.092	38.23
328.305	11.61
328.518	54.61
328.731	-21.16
328.944	-37.55
329.157	15.7
329.37	83.28
329.583	42.32
329.796	38.23
330.009	1.37
330.222	1.37
330.435	9.56
330.648	-15.02
330.861	-21.16
331.073	66.9
331.286	73.04
331.499	44.37
331.712	50.52
331.925	58.71
332.138	42.32
332.35	40.28
332.563	68.95
332.776	-2.73
332.989	-15.02
333.202	25.94
333.414	15.7
333.627	30.04
333.84	56.66
334.053	62.8
334.265	-21.16
334.478	50.52
334.691	50.52
334.903	34.13
335.116	42.32
335.329	38.23
335.541	44.37
335.754	11.61
335.966	11.61
336.179	-6.83
336.392	1.37
336.604	-0.68
336.817	3.41
337.029	25.94
337.242	62.8
337.454	19.8
337.667	15.7
337.88	-4.78
338.092	19.8
338.305	-6.83
338.517	87.38
338.729	52.56
338.942	50.52
339.154	-23.21
339.367	21.85
339.579	1.37
339.792	93.52
340.004	25.94
340.217	-10.92
340.429	68.95
340.641	75.09
340.854	19.8
341.066	56.66
341.278	27.99
341.491	73.04
341.703	89.43
341.915	48.47
342.128	27.99
342.34	9.56
342.552	19.8
342.764	19.8
342.977	71
343.189	75.09
343.401	83.28
343.613	25.94
343.826	118.1
344.038	-31.4
344.25	79.19
344.462	-53.93
344.674	93.52
344.886	3.41
345.099	36.18
345.311	44.37
345.523	-76.46
345.735	7.51
345.947	114
346.159	87.38
346.371	38.23
346.583	-47.79
346.795	111.96
347.007	32.08
347.219	19.8
347.431	93.52
347.643	7.51
347.855	21.85
348.067	27.99
348.279	15.7
348.491	23.89
348.703	32.08
348.915	11.61
349.127	-15.02
349.339	157.01
349.551	27.99
349.763	5.46
349.975	11.61
350.187	27.99
350.399	54.61
350.61	3.41
350.822	109.91
351.034	62.8
351.246	68.95
351.458	44.37
351.669	-17.07
351.881	17.75
352.093	11.61
352.305	44.37
352.517	19.8
352.728	77.14
352.94	1.37
353.152	1.37
353.363	11.61
353.575	44.37
353.787	1.37
353.999	19.8
354.21	13.65
354.422	58.71
354.633	-80.55
354.845	-25.26
355.057	-23.21
355.268	52.56
355.48	-19.11
355.692	107.86
355.903	19.8
356.115	5.46
356.326	40.28
356.538	32.08
356.749	75.09
356.961	48.47
357.172	64.85
357.384	19.8
357.595	58.71
357.807	9.56
358.018	9.56
358.23	77.14
358.441	11.61
358.653	97.62
358.864	81.24
359.075	68.95
359.287	60.76
359.498	91.48
359.709	32.08
359.921	81.24
360.132	54.61
360.344	15.7
360.555	9.56
360.766	68.95
360.977	-27.31
361.189	42.32
361.4	64.85
361.611	58.71
361.823	11.61
362.034	54.61
362.245	-31.4
362.456	9.56
362.667	68.95
362.879	-17.07
363.09	34.13
363.301	34.13
363.512	-2.73
363.723	66.9
363.935	-19.11
364.146	17.75
364.357	1.37
364.568	126.29
364.779	-23.21
364.99	85.33
365.201	107.86
365.412	79.19
365.623	3.41
365.834	50.52
366.045	-31.4
366.256	124.24
366.467	3.41
366.678	114
366.889	93.52
367.1	30.04
367.311	58.71
367.522	40.28
367.733	-29.35
367.944	60.76
368.155	77.14
368.366	17.75
368.577	60.76
368.788	32.08
368.999	-15.02
369.209	-10.92
369.42	32.08
369.631	114
369.842	34.13
370.053	9.56
370.264	5.46
370.474	46.42
370.685	54.61
370.896	60.76
371.107	64.85
371.317	58.71
371.528	25.94
371.739	85.33
371.95	9.56
372.16	79.19
372.371	60.76
372.582	13.65
372.792	54.61
373.003	52.56
373.214	56.66
373.424	64.85
373.635	42.32
373.846	44.37
374.056	11.61
374.267	62.8
374.477	-45.74
374.688	85.33
374.898	34.13
375.109	42.32
375.319	73.04
375.53	87.38
375.74	89.43
375.951	81.24
376.161	42.32
376.372	66.9
376.582	75.09
376.793	-4.78
377.003	-0.68
377.214	87.38
377.424	-31.4
377.635	-10.92
377.845	75.09
378.055	73.04
378.266	19.8
378.476	50.52
378.686	17.75
378.897	50.52
379.107	1.37
379.317	42.32
379.528	54.61
379.738	36.18
379.948	-43.69
380.158	66.9
380.369	91.48
380.579	25.94
380.789	62.8
380.999	13.65
381.21	58.71
381.42	54.61
381.63	73.04
381.84	52.56
382.05	64.85
382.261	30.04
382.471	124.24
382.681	3.41
382.891	64.85
383.101	75.09
383.311	40.28
383.521	-43.69
383.731	60.76
383.941	146.77
384.151	42.32
384.361	15.7
384.571	111.96
384.781	-19.11
384.991	13.65
385.201	116.05
385.411	44.37
385.621	75.09
385.831	27.99
386.041	73.04
386.251	79.19
386.461	62.8
386.671	54.61
386.881	105.81
387.091	25.94
387.301	62.8
387.511	38.23
387.72	38.23
387.93	60.76
388.14	58.71
388.35	85.33
388.56	73.04
388.769	89.43
388.979	15.7
389.189	75.09
389.399	36.18
389.609	54.61
389.818	32.08
390.028	44.37
390.238	103.76
390.447	79.19
390.657	124.24
390.867	56.66
391.076	-39.59
391.286	83.28
391.496	60.76
391.705	7.51
391.915	87.38
392.125	79.19
392.334	56.66
392.544	87.38
392.753	105.81
392.963	109.91
393.172	114
393.382	79.19
393.591	107.86
393.801	32.08
394.01	38.23
394.22	91.48
394.429	54.61
394.639	-39.59
394.848	75.09
395.058	-39.59
395.267	64.85
395.477	81.24
395.686	73.04
395.895	79.19
396.105	71
396.314	9.56
396.524	77.14
396.733	124.24
396.942	66.9
397.152	19.8
397.361	148.82
397.57	95.57
397.78	52.56
397.989	60.76
398.198	142.68
398.407	87.38
398.617	60.76
398.826	109.91
399.035	101.72
399.244	44.37
399.453	93.52
399.663	134.48
399.872	126.29
400.081	27.99
400.29	140.63
400.499	99.67
400.708	148.82
400.917	64.85
401.127	130.39
401.336	107.86
401.545	132.44
401.754	83.28
401.963	85.33
402.172	99.67
402.381	42.32
402.59	103.76
402.799	103.76
403.008	122.2
403.217	87.38
403.426	132.44
403.635	101.72
403.844	99.67
404.053	103.76
404.262	103.76
404.471	181.59
404.68	150.87
404.888	132.44
405.097	124.24
405.306	175.44
405.515	187.73
405.724	247.12
405.933	146.77
406.142	163.15
406.35	183.63
406.559	169.3
406.768	189.78
406.977	202.07
407.185	146.77
407.394	183.63
407.603	128.34
407.812	193.87
408.02	142.68
408.229	220.5
408.438	189.78
408.646	150.87
408.855	200.02
409.064	261.46
409.272	230.74
409.481	267.6
409.69	200.02
409.898	202.07
410.107	275.79
410.315	306.51
410.524	240.98
410.733	339.28
410.941	261.46
411.15	335.18
411.358	326.99
411.567	370
411.775	386.38
411.984	288.08
412.192	310.61
412.401	451.92
412.609	404.82
412.818	388.43
413.026	423.25
413.234	460.11
413.443	462.16
413.651	486.73
413.86	501.07
414.068	566.6
414.276	562.51
414.485	554.32
414.693	582.99
414.901	585.04
415.11	658.76
415.318	603.47
415.526	591.18
415.734	732.49
415.943	709.96
416.151	707.91
416.359	685.39
416.567	775.5
416.776	814.41
416.984	869.7
417.192	912.71
417.4	777.55
417.608	898.38
417.817	900.42
418.025	1049.93
418.233	976.2
418.441	1004.87
418.649	1045.83
418.857	1064.26
419.065	1140.04
419.273	1062.21
419.481	1181
419.689	1246.53
419.897	1297.73
420.105	1332.55
420.313	1228.1
420.521	1369.41
420.729	1463.61
420.937	1455.42
421.145	1584.45
421.353	1697.08
421.561	1715.52
421.769	1641.79
421.977	1789.24
422.185	1658.17
422.393	1871.16
422.601	1981.75
422.809	1951.03
423.017	2041.14
423.224	2049.33
423.432	2110.77
423.64	2180.4
423.848	2352.43
424.056	2258.23
424.263	2563.37
424.471	2518.32
424.679	2448.69
424.887	2641.2
425.094	2749.74
425.302	2841.9
425.51	2794.79
425.718	2950.44
425.925	2862.38
426.133	3149.09
426.341	3198.24
426.548	3470.62
426.756	3448.1
426.964	3349.79
427.171	3767.58
427.379	3622.17
427.586	3788.06
427.794	3886.36
428.001	4011.29
428.209	4193.56
428.417	4152.6
428.624	4424.98
428.832	4488.46
429.039	4467.99
429.247	4429.07
429.454	4867.34
429.662	5131.53
429.869	4830.48
430.076	5229.83
430.284	5029.13
430.491	5188.87
430.699	5629.18
430.906	5518.59
431.114	5623.04
431.321	5938.43
431.528	5993.72
431.736	6135.03
431.943	6655.22
432.15	6507.76
432.358	6561.01
432.565	6827.25
432.772	6687.98
432.979	7433.44
433.187	7345.38
433.394	7290.09
433.601	7871.71
433.808	7824.61
434.016	7783.65
434.223	8041.69
434.43	8502.48
434.637	8592.59
434.844	9012.43
435.052	9131.21
435.259	8869.07
435.466	8934.6
435.673	9184.46
435.88	9731.26
436.087	10116.28
436.294	10157.24
436.501	10054.84
436.708	10142.91
436.915	10329.27
437.122	10986.67
437.329	10710.19
437.537	11334.82
437.743	11330.73
437.95	11242.67
438.157	11900.06
438.364	12428.44
438.571	12405.91
438.778	12498.07
438.985	13522.06
439.192	12788.88
439.399	13634.69
439.606	13073.55
439.813	13841.54
440.02	14832.75
440.227	14351.48
440.433	14244.99
440.64	14787.7
440.847	14703.73
441.054	15109.23
441.261	15920.23
441.467	15760.48
441.674	16034.91
441.881	16628.82
442.088	16475.23
442.294	16675.93
442.501	17171.54
442.708	17265.74
442.914	17837.13
443.121	18850.87
443.328	18179.14
443.534	19291.18
443.741	19301.42
443.948	18527.29
444.154	19942.44
444.361	20067.36
444.568	19967.01
444.774	19878.95
444.981	20210.72
445.187	20943.89
445.394	21734.41
445.6	21683.21
445.807	23452.66
446.013	22217.73
446.22	22789.11
446.426	23948.26
446.633	23778.28
446.839	24787.93
447.046	23978.98
447.252	25005.02
447.459	25226.2
447.665	25017.3
447.871	25848.78
448.078	26948.54
448.284	25922.51
448.491	26325.96
448.697	27593.65
448.903	28275.62
449.11	28343.2
449.316	27847.6
449.522	28249
449.728	29158.3
449.935	29434.77
450.141	29246.36
450.347	29746.06
450.553	28910.49
450.76	29070.23
450.966	30133.13
451.172	29793.17
451.378	30610.31
451.584	29850.51
451.791	30581.63
451.997	30638.98
452.203	30802.82
452.409	31148.92
452.615	30675.84
452.821	29672.34
453.027	29414.29
453.233	31146.87
453.44	30030.73
453.646	30006.16
453.852	30129.03
454.058	30477.19
454.264	29547.41
454.47	30692.22
454.676	29440.92
454.882	30501.76
455.088	27704.24
455.294	28380.07
455.5	28492.71
455.705	28914.59
455.911	27548.59
456.117	27044.79
456.323	26776.51
456.529	25430.99
456.735	26840
456.941	25963.47
457.147	25551.82
457.352	24611.81
457.558	24245.22
457.764	24427.49
457.97	23755.75
458.176	23634.92
458.381	23073.78
458.587	22369.28
458.793	22049.8
458.999	21232.66
459.204	23028.73
459.41	21965.83
459.616	20380.7
459.821	20558.88
460.027	20532.25
460.233	20124.71
460.438	19139.63
460.644	19256.37
460.85	18347.07
461.055	18132.03
461.261	18193.47
461.466	16813.14
461.672	16360.54
461.878	17628.23
462.083	16335.96
462.289	15848.55
462.494	15666.28
462.7	15279.21
462.905	14943.35
463.111	15334.51
463.316	15481.96
463.522	14959.73
463.727	15142
463.932	15076.46
464.138	14812.28
464.343	14697.59
464.549	14484.6
464.754	15082.61
464.959	14924.91
465.165	14693.49
465.37	14068.86
465.575	13726.85
465.781	14419.07
465.986	14414.97
466.191	13763.72
466.397	13411.46
466.602	12848.27
466.807	13563.01
467.012	13331.59
467.218	13436.04
467.423	13087.89
467.628	13487.24
467.833	14005.38
468.038	13196.43
468.244	12856.47
468.449	13440.14
468.654	12870.8
468.859	12790.93
469.064	12922
469.269	12229.79
469.474	12276.89
469.679	12657.81
469.885	12229.79
470.09	12356.76
470.295	12405.91
470.5	12127.39
470.705	12027.04
470.91	11932.83
471.115	11945.12
471.32	11707.55
471.525	11797.67
471.73	11619.49
471.935	11549.86
472.139	10988.72
472.344	11441.32
472.549	11070.64
472.754	11064.49
472.959	10869.94
473.164	10693.81
473.369	10587.32
473.574	10835.12
473.778	10609.84
473.983	10857.65
474.188	10644.66
474.393	10341.56
474.598	10388.66
474.802	10030.27
475.007	10040.51
475.212	10104
475.417	9723.07
475.621	9598.15
475.826	9626.82
476.031	9635.01
476.235	9415.88
476.44	9475.27
476.645	9366.73
476.849	9372.87
477.054	9190.6
477.259	9120.97
477.463	8885.45
477.668	8971.47
477.872	8918.22
478.077	8791.25
478.282	8570.07
478.486	8543.44
478.691	8387.8
478.895	8412.37
479.1	8443.09
479.304	8643.79
479.509	8109.27
479.713	8287.45
479.918	8142.04
480.122	8043.74
480.326	8156.38
480.531	8176.86
480.735	7910.62
480.94	7982.3
481.144	8154.33
481.348	7693.54
481.553	7910.62
481.757	7783.65
481.961	8006.88
482.166	7881.95
482.37	7832.8
482.574	7750.88
482.778	7691.49
482.983	8125.66
483.187	7703.78
483.391	7881.95
483.595	7744.74
483.8	7783.65
484.004	7836.89
484.208	7843.04
484.412	7791.84
484.616	7845.09
484.821	7859.42
485.025	7832.8
485.229	7781.6
485.433	7818.46
485.637	7785.69
485.841	7578.85
486.045	7714.02
486.249	7718.11
486.453	7818.46
486.657	7716.06
486.861	7871.71
487.065	7570.66
487.269	7853.28
487.473	7683.3
487.677	7752.93
487.881	7736.54
488.085	7718.11
488.289	7869.66
488.493	7662.82
488.697	7750.88
488.901	7922.91
489.105	7810.27
489.309	7980.25
489.512	7974.11
489.716	7984.35
489.92	7703.78
490.124	7871.71
490.328	8133.85
490.531	7986.4
490.735	7945.44
490.939	7836.89
491.143	7908.57
491.346	7834.85
491.55	8127.71
491.754	8025.31
491.958	8260.82
492.161	8035.55
492.365	8228.06
492.569	8217.82
492.772	8381.65
492.976	8322.26
493.18	8414.42
493.383	8492.24
493.587	8367.32
493.79	8563.92
493.994	8342.74
494.197	8776.91
494.401	8733.9
494.605	8563.92
494.808	8897.74
495.012	8764.62
495.215	8729.81
495.419	9094.35
495.622	8965.32
495.825	9114.83
496.029	9043.15
496.232	9141.45
496.436	9299.14
496.639	9503.94
496.843	9581.76
497.046	9571.52
497.249	9602.24
497.453	9811.14
497.656	9837.76
497.859	9880.77
498.063	9800.9
498.266	10187.96
498.469	10298.55
498.673	10249.4
498.876	10230.97
499.079	10634.42
499.282	10577.08
499.485	10794.16
499.689	10804.4
499.892	10998.96
500.095	11068.59
500.298	11545.77
500.501	11089.07
500.705	11480.23
500.908	11693.22
501.111	11766.95
501.314	11859.1
501.517	12024.99
501.72	12188.83
501.923	12162.2
502.126	12424.34
502.329	12481.69
502.532	12717.2
502.735	12809.36
502.938	12776.59
503.141	13089.93
503.344	13540.49
503.547	13286.54
503.75	13352.07
503.953	13905.03
504.156	13931.65
504.359	14058.62
504.562	14214.27
504.765	14386.3
504.968	14503.03
505.17	14726.26
505.373	14746.74
505.576	14937.2
505.779	15213.68
505.982	15500.39
506.185	15713.38
506.387	15617.13
506.59	15676.52
506.793	16190.56
506.996	15926.37
507.198	16522.33
507.401	16407.64
507.604	16735.32
507.807	17062.99
508.009	17388.62
508.212	17271.89
508.415	17251.41
508.617	17747.01
508.82	17710.15
509.022	17708.1
509.225	18349.12
509.428	18773.05
509.63	18496.57
509.833	18558.01
510.035	19108.91
510.238	18807.86
510.44	19436.59
510.643	19659.82
510.845	19770.41
511.048	19897.38
511.25	20208.67
511.453	20513.82
511.655	20964.37
511.858	20921.37
512.06	20857.88
512.262	21373.97
512.465	21259.28
512.667	21464.08
512.87	22127.62
513.072	22039.56
513.274	22055.94
513.477	22516.73
513.679	22694.91
513.881	23383.02
514.084	23358.45
514.286	23297.01
514.488	23737.32
514.69	24232.93
514.893	24232.93
515.095	24443.87
515.297	24685.53
515.499	24607.71
515.701	25396.18
515.904	25256.92
516.106	25816.01
516.308	25773
516.51	26289.09
516.712	26368.96
516.914	26504.13
517.116	27014.07
517.318	27337.65
517.52	27511.73
517.722	27395
517.925	28074.92
518.127	28249
518.329	28765.09
518.531	28654.5
518.733	28926.88
518.935	29268.89
519.136	29086.62
519.338	29862.8
519.54	30153.61
519.742	30081.93
519.944	30514.05
520.146	31026.04
520.348	31292.28
520.55	31191.93
520.752	31447.93
520.954	32109.42
521.155	31695.73
521.357	32447.33
521.559	32807.78
521.761	33135.45
521.963	32901.98
522.164	33456.98
522.366	33532.76
522.568	33860.43
522.77	33704.79
522.971	34521.93
523.173	34020.17
523.375	34321.23
523.576	34896.7
523.778	34493.25
523.98	35472.18
524.181	35416.89
524.383	35158.84
524.584	35695.41
524.786	35928.88
524.988	35949.36
525.189	36512.55
525.391	36395.82
525.592	36864.8
525.794	37116.7
525.995	37053.22
526.197	37159.71
526.398	37448.47
526.6	37663.51
526.801	37937.94
527.003	38103.82
527.204	37952.27
527.406	37972.75
527.607	38388.49
527.808	38576.9
528.01	37722.9
528.211	38529.8
528.412	39277.31
528.614	38890.24
528.815	38853.38
529.016	39324.41
529.218	38601.48
529.419	39146.24
529.62	39381.76
529.822	39203.58
530.023	39338.75
530.224	39435
530.425	39584.51
530.626	39318.27
530.828	39506.68
531.029	40309.49
531.23	39346.94
531.431	39492.35
531.632	40024.82
531.833	40262.38
532.035	39869.17
532.236	40344.3
532.437	40110.83
532.638	39807.73
532.839	40381.17
533.04	40461.04
533.241	39901.94
533.442	40581.87
533.643	40426.22
533.844	40555.24
534.045	40229.62
534.246	40192.75
534.447	40506.09
534.648	40286.96
534.849	40370.93
535.05	40385.26
535.251	40479.47
535.451	40243.95
535.652	41194.21
535.853	40755.94
536.054	40442.6
536.255	40741.61
536.456	40235.76
536.657	41104.1
536.857	40467.18
537.058	40475.37
537.259	40956.64
537.46	40860.39
537.66	40696.55
537.861	40676.07
538.062	40764.14
538.263	41067.23
538.463	40440.56
538.664	40516.33
538.865	40674.02
539.065	41061.09
539.266	40293.1
539.466	40528.62
539.667	40194.8
539.868	41112.29
540.068	40467.18
540.269	40086.26
540.469	41120.48
540.67	40166.13
540.87	40364.78
541.071	40352.49
541.271	40569.58
541.472	40532.71
541.672	40340.21
541.873	40444.65
542.073	39822.07
542.274	40927.97
542.474	40647.4
542.675	40041.2
542.875	40577.77
543.075	40276.72
543.276	39994.1
543.476	40915.68
543.676	40213.23
543.877	40790.76
544.077	40170.22
544.277	40588.01
544.478	40325.87
544.678	40448.75
544.878	40262.38
545.078	40162.03
545.279	40342.25
545.479	40387.31
545.679	40418.03
545.879	40653.54
546.079	40329.97
546.28	40452.84
546.48	40237.81
546.68	40469.23
546.88	40493.8
547.08	40213.23
547.28	40381.17
547.48	39987.96
547.68	40049.39
547.88	40063.73
548.081	40530.67
548.281	39938.8
548.481	40180.46
548.681	40293.1
548.881	40258.29
549.081	40082.16
549.28	40508.14
549.48	40375.02
549.68	40241.9
549.88	40669.93
550.08	39840.5
550.28	40061.68
550.48	40194.8
550.68	40819.43
550.88	39942.9
551.08	40260.33
551.279	40129.26
551.479	39785.21
551.679	40352.49
551.879	40100.59
552.079	40444.65
552.278	39836.41
552.478	40028.91
552.678	40235.76
552.878	39926.52
553.077	40030.96
553.277	39564.03
553.477	40291.05
553.676	39928.56
553.876	40256.24
554.076	39729.91
554.275	39629.56
554.475	39512.83
554.674	39674.62
554.874	39877.36
555.074	39856.89
555.273	39869.17
555.473	39914.23
555.672	39539.45
555.872	39547.64
556.071	39342.84
556.271	39764.73
556.47	39232.25
556.67	39107.33
556.869	39334.65
557.068	39428.86
557.268	38961.92
557.467	39004.93
557.667	39432.96
557.866	39312.13
558.065	39265.02
558.265	39068.42
558.464	38664.97
558.663	39025.41
558.863	38667.02
559.062	39129.86
559.261	38744.84
559.461	38769.41
559.66	38222.61
559.859	38673.16
560.058	38368.01
560.258	38454.03
560.457	38341.39
560.656	38746.89
560.855	38204.17
561.054	38630.15
561.253	37903.12
561.453	37948.18
561.652	38230.8
561.851	38646.54
562.05	38124.3
562.249	37995.28
562.448	38388.49
562.647	37866.26
562.846	37948.18
563.045	37829.4
563.244	37694.23
563.443	37858.07
563.642	37587.74
563.841	37430.04
564.04	37204.77
564.239	37849.88
564.438	37200.67
564.637	37544.73
564.836	37499.67
565.035	37184.29
565.234	37227.29
565.432	37094.18
565.631	37038.88
565.83	37354.27
566.029	36674.34
566.228	37251.87
566.427	36514.6
566.625	36909.86
566.824	36422.44
567.023	36289.32
567.222	35992.37
567.42	36643.62
567.619	36342.57
567.818	36279.08
568.016	36256.56
568.215	36498.22
568.414	36320.04
568.612	36545.32
568.811	35937.07
569.01	35920.69
569.208	35486.52
569.407	36168.49
569.605	35480.38
569.804	35767.09
570.002	35345.21
570.201	35488.57
570.4	35406.65
570.598	35148.6
570.797	34874.18
570.995	34949.95
571.193	34800.45
571.392	35117.89
571.59	34714.44
571.789	34822.98
571.987	34194.25
572.186	34767.68
572.384	34509.64
572.582	34407.24
572.781	34417.48
572.979	34014.03
573.177	34315.08
573.376	34306.89
573.574	33667.92
573.772	34173.77
573.971	33837.9
574.169	33594.2
574.367	33434.46
574.565	33880.91
574.763	33471.32
574.962	33352.54
575.16	32918.37
575.358	33276.76
575.556	32664.42
575.754	33010.53
575.952	32623.46
576.151	33020.77
576.349	32703.33
576.547	32607.08
576.745	32758.63
576.943	32899.94
577.141	32408.42
577.339	32445.29
577.537	32377.7
577.735	32037.74
577.933	32009.07
578.131	31828.85
578.329	31794.03
578.527	31515.51
578.725	31560.56
578.923	31720.31
579.121	31556.47
579.319	31417.21
579.516	31396.73
579.714	30985.08
579.912	31202.17
580.11	31056.76
580.308	30997.37
580.506	30802.82
580.704	30507.91
580.901	30774.14
581.099	30692.22
581.297	30669.7
581.495	30612.35
581.692	30444.42
581.89	29991.82
582.088	30681.99
582.285	30256.01
582.483	30458.76
582.681	30043.02
582.878	30229.38
583.076	29791.12
583.274	30038.92
583.471	29543.31
583.669	29645.71
583.866	29354.9
584.064	29551.51
584.262	29543.31
584.459	29610.9
584.657	29424.53
584.854	29037.47
585.052	28973.98
585.249	28869.53
585.447	29027.23
585.644	28980.12
585.841	28898.2
586.039	28685.22
586.236	28355.49
586.434	28433.32
586.631	28335.01
586.828	28298.15
587.026	28210.09
587.223	28099.5
587.42	28179.37
587.618	28033.96
587.815	27796.4
588.012	27732.91
588.21	27716.53
588.407	27896.75
588.604	27247.54
588.801	27329.46
588.999	27313.08
589.196	27300.79
589.393	27485.11
589.59	27177.91
589.787	27165.62
589.984	26991.55
590.182	26649.53
590.379	27079.61
590.576	26723.26
590.773	26661.82
590.97	26471.36
591.167	26749.89
591.364	26393.54
591.561	26530.75
591.758	26061.77
591.955	26338.24
592.152	26520.51
592.349	26422.21
592.546	25981.9
592.743	26147.78
592.94	25869.26
593.137	25938.89
593.334	26076.1
593.531	25529.3
593.727	25566.16
593.924	25869.26
594.121	25578.45
594.318	25437.14
594.515	25545.68
594.712	25514.96
594.908	25506.77
595.105	25295.83
595.302	25115.61
595.499	24884.19
595.696	24947.67
595.892	24769.5
596.089	25150.42
596.286	24830.94
596.482	24701.92
596.679	24689.63
596.876	24495.07
597.072	24353.76
597.269	24456.16
597.466	24421.34
597.662	24427.49
597.859	24151.01
598.055	24087.53
598.252	23938.02
598.448	23962.6
598.645	23727.08
598.841	23587.82
599.038	23725.04
599.234	23679.98
599.431	23395.31
599.627	23639.02
599.824	23563.25
600.02	23292.91
600.217	23436.27
600.413	23430.13
600.609	23135.22
600.806	23299.06
601.002	23092.21
601.198	22922.23
601.395	22701.05
601.591	22742.01
601.787	22705.15
601.984	22764.54
602.18	22766.59
602.376	22381.57
602.572	22631.42
602.769	22676.48
602.965	22268.93
603.161	22283.27
603.357	22076.42
603.553	22037.51
603.75	22213.63
603.946	21955.59
604.142	21894.15
604.338	21478.41
604.534	21914.63
604.73	21435.41
604.926	21560.33
605.122	21916.68
605.318	21310.48
605.514	21251.09
605.71	21099.54
605.906	21464.08
606.102	21339.15
606.298	21294.1
606.494	21085.2
606.69	21025.81
606.886	20839.45
607.082	20696.09
607.278	20945.94
607.474	20800.54
607.67	20845.59
607.866	20302.88
608.062	20663.32
608.257	20603.93
608.453	20419.61
608.649	20479
608.845	20458.53
609.041	20384.8
609.236	20661.27
609.432	20159.52
609.628	20194.34
609.824	20192.29
610.019	20010.02
610.215	19950.63
610.411	20151.33
610.606	19571.75
610.802	19987.49
610.998	19786.79
611.193	19668.01
611.389	19575.85
611.584	19551.27
611.78	19631.15
611.976	19545.13
612.171	19663.91
612.367	19438.64
612.562	19330.09
612.758	18908.21
612.953	19117.11
613.149	19567.66
613.344	19100.72
613.539	19491.88
613.735	19110.96
613.93	19354.67
614.126	18971.7
614.321	19067.95
614.517	19072.05
614.712	18834.49
614.907	18873.4
615.103	18742.33
615.298	18584.63
615.493	19104.82
615.688	18660.41
615.884	18775.09
616.079	18662.46
616.274	18492.48
616.47	18502.71
616.665	18332.73
616.86	18457.66
617.055	18099.27
617.25	18236.48
617.445	18570.3
617.641	17933.38
617.836	18601.02
618.031	17925.19
618.226	18547.77
618.421	17851.46
618.616	18140.22
618.811	17890.37
619.006	17998.91
619.201	17482.83
619.396	17876.04
619.591	17722.44
619.786	17644.62
619.981	17368.14
620.176	17413.2
620.371	17171.54
620.566	17118.29
620.761	17028.18
620.956	17495.11
621.151	16944.21
621.346	17247.31
621.541	16647.26
621.735	16759.89
621.93	16467.03
622.125	16720.98
622.32	16473.18
622.515	16448.6
622.709	16634.97
622.904	16520.28
623.099	16153.69
623.294	16161.89
623.488	16016.48
623.683	16045.15
623.878	15537.26
624.072	15711.33
624.267	15705.19
624.462	15529.06
624.656	15531.11
624.851	15314.03
625.046	15371.37
625.24	15453.29
625.435	15189.1
625.629	15156.33
625.824	14804.08
626.018	15049.84
626.213	14873.71
626.407	14763.12
626.602	14603.38
626.796	14593.14
626.991	14673.01
627.185	14482.55
627.38	14300.28
627.574	14169.21
627.768	14144.64
627.963	13974.66
628.157	13929.6
628.352	14105.73
628.546	13831.3
628.74	14044.29
628.935	13792.39
629.129	13575.3
629.323	13597.83
629.517	13661.32
629.712	13409.42
629.906	13649.03
630.1	13360.27
630.294	13356.17
630.489	13159.56
630.683	13206.67
630.877	13153.42
631.071	12813.46
631.265	13010.06
631.459	12631.19
631.653	12893.33
631.848	12807.31
632.042	12694.68
632.236	12455.06
632.43	12450.97
632.624	12536.98
632.818	12291.23
633.012	12057.76
633.206	12299.42
633.4	12410.01
633.594	12145.82
633.788	12326.04
633.982	12158.11
634.176	11713.7
634.369	12039.33
634.563	11898.02
634.757	11918.5
634.951	11777.19
635.145	11709.6
635.339	11736.23
635.533	11351.21
635.726	11351.21
635.92	11398.31
636.114	11328.68
636.308	11324.58
636.501	11226.28
636.695	11343.02
636.889	11330.73
637.083	11056.3
637.276	11037.87
637.47	10986.67
637.664	10792.11
637.857	11099.31
638.051	10986.67
638.244	10613.94
638.438	10753.2
638.632	10618.04
638.825	10364.09
639.019	10560.69
639.212	10243.26
639.406	10335.42
639.599	10448.05
639.793	10024.12
639.986	10228.92
640.18	10218.68
640.373	10321.08
640.567	10044.6
640.76	10085.56
640.954	9899.2
641.147	9899.2
641.34	9833.66
641.534	9804.99
641.727	9811.14
641.92	9684.16
642.114	9366.73
642.307	9555.14
642.5	9575.62
642.694	9301.19
642.887	9387.21
643.08	9594.05
643.273	9309.38
643.467	9264.33
643.66	9198.79
643.853	8994
644.046	9004.24
644.239	8977.61
644.432	8774.86
644.626	8877.26
644.819	8858.83
645.012	8697.04
645.205	8670.42
645.398	8770.77
645.591	8664.27
645.784	8817.87
645.977	8424.66
646.17	8574.16
646.363	8459.48
646.556	8416.47
646.749	8402.13
646.942	8412.37
647.135	8094.94
647.328	8230.1
647.521	8332.5
647.714	8064.22
647.907	8049.88
648.099	8021.21
648.292	8019.16
648.485	8180.95
648.678	7789.79
648.871	7914.72
649.064	7783.65
649.256	7752.93
649.449	7652.58
649.642	7851.23
649.835	7628
650.027	7654.62
650.22	7642.34
650.413	7617.76
650.605	7408.87
650.798	7367.91
650.991	7322.85
651.183	7136.49
651.376	7197.93
651.568	7318.76
651.761	7109.86
651.954	7118.06
652.146	7144.68
652.339	7032.04
652.531	7064.81
652.724	6905.07
652.916	6980.84
653.109	6950.12
653.301	7001.32
653.494	6935.79
653.686	6532.34
653.879	6817.01
654.071	6720.75
654.263	6661.36
654.456	6694.13
654.648	6728.94
654.84	6573.3
655.033	6554.87
655.225	6485.23
655.417	6345.97
655.61	6407.41
655.802	6360.31
655.994	6540.53
656.186	6393.08
656.379	6376.69
656.571	6325.49
656.763	6274.29
656.955	6087.93
657.148	6253.81
657.34	6192.37
657.532	6022.39
657.724	5850.36
657.916	5995.77
658.108	5891.32
658.3	5817.6
658.492	5901.56
658.684	5790.97
658.876	5784.83
659.068	5883.13
659.26	5735.68
659.452	5854.46
659.644	5752.06
659.836	5672.19
660.028	5719.29
660.22	5508.35
660.412	5541.12
660.604	5524.74
660.796	5465.35
660.988	5524.74
661.18	5399.81
661.372	5354.76
661.563	5440.77
661.755	5266.69
661.947	5371.14
662.139	5301.51
662.331	5227.78
662.522	5213.45
662.714	5262.6
662.906	5154.05
663.097	5127.43
663.289	5037.32
663.481	5018.89
663.673	4965.64
663.864	4967.69
664.056	5074.18
664.247	4875.53
664.439	5010.7
664.631	4955.4
664.822	4879.63
665.014	4902.15
665.205	4887.82
665.397	4810
665.588	4709.65
665.78	4744.46
665.971	4810
666.163	4699.41
666.354	4678.93
666.546	4680.97
666.737	4719.89
666.929	4412.69
667.12	4676.88
667.311	4566.29
667.503	4564.24
667.694	4535.57
667.885	4486.42
668.077	4480.27
668.268	4431.12
668.459	4320.53
668.651	4418.83
668.842	4453.65
669.033	4324.63
669.224	4320.53
669.416	4386.07
669.607	4162.84
669.798	4330.77
669.989	4252.95
670.18	4353.3
670.371	4095.25
670.563	4119.83
670.754	4289.81
670.945	4205.85
671.136	4257.04
671.327	4136.21
671.518	4119.83
671.709	4146.45
671.9	4027.67
672.091	4044.06
672.282	3960.09
672.473	4064.54
672.664	4089.11
672.855	3962.14
673.046	3927.32
673.237	3984.66
673.428	3974.42
673.619	3898.65
673.809	3732.76
674	3947.8
674.191	3769.63
674.382	3843.35
674.573	3900.7
674.764	3751.2
674.954	3732.76
675.145	3753.24
675.336	3880.22
675.527	3683.61
675.717	3679.52
675.908	3720.48
676.099	3634.46
676.289	3622.17
676.48	3560.73
676.671	3661.09
676.861	3679.52
677.052	3534.11
677.243	3624.22
677.433	3599.65
677.624	3546.4
677.814	3562.78
678.005	3720.48
678.195	3671.33
678.386	3622.17
678.576	3427.62
678.767	3632.41
678.957	3433.76
679.148	3464.48
679.338	3405.09
679.529	3388.71
679.719	3493.15
679.909	3423.52
680.1	3386.66
680.29	3329.31
680.481	3460.38
680.671	3441.95
680.861	3222.82
681.052	3398.95
681.242	3329.31
681.432	3384.61
681.622	3437.86
681.813	3355.94
682.003	3370.27
682.193	3265.83
682.383	3317.03
682.573	3269.92
682.764	3265.83
682.954	3304.74
683.144	3224.87
683.334	3138.85
683.524	3370.27
683.714	3190.05
683.904	3204.39
684.094	3132.71
684.284	3120.42
684.474	3101.99
684.664	3204.39
684.854	3114.28
685.044	3153.19
685.234	3198.24
685.424	2975.02
685.614	3114.28
685.804	3253.54
685.994	3022.12
686.184	3030.31
686.374	3026.22
686.564	3058.98
686.753	3114.28
686.943	2999.59
687.133	3048.74
687.323	3046.69
687.513	2968.87
687.702	3081.51
687.892	3011.88
688.082	3013.93
688.272	2942.25
688.461	3036.45
688.651	3003.69
688.841	3110.18
689.03	2958.63
689.22	2942.25
689.41	2901.29
689.599	3026.22
689.789	3005.74
689.979	2858.28
690.168	2964.78
690.358	2868.52
690.547	2815.27
690.737	2884.91
690.926	2991.4
691.116	2923.82
691.305	2960.68
691.495	2882.86
691.684	2917.67
691.874	2815.27
692.063	2780.46
692.252	2819.37
692.442	2889
692.631	2778.41
692.82	2938.15
693.01	2845.99
693.199	2790.7
693.388	2747.69
693.578	2782.51
693.767	2835.75
693.956	2895.15
694.146	2741.55
694.335	2729.26
694.524	2903.34
694.713	2710.83
694.902	2770.22
695.092	2702.64
695.281	2698.54
695.47	2739.5
695.659	2739.5
695.848	2733.36
696.037	2839.85
696.226	2798.89
696.415	2753.84
696.604	2784.55
696.793	2716.97
696.982	2747.69
697.171	2698.54
697.36	2725.16
697.549	2817.32
697.738	2565.42
697.927	2696.49
698.116	2747.69
698.305	2700.59
698.494	2710.83
698.683	2712.88
698.872	2719.02
699.061	2671.92
699.25	2684.2
699.438	2790.7
699.627	2659.63
699.816	2706.73
700.005	2729.26
700.193	2637.1
700.382	2600.24
700.571	2680.11
700.76	2546.99
700.948	2688.3
701.137	2854.19
701.326	2671.92
701.514	2633.01
701.703	2641.2
701.892	2563.37
702.08	2686.25
702.269	2635.05
702.457	2512.17
702.646	2626.86
702.834	2526.51
703.023	2551.09
703.212	2540.85
703.4	2600.24
703.589	2647.34
703.777	2506.03
703.965	2610.48
704.154	2639.15
704.342	2530.61
704.531	2495.79
704.719	2538.8
704.907	2540.85
705.096	2493.74
705.284	2565.42
705.472	2450.74
705.661	2471.22
705.849	2559.28
706.037	2524.46
706.226	2417.97
706.414	2428.21
706.602	2387.25
706.79	2379.06
706.979	2422.06
707.167	2290.99
707.355	2426.16
707.543	2413.87
707.731	2434.35
707.919	2417.97
708.107	2442.54
708.296	2379.06
708.484	2391.34
708.672	2393.39
708.86	2327.86
709.048	2479.41
709.236	2319.67
709.424	2420.02
709.612	2379.06
709.8	2223.41
709.988	2344.24
710.176	2344.24
710.364	2329.91
710.551	2311.47
710.739	2252.08
710.927	2303.28
711.115	2342.19
711.303	2254.13
711.491	2354.48
711.679	2313.52
711.866	2207.03
712.054	2290.99
712.242	2233.65
712.43	2155.83
712.617	2258.23
712.805	2225.46
712.993	2272.56
713.181	2221.36
713.368	2272.56
713.556	2172.21
713.744	2125.11
713.931	2223.41
714.119	2061.62
714.306	2135.35
714.494	2161.97
714.682	2108.73
714.869	2006.33
715.057	2088.25
715.244	2125.11
715.432	2020.66
715.619	2188.6
715.807	1961.27
715.994	2073.91
716.182	2073.91
716.369	1987.89
716.556	2084.15
716.744	1948.98
716.931	1996.09
717.119	2043.19
717.306	2026.81
717.493	2004.28
717.681	2088.25
717.868	1983.8
718.055	2053.43
718.242	1910.07
718.43	2000.18
718.617	1881.4
718.804	1957.18
718.991	1875.26
719.179	1942.84
719.366	1969.46
719.553	1910.07
719.74	1918.26
719.927	1957.18
720.114	1871.16
720.301	1926.46
720.488	1926.46
720.676	1838.39
720.863	1905.98
721.05	1830.2
721.237	1799.48
721.424	1799.48
721.611	1674.56
721.798	1893.69
721.985	1834.3
722.172	1676.6
722.358	1699.13
722.545	1871.16
722.732	1770.81
722.919	1836.35
723.106	1824.06
723.293	1819.96
723.48	1746.23
723.667	1787.19
723.853	1813.82
724.04	1621.31
724.227	1660.22
724.414	1725.75
724.6	1756.47
724.787	1649.98
724.974	1686.84
725.161	1670.46
725.347	1713.47
725.534	1649.98
725.72	1742.14
725.907	1750.33
726.094	1676.6
726.28	1680.7
726.467	1676.6
726.653	1662.27
726.84	1678.65
727.027	1666.36
727.213	1586.49
727.4	1664.32
727.586	1566.01
727.773	1692.99
727.959	1584.45
728.145	1621.31
728.332	1598.78
728.518	1668.41
728.705	1674.56
728.891	1551.68
729.077	1590.59
729.264	1508.67
729.45	1557.82
729.636	1623.36
729.823	1633.6
730.009	1566.01
730.195	1561.92
730.382	1588.54
730.568	1566.01
730.754	1525.05
730.94	1508.67
731.126	1541.44
731.313	1588.54
731.499	1584.45
731.685	1486.14
731.871	1471.81
732.057	1531.2
732.243	1477.95
732.429	1531.2
732.615	1496.38
732.801	1475.9
732.987	1475.9
733.173	1363.26
733.359	1330.5
733.545	1402.18
733.731	1484.09
733.917	1467.71
734.103	1480
734.289	1496.38
734.475	1375.55
734.661	1455.42
734.847	1404.22
735.033	1477.95
735.219	1463.61
735.404	1400.13
735.59	1365.31
735.776	1387.84
735.962	1357.12
736.148	1353.02
736.333	1291.59
736.519	1387.84
736.705	1398.08
736.89	1320.26
737.076	1369.41
737.262	1353.02
737.447	1453.38
737.633	1361.22
737.819	1400.13
738.004	1361.22
738.19	1383.74
738.375	1299.78
738.561	1273.15
738.747	1387.84
738.932	1336.64
739.118	1271.11
739.303	1213.76
739.489	1439.04
739.674	1334.59
739.859	1330.5
740.045	1185.09
740.23	1334.59
740.416	1383.74
740.601	1377.6
740.786	1176.9
740.972	1297.73
741.157	1166.66
741.342	1176.9
741.528	1209.67
741.713	1213.76
741.898	1201.47
742.084	1250.63
742.269	1123.65
742.454	1205.57
742.639	1234.24
742.824	1199.43
743.01	1164.61
743.195	1271.11
743.38	1195.33
743.565	1273.15
743.75	1226.05
743.935	1217.86
744.12	1203.52
744.305	1123.65
744.49	1187.14
744.675	1187.14
744.86	1115.46
745.045	1090.88
745.23	1062.21
745.415	1181
745.6	1127.75
745.785	1181
745.97	1193.28
746.155	1033.54
746.34	1082.69
746.525	1035.59
746.71	1154.37
746.895	1076.55
747.079	1078.6
747.264	1062.21
747.449	1019.21
747.634	992.58
747.819	1054.02
748.003	1015.11
748.188	1037.64
748.373	1058.12
748.557	1029.45
748.742	972.1
748.927	1033.54
749.111	912.71
749.296	1021.25
749.481	988.49
749.665	945.48
749.85	1021.25
750.034	955.72
750.219	998.73
750.404	943.43
750.588	900.42
750.773	910.66
750.957	933.19
751.141	1023.3
751.326	931.14
751.51	900.42
751.695	900.42
751.879	998.73
752.064	945.48
752.248	875.85
752.432	902.47
752.617	871.75
752.801	902.47
752.985	822.6
753.17	879.94
753.354	910.66
753.538	886.09
753.722	822.6
753.907	910.66
754.091	771.4
754.275	791.88
754.459	886.09
754.643	775.5
754.828	779.59
755.012	845.13
755.196	871.75
755.38	804.17
755.564	888.14
755.748	748.87
755.932	787.79
756.116	748.87
756.3	718.15
756.484	677.19
756.668	763.21
756.852	681.29
757.036	685.39
757.22	775.5
757.404	787.79
757.588	761.16
757.772	795.98
757.956	757.07
758.14	761.16
758.323	787.79
758.507	664.91
758.691	750.92
758.875	724.3
759.059	648.52
759.242	681.29
759.426	716.11
759.61	707.91
759.794	656.72
759.977	716.11
760.161	681.29
760.345	644.43
760.528	726.35
760.712	705.87
760.895	681.29
761.079	644.43
761.263	681.29
761.446	650.57
761.63	656.72
761.813	599.37
761.997	587.08
762.18	669
762.364	544.08
762.547	617.8
762.731	601.42
762.914	642.38
763.098	648.52
763.281	576.84
763.464	585.04
763.648	548.17
763.831	525.65
764.015	660.81
764.198	509.26
764.381	527.69
764.564	650.57
764.748	617.8
764.931	656.72
765.114	591.18
765.297	570.7
765.481	580.94
765.664	570.7
765.847	556.36
766.03	623.95
766.213	587.08
766.397	550.22
766.58	535.89
766.763	535.89
766.946	552.27
767.129	558.41
767.312	519.5
767.495	501.07
767.678	617.8
767.861	550.22
768.044	560.46
768.227	525.65
768.41	486.73
768.593	542.03
768.776	560.46
768.959	505.17
769.142	496.97
769.324	607.56
769.507	492.88
769.69	558.41
769.873	447.82
770.056	546.12
770.239	484.69
770.421	486.73
770.604	509.26
770.787	582.99
770.97	492.88
771.152	589.13
771.335	531.79
771.518	433.49
771.7	472.4
771.883	488.78
772.066	519.5
772.248	470.35
772.431	503.12
772.613	505.17
772.796	408.91
772.978	605.52
773.161	515.41
773.343	515.41
773.526	433.49
773.708	453.97
773.891	441.68
774.073	501.07
774.256	445.77
774.438	460.11
774.621	513.36
774.803	478.54
774.985	388.43
775.168	458.06
775.35	406.86
775.532	542.03
775.715	531.79
775.897	445.77
776.079	451.92
776.261	484.69
776.444	435.53
776.626	494.93
776.808	419.15
776.99	523.6
777.173	460.11
777.355	429.39
777.537	425.29
777.719	410.96
777.901	419.15
778.083	441.68
778.265	396.62
778.447	365.9
778.629	408.91
778.811	390.48
778.993	441.68
779.175	406.86
779.357	353.62
779.539	394.58
779.721	335.18
779.903	449.87
780.085	324.94
780.267	410.96
780.449	353.62
780.631	415.05
780.812	367.95
780.994	431.44
781.176	433.49
781.358	367.95
781.54	322.9
781.721	355.66
781.903	380.24
782.085	286.03
782.267	423.25
782.448	316.75
782.63	316.75
782.812	349.52
782.993	380.24
783.175	388.43
783.357	316.75
783.538	370
783.72	347.47
783.901	363.86
784.083	322.9
784.264	329.04
784.446	347.47
784.627	349.52
784.809	320.85
784.99	382.29
785.172	281.94
785.353	353.62
785.535	273.75
785.716	281.94
785.897	177.49
786.079	318.8
786.26	322.9
786.441	273.75
786.623	279.89
786.804	267.6
786.985	216.4
787.167	271.7
787.348	298.32
787.529	245.07
787.71	320.85
787.891	281.94
788.073	286.03
788.254	271.7
788.435	263.51
788.616	283.98
788.797	142.68
788.978	249.17
789.159	292.18
789.34	243.03
789.522	302.42
789.703	275.79
789.884	228.69
790.065	236.88
790.246	294.22
790.427	204.11
790.607	197.97
790.788	226.64
790.969	238.93
791.15	249.17
791.331	337.23
791.512	234.83
791.693	230.74
791.874	314.7
792.054	236.88
792.235	283.98
792.416	173.39
792.597	214.35
792.778	140.63
792.958	267.6
793.139	290.13
793.32	216.4
793.5	197.97
793.681	265.55
793.862	157.01
794.042	249.17
794.223	214.35
794.404	210.26
794.584	148.82
794.765	249.17
794.945	222.55
795.126	232.79
795.306	245.07
795.487	146.77
795.667	224.59
795.848	261.46
796.028	197.97
796.209	185.68
796.389	142.68
796.57	165.2
796.75	116.05
796.93	183.63
797.111	73.04
797.291	167.25
797.471	60.76
797.652	128.34
797.832	195.92
798.012	124.24
798.192	191.83
798.373	185.68
798.553	175.44
798.733	150.87
798.913	154.96
799.093	103.76
799.274	60.76
799.454	222.55
799.634	134.48
799.814	197.97
799.994	183.63
800.174	206.16
800.354	111.96
800.534	71
800.714	175.44
800.894	132.44
801.074	157.01
801.254	191.83
801.434	253.27
801.614	226.64
801.794	101.72
801.974	370
802.154	165.2
802.334	181.59
802.514	99.67
802.693	185.68
802.873	165.2
803.053	163.15
803.233	159.06
803.413	101.72
803.592	132.44
803.772	134.48
803.952	99.67
804.131	152.91
804.311	52.56
804.491	214.35
804.67	124.24
804.85	204.11
805.03	157.01
805.209	75.09
805.389	124.24
805.568	134.48
805.748	68.95
805.928	134.48
806.107	169.3
806.287	152.91
806.466	109.91
806.646	114
806.825	91.48
807.004	116.05
807.184	124.24
807.363	150.87
807.543	118.1
807.722	101.72
807.901	116.05
808.081	91.48
808.26	83.28
808.439	154.96
808.619	48.47
808.798	99.67
808.977	202.07
809.156	142.68
809.336	116.05
809.515	111.96
809.694	42.32
809.873	130.39
810.052	62.8
810.231	83.28
810.411	130.39
810.59	144.72
810.769	132.44
810.948	111.96
811.127	81.24
811.306	87.38
811.485	87.38
811.664	173.39
811.843	167.25
812.022	56.66
812.201	32.08
812.38	89.43
812.559	91.48
812.737	101.72
812.916	93.52
813.095	83.28
813.274	54.61
813.453	71
813.632	130.39
813.811	77.14
813.989	52.56
814.168	75.09
814.347	54.61
814.526	97.62
814.704	56.66
814.883	87.38
815.062	52.56
815.24	138.58
815.419	23.89
815.598	128.34
815.776	62.8
815.955	-17.07
816.133	34.13
816.312	118.1
816.49	75.09
816.669	83.28
816.847	81.24
817.026	99.67
817.204	-6.83
817.383	126.29
817.561	124.24
817.74	138.58
817.918	136.53
818.097	111.96
818.275	56.66
818.453	132.44
818.632	97.62
818.81	159.06
818.988	89.43
819.167	56.66
819.345	128.34
819.523	50.52
819.701	30.04
819.879	50.52
820.058	101.72
820.236	75.09
820.414	54.61
820.592	50.52
820.77	42.32
820.948	89.43
821.127	91.48
821.305	42.32
821.483	60.76
821.661	77.14
821.839	1.37
822.017	81.24
822.195	56.66
822.373	118.1
822.551	89.43
822.729	60.76
822.907	60.76
823.085	75.09
823.262	68.95
823.44	5.46
823.618	89.43
823.796	140.63
823.974	1.37
824.152	25.94
824.329	71
824.507	130.39
824.685	46.42
824.863	66.9
825.04	130.39
825.218	173.39
825.396	25.94
825.574	60.76
825.751	62.8
825.929	50.52
826.107	25.94
826.284	103.76
826.462	75.09
826.639	93.52
826.817	13.65
826.994	25.94
827.172	-6.83
827.349	5.46
827.527	5.46
827.704	73.04
827.882	62.8
828.059	30.04
828.237	101.72
828.414	40.28
828.591	64.85
828.769	79.19
828.946	42.32
829.124	19.8
829.301	48.47
829.478	34.13
829.655	73.04
829.833	58.71
830.01	-6.83
830.187	93.52
830.364	79.19
830.542	87.38
830.719	-31.4
830.896	-10.92
831.073	40.28
831.25	93.52
831.427	23.89
831.604	17.75
831.782	44.37
831.959	17.75
832.136	27.99
832.313	79.19
832.49	9.56
832.667	38.23
832.844	30.04
833.021	60.76
833.198	-35.5
833.374	62.8
833.551	83.28
833.728	34.13
833.905	79.19
834.082	25.94
834.259	50.52
834.436	40.28
834.612	73.04
834.789	116.05
834.966	-6.83
835.143	77.14
835.319	42.32
835.496	95.57
835.673	34.13
835.85	77.14
836.026	1.37
836.203	25.94
836.38	46.42
836.556	34.13
836.733	-2.73
836.909	3.41
837.086	25.94
837.262	30.04
837.439	54.61
837.616	116.05
837.792	30.04
837.968	97.62
838.145	50.52
838.321	19.8
838.498	75.09
838.674	21.85
838.851	83.28
839.027	71
839.203	46.42
839.38	40.28
839.556	105.81
839.732	54.61
839.909	56.66
840.085	38.23
840.261	42.32
840.437	56.66
840.614	46.42
840.79	15.7
840.966	42.32
841.142	52.56
841.318	17.75
841.494	126.29
841.671	48.47
841.847	68.95
842.023	-33.45
842.199	60.76
842.375	21.85
842.551	3.41
842.727	50.52
842.903	109.91
843.079	11.61
843.255	99.67
843.431	17.75
843.607	42.32
843.783	48.47
843.959	-6.83
844.134	-4.78
844.31	5.46
844.486	68.95
844.662	-2.73
844.838	66.9
845.013	34.13
845.189	3.41
845.365	17.75
845.541	-10.92
845.716	36.18
845.892	-4.78
846.068	-4.78
846.244	-2.73
846.419	71
846.595	48.47
846.77	34.13
846.946	-109.23
847.122	93.52
847.297	21.85
847.473	25.94
847.648	-27.31
847.824	19.8
847.999	-19.11
848.175	13.65
848.35	-10.92
848.526	17.75
848.701	34.13
848.876	17.75
849.052	91.48
849.227	-6.83
849.403	-23.21
849.578	66.9
849.753	54.61
849.929	68.95
850.104	-17.07
850.279	40.28
850.454	91.48
850.63	17.75
850.805	66.9
850.98	44.37
851.155	-23.21
851.33	150.87
851.505	42.32
851.681	77.14
851.856	44.37
852.031	56.66
852.206	99.67
852.381	-31.4
852.556	48.47
852.731	15.7
852.906	30.04
853.081	132.44
853.256	27.99
853.431	36.18
853.606	81.24
853.781	-31.4
853.956	-39.59
854.131	9.56
854.305	54.61
854.48	-15.02
854.655	-15.02
854.83	34.13
855.005	15.7
855.18	52.56
855.354	-6.83
855.529	116.05
855.704	34.13
855.879	3.41
856.053	-23.21
856.228	58.71
856.403	66.9
856.577	30.04
856.752	38.23
856.926	66.9
857.101	44.37
857.276	-23.21
857.45	5.46
857.625	83.28
857.799	11.61
857.974	44.37
858.148	60.76
858.323	-4.78
858.497	38.23
858.672	13.65
858.846	42.32
859.02	83.28
859.195	-23.21
859.369	66.9
859.543	-19.11
859.718	58.71
859.892	25.94
860.066	-12.97
860.241	58.71
860.415	-49.83
860.589	48.47
860.763	34.13
860.938	17.75
861.112	136.53
861.286	27.99
861.46	-25.26
861.634	34.13
861.808	34.13
861.982	9.56
862.157	-19.11
862.331	1.37
862.505	34.13
862.679	3.41
862.853	-37.55
863.027	-47.79
863.201	42.32
863.375	-4.78
863.549	-37.55
863.722	-2.73
863.896	1.37
864.07	56.66
864.244	58.71
864.418	21.85
864.592	54.61
864.766	23.89
864.939	34.13
865.113	11.61
865.287	79.19
865.461	36.18
865.634	56.66
865.808	62.8
865.982	36.18
866.156	-31.4
866.329	25.94
866.503	3.41
866.676	-0.68
866.85	42.32
867.024	-12.97
867.197	32.08
867.371	27.99
867.544	-19.11
867.718	3.41
867.891	36.18
868.065	-23.21
868.238	-19.11
868.412	71
868.585	-25.26
868.759	9.56
868.932	-0.68
869.105	1.37
869.279	30.04
869.452	19.8
869.625	66.9
869.799	50.52
869.972	-39.59
870.145	3.41
870.319	-2.73
870.492	32.08
870.665	9.56
870.838	-49.83
871.011	27.99
871.185	34.13
871.358	-2.73
871.531	-4.78
871.704	13.65
871.877	56.66
872.05	56.66
872.223	15.7
872.396	36.18
872.569	9.56
872.742	42.32
872.915	34.13
873.088	9.56
873.261	13.65
873.434	27.99
873.607	7.51
873.78	19.8
873.953	52.56
874.126	-12.97
874.299	52.56
874.471	-31.4
874.644	-39.59
874.817	-12.97
874.99	73.04
875.163	-15.02
875.335	-6.83
875.508	-53.93
875.681	52.56
875.853	-55.98
876.026	25.94
876.199	-37.55
876.371	66.9
876.544	52.56
876.717	38.23
876.889	21.85
877.062	42.32
877.234	64.85
877.407	58.71
877.579	13.65
877.752	3.41
877.924	25.94
878.097	40.28
878.269	-2.73
878.442	9.56
878.614	62.8
878.786	15.7
878.959	-6.83
879.131	-23.21
879.303	-117.42
879.476	48.47
879.648	58.71
879.82	-15.02
879.993	-2.73
880.165	-80.55
880.337	-6.83
880.509	1.37
880.681	-6.83
880.854	42.32
881.026	-2.73
881.198	52.56
881.37	-51.88
881.542	9.56
881.714	11.61
881.886	11.61
882.058	-6.83
882.23	44.37
882.402	30.04
882.574	-21.16
882.746	30.04
882.918	34.13
883.09	34.13
883.262	46.42
883.434	46.42
883.606	-23.21
883.778	46.42
883.95	11.61
884.122	50.52
884.293	42.32
884.465	23.89
884.637	68.95
884.809	-15.02
884.98	36.18
885.152	38.23
885.324	71
885.496	40.28
885.667	-0.68
885.839	58.71
886.011	50.52
886.182	30.04
886.354	34.13
886.525	81.24
886.697	-70.31
886.869	-2.73
887.04	23.89
887.212	23.89
887.383	56.66
887.555	19.8
887.726	-10.92
887.897	-31.4
888.069	71
888.24	-37.55
888.412	27.99
888.583	-8.87
888.754	95.57
888.926	9.56
889.097	15.7
889.268	-15.02
889.44	-12.97
889.611	15.7
889.782	23.89
889.953	54.61
890.125	62.8
890.296	-55.98
890.467	-15.02
890.638	42.32
890.809	1.37
890.98	44.37
891.151	50.52
891.323	111.96
891.494	-53.93
891.665	-55.98
891.836	-60.07
892.007	-37.55
892.178	21.85
892.349	17.75
892.52	34.13
892.691	-41.64
892.862	17.75
893.032	-51.88
893.203	17.75
893.374	5.46
893.545	-4.78
893.716	34.13
893.887	9.56
894.057	-49.83
894.228	73.04
894.399	-45.74
894.57	7.51
894.74	-55.98
894.911	-43.69
895.082	-37.55
895.253	-21.16
895.423	71
895.594	13.65
895.764	15.7
895.935	-35.5
896.106	38.23
896.276	-6.83
896.447	116.05
896.617	-2.73
896.788	-39.59
896.958	9.56
897.129	25.94
897.299	15.7
897.47	-2.73
897.64	30.04
897.81	-31.4
897.981	21.85
898.151	5.46
898.322	19.8
898.492	-12.97
898.662	-23.21
898.832	30.04
899.003	3.41
899.173	27.99
899.343	-43.69
899.513	-51.88
