Data from USB4F104151__57__13-53-35-296.txt Node

Date: Thu Mar 13 13:53:35 EDT 2025
User: louis
Spectrometer: USB4F10415
Trigger mode: 4
Integration Time (sec): 1.000000E-2
Scans to average: 1
Electric dark correction enabled: true
Nonlinearity correction enabled: false
Boxcar width: 0
XAxis mode: Wavelengths
Number of Pixels in Spectrum: 3648
>>>>>Begin Spectral Data<<<<<
178.204	9.9
178.424	9.9
178.644	9.9
178.864	-55.64
179.084	-72.02
179.304	-69.97
179.524	-4.44
179.744	5.8
179.964	71.34
180.184	-57.68
180.404	-6.49
180.624	9.9
180.844	26.28
181.064	13.99
181.283	-2.39
181.503	-8.53
181.723	22.19
181.943	-90.45
182.163	128.68
182.383	11.95
182.602	-6.49
182.822	32.43
183.042	79.53
183.262	-49.49
183.482	44.71
183.701	-2.39
183.921	-41.3
184.141	-0.34
184.361	22.19
184.58	9.9
184.8	-26.96
185.02	38.57
185.239	36.52
185.459	67.24
185.679	-57.68
185.898	-45.4
186.118	-22.87
186.338	-12.63
186.557	-29.01
186.777	9.9
186.997	20.14
187.216	-10.58
187.436	57
187.655	-35.16
187.875	-41.3
188.095	73.39
188.314	-6.49
188.534	54.95
188.753	1.71
188.973	30.38
189.192	26.28
189.412	50.86
189.631	-45.4
189.851	13.99
190.07	34.47
190.29	9.9
190.509	1.71
190.729	-35.16
190.948	-22.87
191.168	50.86
191.387	63.15
191.607	-12.63
191.826	-4.44
192.045	-16.73
192.265	-18.77
192.484	-41.3
192.704	79.53
192.923	-69.97
193.142	-16.73
193.362	-39.25
193.581	48.81
193.8	7.85
194.02	44.71
194.239	42.67
194.458	34.47
194.678	-47.44
194.897	-49.49
195.116	-20.82
195.335	11.95
195.555	-0.34
195.774	-33.11
195.993	-24.92
196.212	87.72
196.432	9.9
196.651	9.9
196.87	3.75
197.089	48.81
197.308	30.38
197.528	18.09
197.747	-20.82
197.966	-51.54
198.185	26.28
198.404	-6.49
198.623	-31.06
198.842	36.52
199.062	-24.92
199.281	-57.68
199.5	9.9
199.719	54.95
199.938	46.76
200.157	20.14
200.376	-53.59
200.595	-18.77
200.814	3.75
201.033	-8.53
201.252	11.95
201.471	34.47
201.69	42.67
201.909	-20.82
202.128	-18.77
202.347	38.57
202.566	-2.39
202.785	102.06
203.004	-59.73
203.223	77.48
203.442	52.91
203.661	13.99
203.879	69.29
204.098	-0.34
204.317	-2.39
204.536	11.95
204.755	36.52
204.974	91.82
205.193	5.8
205.411	61.1
205.63	48.81
205.849	52.91
206.068	11.95
206.287	-49.49
206.505	52.91
206.724	16.04
206.943	42.67
207.162	32.43
207.381	-0.34
207.599	59.05
207.818	-12.63
208.037	18.09
208.255	-12.63
208.474	34.47
208.693	-18.77
208.911	20.14
209.13	-57.68
209.349	20.14
209.567	48.81
209.786	77.48
210.005	26.28
210.223	16.04
210.442	24.23
210.661	20.14
210.879	32.43
211.098	5.8
211.316	30.38
211.535	44.71
211.753	73.39
211.972	-26.96
212.191	42.67
212.409	36.52
212.628	114.34
212.846	89.77
213.065	18.09
213.283	-49.49
213.502	-43.35
213.72	-20.82
213.938	26.28
214.157	67.24
214.375	69.29
214.594	28.33
214.812	57
215.031	5.8
215.249	-35.16
215.467	26.28
215.686	26.28
215.904	44.71
216.122	71.34
216.341	57
216.559	52.91
216.778	59.05
216.996	26.28
217.214	-35.16
217.432	-8.53
217.651	7.85
217.869	73.39
218.087	-18.77
218.306	13.99
218.524	1.71
218.742	22.19
218.96	46.76
219.179	30.38
219.397	-29.01
219.615	77.48
219.833	-26.96
220.051	67.24
220.27	75.43
220.488	18.09
220.706	-26.96
220.924	3.75
221.142	-6.49
221.36	38.57
221.578	-10.58
221.796	9.9
222.015	20.14
222.233	44.71
222.451	48.81
222.669	-74.07
222.887	30.38
223.105	13.99
223.323	-31.06
223.541	9.9
223.759	-8.53
223.977	-14.68
224.195	61.1
224.413	-0.34
224.631	20.14
224.849	28.33
225.067	69.29
225.285	-22.87
225.503	97.96
225.721	3.75
225.939	-31.06
226.157	7.85
226.375	54.95
226.592	-14.68
226.81	-49.49
227.028	9.9
227.246	13.99
227.464	59.05
227.682	71.34
227.9	-14.68
228.117	11.95
228.335	48.81
228.553	79.53
228.771	1.71
228.989	57
229.206	79.53
229.424	32.43
229.642	9.9
229.86	-12.63
230.077	13.99
230.295	-0.34
230.513	-55.64
230.731	-8.53
230.948	-16.73
231.166	18.09
231.384	-0.34
231.601	20.14
231.819	40.62
232.037	-0.34
232.254	-41.3
232.472	3.75
232.689	38.57
232.907	-31.06
233.125	40.62
233.342	-2.39
233.56	-37.2
233.777	-43.35
233.995	-2.39
234.213	89.77
234.43	7.85
234.648	20.14
234.865	-2.39
235.083	16.04
235.3	-31.06
235.518	52.91
235.735	-88.4
235.953	48.81
236.17	-31.06
236.388	-33.11
236.605	24.23
236.822	83.63
237.04	-35.16
237.257	63.15
237.475	34.47
237.692	63.15
237.909	7.85
238.127	46.76
238.344	67.24
238.562	1.71
238.779	-2.39
238.996	28.33
239.214	-0.34
239.431	-4.44
239.648	16.04
239.865	11.95
240.083	36.52
240.3	-47.44
240.517	-35.16
240.735	38.57
240.952	3.75
241.169	16.04
241.386	-8.53
241.603	59.05
241.821	1.71
242.038	11.95
242.255	85.67
242.472	5.8
242.689	5.8
242.907	36.52
243.124	-6.49
243.341	67.24
243.558	40.62
243.775	77.48
243.992	30.38
244.209	65.19
244.426	97.96
244.643	36.52
244.86	54.95
245.078	-29.01
245.295	81.58
245.512	-74.07
245.729	-57.68
245.946	26.28
246.163	38.57
246.38	-43.35
246.597	30.38
246.814	18.09
247.031	36.52
247.248	-6.49
247.464	5.8
247.681	-4.44
247.898	32.43
248.115	-18.77
248.332	-22.87
248.549	22.19
248.766	3.75
248.983	-45.4
249.2	-22.87
249.417	-29.01
249.633	81.58
249.85	32.43
250.067	-12.63
250.284	9.9
250.501	28.33
250.717	16.04
250.934	-22.87
251.151	-65.88
251.368	50.86
251.585	-22.87
251.801	-67.92
252.018	-18.77
252.235	44.71
252.451	42.67
252.668	-29.01
252.885	-26.96
253.102	30.38
253.318	59.05
253.535	57
253.752	-10.58
253.968	-14.68
254.185	-4.44
254.401	24.23
254.618	20.14
254.835	38.57
255.051	-47.44
255.268	42.67
255.484	-24.92
255.701	42.67
255.917	87.72
256.134	-14.68
256.351	11.95
256.567	28.33
256.784	46.76
257	-20.82
257.217	48.81
257.433	-24.92
257.65	26.28
257.866	3.75
258.082	30.38
258.299	-4.44
258.515	87.72
258.732	-24.92
258.948	26.28
259.165	3.75
259.381	69.29
259.597	3.75
259.814	54.95
260.03	-20.82
260.246	34.47
260.463	46.76
260.679	-4.44
260.895	13.99
261.112	-6.49
261.328	22.19
261.544	116.39
261.761	26.28
261.977	-16.73
262.193	-67.92
262.409	54.95
262.626	36.52
262.842	-26.96
263.058	13.99
263.274	7.85
263.49	-22.87
263.707	48.81
263.923	-47.44
264.139	11.95
264.355	65.19
264.571	95.91
264.787	-0.34
265.004	30.38
265.22	-6.49
265.436	100.01
265.652	18.09
265.868	-12.63
266.084	-18.77
266.3	52.91
266.516	-47.44
266.732	46.76
266.948	13.99
267.164	50.86
267.38	32.43
267.596	50.86
267.812	32.43
268.028	40.62
268.244	-16.73
268.46	63.15
268.676	-65.88
268.892	22.19
269.108	67.24
269.324	-18.77
269.54	61.1
269.756	-33.11
269.972	-20.82
270.188	36.52
270.403	-33.11
270.619	22.19
270.835	16.04
271.051	-2.39
271.267	46.76
271.483	52.91
271.698	9.9
271.914	57
272.13	-33.11
272.346	-12.63
272.562	-51.54
272.777	69.29
272.993	-4.44
273.209	73.39
273.425	-45.4
273.64	36.52
273.856	44.71
274.072	1.71
274.287	-61.78
274.503	16.04
274.719	-22.87
274.934	-4.44
275.15	26.28
275.366	54.95
275.581	48.81
275.797	5.8
276.012	11.95
276.228	50.86
276.444	-4.44
276.659	11.95
276.875	7.85
277.09	-10.58
277.306	79.53
277.521	63.15
277.737	-45.4
277.952	22.19
278.168	38.57
278.383	61.1
278.599	9.9
278.814	50.86
279.03	7.85
279.245	5.8
279.461	52.91
279.676	71.34
279.892	-31.06
280.107	63.15
280.322	3.75
280.538	16.04
280.753	18.09
280.969	32.43
281.184	7.85
281.399	79.53
281.615	63.15
281.83	63.15
282.045	-14.68
282.26	63.15
282.476	11.95
282.691	95.91
282.906	9.9
283.122	22.19
283.337	44.71
283.552	9.9
283.767	79.53
283.983	-37.2
284.198	73.39
284.413	46.76
284.628	-10.58
284.843	42.67
285.058	-24.92
285.274	-22.87
285.489	18.09
285.704	1.71
285.919	-41.3
286.134	-33.11
286.349	-43.35
286.564	9.9
286.779	-10.58
286.995	46.76
287.21	13.99
287.425	-10.58
287.64	18.09
287.855	46.76
288.07	30.38
288.285	48.81
288.5	-18.77
288.715	46.76
288.93	20.14
289.145	50.86
289.36	36.52
289.575	57
289.79	-33.11
290.004	1.71
290.219	-49.49
290.434	1.71
290.649	-41.3
290.864	42.67
291.079	30.38
291.294	83.63
291.509	67.24
291.724	44.71
291.938	3.75
292.153	7.85
292.368	-31.06
292.583	-2.39
292.798	40.62
293.012	42.67
293.227	36.52
293.442	28.33
293.657	77.48
293.871	16.04
294.086	44.71
294.301	-18.77
294.516	20.14
294.73	42.67
294.945	42.67
295.16	-6.49
295.374	9.9
295.589	46.76
295.804	-37.2
296.018	38.57
296.233	-53.59
296.447	26.28
296.662	7.85
296.877	9.9
297.091	65.19
297.306	-39.25
297.52	81.58
297.735	13.99
297.949	-20.82
298.164	34.47
298.378	-2.39
298.593	-33.11
298.807	61.1
299.022	32.43
299.236	13.99
299.451	44.71
299.665	52.91
299.88	22.19
300.094	69.29
300.309	-10.58
300.523	16.04
300.737	-14.68
300.952	75.43
301.166	11.95
301.381	69.29
301.595	79.53
301.809	44.71
302.024	-8.53
302.238	46.76
302.452	112.3
302.667	-20.82
302.881	67.24
303.095	-2.39
303.309	5.8
303.524	26.28
303.738	-10.58
303.952	16.04
304.166	-14.68
304.381	-18.77
304.595	69.29
304.809	67.24
305.023	-24.92
305.237	-26.96
305.452	16.04
305.666	20.14
305.88	50.86
306.094	36.52
306.308	20.14
306.522	79.53
306.736	9.9
306.95	3.75
307.164	-45.4
307.379	1.71
307.593	40.62
307.807	-37.2
308.021	-14.68
308.235	26.28
308.449	28.33
308.663	9.9
308.877	16.04
309.091	46.76
309.305	-4.44
309.519	-0.34
309.733	50.86
309.947	1.71
310.161	46.76
310.374	40.62
310.588	28.33
310.802	-0.34
311.016	26.28
311.23	-24.92
311.444	48.81
311.658	65.19
311.872	116.39
312.085	67.24
312.299	22.19
312.513	13.99
312.727	100.01
312.941	-45.4
313.154	24.23
313.368	-10.58
313.582	89.77
313.796	48.81
314.009	46.76
314.223	16.04
314.437	-6.49
314.651	71.34
314.864	28.33
315.078	-12.63
315.292	50.86
315.505	52.91
315.719	42.67
315.933	11.95
316.146	1.71
316.36	50.86
316.573	97.96
316.787	28.33
317.001	-24.92
317.214	-2.39
317.428	69.29
317.641	77.48
317.855	-8.53
318.068	89.77
318.282	50.86
318.495	-20.82
318.709	1.71
318.922	-24.92
319.136	104.11
319.349	44.71
319.563	57
319.776	73.39
319.99	-6.49
320.203	28.33
320.417	-51.54
320.63	-39.25
320.843	16.04
321.057	-22.87
321.27	-18.77
321.483	38.57
321.697	44.71
321.91	-31.06
322.124	108.2
322.337	44.71
322.55	-18.77
322.763	-41.3
322.977	-0.34
323.19	-8.53
323.403	38.57
323.617	3.75
323.83	42.67
324.043	1.71
324.256	75.43
324.469	81.58
324.683	59.05
324.896	38.57
325.109	100.01
325.322	-41.3
325.535	46.76
325.748	-20.82
325.962	-47.44
326.175	34.47
326.388	18.09
326.601	-2.39
326.814	5.8
327.027	-57.68
327.24	59.05
327.453	48.81
327.666	18.09
327.879	48.81
328.092	122.54
328.305	18.09
328.518	36.52
328.731	-14.68
328.944	28.33
329.157	9.9
329.37	7.85
329.583	-14.68
329.796	32.43
330.009	3.75
330.222	26.28
330.435	20.14
330.648	-2.39
330.861	-20.82
331.073	40.62
331.286	-18.77
331.499	87.72
331.712	57
331.925	-6.49
332.138	-24.92
332.35	79.53
332.563	-6.49
332.776	63.15
332.989	-53.59
333.202	93.87
333.414	-16.73
333.627	5.8
333.84	9.9
334.053	32.43
334.265	-65.88
334.478	11.95
334.691	32.43
334.903	3.75
335.116	20.14
335.329	16.04
335.541	79.53
335.754	36.52
335.966	16.04
336.179	50.86
336.392	97.96
336.604	44.71
336.817	110.25
337.029	48.81
337.242	-61.78
337.454	26.28
337.667	85.67
337.88	52.91
338.092	54.95
338.305	44.71
338.517	-4.44
338.729	77.48
338.942	7.85
339.154	5.8
339.367	36.52
339.579	-16.73
339.792	30.38
340.004	48.81
340.217	-26.96
340.429	-12.63
340.641	-2.39
340.854	26.28
341.066	67.24
341.278	1.71
341.491	83.63
341.703	93.87
341.915	-2.39
342.128	-16.73
342.34	30.38
342.552	-8.53
342.764	30.38
342.977	-12.63
343.189	91.82
343.401	34.47
343.613	-51.54
343.826	3.75
344.038	85.67
344.25	50.86
344.462	59.05
344.674	22.19
344.886	18.09
345.099	-6.49
345.311	50.86
345.523	24.23
345.735	40.62
345.947	7.85
346.159	-12.63
346.371	7.85
346.583	100.01
346.795	24.23
347.007	81.58
347.219	9.9
347.431	-2.39
347.643	-18.77
347.855	34.47
348.067	38.57
348.279	24.23
348.491	69.29
348.703	1.71
348.915	130.73
349.127	38.57
349.339	7.85
349.551	83.63
349.763	34.47
349.975	57
350.187	50.86
350.399	44.71
350.61	28.33
350.822	87.72
351.034	16.04
351.246	75.43
351.458	40.62
351.669	11.95
351.881	48.81
352.093	30.38
352.305	57
352.517	34.47
352.728	77.48
352.94	-2.39
353.152	-16.73
353.363	48.81
353.575	28.33
353.787	26.28
353.999	18.09
354.21	36.52
354.422	59.05
354.633	57
354.845	59.05
355.057	3.75
355.268	32.43
355.48	16.04
355.692	-2.39
355.903	-0.34
356.115	-0.34
356.326	28.33
356.538	52.91
356.749	11.95
356.961	-0.34
357.172	44.71
357.384	46.76
357.595	155.3
357.807	124.58
358.018	18.09
358.23	54.95
358.441	136.87
358.653	40.62
358.864	18.09
359.075	16.04
359.287	63.15
359.498	30.38
359.709	71.34
359.921	46.76
360.132	5.8
360.344	-0.34
360.555	-35.16
360.766	-22.87
360.977	-12.63
361.189	34.47
361.4	5.8
361.611	16.04
361.823	122.54
362.034	57
362.245	24.23
362.456	91.82
362.667	3.75
362.879	28.33
363.09	75.43
363.301	38.57
363.512	9.9
363.723	11.95
363.935	16.04
364.146	67.24
364.357	-4.44
364.568	48.81
364.779	110.25
364.99	36.52
365.201	11.95
365.412	-55.64
365.623	9.9
365.834	71.34
366.045	30.38
366.256	5.8
366.467	69.29
366.678	18.09
366.889	36.52
367.1	5.8
367.311	81.58
367.522	-51.54
367.733	5.8
367.944	67.24
368.155	54.95
368.366	30.38
368.577	130.73
368.788	81.58
368.999	-63.83
369.209	-39.25
369.42	48.81
369.631	75.43
369.842	34.47
370.053	77.48
370.264	81.58
370.474	5.8
370.685	-8.53
370.896	85.67
371.107	40.62
371.317	81.58
371.528	-14.68
371.739	34.47
371.95	16.04
372.16	42.67
372.371	18.09
372.582	52.91
372.792	73.39
373.003	59.05
373.214	-22.87
373.424	38.57
373.635	61.1
373.846	44.71
374.056	18.09
374.267	59.05
374.477	61.1
374.688	100.01
374.898	79.53
375.109	44.71
375.319	71.34
375.53	-45.4
375.74	20.14
375.951	26.28
376.161	46.76
376.372	71.34
376.582	-31.06
376.793	59.05
377.003	46.76
377.214	97.96
377.424	-12.63
377.635	-2.39
377.845	34.47
378.055	1.71
378.266	-55.64
378.476	-20.82
378.686	20.14
378.897	40.62
379.107	-4.44
379.317	-0.34
379.528	61.1
379.738	18.09
379.948	28.33
380.158	79.53
380.369	7.85
380.579	73.39
380.789	1.71
380.999	57
381.21	36.52
381.42	132.78
381.63	-0.34
381.84	75.43
382.05	26.28
382.261	75.43
382.471	79.53
382.681	32.43
382.891	20.14
383.101	61.1
383.311	50.86
383.521	-24.92
383.731	61.1
383.941	75.43
384.151	22.19
384.361	9.9
384.571	5.8
384.781	59.05
384.991	128.68
385.201	110.25
385.411	89.77
385.621	97.96
385.831	-10.58
386.041	59.05
386.251	38.57
386.461	100.01
386.671	-33.11
386.881	52.91
387.091	20.14
387.301	81.58
387.511	11.95
387.72	22.19
387.93	20.14
388.14	7.85
388.35	28.33
388.56	-8.53
388.769	54.95
388.979	57
389.189	83.63
389.399	91.82
389.609	-57.68
389.818	69.29
390.028	-18.77
390.238	-0.34
390.447	81.58
390.657	46.76
390.867	22.19
391.076	-4.44
391.286	52.91
391.496	16.04
391.705	44.71
391.915	-8.53
392.125	50.86
392.334	87.72
392.544	83.63
392.753	63.15
392.963	83.63
393.172	-2.39
393.382	-12.63
393.591	13.99
393.801	13.99
394.01	54.95
394.22	114.34
394.429	7.85
394.639	-6.49
394.848	52.91
395.058	9.9
395.267	50.86
395.477	52.91
395.686	52.91
395.895	95.91
396.105	26.28
396.314	79.53
396.524	67.24
396.733	69.29
396.942	26.28
397.152	40.62
397.361	52.91
397.57	46.76
397.78	130.73
397.989	89.77
398.198	89.77
398.407	118.44
398.617	100.01
398.826	61.1
399.035	34.47
399.244	112.3
399.453	95.91
399.663	32.43
399.872	106.15
400.081	50.86
400.29	30.38
400.499	87.72
400.708	173.74
400.917	89.77
401.127	83.63
401.336	77.48
401.545	73.39
401.754	130.73
401.963	114.34
402.172	75.43
402.381	83.63
402.59	91.82
402.799	59.05
403.008	83.63
403.217	147.11
403.426	75.43
403.635	120.49
403.844	40.62
404.053	140.97
404.262	42.67
404.471	108.2
404.68	40.62
404.888	73.39
405.097	100.01
405.306	85.67
405.515	69.29
405.724	97.96
405.933	167.59
406.142	116.39
406.35	85.67
406.559	124.58
406.768	110.25
406.977	212.65
407.185	112.3
407.394	102.06
407.603	134.82
407.812	159.4
408.02	116.39
408.229	169.64
408.438	163.5
408.646	194.22
408.855	173.74
409.064	202.41
409.272	75.43
409.481	163.5
409.69	147.11
409.898	249.51
410.107	161.45
410.315	192.17
410.524	251.56
410.733	183.98
410.941	216.74
411.15	306.85
411.358	327.33
411.567	265.89
411.775	249.51
411.984	247.46
412.192	269.99
412.401	249.51
412.609	257.7
412.818	313
413.026	261.8
413.234	329.38
413.443	370.34
413.651	335.53
413.86	358.05
414.068	435.88
414.276	409.25
414.485	435.88
414.693	403.11
414.901	413.35
415.11	495.27
415.318	454.31
415.526	474.79
415.734	435.88
415.943	509.6
416.151	536.23
416.359	509.6
416.567	568.99
416.776	589.47
416.984	655.01
417.192	685.73
417.4	753.31
417.608	691.87
417.817	642.72
418.025	714.4
418.233	765.6
418.441	824.99
418.649	730.78
418.857	843.42
419.065	884.38
419.273	845.47
419.481	925.34
419.689	949.92
419.897	994.97
420.105	913.05
420.313	1019.55
420.521	1117.85
420.729	1027.74
420.937	1060.51
421.145	1150.62
421.353	1306.26
421.561	1273.5
421.769	1277.59
421.977	1314.45
422.185	1361.56
422.393	1484.44
422.601	1527.44
422.809	1527.44
423.017	1437.33
423.224	1504.92
423.432	1711.76
423.64	1578.64
423.848	1832.59
424.056	1793.68
424.263	1900.17
424.471	1797.78
424.679	1848.97
424.887	2041.48
425.094	2088.59
425.302	2096.78
425.51	2199.18
425.718	2254.47
425.925	2186.89
426.133	2281.1
426.341	2449.03
426.548	2612.87
426.756	2571.91
426.964	2606.72
427.171	2827.9
427.379	2813.57
427.586	2901.63
427.794	2899.58
428.001	3028.6
428.209	3264.12
428.417	3141.24
428.624	3460.73
428.832	3501.69
429.039	3495.54
429.247	3524.21
429.454	3698.29
429.662	3907.18
429.869	3729.01
430.076	4023.92
430.284	3935.85
430.491	4103.79
430.699	4361.83
430.906	4062.83
431.114	4312.68
431.321	4365.93
431.528	4497
431.736	4918.88
431.943	5162.59
432.15	4800.1
432.358	4920.93
432.565	5269.08
432.772	5127.77
432.979	5656.15
433.187	5576.28
433.394	5656.15
433.601	6000.21
433.808	5875.28
434.016	6043.21
434.223	6229.58
434.43	6813.25
434.637	6452.81
434.844	6846.02
435.052	6858.31
435.259	7071.29
435.466	7034.43
435.673	6846.02
435.88	7126.59
436.087	7724.6
436.294	7628.34
436.501	7499.32
436.708	7654.97
436.915	8039.98
437.122	8431.15
437.329	8261.16
437.537	8736.29
437.743	8855.08
437.95	8724.01
438.157	9385.5
438.364	9414.17
438.571	9524.76
438.778	9616.92
438.985	10427.92
439.192	10122.77
439.399	10440.2
439.606	10010.13
439.813	10663.43
440.02	11273.73
440.227	11232.77
440.433	10937.86
440.64	11503.1
440.847	11337.21
441.054	11441.66
441.261	12178.93
441.467	12262.9
441.674	12307.95
441.881	12918.25
442.088	12832.23
442.294	12793.32
442.501	13077.99
442.708	13317.6
442.914	13747.67
443.121	14384.59
443.328	14050.77
443.534	14955.97
443.741	14732.75
443.948	14607.82
444.154	15332.8
444.361	15332.8
444.568	15394.24
444.774	15562.17
444.981	15541.69
445.187	16174.52
445.394	16915.88
445.6	16643.5
445.807	18257.3
446.013	17464.74
446.22	17720.73
446.426	18173.33
446.633	18539.92
446.839	18949.51
447.046	18562.45
447.252	19209.61
447.459	19381.63
447.665	19320.2
447.871	20295.03
448.078	21233
448.284	20487.54
448.491	20442.48
448.697	21505.38
448.903	21960.03
449.11	21970.27
449.316	21427.56
449.522	21648.74
449.728	22543.7
449.935	22793.55
450.141	22529.36
450.347	22981.96
450.553	22414.68
450.76	22842.7
450.966	23565.64
451.172	23235.91
451.378	23764.29
451.584	23143.75
451.791	24051
451.997	23807.3
452.203	24401.21
452.409	23969.08
452.615	23993.66
452.821	23043.4
453.027	22498.64
453.233	23856.45
453.44	22981.96
453.646	23303.5
453.852	23526.72
454.058	23729.47
454.264	22695.25
454.47	23438.66
454.676	23047.5
454.882	23733.57
455.088	21527.91
455.294	21859.68
455.5	22412.63
455.705	22336.85
455.911	21495.14
456.117	21097.83
456.323	21056.87
456.529	19721.6
456.735	20505.97
456.941	19811.71
457.147	19744.13
457.352	18943.37
457.558	18873.74
457.764	18955.66
457.97	18482.58
458.176	17907.1
458.381	18046.36
458.587	17102.25
458.793	17051.05
458.999	16201.14
459.204	17556.89
459.41	16903.59
459.616	15805.88
459.821	15957.43
460.027	15742.39
460.233	15599.04
460.438	14757.32
460.644	14941.64
460.85	14204.37
461.055	14138.83
461.261	13950.42
461.466	12985.83
461.672	12703.21
461.878	13315.55
462.083	12527.08
462.289	12455.4
462.494	12262.9
462.7	11625.98
462.905	11445.76
463.111	11570.68
463.316	11798.01
463.522	11570.68
463.727	11570.68
463.932	11447.8
464.138	11326.97
464.343	11478.52
464.549	11169.28
464.754	11558.39
464.959	11316.73
465.165	11570.68
465.37	10933.76
465.575	10561.03
465.781	11023.87
465.986	11046.4
466.191	10640.9
466.397	10343.95
466.602	9969.17
466.807	10321.42
467.012	10481.16
467.218	10343.95
467.423	10102.29
467.628	10216.97
467.833	10518.03
468.038	10116.62
468.244	10046.99
468.449	10475.02
468.654	10233.36
468.859	10061.33
469.064	9856.53
469.269	9504.28
469.474	9510.43
469.679	9909.78
469.885	9535
470.09	9586.2
470.295	9598.49
470.5	9205.28
470.705	9213.47
470.91	8902.18
471.115	9203.23
471.32	9162.27
471.525	9197.09
471.73	8793.64
471.935	8752.68
472.139	8500.78
472.344	8687.14
472.549	8728.1
472.754	8640.04
472.959	8312.36
473.164	8300.08
473.369	8132.14
473.574	8539.69
473.778	8338.99
473.983	8177.2
474.188	8160.81
474.393	7886.39
474.598	7783.99
474.802	7808.56
475.007	7708.21
475.212	7595.57
475.417	7286.33
475.621	7638.58
475.826	7685.69
476.031	7200.32
476.235	7272
476.44	7521.85
476.645	7097.92
476.849	6997.57
477.054	7056.96
477.259	6975.04
477.463	6954.56
477.668	6770.24
477.872	6835.78
478.077	6671.94
478.282	6643.27
478.486	6620.74
478.691	6540.87
478.895	6422.09
479.1	6315.59
479.304	6411.85
479.509	6291.02
479.713	6284.87
479.918	6329.93
480.122	6170.19
480.326	6237.77
480.531	6196.81
480.735	6143.56
480.94	6075.98
481.144	6272.59
481.348	6039.12
481.553	6188.62
481.757	6110.8
481.961	6078.03
482.166	6092.37
482.37	6037.07
482.574	5928.53
482.778	6059.6
482.983	5969.49
483.187	6116.94
483.391	6229.58
483.595	6149.71
483.8	6104.65
484.004	5942.86
484.208	6047.31
484.412	5875.28
484.616	5912.14
484.821	5971.54
485.025	6037.07
485.229	5940.82
485.433	5912.14
485.637	5955.15
485.841	5946.96
486.045	5809.75
486.249	6004.3
486.453	6143.56
486.657	5983.82
486.861	6061.65
487.065	5893.71
487.269	6047.31
487.473	5901.9
487.677	5856.85
487.881	6071.89
488.085	5957.2
488.289	5942.86
488.493	5959.25
488.697	6030.93
488.901	6004.3
489.105	6172.24
489.309	6061.65
489.512	5949.01
489.716	6075.98
489.92	6082.13
490.124	5985.87
490.328	6080.08
490.531	6213.2
490.735	6256.2
490.939	6207.05
491.143	6024.78
491.346	6311.5
491.55	6338.12
491.754	6354.51
491.958	6323.79
492.161	6264.4
492.365	6319.69
492.569	6278.73
492.772	6270.54
492.976	6508.1
493.18	6426.18
493.383	6434.38
493.587	6643.27
493.79	6651.46
493.994	6655.56
494.197	6676.04
494.401	6846.02
494.605	6819.39
494.808	6872.64
495.012	6798.91
495.215	6839.87
495.419	7003.71
495.622	6948.42
495.825	6964.8
496.029	7042.62
496.232	7026.24
496.436	7319.1
496.639	7415.35
496.843	7247.42
497.046	7425.59
497.249	7523.9
497.453	7638.58
497.656	7644.73
497.859	7595.57
498.063	7777.84
498.266	8115.76
498.469	8019.5
498.673	7972.4
498.876	8347.18
499.079	8371.75
499.282	8328.75
499.485	8551.98
499.689	8468.01
499.892	8699.43
500.095	8637.99
500.298	8912.42
500.501	8728.1
500.705	9066.02
500.908	9279.01
501.111	9270.81
501.314	9356.83
501.517	9395.74
501.72	9565.72
501.923	9604.63
502.126	9745.94
502.329	10001.94
502.532	9954.83
502.735	9838.1
502.938	10184.21
503.141	10176.02
503.344	10432.01
503.547	10409.48
503.75	10604.04
503.953	10821.13
504.156	10913.28
504.359	11070.98
504.562	11230.72
504.765	11337.21
504.968	11566.59
505.17	11830.77
505.373	11566.59
505.576	12047.86
505.779	12031.48
505.982	12058.1
506.185	12336.62
506.387	12350.96
506.59	12723.69
506.793	12973.54
506.996	12908.01
507.198	13358.56
507.401	13108.71
507.604	13333.98
507.807	13809.11
508.009	13721.05
508.212	13882.84
508.415	14040.53
508.617	14294.48
508.82	14452.17
509.022	14439.89
509.225	14777.8
509.428	14710.22
509.63	14990.79
509.833	15156.68
510.035	15404.48
510.238	15437.25
510.44	15902.14
510.643	16088.5
510.845	15971.77
511.048	16137.65
511.25	16534.96
511.453	16594.35
511.655	17032.61
511.858	16967.08
512.06	17024.42
512.262	17395.11
512.465	17331.62
512.667	17651.1
512.87	17991.06
513.072	18027.93
513.274	18333.07
513.477	18699.66
513.679	18328.98
513.881	19121.54
514.084	19219.85
514.286	19336.58
514.488	19598.72
514.69	19977.59
514.893	20086.14
515.095	19828.09
515.297	20526.45
515.499	20583.79
515.701	20729.2
515.904	20913.52
516.106	21085.54
516.308	21585.25
516.51	21882.2
516.712	21917.02
516.914	22058.33
517.116	22797.65
517.318	22766.93
517.52	22603.09
517.722	22998.35
517.925	23315.78
518.127	23448.9
518.329	23758.14
518.531	23811.39
518.733	24347.96
518.935	24347.96
519.136	24722.74
519.338	24970.54
519.54	25376.04
519.742	25398.57
519.944	25359.66
520.146	25871.65
520.348	26053.92
520.55	26123.55
520.752	26340.63
520.954	27045.13
521.155	26897.68
521.357	27211.02
521.559	27540.74
521.761	28095.74
521.963	27632.9
522.164	28005.63
522.366	28142.85
522.568	28304.63
522.77	28671.22
522.971	28865.78
523.173	29138.16
523.375	29449.45
523.576	29539.56
523.778	29363.43
523.98	29963.49
524.181	30082.27
524.383	29973.73
524.584	30278.88
524.786	30655.7
524.988	30307.55
525.189	30692.57
525.391	31345.87
525.592	31532.23
525.794	31884.48
525.995	31462.6
526.197	31618.25
526.398	31796.42
526.6	31990.98
526.801	32007.36
527.003	32675
527.204	32332.99
527.406	32566.46
527.607	33006.77
527.808	32746.68
528.01	32511.16
528.211	32826.55
528.412	33465.52
528.614	33428.65
528.815	33797.29
529.016	33744.04
529.218	33381.55
529.419	33340.59
529.62	33404.08
529.822	33776.81
530.023	33813.67
530.224	33899.69
530.425	34043.04
530.626	33672.36
530.828	33719.46
531.029	34718.87
531.23	34157.73
531.431	34010.28
531.632	34243.74
531.833	34524.32
532.035	34452.64
532.236	34684.06
532.437	34751.64
532.638	34514.08
532.839	34608.28
533.04	34706.59
533.241	34505.88
533.442	35411.09
533.643	34907.29
533.844	34735.26
534.045	35187.86
534.246	34522.27
534.447	35157.14
534.648	34772.12
534.849	34792.6
535.05	34747.54
535.251	34999.44
535.451	34933.91
535.652	35202.19
535.853	35062.93
536.054	35478.67
536.255	35388.56
536.456	34710.68
536.657	35425.42
536.857	34903.19
537.058	34890.9
537.259	34878.61
537.46	34929.81
537.66	35218.58
537.861	35239.06
538.062	35189.91
538.263	35130.51
538.463	35124.37
538.664	35112.08
538.865	35331.22
539.065	35484.81
539.266	34761.88
539.466	35474.57
539.667	34942.1
539.868	35433.61
540.068	35284.11
540.269	35447.95
540.469	35656.84
540.67	35288.21
540.87	35245.2
541.071	35185.81
541.271	35251.34
541.472	34886.81
541.672	35050.64
541.873	34968.73
542.073	34938.01
542.274	35372.17
542.474	35263.63
542.675	34837.66
542.875	35269.78
543.075	35247.25
543.276	34505.88
543.476	35327.12
543.676	34806.94
543.877	35095.7
544.077	35243.15
544.277	35185.81
544.478	34753.69
544.678	35247.25
544.878	34892.95
545.078	34964.63
545.279	34899.09
545.479	34708.63
545.679	35165.33
545.879	35200.15
546.079	34706.59
546.28	35210.39
546.48	34776.22
546.68	35017.88
546.88	35206.29
547.08	34700.44
547.28	35128.47
547.48	34636.95
547.68	34968.73
547.88	34878.61
548.081	35349.65
548.281	35337.36
548.481	34837.66
548.681	34960.53
548.881	34878.61
549.081	34589.85
549.28	34851.99
549.48	35017.88
549.68	34735.26
549.88	34995.35
550.08	34935.96
550.28	34827.42
550.48	34692.25
550.68	34819.22
550.88	34780.31
551.08	35036.31
551.279	35202.19
551.479	34827.42
551.679	34966.68
551.879	34862.23
552.079	35194
552.278	34714.78
552.478	34868.37
552.678	34550.94
552.878	34921.62
553.077	35126.42
553.277	33985.7
553.477	34978.96
553.676	34571.42
553.876	34708.63
554.076	34483.36
554.275	34827.42
554.475	34106.53
554.674	34671.77
554.874	34833.56
555.074	34337.95
555.273	34790.55
555.473	34606.23
555.672	34176.16
555.872	34403.49
556.071	34608.28
556.271	34622.62
556.47	34157.73
556.67	33791.14
556.869	34104.48
557.068	34448.54
557.268	33985.7
557.467	33776.81
557.667	34137.25
557.866	34038.95
558.065	33760.42
558.265	33758.38
558.464	33811.62
558.663	33844.39
558.863	33604.78
559.062	34262.18
559.261	33389.74
559.461	34028.71
559.66	33326.25
559.859	34088.1
560.058	33049.78
560.258	33375.41
560.457	33168.56
560.656	33340.59
560.855	32998.58
561.054	33156.27
561.253	33014.96
561.453	33254.58
561.652	33297.58
561.851	33330.35
562.05	32887.99
562.249	32896.18
562.448	32822.45
562.647	32967.86
562.846	32924.85
563.045	32767.16
563.244	32597.18
563.443	33232.05
563.642	32218.3
563.841	32355.52
564.04	32302.27
564.239	32306.37
564.438	32222.4
564.637	32494.78
564.836	32355.52
565.035	31923.4
565.234	32830.65
565.432	32122.05
565.631	31853.76
565.83	31859.91
566.029	31640.78
566.228	31780.04
566.427	31931.59
566.625	31659.21
566.824	31243.47
567.023	31685.83
567.222	31110.35
567.42	31737.03
567.619	31313.1
567.818	31288.53
568.016	31024.34
568.215	31192.27
568.414	30962.9
568.612	31313.1
568.811	30758.1
569.01	30827.73
569.208	30524.63
569.407	30557.4
569.605	30100.7
569.804	30993.62
570.002	30395.61
570.201	30551.26
570.4	30264.54
570.598	30004.45
570.797	29975.78
570.995	30080.22
571.193	30029.02
571.392	30156
571.59	29670.63
571.789	29791.46
571.987	29523.18
572.186	29727.97
572.384	29043.95
572.582	29701.35
572.781	29500.65
572.979	28988.66
573.177	29066.48
573.376	29170.93
573.574	28710.13
573.772	28927.22
573.971	28550.39
574.169	28646.65
574.367	28450.04
574.565	28470.52
574.763	28458.23
574.962	28478.71
575.16	27987.2
575.358	28122.37
575.556	27899.14
575.754	28239.1
575.952	27598.09
576.151	28222.72
576.349	27491.59
576.547	27761.92
576.745	27389.19
576.943	27800.83
577.141	27059.47
577.339	27532.55
577.537	27311.37
577.735	27335.95
577.933	27149.58
578.131	27106.57
578.329	26869.01
578.527	26905.87
578.725	26893.58
578.923	26658.07
579.121	26672.4
579.319	26199.32
579.516	26541.33
579.714	26545.43
579.912	26305.82
580.11	26303.77
580.308	26299.67
580.506	26309.91
580.704	25636.13
580.901	26160.41
581.099	25793.83
581.297	25736.48
581.495	25615.65
581.692	25558.31
581.89	25470.25
582.088	25611.56
582.285	25320.74
582.483	25543.97
582.681	25439.53
582.878	25261.35
583.076	24868.14
583.274	25165.1
583.471	24638.77
583.669	24966.45
583.866	24810.8
584.064	25019.69
584.262	24405.3
584.459	24741.17
584.657	24454.45
584.854	24948.01
585.052	24304.95
585.249	24227.13
585.447	24290.62
585.644	24112.44
585.841	24145.21
586.039	24368.44
586.236	23659.84
586.434	23934.27
586.631	23647.55
586.828	23856.45
587.026	23743.81
587.223	23588.16
587.42	23534.92
587.618	23668.03
587.815	22990.16
588.012	23364.93
588.21	23166.28
588.407	23459.14
588.604	23072.07
588.801	23197
588.999	23383.37
589.196	22838.61
589.393	22914.38
589.59	22578.51
589.787	22662.48
589.984	22695.25
590.182	22472.02
590.379	22723.92
590.576	22394.2
590.773	22429.01
590.97	22388.05
591.167	22281.56
591.364	21826.91
591.561	22549.84
591.758	22033.75
591.955	21998.94
592.152	22127.96
592.349	21970.27
592.546	21779.81
592.743	21722.46
592.94	21382.5
593.137	21654.88
593.334	21699.94
593.531	21146.98
593.727	21556.58
593.924	21284.2
594.121	21497.19
594.318	21276.01
594.515	20888.94
594.712	21106.02
594.908	20917.61
595.105	21077.35
595.302	20921.71
595.499	20741.49
595.696	20841.84
595.892	20655.47
596.089	20733.29
596.286	20766.06
596.482	20567.41
596.679	20809.07
596.876	20424.05
597.072	20673.9
597.269	20583.79
597.466	20272.5
597.662	19987.83
597.859	20469.11
598.055	20166.01
598.252	19602.82
598.448	19901.82
598.645	19916.15
598.841	19899.77
599.038	19836.28
599.234	19656.06
599.431	19686.78
599.627	19836.28
599.824	19584.38
600.02	19393.92
600.217	19301.76
600.413	19416.45
600.609	19250.56
600.806	19289.48
601.002	19324.29
601.198	19047.82
601.395	19049.86
601.591	19084.68
601.787	18931.08
601.984	18929.03
602.18	19086.73
602.376	18654.61
602.572	18627.98
602.769	18576.78
602.965	18757
603.161	18718.09
603.357	18580.88
603.553	18435.47
603.75	18376.08
603.946	18138.52
604.142	18406.8
604.338	18040.22
604.534	18335.12
604.73	17878.43
604.926	18148.76
605.122	18064.79
605.318	17802.65
605.514	17720.73
605.71	17825.18
605.906	17618.33
606.102	17452.45
606.298	17726.88
606.494	17661.34
606.69	17489.31
606.886	17595.81
607.082	17245.6
607.278	17096.1
607.474	16936.36
607.67	17325.47
607.866	17022.37
608.062	17354.15
608.257	17069.48
608.453	17180.07
608.649	17186.21
608.845	16729.52
609.041	16883.11
609.236	16823.72
609.432	16885.16
609.628	17012.14
609.824	16743.85
610.019	16625.07
610.215	16702.89
610.411	16369.07
610.606	16305.59
610.802	16657.84
610.998	16510.38
611.193	16334.26
611.389	16471.47
611.584	16092.6
611.78	15965.62
611.976	16340.4
612.171	16014.77
612.367	16117.17
612.562	15994.29
612.758	15596.99
612.953	16178.61
613.149	16133.56
613.344	15734.2
613.539	16151.99
613.735	15840.7
613.93	15728.06
614.126	15580.6
614.321	15744.44
614.517	15676.86
614.712	15582.65
614.907	15574.46
615.103	15658.43
615.298	15525.31
615.493	15766.97
615.688	15277.51
615.884	15648.19
616.079	15334.85
616.274	15265.22
616.47	15543.74
616.665	15300.03
616.86	15345.09
617.055	15398.34
617.25	14992.84
617.445	15261.12
617.641	14579.15
617.836	15146.44
618.031	14978.5
618.226	14951.88
618.421	14902.73
618.616	15095.24
618.811	14863.82
619.006	15031.75
619.201	14464.46
619.396	14673.35
619.591	14312.91
619.786	14681.55
619.981	14290.38
620.176	14530
620.371	14368.21
620.566	14243.28
620.761	14235.09
620.956	14108.12
621.151	13866.46
621.346	14024.15
621.541	13745.62
621.735	13960.66
621.93	13598.17
622.125	13471.2
622.32	13667.8
622.515	13710.81
622.709	13376.99
622.904	13290.98
623.099	13266.4
623.294	13405.66
623.488	13155.81
623.683	13155.81
623.878	13073.89
624.072	13135.33
624.267	13043.17
624.462	12785.13
624.656	12535.28
624.851	12666.35
625.046	12600.81
625.24	12729.83
625.435	12461.55
625.629	12348.91
625.824	12275.18
626.018	12316.14
626.213	12060.15
626.407	12121.59
626.602	12002.8
626.796	12135.92
626.991	12103.15
627.185	11816.44
627.38	12066.29
627.574	11654.65
627.768	11654.65
627.963	11572.73
628.157	11552.25
628.352	11589.11
628.546	11439.61
628.74	11359.74
628.935	11015.68
629.129	11478.52
629.323	11140.61
629.517	11191.81
629.712	11175.42
629.906	11208.19
630.1	10855.94
630.294	10954.24
630.489	10716.68
630.683	10716.68
630.877	10589.71
631.071	10692.1
631.265	10784.26
631.459	10456.59
631.653	10436.11
631.848	10571.27
632.042	10219.02
632.236	10470.92
632.43	10376.72
632.624	10268.17
632.818	10309.13
633.012	10051.09
633.206	10110.48
633.4	10057.23
633.594	9729.56
633.788	9977.36
633.982	9960.98
634.176	10001.94
634.369	9948.69
634.563	9717.27
634.757	9811.48
634.951	9545.24
635.145	9571.86
635.339	9535
635.533	9596.44
635.726	9510.43
635.92	9238.05
636.114	9223.71
636.308	9346.59
636.501	9182.75
636.695	9137.7
636.889	8965.67
637.083	9031.2
637.276	8844.84
637.47	8926.75
637.664	8810.02
637.857	8773.16
638.051	8654.37
638.244	8834.6
638.438	8805.92
638.632	8574.5
638.825	8664.61
639.019	8502.82
639.212	8617.51
639.406	8369.71
639.599	8279.6
639.793	8365.61
639.986	8068.66
640.18	8379.95
640.373	8226.35
640.567	7986.74
640.76	8226.35
640.954	8044.08
641.147	7943.73
641.34	7927.35
641.534	8005.17
641.727	7831.09
641.92	7697.97
642.114	7743.03
642.307	7618.1
642.5	7941.68
642.694	7560.76
642.887	7562.81
643.08	7470.65
643.273	7620.15
643.467	7523.9
643.66	7493.18
643.853	7376.44
644.046	7331.39
644.239	7304.76
644.432	7392.83
644.626	7155.26
644.819	7097.92
645.012	7151.17
645.205	7222.84
645.398	7032.38
645.591	6905.41
645.784	6960.7
645.977	6960.7
646.17	6880.83
646.363	6751.81
646.556	6735.43
646.749	6704.71
646.942	6721.09
647.135	6745.67
647.328	6524.49
647.521	6614.6
647.714	6340.17
647.907	6504.01
648.099	6549.06
648.292	6532.68
648.485	6411.85
648.678	6422.09
648.871	6354.51
649.064	6440.52
649.256	5996.11
649.449	6182.48
649.642	6055.5
649.835	6047.31
650.027	6254.16
650.22	6118.99
650.413	6002.26
650.605	6082.13
650.798	6018.64
650.991	5922.38
651.183	5959.25
651.376	5813.84
651.568	5813.84
651.761	5803.6
651.954	5772.88
652.146	5652.05
652.339	5703.25
652.531	5625.43
652.724	5629.52
652.916	5523.03
653.109	5588.57
653.301	5369.43
653.494	5586.52
653.686	5254.75
653.879	5557.85
654.071	5361.24
654.263	5310.04
654.456	5254.75
654.648	5506.65
654.84	5138.01
655.033	5142.11
655.225	5344.86
655.417	5361.24
655.61	4994.65
655.802	5170.78
655.994	5086.81
656.186	5195.36
656.379	5025.37
656.571	4959.84
656.763	4904.54
656.955	4949.6
657.148	4943.46
657.34	4804.19
657.532	4685.41
657.724	4679.27
657.916	4845.15
658.108	4931.17
658.3	4808.29
658.492	4726.37
658.684	4626.02
658.876	4845.15
659.068	4652.64
659.26	4562.53
659.452	4494.95
659.644	4585.06
659.836	4511.33
660.028	4632.16
660.22	4462.18
660.412	4431.46
660.604	4308.58
660.796	4486.76
660.988	4392.55
661.18	4202.09
661.372	4251.24
661.563	4378.22
661.755	4234.86
661.947	4316.78
662.139	4238.95
662.331	4169.32
662.522	4154.99
662.714	4079.21
662.906	4046.44
663.097	4138.6
663.289	3993.2
663.481	4017.77
663.673	3991.15
663.864	4058.73
664.056	3874.42
664.247	3921.52
664.439	3960.43
664.631	3911.28
664.822	3825.26
665.014	3681.91
665.205	3827.31
665.397	3804.78
665.588	3616.37
665.78	3673.71
665.971	3706.48
666.163	3819.12
666.354	3630.71
666.546	3735.15
666.737	3749.49
666.929	3577.46
667.12	3677.81
667.311	3726.96
667.503	3583.6
667.694	3597.94
667.885	3520.12
668.077	3575.41
668.268	3516.02
668.459	3534.45
668.651	3376.76
668.842	3395.19
669.033	3401.33
669.224	3405.43
669.416	3300.98
669.607	3341.94
669.798	3436.15
669.989	3411.57
670.18	3323.51
670.371	3382.9
670.563	3343.99
670.754	3358.33
670.945	3161.72
671.136	3198.59
671.327	3098.24
671.518	3253.88
671.709	3063.42
671.9	3026.56
672.091	3198.59
672.282	3180.15
672.473	3133.05
672.664	3210.87
672.855	3090.04
673.046	3196.54
673.237	3083.9
673.428	3124.86
673.619	3065.47
673.809	3059.32
674	3040.89
674.191	3042.94
674.382	2997.88
674.573	3006.08
674.764	3083.9
674.954	3024.51
675.145	3034.75
675.336	2907.77
675.527	3020.41
675.717	3090.04
675.908	3042.94
676.099	2958.97
676.289	2901.63
676.48	2856.58
676.671	2905.73
676.861	2977.41
677.052	2827.9
677.243	2723.46
677.433	2838.14
677.624	2827.9
677.814	2856.58
678.005	2823.81
678.195	2905.73
678.386	2905.73
678.576	2784.9
678.767	2811.52
678.957	2788.99
679.148	2813.57
679.338	2760.32
679.529	2809.47
679.719	2672.26
679.909	2711.17
680.1	2928.25
680.29	2809.47
680.481	2805.38
680.671	2754.18
680.861	2627.2
681.052	2901.63
681.242	2623.11
681.432	2797.18
681.622	2768.51
681.813	2670.21
682.003	2561.67
682.193	2702.98
682.383	2719.36
682.573	2788.99
682.764	2670.21
682.954	2659.97
683.144	2735.74
683.334	2578.05
683.524	2700.93
683.714	2676.35
683.904	2655.87
684.094	2623.11
684.284	2649.73
684.474	2680.45
684.664	2547.33
684.854	2645.63
685.044	2614.91
685.234	2582.15
685.424	2623.11
685.614	2702.98
685.804	2557.57
685.994	2477.7
686.184	2569.86
686.374	2608.77
686.564	2483.84
686.753	2569.86
686.943	2573.96
687.133	2537.09
687.323	2412.17
687.513	2561.67
687.702	2492.04
687.892	2627.2
688.082	2555.52
688.272	2612.87
688.461	2473.6
688.651	2623.11
688.841	2432.65
689.03	2561.67
689.22	2586.24
689.41	2541.19
689.599	2504.32
689.789	2571.91
689.979	2481.8
690.168	2348.68
690.358	2487.94
690.547	2508.42
690.737	2410.12
690.926	2385.54
691.116	2430.6
691.305	2487.94
691.495	2399.88
691.684	2430.6
691.874	2522.76
692.063	2317.96
692.252	2442.89
692.442	2451.08
692.631	2324.1
692.82	2479.75
693.01	2483.84
693.199	2588.29
693.388	2489.99
693.578	2428.55
693.767	2526.85
693.956	2449.03
694.146	2399.88
694.335	2432.65
694.524	2502.28
694.713	2485.89
694.902	2432.65
695.092	2485.89
695.281	2444.93
695.47	2371.21
695.659	2426.5
695.848	2375.3
696.037	2395.78
696.226	2406.02
696.415	2471.56
696.604	2377.35
696.793	2430.6
696.982	2434.69
697.171	2492.04
697.36	2459.27
697.549	2424.45
697.738	2389.64
697.927	2457.22
698.116	2475.65
698.305	2352.77
698.494	2440.84
698.683	2489.99
698.872	2506.37
699.061	2363.01
699.25	2408.07
699.438	2444.93
699.627	2416.26
699.816	2424.45
700.005	2379.4
700.193	2432.65
700.382	2418.31
700.571	2342.53
700.76	2348.68
700.948	2416.26
701.137	2317.96
701.326	2295.43
701.514	2334.34
701.703	2352.77
701.892	2336.39
702.08	2348.68
702.269	2520.71
702.457	2446.98
702.646	2356.87
702.834	2328.2
703.023	2346.63
703.212	2422.41
703.4	2399.88
703.589	2410.12
703.777	2334.34
703.965	2274.95
704.154	2399.88
704.342	2287.24
704.531	2336.39
704.719	2291.34
704.907	2205.32
705.096	2309.77
705.284	2301.58
705.472	2420.36
705.661	2311.82
705.849	2270.86
706.037	2190.99
706.226	2305.67
706.414	2252.42
706.602	2277
706.79	2264.71
706.979	2078.35
707.167	2303.62
707.355	2211.46
707.543	2193.03
707.731	2244.23
707.919	2205.32
708.107	2328.2
708.296	2190.99
708.484	2217.61
708.672	2260.62
708.86	2045.58
709.048	2182.79
709.236	2258.57
709.424	2172.55
709.612	2168.46
709.8	2168.46
709.988	2184.84
710.176	2094.73
710.364	2119.31
710.551	2166.41
710.739	2150.03
710.927	2145.93
711.115	2107.02
711.303	2145.93
711.491	2045.58
711.679	2119.31
711.866	2096.78
712.054	2082.44
712.242	2090.63
712.43	2111.11
712.617	2152.07
712.805	2109.07
712.993	2111.11
713.181	2082.44
713.368	2045.58
713.556	2045.58
713.744	2004.62
713.931	2061.96
714.119	2143.88
714.306	2047.63
714.494	2135.69
714.682	2012.81
714.869	1975.95
715.057	2043.53
715.244	1877.65
715.432	2012.81
715.619	1947.28
715.807	1912.46
715.994	1996.43
716.182	1906.32
716.369	1920.65
716.556	1939.09
716.744	1996.43
716.931	1941.13
717.119	1998.48
717.306	1877.65
717.493	1877.65
717.681	1863.31
717.868	1928.85
718.055	1924.75
718.242	1961.61
718.43	2004.62
718.617	1887.89
718.804	1918.61
718.991	1902.22
719.179	1867.41
719.366	1855.12
719.553	1904.27
719.74	1742.48
719.927	1830.54
720.114	1881.74
720.301	1857.17
720.488	1832.59
720.676	1732.24
720.863	1724.05
721.05	1810.06
721.237	1840.78
721.424	1744.53
721.611	1818.25
721.798	1793.68
721.985	1730.19
722.172	1672.85
722.358	1832.59
722.545	1668.75
722.732	1711.76
722.919	1719.95
723.106	1625.75
723.293	1730.19
723.48	1705.62
723.667	1793.68
723.853	1654.42
724.04	1666.71
724.227	1760.91
724.414	1709.71
724.6	1681.04
724.787	1685.14
724.974	1742.48
725.161	1750.67
725.347	1619.6
725.534	1650.32
725.72	1629.84
725.907	1656.47
726.094	1588.88
726.28	1719.95
726.467	1623.7
726.653	1672.85
726.84	1666.71
727.027	1668.75
727.213	1541.78
727.4	1537.68
727.586	1615.51
727.773	1668.75
727.959	1601.17
728.145	1635.99
728.332	1697.42
728.518	1595.03
728.705	1576.59
728.891	1490.58
729.077	1560.21
729.264	1519.25
729.45	1506.96
729.636	1527.44
729.823	1529.49
730.009	1535.64
730.195	1582.74
730.382	1527.44
730.568	1560.21
730.754	1511.06
730.94	1554.07
731.126	1574.55
731.313	1506.96
731.499	1498.77
731.685	1578.64
731.871	1449.62
732.057	1552.02
732.243	1427.09
732.429	1427.09
732.615	1484.44
732.801	1560.21
732.987	1476.24
733.173	1400.47
733.359	1406.61
733.545	1418.9
733.731	1504.92
733.917	1449.62
734.103	1515.16
734.289	1509.01
734.475	1494.68
734.661	1476.24
734.847	1449.62
735.033	1351.32
735.219	1386.13
735.404	1461.91
735.59	1353.37
735.776	1443.48
735.962	1390.23
736.148	1359.51
736.333	1336.98
736.519	1443.48
736.705	1287.83
736.89	1341.08
737.076	1304.21
737.262	1312.41
737.447	1302.17
737.633	1445.52
737.819	1326.74
738.004	1349.27
738.19	1341.08
738.375	1353.37
738.561	1336.98
738.747	1420.95
738.932	1443.48
739.118	1296.02
739.303	1345.17
739.489	1293.97
739.674	1377.94
739.859	1287.83
740.045	1355.41
740.23	1336.98
740.416	1332.89
740.601	1250.97
740.786	1298.07
740.972	1300.12
741.157	1240.73
741.342	1199.77
741.528	1224.34
741.713	1220.25
741.898	1197.72
742.084	1185.43
742.269	1269.4
742.454	1222.3
742.639	1152.67
742.824	1142.43
743.01	1269.4
743.195	1277.59
743.38	1177.24
743.565	1234.58
743.75	1136.28
743.935	1226.39
744.12	1263.26
744.305	1167
744.49	1115.8
744.675	1199.77
744.86	1111.71
745.045	1117.85
745.23	1210.01
745.415	1255.06
745.6	1187.48
745.785	1169.05
745.97	1105.56
746.155	1136.28
746.34	1031.83
746.525	1056.41
746.71	1111.71
746.895	1099.42
747.079	1035.93
747.264	1160.86
747.449	1146.52
747.634	1023.64
747.819	1070.75
748.003	1040.03
748.188	1072.79
748.373	1078.94
748.557	1068.7
748.742	966.3
748.927	958.11
749.111	1023.64
749.296	982.68
749.481	1033.88
749.665	1062.55
749.85	1046.17
750.034	1042.07
750.219	1035.93
750.404	898.72
750.588	945.82
750.773	933.53
750.957	966.3
751.141	968.35
751.326	915.1
751.51	966.3
751.695	861.85
751.879	962.2
752.064	1005.21
752.248	851.61
752.432	935.58
752.617	865.95
752.801	872.09
752.985	861.85
753.17	878.24
753.354	876.19
753.538	835.23
753.722	853.66
753.907	812.7
754.091	874.14
754.275	861.85
754.459	863.9
754.643	777.89
754.828	863.9
755.012	824.99
755.196	814.75
755.38	763.55
755.564	724.64
755.748	837.28
755.932	798.37
756.116	820.89
756.3	863.9
756.484	810.65
756.668	765.6
756.852	808.61
757.036	685.73
757.22	759.46
757.404	808.61
757.588	753.31
757.772	745.12
757.956	659.1
758.14	743.07
758.323	794.27
758.507	728.74
758.691	790.17
758.875	781.98
759.059	726.69
759.242	722.59
759.426	720.54
759.61	753.31
759.794	683.68
759.977	665.25
760.161	681.63
760.345	716.45
760.528	675.49
760.712	628.39
760.895	655.01
761.079	714.4
761.263	728.74
761.446	642.72
761.63	640.67
761.813	693.92
761.997	622.24
762.18	624.29
762.364	691.87
762.547	609.95
762.731	665.25
762.914	679.58
763.098	677.54
763.281	573.09
763.464	636.58
763.648	620.19
763.831	614.05
764.015	603.81
764.198	685.73
764.381	700.06
764.564	560.8
764.748	687.78
764.931	655.01
765.114	683.68
765.297	599.71
765.481	640.67
765.664	716.45
765.847	585.38
766.03	595.62
766.213	618.15
766.397	556.71
766.58	573.09
766.763	601.76
766.946	575.14
767.129	599.71
767.312	581.28
767.495	597.67
767.678	581.28
767.861	657.06
768.044	581.28
768.227	566.95
768.41	548.51
768.593	583.33
768.776	605.86
768.959	552.61
769.142	542.37
769.324	491.17
769.507	599.71
769.69	532.13
769.873	482.98
770.056	534.18
770.239	532.13
770.421	548.51
770.604	515.75
770.787	538.27
770.97	528.03
771.152	550.56
771.335	517.79
771.518	489.12
771.7	478.88
771.883	507.55
772.066	437.92
772.248	581.28
772.431	556.71
772.613	485.03
772.796	583.33
772.978	448.16
773.161	546.47
773.343	444.07
773.526	439.97
773.708	517.79
773.891	493.22
774.073	525.99
774.256	517.79
774.438	558.75
774.621	532.13
774.803	478.88
774.985	442.02
775.168	446.12
775.35	437.92
775.532	528.03
775.715	388.77
775.897	509.6
776.079	521.89
776.261	478.88
776.444	462.5
776.626	444.07
776.808	442.02
776.99	368.29
777.173	452.26
777.355	495.27
777.537	446.12
777.719	421.54
777.901	437.92
778.083	468.64
778.265	394.92
778.447	458.4
778.629	427.68
778.811	407.2
778.993	370.34
779.175	378.53
779.357	394.92
779.539	374.44
779.721	423.59
779.903	343.72
780.085	390.82
780.267	351.91
780.449	419.49
780.631	415.4
780.812	423.59
780.994	429.73
781.176	368.29
781.358	276.13
781.54	329.38
781.721	321.19
781.903	298.66
782.085	399.01
782.267	347.81
782.448	298.66
782.63	276.13
782.812	376.48
782.993	349.86
783.175	327.33
783.357	286.37
783.538	364.2
783.72	325.29
783.901	310.95
784.083	288.42
784.264	331.43
784.446	339.62
784.627	284.33
784.809	300.71
784.99	294.57
785.172	296.61
785.353	282.28
785.535	241.32
785.716	259.75
785.897	317.09
786.079	382.63
786.26	276.13
786.441	360.1
786.623	259.75
786.804	294.57
786.985	274.09
787.167	294.57
787.348	171.69
787.529	310.95
787.71	214.7
787.891	276.13
788.073	292.52
788.254	325.29
788.435	190.12
788.616	310.95
788.797	249.51
788.978	280.23
789.159	224.94
789.34	300.71
789.522	245.41
789.703	218.79
789.884	218.79
790.065	247.46
790.246	304.81
790.427	263.85
790.607	243.37
790.788	212.65
790.969	241.32
791.15	249.51
791.331	235.18
791.512	212.65
791.693	177.83
791.874	208.55
792.054	216.74
792.235	237.22
792.416	210.6
792.597	226.98
792.778	163.5
792.958	206.5
793.139	235.18
793.32	212.65
793.5	206.5
793.681	188.07
793.862	229.03
794.042	204.46
794.223	284.33
794.404	229.03
794.584	216.74
794.765	218.79
794.945	237.22
795.126	216.74
795.306	161.45
795.487	315.05
795.667	196.26
795.848	208.55
796.028	204.46
796.209	163.5
796.389	226.98
796.57	130.73
796.75	179.88
796.93	186.02
797.111	212.65
797.291	229.03
797.471	183.98
797.652	181.93
797.832	130.73
798.012	161.45
798.192	132.78
798.373	208.55
798.553	157.35
798.733	79.53
798.913	95.91
799.093	161.45
799.274	177.83
799.454	108.2
799.634	136.87
799.814	224.94
799.994	165.54
800.174	198.31
800.354	196.26
800.534	194.22
800.714	177.83
800.894	161.45
801.074	128.68
801.254	124.58
801.434	77.48
801.614	181.93
801.794	153.26
801.974	392.87
802.154	138.92
802.334	143.02
802.514	186.02
802.693	102.06
802.873	173.74
803.053	159.4
803.233	106.15
803.413	210.6
803.592	134.82
803.772	77.48
803.952	106.15
804.131	161.45
804.311	79.53
804.491	194.22
804.67	91.82
804.85	175.78
805.03	126.63
805.209	132.78
805.389	106.15
805.568	118.44
805.748	104.11
805.928	143.02
806.107	138.92
806.287	196.26
806.466	140.97
806.646	153.26
806.825	181.93
807.004	140.97
807.184	91.82
807.363	93.87
807.543	188.07
807.722	104.11
807.901	114.34
808.081	194.22
808.26	155.3
808.439	147.11
808.619	153.26
808.798	149.16
808.977	128.68
809.156	155.3
809.336	157.35
809.515	100.01
809.694	118.44
809.873	169.64
810.052	126.63
810.231	83.63
810.411	165.54
810.59	128.68
810.769	106.15
810.948	95.91
811.127	120.49
811.306	122.54
811.485	71.34
811.664	145.06
811.843	32.43
812.022	87.72
812.201	108.2
812.38	13.99
812.559	18.09
812.737	95.91
812.916	57
813.095	122.54
813.274	67.24
813.453	79.53
813.632	145.06
813.811	32.43
813.989	32.43
814.168	57
814.347	44.71
814.526	65.19
814.704	91.82
814.883	159.4
815.062	73.39
815.24	42.67
815.419	44.71
815.598	132.78
815.776	112.3
815.955	59.05
816.133	79.53
816.312	124.58
816.49	67.24
816.669	52.91
816.847	118.44
817.026	77.48
817.204	40.62
817.383	157.35
817.561	54.95
817.74	128.68
817.918	61.1
818.097	-2.39
818.275	20.14
818.453	165.54
818.632	59.05
818.81	69.29
818.988	61.1
819.167	71.34
819.345	112.3
819.523	52.91
819.701	106.15
819.879	116.39
820.058	106.15
820.236	16.04
820.414	65.19
820.592	87.72
820.77	83.63
820.948	100.01
821.127	108.2
821.305	77.48
821.483	5.8
821.661	22.19
821.839	71.34
822.017	79.53
822.195	61.1
822.373	65.19
822.551	38.57
822.729	3.75
822.907	73.39
823.085	71.34
823.262	13.99
823.44	32.43
823.618	79.53
823.796	89.77
823.974	20.14
824.152	87.72
824.329	61.1
824.507	91.82
824.685	79.53
824.863	95.91
825.04	75.43
825.218	40.62
825.396	63.15
825.574	54.95
825.751	16.04
825.929	93.87
826.107	67.24
826.284	95.91
826.462	128.68
826.639	36.52
826.817	57
826.994	108.2
827.172	163.5
827.349	-39.25
827.527	46.76
827.704	40.62
827.882	-20.82
828.059	36.52
828.237	3.75
828.414	22.19
828.591	20.14
828.769	22.19
828.946	24.23
829.124	93.87
829.301	13.99
829.478	48.81
829.655	118.44
829.833	122.54
830.01	42.67
830.187	24.23
830.364	20.14
830.542	13.99
830.719	38.57
830.896	65.19
831.073	48.81
831.25	102.06
831.427	30.38
831.604	63.15
831.782	44.71
831.959	54.95
832.136	50.86
832.313	87.72
832.49	24.23
832.667	85.67
832.844	69.29
833.021	112.3
833.198	40.62
833.374	26.28
833.551	75.43
833.728	40.62
833.905	75.43
834.082	95.91
834.259	69.29
834.436	18.09
834.612	67.24
834.789	79.53
834.966	54.95
835.143	-0.34
835.319	69.29
835.496	67.24
835.673	71.34
835.85	54.95
836.026	34.47
836.203	67.24
836.38	79.53
836.556	81.58
836.733	22.19
836.909	40.62
837.086	28.33
837.262	52.91
837.439	9.9
837.616	52.91
837.792	13.99
837.968	50.86
838.145	-8.53
838.321	11.95
838.498	44.71
838.674	20.14
838.851	91.82
839.027	-22.87
839.203	65.19
839.38	48.81
839.556	46.76
839.732	83.63
839.909	32.43
840.085	46.76
840.261	-4.44
840.437	50.86
840.614	13.99
840.79	50.86
840.966	1.71
841.142	40.62
841.318	38.57
841.494	102.06
841.671	28.33
841.847	104.11
842.023	52.91
842.199	-2.39
842.375	26.28
842.551	52.91
842.727	34.47
842.903	-26.96
843.079	7.85
843.255	89.77
843.431	24.23
843.607	-2.39
843.783	32.43
843.959	71.34
844.134	3.75
844.31	108.2
844.486	54.95
844.662	-49.49
844.838	87.72
845.013	-0.34
845.189	95.91
845.365	5.8
845.541	40.62
845.716	65.19
845.892	1.71
846.068	22.19
846.244	71.34
846.419	95.91
846.595	-4.44
846.77	36.52
846.946	-12.63
847.122	38.57
847.297	61.1
847.473	-53.59
847.648	-41.3
847.824	-14.68
847.999	11.95
848.175	42.67
848.35	57
848.526	52.91
848.701	48.81
848.876	-33.11
849.052	44.71
849.227	26.28
849.403	124.58
849.578	30.38
849.753	7.85
849.929	57
850.104	30.38
850.279	5.8
850.454	1.71
850.63	-31.06
850.805	-37.2
850.98	42.67
851.155	73.39
851.33	42.67
851.505	-4.44
851.681	44.71
851.856	16.04
852.031	9.9
852.206	-57.68
852.381	-45.4
852.556	1.71
852.731	122.54
852.906	-0.34
853.081	26.28
853.256	18.09
853.431	110.25
853.606	-33.11
853.781	-6.49
853.956	-0.34
854.131	28.33
854.305	-31.06
854.48	48.81
854.655	-53.59
854.83	5.8
855.005	-12.63
855.18	3.75
855.354	30.38
855.529	-104.79
855.704	32.43
855.879	24.23
856.053	95.91
856.228	61.1
856.403	-0.34
856.577	-4.44
856.752	40.62
856.926	71.34
857.101	46.76
857.276	-29.01
857.45	69.29
857.625	-37.2
857.799	24.23
857.974	36.52
858.148	24.23
858.323	24.23
858.497	-2.39
858.672	38.57
858.846	-4.44
859.02	42.67
859.195	3.75
859.369	73.39
859.543	-2.39
859.718	34.47
859.892	3.75
860.066	-29.01
860.241	-41.3
860.415	22.19
860.589	50.86
860.763	22.19
860.938	16.04
861.112	77.48
861.286	67.24
861.46	38.57
861.634	18.09
861.808	1.71
861.982	7.85
862.157	87.72
862.331	54.95
862.505	-39.25
862.679	46.76
862.853	73.39
863.027	48.81
863.201	24.23
863.375	11.95
863.549	-49.49
863.722	28.33
863.896	22.19
864.07	50.86
864.244	34.47
864.418	69.29
864.592	-14.68
864.766	-14.68
864.939	-12.63
865.113	1.71
865.287	-8.53
865.461	20.14
865.634	26.28
865.808	-8.53
865.982	9.9
866.156	13.99
866.329	38.57
866.503	11.95
866.676	38.57
866.85	24.23
867.024	-22.87
867.197	20.14
867.371	46.76
867.544	20.14
867.718	1.71
867.891	-22.87
868.065	63.15
868.238	-26.96
868.412	20.14
868.585	-80.21
868.759	-20.82
868.932	11.95
869.105	52.91
869.279	-20.82
869.452	30.38
869.625	-16.73
869.799	-24.92
869.972	13.99
870.145	20.14
870.319	7.85
870.492	1.71
870.665	-6.49
870.838	-0.34
871.011	1.71
871.185	32.43
871.358	50.86
871.531	13.99
871.704	-37.2
871.877	-16.73
872.05	-45.4
872.223	11.95
872.396	18.09
872.569	16.04
872.742	-2.39
872.915	3.75
873.088	38.57
873.261	-16.73
873.434	-16.73
873.607	69.29
873.78	-6.49
873.953	-8.53
874.126	38.57
874.299	50.86
874.471	-24.92
874.644	9.9
874.817	-29.01
874.99	32.43
875.163	-2.39
875.335	18.09
875.508	65.19
875.681	16.04
875.853	-24.92
876.026	30.38
876.199	61.1
876.371	-8.53
876.544	-33.11
876.717	-8.53
876.889	-92.5
877.062	61.1
877.234	-24.92
877.407	57
877.579	61.1
877.752	-6.49
877.924	1.71
878.097	-12.63
878.269	-55.64
878.442	87.72
878.614	-2.39
878.786	46.76
878.959	-26.96
879.131	-14.68
879.303	-65.88
879.476	-22.87
879.648	-14.68
879.82	-29.01
879.993	5.8
880.165	20.14
880.337	36.52
880.509	32.43
880.681	-67.92
880.854	-35.16
881.026	-49.49
881.198	81.58
881.37	16.04
881.542	-12.63
881.714	-37.2
881.886	44.71
882.058	69.29
882.23	11.95
882.402	-4.44
882.574	-6.49
882.746	24.23
882.918	44.71
883.09	-6.49
883.262	46.76
883.434	38.57
883.606	-72.02
883.778	7.85
883.95	-0.34
884.122	-6.49
884.293	13.99
884.465	-0.34
884.637	28.33
884.809	57
884.98	13.99
885.152	-4.44
885.324	20.14
885.496	1.71
885.667	18.09
885.839	-41.3
886.011	18.09
886.182	-37.2
886.354	24.23
886.525	50.86
886.697	7.85
886.869	-53.59
887.04	-16.73
887.212	-22.87
887.383	48.81
887.555	-47.44
887.726	30.38
887.897	20.14
888.069	22.19
888.24	-18.77
888.412	-14.68
888.583	54.95
888.754	-22.87
888.926	-45.4
889.097	-22.87
889.268	-65.88
889.44	9.9
889.611	-57.68
889.782	3.75
889.953	-29.01
890.125	-6.49
890.296	40.62
890.467	-14.68
890.638	13.99
890.809	24.23
890.98	-53.59
891.151	28.33
891.323	-2.39
891.494	11.95
891.665	-10.58
891.836	32.43
892.007	36.52
892.178	-12.63
892.349	-14.68
892.52	3.75
892.691	-4.44
892.862	28.33
893.032	-29.01
893.203	-6.49
893.374	-2.39
893.545	61.1
893.716	42.67
893.887	-10.58
894.057	63.15
894.228	-24.92
894.399	5.8
894.57	26.28
894.74	-22.87
894.911	26.28
895.082	13.99
895.253	50.86
895.423	-41.3
895.594	48.81
895.764	38.57
895.935	34.47
896.106	40.62
896.276	-20.82
896.447	59.05
896.617	5.8
896.788	-20.82
896.958	-39.25
897.129	-20.82
897.299	11.95
897.47	46.76
897.64	-24.92
897.81	26.28
897.981	-2.39
898.151	-49.49
898.322	20.14
898.492	3.75
898.662	-33.11
898.832	-18.77
899.003	-33.11
899.173	28.33
899.343	-8.53
899.513	-26.96
