Data from USB4F104151__7__13-52-11-826.txt Node

Date: Thu Mar 13 13:52:11 EDT 2025
User: louis
Spectrometer: USB4F10415
Trigger mode: 4
Integration Time (sec): 1.000000E-2
Scans to average: 1
Electric dark correction enabled: true
Nonlinearity correction enabled: false
Boxcar width: 0
XAxis mode: Wavelengths
Number of Pixels in Spectrum: 3648
>>>>>Begin Spectral Data<<<<<
178.204	-2.22
178.424	-2.22
178.644	-2.22
178.864	28.5
179.084	-4.27
179.304	-14.51
179.524	-133.29
179.744	5.97
179.964	10.07
180.184	5.97
180.404	-10.41
180.624	-10.41
180.844	34.64
181.064	16.21
181.283	46.93
181.503	5.97
181.723	42.84
181.943	73.56
182.163	8.02
182.383	-59.56
182.602	38.74
182.822	59.22
183.042	20.31
183.262	44.88
183.482	-26.79
183.701	-8.36
183.921	-4.27
184.141	75.6
184.361	12.12
184.58	-34.99
184.8	-0.17
185.02	10.07
185.239	79.7
185.459	26.45
185.679	30.55
185.898	-8.36
186.118	-4.27
186.338	-20.65
186.557	57.17
186.777	-80.04
186.997	-41.13
187.216	75.6
187.436	30.55
187.655	51.03
187.875	-49.32
188.095	14.17
188.314	-34.99
188.534	-14.51
188.753	18.26
188.973	1.88
189.192	44.88
189.412	75.6
189.631	3.93
189.851	-12.46
190.07	57.17
190.29	1.88
190.509	5.97
190.729	32.6
190.948	44.88
191.168	-55.47
191.387	36.69
191.607	-6.31
191.826	12.12
192.045	-4.27
192.265	85.84
192.484	-0.17
192.704	-22.7
192.923	1.88
193.142	42.84
193.362	40.79
193.581	85.84
193.8	-12.46
194.02	-47.27
194.239	20.31
194.458	30.55
194.678	44.88
194.897	10.07
195.116	67.41
195.335	40.79
195.555	18.26
195.774	36.69
195.993	-90.28
196.212	85.84
196.432	-14.51
196.651	14.17
196.87	-39.08
197.089	48.98
197.308	20.31
197.528	55.12
197.747	-49.32
197.966	38.74
198.185	1.88
198.404	-61.61
198.623	-24.75
198.842	16.21
199.062	-47.27
199.281	-2.22
199.5	-4.27
199.719	63.32
199.938	-16.55
200.157	-41.13
200.376	-8.36
200.595	-4.27
200.814	-10.41
201.033	-47.27
201.252	5.97
201.471	48.98
201.69	67.41
201.909	-22.7
202.128	3.93
202.347	42.84
202.566	75.6
202.785	63.32
203.004	-28.84
203.223	32.6
203.442	55.12
203.661	20.31
203.879	-34.99
204.098	48.98
204.317	-47.27
204.536	38.74
204.755	87.89
204.974	20.31
205.193	30.55
205.411	18.26
205.63	8.02
205.849	55.12
206.068	-12.46
206.287	26.45
206.505	-32.94
206.724	-10.41
206.943	-100.52
207.162	61.27
207.381	10.07
207.599	12.12
207.818	-4.27
208.037	34.64
208.255	3.93
208.474	91.99
208.693	-2.22
208.911	46.93
209.13	53.08
209.349	48.98
209.567	77.65
209.786	-34.99
210.005	30.55
210.223	14.17
210.442	-75.95
210.661	-4.27
210.879	-14.51
211.098	26.45
211.316	-4.27
211.535	-6.31
211.753	-20.65
211.972	12.12
212.191	14.17
212.409	34.64
212.628	-18.6
212.846	57.17
213.065	-14.51
213.283	-8.36
213.502	-12.46
213.72	87.89
213.938	-8.36
214.157	57.17
214.375	-69.8
214.594	44.88
214.812	10.07
215.031	48.98
215.249	12.12
215.467	3.93
215.686	42.84
215.904	42.84
216.122	22.36
216.341	34.64
216.559	12.12
216.778	59.22
216.996	-18.6
217.214	-12.46
217.432	-92.33
217.651	20.31
217.869	3.93
218.087	-10.41
218.306	-18.6
218.524	75.6
218.742	-71.85
218.96	44.88
219.179	-4.27
219.397	8.02
219.615	34.64
219.833	38.74
220.051	-37.03
220.27	-34.99
220.488	34.64
220.706	59.22
220.924	36.69
221.142	30.55
221.36	28.5
221.578	-2.22
221.796	44.88
222.015	34.64
222.233	-2.22
222.451	40.79
222.669	30.55
222.887	46.93
223.105	-2.22
223.323	30.55
223.541	-8.36
223.759	51.03
223.977	-6.31
224.195	53.08
224.413	79.7
224.631	71.51
224.849	16.21
225.067	55.12
225.285	-49.32
225.503	12.12
225.721	-6.31
225.939	44.88
226.157	-22.7
226.375	61.27
226.592	-14.51
226.81	-39.08
227.028	5.97
227.246	55.12
227.464	-22.7
227.682	32.6
227.9	73.56
228.117	-53.42
228.335	-10.41
228.553	44.88
228.771	3.93
228.989	-39.08
229.206	18.26
229.424	1.88
229.642	-10.41
229.86	8.02
230.077	102.23
230.295	-0.17
230.513	-20.65
230.731	12.12
230.948	-22.7
231.166	12.12
231.384	-6.31
231.601	-12.46
231.819	10.07
232.037	24.4
232.254	-6.31
232.472	-4.27
232.689	-57.51
232.907	40.79
233.125	12.12
233.342	1.88
233.56	-30.89
233.777	-34.99
233.995	26.45
234.213	46.93
234.43	42.84
234.648	-45.23
234.865	48.98
235.083	77.65
235.3	42.84
235.518	44.88
235.735	46.93
235.953	-49.32
236.17	-22.7
236.388	-12.46
236.605	5.97
236.822	18.26
237.04	-22.7
237.257	83.8
237.475	-28.84
237.692	26.45
237.909	32.6
238.127	36.69
238.344	-43.18
238.562	22.36
238.779	-6.31
238.996	-18.6
239.214	-26.79
239.431	-4.27
239.648	14.17
239.865	5.97
240.083	-12.46
240.3	59.22
240.517	40.79
240.735	-26.79
240.952	32.6
241.169	61.27
241.386	10.07
241.603	40.79
241.821	10.07
242.038	42.84
242.255	48.98
242.472	30.55
242.689	57.17
242.907	34.64
243.124	30.55
243.341	-51.37
243.558	-34.99
243.775	36.69
243.992	-61.61
244.209	-8.36
244.426	14.17
244.643	-34.99
244.86	26.45
245.078	79.7
245.295	112.47
245.512	18.26
245.729	26.45
245.946	61.27
246.163	63.32
246.38	22.36
246.597	-4.27
246.814	22.36
247.031	-8.36
247.248	38.74
247.464	14.17
247.681	26.45
247.898	30.55
248.115	-26.79
248.332	12.12
248.549	51.03
248.766	79.7
248.983	-2.22
249.2	55.12
249.417	61.27
249.633	67.41
249.85	16.21
250.067	26.45
250.284	-18.6
250.501	10.07
250.717	91.99
250.934	-55.47
251.151	-16.55
251.368	-2.22
251.585	32.6
251.801	75.6
252.018	55.12
252.235	40.79
252.451	-16.55
252.668	-67.75
252.885	59.22
253.102	48.98
253.318	40.79
253.535	32.6
253.752	-18.6
253.968	55.12
254.185	28.5
254.401	83.8
254.618	34.64
254.835	-51.37
255.051	-37.03
255.268	-16.55
255.484	-41.13
255.701	75.6
255.917	63.32
256.134	-0.17
256.351	71.51
256.567	38.74
256.784	114.52
257	3.93
257.217	-22.7
257.433	-16.55
257.65	20.31
257.866	26.45
258.082	61.27
258.299	12.12
258.515	-49.32
258.732	8.02
258.948	34.64
259.165	14.17
259.381	3.93
259.597	14.17
259.814	28.5
260.03	10.07
260.246	48.98
260.463	12.12
260.679	22.36
260.895	-12.46
261.112	-28.84
261.328	12.12
261.544	-6.31
261.761	38.74
261.977	-14.51
262.193	12.12
262.409	-22.7
262.626	22.36
262.842	-47.27
263.058	55.12
263.274	42.84
263.49	-2.22
263.707	34.64
263.923	-6.31
264.139	-8.36
264.355	34.64
264.571	57.17
264.787	3.93
265.004	-26.79
265.22	-32.94
265.436	18.26
265.652	28.5
265.868	36.69
266.084	-53.42
266.3	12.12
266.516	-65.71
266.732	26.45
266.948	30.55
267.164	-12.46
267.38	8.02
267.596	28.5
267.812	-0.17
268.028	34.64
268.244	-26.79
268.46	14.17
268.676	24.4
268.892	-14.51
269.108	5.97
269.324	-28.84
269.54	38.74
269.756	24.4
269.972	-22.7
270.188	10.07
270.403	-41.13
270.619	20.31
270.835	3.93
271.051	28.5
271.267	12.12
271.483	-12.46
271.698	-51.37
271.914	51.03
272.13	26.45
272.346	28.5
272.562	10.07
272.777	12.12
272.993	53.08
273.209	85.84
273.425	42.84
273.64	28.5
273.856	-6.31
274.072	28.5
274.287	14.17
274.503	-20.65
274.719	-22.7
274.934	-28.84
275.15	-49.32
275.366	-20.65
275.581	-14.51
275.797	8.02
276.012	46.93
276.228	-34.99
276.444	44.88
276.659	28.5
276.875	-75.95
277.09	-57.51
277.306	14.17
277.521	85.84
277.737	-2.22
277.952	32.6
278.168	-6.31
278.383	-0.17
278.599	40.79
278.814	-8.36
279.03	-8.36
279.245	44.88
279.461	12.12
279.676	3.93
279.892	-45.23
280.107	67.41
280.322	-34.99
280.538	22.36
280.753	-32.94
280.969	-8.36
281.184	38.74
281.399	28.5
281.615	63.32
281.83	-39.08
282.045	-0.17
282.26	57.17
282.476	-22.7
282.691	30.55
282.906	-10.41
283.122	14.17
283.337	42.84
283.552	46.93
283.767	-47.27
283.983	-22.7
284.198	16.21
284.413	59.22
284.628	1.88
284.843	8.02
285.058	-0.17
285.274	46.93
285.489	42.84
285.704	14.17
285.919	30.55
286.134	12.12
286.349	71.51
286.564	8.02
286.779	-26.79
286.995	53.08
287.21	16.21
287.425	26.45
287.64	-8.36
287.855	38.74
288.07	-10.41
288.285	-24.75
288.5	28.5
288.715	81.75
288.93	44.88
289.145	87.89
289.36	34.64
289.575	-14.51
289.79	-53.42
290.004	28.5
290.219	24.4
290.434	14.17
290.649	-6.31
290.864	-18.6
291.079	67.41
291.294	63.32
291.509	-18.6
291.724	10.07
291.938	20.31
292.153	-22.7
292.368	51.03
292.583	46.93
292.798	-22.7
293.012	44.88
293.227	-6.31
293.442	-10.41
293.657	-20.65
293.871	59.22
294.086	24.4
294.301	28.5
294.516	-6.31
294.73	46.93
294.945	-2.22
295.16	-4.27
295.374	12.12
295.589	3.93
295.804	-10.41
296.018	30.55
296.233	20.31
296.447	20.31
296.662	71.51
296.877	30.55
297.091	-49.32
297.306	26.45
297.52	79.7
297.735	20.31
297.949	14.17
298.164	18.26
298.378	55.12
298.593	5.97
298.807	-34.99
299.022	55.12
299.236	40.79
299.451	-8.36
299.665	24.4
299.88	-16.55
300.094	-51.37
300.309	69.46
300.523	26.45
300.737	-49.32
300.952	18.26
301.166	26.45
301.381	18.26
301.595	16.21
301.809	-22.7
302.024	-82.09
302.238	28.5
302.452	-43.18
302.667	-34.99
302.881	-32.94
303.095	-26.79
303.309	-8.36
303.524	36.69
303.738	65.36
303.952	-41.13
304.166	14.17
304.381	-67.75
304.595	14.17
304.809	32.6
305.023	-18.6
305.237	16.21
305.452	26.45
305.666	-49.32
305.88	14.17
306.094	67.41
306.308	-0.17
306.522	-2.22
306.736	-53.42
306.95	81.75
307.164	44.88
307.379	57.17
307.593	20.31
307.807	-10.41
308.021	-2.22
308.235	-0.17
308.449	8.02
308.663	-16.55
308.877	20.31
309.091	18.26
309.305	91.99
309.519	-16.55
309.733	-45.23
309.947	-34.99
310.161	14.17
310.374	36.69
310.588	24.4
310.802	73.56
311.016	32.6
311.23	73.56
311.444	12.12
311.658	16.21
311.872	32.6
312.085	48.98
312.299	18.26
312.513	46.93
312.727	51.03
312.941	-41.13
313.154	14.17
313.368	5.97
313.582	14.17
313.796	34.64
314.009	57.17
314.223	-28.84
314.437	55.12
314.651	-6.31
314.864	75.6
315.078	42.84
315.292	8.02
315.505	-37.03
315.719	71.51
315.933	-37.03
316.146	24.4
316.36	-104.62
316.573	20.31
316.787	-30.89
317.001	102.23
317.214	8.02
317.428	-37.03
317.641	-10.41
317.855	40.79
318.068	1.88
318.282	-14.51
318.495	32.6
318.709	34.64
318.922	30.55
319.136	-18.6
319.349	-24.75
319.563	20.31
319.776	-22.7
319.99	30.55
320.203	5.97
320.417	48.98
320.63	8.02
320.843	75.6
321.057	94.04
321.27	51.03
321.483	57.17
321.697	65.36
321.91	5.97
322.124	32.6
322.337	89.94
322.55	3.93
322.763	59.22
322.977	24.4
323.19	-18.6
323.403	-6.31
323.617	53.08
323.83	28.5
324.043	36.69
324.256	10.07
324.469	-18.6
324.683	48.98
324.896	14.17
325.109	-10.41
325.322	-59.56
325.535	-4.27
325.748	79.7
325.962	100.18
326.175	46.93
326.388	-67.75
326.601	32.6
326.814	34.64
327.027	30.55
327.24	34.64
327.453	-34.99
327.666	5.97
327.879	-59.56
328.092	-0.17
328.305	-22.7
328.518	24.4
328.731	44.88
328.944	12.12
329.157	-24.75
329.37	71.51
329.583	28.5
329.796	67.41
330.009	-22.7
330.222	-14.51
330.435	-4.27
330.648	42.84
330.861	32.6
331.073	135
331.286	24.4
331.499	-39.08
331.712	63.32
331.925	-4.27
332.138	59.22
332.35	83.8
332.563	-16.55
332.776	1.88
332.989	-20.65
333.202	12.12
333.414	67.41
333.627	61.27
333.84	-34.99
334.053	18.26
334.265	32.6
334.478	38.74
334.691	1.88
334.903	79.7
335.116	5.97
335.329	26.45
335.541	-0.17
335.754	-14.51
335.966	16.21
336.179	8.02
336.392	-6.31
336.604	34.64
336.817	-6.31
337.029	20.31
337.242	-24.75
337.454	10.07
337.667	-26.79
337.88	85.84
338.092	8.02
338.305	30.55
338.517	18.26
338.729	10.07
338.942	3.93
339.154	32.6
339.367	-69.8
339.579	18.26
339.792	30.55
340.004	16.21
340.217	-30.89
340.429	44.88
340.641	-10.41
340.854	36.69
341.066	14.17
341.278	1.88
341.491	67.41
341.703	3.93
341.915	-10.41
342.128	30.55
342.34	-43.18
342.552	67.41
342.764	-123.05
342.977	-20.65
343.189	-24.75
343.401	51.03
343.613	5.97
343.826	10.07
344.038	71.51
344.25	-22.7
344.462	-71.85
344.674	-2.22
344.886	-6.31
345.099	89.94
345.311	96.08
345.523	40.79
345.735	36.69
345.947	61.27
346.159	-32.94
346.371	-12.46
346.583	81.75
346.795	61.27
347.007	-10.41
347.219	48.98
347.431	-41.13
347.643	63.32
347.855	55.12
348.067	73.56
348.279	34.64
348.491	-39.08
348.703	-2.22
348.915	120.66
349.127	-0.17
349.339	16.21
349.551	-24.75
349.763	51.03
349.975	12.12
350.187	59.22
350.399	8.02
350.61	-4.27
350.822	-12.46
351.034	14.17
351.246	-4.27
351.458	63.32
351.669	26.45
351.881	94.04
352.093	26.45
352.305	22.36
352.517	10.07
352.728	65.36
352.94	53.08
353.152	-49.32
353.363	30.55
353.575	85.84
353.787	-4.27
353.999	51.03
354.21	3.93
354.422	59.22
354.633	-37.03
354.845	67.41
355.057	28.5
355.268	-10.41
355.48	-18.6
355.692	38.74
355.903	-14.51
356.115	26.45
356.326	-4.27
356.538	65.36
356.749	46.93
356.961	32.6
357.172	14.17
357.384	-20.65
357.595	83.8
357.807	3.93
358.018	-39.08
358.23	100.18
358.441	42.84
358.653	51.03
358.864	12.12
359.075	-30.89
359.287	-43.18
359.498	14.17
359.709	34.64
359.921	22.36
360.132	51.03
360.344	55.12
360.555	-0.17
360.766	38.74
360.977	-53.42
361.189	14.17
361.4	-10.41
361.611	-0.17
361.823	18.26
362.034	46.93
362.245	40.79
362.456	42.84
362.667	79.7
362.879	-4.27
363.09	48.98
363.301	3.93
363.512	-8.36
363.723	8.02
363.935	-14.51
364.146	30.55
364.357	85.84
364.568	10.07
364.779	-32.94
364.99	-2.22
365.201	26.45
365.412	42.84
365.623	-6.31
365.834	36.69
366.045	-20.65
366.256	36.69
366.467	28.5
366.678	32.6
366.889	-6.31
367.1	-41.13
367.311	46.93
367.522	79.7
367.733	67.41
367.944	-8.36
368.155	-8.36
368.366	28.5
368.577	-0.17
368.788	32.6
368.999	61.27
369.209	94.04
369.42	-4.27
369.631	59.22
369.842	48.98
370.053	42.84
370.264	59.22
370.474	-12.46
370.685	-57.51
370.896	61.27
371.107	1.88
371.317	-30.89
371.528	-4.27
371.739	-22.7
371.95	12.12
372.16	67.41
372.371	-8.36
372.582	1.88
372.792	32.6
373.003	38.74
373.214	-16.55
373.424	5.97
373.635	-0.17
373.846	-16.55
374.056	83.8
374.267	8.02
374.477	12.12
374.688	65.36
374.898	-22.7
375.109	57.17
375.319	12.12
375.53	18.26
375.74	30.55
375.951	-24.75
376.161	-10.41
376.372	79.7
376.582	1.88
376.793	75.6
377.003	32.6
377.214	44.88
377.424	26.45
377.635	116.56
377.845	20.31
378.055	40.79
378.266	-4.27
378.476	10.07
378.686	53.08
378.897	42.84
379.107	12.12
379.317	-77.99
379.528	46.93
379.738	-26.79
379.948	48.98
380.158	65.36
380.369	-30.89
380.579	-71.85
380.789	48.98
380.999	18.26
381.21	44.88
381.42	143.19
381.63	-67.75
381.84	8.02
382.05	89.94
382.261	75.6
382.471	-2.22
382.681	1.88
382.891	55.12
383.101	14.17
383.311	48.98
383.521	46.93
383.731	-61.61
383.941	75.6
384.151	42.84
384.361	83.8
384.571	14.17
384.781	-18.6
384.991	73.56
385.201	59.22
385.411	67.41
385.621	8.02
385.831	-12.46
386.041	77.65
386.251	16.21
386.461	116.56
386.671	10.07
386.881	57.17
387.091	12.12
387.301	71.51
387.511	3.93
387.72	89.94
387.93	79.7
388.14	24.4
388.35	-41.13
388.56	112.47
388.769	24.4
388.979	46.93
389.189	59.22
389.399	28.5
389.609	1.88
389.818	1.88
390.028	44.88
390.238	-14.51
390.447	44.88
390.657	34.64
390.867	-4.27
391.076	30.55
391.286	22.36
391.496	94.04
391.705	57.17
391.915	10.07
392.125	-0.17
392.334	20.31
392.544	22.36
392.753	-20.65
392.963	44.88
393.172	-0.17
393.382	32.6
393.591	40.79
393.801	46.93
394.01	-0.17
394.22	71.51
394.429	16.21
394.639	-0.17
394.848	-4.27
395.058	71.51
395.267	67.41
395.477	-30.89
395.686	34.64
395.895	63.32
396.105	63.32
396.314	61.27
396.524	38.74
396.733	18.26
396.942	42.84
397.152	20.31
397.361	46.93
397.57	87.89
397.78	46.93
397.989	12.12
398.198	46.93
398.407	22.36
398.617	69.46
398.826	5.97
399.035	26.45
399.244	38.74
399.453	118.61
399.663	5.97
399.872	108.37
400.081	12.12
400.29	114.52
400.499	48.98
400.708	51.03
400.917	42.84
401.127	57.17
401.336	59.22
401.545	63.32
401.754	-6.31
401.963	-10.41
402.172	12.12
402.381	44.88
402.59	89.94
402.799	20.31
403.008	30.55
403.217	96.08
403.426	102.23
403.635	73.56
403.844	28.5
404.053	26.45
404.262	98.13
404.471	28.5
404.68	42.84
404.888	75.6
405.097	91.99
405.306	14.17
405.515	12.12
405.724	36.69
405.933	55.12
406.142	87.89
406.35	65.36
406.559	91.99
406.768	75.6
406.977	114.52
407.185	75.6
407.394	98.13
407.603	71.51
407.812	71.51
408.02	46.93
408.229	87.89
408.438	26.45
408.646	91.99
408.855	48.98
409.064	38.74
409.272	48.98
409.481	55.12
409.69	79.7
409.898	61.27
410.107	122.71
410.315	151.38
410.524	108.37
410.733	128.85
410.941	98.13
411.15	81.75
411.358	120.66
411.567	137.04
411.775	132.95
411.984	114.52
412.192	175.95
412.401	147.28
412.609	141.14
412.818	184.15
413.026	143.19
413.234	184.15
413.443	235.35
413.651	173.91
413.86	194.39
414.068	169.81
414.276	239.44
414.485	204.63
414.693	190.29
414.901	223.06
415.11	280.4
415.318	243.54
415.526	247.63
415.734	218.96
415.943	233.3
416.151	233.3
416.359	200.53
416.567	237.39
416.776	282.45
416.984	257.87
417.192	288.59
417.4	356.18
417.608	274.26
417.817	329.55
418.025	278.35
418.233	321.36
418.441	362.32
418.649	360.27
418.857	405.33
419.065	458.57
419.273	358.22
419.481	507.73
419.689	370.51
419.897	339.79
420.105	423.76
420.313	499.53
420.521	470.86
420.729	479.05
420.937	462.67
421.145	505.68
421.353	558.92
421.561	515.92
421.769	653.13
421.977	655.18
422.185	642.89
422.393	675.66
422.601	610.12
422.809	636.75
423.017	743.24
423.224	728.91
423.432	730.95
423.64	831.3
423.848	786.25
424.056	841.54
424.263	821.06
424.471	931.66
424.679	857.93
424.887	925.51
425.094	929.61
425.302	950.09
425.51	1062.73
425.718	1046.34
425.925	1032.01
426.133	1122.12
426.341	1050.44
426.548	1255.23
426.756	1132.36
426.964	1236.8
427.171	1371.97
427.379	1300.29
427.586	1310.53
427.794	1349.44
428.001	1429.31
428.209	1435.46
428.417	1443.65
428.624	1537.85
428.832	1636.16
429.039	1638.2
429.247	1617.72
429.454	1693.5
429.662	1820.47
429.869	1720.12
430.076	1771.32
430.284	1713.98
430.491	1814.33
430.699	1963.83
430.906	1888.06
431.114	1894.2
431.321	2072.37
431.528	2131.76
431.736	2264.88
431.943	2305.84
432.15	2144.05
432.358	2387.76
432.565	2473.78
432.772	2496.3
432.979	2379.57
433.187	2621.23
433.394	2570.03
433.601	2772.78
433.808	2811.69
434.016	2701.1
434.223	2854.7
434.43	3016.49
434.637	2862.89
434.844	3122.98
435.052	3258.15
435.259	3227.43
435.466	3118.89
435.673	3096.36
435.88	3315.49
436.087	3501.86
436.294	3485.47
436.501	3460.9
436.708	3669.79
436.915	3600.16
437.122	3847.96
437.329	3764
437.537	3968.79
437.743	4065.05
437.95	4001.56
438.157	4153.11
438.364	4394.77
438.571	4284.18
438.778	4503.31
438.985	4663.05
439.192	4673.29
439.399	4613.9
439.606	4509.46
439.813	4792.08
440.02	5101.32
440.227	5138.18
440.433	4992.78
440.64	5234.44
440.847	5158.66
441.054	5244.68
441.261	5619.46
441.467	5517.06
441.674	5693.18
441.881	5908.22
442.088	5875.45
442.294	5631.74
442.501	5940.99
442.708	6039.29
442.914	6196.98
443.121	6659.82
443.328	6469.36
443.534	6881
443.741	6610.67
443.948	6579.95
444.154	7046.89
444.361	7055.08
444.568	7157.48
444.774	7155.43
444.981	7155.43
445.187	7358.18
445.394	7587.55
445.6	7616.23
445.807	8419.03
446.013	7853.79
446.22	8036.06
446.426	8435.41
446.633	8531.67
446.839	8761.04
447.046	8351.45
447.252	8779.47
447.459	8785.62
447.665	8881.87
447.871	9305.8
448.078	9731.78
448.284	9129.67
448.491	9490.12
448.697	9809.6
448.903	9930.43
449.11	10036.92
449.316	9797.31
449.522	9907.9
449.728	10331.83
449.935	10315.45
450.141	10317.5
450.347	10700.47
450.553	10426.04
450.76	10407.61
450.966	10690.23
451.172	10606.26
451.378	10743.47
451.584	10583.73
451.791	10895.02
451.997	10813.1
452.203	10995.37
452.409	11105.96
452.615	10970.8
452.821	10565.3
453.027	10331.83
453.233	11065
453.44	10569.4
453.646	10854.06
453.852	10598.07
454.058	10950.32
454.264	10579.64
454.47	10794.67
454.676	10428.09
454.882	10743.47
455.088	9834.18
455.294	10026.68
455.5	10264.25
455.705	10036.92
455.911	9791.17
456.117	9748.16
456.323	9408.2
456.529	8996.56
456.735	9449.16
456.941	9137.87
457.147	8824.53
457.352	8597.2
457.558	8642.26
457.764	8638.16
457.97	8455.89
458.176	8234.71
458.381	8197.85
458.587	7784.16
458.793	7870.17
458.999	7544.55
459.204	7864.03
459.41	7800.54
459.616	7001.83
459.821	7093.99
460.027	7225.06
460.233	7157.48
460.438	6672.11
460.644	6807.28
460.85	6598.38
461.055	6246.13
461.261	6311.67
461.466	6055.67
461.672	5635.84
461.878	6113.02
462.083	5658.37
462.289	5562.11
462.494	5592.83
462.7	5316.36
462.905	5197.57
463.111	5377.8
463.316	5265.16
463.522	5189.38
463.727	5527.3
463.932	5236.49
464.138	5289.73
464.343	5177.09
464.549	5277.44
464.754	5373.7
464.959	5201.67
465.165	5304.07
465.37	4988.68
465.575	4863.76
465.781	5127.94
465.986	5134.09
466.191	4900.62
466.397	4683.53
466.602	4615.95
466.807	4816.65
467.012	4908.81
467.218	4812.56
467.423	4742.92
467.628	4646.67
467.833	4878.09
468.038	4534.03
468.244	4507.41
468.449	4835.08
468.654	4667.15
468.859	4613.9
469.064	4589.33
469.269	4362
469.474	4312.85
469.679	4437.78
469.885	4357.91
470.09	4341.52
470.295	4292.37
470.5	4341.52
470.705	4443.92
470.91	4325.14
471.115	4290.32
471.32	4179.73
471.525	4202.26
471.73	4124.44
471.935	4069.14
472.139	3989.27
472.344	4011.8
472.549	3958.55
472.754	3811.1
472.959	3874.59
473.164	3723.04
473.369	3680.03
473.574	3868.44
473.778	3757.85
473.983	3729.18
474.188	3675.93
474.393	3632.93
474.598	3639.07
474.802	3448.61
475.007	3583.77
475.212	3591.97
475.417	3450.66
475.621	3370.79
475.826	3256.1
476.031	3442.46
476.235	3200.8
476.44	3434.27
476.645	3239.72
476.849	3299.11
477.054	3344.16
477.259	3272.48
477.463	3168.04
477.668	3266.34
477.872	3147.56
478.077	3141.41
478.282	3127.08
478.486	3051.3
478.691	2965.29
478.895	3082.02
479.1	2889.51
479.304	3065.64
479.509	2897.71
479.713	2909.99
479.918	2871.08
480.122	2791.21
480.326	2748.2
480.531	2879.27
480.735	2834.22
480.94	2858.79
481.144	2901.8
481.348	2764.59
481.553	2672.43
481.757	2799.4
481.961	2707.24
482.166	2862.89
482.37	2864.94
482.574	2715.44
482.778	2762.54
482.983	2940.71
483.187	2840.36
483.391	2789.16
483.595	2783.02
483.8	2721.58
484.004	2725.68
484.208	2807.59
484.412	2801.45
484.616	2742.06
484.821	2817.83
485.025	2727.72
485.229	2791.21
485.433	2727.72
485.637	2864.94
485.841	2789.16
486.045	2676.52
486.249	2826.03
486.453	2748.2
486.657	2903.85
486.861	2731.82
487.065	2778.92
487.269	2899.75
487.473	2701.1
487.677	2770.73
487.881	2918.18
488.085	2748.2
488.289	2789.16
488.493	2731.82
488.697	2834.22
488.901	2817.83
489.105	2797.35
489.309	2961.19
489.512	2909.99
489.716	2836.27
489.92	2866.99
490.124	2975.53
490.328	2914.09
490.531	2838.31
490.735	2864.94
490.939	3014.44
491.143	2862.89
491.346	2791.21
491.55	2836.27
491.754	2961.19
491.958	2950.95
492.161	3065.64
492.365	3073.83
492.569	2993.96
492.772	2989.86
492.976	2946.86
493.18	3043.11
493.383	3063.59
493.587	3012.39
493.79	3053.35
493.994	3002.15
494.197	3073.83
494.401	3176.23
494.605	3159.85
494.808	3200.8
495.012	3249.96
495.215	3321.63
495.419	3383.07
495.622	3270.44
495.825	3180.32
496.029	3350.31
496.232	3409.7
496.436	3303.2
496.639	3536.67
496.843	3503.9
497.046	3481.38
497.249	3643.17
497.453	3620.64
497.656	3696.41
497.859	3798.81
498.063	3647.26
498.266	3743.52
498.469	3712.8
498.673	3874.59
498.876	3852.06
499.079	3952.41
499.282	3989.27
499.485	4167.45
499.689	4060.95
499.892	4067.1
500.095	4224.79
500.298	4366.1
500.501	4155.16
500.705	4450.07
500.908	4409.11
501.111	4618
501.314	4534.03
501.517	4521.74
501.72	4757.26
501.923	4658.96
502.126	4900.62
502.329	4923.15
502.532	4937.48
502.735	4912.91
502.938	5078.79
503.141	5244.68
503.344	5218.05
503.547	5113.61
503.75	5138.18
503.953	5412.61
504.156	5539.58
504.359	5584.64
504.562	5748.48
504.765	5744.38
504.968	5840.64
505.17	5910.27
505.373	5947.13
505.576	6231.8
505.779	6172.41
505.982	6037.24
506.185	6276.85
506.387	6305.53
506.59	6317.81
506.793	6545.14
506.996	6477.55
507.198	6899.44
507.401	6715.12
507.604	7010.03
507.807	7089.9
508.009	7141.1
508.212	7202.54
508.415	7358.18
508.617	7393
508.82	7538.4
509.022	7354.09
509.225	7739.1
509.428	7780.06
509.63	7792.35
509.833	7861.98
510.035	8107.74
510.238	8048.35
510.44	8244.95
510.643	8494.8
510.845	8498.9
511.048	8449.75
511.25	8826.57
511.453	8838.86
511.655	9213.64
511.858	9012.94
512.06	9262.79
512.262	9572.04
512.465	9551.56
512.667	9682.63
512.87	9852.61
513.072	9823.94
513.274	10008.25
513.477	10305.21
513.679	10077.88
513.881	10354.36
514.084	10573.49
514.286	10487.48
514.488	10688.18
514.69	11185.83
514.893	11085.48
515.095	11374.25
515.297	11353.77
515.499	11484.84
515.701	11779.75
515.904	11929.25
516.106	11749.03
516.308	12011.17
516.51	12404.38
516.712	12351.13
516.914	12547.73
517.116	12848.79
517.318	12865.17
517.52	13141.64
517.722	13176.46
517.925	13448.84
518.127	13604.49
518.329	13678.21
518.531	13557.38
518.733	13952.64
518.935	14610.04
519.136	14282.36
519.338	14534.26
519.54	14669.43
519.742	14990.96
519.944	15126.13
520.146	15498.86
520.348	15146.61
520.55	15314.54
520.752	15568.49
520.954	16133.73
521.155	15920.74
521.357	16281.18
521.559	16311.9
521.761	16643.67
521.963	16662.1
522.164	16655.96
522.366	17094.22
522.568	17006.16
522.77	17438.28
522.971	17555.02
523.173	17598.02
523.375	17843.78
523.576	17978.95
523.778	17841.73
523.98	18146.88
524.181	18400.83
524.383	18716.22
524.584	18964.02
524.786	18699.83
524.988	18845.24
525.189	19043.89
525.391	19025.46
525.592	19289.65
525.794	19324.46
525.995	19484.2
526.197	19594.79
526.398	19729.96
526.6	19854.89
526.801	20018.72
527.003	20063.78
527.204	19965.48
527.406	20389.41
527.607	20071.97
527.808	20600.35
528.01	20418.08
528.211	20614.68
528.412	20956.69
528.614	20698.65
528.815	20866.58
529.016	21028.37
529.218	21181.97
529.419	21184.02
529.62	21171.73
529.822	21329.42
530.023	21030.42
530.224	21616.14
530.425	21341.71
530.626	21020.18
530.828	21360.14
531.029	21810.7
531.23	21628.43
531.431	21431.82
531.632	21640.72
531.833	22027.78
532.035	21728.78
532.236	21894.66
532.437	21837.32
532.638	21710.35
532.839	21943.81
533.04	21906.95
533.241	22126.08
533.442	22486.53
533.643	22017.54
533.844	22017.54
534.045	22218.24
534.246	21970.44
534.447	22156.8
534.648	22093.32
534.849	22437.37
535.05	22179.33
535.251	22267.39
535.451	22457.85
535.652	22343.17
535.853	22554.11
536.054	22451.71
536.255	22312.45
536.456	22267.39
536.657	22416.9
536.857	22464
537.058	22054.4
537.259	22558.21
537.46	22375.94
537.66	22181.38
537.861	22447.61
538.062	21945.86
538.263	22332.93
538.463	22365.7
538.664	22496.77
538.865	22539.77
539.065	22519.29
539.266	22650.36
539.466	22588.92
539.667	22361.6
539.868	22676.99
540.068	22355.46
540.269	22461.95
540.469	22689.28
540.67	22490.62
540.87	22369.79
541.071	22234.63
541.271	22564.35
541.472	22590.97
541.672	22597.12
541.873	22636.03
542.073	22212.1
542.274	22599.16
542.474	22390.27
542.675	22599.16
542.875	22586.88
543.075	22746.62
543.276	22447.61
543.476	22959.61
543.676	22349.31
543.877	22590.97
544.077	22765.05
544.277	22507.01
544.478	22459.9
544.678	22476.29
544.878	22586.88
545.078	22525.44
545.279	22169.09
545.479	22554.11
545.679	22840.82
545.879	22521.34
546.079	22531.58
546.28	22507.01
546.48	22529.53
546.68	22734.33
546.88	22834.68
547.08	22715.9
547.28	22435.33
547.48	22304.26
547.68	22406.66
547.88	22480.38
548.081	22738.43
548.281	22562.3
548.481	22547.97
548.681	22582.78
548.881	22482.43
549.081	22427.14
549.28	22580.73
549.48	22793.72
549.68	22466.05
549.88	22855.16
550.08	22492.67
550.28	22631.93
550.48	22656.51
550.68	22785.53
550.88	22611.45
551.08	22447.61
551.279	22162.95
551.479	22406.66
551.679	22420.99
551.879	22470.14
552.079	22615.55
552.278	22685.18
552.478	22355.46
552.678	22420.99
552.878	22619.64
553.077	22695.42
553.277	22267.39
553.477	22603.26
553.676	22351.36
553.876	22367.74
554.076	22291.97
554.275	22175.23
554.475	22060.55
554.674	22375.94
554.874	22320.64
555.074	22345.22
555.273	22322.69
555.473	22132.23
555.672	21939.72
555.872	22226.43
556.071	22263.3
556.271	22179.33
556.47	22109.7
556.67	21968.39
556.869	22099.46
557.068	22191.62
557.268	21968.39
557.467	22117.89
557.667	21736.97
557.866	21892.62
558.065	21888.52
558.265	21870.09
558.464	21626.38
558.663	21718.54
558.863	21679.63
559.062	22040.07
559.261	21603.85
559.461	21595.66
559.66	21593.61
559.859	21734.92
560.058	21437.97
560.258	21362.19
560.457	21298.7
560.656	21585.42
560.855	21450.25
561.054	21196.31
561.253	21134.87
561.453	21116.44
561.652	21081.62
561.851	21409.29
562.05	21153.3
562.249	20776.47
562.448	21147.15
562.647	21358.1
562.846	21018.13
563.045	20872.73
563.244	20602.39
563.443	21241.36
563.642	20805.14
563.841	20799
564.04	20633.11
564.239	20891.16
564.438	20540.96
564.637	20608.54
564.836	20622.87
565.035	20438.56
565.234	20784.66
565.432	20258.34
565.631	20387.36
565.83	20364.83
566.029	20399.65
566.228	20399.65
566.427	20270.62
566.625	19684.9
566.824	19746.34
567.023	20090.4
567.222	19695.14
567.42	20346.4
567.619	19779.11
567.818	19824.17
568.016	19824.17
568.215	19908.13
568.414	19828.26
568.612	20055.59
568.811	19516.97
569.01	19723.82
569.208	19316.27
569.407	19576.36
569.605	19404.33
569.804	19211.82
570.002	19267.12
570.201	19418.67
570.4	18947.64
570.598	19033.65
570.797	19035.7
570.995	19101.23
571.193	18564.67
571.392	18818.61
571.59	18671.16
571.789	18689.59
571.987	18740.79
572.186	18437.69
572.384	18345.53
572.582	18679.35
572.781	18480.7
572.979	18015.81
573.177	18273.85
573.376	18439.74
573.574	17929.8
573.772	18265.66
573.971	17950.28
574.169	17587.78
574.367	17919.56
574.565	17765.96
574.763	17968.71
574.962	17624.65
575.16	17657.42
575.358	17675.85
575.556	17276.49
575.754	17536.59
575.952	17116.75
576.151	17372.75
576.349	16797.27
576.547	16983.63
576.745	17096.27
576.943	16995.92
577.141	17028.69
577.339	17174.1
577.537	16942.67
577.735	16754.26
577.933	16649.82
578.131	16793.17
578.329	16395.87
578.527	16627.29
578.725	16684.63
578.923	16504.41
579.121	16238.17
579.319	16430.68
579.516	16379.48
579.714	16328.28
579.912	16256.61
580.11	16037.47
580.308	15916.64
580.506	16051.81
580.704	15994.47
580.901	15957.6
581.099	15791.72
581.297	15904.35
581.495	15732.33
581.692	15697.51
581.89	15488.62
582.088	15425.13
582.285	15795.81
582.483	15517.29
582.681	15332.97
582.878	15519.34
583.076	15228.52
583.274	15439.47
583.471	15220.33
583.669	15310.44
583.866	15021.68
584.064	14984.82
584.262	14888.56
584.459	15079.02
584.657	14659.19
584.854	14898.8
585.052	14622.33
585.249	14632.57
585.447	14868.08
585.644	14599.8
585.841	14704.24
586.039	14704.24
586.236	14378.62
586.434	14395
586.631	14390.91
586.828	14714.48
587.026	14321.27
587.223	14337.66
587.42	14102.14
587.618	14233.21
587.815	14173.82
588.012	14071.42
588.21	14057.09
588.407	14012.03
588.604	13897.35
588.801	13792.9
588.999	13831.81
589.196	13688.45
589.393	13629.06
589.59	13729.41
589.787	13528.71
589.984	13682.31
590.182	13551.24
590.379	13500.04
590.576	13667.97
590.773	13657.73
590.97	13502.09
591.167	13520.52
591.364	13506.18
591.561	13239.95
591.758	13170.32
591.955	13250.19
592.152	13026.96
592.349	12973.71
592.546	13115.02
592.743	13080.21
592.94	12707.48
593.137	12910.22
593.334	13254.28
593.531	12748.43
593.727	12951.18
593.924	13006.48
594.121	12697.24
594.318	12838.55
594.515	12650.13
594.712	12521.11
594.908	12340.89
595.105	12820.11
595.302	12408.47
595.499	12369.56
595.696	12326.55
595.892	12529.3
596.089	12396.18
596.286	12441.24
596.482	12183.2
596.679	12220.06
596.876	12555.93
597.072	12267.16
597.269	12318.36
597.466	12041.89
597.662	12220.06
597.859	12115.61
598.055	12107.42
598.252	12236.44
598.448	11902.62
598.645	12005.02
598.841	11849.38
599.038	11763.36
599.234	12013.21
599.431	11605.67
599.627	11812.51
599.824	11685.54
600.02	11675.3
600.217	11495.08
600.413	11568.8
600.609	11480.74
600.806	11447.97
601.002	11667.11
601.198	11241.13
601.395	11427.49
601.591	11509.41
601.787	11173.55
601.984	11144.88
602.18	11425.45
602.376	11206.31
602.572	11151.02
602.769	11040.43
602.965	10976.94
603.161	10833.58
603.357	10948.27
603.553	10817.2
603.75	10989.23
603.946	10868.4
604.142	10772.14
604.338	10688.18
604.534	10684.08
604.73	10753.71
604.926	10479.29
605.122	10673.84
605.318	10471.09
605.514	10593.97
605.71	10245.82
605.906	10358.46
606.102	10434.23
606.298	10514.1
606.494	10331.83
606.69	10028.73
606.886	10430.13
607.082	10180.28
607.278	10354.36
607.474	10045.12
607.67	10297.02
607.866	9879.23
608.062	10057.4
608.257	9746.11
608.453	9844.42
608.649	10069.69
608.845	9848.51
609.041	9995.96
609.236	9832.13
609.432	9883.33
609.628	9662.15
609.824	9703.11
610.019	9678.53
610.215	9615.04
610.411	9637.57
610.606	9555.65
610.802	9541.32
610.998	9516.74
611.193	9389.77
611.389	9467.59
611.584	9434.82
611.78	9357
611.976	9524.93
612.171	9184.97
612.367	9352.9
612.562	9258.7
612.758	9131.72
612.953	9254.6
613.149	8994.51
613.344	9121.48
613.539	9391.81
613.735	9029.32
613.93	9137.87
614.126	8804.05
614.321	8969.93
614.517	9111.24
614.712	8908.49
614.907	8953.55
615.103	8888.01
615.298	8785.62
615.493	8742.61
615.688	8586.96
615.884	8959.69
616.079	8550.1
616.274	8926.93
616.47	8466.13
616.665	8636.11
616.86	8718.03
617.055	8531.67
617.25	8511.19
617.445	8390.36
617.641	8337.11
617.836	8615.63
618.031	8369.88
618.226	8378.07
618.421	8230.62
618.616	8328.92
618.811	8138.46
619.006	8275.67
619.201	8150.74
619.396	8109.79
619.591	7970.52
619.786	8027.87
619.981	8136.41
620.176	8158.94
620.371	7876.32
620.566	7976.67
620.761	7788.25
620.956	7923.42
621.151	7749.34
621.346	7857.89
621.541	7648.99
621.735	7698.14
621.93	7624.42
622.125	7612.13
622.32	7503.59
622.515	7429.86
622.709	7526.11
622.904	7636.7
623.099	7274.21
623.294	7493.35
623.488	7130.86
623.683	7374.56
623.878	7116.52
624.072	7225.06
624.267	7257.83
624.462	7147.24
624.656	6987.5
624.851	7005.93
625.046	6975.21
625.24	6860.52
625.435	6776.56
625.629	6694.64
625.824	6934.25
626.018	6786.8
626.213	6541.04
626.407	6758.13
626.602	6553.33
626.796	6698.74
626.991	6653.68
627.185	6627.06
627.38	6428.4
627.574	6403.83
627.768	6418.16
627.963	6498.03
628.157	6387.44
628.352	6387.44
628.546	6227.7
628.74	6301.43
628.935	6168.31
629.129	6217.46
629.323	6033.15
629.517	6041.34
629.712	5967.61
629.906	6022.91
630.1	6057.72
630.294	6172.41
630.489	6000.38
630.683	6139.64
630.877	5938.94
631.071	5781.25
631.265	5963.51
631.459	5875.45
631.653	5904.12
631.848	5814.01
632.042	5644.03
632.236	5836.54
632.43	5672.7
632.624	5742.33
632.818	5601.02
633.012	5664.51
633.206	5646.08
633.4	5705.47
633.594	5394.18
633.788	5345.03
633.982	5474.05
634.176	5494.53
634.369	5476.1
634.563	5308.16
634.757	5291.78
634.951	5279.49
635.145	5385.99
635.339	5388.04
635.533	5254.92
635.726	5357.32
635.92	5273.35
636.114	5150.47
636.308	5197.57
636.501	5033.74
636.695	5168.9
636.889	5007.11
637.083	4941.58
637.276	5089.03
637.47	4859.66
637.664	4828.94
637.857	5021.45
638.051	4781.84
638.244	4876.04
638.438	4740.88
638.632	4720.4
638.825	4718.35
639.019	4720.4
639.212	4687.63
639.406	4669.2
639.599	4591.38
639.793	4597.52
639.986	4652.81
640.18	4613.9
640.373	4615.95
640.567	4386.58
640.76	4454.16
640.954	4476.69
641.147	4316.95
641.34	4425.49
641.534	4437.78
641.727	4378.39
641.92	4304.66
642.114	4192.02
642.307	4267.8
642.5	4286.23
642.694	4179.73
642.887	4151.06
643.08	4194.07
643.273	4230.93
643.467	4183.83
643.66	4063
643.853	3929.88
644.046	3979.03
644.239	3884.83
644.432	3976.98
644.626	3823.39
644.819	3854.11
645.012	3964.7
645.205	3776.28
645.398	3764
645.591	3680.03
645.784	3843.87
645.977	3647.26
646.17	3821.34
646.363	3651.36
646.556	3657.5
646.749	3692.32
646.942	3573.53
647.135	3575.58
647.328	3604.25
647.521	3587.87
647.714	3551.01
647.907	3548.96
648.099	3508
648.292	3551.01
648.485	3469.09
648.678	3551.01
648.871	3319.59
649.064	3391.27
649.256	3362.59
649.449	3370.79
649.642	3204.9
649.835	3192.61
650.027	3155.75
650.22	3215.14
650.413	3217.19
650.605	3264.29
650.798	3084.07
650.991	3278.63
651.183	3227.43
651.376	2922.28
651.568	3118.89
651.761	2948.9
651.954	3030.82
652.146	3122.98
652.339	3002.15
652.531	3004.2
652.724	2930.47
652.916	2813.74
653.109	2922.28
653.301	2852.65
653.494	2832.17
653.686	2844.46
653.879	2938.66
654.071	2914.09
654.263	2713.39
654.456	2891.56
654.648	2686.76
654.84	2703.15
655.033	2627.37
655.225	2682.67
655.417	2817.83
655.61	2563.89
655.802	2635.57
655.994	2664.24
656.186	2699.05
656.379	2545.45
656.571	2449.2
656.763	2471.73
656.955	2471.73
657.148	2516.78
657.34	2408.24
657.532	2492.21
657.724	2422.58
657.916	2408.24
658.108	2352.95
658.3	2328.37
658.492	2428.72
658.684	2373.43
658.876	2449.2
659.068	2344.75
659.26	2248.5
659.452	2285.36
659.644	2283.31
659.836	2297.65
660.028	2250.55
660.22	2187.06
660.412	2172.72
660.604	2230.07
660.796	2139.96
660.988	2150.2
661.18	2219.83
661.372	2176.82
661.563	2166.58
661.755	2043.7
661.947	2094.9
662.139	2090.81
662.331	2064.18
662.522	2035.51
662.714	1955.64
662.906	1965.88
663.097	1965.88
663.289	1963.83
663.481	1906.49
663.673	2012.98
663.864	1814.33
664.056	1853.24
664.247	1980.22
664.439	1785.66
664.631	1869.62
664.822	1875.77
665.014	1740.6
665.205	1816.38
665.397	1814.33
665.588	1773.37
665.78	1898.3
665.971	1816.38
666.163	1845.05
666.354	1830.71
666.546	1728.31
666.737	1650.49
666.929	1713.98
667.12	1822.52
667.311	1701.69
667.503	1658.68
667.694	1695.55
667.885	1740.6
668.077	1650.49
668.268	1605.44
668.459	1716.03
668.651	1603.39
668.842	1662.78
669.033	1630.01
669.224	1587.01
669.416	1722.17
669.607	1550.14
669.798	1570.62
669.989	1619.77
670.18	1550.14
670.371	1564.48
670.563	1603.39
670.754	1615.68
670.945	1529.66
671.136	1623.87
671.327	1566.53
671.518	1548.09
671.709	1556.29
671.9	1525.57
672.091	1611.58
672.282	1533.76
672.473	1509.18
672.664	1417.02
672.855	1472.32
673.046	1531.71
673.237	1476.41
673.428	1474.37
673.619	1558.33
673.809	1476.41
674	1462.08
674.191	1509.18
674.382	1490.75
674.573	1582.91
674.764	1521.47
674.954	1566.53
675.145	1472.32
675.336	1419.07
675.527	1519.42
675.717	1517.37
675.908	1515.33
676.099	1466.17
676.289	1384.26
676.48	1363.78
676.671	1431.36
676.861	1425.22
677.052	1369.92
677.243	1443.65
677.433	1400.64
677.624	1474.37
677.814	1404.74
678.005	1435.46
678.195	1374.02
678.386	1353.54
678.576	1521.47
678.767	1431.36
678.957	1429.31
679.148	1435.46
679.338	1369.92
679.529	1460.03
679.719	1357.63
679.909	1435.46
680.1	1378.11
680.29	1369.92
680.481	1433.41
680.671	1367.87
680.861	1402.69
681.052	1357.63
681.242	1470.27
681.432	1398.59
681.622	1347.39
681.813	1353.54
682.003	1367.87
682.193	1382.21
682.383	1562.43
682.573	1412.93
682.764	1423.17
682.954	1357.63
683.144	1376.06
683.334	1390.4
683.524	1414.98
683.714	1419.07
683.904	1505.09
684.094	1382.21
684.284	1345.34
684.474	1421.12
684.664	1455.94
684.854	1490.75
685.044	1480.51
685.234	1306.43
685.424	1402.69
685.614	1394.5
685.804	1396.54
685.994	1357.63
686.184	1443.65
686.374	1341.25
686.564	1359.68
686.753	1439.55
686.943	1412.93
687.133	1390.4
687.323	1281.86
687.513	1427.26
687.702	1392.45
687.892	1316.67
688.082	1468.22
688.272	1445.7
688.461	1455.94
688.651	1478.46
688.841	1425.22
689.03	1427.26
689.22	1363.78
689.41	1423.17
689.599	1320.77
689.789	1484.61
689.979	1349.44
690.168	1349.44
690.358	1406.78
690.547	1320.77
690.737	1511.23
690.926	1449.79
691.116	1441.6
691.305	1421.12
691.495	1509.18
691.684	1439.55
691.874	1492.8
692.063	1435.46
692.252	1496.89
692.442	1541.95
692.631	1376.06
692.82	1466.17
693.01	1513.28
693.199	1507.13
693.388	1531.71
693.578	1472.32
693.767	1537.85
693.956	1445.7
694.146	1482.56
694.335	1464.13
694.524	1513.28
694.713	1490.75
694.902	1466.17
695.092	1638.2
695.281	1519.42
695.47	1554.24
695.659	1505.09
695.848	1480.51
696.037	1564.48
696.226	1486.65
696.415	1417.02
696.604	1556.29
696.793	1511.23
696.982	1552.19
697.171	1556.29
697.36	1580.86
697.549	1656.64
697.738	1533.76
697.927	1591.1
698.116	1466.17
698.305	1558.33
698.494	1537.85
698.683	1550.14
698.872	1570.62
699.061	1668.92
699.25	1511.23
699.438	1601.34
699.627	1570.62
699.816	1597.24
700.005	1548.09
700.193	1574.72
700.382	1560.38
700.571	1429.31
700.76	1568.57
700.948	1517.37
701.137	1556.29
701.326	1587.01
701.514	1472.32
701.703	1587.01
701.892	1521.47
702.08	1634.11
702.269	1615.68
702.457	1503.04
702.646	1470.27
702.834	1484.61
703.023	1492.8
703.212	1544
703.4	1619.77
703.589	1492.8
703.777	1601.34
703.965	1490.75
704.154	1527.61
704.342	1519.42
704.531	1521.47
704.719	1492.8
704.907	1533.76
705.096	1582.91
705.284	1566.53
705.472	1584.96
705.661	1525.57
705.849	1482.56
706.037	1572.67
706.226	1455.94
706.414	1525.57
706.602	1562.43
706.79	1544
706.979	1500.99
707.167	1498.94
707.355	1398.59
707.543	1476.41
707.731	1468.22
707.919	1390.4
708.107	1406.78
708.296	1488.7
708.484	1404.74
708.672	1462.08
708.86	1437.5
709.048	1429.31
709.236	1429.31
709.424	1496.89
709.612	1482.56
709.8	1427.26
709.988	1369.92
710.176	1437.5
710.364	1478.46
710.551	1380.16
710.739	1380.16
710.927	1478.46
711.115	1369.92
711.303	1419.07
711.491	1443.65
711.679	1404.74
711.866	1359.68
712.054	1320.77
712.242	1351.49
712.43	1392.45
712.617	1404.74
712.805	1333.06
712.993	1382.21
713.181	1331.01
713.368	1400.64
713.556	1374.02
713.744	1271.62
713.931	1320.77
714.119	1335.1
714.306	1386.3
714.494	1277.76
714.682	1345.34
714.869	1328.96
715.057	1255.23
715.244	1341.25
715.432	1308.48
715.619	1310.53
715.807	1331.01
715.994	1353.54
716.182	1259.33
716.369	1281.86
716.556	1322.82
716.744	1386.3
716.931	1312.58
717.119	1259.33
717.306	1236.8
717.493	1177.41
717.681	1253.19
717.868	1232.71
718.055	1290.05
718.242	1294.15
718.43	1204.03
718.617	1199.94
718.804	1242.95
718.991	1152.84
719.179	1193.8
719.366	1218.37
719.553	1247.04
719.74	1179.46
719.927	1259.33
720.114	1232.71
720.301	1197.89
720.488	1244.99
720.676	1136.45
720.863	1238.85
721.05	1185.6
721.237	1148.74
721.424	1132.36
721.611	1171.27
721.798	1152.84
721.985	1107.78
722.172	1054.53
722.358	1070.92
722.545	1144.64
722.732	1142.6
722.919	1034.05
723.106	1093.44
723.293	1077.06
723.48	1048.39
723.667	1107.78
723.853	1042.25
724.04	1126.21
724.227	1095.49
724.414	1187.65
724.6	1056.58
724.787	1144.64
724.974	1075.01
725.161	1154.88
725.347	1087.3
725.534	1085.25
725.72	1015.62
725.907	1079.11
726.094	1105.73
726.28	1034.05
726.467	1189.7
726.653	1148.74
726.84	1118.02
727.027	1079.11
727.213	980.81
727.4	999.24
727.586	1013.57
727.773	997.19
727.959	1007.43
728.145	984.9
728.332	1091.4
728.518	1070.92
728.705	986.95
728.891	1019.72
729.077	1029.96
729.264	1003.33
729.45	1023.81
729.636	1077.06
729.823	1052.49
730.009	1011.53
730.195	986.95
730.382	1050.44
730.568	984.9
730.754	978.76
730.94	978.76
731.126	919.37
731.313	902.98
731.499	900.94
731.685	898.89
731.871	1025.86
732.057	919.37
732.243	964.42
732.429	931.66
732.615	976.71
732.801	1003.33
732.987	968.52
733.173	937.8
733.359	968.52
733.545	976.71
733.731	925.51
733.917	948.04
734.103	886.6
734.289	952.13
734.475	886.6
734.661	921.42
734.847	931.66
735.033	991.05
735.219	917.32
735.404	880.46
735.59	995.14
735.776	925.51
735.962	880.46
736.148	925.51
736.333	882.5
736.519	855.88
736.705	806.73
736.89	874.31
737.076	972.61
737.262	896.84
737.447	859.98
737.633	870.22
737.819	884.55
738.004	827.21
738.19	870.22
738.375	890.7
738.561	745.29
738.747	841.54
738.932	825.16
739.118	855.88
739.303	851.78
739.489	792.39
739.674	831.3
739.859	868.17
740.045	743.24
740.23	788.3
740.416	831.3
740.601	872.26
740.786	757.58
740.972	837.45
741.157	739.15
741.342	741.19
741.528	763.72
741.713	806.73
741.898	874.31
742.084	862.02
742.269	751.43
742.454	784.2
742.639	847.69
742.824	773.96
743.01	827.21
743.195	833.35
743.38	745.29
743.565	837.45
743.75	743.24
743.935	757.58
744.12	804.68
744.305	796.49
744.49	714.57
744.675	819.02
744.86	749.39
745.045	735.05
745.23	827.21
745.415	737.1
745.6	735.05
745.785	722.76
745.97	757.58
746.155	833.35
746.34	714.57
746.525	739.15
746.71	626.51
746.895	620.36
747.079	687.95
747.264	667.47
747.449	669.52
747.634	700.23
747.819	710.47
748.003	644.94
748.188	577.36
748.373	704.33
748.557	694.09
748.742	638.8
748.927	624.46
749.111	642.89
749.296	608.08
749.481	655.18
749.665	638.8
749.85	583.5
750.034	669.52
750.219	626.51
750.404	653.13
750.588	644.94
750.773	640.84
750.957	571.21
751.141	585.55
751.326	569.16
751.51	591.69
751.695	591.69
751.879	524.11
752.064	530.25
752.248	556.88
752.432	616.27
752.617	644.94
752.801	544.59
752.985	614.22
753.17	552.78
753.354	585.55
753.538	493.39
753.722	524.11
753.907	509.77
754.091	431.95
754.275	593.74
754.459	503.63
754.643	530.25
754.828	509.77
755.012	499.53
755.196	517.97
755.38	552.78
755.564	481.1
755.748	544.59
755.932	522.06
756.116	534.35
756.3	575.31
756.484	513.87
756.668	522.06
756.852	515.92
757.036	448.33
757.22	466.77
757.404	513.87
757.588	483.15
757.772	462.67
757.956	489.29
758.14	397.14
758.323	493.39
758.507	395.09
758.691	454.48
758.875	436.05
759.059	423.76
759.242	421.71
759.426	431.95
759.61	479.05
759.794	493.39
759.977	517.97
760.161	448.33
760.345	419.66
760.528	495.44
760.712	485.2
760.895	393.04
761.079	446.29
761.263	466.77
761.446	364.37
761.63	329.55
761.813	448.33
761.997	380.75
762.18	386.9
762.364	462.67
762.547	446.29
762.731	378.7
762.914	419.66
763.098	372.56
763.281	372.56
763.464	399.18
763.648	397.14
763.831	335.7
764.015	309.07
764.198	479.05
764.381	409.42
764.564	405.33
764.748	415.57
764.931	364.37
765.114	358.22
765.297	329.55
765.481	337.74
765.664	309.07
765.847	407.38
766.03	390.99
766.213	329.55
766.397	335.7
766.58	356.18
766.763	411.47
766.946	446.29
767.129	315.22
767.312	358.22
767.495	397.14
767.678	249.68
767.861	329.55
768.044	315.22
768.227	378.7
768.41	448.33
768.593	343.89
768.776	315.22
768.959	362.32
769.142	397.14
769.324	327.5
769.507	343.89
769.69	360.27
769.873	327.5
770.056	390.99
770.239	317.26
770.421	401.23
770.604	368.46
770.787	358.22
770.97	399.18
771.152	372.56
771.335	352.08
771.518	333.65
771.7	358.22
771.883	290.64
772.066	261.97
772.248	431.95
772.431	350.03
772.613	370.51
772.796	358.22
772.978	347.98
773.161	319.31
773.343	284.5
773.526	325.46
773.708	380.75
773.891	286.54
774.073	272.21
774.256	294.74
774.438	300.88
774.621	319.31
774.803	272.21
774.985	237.39
775.168	335.7
775.35	300.88
775.532	229.2
775.715	302.93
775.897	204.63
776.079	221.01
776.261	292.69
776.444	282.45
776.626	282.45
776.808	264.02
776.99	282.45
777.173	216.91
777.355	354.13
777.537	276.31
777.719	266.07
777.901	311.12
778.083	257.87
778.265	253.78
778.447	247.63
778.629	241.49
778.811	327.5
778.993	259.92
779.175	231.25
779.357	233.3
779.539	227.15
779.721	272.21
779.903	202.58
780.085	169.81
780.267	233.3
780.449	208.72
780.631	251.73
780.812	253.78
780.994	266.07
781.176	247.63
781.358	239.44
781.54	206.67
781.721	231.25
781.903	223.06
782.085	202.58
782.267	280.4
782.448	274.26
782.63	245.59
782.812	216.91
782.993	161.62
783.175	165.71
783.357	227.15
783.538	261.97
783.72	229.2
783.901	175.95
784.083	245.59
784.264	206.67
784.446	196.43
784.627	159.57
784.809	264.02
784.99	175.95
785.172	192.34
785.353	239.44
785.535	190.29
785.716	208.72
785.897	235.35
786.079	184.15
786.26	137.04
786.441	153.43
786.623	100.18
786.804	157.52
786.985	157.52
787.167	184.15
787.348	153.43
787.529	175.95
787.71	239.44
787.891	139.09
788.073	198.48
788.254	89.94
788.435	149.33
788.616	210.77
788.797	141.14
788.978	155.47
789.159	202.58
789.34	79.7
789.522	157.52
789.703	171.86
789.884	196.43
790.065	200.53
790.246	116.56
790.427	135
790.607	128.85
790.788	231.25
790.969	126.8
791.15	190.29
791.331	182.1
791.512	149.33
791.693	153.43
791.874	110.42
792.054	135
792.235	194.39
792.416	132.95
792.597	231.25
792.778	196.43
792.958	190.29
793.139	151.38
793.32	188.24
793.5	104.28
793.681	171.86
793.862	145.24
794.042	89.94
794.223	110.42
794.404	79.7
794.584	116.56
794.765	79.7
794.945	120.66
795.126	114.52
795.306	116.56
795.487	83.8
795.667	171.86
795.848	120.66
796.028	141.14
796.209	130.9
796.389	77.65
796.57	128.85
796.75	120.66
796.93	112.47
797.111	163.67
797.291	167.76
797.471	79.7
797.652	102.23
797.832	98.13
798.012	163.67
798.192	151.38
798.373	96.08
798.553	96.08
798.733	73.56
798.913	100.18
799.093	184.15
799.274	32.6
799.454	151.38
799.634	94.04
799.814	61.27
799.994	89.94
800.174	139.09
800.354	-10.41
800.534	184.15
800.714	77.65
800.894	137.04
801.074	59.22
801.254	89.94
801.434	110.42
801.614	118.61
801.794	81.75
801.974	270.16
802.154	153.43
802.334	106.32
802.514	118.61
802.693	106.32
802.873	46.93
803.053	108.37
803.233	118.61
803.413	169.81
803.592	77.65
803.772	38.74
803.952	38.74
804.131	106.32
804.311	12.12
804.491	98.13
804.67	77.65
804.85	75.6
805.03	89.94
805.209	167.76
805.389	128.85
805.568	46.93
805.748	57.17
805.928	118.61
806.107	32.6
806.287	73.56
806.466	106.32
806.646	61.27
806.825	75.6
807.004	73.56
807.184	69.46
807.363	94.04
807.543	106.32
807.722	89.94
807.901	40.79
808.081	42.84
808.26	-30.89
808.439	67.41
808.619	42.84
808.798	91.99
808.977	20.31
809.156	106.32
809.336	18.26
809.515	120.66
809.694	24.4
809.873	12.12
810.052	57.17
810.231	75.6
810.411	38.74
810.59	149.33
810.769	69.46
810.948	135
811.127	67.41
811.306	120.66
811.485	59.22
811.664	48.98
811.843	96.08
812.022	55.12
812.201	75.6
812.38	98.13
812.559	104.28
812.737	94.04
812.916	59.22
813.095	79.7
813.274	55.12
813.453	34.64
813.632	83.8
813.811	59.22
813.989	71.51
814.168	46.93
814.347	32.6
814.526	98.13
814.704	118.61
814.883	44.88
815.062	67.41
815.24	57.17
815.419	89.94
815.598	71.51
815.776	57.17
815.955	18.26
816.133	42.84
816.312	34.64
816.49	26.45
816.669	81.75
816.847	79.7
817.026	65.36
817.204	63.32
817.383	110.42
817.561	-55.47
817.74	87.89
817.918	81.75
818.097	65.36
818.275	34.64
818.453	108.37
818.632	106.32
818.81	44.88
818.988	3.93
819.167	81.75
819.345	71.51
819.523	53.08
819.701	-28.84
819.879	141.14
820.058	46.93
820.236	59.22
820.414	36.69
820.592	126.8
820.77	-41.13
820.948	59.22
821.127	137.04
821.305	85.84
821.483	79.7
821.661	71.51
821.839	89.94
822.017	-4.27
822.195	91.99
822.373	18.26
822.551	10.07
822.729	65.36
822.907	83.8
823.085	65.36
823.262	-0.17
823.44	91.99
823.618	73.56
823.796	34.64
823.974	73.56
824.152	32.6
824.329	91.99
824.507	-18.6
824.685	-41.13
824.863	-6.31
825.04	51.03
825.218	-4.27
825.396	22.36
825.574	83.8
825.751	61.27
825.929	46.93
826.107	14.17
826.284	38.74
826.462	18.26
826.639	57.17
826.817	24.4
826.994	24.4
827.172	-2.22
827.349	79.7
827.527	1.88
827.704	91.99
827.882	61.27
828.059	30.55
828.237	75.6
828.414	81.75
828.591	-6.31
828.769	30.55
828.946	89.94
829.124	48.98
829.301	40.79
829.478	71.51
829.655	10.07
829.833	16.21
830.01	1.88
830.187	53.08
830.364	46.93
830.542	81.75
830.719	48.98
830.896	59.22
831.073	-16.55
831.25	32.6
831.427	38.74
831.604	53.08
831.782	24.4
831.959	71.51
832.136	40.79
832.313	5.97
832.49	8.02
832.667	40.79
832.844	5.97
833.021	-10.41
833.198	14.17
833.374	3.93
833.551	22.36
833.728	79.7
833.905	-32.94
834.082	20.31
834.259	61.27
834.436	46.93
834.612	42.84
834.789	53.08
834.966	61.27
835.143	44.88
835.319	-24.75
835.496	12.12
835.673	-2.22
835.85	18.26
836.026	59.22
836.203	18.26
836.38	18.26
836.556	10.07
836.733	16.21
836.909	51.03
837.086	51.03
837.262	73.56
837.439	38.74
837.616	-2.22
837.792	20.31
837.968	-16.55
838.145	-61.61
838.321	-0.17
838.498	-30.89
838.674	69.46
838.851	-14.51
839.027	34.64
839.203	34.64
839.38	98.13
839.556	28.5
839.732	12.12
839.909	10.07
840.085	-6.31
840.261	-2.22
840.437	42.84
840.614	14.17
840.79	79.7
840.966	42.84
841.142	44.88
841.318	-2.22
841.494	20.31
841.671	46.93
841.847	44.88
842.023	12.12
842.199	59.22
842.375	-8.36
842.551	-4.27
842.727	-6.31
842.903	38.74
843.079	57.17
843.255	61.27
843.431	20.31
843.607	53.08
843.783	-24.75
843.959	-24.75
844.134	-41.13
844.31	8.02
844.486	73.56
844.662	14.17
844.838	16.21
845.013	55.12
845.189	-2.22
845.365	12.12
845.541	55.12
845.716	-16.55
845.892	18.26
846.068	73.56
846.244	34.64
846.419	-18.6
846.595	26.45
846.77	22.36
846.946	24.4
847.122	75.6
847.297	106.32
847.473	53.08
847.648	38.74
847.824	63.32
847.999	-14.51
848.175	14.17
848.35	28.5
848.526	-24.75
848.701	-28.84
848.876	3.93
849.052	-12.46
849.227	57.17
849.403	24.4
849.578	-30.89
849.753	10.07
849.929	40.79
850.104	8.02
850.279	28.5
850.454	5.97
850.63	16.21
850.805	30.55
850.98	51.03
851.155	34.64
851.33	71.51
851.505	38.74
851.681	-8.36
851.856	26.45
852.031	24.4
852.206	16.21
852.381	32.6
852.556	20.31
852.731	-10.41
852.906	-14.51
853.081	36.69
853.256	14.17
853.431	-8.36
853.606	-2.22
853.781	42.84
853.956	-6.31
854.131	61.27
854.305	59.22
854.48	22.36
854.655	87.89
854.83	18.26
855.005	96.08
855.18	-4.27
855.354	8.02
855.529	38.74
855.704	-30.89
855.879	-22.7
856.053	-8.36
856.228	61.27
856.403	22.36
856.577	18.26
856.752	51.03
856.926	53.08
857.101	12.12
857.276	1.88
857.45	59.22
857.625	5.97
857.799	18.26
857.974	38.74
858.148	26.45
858.323	-6.31
858.497	14.17
858.672	55.12
858.846	24.4
859.02	59.22
859.195	-30.89
859.369	26.45
859.543	-22.7
859.718	20.31
859.892	10.07
860.066	-20.65
860.241	26.45
860.415	-20.65
860.589	14.17
860.763	20.31
860.938	28.5
861.112	34.64
861.286	10.07
861.46	-14.51
861.634	10.07
861.808	69.46
861.982	-16.55
862.157	34.64
862.331	-2.22
862.505	63.32
862.679	-47.27
862.853	-22.7
863.027	1.88
863.201	69.46
863.375	-4.27
863.549	18.26
863.722	-10.41
863.896	3.93
864.07	38.74
864.244	51.03
864.418	-28.84
864.592	10.07
864.766	-22.7
864.939	16.21
865.113	32.6
865.287	26.45
865.461	-59.56
865.634	-43.18
865.808	116.56
865.982	53.08
866.156	-22.7
866.329	-28.84
866.503	28.5
866.676	-49.32
866.85	67.41
867.024	24.4
867.197	-14.51
867.371	-18.6
867.544	77.65
867.718	-4.27
867.891	-20.65
868.065	32.6
868.238	-30.89
868.412	94.04
868.585	-2.22
868.759	-53.42
868.932	10.07
869.105	14.17
869.279	-2.22
869.452	14.17
869.625	-10.41
869.799	10.07
869.972	3.93
870.145	69.46
870.319	36.69
870.492	5.97
870.665	-32.94
870.838	26.45
871.011	-2.22
871.185	-24.75
871.358	8.02
871.531	-10.41
871.704	12.12
871.877	87.89
872.05	1.88
872.223	1.88
872.396	-41.13
872.569	-61.61
872.742	-20.65
872.915	18.26
873.088	-16.55
873.261	22.36
873.434	-30.89
873.607	-14.51
873.78	1.88
873.953	8.02
874.126	38.74
874.299	-32.94
874.471	104.28
874.644	-51.37
874.817	40.79
874.99	16.21
875.163	-30.89
875.335	10.07
875.508	-49.32
875.681	-34.99
875.853	32.6
876.026	-94.38
876.199	38.74
876.371	-2.22
876.544	-37.03
876.717	32.6
876.889	-10.41
877.062	-30.89
877.234	16.21
877.407	22.36
877.579	-34.99
877.752	34.64
877.924	-12.46
878.097	65.36
878.269	5.97
878.442	-12.46
878.614	5.97
878.786	3.93
878.959	24.4
879.131	36.69
879.303	-28.84
879.476	16.21
879.648	-8.36
879.82	38.74
879.993	-8.36
880.165	-6.31
880.337	-47.27
880.509	5.97
880.681	53.08
880.854	-37.03
881.026	-12.46
881.198	55.12
881.37	12.12
881.542	22.36
881.714	30.55
881.886	51.03
882.058	-47.27
882.23	-34.99
882.402	1.88
882.574	-12.46
882.746	-22.7
882.918	102.23
883.09	-34.99
883.262	-12.46
883.434	-53.42
883.606	-2.22
883.778	-57.51
883.95	102.23
884.122	-4.27
884.293	28.5
884.465	-16.55
884.637	10.07
884.809	-14.51
884.98	81.75
885.152	40.79
885.324	-14.51
885.496	81.75
885.667	14.17
885.839	122.71
886.011	1.88
886.182	-20.65
886.354	1.88
886.525	24.4
886.697	-2.22
886.869	-41.13
887.04	22.36
887.212	-18.6
887.383	-10.41
887.555	-61.61
887.726	40.79
887.897	-28.84
888.069	61.27
888.24	-26.79
888.412	-4.27
888.583	-37.03
888.754	44.88
888.926	-8.36
889.097	-28.84
889.268	-18.6
889.44	-26.79
889.611	30.55
889.782	18.26
889.953	-61.61
890.125	53.08
890.296	61.27
890.467	-20.65
890.638	55.12
890.809	3.93
890.98	-67.75
891.151	-0.17
891.323	79.7
891.494	-37.03
891.665	8.02
891.836	20.31
892.007	28.5
892.178	30.55
892.349	-12.46
892.52	5.97
892.691	-37.03
892.862	5.97
893.032	32.6
893.203	30.55
893.374	-28.84
893.545	65.36
893.716	-32.94
893.887	20.31
894.057	1.88
894.228	79.7
894.399	32.6
894.57	59.22
894.74	-8.36
894.911	3.93
895.082	40.79
895.253	51.03
895.423	73.56
895.594	26.45
895.764	34.64
895.935	-10.41
896.106	51.03
896.276	-59.56
896.447	-6.31
896.617	46.93
896.788	-6.31
896.958	73.56
897.129	18.26
897.299	71.51
897.47	-10.41
897.64	69.46
897.81	36.69
897.981	-53.42
898.151	65.36
898.322	-34.99
898.492	-61.61
898.662	-59.56
898.832	32.6
899.003	42.84
899.173	42.84
899.343	38.74
899.513	104.28
