Data from USB4F104151__235__14-00-51-358.txt Node

Date: Thu Mar 13 14:00:51 EDT 2025
User: louis
Spectrometer: USB4F10415
Trigger mode: 4
Integration Time (sec): 1.000000E-2
Scans to average: 1
Electric dark correction enabled: true
Nonlinearity correction enabled: false
Boxcar width: 0
XAxis mode: Wavelengths
Number of Pixels in Spectrum: 3648
>>>>>Begin Spectral Data<<<<<
178.204	-139.09
178.424	-139.09
178.644	-139.09
178.864	-114.52
179.084	-24.4
179.304	-18.26
179.524	-3.93
179.744	43.18
179.964	45.23
180.184	-8.02
180.404	-3.93
180.624	2.22
180.844	18.6
181.064	-55.12
181.283	-24.4
181.503	-3.93
181.723	8.36
181.943	-22.36
182.163	-53.08
182.383	-3.93
182.602	-16.21
182.822	-53.08
183.042	41.13
183.262	-57.17
183.482	34.99
183.701	2.22
183.921	6.31
184.141	30.89
184.361	-8.02
184.58	16.55
184.8	43.18
185.02	-42.84
185.239	-22.36
185.459	67.75
185.679	-12.12
185.898	-38.74
186.118	16.55
186.338	-3.93
186.557	-18.26
186.777	67.75
186.997	2.22
187.216	96.43
187.436	20.65
187.655	57.51
187.875	-16.21
188.095	43.18
188.314	-63.32
188.534	-38.74
188.753	-30.55
188.973	20.65
189.192	41.13
189.412	0.17
189.631	8.36
189.851	82.09
190.07	-1.88
190.29	37.03
190.509	16.55
190.729	-30.55
190.948	45.23
191.168	39.08
191.387	51.37
191.607	-34.64
191.826	49.32
192.045	2.22
192.265	-38.74
192.484	-32.6
192.704	96.43
192.923	51.37
193.142	51.37
193.362	-34.64
193.581	18.6
193.8	-26.45
194.02	20.65
194.239	18.6
194.458	34.99
194.678	-63.32
194.897	20.65
195.116	-32.6
195.335	18.6
195.555	-10.07
195.774	-20.31
195.993	-28.5
196.212	-8.02
196.432	-5.97
196.651	8.36
196.87	-1.88
197.089	88.23
197.308	-22.36
197.528	22.7
197.747	28.84
197.966	-51.03
198.185	-67.41
198.404	41.13
198.623	39.08
198.842	18.6
199.062	71.85
199.281	16.55
199.5	-46.93
199.719	2.22
199.938	-55.12
200.157	-42.84
200.376	41.13
200.595	-42.84
200.814	32.94
201.033	30.89
201.252	-18.26
201.471	34.99
201.69	16.55
201.909	59.56
202.128	8.36
202.347	-89.94
202.566	-24.4
202.785	-5.97
203.004	-8.02
203.223	8.36
203.442	-10.07
203.661	67.75
203.879	41.13
204.098	-3.93
204.317	12.46
204.536	-3.93
204.755	10.41
204.974	30.89
205.193	26.79
205.411	63.66
205.63	16.55
205.849	41.13
206.068	16.55
206.287	43.18
206.505	47.27
206.724	65.71
206.943	41.13
207.162	-24.4
207.381	-30.55
207.599	10.41
207.818	16.55
208.037	16.55
208.255	10.41
208.474	-16.21
208.693	-36.69
208.911	22.7
209.13	-55.12
209.349	41.13
209.567	41.13
209.786	4.27
210.005	14.51
210.223	-48.98
210.442	51.37
210.661	-3.93
210.879	-38.74
211.098	-55.12
211.316	-55.12
211.535	92.33
211.753	16.55
211.972	14.51
212.191	18.6
212.409	-36.69
212.628	28.84
212.846	43.18
213.065	-48.98
213.283	20.65
213.502	67.75
213.72	-63.32
213.938	-14.17
214.157	30.89
214.375	-28.5
214.594	10.41
214.812	-20.31
215.031	16.55
215.249	-32.6
215.467	-34.64
215.686	-18.26
215.904	49.32
216.122	2.22
216.341	51.37
216.559	-16.21
216.778	12.46
216.996	24.75
217.214	73.9
217.432	6.31
217.651	39.08
217.869	-91.99
218.087	-3.93
218.306	-30.55
218.524	69.8
218.742	-22.36
218.96	67.75
219.179	-20.31
219.397	-40.79
219.615	16.55
219.833	41.13
220.051	-10.07
220.27	67.75
220.488	39.08
220.706	-48.98
220.924	0.17
221.142	-5.97
221.36	14.51
221.578	28.84
221.796	-16.21
222.015	-16.21
222.233	-30.55
222.451	8.36
222.669	14.51
222.887	0.17
223.105	-38.74
223.323	14.51
223.541	6.31
223.759	16.55
223.977	-40.79
224.195	8.36
224.413	-61.27
224.631	65.71
224.849	-40.79
225.067	-12.12
225.285	-32.6
225.503	8.36
225.721	2.22
225.939	34.99
226.157	-53.08
226.375	67.75
226.592	-32.6
226.81	24.75
227.028	-85.84
227.246	-8.02
227.464	10.41
227.682	57.51
227.9	69.8
228.117	45.23
228.335	20.65
228.553	102.57
228.771	-63.32
228.989	84.14
229.206	-12.12
229.424	137.38
229.642	-5.97
229.86	82.09
230.077	-14.17
230.295	73.9
230.513	12.46
230.731	4.27
230.948	30.89
231.166	16.55
231.384	-36.69
231.601	8.36
231.819	-46.93
232.037	-40.79
232.254	2.22
232.472	-1.88
232.689	-20.31
232.907	-38.74
233.125	65.71
233.342	-24.4
233.56	37.03
233.777	75.95
233.995	39.08
234.213	0.17
234.43	8.36
234.648	-14.17
234.865	26.79
235.083	6.31
235.3	10.41
235.518	26.79
235.735	24.75
235.953	-8.02
236.17	24.75
236.388	16.55
236.605	8.36
236.822	-16.21
237.04	-24.4
237.257	18.6
237.475	24.75
237.692	-22.36
237.909	18.6
238.127	37.03
238.344	-34.64
238.562	59.56
238.779	34.99
238.996	-16.21
239.214	-22.36
239.431	-65.36
239.648	26.79
239.865	-16.21
240.083	-30.55
240.3	2.22
240.517	51.37
240.735	96.43
240.952	28.84
241.169	41.13
241.386	61.61
241.603	-24.4
241.821	-16.21
242.038	-48.98
242.255	2.22
242.472	-34.64
242.689	16.55
242.907	100.52
243.124	32.94
243.341	34.99
243.558	-16.21
243.775	-63.32
243.992	-38.74
244.209	10.41
244.426	-16.21
244.643	-1.88
244.86	0.17
245.078	0.17
245.295	-61.27
245.512	-28.5
245.729	-34.64
245.946	108.71
246.163	-30.55
246.38	-18.26
246.597	-32.6
246.814	14.51
247.031	8.36
247.248	47.27
247.464	20.65
247.681	18.6
247.898	-20.31
248.115	-26.45
248.332	-108.37
248.549	43.18
248.766	-24.4
248.983	0.17
249.2	16.55
249.417	-5.97
249.633	18.6
249.85	6.31
250.067	6.31
250.284	24.75
250.501	-34.64
250.717	-8.02
250.934	18.6
251.151	49.32
251.368	-55.12
251.585	22.7
251.801	47.27
252.018	-44.88
252.235	-32.6
252.451	86.19
252.668	65.71
252.885	10.41
253.102	30.89
253.318	-28.5
253.535	0.17
253.752	-38.74
253.968	-53.08
254.185	-40.79
254.401	-32.6
254.618	-30.55
254.835	-18.26
255.051	10.41
255.268	-30.55
255.484	-5.97
255.701	-32.6
255.917	20.65
256.134	-40.79
256.351	24.75
256.567	18.6
256.784	-8.02
257	34.99
257.217	-57.17
257.433	45.23
257.65	8.36
257.866	37.03
258.082	-96.08
258.299	-8.02
258.515	-38.74
258.732	96.43
258.948	4.27
259.165	4.27
259.381	20.65
259.597	-1.88
259.814	8.36
260.03	-14.17
260.246	0.17
260.463	-40.79
260.679	6.31
260.895	18.6
261.112	34.99
261.328	34.99
261.544	80.04
261.761	12.46
261.977	12.46
262.193	-22.36
262.409	32.94
262.626	-1.88
262.842	24.75
263.058	41.13
263.274	4.27
263.49	-57.17
263.707	24.75
263.923	51.37
264.139	-65.36
264.355	45.23
264.571	2.22
264.787	-44.88
265.004	14.51
265.22	-32.6
265.436	14.51
265.652	-24.4
265.868	10.41
266.084	-79.7
266.3	104.62
266.516	-22.36
266.732	-14.17
266.948	43.18
267.164	12.46
267.38	10.41
267.596	4.27
267.812	-1.88
268.028	30.89
268.244	-14.17
268.46	-44.88
268.676	-5.97
268.892	-34.64
269.108	8.36
269.324	61.61
269.54	-24.4
269.756	0.17
269.972	2.22
270.188	-32.6
270.403	-8.02
270.619	-3.93
270.835	16.55
271.051	10.41
271.267	-36.69
271.483	-81.75
271.698	-18.26
271.914	8.36
272.13	-14.17
272.346	-3.93
272.562	10.41
272.777	6.31
272.993	-14.17
273.209	-1.88
273.425	-8.02
273.64	8.36
273.856	34.99
274.072	-24.4
274.287	22.7
274.503	2.22
274.719	-26.45
274.934	75.95
275.15	45.23
275.366	22.7
275.581	-5.97
275.797	-8.02
276.012	18.6
276.228	-20.31
276.444	16.55
276.659	12.46
276.875	45.23
277.09	57.51
277.306	24.75
277.521	34.99
277.737	4.27
277.952	24.75
278.168	32.94
278.383	2.22
278.599	-34.64
278.814	0.17
279.03	-12.12
279.245	0.17
279.461	-30.55
279.676	53.42
279.892	12.46
280.107	41.13
280.322	-8.02
280.538	-1.88
280.753	-1.88
280.969	88.23
281.184	-1.88
281.399	6.31
281.615	73.9
281.83	-16.21
282.045	-8.02
282.26	-30.55
282.476	-32.6
282.691	-20.31
282.906	28.84
283.122	49.32
283.337	-36.69
283.552	43.18
283.767	34.99
283.983	43.18
284.198	14.51
284.413	-14.17
284.628	2.22
284.843	41.13
285.058	30.89
285.274	6.31
285.489	49.32
285.704	14.51
285.919	-38.74
286.134	67.75
286.349	-59.22
286.564	32.94
286.779	32.94
286.995	73.9
287.21	14.51
287.425	32.94
287.64	-44.88
287.855	-18.26
288.07	-18.26
288.285	37.03
288.5	73.9
288.715	28.84
288.93	73.9
289.145	75.95
289.36	-59.22
289.575	32.94
289.79	43.18
290.004	8.36
290.219	-5.97
290.434	-5.97
290.649	-26.45
290.864	34.99
291.079	14.51
291.294	24.75
291.509	8.36
291.724	-8.02
291.938	-28.5
292.153	65.71
292.368	-24.4
292.583	24.75
292.798	-10.07
293.012	2.22
293.227	20.65
293.442	-48.98
293.657	43.18
293.871	-8.02
294.086	61.61
294.301	2.22
294.516	-8.02
294.73	-1.88
294.945	-28.5
295.16	-14.17
295.374	82.09
295.589	-16.21
295.804	-40.79
296.018	24.75
296.233	2.22
296.447	43.18
296.662	-20.31
296.877	61.61
297.091	90.28
297.306	-57.17
297.52	69.8
297.735	12.46
297.949	-55.12
298.164	-79.7
298.378	22.7
298.593	71.85
298.807	-34.64
299.022	-65.36
299.236	-16.21
299.451	-38.74
299.665	-5.97
299.88	14.51
300.094	55.47
300.309	10.41
300.523	67.75
300.737	63.66
300.952	4.27
301.166	77.99
301.381	45.23
301.595	65.71
301.809	-65.36
302.024	39.08
302.238	51.37
302.452	-24.4
302.667	-42.84
302.881	86.19
303.095	-12.12
303.309	24.75
303.524	14.51
303.738	55.47
303.952	-12.12
304.166	-8.02
304.381	12.46
304.595	-20.31
304.809	-42.84
305.023	6.31
305.237	8.36
305.452	32.94
305.666	-69.46
305.88	6.31
306.094	18.6
306.308	-8.02
306.522	22.7
306.736	16.55
306.95	71.85
307.164	14.51
307.379	6.31
307.593	2.22
307.807	6.31
308.021	16.55
308.235	6.31
308.449	-34.64
308.663	57.51
308.877	67.75
309.091	51.37
309.305	-69.46
309.519	-42.84
309.733	37.03
309.947	-55.12
310.161	41.13
310.374	8.36
310.588	49.32
310.802	6.31
311.016	-12.12
311.23	-20.31
311.444	24.75
311.658	16.55
311.872	41.13
312.085	49.32
312.299	73.9
312.513	57.51
312.727	-34.64
312.941	-22.36
313.154	39.08
313.368	-8.02
313.582	-16.21
313.796	-10.07
314.009	65.71
314.223	41.13
314.437	-5.97
314.651	12.46
314.864	-32.6
315.078	32.94
315.292	92.33
315.505	28.84
315.719	16.55
315.933	-8.02
316.146	71.85
316.36	2.22
316.573	24.75
316.787	-38.74
317.001	-12.12
317.214	-36.69
317.428	-12.12
317.641	73.9
317.855	-22.36
318.068	22.7
318.282	12.46
318.495	84.14
318.709	-53.08
318.922	43.18
319.136	4.27
319.349	24.75
319.563	67.75
319.776	16.55
319.99	-16.21
320.203	-32.6
320.417	-28.5
320.63	-40.79
320.843	51.37
321.057	16.55
321.27	28.84
321.483	8.36
321.697	77.99
321.91	41.13
322.124	26.79
322.337	-28.5
322.55	10.41
322.763	16.55
322.977	41.13
323.19	53.42
323.403	-32.6
323.617	57.51
323.83	49.32
324.043	39.08
324.256	-36.69
324.469	-38.74
324.683	49.32
324.896	-28.5
325.109	-16.21
325.322	55.47
325.535	-24.4
325.748	6.31
325.962	2.22
326.175	26.79
326.388	16.55
326.601	34.99
326.814	34.99
327.027	-12.12
327.24	47.27
327.453	-51.03
327.666	18.6
327.879	26.79
328.092	4.27
328.305	65.71
328.518	73.9
328.731	41.13
328.944	-10.07
329.157	57.51
329.37	-12.12
329.583	61.61
329.796	41.13
330.009	71.85
330.222	26.79
330.435	-20.31
330.648	49.32
330.861	12.46
331.073	-36.69
331.286	37.03
331.499	2.22
331.712	-14.17
331.925	55.47
332.138	-46.93
332.35	24.75
332.563	-46.93
332.776	26.79
332.989	32.94
333.202	18.6
333.414	41.13
333.627	14.51
333.84	-10.07
334.053	-24.4
334.265	16.55
334.478	47.27
334.691	-30.55
334.903	2.22
335.116	82.09
335.329	53.42
335.541	24.75
335.754	41.13
335.966	20.65
336.179	51.37
336.392	16.55
336.604	0.17
336.817	34.99
337.029	-24.4
337.242	16.55
337.454	18.6
337.667	-48.98
337.88	-28.5
338.092	-96.08
338.305	4.27
338.517	6.31
338.729	53.42
338.942	49.32
339.154	82.09
339.367	53.42
339.579	2.22
339.792	-26.45
340.004	-5.97
340.217	28.84
340.429	26.79
340.641	16.55
340.854	-3.93
341.066	-22.36
341.278	37.03
341.491	-24.4
341.703	8.36
341.915	0.17
342.128	12.46
342.34	-14.17
342.552	-24.4
342.764	-32.6
342.977	98.47
343.189	24.75
343.401	28.84
343.613	-1.88
343.826	-24.4
344.038	-20.31
344.25	-1.88
344.462	30.89
344.674	28.84
344.886	26.79
345.099	-1.88
345.311	32.94
345.523	59.56
345.735	16.55
345.947	24.75
346.159	10.41
346.371	14.51
346.583	-98.13
346.795	80.04
347.007	-24.4
347.219	28.84
347.431	-8.02
347.643	-5.97
347.855	75.95
348.067	-40.79
348.279	-51.03
348.491	-24.4
348.703	-40.79
348.915	-8.02
349.127	34.99
349.339	41.13
349.551	-67.41
349.763	0.17
349.975	-44.88
350.187	0.17
350.399	37.03
350.61	49.32
350.822	16.55
351.034	-44.88
351.246	-20.31
351.458	-30.55
351.669	-14.17
351.881	34.99
352.093	14.51
352.305	77.99
352.517	-42.84
352.728	-5.97
352.94	-24.4
353.152	-16.21
353.363	20.65
353.575	-44.88
353.787	39.08
353.999	55.47
354.21	0.17
354.422	-8.02
354.633	39.08
354.845	32.94
355.057	2.22
355.268	59.56
355.48	12.46
355.692	4.27
355.903	24.75
356.115	0.17
356.326	0.17
356.538	28.84
356.749	82.09
356.961	12.46
357.172	28.84
357.384	-20.31
357.595	75.95
357.807	41.13
358.018	65.71
358.23	-36.69
358.441	55.47
358.653	41.13
358.864	34.99
359.075	24.75
359.287	20.65
359.498	49.32
359.709	18.6
359.921	-24.4
360.132	-20.31
360.344	-40.79
360.555	-16.21
360.766	55.47
360.977	86.19
361.189	53.42
361.4	-71.51
361.611	26.79
361.823	-28.5
362.034	73.9
362.245	-1.88
362.456	-63.32
362.667	-16.21
362.879	28.84
363.09	-89.94
363.301	18.6
363.512	8.36
363.723	49.32
363.935	6.31
364.146	10.41
364.357	-16.21
364.568	-38.74
364.779	-22.36
364.99	37.03
365.201	-61.27
365.412	32.94
365.623	-26.45
365.834	24.75
366.045	28.84
366.256	12.46
366.467	4.27
366.678	-3.93
366.889	-28.5
367.1	24.75
367.311	2.22
367.522	4.27
367.733	26.79
367.944	-55.12
368.155	53.42
368.366	18.6
368.577	12.46
368.788	90.28
368.999	20.65
369.209	12.46
369.42	45.23
369.631	28.84
369.842	26.79
370.053	41.13
370.264	-8.02
370.474	32.94
370.685	-10.07
370.896	67.75
371.107	73.9
371.317	73.9
371.528	22.7
371.739	-26.45
371.95	32.94
372.16	28.84
372.371	-67.41
372.582	98.47
372.792	14.51
373.003	6.31
373.214	-22.36
373.424	49.32
373.635	69.8
373.846	53.42
374.056	30.89
374.267	37.03
374.477	-40.79
374.688	53.42
374.898	37.03
375.109	43.18
375.319	-57.17
375.53	37.03
375.74	10.41
375.951	26.79
376.161	24.75
376.372	43.18
376.582	-1.88
376.793	43.18
377.003	16.55
377.214	20.65
377.424	10.41
377.635	-26.45
377.845	16.55
378.055	57.51
378.266	-1.88
378.476	45.23
378.686	2.22
378.897	59.56
379.107	2.22
379.317	41.13
379.528	53.42
379.738	106.67
379.948	34.99
380.158	-26.45
380.369	30.89
380.579	37.03
380.789	-30.55
380.999	57.51
381.21	-3.93
381.42	69.8
381.63	49.32
381.84	30.89
382.05	24.75
382.261	32.94
382.471	47.27
382.681	24.75
382.891	65.71
383.101	-8.02
383.311	0.17
383.521	53.42
383.731	73.9
383.941	125.1
384.151	-3.93
384.361	0.17
384.571	41.13
384.781	102.57
384.991	12.46
385.201	10.41
385.411	20.65
385.621	-18.26
385.831	69.8
386.041	-16.21
386.251	0.17
386.461	20.65
386.671	49.32
386.881	-26.45
387.091	57.51
387.301	32.94
387.511	47.27
387.72	43.18
387.93	-10.07
388.14	14.51
388.35	86.19
388.56	-1.88
388.769	12.46
388.979	24.75
389.189	55.47
389.399	73.9
389.609	63.66
389.818	61.61
390.028	-8.02
390.238	45.23
390.447	34.99
390.657	92.33
390.867	0.17
391.076	12.46
391.286	-42.84
391.496	37.03
391.705	18.6
391.915	131.24
392.125	37.03
392.334	2.22
392.544	49.32
392.753	61.61
392.963	-32.6
393.172	90.28
393.382	65.71
393.591	51.37
393.801	-8.02
394.01	65.71
394.22	37.03
394.429	4.27
394.639	43.18
394.848	14.51
395.058	4.27
395.267	-22.36
395.477	41.13
395.686	0.17
395.895	63.66
396.105	63.66
396.314	98.47
396.524	-24.4
396.733	-8.02
396.942	39.08
397.152	59.56
397.361	26.79
397.57	-48.98
397.78	55.47
397.989	32.94
398.198	116.9
398.407	37.03
398.617	71.85
398.826	37.03
399.035	24.75
399.244	18.6
399.453	106.67
399.663	-16.21
399.872	4.27
400.081	98.47
400.29	20.65
400.499	59.56
400.708	24.75
400.917	51.37
401.127	102.57
401.336	114.86
401.545	-12.12
401.754	51.37
401.963	67.75
402.172	67.75
402.381	65.71
402.59	55.47
402.799	30.89
403.008	57.51
403.217	41.13
403.426	98.47
403.635	125.1
403.844	37.03
404.053	57.51
404.262	92.33
404.471	90.28
404.68	65.71
404.888	92.33
405.097	116.9
405.306	127.14
405.515	131.24
405.724	28.84
405.933	57.51
406.142	80.04
406.35	135.34
406.559	123.05
406.768	110.76
406.977	147.62
407.185	164.01
407.394	155.82
407.603	37.03
407.812	127.14
408.02	147.62
408.229	147.62
408.438	110.76
408.646	123.05
408.855	65.71
409.064	221.35
409.272	143.53
409.481	82.09
409.69	151.72
409.898	182.44
410.107	186.54
410.315	215.21
410.524	161.96
410.733	166.06
410.941	221.35
411.15	250.02
411.358	243.88
411.567	180.39
411.775	282.79
411.984	164.01
412.192	270.5
412.401	200.87
412.609	274.6
412.818	272.55
413.026	297.13
413.234	327.85
413.443	284.84
413.651	286.89
413.86	329.89
414.068	325.8
414.276	370.85
414.485	307.37
414.693	395.43
414.901	420
415.11	413.86
415.318	360.61
415.526	377
415.734	495.78
415.943	469.16
416.151	471.2
416.359	387.24
416.567	479.4
416.776	526.5
416.984	477.35
417.192	463.01
417.4	647.33
417.608	553.12
417.817	639.14
418.025	587.94
418.233	678.05
418.441	649.38
418.649	712.86
418.857	723.1
419.065	764.06
419.273	811.17
419.481	721.06
419.689	698.53
419.897	897.18
420.105	835.74
420.313	784.54
420.521	909.47
420.729	880.8
420.937	864.41
421.145	948.38
421.353	962.72
421.561	1124.51
421.769	1114.27
421.977	1144.99
422.185	1122.46
422.393	1247.38
422.601	1208.47
422.809	1331.35
423.017	1290.39
423.224	1319.06
423.432	1327.25
423.64	1427.6
423.848	1517.72
424.056	1443.99
424.263	1583.25
424.471	1761.42
424.679	1691.79
424.887	1790.1
425.094	1720.46
425.302	1769.62
425.51	1816.72
425.718	1896.59
425.925	1917.07
426.133	1996.94
426.341	2148.49
426.548	2130.06
426.756	2105.48
426.964	2080.91
427.171	2443.4
427.379	2424.97
427.586	2392.2
427.794	2474.12
428.001	2488.45
428.209	2719.87
428.417	2613.38
428.624	2893.95
428.832	2814.08
429.039	2955.39
429.247	2834.56
429.454	3162.23
429.662	3281.02
429.869	3086.46
430.076	3190.91
430.284	3399.8
430.491	3297.4
430.699	3655.79
430.906	3610.74
431.114	3629.17
431.321	3584.12
431.528	3758.19
431.736	4042.86
431.943	4243.56
432.15	4141.16
432.358	4218.99
432.565	4329.58
432.772	4472.93
432.979	4599.91
433.187	4706.4
433.394	4737.12
433.601	5005.41
433.808	4974.69
434.016	4978.78
434.223	5236.83
434.43	5503.06
434.637	5578.84
434.844	5789.78
435.052	5734.48
435.259	5896.27
435.466	5791.83
435.673	5894.22
435.88	6223.95
436.087	6578.25
436.294	6594.63
436.501	6377.55
436.708	6492.23
436.915	6803.52
437.122	7127.1
437.329	6871.11
437.537	7262.27
437.743	7141.44
437.95	7178.3
438.157	7665.72
438.364	7886.9
438.571	7847.99
438.778	8036.4
438.985	8704.04
439.192	8443.95
439.399	8509.48
439.606	8292.4
439.813	8921.12
440.02	9314.33
440.227	9074.72
440.433	9134.11
440.64	9551.9
440.847	9611.29
441.054	9599
441.261	10280.97
441.467	9957.39
441.674	10547.21
441.881	10659.85
442.088	10555.4
442.294	10530.83
442.501	10838.02
442.708	10956.8
442.914	11558.91
443.121	11878.39
443.328	11550.71
443.534	12285.94
443.741	12052.47
443.948	11927.54
444.154	12873.7
444.361	12771.3
444.568	12609.51
444.774	12781.54
444.981	13053.92
445.187	13225.95
445.394	13842.39
445.6	13889.49
445.807	14952.39
446.013	14338
446.22	14432.21
446.426	15310.79
446.633	15122.37
446.839	15802.3
447.046	15175.62
447.252	16035.77
447.459	16007.09
447.665	15761.34
447.871	16797.61
448.078	17371.04
448.284	16560.05
448.491	16924.58
448.697	17723.29
448.903	18147.22
449.11	18061.21
449.316	17831.83
449.522	18132.89
449.728	18474.9
449.935	18663.31
450.141	18517.9
450.347	19120.01
450.553	18571.15
450.76	18554.77
450.966	19351.43
451.172	19144.58
451.378	19681.15
451.584	18796.43
451.791	19351.43
451.997	19650.43
452.203	20146.04
452.409	20070.26
452.615	19795.84
452.821	19187.59
453.027	18591.63
453.233	20062.07
453.44	19148.68
453.646	19474.31
453.852	19509.12
454.058	19562.37
454.264	18898.83
454.47	19804.03
454.676	19003.27
454.882	19754.88
455.088	17942.42
455.294	18356.11
455.5	18509.71
455.705	18753.42
455.911	17901.47
456.117	17282.98
456.323	17354.66
456.529	16598.96
456.735	17305.51
456.941	16478.13
457.147	16351.15
457.352	16062.39
457.558	15753.15
457.764	15802.3
457.97	15529.92
458.176	15290.31
458.381	15267.78
458.587	14249.94
458.793	14446.54
458.999	13705.18
459.204	14745.55
459.41	14241.75
459.616	13219.81
459.821	13539.29
460.027	13184.99
460.233	13211.62
460.438	12552.17
460.644	12455.92
460.85	11874.29
461.055	11702.26
461.261	11675.64
461.466	10899.46
461.672	10745.86
461.878	11429.88
462.083	10493.96
462.289	10338.32
462.494	10313.74
462.7	9981.97
462.905	9779.22
463.111	10027.03
463.316	9902.1
463.522	9828.37
463.727	9666.58
463.932	9842.71
464.138	9951.25
464.343	9588.76
464.549	9592.86
464.754	9592.86
464.959	9785.37
465.165	9725.97
465.37	9123.87
465.575	9011.23
465.781	9308.19
465.986	9285.66
466.191	8990.75
466.397	8486.95
466.602	8359.98
466.807	8714.28
467.012	8806.44
467.218	8591.4
467.423	8470.57
467.628	8605.74
467.833	9170.97
468.038	8466.47
468.244	8421.42
468.449	8673.32
468.654	8460.33
468.859	8513.58
469.064	8345.64
469.269	8075.31
469.474	8249.39
469.679	8204.33
469.885	7880.75
470.09	8118.32
470.295	8101.94
470.5	7878.71
470.705	7940.15
470.91	7680.05
471.115	7694.39
471.32	7823.41
471.525	7755.83
471.73	7610.42
471.935	7477.3
472.139	7237.69
472.344	7415.87
472.549	7266.36
472.754	7200.83
472.959	7010.37
473.164	6946.88
473.369	6873.15
473.574	7153.73
473.778	6891.59
473.983	6961.22
474.188	6817.86
474.393	6518.86
474.598	6531.14
474.802	6598.73
475.007	6320.2
475.212	6553.67
475.417	6228.04
475.621	6291.53
475.826	6467.66
476.031	6293.58
476.235	6111.31
476.44	6185.04
476.645	6127.69
476.849	6072.4
477.054	6021.2
477.259	5943.38
477.463	6023.25
477.668	5697.62
477.872	5843.03
478.077	5619.8
478.282	5726.29
478.486	5675.09
478.691	5406.81
478.895	5578.84
479.1	5328.99
479.304	5699.67
479.509	5363.8
479.713	5419.1
479.918	5304.41
480.122	5288.03
480.326	5163.1
480.531	5496.92
480.735	5351.51
480.94	5269.59
481.144	5253.21
481.348	5089.37
481.553	5179.48
481.757	5062.75
481.961	5210.2
482.166	5167.2
482.37	5120.09
482.574	4974.69
482.778	5116
482.983	5267.55
483.187	5171.29
483.391	5165.15
483.595	5023.84
483.8	5044.32
484.004	4997.21
484.208	5169.24
484.412	5085.28
484.616	5056.61
484.821	5128.28
485.025	4948.06
485.229	5038.17
485.433	4948.06
485.637	5087.33
485.841	5142.62
486.045	5122.14
486.249	5013.6
486.453	5126.24
486.657	5226.59
486.861	5150.81
487.065	4984.93
487.269	5023.84
487.473	5062.75
487.677	5189.72
487.881	5191.77
488.085	5054.56
488.289	5113.95
488.493	4989.02
488.697	5130.33
488.901	5134.43
489.105	5193.82
489.309	5152.86
489.512	5263.45
489.716	5001.31
489.92	5288.03
490.124	5048.41
490.328	5212.25
490.531	5193.82
490.735	5304.41
490.939	5333.08
491.143	5277.79
491.346	5152.86
491.55	5402.71
491.754	5316.7
491.958	5320.79
492.161	5304.41
492.365	5480.54
492.569	5390.42
492.772	5412.95
492.976	5451.86
493.18	5531.73
493.383	5548.12
493.587	5722.2
493.79	5587.03
493.994	5470.3
494.197	5609.56
494.401	5777.49
494.605	5687.38
494.808	5808.21
495.012	5728.34
495.215	5779.54
495.419	5793.87
495.622	5951.57
495.825	5941.33
496.029	5924.94
496.232	6119.5
496.436	6117.45
496.639	6422.6
496.843	6164.56
497.046	6348.87
497.249	6496.33
497.453	6350.92
497.656	6537.29
497.859	6475.85
498.063	6545.48
498.266	6733.89
498.469	6793.28
498.673	6860.87
498.876	7020.61
499.079	6836.29
499.282	6922.31
499.485	7114.81
499.689	7192.64
499.892	7243.84
500.095	7325.75
500.298	7444.54
500.501	7317.56
500.705	7675.96
500.908	7751.73
501.111	7917.62
501.314	7839.8
501.517	8116.27
501.72	7866.42
501.923	8022.06
502.126	8341.55
502.329	8185.9
502.532	8523.82
502.735	8511.53
502.938	8644.65
503.141	8697.89
503.344	8730.66
503.547	8669.22
503.75	9000.99
503.953	9027.62
504.156	9381.92
504.359	9244.7
504.562	9351.2
504.765	9682.97
504.968	9687.06
505.17	9646.1
505.373	9809.94
505.576	9928.72
505.779	10016.79
505.982	10096.66
506.185	10442.76
506.387	10215.44
506.59	10295.31
506.793	10792.97
506.996	10561.55
507.198	11067.39
507.401	10911.75
507.604	11132.93
507.807	11315.2
508.009	11180.03
508.212	11409.4
508.415	11585.53
508.617	11608.06
508.82	11847.67
509.022	11579.39
509.225	12054.51
509.428	12525.55
509.63	12384.24
509.833	12402.67
510.035	12812.26
510.238	12464.11
510.44	13041.64
510.643	13180.9
510.845	13293.54
511.048	13266.91
511.25	13311.97
511.453	13606.88
511.655	13975.51
511.858	13979.61
512.06	14157.78
512.262	14483.41
512.465	14188.5
512.667	14409.68
512.87	14524.37
513.072	14694.35
513.274	15095.75
513.477	15308.74
513.679	15321.02
513.881	15439.81
514.084	15777.72
514.286	15574.97
514.488	15925.18
514.69	16117.68
514.893	16449.46
515.095	16410.54
515.297	16760.75
515.499	16940.97
515.701	16918.44
515.904	17194.92
516.106	17602.46
516.308	17629.09
516.51	17594.27
516.712	17520.54
516.914	18155.41
517.116	18239.38
517.318	18376.59
517.52	18349.97
517.722	18624.4
517.925	18990.98
518.127	19226.5
518.329	19330.95
518.531	19259.27
518.733	19611.52
518.935	20178.81
519.136	20113.27
519.338	20060.02
519.54	20086.65
519.742	20418.42
519.944	20551.54
520.146	20993.9
520.348	21198.7
520.55	21313.38
520.752	21260.13
520.954	21647.2
521.155	21860.19
521.357	21911.39
521.559	22196.06
521.761	22697.81
521.963	22486.87
522.164	22458.2
522.366	22888.27
522.568	22783.82
522.77	23086.92
522.971	23609.15
523.173	23611.2
523.375	23510.85
523.576	23945.02
523.778	23734.08
523.98	24172.35
524.181	24411.96
524.383	24321.85
524.584	24553.27
524.786	24848.18
524.988	24405.81
525.189	24821.55
525.391	25181.99
525.592	25202.47
525.794	25446.18
525.995	25497.38
526.197	25483.05
526.398	25435.94
526.6	25722.66
526.801	26054.43
527.003	26005.28
527.204	25798.43
527.406	26384.15
527.607	26513.17
527.808	26484.5
528.01	26263.32
528.211	26537.75
528.412	26812.18
528.614	26986.25
528.815	26828.56
529.016	27381.51
529.218	27266.83
529.419	27301.64
529.62	26908.43
529.822	27082.51
530.023	26982.16
530.224	27270.92
530.425	27373.32
530.626	27397.9
530.828	27664.13
531.029	27930.37
531.23	27610.89
531.431	27492.1
531.632	27875.07
531.833	27586.31
532.035	27545.35
532.236	27756.29
532.437	27809.54
532.638	27737.86
532.839	28374.78
533.04	27934.46
533.241	27846.4
533.442	27780.87
533.643	27645.7
533.844	28145.41
534.045	28149.5
534.246	27760.39
534.447	28296.95
534.648	28098.3
534.849	28116.73
535.05	27772.67
535.251	28266.24
535.451	28491.51
535.652	28182.27
535.853	28083.97
536.054	28053.25
536.255	28141.31
536.456	28212.99
536.657	28397.31
536.857	28145.41
537.058	27938.56
537.259	28247.8
537.46	28323.58
537.66	28276.48
537.861	28286.72
538.062	28411.64
538.263	28344.06
538.463	28258.04
538.664	28337.91
538.865	28233.47
539.065	28333.82
539.266	28079.87
539.466	28495.61
539.667	27926.27
539.868	28747.51
540.068	28387.07
540.269	28026.62
540.469	28188.41
540.67	28081.92
540.87	28311.29
541.071	28262.14
541.271	28241.66
541.472	28399.35
541.672	27731.72
541.873	28090.11
542.073	28028.67
542.274	28563.19
542.474	28143.36
542.675	27737.86
542.875	28356.35
543.075	28464.89
543.276	27901.7
543.476	28380.92
543.676	28251.9
543.877	28391.16
544.077	28129.02
544.277	27959.04
544.478	28288.76
544.678	28180.22
544.878	28063.49
545.078	28067.58
545.279	28141.31
545.479	28026.62
545.679	28227.32
545.879	28165.88
546.079	28110.59
546.28	27858.69
546.48	27793.15
546.68	28176.12
546.88	28331.77
547.08	27889.41
547.28	28014.34
547.48	27911.94
547.68	28221.18
547.88	27877.12
548.081	28067.58
548.281	27924.22
548.481	27975.42
548.681	28274.43
548.881	28131.07
549.081	27913.98
549.28	28063.49
549.48	27924.22
549.68	27963.14
549.88	28131.07
550.08	28280.57
550.28	28053.25
550.48	28309.24
550.68	28141.31
550.88	27870.98
551.08	27936.51
551.279	27938.56
551.479	27870.98
551.679	28169.98
551.879	27844.35
552.079	28235.52
552.278	27932.42
552.478	28083.97
552.678	27930.37
552.878	28010.24
553.077	27897.6
553.277	27967.23
553.477	28348.15
553.676	27823.87
553.876	27873.03
554.076	28006.14
554.275	27465.48
554.475	27508.49
554.674	27901.7
554.874	27991.81
555.074	27655.94
555.273	27823.87
555.473	27807.49
555.672	27150.09
555.872	27399.94
556.071	27711.24
556.271	27485.96
556.47	27463.43
556.67	27379.46
556.869	27516.68
557.068	27483.91
557.268	27236.11
557.467	27449.1
557.667	27223.82
557.866	27094.8
558.065	27287.31
558.265	27465.48
558.464	27238.16
558.663	27549.45
558.863	27008.78
559.062	27176.72
559.261	26722.07
559.461	27184.91
559.66	27117.32
559.859	26816.27
560.058	26992.4
560.258	27033.36
560.457	26773.27
560.656	26992.4
560.855	26779.41
561.054	26869.52
561.253	26558.23
561.453	26818.32
561.652	26949.39
561.851	26642.2
562.05	26474.26
562.249	26365.72
562.448	26558.23
562.647	26537.75
562.846	26240.79
563.045	26672.92
563.244	25980.7
563.443	26251.03
563.642	26050.33
563.841	25831.2
564.04	25980.7
564.239	26310.43
564.438	25659.17
564.637	26009.37
564.836	26058.53
565.035	25896.74
565.234	26050.33
565.432	25562.92
565.631	25667.36
565.83	25753.38
566.029	25722.66
566.228	25534.25
566.427	25419.56
566.625	25831.2
566.824	25470.76
567.023	25341.74
567.222	25450.28
567.42	25276.2
567.619	25407.27
567.818	25513.77
568.016	25151.27
568.215	25483.05
568.414	24907.57
568.612	24844.08
568.811	24661.81
569.01	24917.81
569.208	24444.73
569.407	24700.72
569.605	24465.21
569.804	24575.8
570.002	24379.19
570.201	24497.97
570.4	24151.87
570.598	24135.48
570.797	24063.8
570.995	24125.24
571.193	24065.85
571.392	23949.12
571.59	23777.09
571.789	23678.79
571.987	23940.93
572.186	23881.53
572.384	23648.07
572.582	23676.74
572.781	23830.34
572.979	23342.92
573.177	23414.6
573.376	23641.92
573.574	23416.65
573.772	23545.67
573.971	23250.76
574.169	23154.51
574.367	22908.75
574.565	23113.55
574.763	22984.52
574.962	22916.94
575.16	22835.02
575.358	22818.64
575.556	22742.86
575.754	22816.59
575.952	22593.36
576.151	22560.59
576.349	22300.5
576.547	22423.38
576.745	22333.27
576.943	22349.65
577.141	22161.24
577.339	22116.19
577.537	22126.43
577.735	22171.48
577.933	21655.39
578.131	22101.85
578.329	21993.31
578.527	21636.96
578.725	21659.49
578.923	21811.04
579.121	21417.83
579.319	21614.43
579.516	21616.48
579.714	21618.53
579.912	21393.25
580.11	21178.22
580.308	21358.44
580.506	20983.66
580.704	20721.52
580.901	21301.09
581.099	21245.8
581.297	20981.61
581.495	21024.62
581.692	21104.49
581.89	20627.31
582.088	20868.97
582.285	20653.94
582.483	20946.8
582.681	20660.08
582.878	20445.04
583.076	20260.73
583.274	20479.86
583.471	20014.97
583.669	20254.58
583.866	20422.52
584.064	20088.7
584.262	19711.87
584.459	20041.59
584.657	19816.32
584.854	19783.55
585.052	19890.04
585.249	19799.93
585.447	19797.88
585.644	19666.81
585.841	19656.57
586.039	19642.24
586.236	19408.77
586.434	19244.93
586.631	19257.22
586.828	19386.24
587.026	19724.16
587.223	19423.11
587.42	19263.36
587.618	19023.75
587.815	18767.76
588.012	19033.99
588.21	18708.37
588.407	19089.29
588.604	18958.22
588.801	18782.09
588.999	18560.91
589.196	18788.24
589.393	18661.26
589.59	18407.31
589.787	18556.82
589.984	18431.89
590.182	18272.15
590.379	18296.72
590.576	18403.22
590.773	18456.47
590.97	18091.93
591.167	18063.26
591.364	18055.06
591.561	18069.4
591.758	17977.24
591.955	17876.89
592.152	17909.66
592.349	17684.38
592.546	17631.13
592.743	17844.12
592.94	17538.98
593.137	17688.48
593.334	17534.88
593.531	17465.25
593.727	17569.69
593.924	17495.97
594.121	17321.89
594.318	17520.54
594.515	17205.16
594.712	17422.24
594.908	17213.35
595.105	17151.91
595.302	17125.29
595.499	17098.66
595.696	17016.74
595.892	16727.98
596.089	17115.05
596.286	16930.73
596.482	16670.64
596.679	16857
596.876	16883.63
597.072	16605.1
597.269	16578.48
597.466	16621.49
597.662	16512.94
597.859	16496.56
598.055	16340.91
598.252	16236.47
598.448	16420.78
598.645	15976.37
598.841	15927.22
599.038	16246.71
599.234	16330.67
599.431	16078.77
599.627	16048.05
599.824	16037.81
600.02	15941.56
600.217	15851.45
600.413	15847.35
600.609	15976.37
600.806	15595.45
601.002	15822.78
601.198	15525.82
601.395	15667.13
601.591	15605.69
601.787	15738.81
601.984	15611.84
602.18	15677.37
602.376	15222.72
602.572	15112.13
602.769	15388.61
602.965	15263.68
603.161	15267.78
603.357	15015.88
603.553	15284.16
603.75	15073.22
603.946	14770.12
604.142	14966.73
604.338	14893
604.534	14958.53
604.73	14741.45
604.926	14518.22
605.122	14426.06
605.318	14598.09
605.514	14643.15
605.71	14524.37
605.906	14546.89
606.102	14475.21
606.298	14317.52
606.494	14454.73
606.69	14424.01
606.886	14368.72
607.082	14022.61
607.278	14407.63
607.474	14184.4
607.67	14215.12
607.866	14002.13
608.062	14198.74
608.257	13811.67
608.453	13854.68
608.649	14079.96
608.845	13705.18
609.041	13846.49
609.236	13877.21
609.432	14059.48
609.628	13750.23
609.824	13709.27
610.019	13647.83
610.215	13520.86
610.411	13613.02
610.606	13553.63
610.802	13582.3
610.998	13379.55
611.193	13314.02
611.389	13400.03
611.584	13262.82
611.78	13238.24
611.976	13328.35
612.171	13328.35
612.367	13084.64
612.562	13254.62
612.758	13084.64
612.953	13250.53
613.149	13314.02
613.344	12912.61
613.539	13256.67
613.735	12922.85
613.93	12828.65
614.126	12724.2
614.321	12943.33
614.517	12730.34
614.712	12632.04
614.907	12750.82
615.103	12824.55
615.298	12640.23
615.493	12787.69
615.688	12410.86
615.884	12683.24
616.079	12781.54
616.274	12406.77
616.47	12509.16
616.665	12578.79
616.86	12384.24
617.055	12429.29
617.25	12460.01
617.445	12341.23
617.641	12089.33
617.836	12208.11
618.031	12197.87
618.226	12247.02
618.421	12171.25
618.616	12025.84
618.811	12187.63
619.006	12130.29
619.201	11882.49
619.396	11921.4
619.591	11644.92
619.786	11991.03
619.981	11687.93
620.176	11759.61
620.371	11612.15
620.566	11800.57
620.761	11569.15
620.956	11671.54
621.151	11442.17
621.346	11618.3
621.541	11259.9
621.735	11288.57
621.93	11388.92
622.125	11274.24
622.32	11218.94
622.515	11141.12
622.709	10952.71
622.904	10936.32
623.099	10799.11
623.294	10948.61
623.488	10780.68
623.683	10807.3
623.878	10539.02
624.072	10749.96
624.267	10725.38
624.462	10602.5
624.656	10276.88
624.851	10403.85
625.046	10199.06
625.24	10598.41
625.435	10160.14
625.629	10274.83
625.824	10217.49
626.018	10057.75
626.213	9967.63
626.407	9916.44
626.602	9771.03
626.796	9988.11
626.991	9838.61
627.185	9740.31
627.38	9605.14
627.574	9674.78
627.768	9461.79
627.963	9635.86
628.157	9519.13
628.352	9474.07
628.546	9435.16
628.74	9439.26
628.935	9271.33
629.129	9091.1
629.323	9232.41
629.517	9019.43
629.712	9138.21
629.906	9048.1
630.1	9015.33
630.294	8939.55
630.489	8982.56
630.683	8790.05
630.877	8661.03
631.071	8544.3
631.265	8880.16
631.459	8745
631.653	8511.53
631.848	8532.01
632.042	8523.82
632.236	8515.62
632.43	8347.69
632.624	8521.77
632.818	8288.3
633.012	8228.91
633.206	8269.87
633.4	8142.89
633.594	8155.18
633.788	8079.41
633.982	8116.27
634.176	8149.04
634.369	8052.78
634.563	8077.36
634.757	7751.73
634.951	8036.4
635.145	7979.06
635.339	7948.34
635.533	7708.73
635.726	7716.92
635.92	7688.25
636.114	7653.43
636.308	7628.85
636.501	7661.62
636.695	7538.74
636.889	7471.16
637.083	7348.28
637.276	7317.56
637.47	7522.36
637.664	7370.81
637.857	7374.91
638.051	7301.18
638.244	7069.76
638.438	7159.87
638.632	7346.23
638.825	7151.68
639.019	7194.68
639.212	7067.71
639.406	7030.85
639.599	6955.07
639.793	7006.27
639.986	6783.04
640.18	6920.26
640.373	6881.35
640.567	6819.91
640.76	6713.41
640.954	6631.49
641.147	6629.45
641.34	6498.38
641.534	6637.64
641.727	6494.28
641.92	6635.59
642.114	6475.85
642.307	6500.42
642.5	6381.64
642.694	6295.63
642.887	6090.83
643.08	6309.96
643.273	6101.07
643.467	6187.08
643.66	6121.55
643.853	6209.61
644.046	6049.87
644.239	6187.08
644.432	5982.29
644.626	6025.29
644.819	5935.18
645.012	6015.05
645.205	6013.01
645.398	5877.84
645.591	5949.52
645.784	5963.86
645.977	5578.84
646.17	5826.64
646.363	5793.87
646.556	5427.29
646.749	5724.24
646.942	5541.97
647.135	5556.31
647.328	5531.73
647.521	5533.78
647.714	5392.47
647.907	5515.35
648.099	5501.01
648.292	5466.2
648.485	5484.63
648.678	5333.08
648.871	5292.12
649.064	5136.48
649.256	5341.27
649.449	5159
649.642	5124.19
649.835	5068.89
650.027	5148.76
650.22	4978.78
650.413	4950.11
650.605	5152.86
650.798	4868.19
650.991	4894.82
651.183	4917.34
651.376	5038.17
651.568	4911.2
651.761	4874.34
651.954	4847.71
652.146	4900.96
652.339	4892.77
652.531	4755.55
652.724	4628.58
652.916	4690.02
653.109	4644.96
653.301	4767.84
653.494	4622.44
653.686	4507.75
653.879	4515.94
654.071	4329.58
654.263	4409.45
654.456	4546.66
654.648	4501.61
654.84	4434.02
655.033	4294.76
655.225	4542.57
655.417	4128.88
655.61	4194.41
655.802	4286.57
655.994	4294.76
656.186	4255.85
656.379	4302.95
656.571	4233.32
656.763	4137.07
656.955	4239.47
657.148	4241.51
657.34	4081.77
657.532	4108.4
657.724	3967.09
657.916	4018.29
658.108	4067.44
658.3	3965.04
658.492	3971.18
658.684	3950.7
658.876	3860.59
659.068	3868.78
659.26	3952.75
659.452	3895.41
659.644	3735.67
659.836	3870.83
660.028	3778.67
660.22	3733.62
660.412	3694.71
660.604	3825.78
660.796	3637.36
660.988	3692.66
661.18	3655.79
661.372	3711.09
661.563	3678.32
661.755	3508.34
661.947	3547.25
662.139	3637.36
662.331	3549.3
662.522	3541.11
662.714	3416.18
662.906	3623.03
663.097	3303.54
663.289	3344.5
663.481	3313.78
663.673	3369.08
663.864	3377.27
664.056	3395.7
664.247	3211.39
664.439	3281.02
664.631	3348.6
664.822	3272.82
665.014	3395.7
665.205	3330.17
665.397	3268.73
665.588	3201.15
665.78	3201.15
665.971	3141.75
666.163	3141.75
666.354	3086.46
666.546	3100.8
666.737	3055.74
666.929	2967.68
667.12	3053.69
667.311	3113.08
667.503	3104.89
667.694	3057.79
667.885	2979.97
668.077	3053.69
668.268	2832.51
668.459	2955.39
668.651	2859.14
668.842	2912.38
669.033	3031.16
669.224	2945.15
669.416	2947.2
669.607	2809.98
669.798	2867.33
669.989	2881.66
670.18	2795.65
670.371	2861.18
670.563	2777.22
670.754	2787.46
670.945	2736.26
671.136	2723.97
671.327	2826.37
671.518	2769.02
671.709	2666.63
671.9	2756.74
672.091	2707.59
672.282	2654.34
672.473	2629.76
672.664	2646.15
672.855	2672.77
673.046	2656.39
673.237	2818.18
673.428	2730.11
673.619	2625.67
673.809	2586.76
674	2551.94
674.191	2619.52
674.382	2607.23
674.573	2467.97
674.764	2529.41
674.954	2478.21
675.145	2472.07
675.336	2525.32
675.527	2396.29
675.717	2535.56
675.908	2472.07
676.099	2359.43
676.289	2416.77
676.48	2443.4
676.671	2482.31
676.861	2564.23
677.052	2349.19
677.243	2316.42
677.433	2467.97
677.624	2494.6
677.814	2365.57
678.005	2408.58
678.195	2388.1
678.386	2353.29
678.576	2357.38
678.767	2314.38
678.957	2353.29
679.148	2369.67
679.338	2369.67
679.529	2365.57
679.719	2343.05
679.909	2359.43
680.1	2269.32
680.29	2355.33
680.481	2316.42
680.671	2341
680.861	2158.73
681.052	2369.67
681.242	2146.44
681.432	2316.42
681.622	2302.09
681.813	2207.88
682.003	2271.37
682.193	2230.41
682.383	2351.24
682.573	2328.71
682.764	2300.04
682.954	2246.79
683.144	2226.31
683.334	2195.59
683.524	2218.12
683.714	2164.87
683.904	2158.73
684.094	2148.49
684.284	2144.39
684.474	2203.79
684.664	2183.31
684.854	2105.48
685.044	2146.44
685.234	2302.09
685.424	2150.54
685.614	2105.48
685.804	2128.01
685.994	2158.73
686.184	2211.98
686.374	2070.67
686.564	2138.25
686.753	2095.24
686.943	2199.69
687.133	2080.91
687.323	2187.4
687.513	2154.63
687.702	2113.67
687.892	2007.18
688.082	2156.68
688.272	2048.14
688.461	2097.29
688.651	2173.07
688.841	1994.89
689.03	2044.04
689.22	2023.56
689.41	2035.85
689.599	2076.81
689.789	2025.61
689.979	2011.28
690.168	2033.8
690.358	1941.65
690.547	1982.6
690.737	2037.9
690.926	2019.47
691.116	1796.24
691.305	2007.18
691.495	2058.38
691.684	1859.73
691.874	1958.03
692.063	1919.12
692.252	1960.08
692.442	1898.64
692.631	1898.64
692.82	1939.6
693.01	1974.41
693.199	1874.06
693.388	1962.12
693.578	1919.12
693.767	1878.16
693.956	1902.73
694.146	1863.82
694.335	1878.16
694.524	1869.97
694.713	2003.08
694.902	1863.82
695.092	1863.82
695.281	1919.12
695.47	1888.4
695.659	1964.17
695.848	1919.12
696.037	1876.11
696.226	1943.69
696.415	1986.7
696.604	1800.34
696.793	1966.22
696.982	1953.93
697.171	1843.34
697.36	1872.01
697.549	1863.82
697.738	1896.59
697.927	1831.05
698.116	1966.22
698.305	1894.54
698.494	1962.12
698.683	1882.25
698.872	1935.5
699.061	1884.3
699.25	1841.29
699.438	1894.54
699.627	1937.55
699.816	1835.15
700.005	1882.25
700.193	1855.63
700.382	1863.82
700.571	1851.53
700.76	1847.44
700.948	1888.4
701.137	1888.4
701.326	1849.49
701.514	1890.45
701.703	1859.73
701.892	1910.93
702.08	1781.9
702.269	2003.08
702.457	1798.29
702.646	1747.09
702.834	1802.38
703.023	1831.05
703.212	2001.04
703.4	1855.63
703.589	1829.01
703.777	1812.62
703.965	1849.49
704.154	1800.34
704.342	1902.73
704.531	1886.35
704.719	1806.48
704.907	1851.53
705.096	1925.26
705.284	1779.86
705.472	1714.32
705.661	1851.53
705.849	1742.99
706.037	1755.28
706.226	1775.76
706.414	1790.1
706.602	1745.04
706.79	1718.42
706.979	1761.42
707.167	1714.32
707.355	1720.46
707.543	1724.56
707.731	1712.27
707.919	1736.85
708.107	1652.88
708.296	1769.62
708.484	1646.74
708.672	1613.97
708.86	1689.74
709.048	1722.51
709.236	1745.04
709.424	1704.08
709.612	1699.98
709.8	1710.22
709.988	1652.88
710.176	1517.72
710.364	1632.4
710.551	1562.77
710.739	1656.98
710.927	1646.74
711.115	1570.96
711.303	1630.35
711.491	1536.15
711.679	1579.15
711.866	1597.59
712.054	1527.96
712.242	1646.74
712.43	1542.29
712.617	1515.67
712.805	1577.11
712.993	1609.87
713.181	1423.51
713.368	1538.2
713.556	1542.29
713.744	1568.91
713.931	1546.39
714.119	1476.76
714.306	1503.38
714.494	1544.34
714.682	1618.07
714.869	1519.76
715.057	1622.16
715.244	1491.09
715.432	1591.44
715.619	1552.53
715.807	1560.72
715.994	1400.98
716.182	1487
716.369	1388.69
716.556	1564.82
716.744	1474.71
716.931	1484.95
717.119	1507.48
717.306	1517.72
717.493	1534.1
717.681	1427.6
717.868	1443.99
718.055	1448.08
718.242	1403.03
718.43	1464.47
718.617	1460.37
718.804	1398.93
718.991	1417.37
719.179	1470.61
719.366	1441.94
719.553	1460.37
719.74	1335.45
719.927	1327.25
720.114	1372.31
720.301	1337.49
720.488	1304.73
720.676	1398.93
720.863	1384.6
721.05	1446.04
721.237	1312.92
721.424	1351.83
721.611	1335.45
721.798	1347.73
721.985	1228.95
722.172	1366.17
722.358	1337.49
722.545	1263.77
722.732	1233.05
722.919	1378.45
723.106	1378.45
723.293	1239.19
723.48	1351.83
723.667	1192.09
723.853	1392.79
724.04	1261.72
724.227	1255.58
724.414	1198.23
724.6	1247.38
724.787	1298.58
724.974	1259.67
725.161	1237.14
725.347	1239.19
725.534	1265.82
725.72	1265.82
725.907	1218.71
726.094	1329.3
726.28	1265.82
726.467	1206.42
726.653	1257.62
726.84	1161.37
727.027	1231
727.213	1196.18
727.4	1163.42
727.586	1183.9
727.773	1175.7
727.959	1187.99
728.145	1173.66
728.332	1110.17
728.518	1067.16
728.705	1181.85
728.891	1122.46
729.077	1212.57
729.264	1206.42
729.45	1142.94
729.636	1138.84
729.823	1187.99
730.009	1226.9
730.195	1147.03
730.382	1110.17
730.568	1144.99
730.754	1116.31
730.94	1169.56
731.126	1079.45
731.313	1132.7
731.499	1177.75
731.685	1120.41
731.871	1095.83
732.057	1169.56
732.243	1196.18
732.429	1097.88
732.615	1181.85
732.801	1144.99
732.987	1110.17
733.173	1134.75
733.359	1106.07
733.545	1224.86
733.731	1052.83
733.917	1075.35
734.103	1155.23
734.289	1048.73
734.475	1032.35
734.661	1147.03
734.847	1083.55
735.033	1106.07
735.219	1038.49
735.404	1044.63
735.59	960.67
735.776	1104.03
735.962	888.99
736.148	1011.87
736.333	999.58
736.519	1054.87
736.705	1013.92
736.89	1020.06
737.076	993.44
737.262	1032.35
737.447	952.48
737.633	1138.84
737.819	1024.16
738.004	981.15
738.19	952.48
738.375	1020.06
738.561	970.91
738.747	1044.63
738.932	891.04
739.118	948.38
739.303	956.57
739.489	948.38
739.674	1003.68
739.859	903.32
740.045	909.47
740.23	970.91
740.416	909.47
740.601	958.62
740.786	985.24
740.972	917.66
741.157	972.96
741.342	925.85
741.528	880.8
741.713	888.99
741.898	878.75
742.084	895.13
742.269	907.42
742.454	878.75
742.639	841.89
742.824	876.7
743.01	872.61
743.195	905.37
743.38	845.98
743.565	911.52
743.75	927.9
743.935	872.61
744.12	897.18
744.305	907.42
744.49	852.13
744.675	837.79
744.86	835.74
745.045	841.89
745.23	841.89
745.415	848.03
745.6	802.97
745.785	788.64
745.97	856.22
746.155	862.37
746.34	882.85
746.525	905.37
746.71	841.89
746.895	858.27
747.079	800.93
747.264	809.12
747.449	895.13
747.634	813.21
747.819	835.74
748.003	815.26
748.188	766.11
748.373	774.3
748.557	770.21
748.742	729.25
748.927	630.95
749.111	753.82
749.296	678.05
749.481	663.71
749.665	671.9
749.85	729.25
750.034	776.35
750.219	688.29
750.404	751.78
750.588	678.05
750.773	741.54
750.957	684.19
751.141	714.91
751.326	719.01
751.51	673.95
751.695	671.9
751.879	641.18
752.064	632.99
752.248	647.33
752.432	676
752.617	614.56
752.801	671.9
752.985	653.47
753.17	663.71
753.354	696.48
753.538	710.82
753.722	651.42
753.907	663.71
754.091	645.28
754.275	696.48
754.459	577.7
754.643	583.84
754.828	608.42
755.012	592.03
755.196	573.6
755.38	559.27
755.564	551.07
755.748	551.07
755.932	573.6
756.116	522.4
756.3	643.23
756.484	544.93
756.668	589.99
756.852	575.65
757.036	487.59
757.22	598.18
757.404	575.65
757.588	639.14
757.772	536.74
757.956	655.52
758.14	557.22
758.323	473.25
758.507	581.79
758.691	532.64
758.875	542.88
759.059	555.17
759.242	546.98
759.426	506.02
759.61	467.11
759.794	477.35
759.977	575.65
760.161	512.16
760.345	501.92
760.528	532.64
760.712	469.16
760.895	471.2
761.079	536.74
761.263	417.96
761.446	454.82
761.63	463.01
761.813	499.88
761.997	405.67
762.18	493.73
762.364	374.95
762.547	397.48
762.731	493.73
762.914	499.88
763.098	483.49
763.281	485.54
763.464	452.77
763.648	491.68
763.831	450.72
764.015	444.58
764.198	448.68
764.381	405.67
764.564	438.44
764.748	483.49
764.931	401.57
765.114	401.57
765.297	448.68
765.481	354.47
765.664	387.24
765.847	401.57
766.03	506.02
766.213	417.96
766.397	477.35
766.58	420
766.763	379.04
766.946	411.81
767.129	428.2
767.312	393.38
767.495	426.15
767.678	331.94
767.861	481.44
768.044	374.95
768.227	428.2
768.41	405.67
768.593	393.38
768.776	436.39
768.959	370.85
769.142	387.24
769.324	336.04
769.507	420
769.69	393.38
769.873	407.72
770.056	436.39
770.239	454.82
770.421	350.37
770.604	450.72
770.787	387.24
770.97	385.19
771.152	387.24
771.335	395.43
771.518	340.13
771.7	364.71
771.883	477.35
772.066	442.53
772.248	393.38
772.431	360.61
772.613	362.66
772.796	397.48
772.978	354.47
773.161	354.47
773.343	323.75
773.526	295.08
773.708	368.81
773.891	379.04
774.073	403.62
774.256	252.07
774.438	411.81
774.621	368.81
774.803	403.62
774.985	352.42
775.168	364.71
775.35	366.76
775.532	313.51
775.715	344.23
775.897	270.5
776.079	297.13
776.261	379.04
776.444	295.08
776.626	254.12
776.808	411.81
776.99	288.93
777.173	315.56
777.355	256.17
777.537	262.31
777.719	331.94
777.901	274.6
778.083	342.18
778.265	303.27
778.447	288.93
778.629	235.69
778.811	295.08
778.993	354.47
779.175	338.09
779.357	264.36
779.539	270.5
779.721	293.03
779.903	280.74
780.085	252.07
780.267	286.89
780.449	262.31
780.631	317.61
780.812	245.93
780.994	299.17
781.176	217.26
781.358	295.08
781.54	225.45
781.721	297.13
781.903	227.5
782.085	262.31
782.267	229.54
782.448	266.41
782.63	219.3
782.812	215.21
782.993	303.27
783.175	231.59
783.357	233.64
783.538	282.79
783.72	223.4
783.901	196.78
784.083	266.41
784.264	200.87
784.446	241.83
784.627	231.59
784.809	225.45
784.99	231.59
785.172	258.21
785.353	219.3
785.535	297.13
785.716	231.59
785.897	133.29
786.079	215.21
786.26	159.91
786.441	262.31
786.623	213.16
786.804	137.38
786.985	229.54
787.167	143.53
787.348	266.41
787.529	184.49
787.71	155.82
787.891	235.69
788.073	139.43
788.254	166.06
788.435	129.19
788.616	247.97
788.797	147.62
788.978	194.73
789.159	166.06
789.34	174.25
789.522	164.01
789.703	164.01
789.884	286.89
790.065	106.67
790.246	204.97
790.427	172.2
790.607	108.71
790.788	131.24
790.969	121
791.15	172.2
791.331	180.39
791.512	131.24
791.693	143.53
791.874	108.71
792.054	153.77
792.235	200.87
792.416	149.67
792.597	180.39
792.778	166.06
792.958	190.63
793.139	192.68
793.32	131.24
793.5	178.34
793.681	123.05
793.862	84.14
794.042	241.83
794.223	168.1
794.404	131.24
794.584	65.71
794.765	114.86
794.945	176.3
795.126	143.53
795.306	164.01
795.487	147.62
795.667	176.3
795.848	135.34
796.028	172.2
796.209	96.43
796.389	90.28
796.57	118.95
796.75	137.38
796.93	196.78
797.111	180.39
797.291	100.52
797.471	123.05
797.652	135.34
797.832	125.1
798.012	141.48
798.192	153.77
798.373	184.49
798.553	43.18
798.733	190.63
798.913	110.76
799.093	166.06
799.274	149.67
799.454	112.81
799.634	75.95
799.814	112.81
799.994	139.43
800.174	166.06
800.354	133.29
800.534	159.91
800.714	135.34
800.894	112.81
801.074	80.04
801.254	67.75
801.434	123.05
801.614	37.03
801.794	77.99
801.974	360.61
802.154	82.09
802.334	110.76
802.514	86.19
802.693	98.47
802.873	161.96
803.053	133.29
803.233	133.29
803.413	61.61
803.592	106.67
803.772	96.43
803.952	121
804.131	84.14
804.311	121
804.491	135.34
804.67	34.99
804.85	84.14
805.03	77.99
805.209	90.28
805.389	155.82
805.568	112.81
805.748	67.75
805.928	100.52
806.107	139.43
806.287	127.14
806.466	82.09
806.646	100.52
806.825	129.19
807.004	73.9
807.184	41.13
807.363	114.86
807.543	102.57
807.722	14.51
807.901	49.32
808.081	106.67
808.26	41.13
808.439	123.05
808.619	16.55
808.798	69.8
808.977	-12.12
809.156	32.94
809.336	82.09
809.515	112.81
809.694	157.86
809.873	100.52
810.052	71.85
810.231	71.85
810.411	100.52
810.59	143.53
810.769	90.28
810.948	100.52
811.127	57.51
811.306	131.24
811.485	108.71
811.664	75.95
811.843	77.99
812.022	100.52
812.201	59.56
812.38	92.33
812.559	61.61
812.737	47.27
812.916	65.71
813.095	96.43
813.274	-20.31
813.453	98.47
813.632	61.61
813.811	127.14
813.989	30.89
814.168	28.84
814.347	43.18
814.526	59.56
814.704	24.75
814.883	73.9
815.062	100.52
815.24	-32.6
815.419	131.24
815.598	92.33
815.776	69.8
815.955	86.19
816.133	61.61
816.312	98.47
816.49	41.13
816.669	59.56
816.847	65.71
817.026	37.03
817.204	53.42
817.383	94.38
817.561	53.42
817.74	157.86
817.918	-3.93
818.097	71.85
818.275	16.55
818.453	59.56
818.632	94.38
818.81	41.13
818.988	51.37
819.167	34.99
819.345	82.09
819.523	86.19
819.701	84.14
819.879	67.75
820.058	24.75
820.236	106.67
820.414	22.7
820.592	86.19
820.77	82.09
820.948	80.04
821.127	-20.31
821.305	49.32
821.483	49.32
821.661	28.84
821.839	61.61
822.017	98.47
822.195	71.85
822.373	55.47
822.551	69.8
822.729	0.17
822.907	75.95
823.085	82.09
823.262	-16.21
823.44	8.36
823.618	0.17
823.796	24.75
823.974	6.31
824.152	108.71
824.329	-32.6
824.507	49.32
824.685	32.94
824.863	75.95
825.04	12.46
825.218	59.56
825.396	10.41
825.574	34.99
825.751	18.6
825.929	73.9
826.107	10.41
826.284	63.66
826.462	49.32
826.639	26.79
826.817	59.56
826.994	88.23
827.172	10.41
827.349	49.32
827.527	43.18
827.704	98.47
827.882	0.17
828.059	-20.31
828.237	61.61
828.414	53.42
828.591	10.41
828.769	88.23
828.946	16.55
829.124	100.52
829.301	-14.17
829.478	-22.36
829.655	-24.4
829.833	10.41
830.01	-10.07
830.187	63.66
830.364	-53.08
830.542	82.09
830.719	28.84
830.896	10.41
831.073	2.22
831.25	43.18
831.427	26.79
831.604	41.13
831.782	-79.7
831.959	24.75
832.136	28.84
832.313	37.03
832.49	-1.88
832.667	-48.98
832.844	-8.02
833.021	94.38
833.198	-3.93
833.374	-34.64
833.551	24.75
833.728	-8.02
833.905	-26.45
834.082	-8.02
834.259	0.17
834.436	-89.94
834.612	-28.5
834.789	34.99
834.966	98.47
835.143	86.19
835.319	10.41
835.496	-24.4
835.673	-3.93
835.85	-34.64
836.026	30.89
836.203	20.65
836.38	49.32
836.556	57.51
836.733	57.51
836.909	8.36
837.086	28.84
837.262	118.95
837.439	18.6
837.616	-63.32
837.792	-1.88
837.968	114.86
838.145	-46.93
838.321	-3.93
838.498	28.84
838.674	12.46
838.851	2.22
839.027	16.55
839.203	86.19
839.38	63.66
839.556	-71.51
839.732	-34.64
839.909	63.66
840.085	0.17
840.261	-59.22
840.437	8.36
840.614	-20.31
840.79	-48.98
840.966	41.13
841.142	-18.26
841.318	28.84
841.494	-32.6
841.671	45.23
841.847	-14.17
842.023	16.55
842.199	82.09
842.375	-24.4
842.551	18.6
842.727	-3.93
842.903	34.99
843.079	10.41
843.255	45.23
843.431	4.27
843.607	22.7
843.783	-44.88
843.959	-57.17
844.134	-16.21
844.31	32.94
844.486	22.7
844.662	16.55
844.838	-3.93
845.013	0.17
845.189	65.71
845.365	59.56
845.541	-71.51
845.716	-8.02
845.892	-1.88
846.068	-57.17
846.244	-5.97
846.419	34.99
846.595	-8.02
846.77	-59.22
846.946	12.46
847.122	-24.4
847.297	22.7
847.473	55.47
847.648	18.6
847.824	-12.12
847.999	-3.93
848.175	53.42
848.35	49.32
848.526	-30.55
848.701	39.08
848.876	43.18
849.052	73.9
849.227	20.65
849.403	34.99
849.578	112.81
849.753	51.37
849.929	-16.21
850.104	8.36
850.279	24.75
850.454	22.7
850.63	-16.21
850.805	-3.93
850.98	8.36
851.155	14.51
851.33	43.18
851.505	12.46
851.681	-8.02
851.856	8.36
852.031	-3.93
852.206	18.6
852.381	16.55
852.556	-83.8
852.731	8.36
852.906	28.84
853.081	-24.4
853.256	43.18
853.431	114.86
853.606	-26.45
853.781	-24.4
853.956	-14.17
854.131	-63.32
854.305	-5.97
854.48	-57.17
854.655	16.55
854.83	0.17
855.005	12.46
855.18	51.37
855.354	-3.93
855.529	32.94
855.704	34.99
855.879	16.55
856.053	-12.12
856.228	39.08
856.403	-8.02
856.577	53.42
856.752	-8.02
856.926	-16.21
857.101	-40.79
857.276	47.27
857.45	-10.07
857.625	24.75
857.799	49.32
857.974	12.46
858.148	-32.6
858.323	14.51
858.497	8.36
858.672	18.6
858.846	4.27
859.02	16.55
859.195	-48.98
859.369	-22.36
859.543	59.56
859.718	6.31
859.892	-32.6
860.066	28.84
860.241	-44.88
860.415	39.08
860.589	43.18
860.763	65.71
860.938	0.17
861.112	-30.55
861.286	16.55
861.46	47.27
861.634	30.89
861.808	61.61
861.982	37.03
862.157	18.6
862.331	14.51
862.505	-16.21
862.679	10.41
862.853	-26.45
863.027	-40.79
863.201	57.51
863.375	-71.51
863.549	-3.93
863.722	0.17
863.896	43.18
864.07	-44.88
864.244	67.75
864.418	24.75
864.592	8.36
864.766	57.51
864.939	-8.02
865.113	-10.07
865.287	14.51
865.461	34.99
865.634	-1.88
865.808	34.99
865.982	2.22
866.156	-20.31
866.329	51.37
866.503	-18.26
866.676	37.03
866.85	37.03
867.024	37.03
867.197	-8.02
867.371	20.65
867.544	67.75
867.718	59.56
867.891	-32.6
868.065	4.27
868.238	16.55
868.412	-5.97
868.585	-36.69
868.759	-30.55
868.932	8.36
869.105	8.36
869.279	-36.69
869.452	10.41
869.625	-8.02
869.799	24.75
869.972	-30.55
870.145	6.31
870.319	34.99
870.492	-91.99
870.665	6.31
870.838	-38.74
871.011	-16.21
871.185	8.36
871.358	-46.93
871.531	-16.21
871.704	14.51
871.877	-24.4
872.05	-16.21
872.223	2.22
872.396	-81.75
872.569	28.84
872.742	-34.64
872.915	6.31
873.088	28.84
873.261	22.7
873.434	-40.79
873.607	37.03
873.78	-53.08
873.953	2.22
874.126	-30.55
874.299	-48.98
874.471	12.46
874.644	-36.69
874.817	4.27
874.99	28.84
875.163	-48.98
875.335	-8.02
875.508	-48.98
875.681	51.37
875.853	-5.97
876.026	-65.36
876.199	-42.84
876.371	73.9
876.544	-108.37
876.717	47.27
876.889	-26.45
877.062	73.9
877.234	18.6
877.407	30.89
877.579	32.94
877.752	51.37
877.924	-12.12
878.097	-16.21
878.269	-24.4
878.442	39.08
878.614	57.51
878.786	-10.07
878.959	18.6
879.131	-63.32
879.303	-20.31
879.476	-8.02
879.648	8.36
879.82	18.6
879.993	2.22
880.165	2.22
880.337	24.75
880.509	0.17
880.681	10.41
880.854	61.61
881.026	45.23
881.198	-38.74
881.37	18.6
881.542	-14.17
881.714	-48.98
881.886	-24.4
882.058	32.94
882.23	-20.31
882.402	-20.31
882.574	-1.88
882.746	10.41
882.918	12.46
883.09	37.03
883.262	45.23
883.434	-24.4
883.606	-18.26
883.778	2.22
883.95	-24.4
884.122	-44.88
884.293	0.17
884.465	-32.6
884.637	2.22
884.809	-14.17
884.98	-48.98
885.152	37.03
885.324	18.6
885.496	-12.12
885.667	-98.13
885.839	45.23
886.011	-24.4
886.182	-53.08
886.354	-65.36
886.525	-16.21
886.697	18.6
886.869	53.42
887.04	-55.12
887.212	-8.02
887.383	77.99
887.555	10.41
887.726	8.36
887.897	-46.93
888.069	-30.55
888.24	-20.31
888.412	12.46
888.583	-30.55
888.754	0.17
888.926	-91.99
889.097	73.9
889.268	34.99
889.44	-36.69
889.611	6.31
889.782	8.36
889.953	-40.79
890.125	24.75
890.296	-28.5
890.467	-36.69
890.638	-114.52
890.809	41.13
890.98	-24.4
891.151	32.94
891.323	-38.74
891.494	20.65
891.665	-114.52
891.836	-18.26
892.007	-3.93
892.178	-22.36
892.349	-40.79
892.52	0.17
892.691	-40.79
892.862	-65.36
893.032	20.65
893.203	-36.69
893.374	2.22
893.545	2.22
893.716	-81.75
893.887	-12.12
894.057	-36.69
894.228	-32.6
894.399	-22.36
894.57	47.27
894.74	-46.93
894.911	32.94
895.082	-46.93
895.253	10.41
895.423	10.41
895.594	10.41
895.764	-40.79
895.935	-32.6
896.106	20.65
896.276	59.56
896.447	-46.93
896.617	10.41
896.788	51.37
896.958	-87.89
897.129	-87.89
897.299	-8.02
897.47	47.27
897.64	8.36
897.81	-8.02
897.981	-65.36
898.151	2.22
898.322	-71.51
898.492	26.79
898.662	-26.45
898.832	51.37
899.003	-22.36
899.173	-1.88
899.343	-28.5
899.513	57.51
