Data from USB4F104151__255__14-01-36-744.txt Node

Date: Thu Mar 13 14:01:36 EDT 2025
User: louis
Spectrometer: USB4F10415
Trigger mode: 4
Integration Time (sec): 1.000000E-2
Scans to average: 1
Electric dark correction enabled: true
Nonlinearity correction enabled: false
Boxcar width: 0
XAxis mode: Wavelengths
Number of Pixels in Spectrum: 3648
>>>>>Begin Spectral Data<<<<<
178.204	-67.24
178.424	-67.24
178.644	-67.24
178.864	-93.87
179.084	-59.05
179.304	-63.15
179.524	39.25
179.744	55.64
179.964	37.2
180.184	29.01
180.404	-3.75
180.624	6.49
180.844	-26.28
181.064	20.82
181.283	-9.9
181.503	-106.15
181.723	20.82
181.943	-32.43
182.163	-22.19
182.383	39.25
182.602	26.96
182.822	43.35
183.042	-7.85
183.262	31.06
183.482	2.39
183.701	-28.33
183.921	41.3
184.141	-13.99
184.361	-52.91
184.58	-52.91
184.8	-24.23
185.02	20.82
185.239	24.92
185.459	-13.99
185.679	-34.47
185.898	-30.38
186.118	-52.91
186.338	24.92
186.557	59.73
186.777	-71.34
186.997	39.25
187.216	-75.43
187.436	0.34
187.655	-52.91
187.875	-91.82
188.095	12.63
188.314	-38.57
188.534	-5.8
188.753	16.73
188.973	-40.62
189.192	-24.23
189.412	-34.47
189.631	49.49
189.851	65.88
190.07	49.49
190.29	-28.33
190.509	-16.04
190.729	-36.52
190.948	14.68
191.168	-7.85
191.387	-22.19
191.607	-20.14
191.826	-34.47
192.045	-34.47
192.265	26.96
192.484	47.44
192.704	-71.34
192.923	-26.28
193.142	29.01
193.362	-13.99
193.581	33.11
193.8	45.4
194.02	37.2
194.239	-11.95
194.458	16.73
194.678	-65.19
194.897	-32.43
195.116	-28.33
195.335	10.58
195.555	-65.19
195.774	-32.43
195.993	-1.71
196.212	-26.28
196.432	4.44
196.651	-32.43
196.87	-54.95
197.089	-57
197.308	-83.63
197.528	6.49
197.747	4.44
197.966	8.53
198.185	-3.75
198.404	16.73
198.623	37.2
198.842	-1.71
199.062	0.34
199.281	-1.71
199.5	-81.58
199.719	-5.8
199.938	-20.14
200.157	88.4
200.376	14.68
200.595	-36.52
200.814	57.68
201.033	-9.9
201.252	-11.95
201.471	-46.76
201.69	-48.81
201.909	2.39
202.128	47.44
202.347	-5.8
202.566	-63.15
202.785	-22.19
203.004	-40.62
203.223	-1.71
203.442	29.01
203.661	-67.24
203.879	-1.71
204.098	29.01
204.317	41.3
204.536	65.88
204.755	-18.09
204.974	57.68
205.193	-95.91
205.411	6.49
205.63	10.58
205.849	-30.38
206.068	-57
206.287	6.49
206.505	-67.24
206.724	14.68
206.943	-118.44
207.162	8.53
207.381	22.87
207.599	-18.09
207.818	4.44
208.037	-5.8
208.255	39.25
208.474	41.3
208.693	0.34
208.911	-26.28
209.13	33.11
209.349	39.25
209.567	-46.76
209.786	8.53
210.005	31.06
210.223	-3.75
210.442	31.06
210.661	-9.9
210.879	-16.04
211.098	-73.39
211.316	96.6
211.535	-7.85
211.753	-65.19
211.972	0.34
212.191	31.06
212.409	10.58
212.628	12.63
212.846	2.39
213.065	88.4
213.283	57.68
213.502	53.59
213.72	-65.19
213.938	24.92
214.157	-18.09
214.375	2.39
214.594	24.92
214.812	-1.71
215.031	4.44
215.249	-18.09
215.467	-24.23
215.686	0.34
215.904	-50.86
216.122	-44.71
216.341	6.49
216.559	-63.15
216.778	-1.71
216.996	4.44
217.214	-65.19
217.432	16.73
217.651	0.34
217.869	-85.67
218.087	43.35
218.306	-22.19
218.524	22.87
218.742	-48.81
218.96	37.2
219.179	-1.71
219.397	8.53
219.615	-91.82
219.833	0.34
220.051	16.73
220.27	49.49
220.488	0.34
220.706	-73.39
220.924	-3.75
221.142	-44.71
221.36	-5.8
221.578	-46.76
221.796	8.53
222.015	-30.38
222.233	4.44
222.451	-42.67
222.669	-5.8
222.887	-30.38
223.105	-30.38
223.323	8.53
223.541	-50.86
223.759	-28.33
223.977	-36.52
224.195	16.73
224.413	6.49
224.631	51.54
224.849	16.73
225.067	61.78
225.285	57.68
225.503	-9.9
225.721	-54.95
225.939	-20.14
226.157	-26.28
226.375	-42.67
226.592	-38.57
226.81	16.73
227.028	-100.01
227.246	41.3
227.464	-32.43
227.682	-54.95
227.9	35.16
228.117	-7.85
228.335	10.58
228.553	-48.81
228.771	-11.95
228.989	35.16
229.206	29.01
229.424	-28.33
229.642	-61.1
229.86	33.11
230.077	10.58
230.295	-9.9
230.513	14.68
230.731	-3.75
230.948	-83.63
231.166	96.6
231.384	-34.47
231.601	12.63
231.819	47.44
232.037	-20.14
232.254	-59.05
232.472	0.34
232.689	-67.24
232.907	59.73
233.125	-38.57
233.342	24.92
233.56	-50.86
233.777	-5.8
233.995	-34.47
234.213	-36.52
234.43	14.68
234.648	-3.75
234.865	-32.43
235.083	-32.43
235.3	43.35
235.518	-13.99
235.735	74.07
235.953	-7.85
236.17	-5.8
236.388	-69.29
236.605	-22.19
236.822	-20.14
237.04	16.73
237.257	0.34
237.475	49.49
237.692	-57
237.909	6.49
238.127	8.53
238.344	20.82
238.562	41.3
238.779	-20.14
238.996	-57
239.214	-48.81
239.431	-24.23
239.648	-36.52
239.865	-7.85
240.083	-34.47
240.3	22.87
240.517	-38.57
240.735	-3.75
240.952	18.77
241.169	-40.62
241.386	-38.57
241.603	-50.86
241.821	26.96
242.038	43.35
242.255	-3.75
242.472	-24.23
242.689	8.53
242.907	55.64
243.124	-32.43
243.341	22.87
243.558	-22.19
243.775	26.96
243.992	0.34
244.209	2.39
244.426	-18.09
244.643	20.82
244.86	-22.19
245.078	-18.09
245.295	-7.85
245.512	-16.04
245.729	-26.28
245.946	-38.57
246.163	6.49
246.38	6.49
246.597	-83.63
246.814	33.11
247.031	-7.85
247.248	0.34
247.464	-3.75
247.681	98.64
247.898	16.73
248.115	-9.9
248.332	33.11
248.549	76.12
248.766	10.58
248.983	2.39
249.2	80.21
249.417	80.21
249.633	-16.04
249.85	41.3
250.067	-34.47
250.284	-9.9
250.501	-65.19
250.717	22.87
250.934	41.3
251.151	-13.99
251.368	-59.05
251.585	-57
251.801	-87.72
252.018	2.39
252.235	-48.81
252.451	55.64
252.668	-50.86
252.885	-36.52
253.102	10.58
253.318	-48.81
253.535	16.73
253.752	-93.87
253.968	10.58
254.185	-63.15
254.401	-50.86
254.618	33.11
254.835	4.44
255.051	80.21
255.268	-16.04
255.484	-83.63
255.701	-7.85
255.917	-20.14
256.134	41.3
256.351	6.49
256.567	-1.71
256.784	-48.81
257	-65.19
257.217	-9.9
257.433	-18.09
257.65	12.63
257.866	12.63
258.082	-9.9
258.299	8.53
258.515	-5.8
258.732	-42.67
258.948	-30.38
259.165	8.53
259.381	-59.05
259.597	-63.15
259.814	-28.33
260.03	-71.34
260.246	-20.14
260.463	6.49
260.679	29.01
260.895	-79.53
261.112	22.87
261.328	24.92
261.544	61.78
261.761	-9.9
261.977	-91.82
262.193	2.39
262.409	20.82
262.626	20.82
262.842	-7.85
263.058	-3.75
263.274	0.34
263.49	20.82
263.707	-5.8
263.923	-54.95
264.139	37.2
264.355	-46.76
264.571	12.63
264.787	-69.29
265.004	31.06
265.22	-54.95
265.436	-22.19
265.652	-9.9
265.868	24.92
266.084	-38.57
266.3	-5.8
266.516	-71.34
266.732	-40.62
266.948	-1.71
267.164	-65.19
267.38	-50.86
267.596	-20.14
267.812	10.58
268.028	4.44
268.244	-75.43
268.46	-24.23
268.676	-54.95
268.892	33.11
269.108	-1.71
269.324	-11.95
269.54	2.39
269.756	59.73
269.972	6.49
270.188	-46.76
270.403	18.77
270.619	57.68
270.835	-18.09
271.051	31.06
271.267	-34.47
271.483	-16.04
271.698	10.58
271.914	-48.81
272.13	26.96
272.346	-18.09
272.562	-5.8
272.777	51.54
272.993	-65.19
273.209	16.73
273.425	26.96
273.64	-32.43
273.856	-13.99
274.072	31.06
274.287	-34.47
274.503	0.34
274.719	-34.47
274.934	33.11
275.15	-50.86
275.366	-30.38
275.581	-57
275.797	33.11
276.012	-69.29
276.228	14.68
276.444	14.68
276.659	24.92
276.875	-28.33
277.09	-48.81
277.306	-102.06
277.521	63.83
277.737	-52.91
277.952	22.87
278.168	-22.19
278.383	-13.99
278.599	-9.9
278.814	22.87
279.03	-32.43
279.245	45.4
279.461	-3.75
279.676	-65.19
279.892	-26.28
280.107	-73.39
280.322	-32.43
280.538	-34.47
280.753	26.96
280.969	16.73
281.184	-36.52
281.399	-3.75
281.615	31.06
281.83	41.3
282.045	22.87
282.26	2.39
282.476	-34.47
282.691	-7.85
282.906	-24.23
283.122	10.58
283.337	-52.91
283.552	6.49
283.767	18.77
283.983	22.87
284.198	-54.95
284.413	20.82
284.628	0.34
284.843	22.87
285.058	26.96
285.274	10.58
285.489	-34.47
285.704	-46.76
285.919	14.68
286.134	-34.47
286.349	49.49
286.564	-11.95
286.779	55.64
286.995	41.3
287.21	-44.71
287.425	45.4
287.64	-52.91
287.855	10.58
288.07	-73.39
288.285	31.06
288.5	-18.09
288.715	18.77
288.93	-1.71
289.145	-16.04
289.36	63.83
289.575	2.39
289.79	-16.04
290.004	-26.28
290.219	-11.95
290.434	45.4
290.649	61.78
290.864	-11.95
291.079	16.73
291.294	-50.86
291.509	-22.19
291.724	-32.43
291.938	-16.04
292.153	82.26
292.368	-52.91
292.583	-52.91
292.798	35.16
293.012	-13.99
293.227	-11.95
293.442	-9.9
293.657	-59.05
293.871	63.83
294.086	-7.85
294.301	14.68
294.516	22.87
294.73	10.58
294.945	-24.23
295.16	6.49
295.374	-24.23
295.589	8.53
295.804	76.12
296.018	-30.38
296.233	45.4
296.447	8.53
296.662	29.01
296.877	-83.63
297.091	-24.23
297.306	12.63
297.52	-20.14
297.735	-24.23
297.949	24.92
298.164	16.73
298.378	47.44
298.593	-1.71
298.807	-5.8
299.022	-9.9
299.236	-32.43
299.451	-63.15
299.665	14.68
299.88	2.39
300.094	20.82
300.309	33.11
300.523	-83.63
300.737	14.68
300.952	4.44
301.166	24.92
301.381	-1.71
301.595	-50.86
301.809	-7.85
302.024	-26.28
302.238	-63.15
302.452	-1.71
302.667	-16.04
302.881	26.96
303.095	-7.85
303.309	-36.52
303.524	-48.81
303.738	-7.85
303.952	10.58
304.166	22.87
304.381	35.16
304.595	-9.9
304.809	-34.47
305.023	63.83
305.237	-40.62
305.452	24.92
305.666	41.3
305.88	-18.09
306.094	-9.9
306.308	26.96
306.522	-9.9
306.736	29.01
306.95	20.82
307.164	-3.75
307.379	-18.09
307.593	12.63
307.807	-7.85
308.021	31.06
308.235	-77.48
308.449	-26.28
308.663	-54.95
308.877	37.2
309.091	45.4
309.305	-30.38
309.519	-24.23
309.733	47.44
309.947	63.83
310.161	37.2
310.374	31.06
310.588	35.16
310.802	-50.86
311.016	14.68
311.23	-18.09
311.444	-75.43
311.658	-28.33
311.872	-44.71
312.085	6.49
312.299	-5.8
312.513	-71.34
312.727	14.68
312.941	39.25
313.154	-44.71
313.368	-71.34
313.582	8.53
313.796	43.35
314.009	8.53
314.223	-52.91
314.437	-26.28
314.651	51.54
314.864	-59.05
315.078	-87.72
315.292	10.58
315.505	16.73
315.719	-40.62
315.933	-28.33
316.146	-1.71
316.36	26.96
316.573	-40.62
316.787	47.44
317.001	6.49
317.214	2.39
317.428	16.73
317.641	8.53
317.855	-63.15
318.068	8.53
318.282	-24.23
318.495	-11.95
318.709	-57
318.922	12.63
319.136	14.68
319.349	-22.19
319.563	-11.95
319.776	6.49
319.99	-54.95
320.203	65.88
320.417	10.58
320.63	-11.95
320.843	10.58
321.057	6.49
321.27	-48.81
321.483	47.44
321.697	45.4
321.91	-3.75
322.124	61.78
322.337	2.39
322.55	26.96
322.763	33.11
322.977	-30.38
323.19	-91.82
323.403	-9.9
323.617	24.92
323.83	31.06
324.043	-22.19
324.256	2.39
324.469	0.34
324.683	18.77
324.896	26.96
325.109	-5.8
325.322	-32.43
325.535	31.06
325.748	-48.81
325.962	6.49
326.175	-1.71
326.388	-18.09
326.601	16.73
326.814	-16.04
327.027	33.11
327.24	-1.71
327.453	-42.67
327.666	69.97
327.879	-50.86
328.092	10.58
328.305	18.77
328.518	24.92
328.731	-54.95
328.944	-3.75
329.157	-40.62
329.37	-24.23
329.583	-57
329.796	-42.67
330.009	31.06
330.222	-13.99
330.435	59.73
330.648	47.44
330.861	12.63
331.073	6.49
331.286	6.49
331.499	-24.23
331.712	-93.87
331.925	22.87
332.138	10.58
332.35	14.68
332.563	-7.85
332.776	-16.04
332.989	-18.09
333.202	-13.99
333.414	-18.09
333.627	-61.1
333.84	-13.99
334.053	14.68
334.265	33.11
334.478	39.25
334.691	16.73
334.903	74.07
335.116	-28.33
335.329	-26.28
335.541	-16.04
335.754	12.63
335.966	8.53
336.179	-59.05
336.392	39.25
336.604	-38.57
336.817	-57
337.029	43.35
337.242	16.73
337.454	-59.05
337.667	-1.71
337.88	16.73
338.092	47.44
338.305	33.11
338.517	-87.72
338.729	-3.75
338.942	37.2
339.154	-5.8
339.367	-20.14
339.579	22.87
339.792	-54.95
340.004	72.02
340.217	22.87
340.429	12.63
340.641	-59.05
340.854	-42.67
341.066	-50.86
341.278	-54.95
341.491	16.73
341.703	-9.9
341.915	-3.75
342.128	24.92
342.34	-30.38
342.552	10.58
342.764	8.53
342.977	-3.75
343.189	-24.23
343.401	-3.75
343.613	-7.85
343.826	18.77
344.038	-13.99
344.25	53.59
344.462	-13.99
344.674	8.53
344.886	4.44
345.099	6.49
345.311	-16.04
345.523	39.25
345.735	-24.23
345.947	31.06
346.159	-13.99
346.371	39.25
346.583	-18.09
346.795	37.2
347.007	-38.57
347.219	10.58
347.431	-36.52
347.643	51.54
347.855	-9.9
348.067	57.68
348.279	-1.71
348.491	-26.28
348.703	-30.38
348.915	12.63
349.127	-28.33
349.339	61.78
349.551	12.63
349.763	-34.47
349.975	39.25
350.187	22.87
350.399	-38.57
350.61	-63.15
350.822	-52.91
351.034	-7.85
351.246	78.16
351.458	10.58
351.669	-48.81
351.881	-32.43
352.093	22.87
352.305	-79.53
352.517	35.16
352.728	2.39
352.94	24.92
353.152	-30.38
353.363	14.68
353.575	-1.71
353.787	33.11
353.999	61.78
354.21	0.34
354.422	24.92
354.633	20.82
354.845	-34.47
355.057	26.96
355.268	6.49
355.48	47.44
355.692	-59.05
355.903	31.06
356.115	16.73
356.326	-108.2
356.538	37.2
356.749	37.2
356.961	55.64
357.172	31.06
357.384	-5.8
357.595	-32.43
357.807	31.06
358.018	-42.67
358.23	-24.23
358.441	-1.71
358.653	4.44
358.864	-11.95
359.075	43.35
359.287	-32.43
359.498	18.77
359.709	-16.04
359.921	-9.9
360.132	92.5
360.344	-13.99
360.555	-52.91
360.766	22.87
360.977	31.06
361.189	22.87
361.4	6.49
361.611	22.87
361.823	-100.01
362.034	-36.52
362.245	-7.85
362.456	12.63
362.667	33.11
362.879	39.25
363.09	-18.09
363.301	63.83
363.512	6.49
363.723	4.44
363.935	-30.38
364.146	6.49
364.357	-69.29
364.568	-18.09
364.779	-34.47
364.99	39.25
365.201	8.53
365.412	16.73
365.623	-18.09
365.834	-13.99
366.045	-75.43
366.256	26.96
366.467	59.73
366.678	-20.14
366.889	51.54
367.1	-36.52
367.311	-34.47
367.522	53.59
367.733	-48.81
367.944	31.06
368.155	-3.75
368.366	104.79
368.577	-24.23
368.788	14.68
368.999	-40.62
369.209	35.16
369.42	63.83
369.631	45.4
369.842	45.4
370.053	-9.9
370.264	-1.71
370.474	-75.43
370.685	-22.19
370.896	-30.38
371.107	-48.81
371.317	-42.67
371.528	20.82
371.739	22.87
371.95	-75.43
372.16	-18.09
372.371	20.82
372.582	-16.04
372.792	6.49
373.003	-75.43
373.214	-18.09
373.424	41.3
373.635	-38.57
373.846	-73.39
374.056	55.64
374.267	-18.09
374.477	-71.34
374.688	0.34
374.898	-22.19
375.109	47.44
375.319	-59.05
375.53	0.34
375.74	59.73
375.951	33.11
376.161	33.11
376.372	-26.28
376.582	-59.05
376.793	-67.24
377.003	-26.28
377.214	-71.34
377.424	39.25
377.635	35.16
377.845	-16.04
378.055	69.97
378.266	-44.71
378.476	-34.47
378.686	-24.23
378.897	8.53
379.107	80.21
379.317	-26.28
379.528	26.96
379.738	49.49
379.948	8.53
380.158	57.68
380.369	31.06
380.579	22.87
380.789	74.07
380.999	6.49
381.21	-22.19
381.42	-18.09
381.63	-5.8
381.84	39.25
382.05	-22.19
382.261	-34.47
382.471	-3.75
382.681	-7.85
382.891	-24.23
383.101	-9.9
383.311	-28.33
383.521	-67.24
383.731	-79.53
383.941	10.58
384.151	-18.09
384.361	102.74
384.571	-42.67
384.781	35.16
384.991	33.11
385.201	16.73
385.411	18.77
385.621	-22.19
385.831	-18.09
386.041	33.11
386.251	-36.52
386.461	20.82
386.671	33.11
386.881	26.96
387.091	-1.71
387.301	39.25
387.511	6.49
387.72	6.49
387.93	-40.62
388.14	-20.14
388.35	8.53
388.56	0.34
388.769	26.96
388.979	10.58
389.189	-67.24
389.399	39.25
389.609	16.73
389.818	-7.85
390.028	-83.63
390.238	65.88
390.447	-26.28
390.657	0.34
390.867	-22.19
391.076	22.87
391.286	-57
391.496	55.64
391.705	26.96
391.915	-48.81
392.125	-16.04
392.334	-1.71
392.544	-50.86
392.753	-89.77
392.963	-71.34
393.172	78.16
393.382	41.3
393.591	4.44
393.801	-11.95
394.01	65.88
394.22	-7.85
394.429	-7.85
394.639	-5.8
394.848	-7.85
395.058	-22.19
395.267	123.22
395.477	-26.28
395.686	-11.95
395.895	6.49
396.105	29.01
396.314	-9.9
396.524	-28.33
396.733	-32.43
396.942	26.96
397.152	-20.14
397.361	35.16
397.57	-50.86
397.78	2.39
397.989	53.59
398.198	-5.8
398.407	53.59
398.617	-73.39
398.826	0.34
399.035	22.87
399.244	-18.09
399.453	-13.99
399.663	26.96
399.872	-7.85
400.081	84.31
400.29	-44.71
400.499	-40.62
400.708	74.07
400.917	61.78
401.127	90.45
401.336	-9.9
401.545	-1.71
401.754	22.87
401.963	51.54
402.172	-9.9
402.381	53.59
402.59	41.3
402.799	47.44
403.008	29.01
403.217	-59.05
403.426	29.01
403.635	31.06
403.844	-5.8
404.053	-11.95
404.262	24.92
404.471	69.97
404.68	-5.8
404.888	43.35
405.097	-44.71
405.306	6.49
405.515	6.49
405.724	20.82
405.933	26.96
406.142	26.96
406.35	14.68
406.559	-3.75
406.768	41.3
406.977	65.88
407.185	57.68
407.394	55.64
407.603	55.64
407.812	78.16
408.02	88.4
408.229	47.44
408.438	121.17
408.646	86.36
408.855	108.88
409.064	135.51
409.272	133.46
409.481	22.87
409.69	117.08
409.898	139.6
410.107	121.17
410.315	115.03
410.524	121.17
410.733	123.22
410.941	96.6
411.15	207.19
411.358	67.92
411.567	168.27
411.775	147.8
411.984	115.03
412.192	168.27
412.401	141.65
412.609	170.32
412.818	168.27
413.026	121.17
413.234	176.47
413.443	125.27
413.651	196.95
413.86	248.15
414.068	172.37
414.276	291.15
414.485	225.62
414.693	166.23
414.901	254.29
415.11	303.44
415.318	276.82
415.526	264.53
415.734	301.39
415.943	328.02
416.151	340.3
416.359	239.95
416.567	264.53
416.776	442.7
416.984	336.21
417.192	344.4
417.4	352.59
417.608	303.44
417.817	358.74
418.025	348.5
418.233	450.89
418.441	401.74
418.649	434.51
418.857	475.47
419.065	522.57
419.273	467.28
419.481	467.28
419.689	516.43
419.897	565.58
420.105	498
420.313	612.68
420.521	618.83
420.729	586.06
420.937	647.5
421.145	616.78
421.353	670.03
421.561	710.99
421.769	768.33
421.977	670.03
422.185	667.98
422.393	760.14
422.601	827.72
422.809	803.15
423.017	833.86
423.224	958.79
423.432	909.64
423.64	977.22
423.848	981.32
424.056	987.46
424.263	1136.96
424.471	1087.81
424.679	1071.43
424.887	1155.4
425.094	1081.67
425.302	1202.5
425.51	1218.88
425.718	1120.58
425.925	1272.13
426.133	1327.43
426.341	1362.24
426.548	1446.21
426.756	1456.45
426.964	1452.35
427.171	1571.13
427.379	1573.18
427.586	1687.87
427.794	1608
428.001	1681.72
428.209	1845.56
428.417	1730.87
428.624	1925.43
428.832	1933.62
429.039	1898.81
429.247	1884.47
429.454	2124.08
429.662	2244.92
429.869	2126.13
430.076	2160.95
430.284	2148.66
430.491	2289.97
430.699	2332.98
430.906	2304.31
431.114	2541.87
431.321	2550.06
431.528	2625.84
431.736	2742.57
431.943	2816.3
432.15	2763.05
432.358	2810.15
432.565	2900.27
432.772	2965.8
432.979	3131.69
433.187	3080.49
433.394	3152.17
433.601	3295.52
433.808	3254.56
434.016	3299.62
434.223	3533.09
434.43	3744.03
434.637	3625.25
434.844	3873.05
435.052	3995.93
435.259	3885.34
435.466	3905.82
435.673	4069.66
435.88	4018.46
436.087	4401.43
436.294	4405.52
436.501	4423.95
436.708	4329.75
436.915	4509.97
437.122	4669.71
437.329	4770.06
437.537	4737.29
437.743	4948.23
437.95	4946.19
438.157	5095.69
438.364	5374.21
438.571	5423.36
438.778	5339.4
438.985	5832.96
439.192	5636.35
439.399	5722.37
439.606	5689.6
439.813	5953.79
440.02	6453.49
440.227	6289.65
440.433	6160.63
440.64	6420.72
440.847	6402.29
441.054	6486.26
441.261	6908.14
441.467	6729.97
441.674	6656.24
441.881	7059.69
442.088	7192.81
442.294	7049.45
442.501	7475.43
442.708	7569.63
442.914	7667.94
443.121	8079.58
443.328	8018.14
443.534	8329.43
443.741	8274.14
443.948	7915.74
444.154	8732.88
444.361	8585.43
444.568	8802.51
444.774	8706.26
444.981	8773.84
445.187	8876.24
445.394	9490.63
445.6	9146.57
445.807	10168.51
446.013	9640.13
446.22	9703.62
446.426	10238.14
446.633	10365.11
446.839	10776.75
447.046	10272.95
447.252	10856.62
447.459	10713.27
447.665	10741.94
447.871	11264.17
448.078	11778.21
448.284	11075.76
448.491	11573.41
448.697	11925.66
448.903	12282.01
449.11	12173.47
449.316	11946.14
449.522	12073.12
449.728	12660.88
449.935	12572.82
450.141	12560.53
450.347	12865.68
450.553	12673.17
450.76	12624.02
450.966	13019.28
451.172	13097.1
451.378	13154.44
451.584	12877.97
451.791	13297.8
451.997	13160.59
452.203	13514.89
452.409	13572.23
452.615	13115.53
452.821	12566.68
453.027	12632.21
453.233	13217.93
453.44	13084.81
453.646	12810.39
453.852	12822.67
454.058	13275.27
454.264	12769.43
454.47	12978.32
454.676	12757.14
454.882	13199.5
455.088	11983.01
455.294	12214.43
455.5	12433.56
455.705	12316.83
455.911	11847.84
456.117	11643.04
456.323	11647.14
456.529	10909.87
456.735	11511.97
456.941	11294.89
457.147	10971.31
457.352	10576.05
457.558	10582.2
457.764	10496.18
457.97	10469.56
458.176	10152.12
458.381	9986.24
458.587	9535.68
458.793	9582.79
458.999	8960.2
459.204	9808.06
459.41	9439.43
459.616	8839.37
459.821	8739.02
460.027	8755.41
460.233	8558.8
460.438	8323.29
460.644	8190.17
460.85	8001.76
461.055	7917.79
461.261	7778.53
461.466	7178.47
461.672	7024.87
461.878	7512.29
462.083	7078.12
462.289	6920.43
462.494	6797.55
462.7	6484.21
462.905	6256.89
463.111	6629.62
463.316	6549.75
463.522	6490.35
463.727	6539.51
463.932	6543.6
464.138	6410.48
464.343	6494.45
464.549	6265.08
464.754	6482.16
464.959	6316.28
465.165	6504.69
465.37	6060.28
465.575	6015.23
465.781	6236.41
465.986	6207.73
466.191	6037.75
466.397	5884.16
466.602	5536
466.807	5748.99
467.012	5892.35
467.218	5912.83
467.423	5579.01
467.628	5699.84
467.833	5978.36
468.038	5701.89
468.244	5626.11
468.449	5945.59
468.654	5525.76
468.859	5740.8
469.064	5628.16
469.269	5265.67
469.474	5359.88
469.679	5470.47
469.885	5220.61
470.09	5423.36
470.295	5312.77
470.5	5150.98
470.705	5359.88
470.91	5241.09
471.115	5050.63
471.32	5144.84
471.525	5206.28
471.73	5077.26
471.935	4815.12
472.139	4780.3
472.344	4968.71
472.549	4794.64
472.754	4880.65
472.959	4804.88
473.164	4544.78
473.369	4624.65
473.574	4831.5
473.778	4624.65
473.983	4516.11
474.188	4624.65
474.393	4342.04
474.598	4397.33
474.802	4395.28
475.007	4292.88
475.212	4421.91
475.417	4059.42
475.621	4159.77
475.826	4258.07
476.031	4133.14
476.235	3975.45
476.44	4071.7
476.645	3871
476.849	4036.89
477.054	3971.35
477.259	3799.32
477.463	4053.27
477.668	3858.71
477.872	3832.09
478.077	3809.56
478.282	3684.64
478.486	3694.88
478.691	3541.28
478.895	3606.81
479.1	3686.69
479.304	3565.85
479.509	3414.31
479.713	3580.19
479.918	3561.76
480.122	3504.42
480.326	3471.65
480.531	3588.38
480.735	3473.7
480.94	3553.57
481.144	3598.62
481.348	3412.26
481.553	3262.76
481.757	3381.54
481.961	3436.83
482.166	3629.34
482.37	3373.35
482.574	3334.43
482.778	3428.64
482.983	3445.02
483.187	3402.02
483.391	3537.18
483.595	3420.45
483.8	3303.71
484.004	3393.83
484.208	3418.4
484.412	3359.01
484.616	3393.83
484.821	3289.38
485.025	3375.39
485.229	3379.49
485.433	3356.96
485.637	3453.22
485.841	3449.12
486.045	3336.48
486.249	3322.15
486.453	3293.48
486.657	3359.01
486.861	3463.46
487.065	3215.65
487.269	3348.77
487.473	3291.43
487.677	3369.25
487.881	3451.17
488.085	3406.11
488.289	3356.96
488.493	3402.02
488.697	3430.69
488.901	3318.05
489.105	3266.85
489.309	3408.16
489.512	3387.68
489.716	3565.85
489.92	3490.08
490.124	3422.5
490.328	3608.86
490.531	3479.84
490.735	3424.55
490.939	3346.72
491.143	3477.79
491.346	3504.42
491.55	3504.42
491.754	3467.55
491.958	3588.38
492.161	3569.95
492.365	3518.75
492.569	3445.02
492.772	3561.76
492.976	3606.81
493.18	3635.49
493.383	3602.72
493.587	3823.9
493.79	3696.92
493.994	3580.19
494.197	3639.58
494.401	3782.94
494.605	3791.13
494.808	3907.87
495.012	3907.87
495.215	3879.19
495.419	3979.54
495.622	4061.46
495.825	3922.2
496.029	3991.83
496.232	4217.11
496.436	4118.81
496.639	4274.45
496.843	4063.51
497.046	4202.77
497.249	4309.27
497.453	4323.6
497.656	4454.67
497.859	4382.99
498.063	4268.31
498.266	4503.82
498.469	4344.08
498.673	4372.75
498.876	4659.47
499.079	4466.96
499.282	4669.71
499.485	4839.69
499.689	4716.81
499.892	4892.94
500.095	4872.46
500.298	4929.8
500.501	4888.84
500.705	4991.24
500.908	5040.39
501.111	5230.85
501.314	5282.05
501.517	5357.83
501.72	5478.66
501.923	5427.46
502.126	5519.62
502.329	5572.86
502.532	5667.07
502.735	5579.01
502.938	5814.52
503.141	5714.17
503.344	5957.88
503.547	5990.65
503.75	6084.86
503.953	6205.69
504.156	6181.11
504.359	6207.73
504.562	6385.91
504.765	6469.87
504.968	6516.98
505.17	6541.55
505.373	6529.27
505.576	6650.1
505.779	6789.36
505.982	6969.58
506.185	7131.37
506.387	7016.68
506.59	6983.91
506.793	7246.05
506.996	7098.6
507.198	7407.84
507.401	7229.67
507.604	7479.52
507.807	7676.13
508.009	7747.81
508.212	7782.62
508.415	7850.21
508.617	8087.77
508.82	7968.99
509.022	8014.04
509.225	8333.53
509.428	8411.35
509.63	8556.75
509.833	8607.95
510.035	8782.03
510.238	8820.94
510.44	8886.48
510.643	9070.79
510.845	9334.98
511.048	8970.44
511.25	9298.12
511.453	9330.89
511.655	9545.92
511.858	9562.31
512.06	9840.83
512.262	9752.77
512.465	9910.46
512.667	10012.86
512.87	10211.51
513.072	10127.55
513.274	10500.28
513.477	10533.04
513.679	10559.67
513.881	10920.11
514.084	10889.39
514.286	10836.14
514.488	11047.08
514.69	11360.42
514.893	11387.05
515.095	11546.79
515.297	11610.28
515.499	11620.52
515.701	11946.14
515.904	12019.87
516.106	12185.76
516.308	12187.8
516.51	12613.78
516.712	12593.3
516.914	12669.08
517.116	12976.27
517.318	13361.29
517.52	13293.71
517.722	13187.21
517.925	13561.99
518.127	13566.09
518.329	13619.33
518.531	13668.48
518.733	14119.04
518.935	14123.13
519.136	14133.37
519.338	14418.04
519.54	14608.5
519.742	14831.73
519.944	14841.97
520.146	15087.73
520.348	15243.37
520.55	15282.28
520.752	15339.63
520.954	15693.93
521.155	15476.84
521.357	16072.8
521.559	15960.16
521.761	16416.86
521.963	16261.21
522.164	16140.38
522.366	16162.91
522.568	16832.6
522.77	16629.85
522.971	17229.9
523.173	16928.85
523.375	16961.62
523.576	17221.71
523.778	17403.98
523.98	17514.57
524.181	17688.65
524.383	17707.08
524.584	17805.38
524.786	17932.36
524.988	17879.11
525.189	18288.7
525.391	18382.91
525.592	18350.14
525.794	18538.55
525.995	18655.29
526.197	18823.22
526.398	18647.1
526.6	18858.04
526.801	19259.44
527.003	19245.1
527.204	19384.37
527.406	19357.74
527.607	19363.89
527.808	19560.49
528.01	19152.95
528.211	19238.96
528.412	19748.9
528.614	19722.28
528.815	19890.21
529.016	20111.39
529.218	20039.72
529.419	19894.31
529.62	20138.02
529.822	19961.89
530.023	19937.32
530.224	19839.01
530.425	19994.66
530.626	20056.1
530.828	20226.08
531.029	20514.84
531.23	20389.92
531.431	20172.83
531.632	20705.31
531.833	20322.34
532.035	20426.78
532.236	20490.27
532.437	20828.18
532.638	20344.86
532.839	20641.82
533.04	20717.59
533.241	20332.58
533.442	20664.35
533.643	20836.38
533.844	20668.44
534.045	20912.15
534.246	20744.22
534.447	20637.72
534.648	20807.7
534.849	20953.11
535.05	20809.75
535.251	20975.64
535.451	21002.26
535.652	21274.64
535.853	20842.52
536.054	20725.79
536.255	21006.36
536.456	20760.6
536.657	21370.9
536.857	21008.4
537.058	20682.78
537.259	21100.56
537.46	20922.39
537.66	20963.35
537.861	20938.77
538.062	20703.26
538.263	21071.89
538.463	21053.46
538.664	20754.46
538.865	20873.24
539.065	20932.63
539.266	20611.1
539.466	21047.32
539.667	20781.08
539.868	21112.85
540.068	20895.77
540.269	20944.92
540.469	21078.04
540.67	21008.4
540.87	21200.91
541.071	20811.8
541.271	21000.21
541.472	20998.16
541.672	21078.04
541.873	21018.64
542.073	20942.87
542.274	21297.17
542.474	21041.17
542.675	20678.68
542.875	21045.27
543.075	20850.71
543.276	20576.28
543.476	21379.09
543.676	20697.11
543.877	20951.06
544.077	20994.07
544.277	21137.43
544.478	20953.11
544.678	20910.1
544.878	20815.9
545.078	21002.26
545.279	20951.06
545.479	21043.22
545.679	20785.18
545.879	21098.52
546.079	21239.83
546.28	20889.62
546.48	21051.41
546.68	21082.13
546.88	21106.71
547.08	20729.88
547.28	21006.36
547.48	20797.46
547.68	21114.9
547.88	20916.25
548.081	21106.71
548.281	21227.54
548.481	21075.99
548.681	20985.88
548.881	20985.88
549.081	21086.23
549.28	21084.18
549.48	21112.85
549.68	21012.5
549.88	21190.67
550.08	20760.6
550.28	21022.74
550.48	21053.46
550.68	21196.82
550.88	20834.33
551.08	20674.59
551.279	21100.56
551.479	20846.62
551.679	20928.53
551.879	20889.62
552.079	20781.08
552.278	20850.71
552.478	20938.77
552.678	20873.24
552.878	21106.71
553.077	20971.54
553.277	20576.28
553.477	21219.35
553.676	20676.63
553.876	20756.5
554.076	20561.95
554.275	21004.31
554.475	20553.76
554.674	20854.81
554.874	20887.57
555.074	20629.53
555.273	20813.85
555.473	20879.38
555.672	20662.3
555.872	20723.74
556.071	20549.66
556.271	20670.49
556.47	20494.36
556.67	20564
556.869	20375.58
557.068	20559.9
557.268	20275.23
557.467	20561.95
557.667	20490.27
557.866	20371.49
558.065	20168.74
558.265	20297.76
558.464	20107.3
558.663	20437.02
558.863	19963.94
559.062	20426.78
559.261	20023.33
559.461	20195.36
559.66	20181.03
559.859	20252.7
560.058	19849.25
560.258	19957.8
560.457	19660.84
560.656	20224.03
560.855	20133.92
561.054	19734.57
561.253	19976.23
561.453	19986.47
561.652	19683.37
561.851	19875.88
562.05	19879.97
562.249	19767.34
562.448	20043.81
562.647	19671.08
562.846	19529.77
563.045	19642.41
563.244	19388.46
563.443	19693.61
563.642	19615.79
563.841	19460.14
564.04	19497
564.239	19697.7
564.438	19396.65
564.637	19564.59
564.836	19294.25
565.035	19300.4
565.234	19425.32
565.432	19083.31
565.631	18954.29
565.83	19232.82
566.029	18919.48
566.228	19052.59
566.427	18739.26
566.625	18858.04
566.824	18628.67
567.023	18864.18
567.222	18458.68
567.42	18933.81
567.619	18438.2
567.818	18370.62
568.016	18298.94
568.215	18868.28
568.414	18280.51
568.612	18511.93
568.811	18362.43
569.01	18395.2
569.208	18204.74
569.407	18366.53
569.605	18206.78
569.804	18380.86
570.002	18280.51
570.201	18217.02
570.4	17944.64
570.598	17940.55
570.797	17758.28
570.995	18059.33
571.193	17883.2
571.392	17725.51
571.59	17580.11
571.789	17475.66
571.987	17459.27
572.186	17287.25
572.384	17303.63
572.582	17442.89
572.781	17377.36
572.979	17145.94
573.177	17197.13
573.376	17322.06
573.574	17266.77
573.772	17236.05
573.971	16975.95
574.169	16920.66
574.367	16789.59
574.565	17016.91
574.763	16670.81
574.962	16664.66
575.16	16654.42
575.358	16613.46
575.556	16564.31
575.754	16644.18
575.952	16234.59
576.151	16330.84
576.349	16269.41
576.547	16390.24
576.745	16316.51
576.943	16250.97
577.141	16017.5
577.339	16253.02
577.537	15853.67
577.735	15958.11
577.933	15941.73
578.131	16027.74
578.329	15888.48
578.527	15528.04
578.725	15786.08
578.923	15757.41
579.121	15708.26
579.319	15681.64
579.516	15755.36
579.714	15671.4
579.912	15439.98
580.11	15442.03
580.308	15503.46
580.506	15411.31
580.704	15298.67
580.901	15366.25
581.099	15368.3
581.297	15194.22
581.495	15282.28
581.692	15345.77
581.89	15089.78
582.088	15079.54
582.285	14760.05
582.483	15124.59
582.681	14901.36
582.878	14837.87
583.076	14403.71
583.274	14833.78
583.471	14528.63
583.669	14643.32
583.866	14624.89
584.064	14686.33
584.262	14291.07
584.459	14555.26
584.657	14319.74
584.854	14538.87
585.052	14162.05
585.249	14506.1
585.447	14209.15
585.644	13895.81
585.841	14024.83
586.039	14272.64
586.236	13951.1
586.434	13985.92
586.631	13940.86
586.828	13766.79
587.026	13836.42
587.223	13981.82
587.42	13627.53
587.618	13793.41
587.815	13721.73
588.012	13498.5
588.21	13480.07
588.407	13666.44
588.604	13445.26
588.801	13467.78
588.999	13432.97
589.196	13449.35
589.393	13482.12
589.59	13551.75
589.787	13383.82
589.984	13271.18
590.182	13041.81
590.379	13260.94
590.576	13248.65
590.773	12968.08
590.97	12976.27
591.167	12996.75
591.364	12855.44
591.561	13054.09
591.758	12765.33
591.955	12675.22
592.152	12925.07
592.349	12646.55
592.546	12714.13
592.743	12828.82
592.94	12630.16
593.137	12568.73
593.334	12615.83
593.531	12327.07
593.727	12423.32
593.924	12456.09
594.121	12578.97
594.318	12507.29
594.515	12171.42
594.712	12331.16
594.908	12165.28
595.105	12368.02
595.302	12048.54
595.499	12015.77
595.696	12138.65
595.892	12302.49
596.089	12239
596.286	12064.93
596.482	12210.33
596.679	11864.22
596.876	11970.72
597.072	11903.14
597.269	12034.21
597.466	11847.84
597.662	11851.94
597.859	11761.83
598.055	11800.74
598.252	11724.96
598.448	11681.96
598.645	11616.42
598.841	11624.61
599.038	11608.23
599.234	11577.51
599.431	11335.85
599.627	11645.09
599.824	11440.29
600.02	11419.82
600.217	11305.13
600.413	11309.22
600.609	11366.57
600.806	11331.75
601.002	11110.57
601.198	11061.42
601.395	10967.21
601.591	11184.3
601.787	10983.6
601.984	11071.66
602.18	11034.8
602.376	10840.24
602.572	11008.17
602.769	10959.02
602.965	10633.4
603.161	10846.38
603.357	10584.24
603.553	10649.78
603.75	10766.51
603.946	10748.08
604.142	10713.27
604.338	10475.7
604.534	10576.05
604.73	10596.53
604.926	10463.41
605.122	10578.1
605.318	10475.7
605.514	10320.06
605.71	10174.65
605.906	10309.82
606.102	10254.52
606.298	10385.59
606.494	10166.46
606.69	10213.56
606.886	10105.02
607.082	10188.99
607.278	10295.48
607.474	9779.39
607.67	10207.42
607.866	9676.99
608.062	9912.51
608.257	9844.93
608.453	10076.35
608.649	9838.78
608.845	9713.86
609.041	9787.58
609.236	9787.58
609.432	9803.97
609.628	9633.99
609.824	9556.16
610.019	9820.35
610.215	9738.43
610.411	9701.57
610.606	9578.69
610.802	9619.65
610.998	9572.55
611.193	9580.74
611.389	9455.81
611.584	9175.24
611.78	9353.41
611.976	9425.09
612.171	9353.41
612.367	9273.54
612.562	9304.26
612.758	9205.96
612.953	9175.24
613.149	9287.88
613.344	8915.15
613.539	9097.42
613.735	9193.67
613.93	9203.91
614.126	9177.29
614.321	9144.52
614.517	9021.64
614.712	9033.93
614.907	8833.23
615.103	9105.61
615.298	9038.03
615.493	8960.2
615.688	8646.87
615.884	8759.5
616.079	8700.11
616.274	8726.74
616.47	8786.13
616.665	8886.48
616.86	8653.01
617.055	8591.57
617.25	8761.55
617.445	8771.79
617.641	8534.23
617.836	8673.49
618.031	8650.96
618.226	8632.53
618.421	8362.2
618.616	8579.28
618.811	8362.2
619.006	8607.95
619.201	8290.52
619.396	8323.29
619.591	8188.12
619.786	8304.85
619.981	8143.07
620.176	8171.74
620.371	8239.32
620.566	8222.94
620.761	8208.6
620.956	8186.07
621.151	8018.14
621.346	7887.07
621.541	7946.46
621.735	7973.08
621.93	7796.96
622.125	8005.85
622.32	7772.38
622.515	7676.13
622.709	7614.69
622.904	7567.59
623.099	7510.24
623.294	7489.76
623.488	7571.68
623.683	7538.91
623.878	7454.95
624.072	7397.6
624.267	7452.9
624.462	7426.28
624.656	7338.21
624.851	7211.24
625.046	7131.37
625.24	7284.97
625.435	7108.84
625.629	6994.15
625.824	7139.56
626.018	7080.17
626.213	6971.63
626.407	6791.41
626.602	6893.8
626.796	6922.48
626.991	7045.35
627.185	6752.49
627.38	6783.21
627.574	6766.83
627.768	6801.65
627.963	6568.18
628.157	6631.66
628.352	6746.35
628.546	6349.04
628.74	6572.27
628.935	6457.59
629.129	6426.87
629.323	6451.44
629.517	6355.19
629.712	6412.53
629.906	6375.67
630.1	6199.54
630.294	6183.16
630.489	6308.09
630.683	6269.17
630.877	6187.25
631.071	5947.64
631.265	6174.97
631.459	6043.9
631.653	5873.92
631.848	6140.15
632.042	6080.76
632.236	6086.9
632.43	5906.68
632.624	6011.13
632.818	5923.07
633.012	5638.4
633.206	5724.41
633.4	5736.7
633.594	5691.65
633.788	5685.5
633.982	5822.72
634.176	5640.45
634.369	5781.76
634.563	5345.54
634.757	5609.73
634.951	5613.82
635.145	5601.54
635.339	5550.34
635.533	5400.83
635.726	5470.47
635.92	5423.36
636.114	5341.44
636.308	5298.44
636.501	5286.15
636.695	5257.48
636.889	5230.85
637.083	5218.57
637.276	5091.59
637.47	5237
637.664	5132.55
637.857	5224.71
638.051	5222.66
638.244	4882.7
638.438	5153.03
638.632	4808.97
638.825	4878.6
639.019	4905.23
639.212	4964.62
639.406	4884.75
639.599	4819.21
639.793	4937.99
639.986	4763.92
640.18	4792.59
640.373	4745.48
640.567	4600.08
640.76	4643.09
640.954	4526.35
641.147	4636.94
641.34	4569.36
641.534	4612.37
641.727	4538.64
641.92	4448.53
642.114	4469.01
642.307	4520.21
642.5	4473.11
642.694	4243.73
642.887	4325.65
643.08	4464.91
643.273	4421.91
643.467	4276.5
643.66	4423.95
643.853	4194.58
644.046	4282.64
644.239	4217.11
644.432	4086.04
644.626	4241.68
644.819	4002.07
645.012	4040.98
645.205	4030.74
645.398	4047.13
645.591	4045.08
645.784	4020.5
645.977	3926.3
646.17	4102.42
646.363	3887.39
646.556	3791.13
646.749	3852.57
646.942	3924.25
647.135	3860.76
647.328	3682.59
647.521	3721.5
647.714	3621.15
647.907	3694.88
648.099	3684.64
648.292	3692.83
648.485	3686.69
648.678	3692.83
648.871	3588.38
649.064	3567.9
649.256	3637.53
649.449	3600.67
649.642	3563.81
649.835	3488.03
650.027	3463.46
650.22	3629.34
650.413	3418.4
650.605	3535.14
650.798	3385.63
650.991	3344.67
651.183	3350.82
651.376	3348.77
651.568	3389.73
651.761	3363.11
651.954	3428.64
652.146	3279.14
652.339	3379.49
652.531	3332.39
652.724	3223.84
652.916	3242.28
653.109	3168.55
653.301	3201.32
653.494	3113.25
653.686	3060.01
653.879	3127.59
654.071	3070.25
654.263	3127.59
654.456	3006.76
654.648	3000.62
654.84	3045.67
655.033	3115.3
655.225	2855.21
655.417	2910.5
655.61	2988.33
655.802	2847.02
655.994	2928.94
656.186	2830.63
656.379	2847.02
656.571	2775.34
656.763	2791.72
656.955	2824.49
657.148	2861.35
657.34	2781.48
657.532	2742.57
657.724	2857.26
657.916	2808.11
658.108	2623.79
658.3	2638.13
658.492	2713.9
658.684	2570.54
658.876	2646.32
659.068	2621.74
659.26	2666.8
659.452	2722.09
659.644	2603.31
659.836	2548.01
660.028	2574.64
660.22	2445.62
660.412	2619.69
660.604	2500.91
660.796	2445.62
660.988	2539.82
661.18	2398.51
661.372	2513.2
661.563	2509.1
661.755	2373.94
661.947	2527.53
662.139	2494.77
662.331	2378.03
662.522	2449.71
662.714	2332.98
662.906	2384.18
663.097	2304.31
663.289	2353.46
663.481	2363.7
663.673	2255.15
663.864	2357.55
664.056	2283.83
664.247	2292.02
664.439	2091.32
664.631	2257.2
664.822	2300.21
665.014	2281.78
665.205	2119.99
665.397	2259.25
665.588	2179.38
665.78	2238.77
665.971	2138.42
666.163	2175.28
666.354	2203.96
666.546	1999.16
666.737	2119.99
666.929	2154.8
667.12	2115.89
667.311	2089.27
667.503	2025.78
667.694	2062.65
667.885	2017.59
668.077	2056.5
668.268	2095.41
668.459	1939.77
668.651	1923.38
668.842	1870.14
669.033	1999.16
669.224	1960.25
669.416	1995.06
669.607	1907
669.798	1890.62
669.989	1923.38
670.18	1921.34
670.371	1907
670.563	1806.65
670.754	1958.2
670.945	1827.13
671.136	1915.19
671.327	1904.95
671.518	1952.06
671.709	1845.56
671.9	1939.77
672.091	1818.94
672.282	1835.32
672.473	1804.6
672.664	1780.03
672.855	1866.04
673.046	1872.18
673.237	1831.23
673.428	1792.31
673.619	1720.64
673.809	1737.02
674	1837.37
674.191	1759.55
674.382	1786.17
674.573	1849.66
674.764	1751.35
674.954	1734.97
675.145	1710.4
675.336	1712.44
675.527	1706.3
675.717	1749.31
675.908	1773.88
676.099	1730.87
676.289	1745.21
676.48	1749.31
676.671	1655.1
676.861	1722.68
677.052	1614.14
677.243	1587.52
677.433	1634.62
677.624	1646.91
677.814	1718.59
678.005	1669.44
678.195	1737.02
678.386	1689.92
678.576	1679.68
678.767	1612.09
678.957	1691.96
679.148	1638.72
679.338	1620.28
679.529	1665.34
679.719	1634.62
679.909	1610.04
680.1	1677.63
680.29	1616.19
680.481	1700.16
680.671	1669.44
680.861	1567.04
681.052	1648.96
681.242	1624.38
681.432	1630.52
681.622	1583.42
681.813	1677.63
682.003	1597.76
682.193	1593.66
682.383	1624.38
682.573	1579.33
682.764	1671.48
682.954	1603.9
683.144	1620.28
683.334	1622.33
683.524	1589.57
683.714	1585.47
683.904	1548.61
684.094	1608
684.284	1558.85
684.474	1560.89
684.664	1581.37
684.854	1669.44
685.044	1491.26
685.234	1526.08
685.424	1677.63
685.614	1511.74
685.804	1591.61
685.994	1589.57
686.184	1603.9
686.374	1487.17
686.564	1528.13
686.753	1564.99
686.943	1532.22
687.133	1571.13
687.323	1485.12
687.513	1446.21
687.702	1521.98
687.892	1442.11
688.082	1575.23
688.272	1530.17
688.461	1472.83
688.651	1626.43
688.841	1444.16
689.03	1605.95
689.22	1427.78
689.41	1556.8
689.599	1489.21
689.789	1575.23
689.979	1513.79
690.168	1562.94
690.358	1468.73
690.547	1534.27
690.737	1560.89
690.926	1403.2
691.116	1468.73
691.305	1485.12
691.495	1521.98
691.684	1481.02
691.874	1481.02
692.063	1392.96
692.252	1489.21
692.442	1472.83
692.631	1435.97
692.82	1468.73
693.01	1415.49
693.199	1511.74
693.388	1489.21
693.578	1526.08
693.767	1440.06
693.956	1474.88
694.146	1489.21
694.335	1474.88
694.524	1483.07
694.713	1571.13
694.902	1528.13
695.092	1569.09
695.281	1476.93
695.47	1442.11
695.659	1587.52
695.848	1419.58
696.037	1513.79
696.226	1456.45
696.415	1495.36
696.604	1513.79
696.793	1524.03
696.982	1497.41
697.171	1521.98
697.36	1464.64
697.549	1466.69
697.738	1415.49
697.927	1474.88
698.116	1534.27
698.305	1438.02
698.494	1446.21
698.683	1536.32
698.872	1562.94
699.061	1329.47
699.25	1497.41
699.438	1493.31
699.627	1616.19
699.816	1532.22
700.005	1390.91
700.193	1628.48
700.382	1474.88
700.571	1497.41
700.76	1452.35
700.948	1564.99
701.137	1411.39
701.326	1532.22
701.514	1349.95
701.703	1515.84
701.892	1468.73
702.08	1448.26
702.269	1429.82
702.457	1421.63
702.646	1558.85
702.834	1485.12
703.023	1466.69
703.212	1448.26
703.4	1435.97
703.589	1472.83
703.777	1540.41
703.965	1464.64
704.154	1474.88
704.342	1495.36
704.531	1372.48
704.719	1501.5
704.907	1376.58
705.096	1530.17
705.284	1380.67
705.472	1503.55
705.661	1493.31
705.849	1489.21
706.037	1405.25
706.226	1378.62
706.414	1448.26
706.602	1374.53
706.79	1466.69
706.979	1392.96
707.167	1485.12
707.355	1411.39
707.543	1470.78
707.731	1440.06
707.919	1452.35
708.107	1448.26
708.296	1452.35
708.484	1306.95
708.672	1395.01
708.86	1401.15
709.048	1388.86
709.236	1231.17
709.424	1286.47
709.612	1425.73
709.8	1366.34
709.988	1317.19
710.176	1376.58
710.364	1407.3
710.551	1380.67
710.739	1317.19
710.927	1313.09
711.115	1284.42
711.303	1218.88
711.491	1497.41
711.679	1233.22
711.866	1423.68
712.054	1265.99
712.242	1341.76
712.43	1358.14
712.617	1349.95
712.805	1313.09
712.993	1288.51
713.181	1349.95
713.368	1347.9
713.556	1216.83
713.744	1319.23
713.931	1339.71
714.119	1247.55
714.306	1325.38
714.494	1286.47
714.682	1212.74
714.869	1210.69
715.057	1268.03
715.244	1263.94
715.432	1227.07
715.619	1255.75
715.807	1169.73
715.994	1278.27
716.182	1173.83
716.369	1241.41
716.556	1319.23
716.744	1272.13
716.931	1175.88
717.119	1190.21
717.306	1163.59
717.493	1188.16
717.681	1210.69
717.868	1204.55
718.055	1241.41
718.242	1192.26
718.43	1165.64
718.617	1216.83
718.804	1157.44
718.991	1216.83
719.179	1214.79
719.366	1220.93
719.553	1173.83
719.74	1182.02
719.927	1102.15
720.114	1179.97
720.301	1096
720.488	1136.96
720.676	1096
720.863	1141.06
721.05	1075.52
721.237	1104.2
721.424	1112.39
721.611	1194.31
721.798	1075.52
721.985	1112.39
722.172	1108.29
722.358	1057.09
722.545	1102.15
722.732	1057.09
722.919	1128.77
723.106	1065.29
723.293	1057.09
723.48	1061.19
723.667	977.22
723.853	1085.76
724.04	1096
724.227	1059.14
724.414	1077.57
724.6	995.65
724.787	1149.25
724.974	1042.76
725.161	1044.81
725.347	1016.13
725.534	1077.57
725.72	1007.94
725.907	1007.94
726.094	997.7
726.28	1036.61
726.467	1053
726.653	981.32
726.84	1038.66
727.027	1044.81
727.213	995.65
727.4	1073.48
727.586	987.46
727.773	1040.71
727.959	991.56
728.145	1050.95
728.332	1061.19
728.518	932.17
728.705	1057.09
728.891	936.26
729.077	977.22
729.264	952.65
729.45	940.36
729.636	1007.94
729.823	973.13
730.009	971.08
730.195	923.98
730.382	940.36
730.568	985.41
730.754	1022.28
730.94	932.17
731.126	1007.94
731.313	952.65
731.499	917.83
731.685	944.45
731.871	899.4
732.057	1009.99
732.243	966.98
732.429	928.07
732.615	995.65
732.801	885.06
732.987	831.82
733.173	948.55
733.359	944.45
733.545	848.2
733.731	819.53
733.917	952.65
734.103	1012.04
734.289	948.55
734.475	966.98
734.661	891.21
734.847	915.78
735.033	921.93
735.219	868.68
735.404	874.82
735.59	919.88
735.776	911.69
735.962	887.11
736.148	813.38
736.333	983.37
736.519	899.4
736.705	825.67
736.89	901.45
737.076	846.15
737.262	893.26
737.447	864.58
737.633	948.55
737.819	868.68
738.004	784.71
738.19	876.87
738.375	874.82
738.561	866.63
738.747	846.15
738.932	850.25
739.118	819.53
739.303	778.57
739.489	858.44
739.674	760.14
739.859	846.15
740.045	846.15
740.23	850.25
740.416	829.77
740.601	809.29
740.786	672.08
740.972	790.86
741.157	764.23
741.342	663.88
741.528	858.44
741.713	821.58
741.898	797
742.084	686.41
742.269	837.96
742.454	737.61
742.639	790.86
742.824	823.62
743.01	768.33
743.195	760.14
743.38	794.95
743.565	766.28
743.75	725.32
743.935	764.23
744.12	786.76
744.305	704.84
744.49	692.55
744.675	723.27
744.86	809.29
745.045	620.88
745.23	737.61
745.415	756.04
745.6	692.55
745.785	776.52
745.97	655.69
746.155	760.14
746.34	655.69
746.525	670.03
746.71	717.13
746.895	618.83
747.079	770.38
747.264	776.52
747.449	653.64
747.634	629.07
747.819	639.31
748.003	721.23
748.188	653.64
748.373	672.08
748.557	633.16
748.742	678.22
748.927	706.89
749.111	631.12
749.296	555.34
749.481	702.79
749.665	551.24
749.85	565.58
750.034	700.75
750.219	680.27
750.404	612.68
750.588	565.58
750.773	633.16
750.957	612.68
751.141	569.68
751.326	647.5
751.51	631.12
751.695	641.36
751.879	610.64
752.064	631.12
752.248	588.11
752.432	612.68
752.617	610.64
752.801	575.82
752.985	549.2
753.17	627.02
753.354	602.44
753.538	612.68
753.722	495.95
753.907	586.06
754.091	528.72
754.275	555.34
754.459	536.91
754.643	612.68
754.828	526.67
755.012	516.43
755.196	584.01
755.38	489.81
755.564	489.81
755.748	538.96
755.932	543.05
756.116	522.57
756.3	504.14
756.484	538.96
756.668	547.15
756.852	444.75
757.036	514.38
757.22	487.76
757.404	438.61
757.588	471.37
757.772	502.09
757.956	459.09
758.14	422.22
758.323	459.09
758.507	495.95
758.691	522.57
758.875	459.09
759.059	418.13
759.242	461.13
759.426	461.13
759.61	436.56
759.794	426.32
759.977	514.38
760.161	481.61
760.345	368.98
760.528	489.81
760.712	426.32
760.895	432.46
761.079	403.79
761.263	358.74
761.446	299.34
761.63	315.73
761.813	436.56
761.997	395.6
762.18	418.13
762.364	467.28
762.547	448.85
762.731	397.65
762.914	352.59
763.098	434.51
763.281	440.65
763.464	379.22
763.648	309.58
763.831	358.74
764.015	373.07
764.198	440.65
764.381	323.92
764.564	459.09
764.748	387.41
764.931	411.98
765.114	278.87
765.297	362.83
765.481	452.94
765.664	368.98
765.847	381.26
766.03	344.4
766.213	352.59
766.397	352.59
766.58	371.02
766.763	274.77
766.946	407.89
767.129	360.78
767.312	397.65
767.495	299.34
767.678	418.13
767.861	405.84
768.044	293.2
768.227	344.4
768.41	350.54
768.593	278.87
768.776	358.74
768.959	432.46
769.142	391.5
769.324	297.3
769.507	332.11
769.69	254.29
769.873	315.73
770.056	301.39
770.239	293.2
770.421	330.06
770.604	305.49
770.787	338.26
770.97	246.1
771.152	362.83
771.335	350.54
771.518	346.45
771.7	338.26
771.883	395.6
772.066	260.43
772.248	213.33
772.431	262.48
772.613	334.16
772.796	270.67
772.978	358.74
773.161	393.55
773.343	377.17
773.526	262.48
773.708	305.49
773.891	272.72
774.073	293.2
774.256	207.19
774.438	313.68
774.621	295.25
774.803	252.24
774.985	256.34
775.168	301.39
775.35	256.34
775.532	213.33
775.715	262.48
775.897	344.4
776.079	242
776.261	334.16
776.444	305.49
776.626	311.63
776.808	303.44
776.99	266.58
777.173	268.63
777.355	190.8
777.537	180.56
777.719	235.86
777.901	194.9
778.083	237.91
778.265	158.03
778.447	248.15
778.629	201.04
778.811	266.58
778.993	219.47
779.175	260.43
779.357	194.9
779.539	262.48
779.721	219.47
779.903	272.72
780.085	151.89
780.267	211.28
780.449	184.66
780.631	203.09
780.812	209.23
780.994	242
781.176	264.53
781.358	215.38
781.54	303.44
781.721	309.58
781.903	272.72
782.085	170.32
782.267	215.38
782.448	182.61
782.63	211.28
782.812	264.53
782.993	299.34
783.175	229.71
783.357	276.82
783.538	190.8
783.72	145.75
783.901	170.32
784.083	186.71
784.264	196.95
784.446	90.45
784.627	242
784.809	172.37
784.99	229.71
785.172	227.67
785.353	170.32
785.535	160.08
785.716	92.5
785.897	160.08
786.079	172.37
786.26	162.13
786.441	160.08
786.623	239.95
786.804	139.6
786.985	139.6
787.167	196.95
787.348	115.03
787.529	203.09
787.71	213.33
787.891	72.02
788.073	172.37
788.254	108.88
788.435	194.9
788.616	145.75
788.797	121.17
788.978	186.71
789.159	176.47
789.34	162.13
789.522	133.46
789.703	141.65
789.884	141.65
790.065	96.6
790.246	155.99
790.427	131.41
790.607	168.27
790.788	137.56
790.969	121.17
791.15	133.46
791.331	149.84
791.512	90.45
791.693	147.8
791.874	131.41
792.054	98.64
792.235	141.65
792.416	186.71
792.597	74.07
792.778	174.42
792.958	176.47
793.139	153.94
793.32	131.41
793.5	147.8
793.681	196.95
793.862	172.37
794.042	141.65
794.223	49.49
794.404	127.32
794.584	35.16
794.765	80.21
794.945	131.41
795.126	143.7
795.306	112.98
795.487	67.92
795.667	88.4
795.848	98.64
796.028	8.53
796.209	117.08
796.389	123.22
796.57	76.12
796.75	14.68
796.93	76.12
797.111	41.3
797.291	153.94
797.471	147.8
797.652	82.26
797.832	102.74
798.012	133.46
798.192	26.96
798.373	63.83
798.553	86.36
798.733	100.69
798.913	72.02
799.093	119.12
799.274	110.93
799.454	129.36
799.634	98.64
799.814	84.31
799.994	45.4
800.174	88.4
800.354	45.4
800.534	88.4
800.714	61.78
800.894	59.73
801.074	74.07
801.254	22.87
801.434	82.26
801.614	96.6
801.794	80.21
801.974	272.72
802.154	26.96
802.334	59.73
802.514	88.4
802.693	115.03
802.873	53.59
803.053	117.08
803.233	22.87
803.413	49.49
803.592	104.79
803.772	72.02
803.952	18.77
804.131	41.3
804.311	84.31
804.491	147.8
804.67	41.3
804.85	43.35
805.03	8.53
805.209	39.25
805.389	82.26
805.568	104.79
805.748	102.74
805.928	65.88
806.107	141.65
806.287	96.6
806.466	49.49
806.646	98.64
806.825	63.83
807.004	86.36
807.184	98.64
807.363	31.06
807.543	57.68
807.722	100.69
807.901	22.87
808.081	72.02
808.26	49.49
808.439	86.36
808.619	104.79
808.798	-20.14
808.977	45.4
809.156	82.26
809.336	-1.71
809.515	55.64
809.694	6.49
809.873	76.12
810.052	59.73
810.231	33.11
810.411	69.97
810.59	65.88
810.769	72.02
810.948	102.74
811.127	20.82
811.306	129.36
811.485	14.68
811.664	98.64
811.843	43.35
812.022	-24.23
812.201	88.4
812.38	-30.38
812.559	22.87
812.737	55.64
812.916	12.63
813.095	67.92
813.274	-16.04
813.453	31.06
813.632	-3.75
813.811	18.77
813.989	43.35
814.168	2.39
814.347	-20.14
814.526	55.64
814.704	-50.86
814.883	98.64
815.062	-18.09
815.24	-22.19
815.419	-26.28
815.598	96.6
815.776	59.73
815.955	37.2
816.133	16.73
816.312	39.25
816.49	49.49
816.669	18.77
816.847	76.12
817.026	51.54
817.204	-9.9
817.383	67.92
817.561	45.4
817.74	47.44
817.918	6.49
818.097	0.34
818.275	33.11
818.453	65.88
818.632	20.82
818.81	20.82
818.988	31.06
819.167	-13.99
819.345	37.2
819.523	-16.04
819.701	35.16
819.879	51.54
820.058	69.97
820.236	0.34
820.414	63.83
820.592	-32.43
820.77	39.25
820.948	22.87
821.127	6.49
821.305	47.44
821.483	24.92
821.661	43.35
821.839	78.16
822.017	63.83
822.195	-24.23
822.373	76.12
822.551	6.49
822.729	-7.85
822.907	49.49
823.085	16.73
823.262	45.4
823.44	20.82
823.618	33.11
823.796	90.45
823.974	90.45
824.152	-42.67
824.329	43.35
824.507	-7.85
824.685	76.12
824.863	-59.05
825.04	-3.75
825.218	117.08
825.396	47.44
825.574	-3.75
825.751	53.59
825.929	8.53
826.107	-40.62
826.284	31.06
826.462	31.06
826.639	8.53
826.817	-48.81
826.994	-73.39
827.172	4.44
827.349	72.02
827.527	67.92
827.704	12.63
827.882	-7.85
828.059	45.4
828.237	-22.19
828.414	26.96
828.591	67.92
828.769	6.49
828.946	59.73
829.124	112.98
829.301	-7.85
829.478	14.68
829.655	39.25
829.833	2.39
830.01	-36.52
830.187	55.64
830.364	6.49
830.542	20.82
830.719	-30.38
830.896	82.26
831.073	-7.85
831.25	33.11
831.427	20.82
831.604	55.64
831.782	-50.86
831.959	-32.43
832.136	-16.04
832.313	24.92
832.49	-9.9
832.667	41.3
832.844	-38.57
833.021	-36.52
833.198	-9.9
833.374	82.26
833.551	-11.95
833.728	-3.75
833.905	-16.04
834.082	-3.75
834.259	-40.62
834.436	4.44
834.612	-26.28
834.789	31.06
834.966	33.11
835.143	33.11
835.319	-5.8
835.496	-61.1
835.673	102.74
835.85	31.06
836.026	35.16
836.203	-22.19
836.38	39.25
836.556	6.49
836.733	0.34
836.909	57.68
837.086	6.49
837.262	8.53
837.439	-52.91
837.616	108.88
837.792	41.3
837.968	-20.14
838.145	10.58
838.321	-22.19
838.498	8.53
838.674	-75.43
838.851	22.87
839.027	31.06
839.203	-9.9
839.38	12.63
839.556	88.4
839.732	-11.95
839.909	24.92
840.085	-9.9
840.261	10.58
840.437	51.54
840.614	-24.23
840.79	47.44
840.966	-38.57
841.142	47.44
841.318	4.44
841.494	22.87
841.671	-30.38
841.847	-48.81
842.023	22.87
842.199	-1.71
842.375	-16.04
842.551	8.53
842.727	-57
842.903	94.55
843.079	-50.86
843.255	55.64
843.431	-46.76
843.607	14.68
843.783	-22.19
843.959	-52.91
844.134	-38.57
844.31	-16.04
844.486	-40.62
844.662	8.53
844.838	-16.04
845.013	18.77
845.189	72.02
845.365	29.01
845.541	63.83
845.716	49.49
845.892	-1.71
846.068	-1.71
846.244	-61.1
846.419	-34.47
846.595	74.07
846.77	6.49
846.946	-26.28
847.122	6.49
847.297	35.16
847.473	-34.47
847.648	53.59
847.824	59.73
847.999	-63.15
848.175	-95.91
848.35	-20.14
848.526	35.16
848.701	-38.57
848.876	14.68
849.052	8.53
849.227	-50.86
849.403	2.39
849.578	-38.57
849.753	24.92
849.929	-32.43
850.104	0.34
850.279	-26.28
850.454	-18.09
850.63	2.39
850.805	6.49
850.98	-13.99
851.155	10.58
851.33	-34.47
851.505	-83.63
851.681	67.92
851.856	-32.43
852.031	-5.8
852.206	63.83
852.381	29.01
852.556	-7.85
852.731	35.16
852.906	51.54
853.081	16.73
853.256	16.73
853.431	31.06
853.606	10.58
853.781	47.44
853.956	-11.95
854.131	-9.9
854.305	-48.81
854.48	29.01
854.655	-5.8
854.83	-1.71
855.005	-30.38
855.18	-20.14
855.354	-9.9
855.529	-11.95
855.704	-48.81
855.879	-30.38
856.053	-5.8
856.228	-1.71
856.403	-42.67
856.577	2.39
856.752	-52.91
856.926	-69.29
857.101	-34.47
857.276	-3.75
857.45	-24.23
857.625	129.36
857.799	-67.24
857.974	-48.81
858.148	-18.09
858.323	55.64
858.497	-44.71
858.672	59.73
858.846	-83.63
859.02	86.36
859.195	-3.75
859.369	-9.9
859.543	-73.39
859.718	16.73
859.892	-16.04
860.066	-1.71
860.241	-59.05
860.415	-71.34
860.589	8.53
860.763	2.39
860.938	-44.71
861.112	55.64
861.286	-83.63
861.46	-18.09
861.634	-93.87
861.808	-71.34
861.982	-30.38
862.157	12.63
862.331	-34.47
862.505	-36.52
862.679	-24.23
862.853	-30.38
863.027	-34.47
863.201	33.11
863.375	57.68
863.549	-57
863.722	31.06
863.896	18.77
864.07	-81.58
864.244	33.11
864.418	-3.75
864.592	-42.67
864.766	-18.09
864.939	14.68
865.113	-50.86
865.287	10.58
865.461	-22.19
865.634	22.87
865.808	29.01
865.982	12.63
866.156	33.11
866.329	-9.9
866.503	26.96
866.676	-13.99
866.85	-34.47
867.024	-26.28
867.197	-13.99
867.371	-30.38
867.544	-71.34
867.718	-34.47
867.891	8.53
868.065	22.87
868.238	47.44
868.412	-7.85
868.585	-3.75
868.759	-32.43
868.932	8.53
869.105	-59.05
869.279	47.44
869.452	-69.29
869.625	2.39
869.799	8.53
869.972	-65.19
870.145	-42.67
870.319	80.21
870.492	-7.85
870.665	-9.9
870.838	-1.71
871.011	-26.28
871.185	6.49
871.358	-42.67
871.531	-3.75
871.704	-95.91
871.877	16.73
872.05	-48.81
872.223	39.25
872.396	-11.95
872.569	-22.19
872.742	-40.62
872.915	-5.8
873.088	-36.52
873.261	-34.47
873.434	6.49
873.607	-16.04
873.78	-61.1
873.953	-18.09
874.126	-54.95
874.299	12.63
874.471	-71.34
874.644	20.82
874.817	-50.86
874.99	-13.99
875.163	-32.43
875.335	8.53
875.508	-13.99
875.681	-24.23
875.853	-116.39
876.026	6.49
876.199	2.39
876.371	-3.75
876.544	6.49
876.717	33.11
876.889	-1.71
877.062	-69.29
877.234	39.25
877.407	-59.05
877.579	4.44
877.752	-48.81
877.924	-81.58
878.097	-18.09
878.269	-61.1
878.442	59.73
878.614	47.44
878.786	-9.9
878.959	-38.57
879.131	-46.76
879.303	55.64
879.476	-36.52
879.648	-11.95
879.82	14.68
879.993	-81.58
880.165	29.01
880.337	-67.24
880.509	2.39
880.681	-32.43
880.854	10.58
881.026	-59.05
881.198	2.39
881.37	-3.75
881.542	-38.57
881.714	-26.28
881.886	6.49
882.058	-100.01
882.23	-1.71
882.402	-22.19
882.574	-40.62
882.746	0.34
882.918	-1.71
883.09	-1.71
883.262	-81.58
883.434	2.39
883.606	-75.43
883.778	-22.19
883.95	6.49
884.122	-5.8
884.293	2.39
884.465	-1.71
884.637	-9.9
884.809	-97.96
884.98	-83.63
885.152	-5.8
885.324	-24.23
885.496	-147.11
885.667	31.06
885.839	-1.71
886.011	22.87
886.182	-89.77
886.354	-9.9
886.525	45.4
886.697	8.53
886.869	-32.43
887.04	-22.19
887.212	69.97
887.383	2.39
887.555	-28.33
887.726	-18.09
887.897	-28.33
888.069	-71.34
888.24	-108.2
888.412	-83.63
888.583	-63.15
888.754	16.73
888.926	-46.76
889.097	-67.24
889.268	-26.28
889.44	-83.63
889.611	-16.04
889.782	-5.8
889.953	-9.9
890.125	4.44
890.296	-83.63
890.467	-44.71
890.638	6.49
890.809	31.06
890.98	-112.3
891.151	-73.39
891.323	-26.28
891.494	-1.71
891.665	-7.85
891.836	-67.24
892.007	-20.14
892.178	0.34
892.349	-61.1
892.52	-38.57
892.691	-67.24
892.862	-34.47
893.032	-91.82
893.203	6.49
893.374	-22.19
893.545	-11.95
893.716	-30.38
893.887	121.17
894.057	14.68
894.228	-28.33
894.399	-18.09
894.57	39.25
894.74	-50.86
894.911	-9.9
895.082	-91.82
895.253	4.44
895.423	-54.95
895.594	-18.09
895.764	-11.95
895.935	-36.52
896.106	-54.95
896.276	31.06
896.447	-26.28
896.617	26.96
896.788	39.25
896.958	-36.52
897.129	59.73
897.299	-67.24
897.47	-71.34
897.64	18.77
897.81	-26.28
897.981	-38.57
898.151	-1.71
898.322	0.34
898.492	4.44
898.662	-54.95
898.832	-36.52
899.003	-18.09
899.173	8.53
899.343	18.77
899.513	-5.8
