Data from USB4F104151__228__14-00-22-822.txt Node

Date: Thu Mar 13 14:00:22 EDT 2025
User: louis
Spectrometer: USB4F10415
Trigger mode: 4
Integration Time (sec): 1.000000E-2
Scans to average: 1
Electric dark correction enabled: true
Nonlinearity correction enabled: false
Boxcar width: 0
XAxis mode: Wavelengths
Number of Pixels in Spectrum: 3648
>>>>>Begin Spectral Data<<<<<
178.204	-38.23
178.424	-38.23
178.644	-38.23
178.864	-58.71
179.084	-46.42
179.304	2.73
179.524	58.03
179.744	4.78
179.964	6.83
180.184	45.74
180.404	-30.04
180.624	-5.46
180.844	-21.85
181.064	-83.28
181.283	29.35
181.503	-34.13
181.723	27.31
181.943	-36.18
182.163	21.16
182.383	90.79
182.602	39.59
182.822	-62.8
183.042	90.79
183.262	-79.19
183.482	64.17
183.701	19.11
183.921	-5.46
184.141	-42.32
184.361	29.35
184.58	39.59
184.8	6.83
185.02	-54.61
185.239	90.79
185.459	-64.85
185.679	64.17
185.898	-38.23
186.118	-40.28
186.338	21.16
186.557	58.03
186.777	-44.37
186.997	33.45
187.216	8.87
187.436	39.59
187.655	15.02
187.875	82.6
188.095	-27.99
188.314	12.97
188.534	-50.52
188.753	27.31
188.973	27.31
189.192	29.35
189.412	-15.7
189.631	45.74
189.851	-23.89
190.07	55.98
190.29	4.78
190.509	0.68
190.729	90.79
190.948	12.97
191.168	19.11
191.387	4.78
191.607	21.16
191.826	-17.75
192.045	21.16
192.265	84.65
192.484	-17.75
192.704	19.11
192.923	53.93
193.142	82.6
193.362	8.87
193.581	-5.46
193.8	66.22
194.02	-44.37
194.239	-54.61
194.458	-17.75
194.678	-13.65
194.897	-71
195.116	29.35
195.335	43.69
195.555	64.17
195.774	51.88
195.993	-15.7
196.212	4.78
196.432	12.97
196.651	-3.41
196.87	60.07
197.089	27.31
197.308	39.59
197.528	10.92
197.747	55.98
197.966	88.75
198.185	27.31
198.404	-38.23
198.623	37.55
198.842	-19.8
199.062	-7.51
199.281	29.35
199.5	39.59
199.719	53.93
199.938	19.11
200.157	-3.41
200.376	45.74
200.595	62.12
200.814	53.93
201.033	8.87
201.252	60.07
201.471	23.21
201.69	41.64
201.909	-50.52
202.128	23.21
202.347	-3.41
202.566	58.03
202.785	-17.75
203.004	-68.95
203.223	43.69
203.442	10.92
203.661	45.74
203.879	2.73
204.098	27.31
204.317	6.83
204.536	10.92
204.755	78.51
204.974	17.07
205.193	33.45
205.411	-1.37
205.63	-15.7
205.849	-13.65
206.068	6.83
206.287	19.11
206.505	31.4
206.724	27.31
206.943	15.02
207.162	25.26
207.381	39.59
207.599	64.17
207.818	21.16
208.037	19.11
208.255	-38.23
208.474	35.5
208.693	19.11
208.911	51.88
209.13	4.78
209.349	29.35
209.567	62.12
209.786	27.31
210.005	117.42
210.223	6.83
210.442	19.11
210.661	45.74
210.879	10.92
211.098	-15.7
211.316	-23.89
211.535	-13.65
211.753	62.12
211.972	51.88
212.191	35.5
212.409	60.07
212.628	21.16
212.846	10.92
213.065	47.79
213.283	-9.56
213.502	-1.37
213.72	37.55
213.938	-1.37
214.157	-5.46
214.375	53.93
214.594	43.69
214.812	19.11
215.031	12.97
215.249	66.22
215.467	-5.46
215.686	47.79
215.904	2.73
216.122	37.55
216.341	47.79
216.559	25.26
216.778	-5.46
216.996	-5.46
217.214	-21.85
217.432	-36.18
217.651	19.11
217.869	29.35
218.087	-30.04
218.306	2.73
218.524	-15.7
218.742	10.92
218.96	68.27
219.179	-5.46
219.397	51.88
219.615	37.55
219.833	49.83
220.051	19.11
220.27	-21.85
220.488	45.74
220.706	62.12
220.924	-25.94
221.142	76.46
221.36	60.07
221.578	27.31
221.796	51.88
222.015	27.31
222.233	4.78
222.451	10.92
222.669	31.4
222.887	45.74
223.105	-30.04
223.323	-5.46
223.541	-36.18
223.759	23.21
223.977	-7.51
224.195	29.35
224.413	92.84
224.631	66.22
224.849	-17.75
225.067	51.88
225.285	72.36
225.503	70.31
225.721	23.21
225.939	-44.37
226.157	23.21
226.375	25.26
226.592	-81.24
226.81	19.11
227.028	0.68
227.246	60.07
227.464	35.5
227.682	21.16
227.9	-50.52
228.117	51.88
228.335	86.7
228.553	35.5
228.771	4.78
228.989	-21.85
229.206	10.92
229.424	-54.61
229.642	80.55
229.86	37.55
230.077	-36.18
230.295	45.74
230.513	-5.46
230.731	29.35
230.948	137.9
231.166	45.74
231.384	27.31
231.601	0.68
231.819	60.07
232.037	10.92
232.254	53.93
232.472	78.51
232.689	-7.51
232.907	19.11
233.125	21.16
233.342	58.03
233.56	19.11
233.777	51.88
233.995	27.31
234.213	19.11
234.43	0.68
234.648	35.5
234.865	8.87
235.083	-34.13
235.3	25.26
235.518	4.78
235.735	27.31
235.953	78.51
236.17	15.02
236.388	-23.89
236.605	49.83
236.822	47.79
237.04	49.83
237.257	-60.76
237.475	-25.94
237.692	70.31
237.909	-44.37
238.127	45.74
238.344	35.5
238.562	-89.43
238.779	-58.71
238.996	21.16
239.214	-11.61
239.431	55.98
239.648	-17.75
239.865	21.16
240.083	19.11
240.3	74.41
240.517	53.93
240.735	19.11
240.952	2.73
241.169	21.16
241.386	-5.46
241.603	70.31
241.821	27.31
242.038	37.55
242.255	39.59
242.472	15.02
242.689	17.07
242.907	86.7
243.124	41.64
243.341	27.31
243.558	53.93
243.775	12.97
243.992	8.87
244.209	27.31
244.426	19.11
244.643	31.4
244.86	49.83
245.078	39.59
245.295	64.17
245.512	29.35
245.729	8.87
245.946	51.88
246.163	68.27
246.38	39.59
246.597	41.64
246.814	51.88
247.031	25.26
247.248	12.97
247.464	-38.23
247.681	101.03
247.898	-50.52
248.115	-46.42
248.332	31.4
248.549	37.55
248.766	49.83
248.983	8.87
249.2	12.97
249.417	76.46
249.633	-21.85
249.85	55.98
250.067	45.74
250.284	131.75
250.501	15.02
250.717	12.97
250.934	51.88
251.151	-11.61
251.368	41.64
251.585	4.78
251.801	4.78
252.018	-32.08
252.235	21.16
252.451	25.26
252.668	-19.8
252.885	-38.23
253.102	103.08
253.318	33.45
253.535	33.45
253.752	15.02
253.968	-48.47
254.185	-68.95
254.401	6.83
254.618	33.45
254.835	-11.61
255.051	80.55
255.268	-13.65
255.484	31.4
255.701	-30.04
255.917	27.31
256.134	12.97
256.351	45.74
256.567	35.5
256.784	12.97
257	51.88
257.217	27.31
257.433	8.87
257.65	-32.08
257.866	-21.85
258.082	43.69
258.299	2.73
258.515	78.51
258.732	51.88
258.948	45.74
259.165	-7.51
259.381	-15.7
259.597	-52.56
259.814	-9.56
260.03	33.45
260.246	43.69
260.463	-23.89
260.679	-44.37
260.895	-25.94
261.112	6.83
261.328	19.11
261.544	6.83
261.761	2.73
261.977	27.31
262.193	25.26
262.409	29.35
262.626	29.35
262.842	31.4
263.058	-17.75
263.274	78.51
263.49	68.27
263.707	-54.61
263.923	51.88
264.139	10.92
264.355	84.65
264.571	2.73
264.787	68.27
265.004	-17.75
265.22	60.07
265.436	74.41
265.652	-7.51
265.868	15.02
266.084	-40.28
266.3	15.02
266.516	-9.56
266.732	17.07
266.948	-36.18
267.164	88.75
267.38	25.26
267.596	-44.37
267.812	-1.37
268.028	19.11
268.244	37.55
268.46	21.16
268.676	68.27
268.892	-3.41
269.108	-27.99
269.324	-60.76
269.54	2.73
269.756	43.69
269.972	-38.23
270.188	2.73
270.403	43.69
270.619	51.88
270.835	25.26
271.051	35.5
271.267	27.31
271.483	68.27
271.698	25.26
271.914	35.5
272.13	31.4
272.346	41.64
272.562	23.21
272.777	27.31
272.993	-19.8
273.209	51.88
273.425	74.41
273.64	-62.8
273.856	60.07
274.072	47.79
274.287	51.88
274.503	-5.46
274.719	78.51
274.934	47.79
275.15	0.68
275.366	23.21
275.581	-5.46
275.797	4.78
276.012	35.5
276.228	37.55
276.444	15.02
276.659	19.11
276.875	0.68
277.09	-1.37
277.306	33.45
277.521	41.64
277.737	-17.75
277.952	-7.51
278.168	6.83
278.383	41.64
278.599	-30.04
278.814	55.98
279.03	-5.46
279.245	111.27
279.461	-36.18
279.676	-13.65
279.892	-1.37
280.107	70.31
280.322	-5.46
280.538	-1.37
280.753	-21.85
280.969	64.17
281.184	-7.51
281.399	53.93
281.615	4.78
281.83	19.11
282.045	-19.8
282.26	10.92
282.476	-3.41
282.691	51.88
282.906	27.31
283.122	-36.18
283.337	19.11
283.552	10.92
283.767	-11.61
283.983	-19.8
284.198	25.26
284.413	29.35
284.628	47.79
284.843	15.02
285.058	43.69
285.274	17.07
285.489	-56.66
285.704	19.11
285.919	35.5
286.134	10.92
286.349	15.02
286.564	19.11
286.779	2.73
286.995	-5.46
287.21	4.78
287.425	6.83
287.64	2.73
287.855	4.78
288.07	45.74
288.285	45.74
288.5	41.64
288.715	53.93
288.93	-30.04
289.145	-60.76
289.36	6.83
289.575	29.35
289.79	25.26
290.004	47.79
290.219	62.12
290.434	-32.08
290.649	25.26
290.864	76.46
291.079	58.03
291.294	35.5
291.509	101.03
291.724	41.64
291.938	-15.7
292.153	4.78
292.368	4.78
292.583	39.59
292.798	-25.94
293.012	-9.56
293.227	47.79
293.442	45.74
293.657	39.59
293.871	53.93
294.086	10.92
294.301	29.35
294.516	-17.75
294.73	31.4
294.945	33.45
295.16	10.92
295.374	45.74
295.589	51.88
295.804	19.11
296.018	-15.7
296.233	33.45
296.447	37.55
296.662	17.07
296.877	27.31
297.091	-42.32
297.306	47.79
297.52	21.16
297.735	31.4
297.949	4.78
298.164	8.87
298.378	-48.47
298.593	19.11
298.807	31.4
299.022	35.5
299.236	27.31
299.451	0.68
299.665	12.97
299.88	-11.61
300.094	-5.46
300.309	45.74
300.523	-7.51
300.737	76.46
300.952	49.83
301.166	0.68
301.381	21.16
301.595	96.94
301.809	-38.23
302.024	58.03
302.238	53.93
302.452	51.88
302.667	17.07
302.881	37.55
303.095	35.5
303.309	19.11
303.524	15.02
303.738	12.97
303.952	-34.13
304.166	53.93
304.381	51.88
304.595	2.73
304.809	19.11
305.023	31.4
305.237	10.92
305.452	27.31
305.666	-1.37
305.88	27.31
306.094	21.16
306.308	37.55
306.522	6.83
306.736	17.07
306.95	35.5
307.164	29.35
307.379	39.59
307.593	-1.37
307.807	64.17
308.021	-9.56
308.235	25.26
308.449	17.07
308.663	-5.46
308.877	-1.37
309.091	27.31
309.305	-15.7
309.519	23.21
309.733	78.51
309.947	2.73
310.161	-9.56
310.374	117.42
310.588	90.79
310.802	72.36
311.016	43.69
311.23	-1.37
311.444	-38.23
311.658	-71
311.872	76.46
312.085	0.68
312.299	45.74
312.513	88.75
312.727	111.27
312.941	-3.41
313.154	49.83
313.368	-1.37
313.582	53.93
313.796	45.74
314.009	72.36
314.223	92.84
314.437	60.07
314.651	64.17
314.864	-5.46
315.078	15.02
315.292	47.79
315.505	15.02
315.719	62.12
315.933	41.64
316.146	60.07
316.36	43.69
316.573	53.93
316.787	-32.08
317.001	4.78
317.214	2.73
317.428	25.26
317.641	37.55
317.855	68.27
318.068	51.88
318.282	-7.51
318.495	25.26
318.709	35.5
318.922	25.26
319.136	103.08
319.349	-7.51
319.563	10.92
319.776	-9.56
319.99	10.92
320.203	-17.75
320.417	76.46
320.63	25.26
320.843	2.73
321.057	33.45
321.27	17.07
321.483	8.87
321.697	4.78
321.91	45.74
322.124	80.55
322.337	21.16
322.55	-5.46
322.763	-38.23
322.977	-30.04
323.19	31.4
323.403	43.69
323.617	17.07
323.83	62.12
324.043	6.83
324.256	62.12
324.469	12.97
324.683	39.59
324.896	-30.04
325.109	70.31
325.322	4.78
325.535	92.84
325.748	64.17
325.962	-30.04
326.175	21.16
326.388	107.18
326.601	45.74
326.814	29.35
327.027	4.78
327.24	55.98
327.453	-17.75
327.666	19.11
327.879	-7.51
328.092	123.56
328.305	21.16
328.518	23.21
328.731	21.16
328.944	31.4
329.157	51.88
329.37	37.55
329.583	-87.38
329.796	82.6
330.009	8.87
330.222	70.31
330.435	66.22
330.648	19.11
330.861	51.88
331.073	-46.42
331.286	2.73
331.499	19.11
331.712	4.78
331.925	70.31
332.138	31.4
332.35	94.89
332.563	6.83
332.776	94.89
332.989	27.31
333.202	25.26
333.414	19.11
333.627	78.51
333.84	39.59
334.053	68.27
334.265	19.11
334.478	62.12
334.691	49.83
334.903	94.89
335.116	45.74
335.329	103.08
335.541	6.83
335.754	86.7
335.966	8.87
336.179	-7.51
336.392	19.11
336.604	31.4
336.817	6.83
337.029	47.79
337.242	-38.23
337.454	35.5
337.667	60.07
337.88	43.69
338.092	43.69
338.305	-19.8
338.517	12.97
338.729	45.74
338.942	19.11
339.154	4.78
339.367	25.26
339.579	43.69
339.792	19.11
340.004	2.73
340.217	82.6
340.429	19.11
340.641	45.74
340.854	-23.89
341.066	39.59
341.278	12.97
341.491	2.73
341.703	96.94
341.915	-32.08
342.128	64.17
342.34	23.21
342.552	-32.08
342.764	10.92
342.977	-34.13
343.189	37.55
343.401	70.31
343.613	70.31
343.826	19.11
344.038	-38.23
344.25	47.79
344.462	-1.37
344.674	29.35
344.886	43.69
345.099	47.79
345.311	43.69
345.523	51.88
345.735	-11.61
345.947	-3.41
346.159	66.22
346.371	23.21
346.583	2.73
346.795	27.31
347.007	15.02
347.219	25.26
347.431	10.92
347.643	12.97
347.855	15.02
348.067	12.97
348.279	-17.75
348.491	33.45
348.703	12.97
348.915	58.03
349.127	31.4
349.339	15.02
349.551	39.59
349.763	-1.37
349.975	51.88
350.187	15.02
350.399	60.07
350.61	6.83
350.822	15.02
351.034	-13.65
351.246	41.64
351.458	12.97
351.669	55.98
351.881	41.64
352.093	-5.46
352.305	15.02
352.517	92.84
352.728	21.16
352.94	-17.75
353.152	-3.41
353.363	39.59
353.575	37.55
353.787	45.74
353.999	133.8
354.21	15.02
354.422	-3.41
354.633	58.03
354.845	51.88
355.057	33.45
355.268	2.73
355.48	-1.37
355.692	49.83
355.903	-1.37
356.115	10.92
356.326	8.87
356.538	-27.99
356.749	-11.61
356.961	146.09
357.172	-7.51
357.384	62.12
357.595	49.83
357.807	23.21
358.018	-9.56
358.23	-5.46
358.441	72.36
358.653	19.11
358.864	4.78
359.075	23.21
359.287	60.07
359.498	-36.18
359.709	2.73
359.921	74.41
360.132	35.5
360.344	45.74
360.555	4.78
360.766	-17.75
360.977	2.73
361.189	51.88
361.4	84.65
361.611	62.12
361.823	27.31
362.034	53.93
362.245	17.07
362.456	-5.46
362.667	39.59
362.879	43.69
363.09	31.4
363.301	84.65
363.512	62.12
363.723	-3.41
363.935	2.73
364.146	68.27
364.357	10.92
364.568	133.8
364.779	23.21
364.99	45.74
365.201	2.73
365.412	29.35
365.623	-15.7
365.834	101.03
366.045	-5.46
366.256	37.55
366.467	51.88
366.678	64.17
366.889	35.5
367.1	8.87
367.311	76.46
367.522	-54.61
367.733	51.88
367.944	92.84
368.155	45.74
368.366	51.88
368.577	-52.56
368.788	31.4
368.999	41.64
369.209	35.5
369.42	88.75
369.631	51.88
369.842	-17.75
370.053	76.46
370.264	-1.37
370.474	68.27
370.685	45.74
370.896	12.97
371.107	90.79
371.317	-30.04
371.528	4.78
371.739	80.55
371.95	35.5
372.16	47.79
372.371	27.31
372.582	19.11
372.792	53.93
373.003	53.93
373.214	27.31
373.424	47.79
373.635	58.03
373.846	23.21
374.056	-1.37
374.267	19.11
374.477	-1.37
374.688	64.17
374.898	43.69
375.109	37.55
375.319	39.59
375.53	76.46
375.74	19.11
375.951	27.31
376.161	-1.37
376.372	80.55
376.582	80.55
376.793	19.11
377.003	29.35
377.214	-17.75
377.424	-36.18
377.635	-32.08
377.845	41.64
378.055	0.68
378.266	47.79
378.476	31.4
378.686	8.87
378.897	10.92
379.107	84.65
379.317	84.65
379.528	-30.04
379.738	-15.7
379.948	119.46
380.158	55.98
380.369	21.16
380.579	125.61
380.789	78.51
380.999	53.93
381.21	27.31
381.42	103.08
381.63	8.87
381.84	21.16
382.05	43.69
382.261	103.08
382.471	68.27
382.681	-1.37
382.891	82.6
383.101	60.07
383.311	-11.61
383.521	-21.85
383.731	55.98
383.941	12.97
384.151	43.69
384.361	64.17
384.571	55.98
384.781	25.26
384.991	96.94
385.201	33.45
385.411	12.97
385.621	105.13
385.831	39.59
386.041	45.74
386.251	10.92
386.461	51.88
386.671	51.88
386.881	19.11
387.091	45.74
387.301	19.11
387.511	98.99
387.72	37.55
387.93	2.73
388.14	23.21
388.35	64.17
388.56	-30.04
388.769	0.68
388.979	111.27
389.189	15.02
389.399	-1.37
389.609	33.45
389.818	111.27
390.028	31.4
390.238	6.83
390.447	37.55
390.657	33.45
390.867	53.93
391.076	101.03
391.286	111.27
391.496	49.83
391.705	12.97
391.915	66.22
392.125	19.11
392.334	6.83
392.544	80.55
392.753	86.7
392.963	60.07
393.172	53.93
393.382	86.7
393.591	37.55
393.801	60.07
394.01	21.16
394.22	115.37
394.429	35.5
394.639	68.27
394.848	88.75
395.058	60.07
395.267	37.55
395.477	31.4
395.686	74.41
395.895	105.13
396.105	25.26
396.314	23.21
396.524	4.78
396.733	64.17
396.942	68.27
397.152	66.22
397.361	86.7
397.57	72.36
397.78	55.98
397.989	109.22
398.198	101.03
398.407	150.18
398.617	78.51
398.826	41.64
399.035	55.98
399.244	29.35
399.453	109.22
399.663	58.03
399.872	164.52
400.081	25.26
400.29	74.41
400.499	25.26
400.708	47.79
400.917	64.17
401.127	21.16
401.336	117.42
401.545	82.6
401.754	133.8
401.963	119.46
402.172	66.22
402.381	68.27
402.59	8.87
402.799	60.07
403.008	78.51
403.217	84.65
403.426	135.85
403.635	60.07
403.844	66.22
404.053	74.41
404.262	125.61
404.471	127.66
404.68	98.99
404.888	123.56
405.097	76.46
405.306	160.42
405.515	90.79
405.724	174.76
405.933	70.31
406.142	51.88
406.35	96.94
406.559	96.94
406.768	86.7
406.977	84.65
407.185	234.15
407.394	103.08
407.603	150.18
407.812	113.32
408.02	164.52
408.229	176.81
408.438	193.19
408.646	96.94
408.855	240.29
409.064	158.38
409.272	195.24
409.481	199.34
409.69	174.76
409.898	197.29
410.107	113.32
410.315	219.82
410.524	191.14
410.733	264.87
410.941	281.25
411.15	191.14
411.358	301.73
411.567	228.01
411.775	297.64
411.984	297.64
412.192	299.69
412.401	363.17
412.609	283.3
412.818	348.84
413.026	354.98
413.234	342.69
413.443	350.89
413.651	334.5
413.86	350.89
414.068	375.46
414.276	422.56
414.485	299.69
414.693	377.51
414.901	457.38
415.11	422.56
415.318	426.66
415.526	414.37
415.734	529.06
415.943	430.76
416.151	527.01
416.359	449.19
416.567	514.72
416.776	658.08
416.984	576.16
417.192	561.83
417.4	561.83
417.608	637.6
417.817	670.37
418.025	686.75
418.233	760.48
418.441	684.7
418.649	703.14
418.857	783.01
419.065	834.21
419.273	817.82
419.481	922.27
419.689	838.3
419.897	924.32
420.105	877.21
420.313	928.41
420.521	993.95
420.729	965.28
420.937	1002.14
421.145	1133.21
421.353	1133.21
421.561	1284.76
421.769	1194.65
421.977	1231.51
422.185	1249.94
422.393	1335.96
422.601	1409.69
422.809	1444.5
423.017	1483.41
423.224	1368.73
423.432	1507.99
423.64	1587.86
423.848	1716.88
424.056	1602.19
424.263	1745.55
424.471	1731.22
424.679	1778.32
424.887	1860.24
425.094	1954.44
425.302	1972.88
425.51	2017.93
425.718	2009.74
425.925	2069.13
426.133	2267.78
426.341	2249.35
426.548	2378.37
426.756	2351.75
426.964	2554.5
427.171	2642.56
427.379	2747.01
427.586	2681.47
427.794	2747.01
428.001	2781.82
428.209	3017.34
428.417	2919.04
428.624	3189.37
428.832	3115.64
429.039	3154.55
429.247	3089.02
429.454	3404.41
429.662	3572.34
429.869	3385.97
430.076	3517.05
430.284	3527.28
430.491	3621.49
430.699	3940.97
430.906	3859.06
431.114	3879.54
431.321	4156.01
431.528	4129.39
431.736	4498.02
431.943	4620.9
432.15	4518.5
432.358	4557.41
432.565	4631.14
432.772	4850.27
432.979	5089.88
433.187	5190.24
433.394	5180
433.601	5442.14
433.808	5556.82
434.016	5347.93
434.223	5724.76
434.43	6189.64
434.637	5821.01
434.844	6302.28
435.052	6484.55
435.259	6459.98
435.466	6441.54
435.673	6267.47
435.88	6914.63
436.087	7164.48
436.294	7221.82
436.501	6980.16
436.708	7111.23
436.915	7359.03
437.122	7619.13
437.329	7699
437.537	7989.81
437.743	8106.54
437.95	7971.38
438.157	8391.21
438.364	8571.43
438.571	8710.69
438.778	8571.43
438.985	9533.98
439.192	9189.92
439.399	9394.72
439.606	9404.96
439.813	9947.67
440.02	10240.53
440.227	10314.25
440.433	10019.35
440.64	10385.93
440.847	10279.44
441.054	10594.82
441.261	11086.34
441.467	11006.47
441.674	11233.79
441.881	11653.62
442.088	11796.98
442.294	11583.99
442.501	11698.68
442.708	12347.89
442.914	12589.55
443.121	13134.31
443.328	12931.56
443.534	13806.04
443.741	13316.58
443.948	13412.83
444.154	14170.58
444.361	13924.82
444.568	14031.32
444.774	14152.15
444.981	14453.2
445.187	14731.72
445.394	15268.29
445.6	14963.14
445.807	16714.16
446.013	15759.8
446.22	16239.03
446.426	16871.85
446.633	17050.02
446.839	17580.45
447.046	16861.61
447.252	17676.7
447.459	17770.91
447.665	17672.6
447.871	18491.79
448.078	19159.43
448.284	18125.21
448.491	18772.36
448.697	19317.12
448.903	20134.26
449.11	19792.25
449.316	19630.46
449.522	19917.18
449.728	20388.21
449.935	20396.4
450.141	20605.3
450.347	21168.49
450.553	20103.54
450.76	20668.78
450.966	21510.5
451.172	21107.05
451.378	21907.8
451.584	21236.07
451.791	21956.96
451.997	21604.7
452.203	22020.44
452.409	22010.2
452.615	21909.85
452.821	21105
453.027	20859.24
453.233	21971.29
453.44	21123.43
453.646	21354.85
453.852	21588.32
454.058	21971.29
454.264	21094.76
454.47	21270.89
454.676	20939.12
454.882	22092.12
455.088	19505.54
455.294	19997.05
455.5	20187.51
455.705	20918.64
455.911	19763.58
456.117	19511.68
456.323	19124.61
456.529	17977.75
456.735	18749.84
456.941	18479.5
457.147	17973.66
457.352	17582.49
457.558	17242.53
457.764	17248.68
457.97	17086.89
458.176	16771.5
458.381	16744.88
458.587	15972.79
458.793	16056.76
458.999	15221.19
459.204	16181.68
459.41	15598.01
459.616	14531.02
459.821	14764.49
460.027	14496.21
460.233	14369.23
460.438	13779.42
460.644	13720.03
460.85	13169.12
461.055	12886.5
461.261	12931.56
461.466	12241.39
461.672	11731.45
461.878	12450.28
462.083	11938.29
462.289	11452.92
462.494	11235.84
462.7	10811.91
462.905	10615.3
463.111	11000.32
463.316	10854.92
463.522	10736.13
463.727	10779.14
463.932	10754.57
464.138	10580.49
464.343	10543.63
464.549	10222.09
464.754	10539.53
464.959	10635.78
465.165	10529.29
465.37	9996.82
465.575	9769.49
465.781	10160.66
465.986	10281.49
466.191	9873.94
466.397	9804.31
466.602	9415.19
466.807	9796.12
467.012	9425.43
467.218	9634.33
467.423	9615.9
467.628	9636.38
467.833	9767.45
468.038	9550.36
468.244	9337.37
468.449	9667.1
468.654	9411.1
468.859	9318.94
469.064	9165.34
469.269	9005.6
469.474	8884.77
469.679	9255.45
469.885	8983.07
470.09	8909.35
470.295	9030.18
470.5	8804.9
470.705	8729.13
470.91	8544.81
471.115	8215.09
471.32	8471.08
471.525	8477.23
471.73	8219.18
471.935	8227.37
472.139	8014.38
472.344	8264.24
472.549	7969.33
472.754	8047.15
472.959	7760.44
473.164	7592.5
473.369	7690.81
473.574	7875.12
473.778	7715.38
473.983	7721.52
474.188	7596.6
474.393	7209.53
474.598	7326.27
474.802	7084.61
475.007	7275.07
475.212	7283.26
475.417	6943.3
475.621	7068.22
475.826	6971.97
476.031	7010.88
476.235	6605.38
476.44	6681.16
476.645	6621.77
476.849	6761.03
477.054	6771.27
477.259	6564.42
477.463	6572.61
477.668	6181.45
477.872	6312.52
478.077	6392.39
478.282	6115.92
478.486	6224.46
478.691	6089.29
478.895	6050.38
479.1	6115.92
479.304	6167.12
479.509	5968.46
479.713	5857.87
479.918	5945.94
480.122	5876.3
480.326	5798.48
480.531	5851.73
480.735	5804.63
480.94	5618.26
481.144	5894.74
481.348	5677.65
481.553	5818.96
481.757	5626.45
481.961	5743.19
482.166	5659.22
482.37	5667.41
482.574	5708.37
482.778	5663.32
482.983	5562.97
483.187	5517.91
483.391	5753.43
483.595	5659.22
483.8	5546.58
484.004	5759.57
484.208	5687.89
484.412	5757.52
484.616	5507.67
484.821	5685.84
485.025	5556.82
485.229	5786.19
485.433	5608.02
485.637	5499.48
485.841	5515.86
486.045	5550.68
486.249	5636.69
486.453	5491.29
486.657	5673.56
486.861	5556.82
487.065	5540.44
487.269	5675.6
487.473	5360.22
487.677	5679.7
487.881	5562.97
488.085	5642.84
488.289	5679.7
488.493	5739.09
488.697	5691.99
488.901	5681.75
489.105	5648.98
489.309	5665.36
489.512	5683.8
489.716	5620.31
489.92	5933.65
490.124	5634.64
490.328	5712.47
490.531	5849.68
490.735	5886.54
490.939	5937.74
491.143	5849.68
491.346	5814.87
491.55	5794.39
491.754	5929.55
491.958	6072.91
492.161	5982.8
492.365	5993.04
492.569	5921.36
492.772	5886.54
492.976	5911.12
493.18	6081.1
493.383	6154.83
493.587	6091.34
493.79	6265.42
493.994	6201.93
494.197	6292.04
494.401	6543.94
494.605	6244.94
494.808	6277.71
495.012	6527.56
495.215	6507.08
495.419	6646.34
495.622	6443.59
495.825	6617.67
496.029	6779.46
496.232	6840.9
496.436	6844.99
496.639	7008.83
496.843	6826.56
497.046	7203.39
497.249	7066.17
497.453	7123.52
497.656	7287.36
497.859	7311.93
498.063	7359.03
498.266	7490.1
498.469	7375.42
498.673	7608.89
498.876	7776.82
499.079	7922.23
499.282	7748.15
499.485	7891.51
499.689	8165.93
499.892	8016.43
500.095	8196.65
500.298	8419.88
500.501	8446.51
500.705	8598.06
500.908	8620.58
501.111	8630.82
501.314	8884.77
501.517	9214.49
501.72	8860.2
501.923	9183.77
502.126	9173.53
502.329	9511.45
502.532	9540.12
502.735	9716.25
502.938	9693.72
503.141	9890.32
503.344	10103.31
503.547	10095.12
503.75	10172.94
503.953	10304.01
504.156	10404.36
504.359	10523.15
504.562	10723.85
504.765	10869.25
504.968	10947.08
505.17	11119.1
505.373	10934.79
505.576	11446.78
505.779	11590.14
505.982	11723.26
506.185	11854.33
506.387	11891.19
506.59	12255.73
506.793	12300.78
506.996	12337.65
507.198	12595.69
507.401	12669.42
507.604	12798.44
507.807	13085.15
508.009	13162.98
508.212	13212.13
508.415	13603.29
508.617	13685.21
508.82	13732.31
509.022	13732.31
509.225	14047.7
509.428	14207.44
509.63	14393.81
509.833	14549.45
510.035	14825.93
510.238	14774.73
510.44	14823.88
510.643	15157.7
510.845	15477.18
511.048	15210.95
511.25	15903.16
511.453	15616.44
511.655	16654.76
511.858	15937.98
512.06	16564.65
512.262	16523.69
512.465	16800.17
512.667	17133.99
512.87	17109.41
513.072	17256.87
513.274	17815.96
513.477	18004.38
513.679	18084.25
513.881	18403.73
514.084	18276.76
514.286	18311.57
514.488	18825.61
514.69	19399.04
514.893	19294.6
515.095	19427.71
515.297	19458.43
515.499	19739.01
515.701	20136.31
515.904	20210.04
516.106	20298.1
516.308	20822.38
516.51	20937.07
516.712	21154.15
516.914	21567.84
517.116	21520.74
517.318	21580.13
517.52	22135.13
517.722	22024.54
517.925	22505.81
518.127	22612.31
518.329	22882.64
518.531	23042.38
518.733	23251.27
518.935	23556.42
519.136	23802.18
519.338	24207.67
519.54	23875.9
519.742	24394.04
519.944	24498.48
520.146	25340.2
520.348	25168.17
520.55	25235.75
520.752	25608.48
520.954	26245.4
521.155	25827.62
521.357	26517.78
521.559	26683.67
521.761	26841.36
521.963	26925.33
522.164	27115.79
522.366	27379.98
522.568	27611.4
522.77	27597.06
522.971	28117.25
523.173	28231.93
523.375	28379.39
523.576	28164.35
523.778	28594.42
523.98	28889.33
524.181	28952.82
524.383	29339.88
524.584	29554.92
524.786	29415.66
524.988	29933.79
525.189	30146.78
525.391	30300.38
525.592	30265.56
525.794	30279.9
525.995	30437.59
526.197	30505.18
526.398	30726.36
526.6	30795.99
526.801	31049.94
527.003	31455.43
527.204	31176.91
527.406	31619.27
527.607	31682.76
527.808	31932.61
528.01	31267.02
528.211	32131.26
528.412	32614.58
528.614	32225.47
528.815	32442.56
529.016	32200.9
529.218	32303.29
529.419	32641.21
529.62	32512.19
529.822	32620.73
530.023	32499.9
530.224	32600.25
530.425	32858.29
530.626	32800.95
530.828	32858.29
531.029	33413.29
531.23	32944.31
531.431	33181.87
531.632	33278.13
531.833	33495.21
532.035	33388.72
532.236	33386.67
532.437	33620.14
532.638	33026.23
532.839	33618.09
533.04	33919.14
533.241	33183.92
533.442	33962.15
533.643	33769.64
533.844	33622.19
534.045	33933.48
534.246	33398.96
534.447	33980.58
534.648	33734.82
534.849	34193.57
535.05	33882.28
535.251	34052.26
535.451	33521.84
535.652	34189.47
535.853	33722.54
536.054	34052.26
536.255	33890.47
536.456	33917.09
536.657	34592.92
536.857	33771.69
537.058	33491.12
537.259	33779.88
537.46	33802.41
537.66	33663.14
537.861	34416.8
538.062	34130.08
538.263	33884.33
538.463	33704.1
538.664	33771.69
538.865	34058.4
539.065	34496.67
539.266	33908.9
539.466	34050.21
539.667	33587.37
539.868	34443.42
540.068	34132.13
540.269	33788.07
540.469	34037.92
540.67	33900.71
540.87	34058.4
541.071	33867.94
541.271	33941.67
541.472	34156.71
541.672	33634.47
541.873	33757.35
542.073	33503.4
542.274	34810.01
542.474	33892.52
542.675	33843.37
542.875	34250.91
543.075	33722.54
543.276	33589.42
543.476	34334.88
543.676	33855.65
543.877	34109.6
544.077	33740.97
544.277	34109.6
544.478	33990.82
544.678	33890.47
544.878	34183.33
545.078	34197.66
545.279	33474.73
545.479	33728.68
545.679	34136.23
545.879	33937.57
546.079	33923.24
546.28	33939.62
546.48	33884.33
546.68	34238.62
546.88	34142.37
547.08	34125.99
547.28	34074.79
547.48	33933.48
547.68	34310.3
547.88	33624.23
548.081	33896.61
548.281	33890.47
548.481	33734.82
548.681	34103.46
548.881	33841.32
549.081	33960.1
549.28	33800.36
549.48	33884.33
549.68	33818.79
549.88	34369.69
550.08	33695.91
550.28	34144.42
550.48	33527.98
550.68	34318.49
550.88	33659.05
551.08	34044.07
551.279	33761.45
551.479	33544.36
551.679	33908.9
551.879	33814.69
552.079	33999.01
552.278	33564.84
552.478	33818.79
552.678	33757.35
552.878	33724.58
553.077	33642.67
553.277	33341.61
553.477	34175.14
553.676	33706.15
553.876	33626.28
554.076	33548.46
554.275	33628.33
554.475	33394.86
554.674	33532.07
554.874	33540.27
555.074	33452.2
555.273	33347.76
555.473	33484.97
555.672	33218.74
555.872	33597.61
556.071	33667.24
556.271	33507.5
556.47	33466.54
556.67	32997.56
556.869	32993.46
557.068	33347.76
557.268	32987.32
557.467	33202.35
557.667	32983.22
557.866	32962.74
558.065	32942.26
558.265	32833.72
558.464	32684.22
558.663	33140.91
558.863	32542.91
559.062	32719.03
559.261	32516.28
559.461	32983.22
559.66	32411.84
559.859	32553.15
560.058	32370.88
560.258	32628.92
560.457	32403.64
560.656	32592.06
560.855	32381.12
561.054	32483.51
561.253	32096.45
561.453	32204.99
561.652	32643.26
561.851	32524.47
562.05	32266.43
562.249	32016.58
562.448	32295.1
562.647	31834.31
562.846	32159.94
563.045	31889.6
563.244	31508.68
563.443	32313.53
563.642	31357.13
563.841	31774.92
564.04	31731.91
564.239	31955.14
564.438	31406.28
564.637	31574.22
564.836	31652.04
565.035	31279.31
565.234	31381.71
565.432	31275.21
565.631	31133.9
565.83	31584.46
566.029	31189.2
566.228	31084.75
566.427	31377.61
566.625	30804.18
566.824	30920.91
567.023	30906.58
567.222	30548.18
567.42	31131.86
567.619	30738.65
567.818	30671.06
568.016	30836.95
568.215	30806.23
568.414	30888.15
568.612	30922.96
568.811	30197.98
569.01	30634.2
569.208	30193.89
569.407	30402.78
569.605	29714.66
569.804	30195.93
570.002	29911.27
570.201	30189.79
570.4	29804.77
570.598	29731.04
570.797	29442.28
570.995	29993.18
571.193	29253.87
571.392	29530.34
571.59	29167.85
571.789	29368.55
571.987	29427.95
572.186	29153.52
572.384	29042.93
572.582	29028.59
572.781	29071.6
572.979	28588.28
573.177	28707.06
573.376	28836.08
573.574	28596.47
573.772	28733.68
573.971	28342.52
574.169	28217.6
574.367	28272.89
574.565	28696.82
574.763	28375.29
574.962	28051.71
575.16	27916.54
575.358	27924.74
575.556	27941.12
575.754	27822.34
575.952	27513.09
576.151	28018.94
576.349	27377.93
576.547	27363.59
576.745	27408.65
576.943	27375.88
577.141	27287.82
577.339	27228.43
577.537	27197.71
577.735	27119.88
577.933	26790.16
578.131	27306.25
578.329	26941.71
578.527	26476.82
578.725	26661.14
578.923	26718.48
579.121	26394.9
579.319	26435.86
579.516	26442.01
579.714	26190.11
579.912	26243.35
580.11	26091.8
580.308	26259.74
580.506	26087.71
580.704	25516.33
580.901	26085.66
581.099	26085.66
581.297	25846.05
581.495	25784.61
581.692	25559.33
581.89	25557.28
582.088	25493.8
582.285	25313.58
582.483	25395.5
582.681	25213.23
582.878	25006.38
583.076	25153.83
583.274	25317.67
583.471	25233.71
583.669	24705.33
583.866	24820.02
584.064	24979.76
584.262	24310.07
584.459	24480.05
584.657	24357.17
584.854	24793.39
585.052	23982.4
585.249	24647.99
585.447	24582.45
585.644	24193.34
585.841	24201.53
586.039	24256.82
586.236	24076.6
586.434	24103.23
586.631	23537.99
586.828	23765.31
587.026	23898.43
587.223	23654.72
587.42	23572.8
587.618	23677.25
587.815	23357.77
588.012	23382.34
588.21	23521.6
588.407	23523.65
588.604	23222.6
588.801	22763.86
588.999	23056.71
589.196	22997.32
589.393	22989.13
589.59	22784.33
589.787	23032.14
589.984	22806.86
590.182	22767.95
590.379	22589.78
590.576	22354.26
590.773	22524.24
590.97	22118.75
591.167	22683.98
591.364	22102.36
591.561	22438.23
591.758	21975.39
591.955	21832.03
592.152	22358.36
592.349	21969.24
592.546	21971.29
592.743	21963.1
592.94	21354.85
593.137	21477.73
593.334	21655.9
593.531	21074.28
593.727	21551.46
593.924	21561.7
594.121	21369.19
594.318	21385.57
594.515	21064.04
594.712	21475.68
594.908	21016.94
595.105	21039.47
595.302	20978.03
595.499	21082.47
595.696	20801.9
595.892	20984.17
596.089	20992.36
596.286	20752.75
596.482	20754.8
596.679	20531.57
596.876	20924.78
597.072	20396.4
597.269	20668.78
597.466	20584.82
597.662	20267.38
597.859	20433.27
598.055	20394.36
598.252	20132.22
598.448	19960.19
598.645	20007.29
598.841	20058.49
599.038	20144.5
599.234	20216.18
599.431	19818.88
599.627	19614.08
599.824	19612.03
600.02	19646.85
600.217	19493.25
600.413	19544.45
600.609	19403.14
600.806	19102.09
601.002	19380.61
601.198	19409.28
601.395	19210.63
601.591	19016.07
601.787	19138.95
601.984	18776.46
602.18	19474.82
602.376	18755.98
602.572	18606.48
602.769	18829.71
602.965	18749.84
603.161	18569.62
603.357	18481.55
603.553	18749.84
603.75	18571.66
603.946	18274.71
604.142	18340.24
604.338	17906.07
604.534	18243.99
604.73	18235.8
604.926	18108.82
605.122	18106.77
605.318	17764.76
605.514	17818.01
605.71	17727.9
605.906	17557.92
606.102	17580.45
606.298	17918.36
606.494	17701.28
606.69	17400.23
606.886	17668.51
607.082	17326.5
607.278	17406.37
607.474	17346.98
607.67	17420.7
607.866	17211.81
608.062	17457.57
608.257	17119.65
608.453	17047.97
608.649	17308.07
608.845	16853.42
609.041	16855.47
609.236	16880.04
609.432	16923.05
609.628	16656.81
609.824	16535.98
610.019	16320.95
610.215	16578.99
610.411	16832.94
610.606	16476.59
610.802	16617.9
610.998	16538.03
611.193	16384.43
611.389	16468.4
611.584	16216.5
611.78	16157.11
611.976	16275.89
612.171	16302.51
612.367	16169.4
612.562	16120.24
612.758	15907.26
612.953	15888.82
613.149	15964.6
613.344	15827.39
613.539	16169.4
613.735	15636.92
613.93	15950.26
614.126	15729.08
614.321	16034.23
614.517	15651.26
614.712	15522.24
614.907	15641.02
615.103	15509.95
615.298	15423.94
615.493	15724.99
615.688	15176.13
615.884	15655.36
616.079	15268.29
616.274	15487.42
616.47	15460.8
616.665	15208.9
616.86	15100.36
617.055	15266.24
617.25	15014.34
617.445	15081.92
617.641	14815.69
617.836	14881.22
618.031	14748.11
618.226	14791.11
618.421	14735.82
618.616	14961.09
618.811	14481.87
619.006	14840.26
619.201	14471.63
619.396	14766.54
619.591	14498.25
619.786	14578.12
619.981	14174.67
620.176	14338.51
620.371	14127.57
620.566	14121.43
620.761	13877.72
620.956	13965.78
621.151	13736.41
621.346	13971.93
621.541	13742.55
621.735	13818.33
621.93	13349.34
622.125	13466.08
622.32	13437.41
622.515	13312.48
622.709	13269.47
622.904	13292
623.099	13111.78
623.294	13240.8
623.488	13173.22
623.683	13019.62
623.878	13165.03
624.072	13113.83
624.267	12882.41
624.462	13023.72
624.656	12593.64
624.851	12696.04
625.046	12429.8
625.24	12450.28
625.435	12446.19
625.629	12327.41
625.824	12311.02
626.018	12431.85
626.213	12089.84
626.407	12130.8
626.602	11837.94
626.796	11911.67
626.991	11919.86
627.185	11862.52
627.38	11954.68
627.574	11725.3
627.768	11606.52
627.963	11627
628.157	11485.69
628.352	11350.53
628.546	11168.26
628.74	11319.81
628.935	11231.74
629.129	11315.71
629.323	11080.19
629.517	11137.54
629.712	11074.05
629.906	10994.18
630.1	10940.93
630.294	10832.39
630.489	10779.14
630.683	10838.53
630.877	10531.34
631.071	10506.76
631.265	10562.06
631.459	10396.17
631.653	10494.47
631.848	10506.76
632.042	10441.23
632.236	10342.92
632.43	10172.94
632.624	10336.78
632.818	10154.51
633.012	9949.71
633.206	10039.83
633.4	9921.04
633.594	10031.63
633.788	9988.63
633.982	9878.04
634.176	9939.48
634.369	9943.57
634.563	9759.25
634.757	9613.85
634.951	9749.01
635.145	9761.3
635.339	9579.03
635.533	9546.26
635.726	9400.86
635.92	9509.4
636.114	9366.04
636.308	9398.81
636.501	9320.99
636.695	9191.97
636.889	9050.66
637.083	9110.05
637.276	8974.88
637.47	8931.87
637.664	8927.78
637.857	8929.83
638.051	8864.29
638.244	8800.8
638.438	8829.48
638.632	8735.27
638.825	8772.13
639.019	8440.36
639.212	8714.79
639.406	8710.69
639.599	8546.86
639.793	8337.96
639.986	8434.22
640.18	8452.65
640.373	8135.21
640.567	8131.12
640.76	8219.18
640.954	7985.71
641.147	7977.52
641.34	8073.78
641.534	8129.07
641.727	8079.92
641.92	7928.37
642.114	8008.24
642.307	7762.48
642.5	7981.62
642.694	7467.58
642.887	7615.03
643.08	7610.93
643.273	7725.62
643.467	7653.94
643.66	7541.3
643.853	7490.1
644.046	7461.43
644.239	7270.97
644.432	7412.28
644.626	7311.93
644.819	7195.2
645.012	7244.35
645.205	7252.54
645.398	7123.52
645.591	7027.26
645.784	7035.46
645.977	7002.69
646.17	7033.41
646.363	6957.63
646.556	7037.5
646.749	6863.43
646.942	6914.63
647.135	6617.67
647.328	6812.23
647.521	6597.19
647.714	6582.85
647.907	6556.23
648.099	6441.54
648.292	6400.59
648.485	6502.98
648.678	6230.6
648.871	6302.28
649.064	6251.08
649.256	6367.82
649.449	6154.83
649.642	6156.88
649.835	6179.4
650.027	6126.16
650.22	6304.33
650.413	6105.68
650.605	6113.87
650.798	6095.44
650.991	6134.35
651.183	5945.94
651.376	5982.8
651.568	5810.77
651.761	5835.35
651.954	5712.47
652.146	5648.98
652.339	5620.31
652.531	5708.37
652.724	5694.04
652.916	5483.09
653.109	5696.08
653.301	5558.87
653.494	5567.06
653.686	5505.62
653.879	5438.04
654.071	5444.18
654.263	5409.37
654.456	5313.11
654.648	5384.79
654.84	5171.8
655.033	5143.13
655.225	5112.41
655.417	5167.71
655.61	5210.72
655.802	5163.61
655.994	5130.84
656.186	5069.41
656.379	4977.25
656.571	5075.55
656.763	4819.55
656.955	4975.2
657.148	4958.81
657.34	4772.45
657.532	4762.21
657.724	4739.68
657.916	4797.03
658.108	4647.52
658.3	4684.39
658.492	4633.19
658.684	4620.9
658.876	4604.52
659.068	4573.8
659.26	4592.23
659.452	4455.01
659.644	4436.58
659.836	4467.3
660.028	4403.82
660.22	4282.99
660.412	4366.95
660.604	4223.59
660.796	4358.76
660.988	4137.58
661.18	4119.15
661.372	4108.91
661.563	4340.33
661.755	4188.78
661.947	4166.25
662.139	4100.72
662.331	3957.36
662.522	4020.85
662.714	4010.61
662.906	3920.49
663.097	3994.22
663.289	3811.95
663.481	3967.6
663.673	4043.37
663.864	3824.24
664.056	3752.56
664.247	3873.39
664.439	3719.79
664.631	3758.71
664.822	3797.62
665.014	3781.23
665.205	3664.5
665.397	3660.4
665.588	3746.42
665.78	3615.35
665.971	3512.95
666.163	3560.05
666.354	3621.49
666.546	3539.57
666.737	3523.19
666.929	3553.91
667.12	3367.54
667.311	3469.94
667.503	3431.03
667.694	3289.72
667.885	3285.62
668.077	3402.36
668.268	3312.25
668.459	3363.45
668.651	3289.72
668.842	3324.54
669.033	3279.48
669.224	3123.84
669.416	3209.85
669.607	3132.03
669.798	3162.75
669.989	3261.05
670.18	3164.79
670.371	3150.46
670.563	3197.56
670.754	3236.47
670.945	3189.37
671.136	3054.2
671.327	3103.36
671.518	3015.29
671.709	3072.64
671.9	3074.68
672.091	2976.38
672.282	2990.72
672.473	3000.96
672.664	2957.95
672.855	2968.19
673.046	2882.17
673.237	2996.86
673.428	2808.45
673.619	3074.68
673.809	2826.88
674	2962.05
674.191	2806.4
674.382	2833.02
674.573	2783.87
674.764	2937.47
674.954	2820.74
675.145	2775.68
675.336	2796.16
675.527	2845.31
675.717	2839.17
675.908	2939.52
676.099	2704
676.289	2742.91
676.48	2822.78
676.671	2726.53
676.861	2595.46
677.052	2654.85
677.243	2736.77
677.433	2673.28
677.624	2640.51
677.814	2689.67
678.005	2554.5
678.195	2663.04
678.386	2630.27
678.576	2644.61
678.767	2636.42
678.957	2615.94
679.148	2677.38
679.338	2564.74
679.529	2660.99
679.719	2650.75
679.909	2597.51
680.1	2554.5
680.29	2697.86
680.481	2527.88
680.671	2443.91
680.861	2687.62
681.052	2478.72
681.242	2509.44
681.432	2556.55
681.622	2501.25
681.813	2488.96
682.003	2554.5
682.193	2577.03
682.383	2538.12
682.573	2484.87
682.764	2480.77
682.954	2368.13
683.144	2480.77
683.334	2472.58
683.524	2523.78
683.714	2531.97
683.904	2448.01
684.094	2435.72
684.284	2429.57
684.474	2484.87
684.664	2413.19
684.854	2284.17
685.044	2321.03
685.234	2439.81
685.424	2411.14
685.614	2331.27
685.804	2445.96
685.994	2347.65
686.184	2349.7
686.374	2325.13
686.564	2323.08
686.753	2376.33
686.943	2353.8
687.133	2366.09
687.323	2273.93
687.513	2316.94
687.702	2288.26
687.892	2308.74
688.082	2222.73
688.272	2402.95
688.461	2347.65
688.651	2241.16
688.841	2388.61
689.03	2415.24
689.22	2411.14
689.41	2304.65
689.599	2261.64
689.789	2343.56
689.979	2304.65
690.168	2304.65
690.358	2306.7
690.547	2361.99
690.737	2349.7
690.926	2353.8
691.116	2165.39
691.305	2290.31
691.495	2235.02
691.684	2183.82
691.874	2370.18
692.063	2206.34
692.252	2353.8
692.442	2308.74
692.631	2323.08
692.82	2253.45
693.01	2271.88
693.199	2208.39
693.388	2239.11
693.578	2314.89
693.767	2235.02
693.956	2267.78
694.146	2278.02
694.335	2265.74
694.524	2224.78
694.713	2200.2
694.902	2294.41
695.092	2265.74
695.281	2101.9
695.47	2306.7
695.659	2263.69
695.848	2198.15
696.037	2255.5
696.226	2206.34
696.415	2257.54
696.604	2232.97
696.793	2208.39
696.982	2228.87
697.171	2189.96
697.36	2321.03
697.549	2118.28
697.738	2232.97
697.927	2357.89
698.116	2232.97
698.305	2298.5
698.494	2224.78
698.683	2222.73
698.872	2321.03
699.061	2214.54
699.25	2140.81
699.438	2173.58
699.627	2271.88
699.816	2196.11
700.005	2183.82
700.193	2144.91
700.382	2237.06
700.571	2204.3
700.76	2241.16
700.948	2183.82
701.137	2161.29
701.326	2288.26
701.514	2273.93
701.703	2208.39
701.892	2118.28
702.08	2159.24
702.269	2212.49
702.457	2175.63
702.646	2196.11
702.834	2138.76
703.023	2112.14
703.212	2249.35
703.4	2044.56
703.589	2069.13
703.777	2073.23
703.965	2030.22
704.154	2134.67
704.342	2038.41
704.531	2046.6
704.719	2042.51
704.907	2200.2
705.096	2017.93
705.284	2007.69
705.472	1974.92
705.661	1987.21
705.849	2095.75
706.037	2040.46
706.226	1979.02
706.414	1987.21
706.602	1979.02
706.79	1993.36
706.979	1983.12
707.167	2091.66
707.355	1979.02
707.543	1997.45
707.731	2046.6
707.919	1976.97
708.107	1893.01
708.296	1876.62
708.484	1979.02
708.672	1878.67
708.86	1886.86
709.048	1919.63
709.236	1776.27
709.424	1960.59
709.612	2015.88
709.8	1927.82
709.988	1911.44
710.176	1993.36
710.364	1950.35
710.551	1788.56
710.739	1886.86
710.927	1884.81
711.115	1796.75
711.303	1788.56
711.491	1839.76
711.679	1921.68
711.866	1782.42
712.054	1809.04
712.242	1723.02
712.43	1770.13
712.617	1788.56
712.805	1759.89
712.993	1780.37
713.181	1690.26
713.368	1700.5
713.556	1692.3
713.744	1716.88
713.931	1684.11
714.119	1729.17
714.306	1651.35
714.494	1798.8
714.682	1786.51
714.869	1669.78
715.057	1739.41
715.244	1731.22
715.432	1680.02
715.619	1612.43
715.807	1616.53
715.994	1620.63
716.182	1704.59
716.369	1591.95
716.556	1532.56
716.744	1594
716.931	1544.85
717.119	1606.29
717.306	1647.25
717.493	1596.05
717.681	1460.88
717.868	1526.42
718.055	1591.95
718.242	1432.21
718.43	1567.38
718.617	1624.72
718.804	1516.18
718.991	1503.89
719.179	1577.62
719.366	1522.32
719.553	1469.08
719.74	1485.46
719.927	1571.47
720.114	1518.23
720.301	1471.12
720.488	1411.73
720.676	1479.32
720.863	1383.06
721.05	1538.71
721.237	1497.75
721.424	1450.64
721.611	1442.45
721.798	1348.25
721.985	1460.88
722.172	1440.4
722.358	1403.54
722.545	1403.54
722.732	1434.26
722.919	1378.97
723.106	1407.64
723.293	1444.5
723.48	1438.36
723.667	1299.09
723.853	1319.57
724.04	1297.05
724.227	1315.48
724.414	1198.74
724.6	1301.14
724.787	1305.24
724.974	1350.29
725.161	1354.39
725.347	1227.42
725.534	1309.33
725.72	1364.63
725.907	1274.52
726.094	1223.32
726.28	1272.47
726.467	1227.42
726.653	1268.38
726.84	1223.32
727.027	1231.51
727.213	1268.38
727.4	1254.04
727.586	1249.94
727.773	1340.05
727.959	1149.59
728.145	1241.75
728.332	1237.66
728.518	1174.17
728.705	1206.94
728.891	1264.28
729.077	1211.03
729.264	1188.5
729.45	1151.64
729.636	1243.8
729.823	1135.26
730.009	1196.7
730.195	1168.02
730.382	1176.22
730.568	1254.04
730.754	1190.55
730.94	1190.55
731.126	1241.75
731.313	1174.17
731.499	1217.18
731.685	1258.14
731.871	1108.63
732.057	1096.35
732.243	1086.11
732.429	1133.21
732.615	1069.72
732.801	1092.25
732.987	1106.59
733.173	1034.91
733.359	1100.44
733.545	1182.36
733.731	1059.48
733.917	1075.87
734.103	1045.15
734.289	1112.73
734.475	1010.33
734.661	1043.1
734.847	1135.26
735.033	1118.87
735.219	991.9
735.404	998.04
735.59	1069.72
735.776	1004.19
735.962	1012.38
736.148	979.61
736.333	1045.15
736.519	959.13
736.705	1012.38
736.89	1026.71
737.076	993.95
737.262	936.6
737.447	924.32
737.633	996
737.819	903.84
738.004	983.71
738.19	961.18
738.375	985.76
738.561	922.27
738.747	1034.91
738.932	961.18
739.118	1004.19
739.303	959.13
739.489	993.95
739.674	826.01
739.859	959.13
740.045	852.64
740.23	899.74
740.416	891.55
740.601	969.37
740.786	862.88
740.972	869.02
741.157	836.25
741.342	944.8
741.528	869.02
741.713	936.6
741.898	928.41
742.084	799.39
742.269	832.16
742.454	860.83
742.639	838.3
742.824	834.21
743.01	828.06
743.195	768.67
743.38	891.55
743.565	780.96
743.75	830.11
743.935	760.48
744.12	817.82
744.305	860.83
744.49	715.42
744.675	815.77
744.86	791.2
745.045	842.4
745.23	770.72
745.415	823.97
745.6	817.82
745.785	799.39
745.97	780.96
746.155	815.77
746.34	715.42
746.525	817.82
746.71	748.19
746.895	674.46
747.079	789.15
747.264	776.86
747.449	701.09
747.634	707.23
747.819	703.14
748.003	791.2
748.188	682.66
748.373	740
748.557	696.99
748.742	780.96
748.927	748.19
749.111	662.18
749.296	649.89
749.481	715.42
749.665	688.8
749.85	717.47
750.034	653.98
750.219	688.8
750.404	725.66
750.588	762.53
750.773	658.08
750.957	629.41
751.141	610.98
751.326	613.03
751.51	662.18
751.695	563.87
751.879	555.68
752.064	639.65
752.248	674.46
752.432	613.03
752.617	596.64
752.801	658.08
752.985	692.9
753.17	559.78
753.354	629.41
753.538	535.2
753.722	559.78
753.907	514.72
754.091	565.92
754.275	656.03
754.459	512.67
754.643	551.59
754.828	527.01
755.012	539.3
755.196	488.1
755.38	610.98
755.564	524.96
755.748	625.31
755.932	590.5
756.116	537.25
756.3	510.63
756.484	547.49
756.668	584.35
756.852	522.91
757.036	529.06
757.22	555.68
757.404	606.88
757.588	553.63
757.772	484
757.956	563.87
758.14	479.91
758.323	535.2
758.507	484
758.691	510.63
758.875	426.66
759.059	565.92
759.242	498.34
759.426	502.43
759.61	506.53
759.794	449.19
759.977	494.24
760.161	467.62
760.345	518.82
760.528	426.66
760.712	469.67
760.895	531.11
761.079	455.33
761.263	449.19
761.446	451.24
761.63	494.24
761.813	406.18
761.997	522.91
762.18	389.8
762.364	496.29
762.547	438.95
762.731	436.9
762.914	375.46
763.098	412.32
763.281	498.34
763.464	387.75
763.648	465.57
763.831	418.47
764.015	420.52
764.198	465.57
764.381	441
764.564	449.19
764.748	379.56
764.931	377.51
765.114	479.91
765.297	445.09
765.481	379.56
765.664	397.99
765.847	373.41
766.03	432.8
766.213	408.23
766.397	361.13
766.58	492.2
766.763	365.22
766.946	379.56
767.129	371.36
767.312	375.46
767.495	314.02
767.678	400.04
767.861	457.38
768.044	332.45
768.227	422.56
768.41	414.37
768.593	385.7
768.776	346.79
768.959	383.65
769.142	428.71
769.324	363.17
769.507	402.08
769.69	404.13
769.873	410.28
770.056	393.89
770.239	379.56
770.421	393.89
770.604	283.3
770.787	375.46
770.97	326.31
771.152	359.08
771.335	416.42
771.518	326.31
771.7	430.76
771.883	395.94
772.066	367.27
772.248	314.02
772.431	367.27
772.613	289.45
772.796	262.82
772.978	314.02
773.161	379.56
773.343	402.08
773.526	363.17
773.708	381.6
773.891	377.51
774.073	283.3
774.256	363.17
774.438	350.89
774.621	297.64
774.803	293.54
774.985	307.88
775.168	320.17
775.35	395.94
775.532	314.02
775.715	309.93
775.897	316.07
776.079	223.91
776.261	314.02
776.444	338.6
776.626	236.2
776.808	318.12
776.99	309.93
777.173	342.69
777.355	354.98
777.537	299.69
777.719	240.29
777.901	289.45
778.083	230.06
778.265	375.46
778.447	309.93
778.629	338.6
778.811	332.45
778.993	279.21
779.175	346.79
779.357	283.3
779.539	260.77
779.721	322.21
779.903	330.41
780.085	260.77
780.267	250.53
780.449	281.25
780.631	299.69
780.812	242.34
780.994	322.21
781.176	215.72
781.358	275.11
781.54	217.77
781.721	248.49
781.903	305.83
782.085	250.53
782.267	287.4
782.448	193.19
782.63	258.73
782.812	314.02
782.993	234.15
783.175	271.01
783.357	201.38
783.538	322.21
783.72	215.72
783.901	223.91
784.083	281.25
784.264	232.1
784.446	240.29
784.627	150.18
784.809	174.76
784.99	176.81
785.172	174.76
785.353	201.38
785.535	182.95
785.716	174.76
785.897	215.72
786.079	191.14
786.26	199.34
786.441	174.76
786.623	209.58
786.804	217.77
786.985	193.19
787.167	199.34
787.348	170.66
787.529	154.28
787.71	230.06
787.891	180.9
788.073	164.52
788.254	199.34
788.435	185
788.616	246.44
788.797	111.27
788.978	217.77
789.159	141.99
789.34	174.76
789.522	135.85
789.703	228.01
789.884	170.66
790.065	215.72
790.246	168.62
790.427	213.67
790.607	105.13
790.788	187.05
790.969	158.38
791.15	209.58
791.331	115.37
791.512	242.34
791.693	201.38
791.874	170.66
792.054	154.28
792.235	139.94
792.416	45.74
792.597	182.95
792.778	213.67
792.958	133.8
793.139	160.42
793.32	178.86
793.5	244.39
793.681	166.57
793.862	141.99
794.042	125.61
794.223	162.47
794.404	217.77
794.584	139.94
794.765	203.43
794.945	111.27
795.126	182.95
795.306	131.75
795.487	47.79
795.667	105.13
795.848	133.8
796.028	119.46
796.209	98.99
796.389	123.56
796.57	144.04
796.75	53.93
796.93	158.38
797.111	72.36
797.291	168.62
797.471	234.15
797.652	68.27
797.832	41.64
798.012	141.99
798.192	82.6
798.373	119.46
798.553	133.8
798.733	150.18
798.913	129.7
799.093	78.51
799.274	162.47
799.454	103.08
799.634	144.04
799.814	166.57
799.994	119.46
800.174	201.38
800.354	98.99
800.534	119.46
800.714	96.94
800.894	137.9
801.074	121.51
801.254	189.1
801.434	137.9
801.614	160.42
801.794	94.89
801.974	365.22
802.154	92.84
802.334	137.9
802.514	144.04
802.693	94.89
802.873	82.6
803.053	125.61
803.233	154.28
803.413	182.95
803.592	107.18
803.772	119.46
803.952	35.5
804.131	154.28
804.311	45.74
804.491	166.57
804.67	55.98
804.85	86.7
805.03	43.69
805.209	53.93
805.389	60.07
805.568	17.07
805.748	86.7
805.928	111.27
806.107	125.61
806.287	72.36
806.466	82.6
806.646	72.36
806.825	43.69
807.004	113.32
807.184	139.94
807.363	92.84
807.543	66.22
807.722	64.17
807.901	152.23
808.081	92.84
808.26	60.07
808.439	129.7
808.619	58.03
808.798	119.46
808.977	94.89
809.156	43.69
809.336	10.92
809.515	94.89
809.694	78.51
809.873	39.59
810.052	58.03
810.231	117.42
810.411	92.84
810.59	109.22
810.769	92.84
810.948	70.31
811.127	6.83
811.306	86.7
811.485	131.75
811.664	115.37
811.843	-19.8
812.022	55.98
812.201	17.07
812.38	154.28
812.559	60.07
812.737	49.83
812.916	47.79
813.095	76.46
813.274	78.51
813.453	78.51
813.632	2.73
813.811	88.75
813.989	60.07
814.168	78.51
814.347	80.55
814.526	-30.04
814.704	82.6
814.883	111.27
815.062	115.37
815.24	6.83
815.419	41.64
815.598	70.31
815.776	62.12
815.955	37.55
816.133	84.65
816.312	139.94
816.49	49.83
816.669	33.45
816.847	103.08
817.026	43.69
817.204	86.7
817.383	43.69
817.561	88.75
817.74	64.17
817.918	60.07
818.097	68.27
818.275	92.84
818.453	88.75
818.632	92.84
818.81	41.64
818.988	92.84
819.167	86.7
819.345	19.11
819.523	74.41
819.701	19.11
819.879	135.85
820.058	62.12
820.236	51.88
820.414	27.31
820.592	137.9
820.77	92.84
820.948	23.21
821.127	84.65
821.305	47.79
821.483	47.79
821.661	53.93
821.839	51.88
822.017	64.17
822.195	60.07
822.373	51.88
822.551	37.55
822.729	37.55
822.907	111.27
823.085	64.17
823.262	39.59
823.44	35.5
823.618	-36.18
823.796	31.4
823.974	29.35
824.152	76.46
824.329	47.79
824.507	58.03
824.685	27.31
824.863	117.42
825.04	82.6
825.218	146.09
825.396	68.27
825.574	-5.46
825.751	4.78
825.929	-5.46
826.107	-38.23
826.284	62.12
826.462	60.07
826.639	125.61
826.817	10.92
826.994	-11.61
827.172	68.27
827.349	96.94
827.527	2.73
827.704	105.13
827.882	19.11
828.059	27.31
828.237	53.93
828.414	35.5
828.591	-13.65
828.769	92.84
828.946	53.93
829.124	47.79
829.301	141.99
829.478	6.83
829.655	96.94
829.833	64.17
830.01	47.79
830.187	78.51
830.364	27.31
830.542	76.46
830.719	19.11
830.896	51.88
831.073	64.17
831.25	37.55
831.427	72.36
831.604	111.27
831.782	10.92
831.959	82.6
832.136	-19.8
832.313	39.59
832.49	19.11
832.667	41.64
832.844	33.45
833.021	43.69
833.198	80.55
833.374	19.11
833.551	35.5
833.728	107.18
833.905	86.7
834.082	-1.37
834.259	80.55
834.436	55.98
834.612	-54.61
834.789	37.55
834.966	10.92
835.143	-13.65
835.319	2.73
835.496	70.31
835.673	37.55
835.85	19.11
836.026	-9.56
836.203	39.59
836.38	49.83
836.556	51.88
836.733	31.4
836.909	39.59
837.086	25.26
837.262	37.55
837.439	-21.85
837.616	-99.67
837.792	-13.65
837.968	39.59
838.145	-3.41
838.321	45.74
838.498	84.65
838.674	-21.85
838.851	88.75
839.027	68.27
839.203	88.75
839.38	39.59
839.556	49.83
839.732	51.88
839.909	-1.37
840.085	41.64
840.261	72.36
840.437	27.31
840.614	-36.18
840.79	-30.04
840.966	39.59
841.142	39.59
841.318	66.22
841.494	10.92
841.671	17.07
841.847	27.31
842.023	35.5
842.199	117.42
842.375	49.83
842.551	-36.18
842.727	84.65
842.903	107.18
843.079	31.4
843.255	15.02
843.431	47.79
843.607	70.31
843.783	-42.32
843.959	4.78
844.134	96.94
844.31	82.6
844.486	-1.37
844.662	37.55
844.838	35.5
845.013	41.64
845.189	37.55
845.365	45.74
845.541	-7.51
845.716	62.12
845.892	45.74
846.068	60.07
846.244	6.83
846.419	62.12
846.595	12.97
846.77	58.03
846.946	-3.41
847.122	49.83
847.297	37.55
847.473	-3.41
847.648	51.88
847.824	98.99
847.999	-27.99
848.175	-9.56
848.35	64.17
848.526	27.31
848.701	21.16
848.876	60.07
849.052	-21.85
849.227	15.02
849.403	31.4
849.578	31.4
849.753	45.74
849.929	58.03
850.104	41.64
850.279	-21.85
850.454	6.83
850.63	-25.94
850.805	64.17
850.98	55.98
851.155	19.11
851.33	21.16
851.505	2.73
851.681	43.69
851.856	62.12
852.031	21.16
852.206	10.92
852.381	21.16
852.556	-46.42
852.731	76.46
852.906	55.98
853.081	-19.8
853.256	47.79
853.431	53.93
853.606	62.12
853.781	35.5
853.956	35.5
854.131	-17.75
854.305	43.69
854.48	12.97
854.655	-21.85
854.83	10.92
855.005	51.88
855.18	60.07
855.354	10.92
855.529	6.83
855.704	-5.46
855.879	31.4
856.053	-40.28
856.228	8.87
856.403	45.74
856.577	-27.99
856.752	0.68
856.926	37.55
857.101	23.21
857.276	17.07
857.45	47.79
857.625	58.03
857.799	31.4
857.974	51.88
858.148	-3.41
858.323	43.69
858.497	23.21
858.672	37.55
858.846	53.93
859.02	68.27
859.195	-27.99
859.369	27.31
859.543	29.35
859.718	88.75
859.892	45.74
860.066	0.68
860.241	29.35
860.415	51.88
860.589	15.02
860.763	-27.99
860.938	-32.08
861.112	6.83
861.286	-40.28
861.46	-21.85
861.634	23.21
861.808	35.5
861.982	-58.71
862.157	51.88
862.331	51.88
862.505	6.83
862.679	6.83
862.853	68.27
863.027	-11.61
863.201	-34.13
863.375	58.03
863.549	12.97
863.722	21.16
863.896	10.92
864.07	-17.75
864.244	-21.85
864.418	6.83
864.592	45.74
864.766	10.92
864.939	37.55
865.113	-15.7
865.287	27.31
865.461	19.11
865.634	39.59
865.808	2.73
865.982	2.73
866.156	-13.65
866.329	-38.23
866.503	17.07
866.676	-73.04
866.85	70.31
867.024	-34.13
867.197	-19.8
867.371	43.69
867.544	-9.56
867.718	25.26
867.891	60.07
868.065	-36.18
868.238	17.07
868.412	86.7
868.585	10.92
868.759	15.02
868.932	21.16
869.105	-23.89
869.279	19.11
869.452	45.74
869.625	4.78
869.799	-5.46
869.972	76.46
870.145	2.73
870.319	43.69
870.492	-21.85
870.665	29.35
870.838	23.21
871.011	8.87
871.185	21.16
871.358	-32.08
871.531	-5.46
871.704	-15.7
871.877	15.02
872.05	35.5
872.223	35.5
872.396	-52.56
872.569	70.31
872.742	-9.56
872.915	6.83
873.088	17.07
873.261	-46.42
873.434	-30.04
873.607	12.97
873.78	-60.76
873.953	27.31
874.126	-52.56
874.299	37.55
874.471	2.73
874.644	8.87
874.817	31.4
874.99	-30.04
875.163	2.73
875.335	8.87
875.508	0.68
875.681	4.78
875.853	-44.37
876.026	19.11
876.199	-9.56
876.371	6.83
876.544	68.27
876.717	10.92
876.889	-13.65
877.062	45.74
877.234	23.21
877.407	72.36
877.579	-21.85
877.752	-19.8
877.924	-42.32
878.097	109.22
878.269	4.78
878.442	-30.04
878.614	-52.56
878.786	-21.85
878.959	39.59
879.131	-30.04
879.303	-19.8
879.476	53.93
879.648	109.22
879.82	8.87
879.993	23.21
880.165	51.88
880.337	-38.23
880.509	27.31
880.681	21.16
880.854	37.55
881.026	17.07
881.198	47.79
881.37	17.07
881.542	-40.28
881.714	2.73
881.886	-25.94
882.058	-34.13
882.23	55.98
882.402	-23.89
882.574	37.55
882.746	-11.61
882.918	-21.85
883.09	82.6
883.262	-13.65
883.434	51.88
883.606	-1.37
883.778	-11.61
883.95	-77.14
884.122	-52.56
884.293	23.21
884.465	76.46
884.637	8.87
884.809	12.97
884.98	-11.61
885.152	19.11
885.324	15.02
885.496	29.35
885.667	33.45
885.839	-50.52
886.011	-13.65
886.182	-44.37
886.354	-15.7
886.525	-9.56
886.697	101.03
886.869	-5.46
887.04	0.68
887.212	0.68
887.383	21.16
887.555	-30.04
887.726	-5.46
887.897	-3.41
888.069	-13.65
888.24	66.22
888.412	4.78
888.583	-17.75
888.754	29.35
888.926	-15.7
889.097	-19.8
889.268	15.02
889.44	10.92
889.611	35.5
889.782	53.93
889.953	-75.09
890.125	51.88
890.296	19.11
890.467	62.12
890.638	-50.52
890.809	76.46
890.98	-5.46
891.151	25.26
891.323	6.83
891.494	-15.7
891.665	-11.61
891.836	41.64
892.007	29.35
892.178	19.11
892.349	-30.04
892.52	-17.75
892.691	37.55
892.862	23.21
893.032	-5.46
893.203	68.27
893.374	12.97
893.545	39.59
893.716	-34.13
893.887	-3.41
894.057	15.02
894.228	2.73
894.399	27.31
894.57	15.02
894.74	80.55
894.911	-7.51
895.082	2.73
895.253	10.92
895.423	10.92
895.594	68.27
895.764	17.07
895.935	41.64
896.106	29.35
896.276	31.4
896.447	-17.75
896.617	8.87
896.788	35.5
896.958	105.13
897.129	4.78
897.299	4.78
897.47	-36.18
897.64	21.16
897.81	-54.61
897.981	4.78
898.151	-118.1
898.322	35.5
898.492	-25.94
898.662	15.02
898.832	15.02
899.003	49.83
899.173	43.69
899.343	-15.7
899.513	-5.46
