Data from USB4F104151__272__14-02-20-119.txt Node

Date: Thu Mar 13 14:02:20 EDT 2025
User: louis
Spectrometer: USB4F10415
Trigger mode: 4
Integration Time (sec): 1.000000E-2
Scans to average: 1
Electric dark correction enabled: true
Nonlinearity correction enabled: false
Boxcar width: 0
XAxis mode: Wavelengths
Number of Pixels in Spectrum: 3648
>>>>>Begin Spectral Data<<<<<
178.204	-53.59
178.424	-53.59
178.644	-53.59
178.864	-82.26
179.084	-139.6
179.304	-16.73
179.524	-22.87
179.744	-12.63
179.964	16.04
180.184	-35.16
180.404	-6.49
180.624	-45.4
180.844	67.24
181.064	52.91
181.283	-76.12
181.503	42.67
181.723	36.52
181.943	-61.78
182.163	44.71
182.383	16.04
182.602	44.71
182.822	5.8
183.042	20.14
183.262	20.14
183.482	1.71
183.701	-8.53
183.921	34.47
184.141	-16.73
184.361	89.77
184.58	30.38
184.8	-14.68
185.02	34.47
185.239	-10.58
185.459	-65.88
185.679	143.02
185.898	-10.58
186.118	-41.3
186.338	-20.82
186.557	48.81
186.777	13.99
186.997	11.95
187.216	44.71
187.436	-26.96
187.655	-59.73
187.875	28.33
188.095	87.72
188.314	13.99
188.534	-35.16
188.753	13.99
188.973	40.62
189.192	3.75
189.412	-0.34
189.631	-4.44
189.851	-49.49
190.07	13.99
190.29	-2.39
190.509	38.57
190.729	36.52
190.948	79.53
191.168	54.95
191.387	22.19
191.607	7.85
191.826	20.14
192.045	52.91
192.265	36.52
192.484	-69.97
192.704	-29.01
192.923	-16.73
193.142	79.53
193.362	11.95
193.581	85.67
193.8	3.75
194.02	48.81
194.239	57
194.458	-41.3
194.678	-51.54
194.897	-6.49
195.116	48.81
195.335	65.19
195.555	36.52
195.774	-10.58
195.993	71.34
196.212	-41.3
196.432	-41.3
196.651	48.81
196.87	81.58
197.089	97.96
197.308	57
197.528	18.09
197.747	32.43
197.966	-4.44
198.185	-16.73
198.404	1.71
198.623	22.19
198.842	-37.2
199.062	-78.16
199.281	79.53
199.5	30.38
199.719	-18.77
199.938	30.38
200.157	9.9
200.376	42.67
200.595	28.33
200.814	52.91
201.033	34.47
201.252	20.14
201.471	52.91
201.69	102.06
201.909	-10.58
202.128	-43.35
202.347	9.9
202.566	65.19
202.785	1.71
203.004	-12.63
203.223	69.29
203.442	5.8
203.661	44.71
203.879	42.67
204.098	63.15
204.317	-26.96
204.536	22.19
204.755	5.8
204.974	63.15
205.193	44.71
205.411	-4.44
205.63	50.86
205.849	42.67
206.068	3.75
206.287	30.38
206.505	104.11
206.724	28.33
206.943	38.57
207.162	57
207.381	-4.44
207.599	40.62
207.818	-33.11
208.037	91.82
208.255	-26.96
208.474	79.53
208.693	3.75
208.911	11.95
209.13	48.81
209.349	57
209.567	-69.97
209.786	59.05
210.005	46.76
210.223	-51.54
210.442	-0.34
210.661	28.33
210.879	40.62
211.098	34.47
211.316	50.86
211.535	32.43
211.753	-0.34
211.972	-20.82
212.191	-16.73
212.409	120.49
212.628	52.91
212.846	5.8
213.065	28.33
213.283	-10.58
213.502	-31.06
213.72	13.99
213.938	-0.34
214.157	46.76
214.375	38.57
214.594	-24.92
214.812	26.28
215.031	-49.49
215.249	16.04
215.467	61.1
215.686	20.14
215.904	-51.54
216.122	3.75
216.341	-2.39
216.559	73.39
216.778	44.71
216.996	-18.77
217.214	38.57
217.432	32.43
217.651	11.95
217.869	38.57
218.087	16.04
218.306	-24.92
218.524	44.71
218.742	-4.44
218.96	-53.59
219.179	24.23
219.397	100.01
219.615	42.67
219.833	61.1
220.051	-4.44
220.27	-33.11
220.488	-78.16
220.706	69.29
220.924	-12.63
221.142	-4.44
221.36	22.19
221.578	5.8
221.796	-33.11
222.015	-4.44
222.233	20.14
222.451	-35.16
222.669	30.38
222.887	48.81
223.105	7.85
223.323	-8.53
223.541	-8.53
223.759	30.38
223.977	-39.25
224.195	24.23
224.413	-10.58
224.631	-41.3
224.849	-4.44
225.067	5.8
225.285	-61.78
225.503	-4.44
225.721	16.04
225.939	-8.53
226.157	65.19
226.375	-0.34
226.592	16.04
226.81	-10.58
227.028	-35.16
227.246	7.85
227.464	50.86
227.682	38.57
227.9	9.9
228.117	34.47
228.335	28.33
228.553	-45.4
228.771	40.62
228.989	59.05
229.206	-8.53
229.424	106.15
229.642	22.19
229.86	75.43
230.077	-51.54
230.295	-35.16
230.513	32.43
230.731	87.72
230.948	69.29
231.166	16.04
231.384	-4.44
231.601	-18.77
231.819	1.71
232.037	-4.44
232.254	-45.4
232.472	-4.44
232.689	-29.01
232.907	32.43
233.125	-55.64
233.342	32.43
233.56	-0.34
233.777	-33.11
233.995	-29.01
234.213	5.8
234.43	52.91
234.648	34.47
234.865	79.53
235.083	-4.44
235.3	-16.73
235.518	-10.58
235.735	-8.53
235.953	20.14
236.17	5.8
236.388	104.11
236.605	-4.44
236.822	-33.11
237.04	1.71
237.257	59.05
237.475	-2.39
237.692	71.34
237.909	-8.53
238.127	-8.53
238.344	1.71
238.562	11.95
238.779	-14.68
238.996	5.8
239.214	24.23
239.431	22.19
239.648	30.38
239.865	-35.16
240.083	-12.63
240.3	85.67
240.517	-41.3
240.735	-24.92
240.952	-29.01
241.169	11.95
241.386	-35.16
241.603	5.8
241.821	-12.63
242.038	-18.77
242.255	13.99
242.472	44.71
242.689	-43.35
242.907	7.85
243.124	20.14
243.341	42.67
243.558	-24.92
243.775	-2.39
243.992	-8.53
244.209	-2.39
244.426	46.76
244.643	24.23
244.86	40.62
245.078	85.67
245.295	3.75
245.512	-12.63
245.729	36.52
245.946	30.38
246.163	36.52
246.38	54.95
246.597	5.8
246.814	-4.44
247.031	24.23
247.248	-26.96
247.464	65.19
247.681	16.04
247.898	-4.44
248.115	57
248.332	18.09
248.549	24.23
248.766	3.75
248.983	36.52
249.2	40.62
249.417	7.85
249.633	28.33
249.85	3.75
250.067	-12.63
250.284	42.67
250.501	52.91
250.717	26.28
250.934	-12.63
251.151	11.95
251.368	18.09
251.585	-61.78
251.801	46.76
252.018	-67.92
252.235	73.39
252.451	59.05
252.668	30.38
252.885	-4.44
253.102	36.52
253.318	40.62
253.535	-22.87
253.752	30.38
253.968	-49.49
254.185	-37.2
254.401	30.38
254.618	9.9
254.835	36.52
255.051	89.77
255.268	20.14
255.484	40.62
255.701	-20.82
255.917	67.24
256.134	-20.82
256.351	52.91
256.567	-4.44
256.784	46.76
257	-37.2
257.217	28.33
257.433	-39.25
257.65	-18.77
257.866	7.85
258.082	46.76
258.299	28.33
258.515	-45.4
258.732	16.04
258.948	-26.96
259.165	13.99
259.381	-0.34
259.597	54.95
259.814	20.14
260.03	-22.87
260.246	13.99
260.463	73.39
260.679	77.48
260.895	-8.53
261.112	30.38
261.328	40.62
261.544	20.14
261.761	13.99
261.977	-22.87
262.193	22.19
262.409	26.28
262.626	-53.59
262.842	-16.73
263.058	-12.63
263.274	38.57
263.49	1.71
263.707	65.19
263.923	13.99
264.139	81.58
264.355	-4.44
264.571	16.04
264.787	-29.01
265.004	30.38
265.22	-65.88
265.436	22.19
265.652	-20.82
265.868	73.39
266.084	11.95
266.3	-20.82
266.516	-31.06
266.732	-51.54
266.948	81.58
267.164	-39.25
267.38	-43.35
267.596	50.86
267.812	38.57
268.028	-4.44
268.244	44.71
268.46	44.71
268.676	-12.63
268.892	32.43
269.108	36.52
269.324	-24.92
269.54	5.8
269.756	5.8
269.972	38.57
270.188	11.95
270.403	38.57
270.619	50.86
270.835	13.99
271.051	46.76
271.267	54.95
271.483	-16.73
271.698	42.67
271.914	85.67
272.13	-2.39
272.346	20.14
272.562	-24.92
272.777	87.72
272.993	16.04
273.209	18.09
273.425	79.53
273.64	5.8
273.856	65.19
274.072	38.57
274.287	48.81
274.503	61.1
274.719	22.19
274.934	57
275.15	-0.34
275.366	-4.44
275.581	48.81
275.797	20.14
276.012	-24.92
276.228	11.95
276.444	-31.06
276.659	87.72
276.875	-59.73
277.09	50.86
277.306	87.72
277.521	36.52
277.737	-78.16
277.952	-6.49
278.168	-53.59
278.383	-12.63
278.599	-12.63
278.814	-41.3
279.03	110.25
279.245	-2.39
279.461	42.67
279.676	18.09
279.892	30.38
280.107	24.23
280.322	63.15
280.538	67.24
280.753	5.8
280.969	26.28
281.184	-43.35
281.399	93.87
281.615	3.75
281.83	20.14
282.045	38.57
282.26	-20.82
282.476	69.29
282.691	57
282.906	3.75
283.122	-24.92
283.337	-29.01
283.552	52.91
283.767	11.95
283.983	54.95
284.198	-24.92
284.413	38.57
284.628	-14.68
284.843	26.28
285.058	22.19
285.274	32.43
285.489	-53.59
285.704	44.71
285.919	5.8
286.134	52.91
286.349	-29.01
286.564	65.19
286.779	48.81
286.995	-43.35
287.21	9.9
287.425	40.62
287.64	13.99
287.855	-10.58
288.07	28.33
288.285	59.05
288.5	57
288.715	24.23
288.93	61.1
289.145	-4.44
289.36	61.1
289.575	36.52
289.79	16.04
290.004	42.67
290.219	3.75
290.434	-37.2
290.649	9.9
290.864	63.15
291.079	7.85
291.294	-22.87
291.509	42.67
291.724	1.71
291.938	36.52
292.153	3.75
292.368	65.19
292.583	5.8
292.798	69.29
293.012	13.99
293.227	59.05
293.442	11.95
293.657	40.62
293.871	-18.77
294.086	22.19
294.301	40.62
294.516	18.09
294.73	32.43
294.945	26.28
295.16	61.1
295.374	54.95
295.589	32.43
295.804	-41.3
296.018	85.67
296.233	52.91
296.447	22.19
296.662	16.04
296.877	95.91
297.091	11.95
297.306	100.01
297.52	30.38
297.735	32.43
297.949	-4.44
298.164	85.67
298.378	-33.11
298.593	-20.82
298.807	69.29
299.022	-31.06
299.236	7.85
299.451	-4.44
299.665	57
299.88	75.43
300.094	-14.68
300.309	48.81
300.523	-10.58
300.737	13.99
300.952	11.95
301.166	38.57
301.381	36.52
301.595	38.57
301.809	20.14
302.024	-18.77
302.238	24.23
302.452	61.1
302.667	-41.3
302.881	102.06
303.095	-31.06
303.309	59.05
303.524	7.85
303.738	22.19
303.952	-18.77
304.166	22.19
304.381	22.19
304.595	11.95
304.809	65.19
305.023	69.29
305.237	63.15
305.452	54.95
305.666	-0.34
305.88	16.04
306.094	110.25
306.308	24.23
306.522	-61.78
306.736	44.71
306.95	38.57
307.164	89.77
307.379	5.8
307.593	50.86
307.807	77.48
308.021	30.38
308.235	40.62
308.449	54.95
308.663	-37.2
308.877	28.33
309.091	9.9
309.305	-14.68
309.519	-26.96
309.733	69.29
309.947	11.95
310.161	30.38
310.374	63.15
310.588	-14.68
310.802	34.47
311.016	52.91
311.23	34.47
311.444	16.04
311.658	26.28
311.872	75.43
312.085	13.99
312.299	26.28
312.513	-10.58
312.727	3.75
312.941	34.47
313.154	13.99
313.368	11.95
313.582	38.57
313.796	13.99
314.009	11.95
314.223	-0.34
314.437	36.52
314.651	16.04
314.864	50.86
315.078	32.43
315.292	20.14
315.505	-37.2
315.719	20.14
315.933	91.82
316.146	-2.39
316.36	-20.82
316.573	112.3
316.787	44.71
317.001	-20.82
317.214	-0.34
317.428	63.15
317.641	3.75
317.855	71.34
318.068	-29.01
318.282	50.86
318.495	18.09
318.709	7.85
318.922	57
319.136	69.29
319.349	95.91
319.563	-43.35
319.776	-20.82
319.99	63.15
320.203	18.09
320.417	7.85
320.63	-12.63
320.843	79.53
321.057	5.8
321.27	20.14
321.483	-12.63
321.697	91.82
321.91	81.58
322.124	-8.53
322.337	7.85
322.55	46.76
322.763	-10.58
322.977	32.43
323.19	16.04
323.403	106.15
323.617	32.43
323.83	61.1
324.043	-26.96
324.256	44.71
324.469	48.81
324.683	20.14
324.896	-22.87
325.109	-14.68
325.322	38.57
325.535	22.19
325.748	95.91
325.962	24.23
326.175	67.24
326.388	32.43
326.601	59.05
326.814	73.39
327.027	48.81
327.24	54.95
327.453	24.23
327.666	18.09
327.879	52.91
328.092	52.91
328.305	-22.87
328.518	69.29
328.731	-12.63
328.944	22.19
329.157	52.91
329.37	-4.44
329.583	9.9
329.796	71.34
330.009	-61.78
330.222	75.43
330.435	48.81
330.648	16.04
330.861	50.86
331.073	65.19
331.286	65.19
331.499	-16.73
331.712	40.62
331.925	-33.11
332.138	-4.44
332.35	79.53
332.563	38.57
332.776	71.34
332.989	34.47
333.202	11.95
333.414	22.19
333.627	20.14
333.84	42.67
334.053	97.96
334.265	57
334.478	-35.16
334.691	9.9
334.903	-29.01
335.116	3.75
335.329	75.43
335.541	77.48
335.754	-26.96
335.966	3.75
336.179	16.04
336.392	16.04
336.604	11.95
336.817	16.04
337.029	7.85
337.242	57
337.454	-10.58
337.667	24.23
337.88	73.39
338.092	52.91
338.305	-37.2
338.517	-0.34
338.729	7.85
338.942	102.06
339.154	81.58
339.367	1.71
339.579	1.71
339.792	22.19
340.004	32.43
340.217	11.95
340.429	61.1
340.641	40.62
340.854	110.25
341.066	-4.44
341.278	97.96
341.491	-8.53
341.703	71.34
341.915	-29.01
342.128	85.67
342.34	5.8
342.552	30.38
342.764	20.14
342.977	38.57
343.189	-43.35
343.401	-29.01
343.613	48.81
343.826	-24.92
344.038	28.33
344.25	104.11
344.462	44.71
344.674	108.2
344.886	-39.25
345.099	95.91
345.311	-33.11
345.523	28.33
345.735	-10.58
345.947	87.72
346.159	-2.39
346.371	3.75
346.583	26.28
346.795	40.62
347.007	32.43
347.219	-16.73
347.431	16.04
347.643	54.95
347.855	-20.82
348.067	28.33
348.279	24.23
348.491	77.48
348.703	61.1
348.915	-2.39
349.127	-12.63
349.339	1.71
349.551	-14.68
349.763	79.53
349.975	59.05
350.187	61.1
350.399	48.81
350.61	36.52
350.822	46.76
351.034	67.24
351.246	13.99
351.458	-10.58
351.669	7.85
351.881	97.96
352.093	81.58
352.305	-4.44
352.517	36.52
352.728	18.09
352.94	11.95
353.152	61.1
353.363	-22.87
353.575	-4.44
353.787	18.09
353.999	50.86
354.21	50.86
354.422	-51.54
354.633	89.77
354.845	42.67
355.057	85.67
355.268	83.63
355.48	-29.01
355.692	69.29
355.903	20.14
356.115	-16.73
356.326	42.67
356.538	-35.16
356.749	24.23
356.961	77.48
357.172	-49.49
357.384	34.47
357.595	67.24
357.807	75.43
358.018	-0.34
358.23	36.52
358.441	20.14
358.653	73.39
358.864	57
359.075	28.33
359.287	69.29
359.498	48.81
359.709	91.82
359.921	13.99
360.132	-29.01
360.344	63.15
360.555	-10.58
360.766	81.58
360.977	36.52
361.189	50.86
361.4	30.38
361.611	7.85
361.823	48.81
362.034	46.76
362.245	-29.01
362.456	36.52
362.667	16.04
362.879	11.95
363.09	7.85
363.301	20.14
363.512	38.57
363.723	69.29
363.935	54.95
364.146	50.86
364.357	-18.77
364.568	38.57
364.779	28.33
364.99	81.58
365.201	44.71
365.412	44.71
365.623	44.71
365.834	-16.73
366.045	24.23
366.256	-6.49
366.467	65.19
366.678	71.34
366.889	28.33
367.1	-14.68
367.311	1.71
367.522	-14.68
367.733	79.53
367.944	7.85
368.155	63.15
368.366	9.9
368.577	67.24
368.788	73.39
368.999	11.95
369.209	7.85
369.42	85.67
369.631	48.81
369.842	108.2
370.053	77.48
370.264	59.05
370.474	38.57
370.685	11.95
370.896	32.43
371.107	20.14
371.317	34.47
371.528	30.38
371.739	83.63
371.95	-2.39
372.16	30.38
372.371	108.2
372.582	20.14
372.792	93.87
373.003	57
373.214	32.43
373.424	-20.82
373.635	69.29
373.846	126.63
374.056	7.85
374.267	71.34
374.477	118.44
374.688	3.75
374.898	69.29
375.109	1.71
375.319	42.67
375.53	75.43
375.74	91.82
375.951	52.91
376.161	30.38
376.372	54.95
376.582	16.04
376.793	100.01
377.003	-24.92
377.214	36.52
377.424	120.49
377.635	71.34
377.845	95.91
378.055	-14.68
378.266	7.85
378.476	65.19
378.686	65.19
378.897	-2.39
379.107	59.05
379.317	91.82
379.528	11.95
379.738	36.52
379.948	5.8
380.158	65.19
380.369	-26.96
380.579	-0.34
380.789	5.8
380.999	-43.35
381.21	5.8
381.42	65.19
381.63	46.76
381.84	42.67
382.05	71.34
382.261	16.04
382.471	77.48
382.681	61.1
382.891	93.87
383.101	20.14
383.311	67.24
383.521	3.75
383.731	11.95
383.941	44.71
384.151	65.19
384.361	16.04
384.571	48.81
384.781	44.71
384.991	46.76
385.201	-16.73
385.411	28.33
385.621	28.33
385.831	34.47
386.041	69.29
386.251	52.91
386.461	130.73
386.671	69.29
386.881	73.39
387.091	81.58
387.301	16.04
387.511	-12.63
387.72	100.01
387.93	20.14
388.14	24.23
388.35	89.77
388.56	67.24
388.769	63.15
388.979	54.95
389.189	48.81
389.399	11.95
389.609	-10.58
389.818	28.33
390.028	32.43
390.238	36.52
390.447	-51.54
390.657	69.29
390.867	42.67
391.076	85.67
391.286	-45.4
391.496	136.87
391.705	40.62
391.915	87.72
392.125	26.28
392.334	87.72
392.544	110.25
392.753	159.4
392.963	59.05
393.172	7.85
393.382	36.52
393.591	44.71
393.801	100.01
394.01	85.67
394.22	136.87
394.429	36.52
394.639	48.81
394.848	112.3
395.058	116.39
395.267	102.06
395.477	106.15
395.686	85.67
395.895	85.67
396.105	89.77
396.314	-18.77
396.524	20.14
396.733	71.34
396.942	11.95
397.152	110.25
397.361	-39.25
397.57	83.63
397.78	54.95
397.989	85.67
398.198	143.02
398.407	126.63
398.617	44.71
398.826	81.58
399.035	28.33
399.244	36.52
399.453	38.57
399.663	69.29
399.872	173.74
400.081	85.67
400.29	95.91
400.499	38.57
400.708	128.68
400.917	77.48
401.127	186.02
401.336	143.02
401.545	87.72
401.754	134.82
401.963	183.98
402.172	173.74
402.381	44.71
402.59	175.78
402.799	71.34
403.008	202.41
403.217	110.25
403.426	44.71
403.635	126.63
403.844	175.78
404.053	202.41
404.262	93.87
404.471	157.35
404.68	175.78
404.888	112.3
405.097	151.21
405.306	175.78
405.515	153.26
405.724	138.92
405.933	204.46
406.142	200.36
406.35	192.17
406.559	194.22
406.768	208.55
406.977	249.51
407.185	274.09
407.394	229.03
407.603	194.22
407.812	206.5
408.02	226.98
408.229	345.77
408.438	196.26
408.646	245.41
408.855	190.12
409.064	304.81
409.272	282.28
409.481	274.09
409.69	255.65
409.898	267.94
410.107	290.47
410.315	368.29
410.524	411.3
410.733	356.01
410.941	374.44
411.15	392.87
411.358	323.24
411.567	532.13
411.775	403.11
411.984	437.92
412.192	478.88
412.401	487.08
412.609	487.08
412.818	517.79
413.026	585.38
413.234	503.46
413.443	620.19
413.651	620.19
413.86	614.05
414.068	636.58
414.276	700.06
414.485	757.41
414.693	720.54
414.901	804.51
415.11	800.41
415.318	771.74
415.526	804.51
415.734	841.37
415.943	831.13
416.151	929.44
416.359	951.96
416.567	970.4
416.776	962.2
416.984	1037.98
417.192	1011.36
417.4	1085.08
417.608	984.73
417.817	1134.23
418.025	1146.52
418.233	1281.69
418.441	1343.13
418.649	1332.89
418.857	1414.81
419.065	1488.53
419.273	1472.15
419.481	1517.2
419.689	1619.6
419.897	1674.9
420.105	1769.1
420.313	1685.14
420.521	1797.78
420.729	1810.06
420.937	1867.41
421.145	2031.24
421.353	2002.57
421.561	2057.87
421.769	2227.85
421.977	2307.72
422.185	2346.63
422.393	2360.97
422.601	2600.58
422.809	2451.08
423.017	2567.81
423.224	2727.55
423.432	2682.5
423.64	2692.74
423.848	3001.98
424.056	2850.43
424.263	3288.7
424.471	3124.86
424.679	3157.63
424.887	3423.86
425.094	3450.49
425.302	3554.93
425.51	3573.36
425.718	3862.13
425.925	3747.44
426.133	3968.62
426.341	4148.84
426.548	4357.74
426.756	4284.01
426.964	4568.68
427.171	4712.03
427.379	4812.39
427.586	4820.58
427.794	5011.04
428.001	5287.51
428.209	5477.98
428.417	5412.44
428.624	5754.45
428.832	5811.79
429.039	5512.79
429.247	5600.85
429.454	6358.6
429.662	6647.37
429.869	6387.27
430.076	6739.52
430.284	6684.23
430.491	6880.83
430.699	7245.37
430.906	6975.04
431.114	7263.8
431.321	7575.1
431.528	7937.59
431.736	8171.05
431.943	8597.03
432.15	8345.13
432.358	8293.93
432.565	8990.24
432.772	8904.23
432.979	9426.46
433.187	9395.74
433.394	9516.57
433.601	10386.96
433.808	10169.87
434.016	10290.7
434.223	10638.86
434.43	11234.82
434.637	10927.62
434.844	11488.76
435.052	11793.91
435.259	11802.1
435.466	11773.43
435.673	11908.6
435.88	12408.3
436.087	13231.58
436.294	13118.95
436.501	13065.7
436.708	13319.65
436.915	13700.57
437.122	14290.38
437.329	14108.12
437.537	14616.01
437.743	14964.17
437.95	14644.68
438.157	15603.13
438.364	15904.18
438.571	16135.6
438.778	16043.45
438.985	17720.73
439.192	16643.5
439.399	17198.5
439.606	16876.97
439.813	17984.92
440.02	19010.95
440.227	18714
440.433	18791.82
440.64	18963.85
440.847	18988.42
441.054	19254.66
441.261	20716.91
441.467	20352.37
441.674	21198.18
441.881	21720.42
442.088	21597.54
442.294	21402.98
442.501	21783.9
442.708	22351.19
442.914	23381.32
443.121	24343.86
443.328	23682.37
443.534	25146.67
443.741	24665.39
443.948	24087.87
444.154	26098.97
444.361	25939.23
444.568	25931.04
444.774	26039.58
444.981	26170.65
445.187	27161.87
445.394	28308.73
445.6	27952.38
445.807	30330.08
446.013	28986.61
446.22	30020.83
446.426	31089.87
446.633	31298.77
446.839	32097.47
447.046	30735.57
447.252	32947.38
447.459	32658.62
447.665	32265.41
447.871	33698.98
448.078	35249.3
448.284	33565.87
448.491	34567.32
448.697	35734.67
448.903	36383.87
449.11	36525.18
449.316	35904.65
449.522	36252.8
449.728	37467.25
449.935	37948.52
450.141	37778.54
450.347	38552.67
450.553	37620.84
450.76	37995.62
450.966	39179.35
451.172	38483.04
451.378	39658.57
451.584	38526.05
451.791	39640.14
451.997	39636.05
452.203	40475.71
452.409	40156.23
452.615	39844.94
452.821	38386.78
453.027	37776.49
453.233	40215.62
453.44	38571.1
453.646	38687.84
453.852	38952.02
454.058	39296.08
454.264	38311.01
454.47	39302.23
454.676	38085.73
454.882	39650.38
455.088	36297.86
455.294	36635.77
455.5	37000.31
455.705	37307.51
455.911	35990.66
456.117	35179.67
456.323	34827.42
456.529	32871.61
456.735	34653.34
456.941	33641.64
457.147	33045.68
457.352	31929.54
457.558	31902.92
457.764	31669.45
457.97	30907.6
458.176	30510.3
458.381	30487.77
458.587	29072.62
458.793	29082.86
458.999	27815.17
459.204	29506.79
459.41	28935.41
459.616	26940.69
459.821	26819.86
460.027	26596.63
460.233	26375.45
460.438	25017.64
460.644	25136.43
460.85	23944.51
461.055	23354.69
461.261	23854.4
461.466	21589.35
461.672	21263.72
461.878	22879.57
462.083	21253.48
462.289	20839.79
462.494	20764.01
462.7	19580.29
462.905	19195.27
463.111	19881.34
463.316	19959.16
463.522	19903.87
463.727	19436.93
463.932	19467.65
464.138	19475.84
464.343	19621.25
464.549	18918.79
464.754	19334.53
464.959	19494.27
465.165	19010.95
465.37	18242.96
465.575	17907.1
465.781	18867.59
465.986	18750.86
466.191	17999.26
466.397	17737.12
466.602	16756.14
466.807	17417.63
467.012	17620.38
467.218	17425.82
467.423	17188.26
467.628	17302.95
467.833	18175.38
468.038	17323.43
468.244	16680.36
468.449	17415.58
468.654	16782.76
468.859	17153.44
469.064	16864.68
469.269	16164.28
469.474	16041.4
469.679	16217.52
469.885	15979.96
470.09	16221.62
470.295	16108.98
470.5	15697.34
470.705	15777.21
470.91	15795.64
471.115	15435.2
471.32	15617.47
471.525	15476.16
471.73	15007.17
471.935	15136.2
472.139	14495.18
472.344	14781.9
472.549	14654.92
472.754	14194.13
472.959	14206.42
473.164	13968.85
473.369	13807.06
473.574	14306.77
473.778	14093.78
473.983	13899.22
474.188	13929.94
474.393	13305.31
474.598	13297.12
474.802	13073.89
475.007	12899.81
475.212	13018.6
475.417	12520.94
475.621	12674.54
475.826	12496.36
476.031	12428.78
476.235	12090.87
476.44	12314.09
476.645	12103.15
476.849	11871.73
477.054	12056.05
477.259	11869.69
477.463	11867.64
477.668	11230.72
477.872	11619.83
478.077	11300.35
478.282	11122.18
478.486	10935.81
478.691	10860.04
478.895	10964.48
479.1	10767.88
479.304	10978.82
479.509	10599.94
479.713	10919.43
479.918	10601.99
480.122	10305.04
480.326	10522.12
480.531	10634.76
480.735	10417.68
480.94	10513.93
481.144	10620.42
481.348	10231.31
481.553	10284.56
481.757	10243.6
481.961	10092.05
482.166	10358.28
482.37	10272.27
482.574	9973.27
482.778	10051.09
482.983	10243.6
483.187	10247.69
483.391	10335.76
483.595	10096.14
483.8	9893.4
484.004	9983.51
484.208	10413.58
484.412	10049.04
484.616	10417.68
484.821	10001.94
485.025	9795.09
485.229	10266.13
485.433	9952.79
485.637	10212.88
485.841	9883.16
486.045	10042.9
486.249	9981.46
486.453	9924.12
486.657	10079.76
486.861	10176.02
487.065	9944.59
487.269	10065.43
487.473	10028.56
487.677	10268.17
487.881	10266.13
488.085	10100.24
488.289	10290.7
488.493	10008.08
488.697	10268.17
488.901	10053.14
489.105	10276.37
489.309	10135.06
489.512	10106.38
489.716	10071.57
489.92	10235.41
490.124	10186.26
490.328	10423.82
490.531	10221.07
490.735	10315.28
490.939	10421.77
491.143	10268.17
491.346	10249.74
491.55	10255.89
491.754	10548.75
491.958	10688.01
492.161	10446.35
492.365	10628.62
492.569	10432.01
492.772	10550.79
492.976	10692.1
493.18	10663.43
493.383	11052.55
493.587	11056.64
493.79	10851.85
493.994	10941.96
494.197	11044.35
494.401	11128.32
494.605	11068.93
494.808	11228.67
495.012	11267.58
495.215	11302.4
495.419	11386.36
495.622	11400.7
495.825	11720.18
496.029	11611.64
496.232	11898.36
496.436	12088.82
496.639	12086.77
496.843	12254.7
497.046	12246.51
497.249	12365.29
497.453	12762.6
497.656	12662.25
497.859	12719.59
498.063	12865
498.266	13211.11
498.469	13172.19
498.673	13073.89
498.876	13536.73
499.079	13338.08
499.282	13413.85
499.485	13757.91
499.689	14001.62
499.892	14317.01
500.095	14253.52
500.298	14556.62
500.501	14513.61
500.705	14785.99
500.908	14953.93
501.111	15089.09
501.314	15453.63
501.517	15558.08
501.72	15406.53
501.923	15633.85
502.126	15975.86
502.329	16252.34
502.532	16463.28
502.735	16491.95
502.938	16522.67
503.141	16700.84
503.344	17030.57
503.547	17053.09
503.75	17438.11
503.953	17839.51
504.156	17612.19
504.359	17843.61
504.562	18220.44
504.765	18396.56
504.968	18759.05
505.17	18761.1
505.373	18607.5
505.576	19391.87
505.779	19402.11
505.982	19811.71
506.185	20141.43
506.387	19887.48
506.59	20465.01
506.793	20505.97
506.996	20671.86
507.198	21138.79
507.401	21001.58
507.604	21251.43
507.807	21812.57
508.009	21828.96
508.212	21820.77
508.415	22150.49
508.617	22340.95
508.82	22707.54
509.022	22414.68
509.225	23272.78
509.428	23461.19
509.63	23698.75
509.833	24032.57
510.035	24417.59
510.238	24302.9
510.44	24530.23
510.643	25138.48
510.845	25425.19
511.048	25290.02
511.25	25664.8
511.453	25695.52
511.655	26729.75
511.858	26422.55
512.06	26576.15
512.262	27208.97
512.465	27274.51
512.667	27585.8
512.87	28054.78
513.072	27960.58
513.274	28505.34
513.477	28665.08
513.679	29025.52
513.881	29224.17
514.084	29646.05
514.286	29617.38
514.488	29920.48
514.69	30627.03
514.893	30694.61
515.095	30852.31
515.297	31257.81
515.499	31452.36
515.701	31812.81
515.904	32230.59
516.106	32048.32
516.308	32701.62
516.51	33316.01
516.712	33283.25
516.914	33514.67
517.116	34141.35
517.318	34143.39
517.52	34327.71
517.722	34536.6
517.925	35064.98
518.127	35306.64
518.329	35824.78
518.531	35705.99
518.733	36433.02
518.935	36725.88
519.136	36613.24
519.338	36947.06
519.54	37557.36
519.742	37831.79
519.944	37760.11
520.146	38612.06
520.348	38681.69
520.55	38579.29
520.752	38892.63
520.954	39623.76
521.155	39894.09
521.357	40117.32
521.559	40678.46
521.761	41204.79
521.963	41417.78
522.164	40934.46
522.366	41780.27
522.568	41804.84
522.77	41780.27
522.971	42370.08
523.173	42329.12
523.375	42886.17
523.576	42959.9
523.778	42744.86
523.98	43633.68
524.181	43787.28
524.383	43709.46
524.584	44438.53
524.786	44377.09
524.988	44164.1
525.189	44856.32
525.391	45018.11
525.592	44999.68
525.794	45243.38
525.995	45794.29
526.197	45446.13
526.398	45374.45
526.6	45845.49
526.801	46273.51
527.003	46414.82
527.204	46824.42
527.406	47074.27
527.607	47064.03
527.808	47438.81
528.01	46539.75
528.211	46832.61
528.412	48045.01
528.614	47424.47
528.815	47852.5
529.016	48452.55
529.218	47930.32
529.419	48055.25
529.62	47954.89
529.822	47795.15
530.023	47852.5
530.224	47924.18
530.425	48165.84
530.626	48466.89
530.828	48163.79
531.029	48884.67
531.23	48614.34
531.431	48192.46
531.632	48718.79
531.833	49185.72
532.035	48583.62
532.236	48649.16
532.437	49296.31
532.638	48815.04
532.839	49171.39
533.04	48982.98
533.241	48708.55
533.442	49734.58
533.643	49193.92
533.844	49367.99
534.045	49159.1
534.246	48819.14
534.447	49683.38
534.648	49204.16
534.849	49933.23
535.05	49142.72
535.251	49585.08
535.451	49122.24
535.652	49478.58
535.853	49435.58
536.054	49198.01
536.255	49574.84
536.456	48839.62
536.657	49613.75
536.857	49302.46
537.058	49406.9
537.259	49650.61
537.46	49302.46
537.66	49187.77
537.861	49408.95
538.062	49054.65
538.263	49591.22
538.463	49132.48
538.664	49093.57
538.865	49347.51
539.065	49701.81
539.266	49189.82
539.466	49746.87
539.667	48882.62
539.868	49796.02
540.068	48931.78
540.269	49241.02
540.469	49044.41
540.67	49206.2
540.87	49116.09
541.071	49093.57
541.271	49408.95
541.472	48931.78
541.672	48911.3
541.873	49384.38
542.073	48755.65
542.274	49421.24
542.474	49130.43
542.675	48708.55
542.875	49595.32
543.075	49167.29
543.276	49136.57
543.476	49458.1
543.676	49241.02
543.877	49415.1
544.077	49464.25
544.277	48921.54
544.478	49015.74
544.678	49392.57
544.878	49050.56
545.078	48991.17
545.279	48995.26
545.479	48726.98
545.679	49564.6
545.879	48776.13
546.079	49361.85
546.28	48395.21
546.48	48706.5
546.68	49023.93
546.88	49259.45
547.08	49232.83
547.28	49058.75
547.48	48573.38
547.68	49005.5
547.88	48450.5
548.081	49234.88
548.281	48806.85
548.481	48499.65
548.681	49009.6
548.881	48802.75
549.081	48995.26
549.28	48665.54
549.48	48794.56
549.68	48559.05
549.88	49398.71
550.08	48208.84
550.28	48788.42
550.48	48430.02
550.68	48825.28
550.88	48890.82
551.08	48114.64
551.279	48829.38
551.479	48454.6
551.679	48708.55
551.879	48188.36
552.079	48946.11
552.278	48542.66
552.478	48772.03
552.678	48683.97
552.878	48645.06
553.077	48520.13
553.277	47713.23
553.477	49028.03
553.676	48368.58
553.876	48135.12
554.076	47932.37
554.275	48368.58
554.475	47834.06
554.674	48415.69
554.874	48352.2
555.074	48229.32
555.273	48262.09
555.473	48282.57
555.672	47696.85
555.872	47975.37
556.071	47858.64
556.271	48153.55
556.47	47535.06
556.67	47590.36
556.869	47600.6
557.068	47971.28
557.268	47342.55
557.467	47571.92
557.667	47203.29
557.866	47825.87
558.065	47473.62
558.265	47289.31
558.464	47203.29
558.663	47936.46
558.863	46961.63
559.062	47793.11
559.261	47137.76
559.461	47291.35
559.66	47031.26
559.859	47086.56
560.058	46752.74
560.258	47029.21
560.457	46390.25
560.656	47006.69
560.855	46656.48
561.054	47150.04
561.253	46283.75
561.453	46642.15
561.652	46726.11
561.851	46599.14
562.05	46578.66
562.249	46128.11
562.448	46384.1
562.647	46394.34
562.846	45992.94
563.045	46326.76
563.244	45986.8
563.443	46433.25
563.642	45659.12
563.841	46001.13
564.04	45472.76
564.239	46119.91
564.438	45564.92
564.637	45595.63
564.836	45241.34
565.035	45347.83
565.234	45890.54
565.432	45020.16
565.631	45081.59
565.83	45509.62
566.029	45138.94
566.228	45005.82
566.427	44710.91
566.625	44712.96
566.824	44786.69
567.023	44717.06
567.222	44078.09
567.42	45112.31
567.619	44248.07
567.818	44506.12
568.016	44418.05
568.215	44530.69
568.414	44590.08
568.612	44196.87
568.811	44235.78
569.01	43934.73
569.208	43693.07
569.407	43865.1
569.605	43396.12
569.804	43908.11
570.002	43324.44
570.201	43621.39
570.4	43318.29
570.598	42900.51
570.797	43144.22
570.995	42701.86
571.193	42800.16
571.392	42738.72
571.59	42886.17
571.789	42617.89
571.987	42722.33
572.186	42576.93
572.384	42148.9
572.582	42263.59
572.781	42609.7
572.979	41921.58
573.177	41892.91
573.376	42345.51
573.574	41696.3
573.772	41798.7
573.971	41374.77
574.169	41530.42
574.367	40969.27
574.565	41407.54
574.763	41407.54
574.962	41049.14
575.16	41126.97
575.358	40752.19
575.556	40481.86
575.754	40860.73
575.952	40258.63
576.151	40791.1
576.349	39871.56
576.547	40221.76
576.745	40285.25
576.943	39988.3
577.141	40094.79
577.339	40338.5
577.537	40137.8
577.735	39984.2
577.933	39302.23
578.131	39781.45
578.329	39519.31
578.527	39079
578.725	39171.16
578.923	39087.19
579.121	39087.19
579.319	38515.81
579.516	39259.22
579.714	38827.1
579.912	38655.07
580.11	38288.48
580.308	38542.43
580.506	38480.99
580.704	37864.55
580.901	38319.2
581.099	38757.47
581.297	37844.07
581.495	37583.98
581.692	37819.5
581.89	37512.3
582.088	37751.91
582.285	36830.33
582.483	37366.9
582.681	37735.53
582.878	37053.56
583.076	36904.06
583.274	37149.81
583.471	36572.28
583.669	36912.25
583.866	36633.72
584.064	36846.71
584.262	36422.78
584.459	36807.8
584.657	36117.64
584.854	36492.41
585.052	35613.84
585.249	36009.09
585.447	36111.49
585.644	35484.81
585.841	35511.44
586.039	36258.95
586.236	35669.13
586.434	35239.06
586.631	35138.71
586.828	35601.55
587.026	35345.55
587.223	35363.98
587.42	35081.36
587.618	35060.88
587.815	34800.79
588.012	34540.7
588.21	34579.61
588.407	34864.28
588.604	34438.3
588.801	34186.4
588.999	34313.38
589.196	34294.94
589.393	34233.5
589.59	33668.26
589.787	33356.97
589.984	33774.76
590.182	33279.15
590.379	33848.49
590.576	33592.49
590.773	33250.48
590.97	32947.38
591.167	33119.41
591.364	32787.64
591.561	33078.45
591.758	32650.42
591.955	32885.94
592.152	33148.08
592.349	32449.72
592.546	32779.45
592.743	32724.15
592.94	32419
593.137	32388.28
593.334	32638.14
593.531	31931.59
593.727	32117.95
593.924	32064.71
594.121	31921.35
594.318	31845.57
594.515	31562.95
594.712	31392.97
594.908	31534.28
595.105	31392.97
595.302	30938.32
595.499	31040.72
595.696	31044.82
595.892	31016.15
596.089	31390.92
596.286	31085.78
596.482	30813.4
596.679	31069.39
596.876	30948.56
597.072	30459.1
597.269	30301.4
597.466	29990.11
597.662	30426.33
597.859	29977.83
598.055	30182.62
598.252	29627.62
598.448	30024.93
598.645	29644.01
598.841	29527.27
599.038	29633.77
599.234	29433.07
599.431	29420.78
599.627	29314.28
599.824	29379.82
600.02	29093.1
600.217	29232.36
600.413	29121.77
600.609	28964.08
600.806	29031.66
601.002	28742.9
601.198	28513.53
601.395	28548.34
601.591	28515.58
601.787	28468.47
601.984	28374.27
602.18	28640.5
602.376	28128.51
602.572	28247.29
602.769	28144.89
602.965	27630.85
603.161	27827.46
603.357	27634.95
603.553	27870.47
603.75	27475.21
603.946	27366.67
604.142	27520.26
604.338	27122.96
604.534	27512.07
604.73	27153.68
604.926	27061.52
605.122	27270.41
605.318	26541.33
605.514	26823.95
605.71	26596.63
605.906	26596.63
606.102	26703.12
606.298	26754.32
606.494	26119.45
606.69	26504.47
606.886	26488.09
607.082	26039.58
607.278	26144.03
607.474	25883.94
607.67	26072.35
607.866	25675.04
608.062	26283.29
608.257	25672.99
608.453	26062.11
608.649	25734.43
608.845	25371.94
609.041	25808.16
609.236	25621.8
609.432	25216.3
609.628	25187.63
609.824	25400.62
610.019	25273.64
610.215	25124.14
610.411	25222.44
610.606	24935.73
610.802	24862
610.998	24767.79
611.193	25181.48
611.389	24823.09
611.584	24632.63
611.78	24620.34
611.976	24661.3
612.171	24372.53
612.367	24491.32
612.562	24194.36
612.758	24239.42
612.953	24272.18
613.149	24417.59
613.344	24026.43
613.539	24300.86
613.735	24298.81
613.93	24251.7
614.126	23684.42
614.321	24089.92
614.517	24208.7
614.712	23625.03
614.907	23653.7
615.103	23647.55
615.298	23645.51
615.493	23792.96
615.688	23422.28
615.884	23864.64
616.079	23293.26
616.274	23334.21
616.47	23453
616.665	23577.92
616.86	22928.72
617.055	23246.15
617.25	23096.65
617.445	23446.85
617.641	22678.86
617.836	22723.92
618.031	22777.17
618.226	22814.03
618.421	22814.03
618.616	22670.67
618.811	22363.48
619.006	22549.84
619.201	22213.98
619.396	22461.78
619.591	21980.51
619.786	22402.39
619.981	21992.8
620.176	22130.01
620.371	21321.06
620.566	21615.97
620.761	21654.88
620.956	21572.96
621.151	21278.05
621.346	21491.04
621.541	21155.18
621.735	21153.13
621.93	20536.69
622.125	20843.88
622.32	20407.67
622.515	20929.9
622.709	20632.94
622.904	20548.98
623.099	20096.38
623.294	20417.91
623.488	20192.63
623.683	20079.99
623.878	19748.22
624.072	19959.16
624.267	19694.97
624.462	19508.61
624.656	19447.17
624.851	19473.79
625.046	19518.85
625.24	19287.43
625.435	18879.88
625.629	19025.29
625.824	18681.23
626.018	18718.09
626.213	18652.56
626.407	18838.92
626.602	18406.8
626.796	18441.62
626.991	18433.43
627.185	18218.39
627.38	18257.3
627.574	17784.22
627.768	17966.49
627.963	17894.81
628.157	17544.61
628.352	18003.35
628.546	17421.73
628.74	17298.85
628.935	17755.55
629.129	17634.72
629.323	17284.51
629.517	17067.43
629.712	16971.18
629.906	16977.32
630.1	16754.09
630.294	16704.94
630.489	16608.69
630.683	16522.67
630.877	16385.46
631.071	16240.05
631.265	16530.86
631.459	16285.11
631.653	16043.45
631.848	16029.11
632.042	16016.82
632.236	15867.32
632.43	15945.14
632.624	15787.45
632.818	15539.65
633.012	15541.69
633.206	15728.06
633.4	15588.8
633.594	15336.9
633.788	15388.1
633.982	15338.94
634.176	15201.73
634.369	15023.56
634.563	15050.18
634.757	14937.54
634.951	15093.19
635.145	14761.42
635.339	14712.27
635.533	14560.72
635.726	14497.23
635.92	14374.35
636.114	14407.12
636.308	14212.56
636.501	14093.78
636.695	14222.8
636.889	14065.11
637.083	14005.72
637.276	13790.68
637.47	13798.87
637.664	13706.71
637.857	13780.44
638.051	13819.35
638.244	13516.25
638.438	13794.78
638.632	13477.34
638.825	13311.46
639.019	13254.11
639.212	13274.59
639.406	13176.29
639.599	13145.57
639.793	13016.55
639.986	12908.01
640.18	13006.31
640.373	12809.7
640.567	12592.62
640.76	12584.43
640.954	12574.19
641.147	12342.77
641.34	12537.32
641.534	12527.08
641.727	12357.1
641.92	12242.42
642.114	12211.7
642.307	12019.19
642.5	12025.33
642.694	11927.03
642.887	11939.32
643.08	11996.66
643.273	11693.56
643.467	11898.36
643.66	11744.76
643.853	11660.79
644.046	11314.69
644.239	11490.81
644.432	11365.89
644.626	11243.01
644.819	11501.05
645.012	11261.44
645.205	11083.27
645.398	11054.59
645.591	11001.35
645.784	10923.52
645.977	10935.81
646.17	10956.29
646.363	10847.75
646.556	10636.81
646.749	10542.6
646.942	10663.43
647.135	10688.01
647.328	10415.63
647.521	10575.37
647.714	10118.67
647.907	10337.8
648.099	10221.07
648.292	10210.83
648.485	10165.78
648.678	9831.96
648.871	9872.92
649.064	10022.42
649.256	9944.59
649.449	9813.52
649.642	9870.87
649.835	9655.83
650.027	9631.26
650.22	9541.15
650.413	9514.52
650.605	9326.11
650.798	9385.5
650.991	9215.52
651.183	9379.36
651.376	9139.74
651.568	9240.09
651.761	9047.58
651.954	9233.95
652.146	9098.78
652.339	8984.1
652.531	8949.28
652.724	8900.13
652.916	8762.92
653.109	8814.12
653.301	8670.76
653.494	8705.57
653.686	8523.3
653.879	8824.36
654.071	8633.89
654.263	8486.44
654.456	8500.78
654.648	8371.75
654.84	8427.05
655.033	8257.07
655.225	8494.63
655.417	8304.17
655.61	8179.25
655.802	8246.83
655.994	8011.31
656.186	8103.47
656.379	7843.38
656.571	8207.92
656.763	7913.01
656.955	7867.95
657.148	7919.15
657.34	7794.23
657.532	7620.15
657.724	7591.48
657.916	7636.53
658.108	7855.67
658.3	7616.05
658.492	7550.52
658.684	7321.15
658.876	7257.66
659.068	7429.69
659.26	7388.73
659.452	7231.04
659.644	7226.94
659.836	7233.08
660.028	7196.22
660.22	7059.01
660.412	7106.11
660.604	6944.32
660.796	7065.15
660.988	6970.94
661.18	7079.49
661.372	6712.9
661.563	6919.75
661.755	6729.28
661.947	6727.24
662.139	6764.1
662.331	6587.97
662.522	6585.93
662.714	6569.54
662.906	6549.06
663.097	6483.53
663.289	6458.95
663.481	6501.96
663.673	6671.94
663.864	6286.92
664.056	6319.69
664.247	6616.65
664.439	6053.45
664.631	6209.1
664.822	6108.75
665.014	6239.82
665.205	6098.51
665.397	6080.08
665.588	6024.78
665.78	5926.48
665.971	6004.3
666.163	5971.54
666.354	5975.63
666.546	5926.48
666.737	5901.9
666.929	5846.61
667.12	5836.37
667.311	5686.87
667.503	5776.98
667.694	5742.16
667.885	5398.1
668.077	5582.42
668.268	5701.2
668.459	5547.61
668.651	5699.16
668.842	5531.22
669.033	5396.06
669.224	5535.32
669.416	5404.25
669.607	5262.94
669.798	5281.37
669.989	5389.91
670.18	5267.03
670.371	5217.88
670.563	5254.75
670.754	5140.06
670.945	5201.5
671.136	5267.03
671.327	5144.16
671.518	5217.88
671.709	5176.92
671.9	5099.1
672.091	5062.24
672.282	5135.96
672.473	4812.39
672.664	5160.54
672.855	4882.02
673.046	5000.8
673.237	4896.35
673.428	4920.93
673.619	4783.71
673.809	4904.54
674	4822.63
674.191	4937.31
674.382	4873.82
674.573	4714.08
674.764	4734.56
674.954	4855.39
675.145	4808.29
675.336	4740.71
675.527	4628.07
675.717	4712.03
675.908	4570.72
676.099	4519.53
676.289	4550.25
676.48	4525.67
676.671	4486.76
676.861	4609.64
677.052	4494.95
677.243	4441.7
677.433	4501.09
677.624	4525.67
677.814	4384.36
678.005	4345.45
678.195	4365.93
678.386	4298.35
678.576	4212.33
678.767	4300.39
678.957	4142.7
679.148	4333.16
679.338	4298.35
679.529	4300.39
679.719	4161.13
679.909	4286.06
680.1	4136.56
680.29	4214.38
680.481	4126.32
680.671	4214.38
680.861	3956.33
681.052	3993.2
681.242	4028.01
681.432	4208.23
681.622	4030.06
681.813	3923.57
682.003	4163.18
682.193	3985.01
682.383	4068.97
682.573	4099.69
682.764	4003.44
682.954	3919.47
683.144	3886.7
683.334	4034.16
683.524	3911.28
683.714	3884.66
683.904	3888.75
684.094	3903.09
684.284	3921.52
684.474	3913.33
684.664	3829.36
684.854	3792.5
685.044	3886.7
685.234	3817.07
685.424	3761.78
685.614	3837.55
685.804	3796.59
685.994	3946.09
686.184	3780.21
686.374	3706.48
686.564	3634.8
686.753	3767.92
686.943	3634.8
687.133	3810.93
687.323	3653.23
687.513	3624.56
687.702	3563.12
687.892	3657.33
688.082	3530.36
688.272	3532.4
688.461	3630.71
688.651	3645.04
688.841	3522.16
689.03	3546.74
689.22	3692.15
689.41	3427.96
689.599	3436.15
689.789	3454.58
689.979	3333.75
690.168	3495.54
690.358	3387
690.547	3489.4
690.737	3378.81
690.926	3468.92
691.116	3370.62
691.305	3475.06
691.495	3280.5
691.684	3335.8
691.874	3374.71
692.063	3395.19
692.252	3401.33
692.442	3452.53
692.631	3260.02
692.82	3341.94
693.01	3309.18
693.199	3403.38
693.388	3323.51
693.578	3303.03
693.767	3333.75
693.956	3288.7
694.146	3362.42
694.335	3210.87
694.524	3260.02
694.713	3288.7
694.902	3296.89
695.092	3231.35
695.281	3231.35
695.47	3286.65
695.659	3266.17
695.848	3161.72
696.037	3235.45
696.226	3268.22
696.415	3298.94
696.604	3296.89
696.793	3270.26
696.982	3280.5
697.171	3122.81
697.36	3157.63
697.549	3083.9
697.738	3235.45
697.927	3133.05
698.116	3337.85
698.305	3206.78
698.494	3184.25
698.683	3124.86
698.872	3143.29
699.061	3157.63
699.25	3022.46
699.438	3122.81
699.627	3122.81
699.816	2987.65
700.005	3059.32
700.193	3106.43
700.382	3133.05
700.571	3063.42
700.76	3124.86
700.948	3098.24
701.137	3024.51
701.326	3128.95
701.514	3120.76
701.703	3100.28
701.892	2946.69
702.08	2948.73
702.269	3018.36
702.457	2987.65
702.646	2969.21
702.834	3083.9
703.023	3004.03
703.212	2862.72
703.4	2954.88
703.589	2995.84
703.777	2975.36
703.965	2850.43
704.154	3018.36
704.342	2897.53
704.531	2971.26
704.719	2803.33
704.907	2920.06
705.096	2868.86
705.284	2840.19
705.472	2864.77
705.661	2858.62
705.849	2903.68
706.037	2715.27
706.226	2778.75
706.414	2829.95
706.602	2731.65
706.79	2819.71
706.979	2829.95
707.167	2748.03
707.355	2829.95
707.543	2832
707.731	2791.04
707.919	2711.17
708.107	2633.35
708.296	2676.35
708.484	2690.69
708.672	2778.75
708.86	2711.17
709.048	2676.35
709.236	2766.46
709.424	2641.54
709.612	2633.35
709.8	2616.96
709.988	2485.89
710.176	2514.56
710.364	2653.83
710.551	2659.97
710.739	2600.58
710.927	2559.62
711.115	2543.24
711.303	2479.75
711.491	2522.76
711.679	2518.66
711.866	2535.04
712.054	2614.91
712.242	2506.37
712.43	2553.48
712.617	2428.55
712.805	2453.13
712.993	2422.41
713.181	2399.88
713.368	2479.75
713.556	2516.61
713.744	2489.99
713.931	2451.08
714.119	2414.21
714.306	2379.4
714.494	2408.07
714.682	2365.06
714.869	2373.25
715.057	2285.19
715.244	2307.72
715.432	2334.34
715.619	2295.43
715.807	2250.38
715.994	2344.58
716.182	2240.14
716.369	2244.23
716.556	2461.32
716.744	2238.09
716.931	2246.28
717.119	2219.66
717.306	2158.22
717.493	2254.47
717.681	2170.51
717.868	2254.47
718.055	2250.38
718.242	2223.75
718.43	2190.99
718.617	2176.65
718.804	2174.6
718.991	2176.65
719.179	2246.28
719.366	2172.55
719.553	2141.83
719.74	2184.84
719.927	2135.69
720.114	2158.22
720.301	1996.43
720.488	1926.8
720.676	2004.62
720.863	2139.79
721.05	1961.61
721.237	2109.07
721.424	1922.7
721.611	2094.73
721.798	2035.34
721.985	1943.18
722.172	1988.24
722.358	1967.76
722.545	1955.47
722.732	1900.17
722.919	2061.96
723.106	2010.76
723.293	1973.9
723.48	1916.56
723.667	1844.88
723.853	1898.13
724.04	1965.71
724.227	1928.85
724.414	1934.99
724.6	1838.73
724.787	1863.31
724.974	1875.6
725.161	1711.76
725.347	1922.7
725.534	1842.83
725.72	1857.17
725.907	1822.35
726.094	1736.34
726.28	1867.41
726.467	1777.3
726.653	1678.99
726.84	1801.87
727.027	1742.48
727.213	1851.02
727.4	1805.97
727.586	1738.38
727.773	1717.9
727.959	1625.75
728.145	1668.75
728.332	1756.82
728.518	1824.4
728.705	1650.32
728.891	1699.47
729.077	1699.47
729.264	1699.47
729.45	1693.33
729.636	1695.38
729.823	1658.51
730.009	1683.09
730.195	1748.62
730.382	1683.09
730.568	1742.48
730.754	1638.03
730.94	1754.77
731.126	1691.28
731.313	1529.49
731.499	1572.5
731.685	1574.55
731.871	1564.31
732.057	1560.21
732.243	1597.07
732.429	1588.88
732.615	1590.93
732.801	1533.59
732.987	1617.55
733.173	1666.71
733.359	1568.4
733.545	1502.87
733.731	1521.3
733.917	1521.3
734.103	1547.92
734.289	1439.38
734.475	1472.15
734.661	1545.88
734.847	1595.03
735.033	1480.34
735.219	1509.01
735.404	1470.1
735.59	1466
735.776	1478.29
735.962	1427.09
736.148	1482.39
736.333	1384.09
736.519	1541.78
736.705	1431.19
736.89	1400.47
737.076	1363.61
737.262	1443.48
737.447	1390.23
737.633	1404.57
737.819	1453.72
738.004	1441.43
738.19	1382.04
738.375	1416.85
738.561	1453.72
738.747	1353.37
738.932	1416.85
739.118	1343.13
739.303	1298.07
739.489	1310.36
739.674	1406.61
739.859	1248.92
740.045	1396.37
740.23	1322.65
740.416	1191.58
740.601	1343.13
740.786	1259.16
740.972	1250.97
741.157	1314.45
741.342	1255.06
741.528	1314.45
741.713	1250.97
741.898	1246.87
742.084	1240.73
742.269	1302.17
742.454	1261.21
742.639	1199.77
742.824	1218.2
743.01	1281.69
743.195	1248.92
743.38	1214.1
743.565	1193.62
743.75	1191.58
743.935	1210.01
744.12	1232.54
744.305	1154.71
744.49	1076.89
744.675	1185.43
744.86	1246.87
745.045	1189.53
745.23	1142.43
745.415	1189.53
745.6	1244.82
745.785	1138.33
745.97	1146.52
746.155	1113.75
746.34	1054.36
746.525	1078.94
746.71	1099.42
746.895	1111.71
747.079	1076.89
747.264	1128.09
747.449	1132.19
747.634	1130.14
747.819	1060.51
748.003	1080.99
748.188	994.97
748.373	1171.1
748.557	1044.12
748.742	1035.93
748.927	962.2
749.111	1103.51
749.296	978.59
749.481	1070.75
749.665	1066.65
749.85	1031.83
750.034	988.83
750.219	921.24
750.404	992.92
750.588	956.06
750.773	802.46
750.957	933.53
751.141	978.59
751.326	921.24
751.51	911
751.695	994.97
751.879	943.77
752.064	919.2
752.248	906.91
752.432	943.77
752.617	921.24
752.801	888.48
752.985	937.63
753.17	999.07
753.354	913.05
753.538	827.04
753.722	915.1
753.907	880.29
754.091	884.38
754.275	884.38
754.459	837.28
754.643	855.71
754.828	835.23
755.012	794.27
755.196	847.52
755.38	800.41
755.564	843.42
755.748	786.08
755.932	759.46
756.116	824.99
756.3	767.65
756.484	810.65
756.668	790.17
756.852	798.37
757.036	814.75
757.22	808.61
757.404	769.69
757.588	732.83
757.772	784.03
757.956	773.79
758.14	679.58
758.323	728.74
758.507	708.26
758.691	710.3
758.875	761.5
759.059	749.22
759.242	714.4
759.426	757.41
759.61	716.45
759.794	702.11
759.977	693.92
760.161	673.44
760.345	661.15
760.528	618.15
760.712	648.86
760.895	683.68
761.079	702.11
761.263	677.54
761.446	716.45
761.63	650.91
761.813	652.96
761.997	659.1
762.18	612
762.364	622.24
762.547	677.54
762.731	644.77
762.914	669.34
763.098	601.76
763.281	669.34
763.464	573.09
763.648	698.02
763.831	634.53
764.015	677.54
764.198	657.06
764.381	630.43
764.564	665.25
764.748	634.53
764.931	509.6
765.114	671.39
765.297	552.61
765.481	671.39
765.664	605.86
765.847	605.86
766.03	667.3
766.213	626.34
766.397	568.99
766.58	597.67
766.763	595.62
766.946	616.1
767.129	630.43
767.312	620.19
767.495	634.53
767.678	607.91
767.861	511.65
768.044	636.58
768.227	585.38
768.41	525.99
768.593	581.28
768.776	485.03
768.959	585.38
769.142	538.27
769.324	595.62
769.507	544.42
769.69	618.15
769.873	528.03
770.056	622.24
770.239	556.71
770.421	589.47
770.604	583.33
770.787	568.99
770.97	513.7
771.152	538.27
771.335	470.69
771.518	472.74
771.7	583.33
771.883	519.84
772.066	536.23
772.248	538.27
772.431	519.84
772.613	472.74
772.796	523.94
772.978	509.6
773.161	562.85
773.343	577.19
773.526	482.98
773.708	540.32
773.891	462.5
774.073	446.12
774.256	515.75
774.438	503.46
774.621	495.27
774.803	493.22
774.985	482.98
775.168	442.02
775.35	495.27
775.532	503.46
775.715	433.83
775.897	523.94
776.079	401.06
776.261	401.06
776.444	495.27
776.626	403.11
776.808	456.36
776.99	446.12
777.173	499.36
777.355	466.6
777.537	523.94
777.719	521.89
777.901	454.31
778.083	421.54
778.265	392.87
778.447	423.59
778.629	413.35
778.811	491.17
778.993	380.58
779.175	437.92
779.357	405.16
779.539	360.1
779.721	333.48
779.903	444.07
780.085	290.47
780.267	388.77
780.449	323.24
780.631	456.36
780.812	407.2
780.994	425.64
781.176	380.58
781.358	437.92
781.54	364.2
781.721	343.72
781.903	378.53
782.085	351.91
782.267	349.86
782.448	335.53
782.63	323.24
782.812	315.05
782.993	333.48
783.175	431.78
783.357	339.62
783.538	380.58
783.72	308.9
783.901	247.46
784.083	286.37
784.264	290.47
784.446	364.2
784.627	337.57
784.809	274.09
784.99	315.05
785.172	259.75
785.353	366.25
785.535	288.42
785.716	319.14
785.897	251.56
786.079	245.41
786.26	317.09
786.441	251.56
786.623	272.04
786.804	384.68
786.985	267.94
787.167	347.81
787.348	294.57
787.529	261.8
787.71	280.23
787.891	304.81
788.073	231.08
788.254	200.36
788.435	327.33
788.616	269.99
788.797	259.75
788.978	261.8
789.159	245.41
789.34	233.13
789.522	218.79
789.703	276.13
789.884	267.94
790.065	261.8
790.246	253.61
790.427	261.8
790.607	190.12
790.788	200.36
790.969	265.89
791.15	237.22
791.331	233.13
791.512	276.13
791.693	198.31
791.874	206.5
792.054	247.46
792.235	233.13
792.416	210.6
792.597	251.56
792.778	151.21
792.958	235.18
793.139	235.18
793.32	198.31
793.5	208.55
793.681	235.18
793.862	177.83
794.042	204.46
794.223	200.36
794.404	192.17
794.584	188.07
794.765	208.55
794.945	276.13
795.126	226.98
795.306	231.08
795.487	237.22
795.667	157.35
795.848	179.88
796.028	179.88
796.209	253.61
796.389	212.65
796.57	202.41
796.75	220.84
796.93	171.69
797.111	169.64
797.291	157.35
797.471	161.45
797.652	112.3
797.832	226.98
798.012	165.54
798.192	75.43
798.373	147.11
798.553	175.78
798.733	259.75
798.913	143.02
799.093	110.25
799.274	128.68
799.454	171.69
799.634	190.12
799.814	220.84
799.994	171.69
800.174	130.73
800.354	120.49
800.534	132.78
800.714	177.83
800.894	77.48
801.074	108.2
801.254	136.87
801.434	130.73
801.614	200.36
801.794	155.3
801.974	370.34
802.154	85.67
802.334	183.98
802.514	177.83
802.693	163.5
802.873	118.44
803.053	196.26
803.233	188.07
803.413	212.65
803.592	106.15
803.772	128.68
803.952	145.06
804.131	143.02
804.311	112.3
804.491	151.21
804.67	118.44
804.85	149.16
805.03	134.82
805.209	167.59
805.389	116.39
805.568	120.49
805.748	108.2
805.928	104.11
806.107	188.07
806.287	122.54
806.466	210.6
806.646	87.72
806.825	151.21
807.004	93.87
807.184	128.68
807.363	85.67
807.543	147.11
807.722	136.87
807.901	104.11
808.081	200.36
808.26	104.11
808.439	116.39
808.619	106.15
808.798	102.06
808.977	69.29
809.156	136.87
809.336	112.3
809.515	32.43
809.694	81.58
809.873	159.4
810.052	114.34
810.231	134.82
810.411	118.44
810.59	97.96
810.769	120.49
810.948	161.45
811.127	40.62
811.306	95.91
811.485	95.91
811.664	136.87
811.843	100.01
812.022	11.95
812.201	149.16
812.38	118.44
812.559	65.19
812.737	97.96
812.916	149.16
813.095	145.06
813.274	73.39
813.453	122.54
813.632	102.06
813.811	77.48
813.989	112.3
814.168	157.35
814.347	102.06
814.526	83.63
814.704	71.34
814.883	179.88
815.062	75.43
815.24	63.15
815.419	67.24
815.598	61.1
815.776	87.72
815.955	104.11
816.133	85.67
816.312	108.2
816.49	126.63
816.669	79.53
816.847	118.44
817.026	110.25
817.204	134.82
817.383	71.34
817.561	95.91
817.74	73.39
817.918	75.43
818.097	83.63
818.275	-2.39
818.453	61.1
818.632	44.71
818.81	110.25
818.988	32.43
819.167	67.24
819.345	52.91
819.523	36.52
819.701	104.11
819.879	87.72
820.058	165.54
820.236	81.58
820.414	52.91
820.592	128.68
820.77	91.82
820.948	-4.44
821.127	36.52
821.305	108.2
821.483	67.24
821.661	75.43
821.839	81.58
822.017	22.19
822.195	106.15
822.373	79.53
822.551	24.23
822.729	104.11
822.907	40.62
823.085	57
823.262	83.63
823.44	61.1
823.618	63.15
823.796	75.43
823.974	132.78
824.152	89.77
824.329	42.67
824.507	52.91
824.685	124.58
824.863	44.71
825.04	102.06
825.218	104.11
825.396	50.86
825.574	116.39
825.751	26.28
825.929	42.67
826.107	54.95
826.284	38.57
826.462	-4.44
826.639	75.43
826.817	85.67
826.994	32.43
827.172	36.52
827.349	85.67
827.527	73.39
827.704	85.67
827.882	71.34
828.059	104.11
828.237	57
828.414	75.43
828.591	79.53
828.769	11.95
828.946	20.14
829.124	54.95
829.301	5.8
829.478	73.39
829.655	50.86
829.833	36.52
830.01	16.04
830.187	28.33
830.364	28.33
830.542	32.43
830.719	83.63
830.896	24.23
831.073	81.58
831.25	75.43
831.427	-51.54
831.604	69.29
831.782	-4.44
831.959	54.95
832.136	26.28
832.313	-0.34
832.49	130.73
832.667	3.75
832.844	83.63
833.021	18.09
833.198	34.47
833.374	63.15
833.551	-4.44
833.728	30.38
833.905	63.15
834.082	-18.77
834.259	-2.39
834.436	71.34
834.612	42.67
834.789	32.43
834.966	73.39
835.143	32.43
835.319	16.04
835.496	3.75
835.673	46.76
835.85	65.19
836.026	-29.01
836.203	44.71
836.38	-31.06
836.556	28.33
836.733	48.81
836.909	65.19
837.086	-12.63
837.262	-0.34
837.439	63.15
837.616	77.48
837.792	18.09
837.968	30.38
838.145	30.38
838.321	-6.49
838.498	-33.11
838.674	83.63
838.851	-22.87
839.027	46.76
839.203	22.19
839.38	42.67
839.556	28.33
839.732	61.1
839.909	32.43
840.085	83.63
840.261	50.86
840.437	63.15
840.614	71.34
840.79	30.38
840.966	61.1
841.142	140.97
841.318	50.86
841.494	11.95
841.671	20.14
841.847	36.52
842.023	-14.68
842.199	20.14
842.375	3.75
842.551	-33.11
842.727	36.52
842.903	52.91
843.079	65.19
843.255	54.95
843.431	36.52
843.607	54.95
843.783	16.04
843.959	34.47
844.134	73.39
844.31	-51.54
844.486	-8.53
844.662	28.33
844.838	-33.11
845.013	71.34
845.189	-37.2
845.365	108.2
845.541	-35.16
845.716	69.29
845.892	-20.82
846.068	40.62
846.244	73.39
846.419	7.85
846.595	1.71
846.77	-6.49
846.946	1.71
847.122	89.77
847.297	-41.3
847.473	-35.16
847.648	11.95
847.824	38.57
847.999	-55.64
848.175	30.38
848.35	128.68
848.526	-14.68
848.701	36.52
848.876	3.75
849.052	26.28
849.227	59.05
849.403	-20.82
849.578	46.76
849.753	-33.11
849.929	28.33
850.104	-2.39
850.279	32.43
850.454	40.62
850.63	11.95
850.805	-22.87
850.98	20.14
851.155	-8.53
851.33	22.19
851.505	11.95
851.681	104.11
851.856	20.14
852.031	-8.53
852.206	-33.11
852.381	13.99
852.556	-49.49
852.731	42.67
852.906	28.33
853.081	-4.44
853.256	63.15
853.431	-18.77
853.606	7.85
853.781	20.14
853.956	-18.77
854.131	-12.63
854.305	3.75
854.48	9.9
854.655	69.29
854.83	22.19
855.005	79.53
855.18	3.75
855.354	30.38
855.529	52.91
855.704	-20.82
855.879	63.15
856.053	-10.58
856.228	36.52
856.403	22.19
856.577	-53.59
856.752	7.85
856.926	20.14
857.101	-18.77
857.276	44.71
857.45	-4.44
857.625	48.81
857.799	-20.82
857.974	-16.73
858.148	11.95
858.323	63.15
858.497	42.67
858.672	-4.44
858.846	-14.68
859.02	48.81
859.195	59.05
859.369	16.04
859.543	32.43
859.718	-35.16
859.892	-14.68
860.066	16.04
860.241	24.23
860.415	-92.5
860.589	5.8
860.763	-10.58
860.938	28.33
861.112	-10.58
861.286	-47.44
861.46	-12.63
861.634	16.04
861.808	7.85
861.982	-10.58
862.157	1.71
862.331	40.62
862.505	22.19
862.679	3.75
862.853	61.1
863.027	-33.11
863.201	46.76
863.375	-6.49
863.549	-29.01
863.722	38.57
863.896	102.06
864.07	30.38
864.244	-35.16
864.418	-12.63
864.592	93.87
864.766	11.95
864.939	30.38
865.113	16.04
865.287	13.99
865.461	7.85
865.634	59.05
865.808	-4.44
865.982	16.04
866.156	26.28
866.329	13.99
866.503	1.71
866.676	87.72
866.85	28.33
867.024	-0.34
867.197	24.23
867.371	-8.53
867.544	11.95
867.718	-51.54
867.891	3.75
868.065	-18.77
868.238	-29.01
868.412	44.71
868.585	-16.73
868.759	73.39
868.932	16.04
869.105	50.86
869.279	-4.44
869.452	-53.59
869.625	-51.54
869.799	44.71
869.972	44.71
870.145	-29.01
870.319	-12.63
870.492	34.47
870.665	-67.92
870.838	30.38
871.011	20.14
871.185	13.99
871.358	-53.59
871.531	-20.82
871.704	54.95
871.877	20.14
872.05	-26.96
872.223	-24.92
872.396	46.76
872.569	-49.49
872.742	-16.73
872.915	48.81
873.088	-33.11
873.261	-18.77
873.434	9.9
873.607	-8.53
873.78	61.1
873.953	-24.92
874.126	-14.68
874.299	-6.49
874.471	18.09
874.644	-22.87
874.817	91.82
874.99	38.57
875.163	34.47
875.335	20.14
875.508	30.38
875.681	28.33
875.853	30.38
876.026	16.04
876.199	5.8
876.371	-20.82
876.544	32.43
876.717	3.75
876.889	-0.34
877.062	7.85
877.234	3.75
877.407	-37.2
877.579	-31.06
877.752	-43.35
877.924	5.8
878.097	-0.34
878.269	28.33
878.442	95.91
878.614	5.8
878.786	3.75
878.959	3.75
879.131	24.23
879.303	38.57
879.476	28.33
879.648	-43.35
879.82	54.95
879.993	-43.35
880.165	3.75
880.337	36.52
880.509	1.71
880.681	-12.63
880.854	-4.44
881.026	-10.58
881.198	-24.92
881.37	30.38
881.542	26.28
881.714	-59.73
881.886	-63.83
882.058	46.76
882.23	16.04
882.402	-10.58
882.574	5.8
882.746	-37.2
882.918	5.8
883.09	36.52
883.262	22.19
883.434	-8.53
883.606	71.34
883.778	5.8
883.95	-43.35
884.122	-24.92
884.293	61.1
884.465	24.23
884.637	20.14
884.809	-43.35
884.98	30.38
885.152	-49.49
885.324	85.67
885.496	26.28
885.667	-6.49
885.839	46.76
886.011	50.86
886.182	-6.49
886.354	-2.39
886.525	13.99
886.697	69.29
886.869	-24.92
887.04	-6.49
887.212	20.14
887.383	79.53
887.555	-18.77
887.726	-63.83
887.897	16.04
888.069	-4.44
888.24	54.95
888.412	-61.78
888.583	-12.63
888.754	13.99
888.926	-37.2
889.097	42.67
889.268	-10.58
889.44	-12.63
889.611	-35.16
889.782	-78.16
889.953	-72.02
890.125	-24.92
890.296	-29.01
890.467	3.75
890.638	-59.73
890.809	-26.96
890.98	-4.44
891.151	36.52
891.323	-84.31
891.494	-0.34
891.665	36.52
891.836	-29.01
892.007	-18.77
892.178	-12.63
892.349	24.23
892.52	-10.58
892.691	-24.92
892.862	-14.68
893.032	42.67
893.203	91.82
893.374	-20.82
893.545	-74.07
893.716	-8.53
893.887	26.28
894.057	-61.78
894.228	-20.82
894.399	-22.87
894.57	-74.07
894.74	-2.39
894.911	22.19
895.082	22.19
895.253	20.14
895.423	-45.4
895.594	-24.92
895.764	-59.73
895.935	40.62
896.106	54.95
896.276	-41.3
896.447	-18.77
896.617	30.38
896.788	7.85
896.958	24.23
897.129	-43.35
897.299	24.23
897.47	5.8
897.64	3.75
897.81	-26.96
897.981	-26.96
898.151	-0.34
898.322	1.71
898.492	18.09
898.662	5.8
898.832	-0.34
899.003	16.04
899.173	-69.97
899.343	-43.35
899.513	-74.07
