Data from USB4F104151__49__13-53-24-858.txt Node

Date: Thu Mar 13 13:53:24 EDT 2025
User: louis
Spectrometer: USB4F10415
Trigger mode: 4
Integration Time (sec): 1.000000E-2
Scans to average: 1
Electric dark correction enabled: true
Nonlinearity correction enabled: false
Boxcar width: 0
XAxis mode: Wavelengths
Number of Pixels in Spectrum: 3648
>>>>>Begin Spectral Data<<<<<
178.204	2.56
178.424	2.56
178.644	2.56
178.864	-34.3
179.084	12.8
179.304	-17.92
179.524	23.04
179.744	-26.11
179.964	59.9
180.184	29.18
180.404	-22.02
180.624	-9.73
180.844	-19.97
181.064	-19.97
181.283	-32.26
181.503	-11.78
181.723	47.62
181.943	-48.64
182.163	8.7
182.383	10.75
182.602	59.9
182.822	55.81
183.042	8.7
183.262	6.66
183.482	16.9
183.701	72.19
183.921	47.62
184.141	-48.64
184.361	20.99
184.58	43.52
184.8	-42.5
185.02	41.47
185.239	41.47
185.459	43.52
185.679	37.38
185.898	-15.87
186.118	45.57
186.338	35.33
186.557	27.14
186.777	8.7
186.997	20.99
187.216	27.14
187.436	41.47
187.655	61.95
187.875	41.47
188.095	6.66
188.314	53.76
188.534	49.66
188.753	-24.06
188.973	47.62
189.192	2.56
189.412	33.28
189.631	43.52
189.851	-1.54
190.07	-46.59
190.29	90.62
190.509	127.49
190.729	-62.98
190.948	45.57
191.168	43.52
191.387	-17.92
191.607	47.62
191.826	10.75
192.045	45.57
192.265	49.66
192.484	41.47
192.704	27.14
192.923	23.04
193.142	14.85
193.362	18.94
193.581	82.43
193.8	37.38
194.02	-13.82
194.239	35.33
194.458	23.04
194.678	74.24
194.897	25.09
195.116	-38.4
195.335	20.99
195.555	41.47
195.774	70.14
195.993	12.8
196.212	18.94
196.432	55.81
196.651	53.76
196.87	23.04
197.089	55.81
197.308	74.24
197.528	55.81
197.747	-17.92
197.966	70.14
198.185	-28.16
198.404	37.38
198.623	66.05
198.842	-38.4
199.062	31.23
199.281	107.01
199.5	16.9
199.719	55.81
199.938	-42.5
200.157	-3.58
200.376	4.61
200.595	-3.58
200.814	6.66
201.033	70.14
201.252	35.33
201.471	86.53
201.69	25.09
201.909	-38.4
202.128	55.81
202.347	59.9
202.566	39.42
202.785	-42.5
203.004	4.61
203.223	123.39
203.442	27.14
203.661	55.81
203.879	27.14
204.098	64
204.317	37.38
204.536	43.52
204.755	74.24
204.974	94.72
205.193	55.81
205.411	147.97
205.63	0.51
205.849	8.7
206.068	10.75
206.287	-11.78
206.505	45.57
206.724	18.94
206.943	78.33
207.162	76.29
207.381	78.33
207.599	-1.54
207.818	10.75
208.037	37.38
208.255	10.75
208.474	41.47
208.693	49.66
208.911	72.19
209.13	61.95
209.349	90.62
209.567	-9.73
209.786	-38.4
210.005	33.28
210.223	8.7
210.442	20.99
210.661	78.33
210.879	94.72
211.098	84.48
211.316	41.47
211.535	133.63
211.753	-5.63
211.972	35.33
212.191	102.91
212.409	-7.68
212.628	16.9
212.846	-40.45
213.065	39.42
213.283	86.53
213.502	0.51
213.72	64
213.938	-9.73
214.157	25.09
214.375	41.47
214.594	-62.98
214.812	39.42
215.031	39.42
215.249	27.14
215.467	49.66
215.686	-13.82
215.904	16.9
216.122	14.85
216.341	35.33
216.559	-19.97
216.778	51.71
216.996	31.23
217.214	-11.78
217.432	-15.87
217.651	4.61
217.869	78.33
218.087	0.51
218.306	76.29
218.524	31.23
218.742	33.28
218.96	49.66
219.179	20.99
219.397	10.75
219.615	43.52
219.833	55.81
220.051	39.42
220.27	80.38
220.488	4.61
220.706	41.47
220.924	2.56
221.142	109.05
221.36	37.38
221.578	29.18
221.796	23.04
222.015	23.04
222.233	57.86
222.451	12.8
222.669	86.53
222.887	39.42
223.105	66.05
223.323	86.53
223.541	-5.63
223.759	113.15
223.977	55.81
224.195	72.19
224.413	33.28
224.631	23.04
224.849	59.9
225.067	74.24
225.285	49.66
225.503	-32.26
225.721	-19.97
225.939	0.51
226.157	-22.02
226.375	45.57
226.592	18.94
226.81	41.47
227.028	55.81
227.246	-52.74
227.464	27.14
227.682	-5.63
227.9	-48.64
228.117	45.57
228.335	49.66
228.553	39.42
228.771	-28.16
228.989	8.7
229.206	-7.68
229.424	33.28
229.642	-13.82
229.86	35.33
230.077	8.7
230.295	66.05
230.513	-67.07
230.731	51.71
230.948	41.47
231.166	23.04
231.384	76.29
231.601	43.52
231.819	109.05
232.037	39.42
232.254	-9.73
232.472	16.9
232.689	4.61
232.907	172.54
233.125	18.94
233.342	4.61
233.56	31.23
233.777	37.38
233.995	20.99
234.213	109.05
234.43	4.61
234.648	78.33
234.865	8.7
235.083	61.95
235.3	-3.58
235.518	74.24
235.735	41.47
235.953	90.62
236.17	55.81
236.388	53.76
236.605	25.09
236.822	100.86
237.04	29.18
237.257	18.94
237.475	20.99
237.692	131.58
237.909	25.09
238.127	57.86
238.344	31.23
238.562	14.85
238.779	86.53
238.996	57.86
239.214	23.04
239.431	88.57
239.648	23.04
239.865	47.62
240.083	57.86
240.3	-1.54
240.517	-17.92
240.735	41.47
240.952	74.24
241.169	55.81
241.386	31.23
241.603	35.33
241.821	-22.02
242.038	4.61
242.255	70.14
242.472	57.86
242.689	35.33
242.907	18.94
243.124	55.81
243.341	107.01
243.558	-13.82
243.775	-5.63
243.992	68.09
244.209	-22.02
244.426	70.14
244.643	25.09
244.86	47.62
245.078	-22.02
245.295	57.86
245.512	-24.06
245.729	66.05
245.946	86.53
246.163	55.81
246.38	-11.78
246.597	94.72
246.814	80.38
247.031	35.33
247.248	35.33
247.464	-3.58
247.681	20.99
247.898	2.56
248.115	76.29
248.332	29.18
248.549	76.29
248.766	66.05
248.983	29.18
249.2	-5.63
249.417	66.05
249.633	27.14
249.85	-34.3
250.067	-28.16
250.284	-11.78
250.501	12.8
250.717	135.68
250.934	55.81
251.151	41.47
251.368	33.28
251.585	-9.73
251.801	72.19
252.018	133.63
252.235	16.9
252.451	47.62
252.668	39.42
252.885	66.05
253.102	51.71
253.318	31.23
253.535	53.76
253.752	-5.63
253.968	53.76
254.185	57.86
254.401	25.09
254.618	-11.78
254.835	12.8
255.051	-34.3
255.268	76.29
255.484	-17.92
255.701	14.85
255.917	43.52
256.134	-13.82
256.351	16.9
256.567	-1.54
256.784	4.61
257	31.23
257.217	23.04
257.433	43.52
257.65	59.9
257.866	23.04
258.082	64
258.299	72.19
258.515	29.18
258.732	39.42
258.948	18.94
259.165	47.62
259.381	100.86
259.597	64
259.814	37.38
260.03	80.38
260.246	8.7
260.463	20.99
260.679	53.76
260.895	-1.54
261.112	10.75
261.328	-11.78
261.544	14.85
261.761	4.61
261.977	76.29
262.193	82.43
262.409	-24.06
262.626	14.85
262.842	82.43
263.058	92.67
263.274	64
263.49	43.52
263.707	14.85
263.923	20.99
264.139	51.71
264.355	84.48
264.571	127.49
264.787	33.28
265.004	8.7
265.22	61.95
265.436	-3.58
265.652	31.23
265.868	90.62
266.084	-7.68
266.3	31.23
266.516	37.38
266.732	37.38
266.948	68.09
267.164	39.42
267.38	-9.73
267.596	33.28
267.812	12.8
268.028	94.72
268.244	14.85
268.46	86.53
268.676	16.9
268.892	51.71
269.108	25.09
269.324	2.56
269.54	0.51
269.756	47.62
269.972	53.76
270.188	0.51
270.403	80.38
270.619	82.43
270.835	23.04
271.051	43.52
271.267	104.96
271.483	57.86
271.698	-9.73
271.914	47.62
272.13	49.66
272.346	23.04
272.562	37.38
272.777	41.47
272.993	37.38
273.209	-13.82
273.425	41.47
273.64	47.62
273.856	37.38
274.072	39.42
274.287	-11.78
274.503	141.82
274.719	33.28
274.934	51.71
275.15	41.47
275.366	2.56
275.581	31.23
275.797	70.14
276.012	12.8
276.228	33.28
276.444	-26.11
276.659	90.62
276.875	-7.68
277.09	29.18
277.306	-5.63
277.521	41.47
277.737	8.7
277.952	-7.68
278.168	-13.82
278.383	45.57
278.599	-11.78
278.814	-22.02
279.03	8.7
279.245	12.8
279.461	43.52
279.676	18.94
279.892	74.24
280.107	14.85
280.322	12.8
280.538	76.29
280.753	-46.59
280.969	14.85
281.184	66.05
281.399	78.33
281.615	47.62
281.83	49.66
282.045	43.52
282.26	70.14
282.476	80.38
282.691	-22.02
282.906	61.95
283.122	23.04
283.337	88.57
283.552	31.23
283.767	64
283.983	23.04
284.198	35.33
284.413	20.99
284.628	20.99
284.843	23.04
285.058	20.99
285.274	41.47
285.489	14.85
285.704	45.57
285.919	37.38
286.134	-1.54
286.349	-13.82
286.564	39.42
286.779	82.43
286.995	-7.68
287.21	68.09
287.425	82.43
287.64	16.9
287.855	57.86
288.07	41.47
288.285	61.95
288.5	37.38
288.715	59.9
288.93	27.14
289.145	74.24
289.36	20.99
289.575	49.66
289.79	-1.54
290.004	78.33
290.219	98.81
290.434	-1.54
290.649	51.71
290.864	8.7
291.079	66.05
291.294	61.95
291.509	10.75
291.724	-17.92
291.938	8.7
292.153	123.39
292.368	55.81
292.583	18.94
292.798	41.47
293.012	31.23
293.227	20.99
293.442	-13.82
293.657	70.14
293.871	37.38
294.086	35.33
294.301	90.62
294.516	59.9
294.73	-13.82
294.945	70.14
295.16	-7.68
295.374	47.62
295.589	45.57
295.804	-3.58
296.018	-11.78
296.233	20.99
296.447	107.01
296.662	53.76
296.877	14.85
297.091	76.29
297.306	18.94
297.52	64
297.735	-1.54
297.949	18.94
298.164	61.95
298.378	2.56
298.593	12.8
298.807	14.85
299.022	80.38
299.236	31.23
299.451	20.99
299.665	20.99
299.88	-7.68
300.094	33.28
300.309	25.09
300.523	25.09
300.737	76.29
300.952	-5.63
301.166	18.94
301.381	31.23
301.595	14.85
301.809	14.85
302.024	45.57
302.238	-5.63
302.452	55.81
302.667	25.09
302.881	23.04
303.095	25.09
303.309	51.71
303.524	39.42
303.738	74.24
303.952	12.8
304.166	70.14
304.381	-56.83
304.595	35.33
304.809	57.86
305.023	33.28
305.237	-22.02
305.452	88.57
305.666	37.38
305.88	8.7
306.094	84.48
306.308	-17.92
306.522	53.76
306.736	29.18
306.95	55.81
307.164	66.05
307.379	18.94
307.593	31.23
307.807	203.26
308.021	27.14
308.235	55.81
308.449	96.77
308.663	8.7
308.877	-17.92
309.091	31.23
309.305	47.62
309.519	29.18
309.733	94.72
309.947	43.52
310.161	55.81
310.374	74.24
310.588	84.48
310.802	-24.06
311.016	37.38
311.23	90.62
311.444	55.81
311.658	39.42
311.872	82.43
312.085	59.9
312.299	16.9
312.513	55.81
312.727	98.81
312.941	78.33
313.154	100.86
313.368	41.47
313.582	14.85
313.796	0.51
314.009	-1.54
314.223	-26.11
314.437	39.42
314.651	6.66
314.864	66.05
315.078	-5.63
315.292	43.52
315.505	133.63
315.719	66.05
315.933	29.18
316.146	66.05
316.36	33.28
316.573	104.96
316.787	86.53
317.001	47.62
317.214	45.57
317.428	68.09
317.641	20.99
317.855	10.75
318.068	16.9
318.282	-22.02
318.495	47.62
318.709	35.33
318.922	55.81
319.136	98.81
319.349	64
319.563	-9.73
319.776	29.18
319.99	-11.78
320.203	12.8
320.417	-3.58
320.63	113.15
320.843	4.61
321.057	94.72
321.27	-3.58
321.483	6.66
321.697	49.66
321.91	12.8
322.124	25.09
322.337	64
322.55	-54.78
322.763	10.75
322.977	61.95
323.19	2.56
323.403	12.8
323.617	41.47
323.83	10.75
324.043	20.99
324.256	12.8
324.469	43.52
324.683	51.71
324.896	27.14
325.109	12.8
325.322	82.43
325.535	51.71
325.748	23.04
325.962	37.38
326.175	-48.64
326.388	107.01
326.601	39.42
326.814	47.62
327.027	-28.16
327.24	35.33
327.453	-19.97
327.666	29.18
327.879	-1.54
328.092	6.66
328.305	35.33
328.518	61.95
328.731	41.47
328.944	23.04
329.157	39.42
329.37	45.57
329.583	86.53
329.796	72.19
330.009	53.76
330.222	27.14
330.435	102.91
330.648	-15.87
330.861	27.14
331.073	14.85
331.286	20.99
331.499	2.56
331.712	20.99
331.925	86.53
332.138	92.67
332.35	55.81
332.563	47.62
332.776	29.18
332.989	41.47
333.202	41.47
333.414	-52.74
333.627	88.57
333.84	68.09
334.053	16.9
334.265	12.8
334.478	57.86
334.691	96.77
334.903	35.33
335.116	49.66
335.329	74.24
335.541	80.38
335.754	-5.63
335.966	66.05
336.179	107.01
336.392	37.38
336.604	35.33
336.817	-7.68
337.029	59.9
337.242	102.91
337.454	104.96
337.667	-11.78
337.88	41.47
338.092	53.76
338.305	82.43
338.517	29.18
338.729	33.28
338.942	-9.73
339.154	90.62
339.367	57.86
339.579	59.9
339.792	49.66
340.004	35.33
340.217	45.57
340.429	55.81
340.641	23.04
340.854	57.86
341.066	59.9
341.278	78.33
341.491	43.52
341.703	49.66
341.915	27.14
342.128	-44.54
342.34	88.57
342.552	45.57
342.764	49.66
342.977	29.18
343.189	53.76
343.401	55.81
343.613	55.81
343.826	12.8
344.038	2.56
344.25	27.14
344.462	102.91
344.674	14.85
344.886	51.71
345.099	152.06
345.311	0.51
345.523	0.51
345.735	27.14
345.947	55.81
346.159	23.04
346.371	27.14
346.583	78.33
346.795	111.1
347.007	109.05
347.219	29.18
347.431	-42.5
347.643	12.8
347.855	35.33
348.067	55.81
348.279	18.94
348.491	31.23
348.703	27.14
348.915	64
349.127	4.61
349.339	-17.92
349.551	37.38
349.763	51.71
349.975	-9.73
350.187	47.62
350.399	-17.92
350.61	0.51
350.822	78.33
351.034	94.72
351.246	70.14
351.458	72.19
351.669	55.81
351.881	70.14
352.093	-5.63
352.305	-22.02
352.517	74.24
352.728	20.99
352.94	107.01
353.152	-38.4
353.363	-11.78
353.575	-22.02
353.787	72.19
353.999	29.18
354.21	57.86
354.422	49.66
354.633	16.9
354.845	23.04
355.057	16.9
355.268	123.39
355.48	16.9
355.692	35.33
355.903	43.52
356.115	127.49
356.326	16.9
356.538	53.76
356.749	31.23
356.961	-3.58
357.172	57.86
357.384	55.81
357.595	57.86
357.807	35.33
358.018	-9.73
358.23	33.28
358.441	66.05
358.653	-65.02
358.864	35.33
359.075	8.7
359.287	27.14
359.498	37.38
359.709	33.28
359.921	16.9
360.132	51.71
360.344	92.67
360.555	47.62
360.766	92.67
360.977	23.04
361.189	90.62
361.4	37.38
361.611	59.9
361.823	123.39
362.034	53.76
362.245	-62.98
362.456	18.94
362.667	66.05
362.879	78.33
363.09	31.23
363.301	64
363.512	55.81
363.723	29.18
363.935	94.72
364.146	84.48
364.357	20.99
364.568	57.86
364.779	10.75
364.99	53.76
365.201	18.94
365.412	25.09
365.623	31.23
365.834	27.14
366.045	39.42
366.256	45.57
366.467	49.66
366.678	68.09
366.889	45.57
367.1	4.61
367.311	64
367.522	55.81
367.733	27.14
367.944	74.24
368.155	72.19
368.366	53.76
368.577	80.38
368.788	41.47
368.999	8.7
369.209	59.9
369.42	16.9
369.631	100.86
369.842	64
370.053	53.76
370.264	35.33
370.474	84.48
370.685	0.51
370.896	86.53
371.107	-44.54
371.317	10.75
371.528	0.51
371.739	121.34
371.95	20.99
372.16	18.94
372.371	-22.02
372.582	43.52
372.792	33.28
373.003	-22.02
373.214	27.14
373.424	-9.73
373.635	70.14
373.846	2.56
374.056	41.47
374.267	64
374.477	-1.54
374.688	37.38
374.898	121.34
375.109	10.75
375.319	39.42
375.53	43.52
375.74	76.29
375.951	104.96
376.161	45.57
376.372	41.47
376.582	104.96
376.793	-42.5
377.003	53.76
377.214	27.14
377.424	53.76
377.635	33.28
377.845	16.9
378.055	53.76
378.266	49.66
378.476	92.67
378.686	43.52
378.897	35.33
379.107	96.77
379.317	57.86
379.528	23.04
379.738	80.38
379.948	-11.78
380.158	31.23
380.369	31.23
380.579	57.86
380.789	55.81
380.999	84.48
381.21	86.53
381.42	33.28
381.63	66.05
381.84	39.42
382.05	100.86
382.261	23.04
382.471	37.38
382.681	59.9
382.891	78.33
383.101	74.24
383.311	115.2
383.521	29.18
383.731	57.86
383.941	18.94
384.151	53.76
384.361	-24.06
384.571	-11.78
384.781	-5.63
384.991	76.29
385.201	61.95
385.411	68.09
385.621	94.72
385.831	16.9
386.041	10.75
386.251	20.99
386.461	68.09
386.671	53.76
386.881	113.15
387.091	45.57
387.301	72.19
387.511	109.05
387.72	109.05
387.93	27.14
388.14	2.56
388.35	14.85
388.56	43.52
388.769	2.56
388.979	109.05
389.189	59.9
389.399	-1.54
389.609	-5.63
389.818	78.33
390.028	80.38
390.238	98.81
390.447	86.53
390.657	51.71
390.867	100.86
391.076	68.09
391.286	10.75
391.496	66.05
391.705	109.05
391.915	55.81
392.125	10.75
392.334	-9.73
392.544	113.15
392.753	39.42
392.963	25.09
393.172	55.81
393.382	29.18
393.591	111.1
393.801	131.58
394.01	78.33
394.22	68.09
394.429	80.38
394.639	70.14
394.848	70.14
395.058	51.71
395.267	113.15
395.477	4.61
395.686	90.62
395.895	96.77
396.105	107.01
396.314	66.05
396.524	33.28
396.733	90.62
396.942	98.81
397.152	96.77
397.361	68.09
397.57	111.1
397.78	92.67
397.989	66.05
398.198	33.28
398.407	72.19
398.617	137.73
398.826	127.49
399.035	55.81
399.244	4.61
399.453	145.92
399.663	109.05
399.872	20.99
400.081	59.9
400.29	55.81
400.499	43.52
400.708	86.53
400.917	82.43
401.127	88.57
401.336	96.77
401.545	88.57
401.754	66.05
401.963	104.96
402.172	82.43
402.381	139.77
402.59	82.43
402.799	98.81
403.008	51.71
403.217	139.77
403.426	131.58
403.635	70.14
403.844	117.25
404.053	96.77
404.262	119.29
404.471	61.95
404.68	66.05
404.888	98.81
405.097	86.53
405.306	135.68
405.515	113.15
405.724	51.71
405.933	96.77
406.142	82.43
406.35	135.68
406.559	59.9
406.768	90.62
406.977	88.57
407.185	102.91
407.394	182.78
407.603	123.39
407.812	109.05
408.02	152.06
408.229	51.71
408.438	119.29
408.646	152.06
408.855	123.39
409.064	147.97
409.272	147.97
409.481	215.55
409.69	160.25
409.898	162.3
410.107	209.4
410.315	256.51
410.524	223.74
410.733	223.74
410.941	147.97
411.15	217.6
411.358	182.78
411.567	211.45
411.775	154.11
411.984	215.55
412.192	248.32
412.401	201.21
412.609	322.04
412.818	272.89
413.026	348.67
413.234	258.56
413.443	342.52
413.651	231.93
413.86	299.52
414.068	387.58
414.276	371.19
414.485	299.52
414.693	399.87
414.901	371.19
415.11	406.01
415.318	387.58
415.526	412.15
415.734	428.54
415.943	459.26
416.151	496.12
416.359	414.2
416.567	516.6
416.776	541.18
416.984	541.18
417.192	528.89
417.4	561.66
417.608	487.93
417.817	588.28
418.025	578.04
418.233	573.94
418.441	575.99
418.649	705.01
418.857	752.12
419.065	727.54
419.273	688.63
419.481	758.26
419.689	758.26
419.897	801.27
420.105	862.71
420.313	803.32
420.521	911.86
420.729	858.61
420.937	940.53
421.145	997.87
421.353	999.92
421.561	1047.02
421.769	1110.51
421.977	1208.81
422.185	1102.32
422.393	1206.77
422.601	1208.81
422.809	1352.17
423.017	1255.92
423.224	1358.32
423.432	1423.85
423.64	1339.88
423.848	1516.01
424.056	1454.57
424.263	1477.1
424.471	1479.15
424.679	1657.32
424.887	1651.17
425.094	1733.09
425.302	1896.93
425.51	1876.45
425.718	1972.71
425.925	1954.27
426.133	1886.69
426.341	2238.94
426.548	2056.67
426.756	2138.59
426.964	2169.31
427.171	2329.05
427.379	2429.4
427.586	2445.79
427.794	2492.89
428.001	2591.19
428.209	2779.61
428.417	2529.75
428.624	2916.82
428.832	2783.7
429.039	2806.23
429.247	2720.21
429.454	3082.7
429.662	3185.1
429.869	3043.79
430.076	3244.49
430.284	3273.17
430.491	3353.04
430.699	3570.12
430.906	3563.98
431.114	3535.31
431.321	3856.84
431.528	3785.16
431.736	3865.03
431.943	4293.05
432.15	4161.98
432.358	4280.77
432.565	4286.91
432.772	4372.93
432.979	4518.33
433.187	4645.31
433.394	4633.02
433.601	5026.23
433.808	5003.7
434.016	4985.27
434.223	5214.64
434.43	5460.4
434.637	5349.81
434.844	5720.49
435.052	5880.23
435.259	5775.78
435.466	5710.25
435.673	5763.5
435.88	6373.79
436.087	6427.04
436.294	6494.62
436.501	6486.43
436.708	6525.34
436.915	6656.41
437.122	7098.77
437.329	6805.91
437.537	7235.99
437.743	7498.13
437.95	7281.04
438.157	7494.03
438.364	8030.6
438.571	7856.52
438.778	7942.53
438.985	8618.36
439.192	8403.33
439.399	8409.47
439.606	8458.62
439.813	8716.67
440.02	9312.63
440.227	9124.21
440.433	9101.69
440.64	9218.42
440.847	9275.76
441.054	9689.45
441.261	10125.67
441.467	10176.87
441.674	10307.94
441.881	10608.99
442.088	10670.43
442.294	10680.67
442.501	10889.56
442.708	10953.05
442.914	11506
443.121	12075.34
443.328	11596.11
443.534	12407.11
443.741	12390.72
443.948	12130.63
444.154	12802.36
444.361	12990.78
444.568	12941.63
444.774	12943.67
444.981	12947.77
445.187	13228.34
445.394	13920.56
445.6	13820.21
445.807	15221.02
446.013	14590.24
446.22	14596.39
446.426	15227.16
446.633	15210.78
446.839	15874.32
447.046	15333.65
447.252	16109.83
447.459	15976.72
447.665	15960.33
447.871	16824.58
448.078	17451.25
448.284	16728.32
448.491	16926.97
448.697	17484.02
448.903	17916.14
449.11	18106.6
449.316	17549.56
449.522	18049.26
449.728	18700.51
449.935	18739.43
450.141	18569.44
450.347	18981.09
450.553	18372.84
450.76	18591.97
450.966	19355.86
451.172	18964.7
451.378	19280.09
451.584	18946.27
451.791	19583.19
451.997	19648.72
452.203	19781.84
452.409	19792.08
452.615	19865.81
452.821	18989.28
453.027	18745.57
453.233	19884.24
453.44	19183.84
453.646	18823.39
453.852	19151.07
454.058	19525.85
454.264	18723.04
454.47	19353.82
454.676	18919.65
454.882	19362.01
455.088	17725.68
455.294	17852.66
455.5	18233.58
455.705	18321.64
455.911	17809.65
456.117	17250.55
456.323	17000.7
456.529	16328.97
456.735	16898.3
456.941	16257.29
457.147	15950.09
457.352	15657.23
457.558	15610.13
457.764	15769.87
457.97	15061.27
458.176	14739.74
458.381	14788.89
458.587	14049.58
458.793	14227.75
458.999	13183.29
459.204	14299.43
459.41	13809.97
459.616	12853.56
459.821	13050.17
460.027	13156.66
460.233	12632.38
460.438	12118.34
460.644	12142.92
460.85	11501.9
461.055	11456.85
461.261	11456.85
461.466	10703.2
461.672	10314.08
461.878	11049.3
462.083	10273.12
462.289	9988.46
462.494	10246.5
462.7	9539.95
462.905	9218.42
463.111	9623.92
463.316	9752.94
463.522	9408.88
463.727	9568.62
463.932	9443.7
464.138	9300.34
464.343	9482.61
464.549	9148.79
464.754	9335.15
464.959	9374.06
465.165	9210.23
465.37	8808.83
465.575	8733.05
465.781	9228.66
465.986	9001.33
466.191	8761.72
466.397	8497.53
466.602	8190.34
466.807	8583.55
467.012	8425.86
467.218	8454.53
467.423	8386.94
467.628	8329.6
467.833	8741.24
468.038	8329.6
468.244	8182.15
468.449	8614.27
468.654	8178.05
468.859	8245.63
469.064	8231.3
469.269	7803.27
469.474	7907.72
469.679	7866.76
469.885	7981.45
470.09	7924.1
470.295	7809.42
470.5	7555.47
470.705	7711.11
470.91	7602.57
471.115	7461.26
471.32	7598.48
471.525	7444.88
471.73	7485.84
471.935	7477.65
472.139	7072.15
472.344	7135.64
472.549	7203.22
472.754	7143.83
472.959	6996.37
473.164	6693.27
473.369	6631.83
473.574	6834.58
473.778	6812.06
473.983	6750.62
474.188	6607.26
474.393	6449.57
474.598	6537.63
474.802	6351.26
475.007	6341.02
475.212	6398.37
475.417	6158.75
475.621	6140.32
475.826	6295.97
476.031	6095.27
476.235	5857.7
476.44	5816.74
476.645	5826.98
476.849	5894.57
477.054	5820.84
477.259	5833.13
477.463	5824.94
477.668	5507.5
477.872	5697.96
478.077	5530.03
478.282	5599.66
478.486	5382.57
478.691	5482.92
478.895	5476.78
479.1	5265.84
479.304	5282.22
479.509	5169.59
479.713	5220.78
479.918	5126.58
480.122	5095.86
480.326	5173.68
480.531	5179.82
480.735	5159.35
480.94	4938.16
481.144	5298.61
481.348	5093.81
481.553	4903.35
481.757	4936.12
481.961	4999.6
482.166	5134.77
482.37	4944.31
482.574	5024.18
482.778	4936.12
482.983	4999.6
483.187	5058.99
483.391	4975.03
483.595	5061.04
483.8	4880.82
484.004	5018.04
484.208	5089.71
484.412	4858.29
484.616	4940.21
484.821	4923.83
485.025	4893.11
485.229	4929.97
485.433	4962.74
485.637	4809.14
485.841	4841.91
486.045	4825.53
486.249	5022.13
486.453	4882.87
486.657	4870.58
486.861	4936.12
487.065	4790.71
487.269	5036.47
487.473	4884.92
487.677	4977.08
487.881	5091.76
488.085	5102
488.289	5061.04
488.493	4936.12
488.697	5020.08
488.901	5034.42
489.105	4956.6
489.309	5030.32
489.512	4839.86
489.716	5073.33
489.92	5009.84
490.124	5165.49
490.328	5116.34
490.531	5183.92
490.735	5231.02
490.939	5153.2
491.143	5061.04
491.346	5175.73
491.55	5255.6
491.754	5245.36
491.958	5120.43
492.161	5171.63
492.365	5280.18
492.569	5298.61
492.772	5290.42
492.976	5364.14
493.18	5398.96
493.383	5310.89
493.587	5466.54
493.79	5652.91
493.994	5370.29
494.197	5570.99
494.401	5566.89
494.605	5642.67
494.808	5755.3
495.012	5773.74
495.215	5581.23
495.419	5839.27
495.622	5620.14
495.825	5732.78
496.029	6128.03
496.232	5880.23
496.436	5908.9
496.639	6103.46
496.843	6097.31
497.046	6152.61
497.249	6117.79
497.453	6369.69
497.656	6506.91
497.859	6511
498.063	6445.47
498.266	6713.75
498.469	6424.99
498.673	6551.96
498.876	6713.75
499.079	6877.59
499.282	6896.02
499.485	7154.07
499.689	7053.72
499.892	7190.93
500.095	7266.71
500.298	7395.73
500.501	7301.52
500.705	7582.09
500.908	7545.23
501.111	7750.03
501.314	7637.39
501.517	7969.16
501.72	7848.33
501.923	7950.73
502.126	7942.53
502.329	8190.34
502.532	8300.93
502.735	8233.35
502.938	8569.21
503.141	8515.97
503.344	8788.35
503.547	8550.78
503.75	8999.29
503.953	8798.59
504.156	9130.36
504.359	9109.88
504.562	9058.68
504.765	9523.57
504.968	9464.18
505.17	9533.81
505.373	9748.84
505.576	10002.79
505.779	9994.6
505.982	9931.11
506.185	10305.89
506.387	10219.88
506.59	10508.64
506.793	10680.67
506.996	10606.94
507.198	10998.1
507.401	10789.21
507.604	11102.55
507.807	11211.09
508.009	11127.13
508.212	11442.51
508.415	11501.9
508.617	11780.43
508.82	11827.53
509.022	11850.06
509.225	12177.73
509.428	12044.62
509.63	12263.75
509.833	12566.85
510.035	12695.87
510.238	12738.88
510.44	13044.02
510.643	13140.28
510.845	13238.58
511.048	12927.29
511.25	13492.53
511.453	13482.29
511.655	14049.58
511.858	13908.27
512.06	14111.02
512.262	14313.77
512.465	14303.53
512.667	14518.56
512.87	14821.66
513.072	14752.03
513.274	15171.86
513.477	15276.31
513.679	15444.24
513.881	15733.01
514.084	15501.59
514.286	15769.87
514.488	15950.09
514.69	16349.45
514.893	16695.55
515.095	16578.82
515.297	16716.03
515.499	16761.09
515.701	17115.39
515.904	17326.33
516.106	17377.53
516.308	17914.09
516.51	17750.26
516.712	17955.05
516.914	18397.42
517.116	18397.42
517.318	18417.89
517.52	18247.91
517.722	18747.62
517.925	19220.7
518.127	19323.1
518.329	19353.82
518.531	19284.19
518.733	19871.95
518.935	19972.3
519.136	19966.16
519.338	20365.51
519.54	20525.25
519.742	20877.51
519.944	20631.75
520.146	21432.5
520.348	21215.42
520.55	21364.92
520.752	21663.93
520.954	22124.72
521.155	21827.76
521.357	22364.33
521.559	22218.92
521.761	22683.81
521.963	22890.66
522.164	22888.61
522.366	23269.53
522.568	23070.88
522.77	23797.91
522.971	23656.6
523.173	23548.06
523.375	24107.15
523.576	23879.83
523.778	24150.16
523.98	24596.62
524.181	24635.53
524.383	24574.09
524.584	24932.48
524.786	24711.3
524.988	24459.4
525.189	25155.71
525.391	25186.43
525.592	25798.77
525.794	25897.08
525.995	25649.27
526.197	25997.43
526.398	25944.18
526.6	26323.05
526.801	26458.22
527.003	26447.98
527.204	26781.8
527.406	26951.78
527.607	26726.5
527.808	26921.06
528.01	26550.38
528.211	26710.12
528.412	27512.92
528.614	27119.71
528.815	27426.91
529.016	27603.03
529.218	27381.85
529.419	27246.69
529.62	27437.15
529.822	27191.39
530.023	27787.35
530.224	27598.94
530.425	27920.47
530.626	27498.59
530.828	27490.4
531.029	28192.85
531.23	27783.26
531.431	28051.54
531.632	27863.13
531.833	28026.96
532.035	28436.56
532.236	28242
532.437	28489.81
532.638	28231.76
532.839	28653.64
533.04	28405.84
533.241	27973.72
533.442	28602.44
533.643	28379.21
533.844	28475.47
534.045	28624.97
534.246	28407.89
534.447	28407.89
534.648	28424.27
534.849	28837.96
535.05	28428.37
535.251	28530.76
535.451	28481.61
535.652	28667.98
535.853	28862.54
536.054	28678.22
536.255	28622.92
536.456	28362.83
536.657	28772.42
536.857	28493.9
537.058	28450.89
537.259	28790.86
537.46	28526.67
537.66	28483.66
537.861	28811.34
538.062	28926.02
538.263	28889.16
538.463	28395.6
538.664	28803.14
538.865	28635.21
539.065	29179.97
539.266	28946.5
539.466	29091.91
539.667	28391.5
539.868	28956.74
540.068	28782.66
540.269	28385.36
540.469	28762.19
540.67	28504.14
540.87	28776.52
541.071	28725.32
541.271	28819.53
541.472	28696.65
541.672	28526.67
541.873	28549.2
542.073	28414.03
542.274	28790.86
542.474	28450.89
542.675	28594.25
542.875	28889.16
543.075	28874.82
543.276	28594.25
543.476	28805.19
543.676	28395.6
543.877	28606.54
544.077	28710.99
544.277	28305.49
544.478	28749.9
544.678	28592.2
544.878	28659.79
545.078	28641.35
545.279	28407.89
545.479	28682.31
545.679	28504.14
545.879	28354.64
546.079	28794.95
546.28	28766.28
546.48	28164.18
546.68	28721.23
546.88	28293.2
547.08	28485.71
547.28	28733.51
547.48	28342.35
547.68	28670.03
547.88	28198.99
548.081	28612.68
548.281	28741.71
548.481	28586.06
548.681	28665.93
548.881	28745.8
549.081	28522.57
549.28	28362.83
549.48	28708.94
549.68	28586.06
549.88	28870.73
550.08	28381.26
550.28	28471.37
550.48	28395.6
550.68	28737.61
550.88	28270.67
551.08	28633.16
551.279	28670.03
551.479	28334.16
551.679	28219.47
551.879	28411.98
552.079	28586.06
552.278	28207.19
552.478	28215.38
552.678	28534.86
552.878	28440.65
553.077	28362.83
553.277	27963.48
553.477	28479.57
553.676	28346.45
553.876	28319.82
554.076	28151.89
554.275	27969.62
554.475	27824.22
554.674	28137.55
554.874	28510.28
555.074	28043.35
555.273	28358.74
555.473	28289.1
555.672	27932.76
555.872	27994.2
556.071	28196.95
556.271	28151.89
556.47	28123.22
556.67	27969.62
556.869	28115.03
557.068	27953.24
557.268	27920.47
557.467	27920.47
557.667	27801.69
557.866	27910.23
558.065	27447.39
558.265	27633.75
558.464	27842.65
558.663	27725.91
558.863	27469.92
559.062	27914.33
559.261	27449.44
559.461	27576.41
559.66	27314.27
559.859	27517.02
560.058	27349.09
560.258	27551.84
560.457	27019.36
560.656	27367.52
560.855	26957.92
561.054	27279.46
561.253	27048.04
561.453	27156.58
561.652	27273.31
561.851	27111.52
562.05	27009.12
562.249	26837.09
562.448	27009.12
562.647	26546.28
562.846	26706.02
563.045	27115.62
563.244	26564.71
563.443	26964.07
563.642	26476.65
563.841	26538.09
564.04	26810.47
564.239	26675.3
564.438	26372.21
564.637	26454.12
564.836	26589.29
565.035	26386.54
565.234	26312.81
565.432	26200.18
565.631	25864.31
565.83	26417.26
566.029	25925.75
566.228	25993.33
566.427	25757.81
566.625	25675.9
566.824	25243.77
567.023	25593.98
567.222	24977.54
567.42	25614.46
567.619	25528.44
567.818	25477.24
568.016	25321.6
568.215	25321.6
568.414	25051.27
568.612	25348.22
568.811	25108.61
569.01	25161.86
569.208	25282.69
569.407	25288.83
569.605	24615.05
569.804	25063.55
570.002	24785.03
570.201	25133.18
570.4	24383.63
570.598	24430.73
570.797	24322.19
570.995	24596.62
571.193	24019.09
571.392	24541.32
571.59	24422.54
571.789	24158.35
571.987	24180.88
572.186	24096.91
572.384	23949.46
572.582	24193.17
572.781	24064.14
572.979	23419.03
573.177	23619.74
573.376	23728.28
573.574	23748.76
573.772	23478.43
573.971	23525.53
574.169	23529.62
574.367	23210.14
574.565	23492.76
574.763	23148.7
574.962	23400.6
575.16	23056.54
575.358	23154.85
575.556	22896.8
575.754	23228.57
575.952	22726.82
576.151	22821.03
576.349	22638.76
576.547	22601.9
576.745	22274.22
576.943	22456.49
577.141	22253.74
577.339	22304.94
577.537	22192.3
577.735	22255.79
577.933	22085.81
578.131	22470.83
578.329	22122.67
578.527	21893.3
578.725	22050.99
578.923	22272.17
579.121	21668.02
579.319	21711.03
579.516	21776.56
579.714	21762.23
579.912	21616.82
580.11	21590.2
580.308	21350.59
580.506	21287.1
580.704	20850.88
580.901	21305.53
581.099	21446.84
581.297	20951.23
581.495	21094.59
581.692	21240
581.89	20965.57
582.088	20910.27
582.285	20801.73
582.483	20758.72
582.681	20701.38
582.878	20801.73
583.076	20541.64
583.274	20345.03
583.471	20152.52
583.669	20455.62
583.866	20091.09
584.064	20361.42
584.262	20170.96
584.459	20009.17
584.657	20068.56
584.854	20101.33
585.052	19736.79
585.249	20033.74
585.447	19863.76
585.644	19931.34
585.841	19642.58
586.039	19984.59
586.236	19632.34
586.434	19251.42
586.631	19505.37
586.828	19439.83
587.026	19685.59
587.223	19378.39
587.42	19392.73
587.618	19200.22
587.815	19005.66
588.012	19189.98
588.21	19179.74
588.407	19138.78
588.604	18962.65
588.801	18794.72
588.999	18690.27
589.196	18850.02
589.393	18716.9
589.59	18512.1
589.787	18567.4
589.984	18540.77
590.182	18616.55
590.379	18741.47
590.576	18491.62
590.773	18534.63
590.97	18456.81
591.167	18288.87
591.364	18243.82
591.561	18129.13
591.758	17873.14
591.955	17875.18
592.152	17901.81
592.349	17711.35
592.546	18057.45
592.743	17770.74
592.94	17627.38
593.137	17707.25
593.334	17766.64
593.531	17375.48
593.727	17629.43
593.924	17492.21
594.121	17481.97
594.318	17729.78
594.515	17111.29
594.712	17385.72
594.908	17080.57
595.105	17273.08
595.302	16949.5
595.499	17307.9
595.696	17295.61
595.892	16967.93
596.089	17125.63
596.286	17002.75
596.482	16853.25
596.679	16814.34
596.876	16931.07
597.072	16703.75
597.269	16695.55
597.466	16580.87
597.662	16447.75
597.859	16699.65
598.055	16539.91
598.252	16218.38
598.448	16378.12
598.645	16111.88
598.841	16257.29
599.038	16255.24
599.234	16384.26
599.431	16097.55
599.627	15974.67
599.824	16091.4
600.02	16048.4
600.217	15923.47
600.413	15958.28
600.609	15794.45
600.806	15536.4
601.002	15784.21
601.198	15859.98
601.395	15565.07
601.591	15632.66
601.787	15526.16
601.984	15313.17
602.18	15505.68
602.376	15436.05
602.572	15583.51
602.769	15434
602.965	15178.01
603.161	15286.55
603.357	15147.29
603.553	14985.5
603.75	15028.51
603.946	15044.89
604.142	14891.29
604.338	14756.13
604.534	14866.72
604.73	14780.7
604.926	14721.31
605.122	14668.06
605.318	14563.62
605.514	14397.73
605.71	14672.16
605.906	14520.61
606.102	14432.55
606.298	14405.92
606.494	14459.17
606.69	14344.49
606.886	14530.85
607.082	14227.75
607.278	14119.21
607.474	14131.5
607.67	14082.35
607.866	14018.86
608.062	14092.58
608.257	13938.99
608.453	14041.39
608.649	13914.41
608.845	13953.32
609.041	13748.53
609.236	13703.47
609.432	14041.39
609.628	13654.32
609.824	13748.53
610.019	13547.83
610.215	13680.94
610.411	13510.96
610.606	13531.44
610.802	13502.77
610.998	13422.9
611.193	13429.04
611.389	13357.36
611.584	13279.54
611.78	13105.46
611.976	13596.98
612.171	13306.16
612.367	13416.76
612.562	13197.62
612.758	12892.48
612.953	13156.66
613.149	13369.65
613.344	12831.04
613.539	13226.29
613.735	13381.94
613.93	13195.57
614.126	13007.16
614.321	13175.09
614.517	13181.24
614.712	12853.56
614.907	12835.13
615.103	12783.93
615.298	12777.79
615.493	12814.65
615.688	12464.45
615.884	12847.42
616.079	12593.47
616.274	12835.13
616.47	12689.73
616.665	12745.02
616.86	12392.77
617.055	12484.93
617.25	12390.72
617.445	12462.4
617.641	12183.88
617.836	12478.79
618.031	12083.53
618.226	12419.39
618.421	12140.87
618.616	12083.53
618.811	12003.66
619.006	12474.69
619.201	11985.23
619.396	11852.11
619.591	11698.51
619.786	12136.77
619.981	11829.58
620.176	11878.73
620.371	11737.42
620.566	11737.42
620.761	11530.58
620.956	11702.61
621.151	11497.81
621.346	11475.28
621.541	11462.99
621.735	11692.37
621.93	11338.07
622.125	11422.03
622.32	11166.04
622.515	11075.93
622.709	11096.41
622.904	10953.05
623.099	10817.88
623.294	10885.47
623.488	10830.17
623.683	10756.44
623.878	10488.16
624.072	10660.19
624.267	10684.76
624.462	10557.79
624.656	10408.29
624.851	10508.64
625.046	10346.85
625.24	10402.15
625.435	10183.01
625.629	10178.92
625.824	10209.64
626.018	10127.72
626.213	9812.33
626.407	10006.89
626.602	9804.14
626.796	9918.82
626.991	9890.15
627.185	9732.46
627.38	9791.85
627.574	9568.62
627.768	9609.58
627.963	9687.4
628.157	9496.94
628.352	9548.14
628.546	9505.13
628.74	9466.22
628.935	9367.92
629.129	9271.67
629.323	9126.26
629.517	9070.97
629.712	9185.65
629.906	8903.03
630.1	9091.45
630.294	9120.12
630.489	9005.43
630.683	9038.2
630.877	8886.65
631.071	8806.78
631.265	8604.03
631.459	8737.15
631.653	8733.05
631.848	8565.12
632.042	8378.75
632.236	8571.26
632.43	8454.53
632.624	8542.59
632.818	8405.38
633.012	8239.49
633.206	8298.88
633.4	8440.19
633.594	8147.33
633.788	8169.86
633.982	8186.24
634.176	8114.56
634.369	7971.21
634.563	8089.99
634.757	7991.69
634.951	8065.41
635.145	8030.6
635.339	7825.8
635.533	7872.9
635.726	7887.24
635.92	7684.49
636.114	7891.34
636.308	7625.1
636.501	7704.97
636.695	7629.2
636.889	7485.84
637.083	7612.81
637.276	7532.94
637.47	7412.11
637.664	7362.96
637.857	7494.03
638.051	7266.71
638.244	7201.17
638.438	7313.81
638.632	7086.48
638.825	7016.85
639.019	7156.11
639.212	7102.87
639.406	7051.67
639.599	6922.65
639.793	7031.19
639.986	6762.9
640.18	6842.78
640.373	6791.58
640.567	6693.27
640.76	6689.18
640.954	6582.68
641.147	6525.34
641.34	6586.78
641.534	6666.65
641.727	6556.06
641.92	6539.68
642.114	6498.72
642.307	6324.64
642.5	6347.17
642.694	6263.2
642.887	6232.48
643.08	6381.98
643.273	6265.25
643.467	6175.14
643.66	6179.23
643.853	6050.21
644.046	5915.05
644.239	5863.85
644.432	5919.14
644.626	6039.97
644.819	6001.06
645.012	5986.72
645.205	5779.88
645.398	5953.96
645.591	5624.23
645.784	5816.74
645.977	5794.22
646.17	5652.91
646.363	5669.29
646.556	5646.76
646.749	5613.99
646.942	5405.1
647.135	5501.36
647.328	5489.07
647.521	5566.89
647.714	5327.28
647.907	5368.24
648.099	5362.09
648.292	5282.22
648.485	5319.09
648.678	5210.54
648.871	5274.03
649.064	5198.26
649.256	5110.19
649.449	4972.98
649.642	5228.98
649.835	5032.37
650.027	5020.08
650.22	5083.57
650.413	5009.84
650.605	4841.91
650.798	4991.41
650.991	4936.12
651.183	4993.46
651.376	4676.02
651.568	4860.34
651.761	4899.25
651.954	4807.09
652.146	4831.67
652.339	4778.42
652.531	4700.6
652.724	4702.65
652.916	4637.11
653.109	4694.46
653.301	4565.43
653.494	4655.54
653.686	4633.02
653.879	4450.75
654.071	4405.69
654.263	4354.49
654.456	4411.84
654.648	4450.75
654.84	4309.44
655.033	4223.42
655.225	4264.38
655.417	4315.58
655.61	4352.45
655.802	4139.46
655.994	4182.46
656.186	4321.73
656.379	4248
656.571	4225.47
656.763	4057.54
656.955	4092.35
657.148	4088.26
657.34	3996.1
657.532	3938.76
657.724	4047.3
657.916	3946.95
658.108	3944.9
658.3	3871.17
658.492	3998.15
658.684	3926.47
658.876	3914.18
659.068	3828.17
659.26	3891.65
659.452	3819.97
659.644	3824.07
659.836	3826.12
660.028	3785.16
660.22	3801.54
660.412	3762.63
660.604	3725.77
660.796	3729.86
660.988	3594.7
661.18	3639.75
661.372	3490.25
661.563	3684.81
661.755	3490.25
661.947	3439.05
662.139	3394
662.331	3533.26
662.522	3346.89
662.714	3420.62
662.906	3551.69
663.097	3447.24
663.289	3320.27
663.481	3406.28
663.673	3402.19
663.864	3289.55
664.056	3307.98
664.247	3324.37
664.439	3164.62
664.631	3312.08
664.822	3303.89
665.014	3146.19
665.205	3228.11
665.397	3189.2
665.588	3279.31
665.78	3228.11
665.971	3107.28
666.163	3144.14
666.354	3183.06
666.546	2980.31
666.737	2937.3
666.929	3033.55
667.12	3023.31
667.311	2957.78
667.503	2980.31
667.694	3062.23
667.885	3049.94
668.077	2980.31
668.268	2808.28
668.459	3015.12
668.651	2992.59
668.842	2812.37
669.033	2884.05
669.224	2978.26
669.416	2968.02
669.607	2933.2
669.798	2826.71
669.989	2879.96
670.18	2798.04
670.371	2591.19
670.563	2810.33
670.754	2830.8
670.945	2644.44
671.136	2761.17
671.327	2769.37
671.518	2707.93
671.709	2814.42
671.9	2769.37
672.091	2718.17
672.282	2619.86
672.473	2720.21
672.664	2691.54
672.855	2664.92
673.046	2660.82
673.237	2695.64
673.428	2615.77
673.619	2599.38
673.809	2572.76
674	2650.58
674.191	2550.23
674.382	2462.17
674.573	2607.58
674.764	2548.19
674.954	2634.2
675.145	2603.48
675.336	2525.66
675.527	2480.6
675.717	2546.14
675.908	2415.07
676.099	2496.99
676.289	2507.23
676.48	2472.41
676.671	2425.31
676.861	2562.52
677.052	2413.02
677.243	2466.27
677.433	2335.2
677.624	2427.35
677.814	2447.83
678.005	2349.53
678.195	2478.55
678.386	2410.97
678.576	2449.88
678.767	2376.16
678.957	2249.18
679.148	2421.21
679.338	2333.15
679.529	2333.15
679.719	2259.42
679.909	2445.79
680.1	2290.14
680.29	2380.25
680.481	2390.49
680.671	2349.53
680.861	2408.92
681.052	2324.96
681.242	2265.57
681.432	2230.75
681.622	2240.99
681.813	2267.61
682.003	2269.66
682.193	2310.62
682.383	2472.41
682.573	2120.16
682.764	2353.63
682.954	2408.92
683.144	2304.48
683.334	2310.62
683.524	2177.5
683.714	2138.59
683.904	2238.94
684.094	2120.16
684.284	2234.85
684.474	2347.48
684.664	2257.37
684.854	2273.76
685.044	2240.99
685.234	2146.78
685.424	2163.17
685.614	2214.37
685.804	2185.69
685.994	2210.27
686.184	2197.98
686.374	2210.27
686.564	2202.08
686.753	2267.61
686.943	2144.74
687.133	2202.08
687.323	2126.3
687.513	2138.59
687.702	2130.4
687.892	2167.26
688.082	2085.34
688.272	2175.45
688.461	2128.35
688.651	2075.1
688.841	2136.54
689.03	2068.96
689.22	2193.89
689.41	2023.91
689.599	2079.2
689.789	2193.89
689.979	2126.3
690.168	2204.13
690.358	2064.86
690.547	1952.23
690.737	2148.83
690.926	2220.51
691.116	2079.2
691.305	2169.31
691.495	1978.85
691.684	2116.06
691.874	2175.45
692.063	2095.58
692.252	2036.19
692.442	1962.47
692.631	1999.33
692.82	2077.15
693.01	1997.28
693.199	2034.14
693.388	2050.53
693.578	2050.53
693.767	2028
693.956	1972.71
694.146	2142.69
694.335	1978.85
694.524	1941.99
694.713	2120.16
694.902	1970.66
695.092	2124.26
695.281	1960.42
695.47	2007.52
695.659	1972.71
695.848	2019.81
696.037	2007.52
696.226	2007.52
696.415	2060.77
696.604	2109.92
696.793	2136.54
696.982	1933.79
697.171	2081.25
697.36	2066.91
697.549	2050.53
697.738	2042.34
697.927	1991.14
698.116	1944.03
698.305	1974.75
698.494	1909.22
698.683	2064.86
698.872	1991.14
699.061	1997.28
699.25	1872.36
699.438	2114.02
699.627	1937.89
699.816	1931.75
700.005	2136.54
700.193	1917.41
700.382	2087.39
700.571	2005.47
700.76	1987.04
700.948	2050.53
701.137	2028
701.326	1999.33
701.514	1993.19
701.703	2017.76
701.892	1968.61
702.08	1999.33
702.269	2011.62
702.457	1974.75
702.646	2032.1
702.834	2011.62
703.023	1946.08
703.212	2034.14
703.4	1931.75
703.589	1964.51
703.777	1907.17
703.965	2017.76
704.154	1968.61
704.342	1931.75
704.531	1933.79
704.719	1976.8
704.907	2003.43
705.096	1878.5
705.284	2030.05
705.472	1898.98
705.661	1892.84
705.849	1896.93
706.037	1946.08
706.226	1909.22
706.414	1870.31
706.602	1870.31
706.79	1909.22
706.979	1841.64
707.167	1812.96
707.355	1995.23
707.543	1919.46
707.731	1917.41
707.919	1878.5
708.107	1870.31
708.296	1796.58
708.484	1894.88
708.672	1905.12
708.86	1939.94
709.048	1817.06
709.236	1755.62
709.424	1855.97
709.612	1782.24
709.8	1837.54
709.988	1821.16
710.176	1753.57
710.364	1989.09
710.551	1819.11
710.739	1825.25
710.927	1847.78
711.115	1712.61
711.303	1767.91
711.491	1667.56
711.679	1767.91
711.866	1622.5
712.054	1823.2
712.242	1761.77
712.43	1735.14
712.617	1808.87
712.805	1698.28
712.993	1731.05
713.181	1659.37
713.368	1778.15
713.556	1651.17
713.744	1700.33
713.931	1731.05
714.119	1681.89
714.306	1645.03
714.494	1657.32
714.682	1657.32
714.869	1651.17
715.057	1622.5
715.244	1745.38
715.432	1651.17
715.619	1651.17
715.807	1700.33
715.994	1632.74
716.182	1651.17
716.369	1673.7
716.556	1614.31
716.744	1681.89
716.931	1573.35
717.119	1559.02
717.306	1634.79
717.493	1690.09
717.681	1546.73
717.868	1624.55
718.055	1544.68
718.242	1587.69
718.43	1532.39
718.617	1524.2
718.804	1509.86
718.991	1542.63
719.179	1589.74
719.366	1593.83
719.553	1491.43
719.74	1554.92
719.927	1579.5
720.114	1540.58
720.301	1518.06
720.488	1612.26
720.676	1585.64
720.863	1513.96
721.05	1473
721.237	1516.01
721.424	1552.87
721.611	1511.91
721.798	1454.57
721.985	1436.14
722.172	1526.25
722.358	1528.3
722.545	1411.56
722.732	1403.37
722.919	1438.19
723.106	1456.62
723.293	1421.8
723.48	1378.79
723.667	1458.67
723.853	1495.53
724.04	1579.5
724.227	1436.14
724.414	1372.65
724.6	1374.7
724.787	1370.6
724.974	1501.67
725.161	1419.75
725.347	1354.22
725.534	1481.19
725.72	1331.69
725.907	1311.21
726.094	1389.03
726.28	1403.37
726.467	1354.22
726.653	1376.75
726.84	1370.6
727.027	1354.22
727.213	1370.6
727.4	1331.69
727.586	1309.16
727.773	1341.93
727.959	1407.47
728.145	1386.99
728.332	1429.99
728.518	1311.21
728.705	1366.51
728.891	1401.32
729.077	1354.22
729.264	1282.54
729.45	1333.74
729.636	1397.23
729.823	1253.87
730.009	1229.29
730.195	1440.23
730.382	1294.83
730.568	1214.96
730.754	1317.36
730.94	1307.12
731.126	1251.82
731.313	1264.11
731.499	1214.96
731.685	1231.34
731.871	1253.87
732.057	1282.54
732.243	1188.33
732.429	1317.36
732.615	1247.72
732.801	1307.12
732.987	1307.12
733.173	1165.81
733.359	1225.2
733.545	1288.68
733.731	1229.29
733.917	1278.44
734.103	1178.09
734.289	1354.22
734.475	1145.33
734.661	1202.67
734.847	1272.3
735.033	1210.86
735.219	1202.67
735.404	1274.35
735.59	1223.15
735.776	1143.28
735.962	1190.38
736.148	1241.58
736.333	1253.87
736.519	1206.77
736.705	1231.34
736.89	1223.15
737.076	1155.57
737.262	1182.19
737.447	1147.37
737.633	1229.29
737.819	1163.76
738.004	1161.71
738.19	1178.09
738.375	1214.96
738.561	1157.61
738.747	1137.13
738.932	1096.18
739.118	1196.53
739.303	1139.18
739.489	1067.5
739.674	993.78
739.859	1073.65
740.045	1087.98
740.23	1153.52
740.416	1108.46
740.601	1126.89
740.786	1155.57
740.972	1057.26
741.157	1028.59
741.342	991.73
741.528	1034.74
741.713	969.2
741.898	1067.5
742.084	1028.59
742.269	1108.46
742.454	1036.78
742.639	1110.51
742.824	985.58
743.01	1004.02
743.195	1116.65
743.38	1038.83
743.565	1145.33
743.75	1102.32
743.935	993.78
744.12	1061.36
744.305	1034.74
744.49	1063.41
744.675	913.91
744.86	1010.16
745.045	950.77
745.23	1051.12
745.415	1026.54
745.6	920.05
745.785	1026.54
745.97	971.25
746.155	924.15
746.34	975.35
746.525	1012.21
746.71	938.48
746.895	971.25
747.079	993.78
747.264	934.39
747.449	905.71
747.634	885.23
747.819	1024.5
748.003	920.05
748.188	952.82
748.373	924.15
748.557	819.7
748.742	891.38
748.927	891.38
749.111	956.91
749.296	895.47
749.481	825.84
749.665	811.51
749.85	854.51
750.034	864.75
750.219	791.03
750.404	827.89
750.588	901.62
750.773	856.56
750.957	739.83
751.141	793.08
751.326	883.19
751.51	799.22
751.695	889.33
751.879	772.6
752.064	850.42
752.248	846.32
752.432	770.55
752.617	739.83
752.801	731.64
752.985	801.27
753.17	786.93
753.354	733.68
753.538	780.79
753.722	735.73
753.907	719.35
754.091	674.29
754.275	721.4
754.459	799.22
754.643	664.05
754.828	713.21
755.012	782.84
755.196	739.83
755.38	666.1
755.564	637.43
755.748	678.39
755.932	762.36
756.116	627.19
756.3	604.66
756.484	709.11
756.668	784.88
756.852	639.48
757.036	655.86
757.22	723.44
757.404	739.83
757.588	664.05
757.772	614.9
757.956	702.97
758.14	553.46
758.323	614.9
758.507	750.07
758.691	643.57
758.875	688.63
759.059	563.7
759.242	674.29
759.426	559.61
759.61	575.99
759.794	602.61
759.977	604.66
760.161	621.05
760.345	567.8
760.528	639.48
760.712	629.24
760.895	526.84
761.079	637.43
761.263	588.28
761.446	625.14
761.63	590.33
761.813	494.07
761.997	582.14
762.18	602.61
762.364	569.85
762.547	590.33
762.731	608.76
762.914	543.22
763.098	532.98
763.281	571.9
763.464	569.85
763.648	588.28
763.831	580.09
764.015	522.74
764.198	535.03
764.381	535.03
764.564	469.5
764.748	623.09
764.931	567.8
765.114	563.7
765.297	532.98
765.481	604.66
765.664	475.64
765.847	606.71
766.03	508.41
766.213	614.9
766.397	563.7
766.58	481.78
766.763	528.89
766.946	516.6
767.129	535.03
767.312	584.18
767.495	471.54
767.678	506.36
767.861	520.7
768.044	545.27
768.227	549.37
768.41	494.07
768.593	545.27
768.776	532.98
768.959	516.6
769.142	487.93
769.324	471.54
769.507	436.73
769.69	424.44
769.873	477.69
770.056	465.4
770.239	401.91
770.421	465.4
770.604	522.74
770.787	459.26
770.97	446.97
771.152	494.07
771.335	451.07
771.518	504.31
771.7	524.79
771.883	440.83
772.066	442.87
772.248	401.91
772.431	442.87
772.613	434.68
772.796	406.01
772.978	479.74
773.161	500.22
773.343	487.93
773.526	408.06
773.708	418.3
773.891	438.78
774.073	430.59
774.256	365.05
774.438	451.07
774.621	475.64
774.803	469.5
774.985	393.72
775.168	414.2
775.35	391.67
775.532	467.45
775.715	473.59
775.897	440.83
776.079	367.1
776.261	393.72
776.444	434.68
776.626	369.15
776.808	391.67
776.99	410.11
777.173	401.91
777.355	369.15
777.537	373.24
777.719	395.77
777.901	350.71
778.083	334.33
778.265	309.76
778.447	389.63
778.629	303.61
778.811	307.71
778.993	350.71
779.175	307.71
779.357	403.96
779.539	303.61
779.721	393.72
779.903	385.53
780.085	385.53
780.267	352.76
780.449	383.48
780.631	295.42
780.812	330.23
780.994	313.85
781.176	266.75
781.358	287.23
781.54	360.95
781.721	307.71
781.903	350.71
782.085	311.8
782.267	289.28
782.448	283.13
782.63	281.08
782.812	352.76
782.993	291.32
783.175	338.43
783.357	236.03
783.538	373.24
783.72	363
783.901	322.04
784.083	285.18
784.264	260.6
784.446	301.56
784.627	266.75
784.809	299.52
784.99	293.37
785.172	295.42
785.353	293.37
785.535	266.75
785.716	371.19
785.897	242.17
786.079	307.71
786.26	305.66
786.441	252.41
786.623	250.36
786.804	221.69
786.985	252.41
787.167	260.6
787.348	272.89
787.529	309.76
787.71	264.7
787.891	281.08
788.073	211.45
788.254	313.85
788.435	260.6
788.616	328.19
788.797	193.02
788.978	266.75
789.159	203.26
789.34	231.93
789.522	246.27
789.703	213.5
789.884	190.97
790.065	233.98
790.246	262.65
790.427	221.69
790.607	262.65
790.788	238.08
790.969	242.17
791.15	207.36
791.331	160.25
791.512	156.16
791.693	184.83
791.874	129.53
792.054	195.07
792.235	229.88
792.416	186.88
792.597	274.94
792.778	195.07
792.958	229.88
793.139	227.84
793.32	221.69
793.5	174.59
793.681	135.68
793.862	236.03
794.042	223.74
794.223	160.25
794.404	195.07
794.584	205.31
794.765	190.97
794.945	111.1
795.126	166.4
795.306	156.16
795.487	184.83
795.667	195.07
795.848	225.79
796.028	168.45
796.209	201.21
796.389	205.31
796.57	211.45
796.75	178.69
796.93	117.25
797.111	141.82
797.291	254.46
797.471	100.86
797.652	193.02
797.832	131.58
798.012	172.54
798.192	61.95
798.373	123.39
798.553	195.07
798.733	225.79
798.913	152.06
799.093	139.77
799.274	246.27
799.454	205.31
799.634	199.16
799.814	195.07
799.994	225.79
800.174	186.88
800.354	143.87
800.534	135.68
800.714	82.43
800.894	158.21
801.074	154.11
801.254	166.4
801.434	160.25
801.614	160.25
801.794	117.25
801.974	307.71
802.154	123.39
802.334	104.96
802.514	152.06
802.693	145.92
802.873	160.25
803.053	178.69
803.233	131.58
803.413	164.35
803.592	107.01
803.772	156.16
803.952	168.45
804.131	143.87
804.311	168.45
804.491	92.67
804.67	41.47
804.85	162.3
805.03	109.05
805.209	201.21
805.389	68.09
805.568	115.2
805.748	152.06
805.928	66.05
806.107	172.54
806.287	152.06
806.466	164.35
806.646	94.72
806.825	72.19
807.004	152.06
807.184	162.3
807.363	178.69
807.543	125.44
807.722	156.16
807.901	186.88
808.081	131.58
808.26	121.34
808.439	98.81
808.619	158.21
808.798	158.21
808.977	66.05
809.156	49.66
809.336	70.14
809.515	107.01
809.694	90.62
809.873	80.38
810.052	137.73
810.231	190.97
810.411	221.69
810.59	84.48
810.769	131.58
810.948	205.31
811.127	94.72
811.306	113.15
811.485	117.25
811.664	197.12
811.843	115.2
812.022	74.24
812.201	121.34
812.38	86.53
812.559	107.01
812.737	170.49
812.916	133.63
813.095	113.15
813.274	82.43
813.453	152.06
813.632	147.97
813.811	107.01
813.989	123.39
814.168	96.77
814.347	88.57
814.526	109.05
814.704	160.25
814.883	111.1
815.062	107.01
815.24	147.97
815.419	92.67
815.598	123.39
815.776	80.38
815.955	164.35
816.133	18.94
816.312	137.73
816.49	160.25
816.669	141.82
816.847	84.48
817.026	-3.58
817.204	98.81
817.383	92.67
817.561	64
817.74	37.38
817.918	133.63
818.097	125.44
818.275	135.68
818.453	98.81
818.632	123.39
818.81	133.63
818.988	137.73
819.167	14.85
819.345	94.72
819.523	104.96
819.701	117.25
819.879	141.82
820.058	139.77
820.236	59.9
820.414	84.48
820.592	139.77
820.77	102.91
820.948	70.14
821.127	127.49
821.305	100.86
821.483	80.38
821.661	27.14
821.839	96.77
822.017	49.66
822.195	123.39
822.373	123.39
822.551	43.52
822.729	61.95
822.907	25.09
823.085	84.48
823.262	82.43
823.44	119.29
823.618	72.19
823.796	109.05
823.974	37.38
824.152	127.49
824.329	102.91
824.507	53.76
824.685	20.99
824.863	72.19
825.04	102.91
825.218	135.68
825.396	137.73
825.574	100.86
825.751	55.81
825.929	92.67
826.107	117.25
826.284	80.38
826.462	90.62
826.639	98.81
826.817	68.09
826.994	121.34
827.172	74.24
827.349	156.16
827.527	135.68
827.704	35.33
827.882	90.62
828.059	33.28
828.237	109.05
828.414	111.1
828.591	-5.63
828.769	94.72
828.946	41.47
829.124	98.81
829.301	86.53
829.478	12.8
829.655	53.76
829.833	47.62
830.01	74.24
830.187	100.86
830.364	16.9
830.542	86.53
830.719	8.7
830.896	96.77
831.073	74.24
831.25	23.04
831.427	80.38
831.604	72.19
831.782	41.47
831.959	47.62
832.136	74.24
832.313	45.57
832.49	43.52
832.667	33.28
832.844	109.05
833.021	61.95
833.198	66.05
833.374	20.99
833.551	33.28
833.728	55.81
833.905	158.21
834.082	23.04
834.259	6.66
834.436	94.72
834.612	51.71
834.789	61.95
834.966	6.66
835.143	109.05
835.319	47.62
835.496	76.29
835.673	100.86
835.85	94.72
836.026	0.51
836.203	74.24
836.38	8.7
836.556	90.62
836.733	47.62
836.909	33.28
837.086	31.23
837.262	59.9
837.439	31.23
837.616	8.7
837.792	64
837.968	43.52
838.145	59.9
838.321	82.43
838.498	131.58
838.674	80.38
838.851	25.09
839.027	-30.21
839.203	49.66
839.38	123.39
839.556	84.48
839.732	72.19
839.909	80.38
840.085	145.92
840.261	18.94
840.437	68.09
840.614	0.51
840.79	80.38
840.966	100.86
841.142	98.81
841.318	51.71
841.494	117.25
841.671	29.18
841.847	76.29
842.023	2.56
842.199	61.95
842.375	47.62
842.551	23.04
842.727	45.57
842.903	4.61
843.079	55.81
843.255	43.52
843.431	31.23
843.607	90.62
843.783	45.57
843.959	31.23
844.134	78.33
844.31	14.85
844.486	31.23
844.662	39.42
844.838	37.38
845.013	70.14
845.189	20.99
845.365	45.57
845.541	55.81
845.716	20.99
845.892	98.81
846.068	96.77
846.244	2.56
846.419	51.71
846.595	68.09
846.77	41.47
846.946	12.8
847.122	59.9
847.297	51.71
847.473	68.09
847.648	0.51
847.824	66.05
847.999	20.99
848.175	70.14
848.35	102.91
848.526	49.66
848.701	64
848.876	66.05
849.052	-5.63
849.227	35.33
849.403	129.53
849.578	31.23
849.753	59.9
849.929	53.76
850.104	94.72
850.279	47.62
850.454	115.2
850.63	8.7
850.805	2.56
850.98	88.57
851.155	111.1
851.33	-13.82
851.505	-3.58
851.681	27.14
851.856	14.85
852.031	47.62
852.206	35.33
852.381	-17.92
852.556	49.66
852.731	51.71
852.906	51.71
853.081	88.57
853.256	14.85
853.431	43.52
853.606	18.94
853.781	27.14
853.956	12.8
854.131	-22.02
854.305	-3.58
854.48	-17.92
854.655	61.95
854.83	66.05
855.005	80.38
855.18	6.66
855.354	-3.58
855.529	68.09
855.704	39.42
855.879	35.33
856.053	49.66
856.228	20.99
856.403	31.23
856.577	86.53
856.752	4.61
856.926	78.33
857.101	27.14
857.276	23.04
857.45	-26.11
857.625	66.05
857.799	-26.11
857.974	72.19
858.148	16.9
858.323	119.29
858.497	-9.73
858.672	78.33
858.846	57.86
859.02	33.28
859.195	23.04
859.369	31.23
859.543	70.14
859.718	43.52
859.892	18.94
860.066	37.38
860.241	25.09
860.415	-7.68
860.589	55.81
860.763	96.77
860.938	2.56
861.112	35.33
861.286	53.76
861.46	55.81
861.634	35.33
861.808	-7.68
861.982	12.8
862.157	12.8
862.331	43.52
862.505	39.42
862.679	-30.21
862.853	53.76
863.027	41.47
863.201	68.09
863.375	20.99
863.549	12.8
863.722	51.71
863.896	55.81
864.07	-17.92
864.244	43.52
864.418	20.99
864.592	47.62
864.766	-50.69
864.939	39.42
865.113	-1.54
865.287	57.86
865.461	-17.92
865.634	78.33
865.808	37.38
865.982	90.62
866.156	-5.63
866.329	39.42
866.503	20.99
866.676	135.68
866.85	49.66
867.024	31.23
867.197	96.77
867.371	-40.45
867.544	10.75
867.718	20.99
867.891	90.62
868.065	31.23
868.238	47.62
868.412	6.66
868.585	-24.06
868.759	27.14
868.932	88.57
869.105	72.19
869.279	-1.54
869.452	61.95
869.625	-22.02
869.799	16.9
869.972	-7.68
870.145	16.9
870.319	-42.5
870.492	119.29
870.665	39.42
870.838	23.04
871.011	6.66
871.185	66.05
871.358	6.66
871.531	82.43
871.704	27.14
871.877	49.66
872.05	-9.73
872.223	-26.11
872.396	20.99
872.569	33.28
872.742	12.8
872.915	25.09
873.088	80.38
873.261	16.9
873.434	-19.97
873.607	39.42
873.78	35.33
873.953	-5.63
874.126	12.8
874.299	76.29
874.471	-11.78
874.644	8.7
874.817	35.33
874.99	41.47
875.163	45.57
875.335	31.23
875.508	61.95
875.681	-24.06
875.853	0.51
876.026	27.14
876.199	-1.54
876.371	66.05
876.544	25.09
876.717	84.48
876.889	12.8
877.062	16.9
877.234	29.18
877.407	12.8
877.579	-3.58
877.752	84.48
877.924	27.14
878.097	4.61
878.269	6.66
878.442	115.2
878.614	-11.78
878.786	66.05
878.959	39.42
879.131	12.8
879.303	61.95
879.476	8.7
879.648	66.05
879.82	25.09
879.993	43.52
880.165	70.14
880.337	-54.78
880.509	45.57
880.681	4.61
880.854	31.23
881.026	-5.63
881.198	41.47
881.37	80.38
881.542	-13.82
881.714	-5.63
881.886	8.7
882.058	-65.02
882.23	86.53
882.402	-1.54
882.574	78.33
882.746	66.05
882.918	14.85
883.09	12.8
883.262	47.62
883.434	25.09
883.606	27.14
883.778	23.04
883.95	45.57
884.122	25.09
884.293	12.8
884.465	31.23
884.637	61.95
884.809	-9.73
884.98	49.66
885.152	-56.83
885.324	84.48
885.496	57.86
885.667	-44.54
885.839	-17.92
886.011	35.33
886.182	23.04
886.354	45.57
886.525	-11.78
886.697	-1.54
886.869	12.8
887.04	43.52
887.212	78.33
887.383	109.05
887.555	16.9
887.726	18.94
887.897	74.24
888.069	-40.45
888.24	27.14
888.412	-7.68
888.583	39.42
888.754	-1.54
888.926	-38.4
889.097	45.57
889.268	0.51
889.44	61.95
889.611	8.7
889.782	-26.11
889.953	-40.45
890.125	12.8
890.296	66.05
890.467	-30.21
890.638	10.75
890.809	76.29
890.98	14.85
891.151	37.38
891.323	33.28
891.494	41.47
891.665	59.9
891.836	-19.97
892.007	-28.16
892.178	18.94
892.349	31.23
892.52	8.7
892.691	2.56
892.862	-1.54
893.032	43.52
893.203	59.9
893.374	39.42
893.545	88.57
893.716	41.47
893.887	8.7
894.057	-3.58
894.228	25.09
894.399	-52.74
894.57	-1.54
894.74	-22.02
894.911	0.51
895.082	6.66
895.253	8.7
895.423	27.14
895.594	74.24
895.764	-54.78
895.935	-38.4
896.106	14.85
896.276	-32.26
896.447	57.86
896.617	6.66
896.788	16.9
896.958	129.53
897.129	33.28
897.299	25.09
897.47	20.99
897.64	10.75
897.81	80.38
897.981	51.71
898.151	12.8
898.322	33.28
898.492	72.19
898.662	64
898.832	27.14
899.003	23.04
899.173	-54.78
899.343	-26.11
899.513	-69.12
