Data from USB4F104151__189__13-59-12-018.txt Node

Date: Thu Mar 13 13:59:12 EDT 2025
User: louis
Spectrometer: USB4F10415
Trigger mode: 4
Integration Time (sec): 1.000000E-2
Scans to average: 1
Electric dark correction enabled: true
Nonlinearity correction enabled: false
Boxcar width: 0
XAxis mode: Wavelengths
Number of Pixels in Spectrum: 3648
>>>>>Begin Spectral Data<<<<<
178.204	-65.53
178.424	-65.53
178.644	-65.53
178.864	-79.87
179.084	12.29
179.304	18.43
179.524	8.19
179.744	-32.77
179.964	32.77
180.184	-2.05
180.404	-47.1
180.624	24.58
180.844	-4.1
181.064	12.29
181.283	-20.48
181.503	-20.48
181.723	30.72
181.943	4.1
182.163	-18.43
182.383	-53.25
182.602	-24.58
182.822	16.38
183.042	75.77
183.262	-22.53
183.482	6.14
183.701	-12.29
183.921	36.86
184.141	38.91
184.361	18.43
184.58	49.15
184.8	18.43
185.02	-28.67
185.239	53.25
185.459	34.82
185.679	32.77
185.898	12.29
186.118	32.77
186.338	8.19
186.557	61.44
186.777	43.01
186.997	55.3
187.216	20.48
187.436	24.58
187.655	38.91
187.875	-28.67
188.095	-36.86
188.314	32.77
188.534	-6.14
188.753	-12.29
188.973	38.91
189.192	94.21
189.412	12.29
189.631	-4.1
189.851	6.14
190.07	-26.62
190.29	2.05
190.509	22.53
190.729	-28.67
190.948	4.1
191.168	38.91
191.387	12.29
191.607	59.39
191.826	-14.34
192.045	-14.34
192.265	16.38
192.484	-16.38
192.704	-40.96
192.923	-45.06
193.142	-22.53
193.362	22.53
193.581	61.44
193.8	24.58
194.02	4.1
194.239	53.25
194.458	20.48
194.678	55.3
194.897	69.63
195.116	-45.06
195.335	45.06
195.555	43.01
195.774	6.14
195.993	-18.43
196.212	28.67
196.432	-22.53
196.651	-4.1
196.87	-20.48
197.089	6.14
197.308	22.53
197.528	12.29
197.747	110.59
197.966	-12.29
198.185	-12.29
198.404	45.06
198.623	28.67
198.842	4.1
199.062	6.14
199.281	36.86
199.5	-51.2
199.719	38.91
199.938	16.38
200.157	36.86
200.376	22.53
200.595	-49.15
200.814	6.14
201.033	57.34
201.252	-32.77
201.471	-32.77
201.69	-4.1
201.909	12.29
202.128	18.43
202.347	-4.1
202.566	79.87
202.785	4.1
203.004	28.67
203.223	26.62
203.442	40.96
203.661	-51.2
203.879	30.72
204.098	34.82
204.317	-30.72
204.536	43.01
204.755	-16.38
204.974	77.82
205.193	-2.05
205.411	81.92
205.63	-14.34
205.849	-28.67
206.068	8.19
206.287	-51.2
206.505	8.19
206.724	57.34
206.943	-38.91
207.162	51.2
207.381	0
207.599	-18.43
207.818	-32.77
208.037	20.48
208.255	-16.38
208.474	-4.1
208.693	-20.48
208.911	10.24
209.13	83.97
209.349	-86.01
209.567	-45.06
209.786	14.34
210.005	59.39
210.223	94.21
210.442	32.77
210.661	22.53
210.879	-45.06
211.098	-28.67
211.316	22.53
211.535	20.48
211.753	-8.19
211.972	34.82
212.191	16.38
212.409	34.82
212.628	16.38
212.846	34.82
213.065	-38.91
213.283	12.29
213.502	51.2
213.72	-28.67
213.938	-18.43
214.157	32.77
214.375	71.68
214.594	-32.77
214.812	20.48
215.031	71.68
215.249	55.3
215.467	20.48
215.686	53.25
215.904	-10.24
216.122	-4.1
216.341	110.59
216.559	6.14
216.778	53.25
216.996	20.48
217.214	-51.2
217.432	-20.48
217.651	-2.05
217.869	-20.48
218.087	-2.05
218.306	2.05
218.524	14.34
218.742	-28.67
218.96	116.73
219.179	-4.1
219.397	24.58
219.615	-24.58
219.833	24.58
220.051	2.05
220.27	40.96
220.488	-28.67
220.706	49.15
220.924	-38.91
221.142	45.06
221.36	-16.38
221.578	-22.53
221.796	-4.1
222.015	67.58
222.233	-43.01
222.451	59.39
222.669	4.1
222.887	40.96
223.105	-10.24
223.323	28.67
223.541	18.43
223.759	4.1
223.977	28.67
224.195	106.49
224.413	14.34
224.631	38.91
224.849	-43.01
225.067	24.58
225.285	-6.14
225.503	-30.72
225.721	-96.25
225.939	-20.48
226.157	-63.49
226.375	24.58
226.592	55.3
226.81	36.86
227.028	53.25
227.246	4.1
227.464	14.34
227.682	36.86
227.9	-30.72
228.117	34.82
228.335	40.96
228.553	49.15
228.771	-8.19
228.989	-43.01
229.206	34.82
229.424	-26.62
229.642	4.1
229.86	20.48
230.077	26.62
230.295	32.77
230.513	45.06
230.731	38.91
230.948	63.49
231.166	-4.1
231.384	12.29
231.601	-12.29
231.819	18.43
232.037	45.06
232.254	10.24
232.472	6.14
232.689	-6.14
232.907	69.63
233.125	-8.19
233.342	18.43
233.56	-36.86
233.777	-24.58
233.995	-40.96
234.213	8.19
234.43	2.05
234.648	22.53
234.865	-57.34
235.083	55.3
235.3	32.77
235.518	-4.1
235.735	73.73
235.953	26.62
236.17	14.34
236.388	2.05
236.605	-45.06
236.822	69.63
237.04	36.86
237.257	18.43
237.475	-51.2
237.692	30.72
237.909	-24.58
238.127	12.29
238.344	-45.06
238.562	-34.82
238.779	-36.86
238.996	51.2
239.214	6.14
239.431	38.91
239.648	-36.86
239.865	36.86
240.083	-12.29
240.3	22.53
240.517	36.86
240.735	32.77
240.952	20.48
241.169	63.49
241.386	77.82
241.603	22.53
241.821	-18.43
242.038	-38.91
242.255	14.34
242.472	-55.3
242.689	49.15
242.907	-10.24
243.124	75.77
243.341	67.58
243.558	6.14
243.775	57.34
243.992	51.2
244.209	34.82
244.426	45.06
244.643	4.1
244.86	-2.05
245.078	49.15
245.295	67.58
245.512	6.14
245.729	-40.96
245.946	49.15
246.163	26.62
246.38	-26.62
246.597	43.01
246.814	69.63
247.031	45.06
247.248	-51.2
247.464	-77.82
247.681	-10.24
247.898	10.24
248.115	53.25
248.332	-20.48
248.549	32.77
248.766	77.82
248.983	-22.53
249.2	-30.72
249.417	28.67
249.633	20.48
249.85	73.73
250.067	-20.48
250.284	12.29
250.501	16.38
250.717	104.45
250.934	67.58
251.151	-16.38
251.368	-2.05
251.585	22.53
251.801	-18.43
252.018	53.25
252.235	-38.91
252.451	-10.24
252.668	-14.34
252.885	24.58
253.102	67.58
253.318	0
253.535	49.15
253.752	-24.58
253.968	0
254.185	-18.43
254.401	77.82
254.618	69.63
254.835	6.14
255.051	104.45
255.268	38.91
255.484	20.48
255.701	-18.43
255.917	38.91
256.134	26.62
256.351	0
256.567	24.58
256.784	-28.67
257	-8.19
257.217	-32.77
257.433	-2.05
257.65	-12.29
257.866	-34.82
258.082	30.72
258.299	61.44
258.515	14.34
258.732	-28.67
258.948	47.1
259.165	22.53
259.381	63.49
259.597	-12.29
259.814	12.29
260.03	10.24
260.246	2.05
260.463	-14.34
260.679	8.19
260.895	-75.77
261.112	-8.19
261.328	26.62
261.544	49.15
261.761	-22.53
261.977	10.24
262.193	-51.2
262.409	38.91
262.626	-49.15
262.842	20.48
263.058	-32.77
263.274	-12.29
263.49	6.14
263.707	22.53
263.923	14.34
264.139	0
264.355	-4.1
264.571	0
264.787	32.77
265.004	-18.43
265.22	30.72
265.436	10.24
265.652	-40.96
265.868	67.58
266.084	-38.91
266.3	-45.06
266.516	-20.48
266.732	6.14
266.948	-53.25
267.164	30.72
267.38	8.19
267.596	6.14
267.812	28.67
268.028	-26.62
268.244	-28.67
268.46	-36.86
268.676	-4.1
268.892	-10.24
269.108	28.67
269.324	-2.05
269.54	-83.97
269.756	55.3
269.972	59.39
270.188	-73.73
270.403	-6.14
270.619	45.06
270.835	20.48
271.051	81.92
271.267	-55.3
271.483	43.01
271.698	51.2
271.914	79.87
272.13	-12.29
272.346	14.34
272.562	-16.38
272.777	6.14
272.993	-71.68
273.209	-26.62
273.425	38.91
273.64	8.19
273.856	45.06
274.072	-12.29
274.287	16.38
274.503	67.58
274.719	38.91
274.934	4.1
275.15	-14.34
275.366	-69.63
275.581	-73.73
275.797	43.01
276.012	12.29
276.228	22.53
276.444	2.05
276.659	-14.34
276.875	8.19
277.09	63.49
277.306	-8.19
277.521	-20.48
277.737	-10.24
277.952	30.72
278.168	30.72
278.383	77.82
278.599	61.44
278.814	32.77
279.03	92.16
279.245	32.77
279.461	-18.43
279.676	-22.53
279.892	-8.19
280.107	10.24
280.322	16.38
280.538	71.68
280.753	26.62
280.969	26.62
281.184	-10.24
281.399	-18.43
281.615	61.44
281.83	22.53
282.045	28.67
282.26	-61.44
282.476	57.34
282.691	22.53
282.906	8.19
283.122	32.77
283.337	-12.29
283.552	-20.48
283.767	4.1
283.983	-12.29
284.198	4.1
284.413	20.48
284.628	-16.38
284.843	16.38
285.058	22.53
285.274	20.48
285.489	20.48
285.704	-18.43
285.919	-6.14
286.134	47.1
286.349	14.34
286.564	104.45
286.779	-14.34
286.995	-16.38
287.21	-28.67
287.425	-6.14
287.64	55.3
287.855	28.67
288.07	-36.86
288.285	36.86
288.5	14.34
288.715	47.1
288.93	-4.1
289.145	12.29
289.36	24.58
289.575	-14.34
289.79	-49.15
290.004	-34.82
290.219	-4.1
290.434	65.54
290.649	92.16
290.864	69.63
291.079	47.1
291.294	8.19
291.509	22.53
291.724	32.77
291.938	53.25
292.153	47.1
292.368	32.77
292.583	-2.05
292.798	28.67
293.012	-30.72
293.227	49.15
293.442	43.01
293.657	-10.24
293.871	16.38
294.086	10.24
294.301	36.86
294.516	26.62
294.73	-28.67
294.945	12.29
295.16	81.92
295.374	32.77
295.589	18.43
295.804	-12.29
296.018	-12.29
296.233	28.67
296.447	14.34
296.662	-10.24
296.877	-12.29
297.091	32.77
297.306	12.29
297.52	14.34
297.735	94.21
297.949	32.77
298.164	10.24
298.378	40.96
298.593	-53.25
298.807	24.58
299.022	55.3
299.236	30.72
299.451	10.24
299.665	22.53
299.88	49.15
300.094	14.34
300.309	14.34
300.523	67.58
300.737	65.54
300.952	14.34
301.166	6.14
301.381	-47.1
301.595	59.39
301.809	8.19
302.024	0
302.238	40.96
302.452	18.43
302.667	4.1
302.881	-38.91
303.095	67.58
303.309	53.25
303.524	47.1
303.738	-10.24
303.952	-16.38
304.166	61.44
304.381	-20.48
304.595	51.2
304.809	-8.19
305.023	30.72
305.237	22.53
305.452	-4.1
305.666	4.1
305.88	-14.34
306.094	22.53
306.308	51.2
306.522	-8.19
306.736	-40.96
306.95	-73.73
307.164	8.19
307.379	-36.86
307.593	77.82
307.807	12.29
308.021	-51.2
308.235	0
308.449	79.87
308.663	45.06
308.877	53.25
309.091	-47.1
309.305	20.48
309.519	22.53
309.733	53.25
309.947	45.06
310.161	59.39
310.374	24.58
310.588	61.44
310.802	10.24
311.016	28.67
311.23	-14.34
311.444	-26.62
311.658	24.58
311.872	34.82
312.085	63.49
312.299	-16.38
312.513	28.67
312.727	94.21
312.941	10.24
313.154	57.34
313.368	16.38
313.582	88.06
313.796	30.72
314.009	14.34
314.223	59.39
314.437	14.34
314.651	40.96
314.864	-8.19
315.078	20.48
315.292	12.29
315.505	28.67
315.719	53.25
315.933	22.53
316.146	53.25
316.36	61.44
316.573	77.82
316.787	22.53
317.001	67.58
317.214	-77.82
317.428	-26.62
317.641	-30.72
317.855	12.29
318.068	-30.72
318.282	40.96
318.495	30.72
318.709	88.06
318.922	-12.29
319.136	-20.48
319.349	61.44
319.563	-10.24
319.776	57.34
319.99	12.29
320.203	6.14
320.417	4.1
320.63	4.1
320.843	20.48
321.057	22.53
321.27	47.1
321.483	47.1
321.697	49.15
321.91	0
322.124	18.43
322.337	-12.29
322.55	22.53
322.763	-36.86
322.977	-18.43
323.19	30.72
323.403	28.67
323.617	51.2
323.83	61.44
324.043	-4.1
324.256	65.54
324.469	26.62
324.683	-14.34
324.896	79.87
325.109	-4.1
325.322	-2.05
325.535	45.06
325.748	-26.62
325.962	28.67
326.175	-34.82
326.388	-8.19
326.601	43.01
326.814	16.38
327.027	49.15
327.24	61.44
327.453	-61.44
327.666	2.05
327.879	-20.48
328.092	-26.62
328.305	38.91
328.518	20.48
328.731	6.14
328.944	-65.53
329.157	4.1
329.37	-18.43
329.583	79.87
329.796	-22.53
330.009	-61.44
330.222	47.1
330.435	2.05
330.648	20.48
330.861	16.38
331.073	-32.77
331.286	40.96
331.499	12.29
331.712	94.21
331.925	-16.38
332.138	-18.43
332.35	57.34
332.563	61.44
332.776	12.29
332.989	6.14
333.202	40.96
333.414	22.53
333.627	4.1
333.84	-10.24
334.053	6.14
334.265	12.29
334.478	0
334.691	-12.29
334.903	-6.14
335.116	-14.34
335.329	36.86
335.541	22.53
335.754	63.49
335.966	43.01
336.179	-2.05
336.392	43.01
336.604	-12.29
336.817	-10.24
337.029	18.43
337.242	6.14
337.454	6.14
337.667	-6.14
337.88	57.34
338.092	-18.43
338.305	57.34
338.517	55.3
338.729	30.72
338.942	18.43
339.154	4.1
339.367	18.43
339.579	4.1
339.792	-8.19
340.004	10.24
340.217	22.53
340.429	59.39
340.641	36.86
340.854	-10.24
341.066	16.38
341.278	-2.05
341.491	59.39
341.703	28.67
341.915	-16.38
342.128	24.58
342.34	26.62
342.552	4.1
342.764	6.14
342.977	12.29
343.189	-26.62
343.401	24.58
343.613	-2.05
343.826	-28.67
344.038	-51.2
344.25	6.14
344.462	-16.38
344.674	-4.1
344.886	86.01
345.099	63.49
345.311	14.34
345.523	22.53
345.735	-18.43
345.947	26.62
346.159	-53.25
346.371	-49.15
346.583	30.72
346.795	102.4
347.007	22.53
347.219	47.1
347.431	16.38
347.643	77.82
347.855	12.29
348.067	4.1
348.279	-26.62
348.491	79.87
348.703	14.34
348.915	28.67
349.127	-22.53
349.339	6.14
349.551	4.1
349.763	-26.62
349.975	4.1
350.187	65.54
350.399	40.96
350.61	18.43
350.822	69.63
351.034	4.1
351.246	14.34
351.458	38.91
351.669	77.82
351.881	26.62
352.093	-16.38
352.305	12.29
352.517	8.19
352.728	12.29
352.94	8.19
353.152	-32.77
353.363	24.58
353.575	67.58
353.787	65.54
353.999	53.25
354.21	55.3
354.422	22.53
354.633	8.19
354.845	34.82
355.057	43.01
355.268	36.86
355.48	28.67
355.692	-22.53
355.903	8.19
356.115	32.77
356.326	20.48
356.538	20.48
356.749	-14.34
356.961	12.29
357.172	12.29
357.384	16.38
357.595	129.02
357.807	34.82
358.018	20.48
358.23	38.91
358.441	51.2
358.653	28.67
358.864	-4.1
359.075	71.68
359.287	-4.1
359.498	88.06
359.709	-8.19
359.921	86.01
360.132	14.34
360.344	10.24
360.555	-8.19
360.766	63.49
360.977	-53.25
361.189	86.01
361.4	77.82
361.611	40.96
361.823	14.34
362.034	-18.43
362.245	-45.06
362.456	-40.96
362.667	92.16
362.879	-77.82
363.09	34.82
363.301	36.86
363.512	28.67
363.723	69.63
363.935	-12.29
364.146	-20.48
364.357	18.43
364.568	34.82
364.779	51.2
364.99	36.86
365.201	-28.67
365.412	61.44
365.623	28.67
365.834	73.73
366.045	51.2
366.256	63.49
366.467	-24.58
366.678	-26.62
366.889	49.15
367.1	-55.3
367.311	71.68
367.522	8.19
367.733	63.49
367.944	38.91
368.155	20.48
368.366	22.53
368.577	57.34
368.788	-26.62
368.999	63.49
369.209	-36.86
369.42	6.14
369.631	86.01
369.842	57.34
370.053	12.29
370.264	55.3
370.474	24.58
370.685	40.96
370.896	79.87
371.107	20.48
371.317	36.86
371.528	24.58
371.739	12.29
371.95	43.01
372.16	34.82
372.371	-43.01
372.582	0
372.792	14.34
373.003	69.63
373.214	14.34
373.424	43.01
373.635	-24.58
373.846	59.39
374.056	65.54
374.267	40.96
374.477	36.86
374.688	30.72
374.898	-16.38
375.109	-34.82
375.319	-2.05
375.53	79.87
375.74	-20.48
375.951	30.72
376.161	43.01
376.372	-8.19
376.582	-18.43
376.793	47.1
377.003	40.96
377.214	4.1
377.424	36.86
377.635	26.62
377.845	-20.48
378.055	6.14
378.266	16.38
378.476	65.54
378.686	71.68
378.897	65.54
379.107	4.1
379.317	-20.48
379.528	-8.19
379.738	32.77
379.948	32.77
380.158	73.73
380.369	-24.58
380.579	-18.43
380.789	30.72
380.999	38.91
381.21	30.72
381.42	10.24
381.63	-4.1
381.84	53.25
382.05	8.19
382.261	88.06
382.471	18.43
382.681	55.3
382.891	10.24
383.101	49.15
383.311	12.29
383.521	-2.05
383.731	118.78
383.941	49.15
384.151	49.15
384.361	12.29
384.571	12.29
384.781	4.1
384.991	4.1
385.201	38.91
385.411	55.3
385.621	14.34
385.831	-16.38
386.041	12.29
386.251	24.58
386.461	77.82
386.671	4.1
386.881	61.44
387.091	22.53
387.301	14.34
387.511	4.1
387.72	22.53
387.93	22.53
388.14	47.1
388.35	32.77
388.56	18.43
388.769	-8.19
388.979	12.29
389.189	22.53
389.399	49.15
389.609	-16.38
389.818	43.01
390.028	43.01
390.238	20.48
390.447	8.19
390.657	110.59
390.867	69.63
391.076	28.67
391.286	77.82
391.496	0
391.705	69.63
391.915	36.86
392.125	-8.19
392.334	38.91
392.544	6.14
392.753	14.34
392.963	77.82
393.172	32.77
393.382	24.58
393.591	94.21
393.801	43.01
394.01	47.1
394.22	49.15
394.429	30.72
394.639	47.1
394.848	36.86
395.058	8.19
395.267	30.72
395.477	40.96
395.686	8.19
395.895	47.1
396.105	86.01
396.314	71.68
396.524	65.54
396.733	69.63
396.942	94.21
397.152	16.38
397.361	53.25
397.57	51.2
397.78	40.96
397.989	34.82
398.198	90.11
398.407	67.58
398.617	67.58
398.826	75.77
399.035	79.87
399.244	167.93
399.453	49.15
399.663	53.25
399.872	83.97
400.081	88.06
400.29	73.73
400.499	53.25
400.708	163.84
400.917	67.58
401.127	20.48
401.336	53.25
401.545	-28.67
401.754	194.56
401.963	77.82
402.172	114.69
402.381	26.62
402.59	30.72
402.799	151.55
403.008	69.63
403.217	96.25
403.426	16.38
403.635	94.21
403.844	110.59
404.053	61.44
404.262	69.63
404.471	163.84
404.68	159.74
404.888	69.63
405.097	24.58
405.306	69.63
405.515	131.07
405.724	20.48
405.933	159.74
406.142	147.45
406.35	143.36
406.559	69.63
406.768	116.73
406.977	137.21
407.185	75.77
407.394	141.31
407.603	77.82
407.812	139.26
408.02	153.6
408.229	178.17
408.438	139.26
408.646	165.89
408.855	159.74
409.064	215.04
409.272	133.12
409.481	169.98
409.69	133.12
409.898	153.6
410.107	176.13
410.315	161.79
410.524	151.55
410.733	145.41
410.941	161.79
411.15	225.28
411.358	229.37
411.567	266.24
411.775	305.15
411.984	172.03
412.192	212.99
412.401	307.2
412.609	270.33
412.818	272.38
413.026	339.96
413.234	303.1
413.443	333.82
413.651	305.15
413.86	360.44
414.068	286.72
414.276	301.05
414.485	350.2
414.693	323.58
414.901	317.44
415.11	489.46
415.318	462.84
415.526	421.88
415.734	458.75
415.943	466.94
416.151	540.66
416.359	516.09
416.567	493.56
416.776	483.32
416.984	503.8
417.192	555
417.4	561.14
417.608	583.67
417.817	669.69
418.025	563.19
418.233	714.74
418.441	616.44
418.649	782.32
418.857	677.88
419.065	868.34
419.273	753.65
419.481	780.28
419.689	833.52
419.897	784.37
420.105	860.15
420.313	878.58
420.521	962.55
420.729	940.02
420.937	915.44
421.145	1013.74
421.353	995.31
421.561	1134.57
421.769	1091.57
421.977	1302.51
422.185	1208.3
422.393	1269.74
422.601	1380.33
422.809	1275.88
423.017	1374.19
423.224	1417.19
423.432	1538.02
423.64	1538.02
423.848	1527.78
424.056	1646.57
424.263	1560.55
424.471	1607.66
424.679	1691.62
424.887	1820.64
425.094	1851.36
425.302	1875.94
425.51	1955.81
425.718	1912.8
425.925	2097.12
426.133	2033.63
426.341	2154.46
426.548	2234.33
426.756	2183.13
426.964	2281.44
427.171	2435.03
427.379	2543.58
427.586	2529.24
427.794	2658.26
428.001	2756.57
428.209	2815.96
428.417	2723.8
428.624	2871.25
428.832	2969.55
429.039	3022.8
429.247	3018.71
429.454	3198.93
429.662	3430.35
429.869	3352.52
430.076	3409.87
430.284	3250.13
430.491	3401.68
430.699	3704.78
430.906	3874.76
431.114	3704.78
431.321	3864.52
431.528	4009.92
431.736	4249.54
431.943	4386.75
432.15	4440
432.358	4427.71
432.565	4538.3
432.772	4695.99
432.979	4954.04
433.187	4847.54
433.394	4937.65
433.601	5140.4
433.808	5250.99
434.016	5277.62
434.223	5427.12
434.43	5808.04
434.637	5664.68
434.844	6006.69
435.052	6266.78
435.259	5975.97
435.466	6080.42
435.673	6104.99
435.88	6559.64
436.087	6772.63
436.294	6918.04
436.501	6762.39
436.708	6879.13
436.915	6948.76
437.122	7176.08
437.329	7354.26
437.537	7679.88
437.743	7538.57
437.95	7561.1
438.157	8046.47
438.364	8335.23
438.571	8261.51
438.778	8363.9
438.985	9129.84
439.192	8808.31
439.399	8994.68
439.606	8923
439.813	9303.92
440.02	9701.23
440.227	9553.77
440.433	9678.7
440.64	10137.45
440.847	9807.72
441.054	10076.01
441.261	10643.29
441.467	10620.77
441.674	10696.54
441.881	11157.33
442.088	11167.57
442.294	10907.48
442.501	11646.8
442.708	11704.14
442.914	12023.62
443.121	12642.11
443.328	12150.6
443.534	13076.28
443.741	12697.41
443.948	12586.82
444.154	13588.27
444.361	13410.1
444.568	13399.86
444.774	13266.74
444.981	13670.19
445.187	13938.48
445.394	14690.08
445.6	14628.64
445.807	15990.54
446.013	15220.5
446.22	15449.88
446.426	15922.96
446.633	16043.79
446.839	16443.14
447.046	15879.95
447.252	16981.76
447.459	17069.82
447.665	17090.3
447.871	17647.35
448.078	18454.25
448.284	17460.98
448.491	18038.51
448.697	18626.28
448.903	18775.78
449.11	19011.29
449.316	18777.83
449.522	19242.71
449.728	19760.85
449.935	19707.6
450.141	19893.97
450.347	20344.52
450.553	19396.31
450.76	19791.57
450.966	20543.17
451.172	20147.92
451.378	20655.81
451.584	20610.76
451.791	20856.51
451.997	20797.12
452.203	21337.79
452.409	21274.3
452.615	21282.49
452.821	20195.02
453.027	20072.14
453.233	21032.64
453.44	20373.19
453.646	20405.96
453.852	20512.45
454.058	20887.23
454.264	20362.95
454.47	20801.22
454.676	20295.37
454.882	20686.53
455.088	19277.53
455.294	19269.34
455.5	19762.9
455.705	20014.8
455.911	19173.08
456.117	18886.37
456.323	18474.73
456.529	17473.27
456.735	18431.72
456.941	17950.45
457.147	17483.51
457.352	16965.37
457.558	16852.73
457.764	16895.74
457.97	16443.14
458.176	16170.76
458.381	15996.68
458.587	15339.29
458.793	15359.77
458.999	14626.59
459.204	15785.74
459.41	15130.39
459.616	14268.2
459.821	14290.73
460.027	14173.99
460.233	13946.67
460.438	13113.14
460.644	13494.07
460.85	12676.93
461.055	12648.25
461.261	12531.52
461.466	11771.72
461.672	11435.86
461.878	12316.48
462.083	11183.96
462.289	11081.56
462.494	11147.09
462.7	10467.17
462.905	10268.52
463.111	10692.44
463.316	10643.29
463.522	10504.03
463.727	10501.98
463.932	10364.77
464.138	10305.38
464.343	10248.04
464.549	9969.51
464.754	10372.96
464.959	10205.03
465.165	10415.97
465.37	9928.55
465.575	9455.47
465.781	9889.64
465.986	10008.42
466.191	9516.91
466.397	9492.34
466.602	8836.99
466.807	9340.79
467.012	9195.38
467.218	9486.19
467.423	9406.32
467.628	9459.57
467.833	9537.39
468.038	9355.12
468.244	9043.83
468.449	9262.96
468.654	9049.97
468.859	8990.58
469.064	8927.1
469.269	8624
469.474	8531.84
469.679	8945.53
469.885	8529.79
470.09	8671.1
470.295	8701.82
470.5	8388.48
470.705	8292.23
470.91	8212.35
471.115	8036.23
471.32	8320.9
471.525	8177.54
471.73	8226.69
471.935	7847.82
472.139	7632.78
472.344	8101.76
472.549	7671.69
472.754	7815.05
472.959	7602.06
473.164	7569.29
473.369	7378.83
473.574	7573.39
473.778	7530.38
473.983	7350.16
474.188	7460.75
474.393	7278.48
474.598	7057.3
474.802	7104.4
475.007	6942.61
475.212	7047.06
475.417	6805.4
475.621	6827.93
475.826	6719.39
476.031	6778.78
476.235	6545.31
476.44	6539.16
476.645	6436.77
476.849	6487.97
477.054	6477.73
477.259	6352.8
477.463	6416.29
477.668	6127.52
477.872	6313.89
478.077	6170.53
478.282	5975.97
478.486	5994.4
478.691	5984.16
478.895	5918.63
479.1	5922.73
479.304	5943.21
479.509	5676.97
479.713	5920.68
479.918	5660.59
480.122	5605.29
480.326	5746.6
480.531	5638.06
480.735	5498.8
480.94	5474.22
481.144	5695.4
481.348	5418.93
481.553	5541.8
481.757	5408.69
481.961	5457.84
482.166	5568.43
482.37	5527.47
482.574	5429.17
482.778	5394.35
482.983	5717.93
483.187	5418.93
483.391	5590.95
483.595	5359.53
483.8	5347.25
484.004	5490.6
484.208	5466.03
484.412	5513.13
484.616	5453.74
484.821	5377.97
485.025	5461.93
485.229	5511.08
485.433	5390.25
485.637	5306.29
485.841	5388.21
486.045	5363.63
486.249	5451.69
486.453	5437.36
486.657	5463.98
486.861	5414.83
487.065	5322.67
487.269	5463.98
487.473	5466.03
487.677	5396.4
487.881	5402.54
488.085	5449.64
488.289	5492.65
488.493	5435.31
488.697	5457.84
488.901	5459.88
489.105	5492.65
489.309	5531.56
489.512	5615.53
489.716	5533.61
489.92	5468.08
490.124	5459.88
490.328	5547.95
490.531	5504.94
490.735	5543.85
490.939	5482.41
491.143	5566.38
491.346	5670.83
491.55	5760.94
491.754	5689.26
491.958	5689.26
492.161	5824.42
492.365	5877.67
492.569	5922.73
492.772	5785.51
492.976	5902.25
493.18	5742.5
493.383	6025.12
493.587	5889.96
493.79	6049.7
493.994	5945.25
494.197	6061.99
494.401	6160.29
494.605	6180.77
494.808	6285.22
495.012	6322.08
495.215	6231.97
495.419	6279.07
495.622	6301.6
495.825	6373.28
496.029	6457.25
496.232	6692.76
496.436	6674.33
496.639	6801.3
496.843	6776.73
497.046	6795.16
497.249	6813.59
497.453	6895.51
497.656	7042.96
497.859	7065.49
498.063	7186.32
498.266	7466.89
498.469	7524.24
498.673	7311.25
498.876	7550.86
499.079	7690.12
499.282	7706.51
499.485	7944.07
499.689	7974.79
499.892	8003.46
500.095	8130.44
500.298	8116.1
500.501	8140.68
500.705	8308.61
500.908	8578.94
501.111	8505.21
501.314	8912.76
501.517	8884.09
501.72	8929.14
501.923	8949.62
502.126	9179
502.329	9252.72
502.532	9377.65
502.735	9523.05
502.938	9656.17
503.141	9754.48
503.344	9875.31
503.547	10039.14
503.75	10125.16
503.953	10178.4
504.156	10260.32
504.359	10364.77
504.562	10608.48
504.765	10897.24
504.968	11007.83
505.17	11165.53
505.373	11149.14
505.576	11206.48
505.779	11376.47
505.982	11614.03
506.185	11784.01
506.387	12013.38
506.59	12179.27
506.793	12418.88
506.996	12332.87
507.198	12590.91
507.401	12877.63
507.604	12818.24
507.807	13184.82
508.009	13313.84
508.212	13311.8
508.415	13600.56
508.617	13981.48
508.82	13961
509.022	14042.92
509.225	14438.18
509.428	14606.11
509.63	14608.16
509.833	14722.85
510.035	15140.63
510.238	15327
510.44	15449.88
510.643	15601.43
510.845	15660.82
511.048	15853.33
511.25	16238.34
511.453	16164.62
511.655	17055.48
511.858	16666.37
512.06	16936.7
512.262	17229.56
512.465	17127.16
512.667	17831.66
512.87	18188.01
513.072	18050.8
513.274	18663.14
513.477	18466.53
513.679	18872.03
513.881	18898.66
514.084	19097.31
514.286	19437.27
514.488	19723.99
514.69	20342.47
514.893	20158.16
515.095	20291.27
515.297	20866.75
515.499	20713.16
515.701	21087.93
515.904	21147.33
516.106	21395.13
516.308	21866.16
516.51	22116.01
516.712	21911.22
516.914	22503.08
517.116	22783.65
517.318	23074.46
517.52	23230.11
517.722	23385.76
517.925	23862.93
518.127	24268.43
518.329	24168.08
518.531	24268.43
518.733	24710.79
518.935	25087.62
519.136	25155.2
519.338	25347.71
519.54	25433.72
519.742	26029.68
519.944	26125.94
520.146	26463.85
520.348	26873.45
520.55	26924.65
520.752	27235.94
520.954	27266.66
521.155	27559.52
521.357	27827.8
521.559	28059.22
521.761	28806.73
521.963	28382.8
522.164	28661.32
522.366	29103.68
522.568	29412.93
522.77	29494.85
522.971	29892.15
523.173	29607.48
523.375	29998.65
523.576	30367.28
523.778	30654
523.98	30987.82
524.181	30961.19
524.383	31122.98
524.584	31340.07
524.786	31794.71
524.988	31583.77
525.189	32259.6
525.391	32136.73
525.592	32425.49
525.794	32583.18
525.995	32706.06
526.197	32701.97
526.398	32773.64
526.6	33185.29
526.801	33691.13
527.003	33717.76
527.204	33547.78
527.406	33705.47
527.607	33908.22
527.808	34405.88
528.01	33656.32
528.211	34201.08
528.412	34362.87
528.614	34354.68
528.815	34606.58
529.016	35124.71
529.218	34692.59
529.419	34799.08
529.62	34866.67
529.822	34919.92
530.023	34948.59
530.224	35067.37
530.425	35364.32
530.626	35081.7
530.828	35245.54
531.029	36081.11
531.23	35073.51
531.431	35327.46
531.632	35724.77
531.833	35986.91
532.035	35972.57
532.236	35956.19
532.437	35636.7
532.638	35708.38
532.839	35972.57
533.04	36267.48
533.241	35798.49
533.442	36500.95
533.643	36046.3
533.844	36199.9
534.045	36437.46
534.246	35685.86
534.447	35925.47
534.648	36195.8
534.849	36601.3
535.05	36455.89
535.251	36322.77
535.451	36085.21
535.652	36584.91
535.853	36343.25
536.054	36738.51
536.255	36787.66
536.456	36062.68
536.657	36734.42
536.857	36425.17
537.058	36089.31
537.259	36439.51
537.46	36642.26
537.66	36015.58
537.861	36787.66
538.062	36427.22
538.263	36539.86
538.463	36261.33
538.664	36658.64
538.865	36453.84
539.065	36519.38
539.266	36273.62
539.466	36748.75
539.667	36257.24
539.868	36875.73
540.068	36414.93
540.269	36380.12
540.469	36722.13
540.67	36793.81
540.87	36390.36
541.071	36496.85
541.271	36662.74
541.472	36662.74
541.672	36650.45
541.873	36283.86
542.073	36347.35
542.274	37006.8
542.474	36201.94
542.675	36627.92
542.875	36576.72
543.075	36713.94
543.276	36136.41
543.476	36734.42
543.676	36224.47
543.877	36525.52
544.077	36290.01
544.277	36562.39
544.478	36154.84
544.678	36634.07
544.878	36586.96
545.078	36840.91
545.279	36146.65
545.479	36085.21
545.679	36822.48
545.879	36363.73
546.079	36840.91
546.28	36500.95
546.48	36228.57
546.68	37023.18
546.88	36390.36
547.08	36806.09
547.28	36160.98
547.48	36242.9
547.68	36457.94
547.88	36457.94
548.081	36711.89
548.281	36554.19
548.481	36220.38
548.681	36410.84
548.881	36515.28
549.081	36546
549.28	36042.2
549.48	36496.85
549.68	36341.21
549.88	37248.46
550.08	36382.16
550.28	36277.72
550.48	36242.9
550.68	36918.73
550.88	36126.17
551.08	36382.16
551.279	36275.67
551.479	36255.19
551.679	36423.12
551.879	36574.67
552.079	36388.31
552.278	36425.17
552.478	36013.53
552.678	36433.36
552.878	36539.86
553.077	36146.65
553.277	36335.06
553.477	36474.32
553.676	36027.87
553.876	36068.83
554.076	35581.41
554.275	35800.54
554.475	35810.78
554.674	36300.25
554.874	35855.84
555.074	35907.04
555.273	35993.05
555.473	36023.77
555.672	35728.86
555.872	35991
556.071	35884.51
556.271	35788.25
556.47	35704.29
556.67	35499.49
556.869	35708.38
557.068	35755.49
557.268	35431.91
557.467	35685.86
557.667	35569.12
557.866	35972.57
558.065	35288.55
558.265	35134.95
558.464	35102.18
558.663	35483.11
558.863	34977.26
559.062	35476.96
559.261	35300.84
559.461	35878.36
559.66	35055.08
559.859	34987.5
560.058	34698.73
560.258	35349.99
560.457	34401.78
560.656	34858.48
560.855	34962.92
561.054	34778.61
561.253	34582
561.453	34850.28
561.652	34563.57
561.851	34518.51
562.05	34844.14
562.249	34377.2
562.448	34383.35
562.647	34317.81
562.846	33994.23
563.045	34528.75
563.244	33990.14
563.443	34461.17
563.642	34156.02
563.841	33732.09
564.04	33998.33
564.239	34174.45
564.438	33951.23
564.637	33664.51
564.836	33682.94
565.035	33564.16
565.234	33672.7
565.432	33795.58
565.631	33584.64
565.83	33402.37
566.029	33449.47
566.228	33730.05
566.427	33467.91
566.625	32882.19
566.824	33173
567.023	33330.69
567.222	32519.7
567.42	33230.34
567.619	33306.12
567.818	33181.19
568.016	32724.49
568.215	33154.57
568.414	32869.9
568.612	33345.03
568.811	32185.88
569.01	32566.8
569.208	32515.6
569.407	32798.22
569.605	32144.92
569.804	32464.4
570.002	32112.15
570.201	32425.49
570.4	31895.07
570.598	31671.84
570.797	31749.66
570.995	32165.4
571.193	31434.27
571.392	31907.35
571.59	31464.99
571.789	31682.08
571.987	31389.22
572.186	31391.26
572.384	31260.19
572.582	31499.81
572.781	30928.42
572.979	31094.31
573.177	31002.15
573.376	30971.43
573.574	30760.49
573.772	30561.84
573.971	30678.57
574.169	30819.88
574.367	30205.49
574.565	30477.87
574.763	30266.93
574.962	29912.63
575.16	29822.52
575.358	30101.04
575.556	29603.39
575.754	30107.19
575.952	29650.49
576.151	29931.06
576.349	29103.68
576.547	29597.24
576.745	29423.17
576.943	29267.52
577.141	29359.68
577.339	29498.94
577.537	29371.97
577.735	29089.35
577.933	28689.99
578.131	28921.41
578.329	28900.93
578.527	28364.37
578.725	28626.51
578.923	28769.86
579.121	28438.09
579.319	28386.89
579.516	28470.86
579.714	28223.06
579.912	27999.83
580.11	28089.94
580.308	28188.24
580.506	28028.5
580.704	27846.23
580.901	27631.19
581.099	27635.29
581.297	27387.49
581.495	27551.32
581.692	27393.63
581.89	27061.86
582.088	27387.49
582.285	27104.87
582.483	27541.08
582.681	26963.56
582.878	27092.58
583.076	26820.2
583.274	26951.27
583.471	26445.42
583.669	26615.4
583.866	26422.89
584.064	26691.18
584.262	26160.75
584.459	26523.24
584.657	26316.4
584.854	26310.25
585.052	25835.13
585.249	26113.65
585.447	25792.12
585.644	25714.3
585.841	25654.9
586.039	26140.27
586.236	25673.34
586.434	25347.71
586.631	25503.35
586.828	25577.08
587.026	25532.03
587.223	25329.28
587.42	25349.76
587.618	25316.99
587.815	24901.25
588.012	24460.94
588.21	24794.76
588.407	25091.71
588.604	24624.78
588.801	24585.86
588.999	24610.44
589.196	24522.38
589.393	24592.01
589.59	24565.39
589.787	24313.49
589.984	24544.91
590.182	23883.41
590.379	24155.79
590.576	24061.58
590.773	24047.25
590.97	23586.46
591.167	23977.62
591.364	23563.93
591.561	23776.92
591.758	23377.56
591.955	23547.54
592.152	23674.52
592.349	23283.36
592.546	23649.94
592.743	23285.4
592.94	22943.39
593.137	23441.05
593.334	23316.12
593.531	22662.82
593.727	23209.63
593.924	22857.38
594.121	22531.75
594.318	22847.14
594.515	22834.85
594.712	22806.18
594.908	22587.05
595.105	22754.98
595.302	22482.6
595.499	22556.33
595.696	22419.11
595.892	22105.77
596.089	22341.29
596.286	22181.55
596.482	22183.6
596.679	22058.67
596.876	22302.38
597.072	21759.67
597.269	22027.95
597.466	21728.95
597.662	21659.32
597.859	21515.96
598.055	21677.75
598.252	21651.13
598.448	21407.42
598.645	21503.67
598.841	21001.92
599.038	21276.35
599.234	21227.2
599.431	21386.94
599.627	20799.17
599.824	21243.58
600.02	21184.19
600.217	21092.03
600.413	20641.48
600.609	20502.22
600.806	20831.94
601.002	20928.19
601.198	20623.05
601.395	20436.68
601.591	20365
601.787	20459.21
601.984	20432.58
602.18	20428.49
602.376	20100.81
602.572	19883.73
602.769	20238.03
602.965	19822.29
603.161	19855.06
603.357	19928.78
603.553	19422.94
603.75	19701.46
603.946	19511
604.142	19394.26
604.338	19320.54
604.534	19631.83
604.73	19224.28
604.926	19365.59
605.122	18947.81
605.318	19054.3
605.514	19064.54
605.71	18814.69
605.906	18667.24
606.102	18788.07
606.298	18622.18
606.494	18974.43
606.69	18650.85
606.886	18648.8
607.082	18306.79
607.278	18675.43
607.474	18298.6
607.67	18378.47
607.866	18181.87
608.062	18249.45
608.257	18071.28
608.453	18325.22
608.649	18218.73
608.845	18007.79
609.041	17702.64
609.236	17901.29
609.432	17948.4
609.628	17927.92
609.824	17919.73
610.019	17753.84
610.215	17247.99
610.411	17682.16
610.606	17411.83
610.802	17485.56
610.998	17438.45
611.193	17399.54
611.389	17121.02
611.584	17080.06
611.78	16938.75
611.976	17069.82
612.171	17188.6
612.367	16975.61
612.562	16967.42
612.758	16658.18
612.953	16799.49
613.149	17008.38
613.344	16350.98
613.539	16850.69
613.735	16709.38
613.93	16772.86
614.126	16357.13
614.321	16774.91
614.517	16330.5
614.712	16369.41
614.907	16254.73
615.103	16635.65
615.298	16154.38
615.493	16455.43
615.688	15931.15
615.884	16226.06
616.079	15961.87
616.274	16123.66
616.47	15855.37
616.665	15939.34
616.86	15673.1
617.055	15712.02
617.25	15888.14
617.445	15693.58
617.641	15527.7
617.836	15509.27
618.031	15259.42
618.226	15531.79
618.421	15562.51
618.616	15376.15
618.811	15257.37
619.006	15400.72
619.201	14948.12
619.396	15185.69
619.591	14866.21
619.786	15126.3
619.981	14743.33
620.176	14989.08
620.371	14610.21
620.566	14712.61
620.761	14530.34
620.956	14712.61
621.151	14473
621.346	14587.68
621.541	14104.36
621.735	14325.54
621.93	13954.86
622.125	14049.07
622.32	13913.9
622.515	13938.48
622.709	13807.41
622.904	13881.13
623.099	13664.05
623.294	13700.91
623.488	13522.74
623.683	13686.58
623.878	13408.05
624.072	13340.47
624.267	13578.03
624.462	13289.27
624.656	13299.51
624.851	13123.38
625.046	12996.41
625.24	12844.86
625.435	13074.23
625.629	12816.19
625.824	12791.61
626.018	12642.11
626.213	12408.64
626.407	12355.4
626.602	12164.93
626.796	12476.23
626.991	12388.16
627.185	12285.76
627.38	12177.22
627.574	12152.65
627.768	11913.03
627.963	11929.42
628.157	11724.62
628.352	12099.4
628.546	11857.74
628.74	11851.6
628.935	11589.46
629.129	11626.32
629.323	11407.19
629.517	11532.11
629.712	11380.56
629.906	11552.59
630.1	11269.97
630.294	11349.84
630.489	11116.37
630.683	11380.56
630.877	11099.99
631.071	11030.36
631.265	10973.02
631.459	11120.47
631.653	10760.03
631.848	10856.28
632.042	10651.49
632.236	10661.73
632.43	10786.65
632.624	10626.91
632.818	10588
633.012	10344.29
633.206	10497.89
633.4	10606.43
633.594	10159.97
633.788	10379.11
633.982	10522.46
634.176	10258.28
634.369	10252.13
634.563	10209.12
634.757	10106.73
634.951	10049.38
635.145	9951.08
635.339	10141.54
635.533	9940.84
635.726	9822.06
635.92	9568.11
636.114	9607.02
636.308	9510.77
636.501	9707.37
636.695	9521.01
636.889	9447.28
637.083	9330.55
637.276	9426.8
637.47	9490.29
637.664	9293.68
637.857	9406.32
638.051	9138.04
638.244	9072.5
638.438	9187.19
638.632	9047.93
638.825	8943.48
639.019	8910.71
639.212	8904.57
639.406	8677.24
639.599	8830.84
639.793	8884.09
639.986	8671.1
640.18	8679.29
640.373	8544.13
640.567	8558.46
640.76	8515.45
640.954	8492.93
641.147	8441.73
641.34	8316.8
641.534	8361.86
641.727	8298.37
641.92	8384.38
642.114	8191.88
642.307	8279.94
642.5	8171.4
642.694	8058.76
642.887	7972.74
643.08	8081.28
643.273	7896.97
643.467	7833.48
643.66	7733.13
643.853	7679.88
644.046	7868.3
644.239	7722.89
644.432	7655.31
644.626	7534.48
644.819	7497.61
645.012	7444.37
645.205	7452.56
645.398	7290.77
645.591	7384.98
645.784	7139.22
645.977	7262.1
646.17	7186.32
646.363	7186.32
646.556	6997.91
646.749	7143.32
646.942	7006.1
647.135	7085.97
647.328	6938.52
647.521	7092.12
647.714	6897.56
647.907	6766.49
648.099	6635.42
648.292	6707.1
648.485	6721.43
648.678	6528.92
648.871	6492.06
649.064	6619.03
649.256	6586.27
649.449	6354.85
649.642	6303.65
649.835	6504.35
650.027	6401.95
650.22	6213.54
650.413	6242.21
650.605	6188.96
650.798	6213.54
650.991	6139.81
651.183	5980.07
651.376	6104.99
651.568	6008.74
651.761	5912.49
651.954	5922.73
652.146	6066.08
652.339	6049.7
652.531	5836.71
652.724	5754.79
652.916	5689.26
653.109	5801.9
653.301	5701.55
653.494	5687.21
653.686	5562.28
653.879	5642.15
654.071	5539.76
654.263	5459.88
654.456	5523.37
654.648	5527.47
654.84	5369.77
655.033	5207.98
655.225	5392.3
655.417	5308.34
655.61	5302.19
655.802	5210.03
655.994	4921.27
656.186	5119.92
656.379	4984.76
656.571	4976.56
656.763	4974.52
656.955	4911.03
657.148	4962.23
657.34	4960.18
657.532	4777.91
657.724	4906.93
657.916	4773.82
658.108	4872.12
658.3	4704.18
658.492	4749.24
658.684	4491.2
658.876	4573.11
659.068	4556.73
659.26	4485.05
659.452	4491.2
659.644	4448.19
659.836	4394.94
660.028	4456.38
660.22	4276.16
660.412	4259.77
660.604	4325.31
660.796	4272.06
660.988	4222.91
661.18	4100.03
661.372	4124.61
661.563	4145.09
661.755	4001.73
661.947	4052.93
662.139	3866.56
662.331	3985.35
662.522	3981.25
662.714	4001.73
662.906	3727.3
663.097	3856.33
663.289	3798.98
663.481	3762.12
663.673	3739.59
663.864	3600.33
664.056	3702.73
664.247	3678.15
664.439	3577.8
664.631	3534.79
664.822	3561.42
665.014	3473.35
665.205	3616.71
665.397	3606.47
665.588	3542.99
665.78	3424.2
665.971	3485.64
666.163	3389.39
666.354	3379.15
666.546	3440.59
666.737	3340.24
666.929	3272.65
667.12	3313.61
667.311	3286.99
667.503	3356.62
667.694	3297.23
667.885	3299.28
668.077	3162.06
668.268	3188.69
668.459	3166.16
668.651	3211.22
668.842	3102.67
669.033	3067.86
669.224	3078.1
669.416	3049.43
669.607	3059.67
669.798	3018.71
669.989	2942.93
670.18	2942.93
670.371	3057.62
670.563	2904.02
670.754	2959.31
670.945	2951.12
671.136	2920.4
671.327	2924.5
671.518	2854.87
671.709	2965.46
671.9	2918.36
672.091	2809.81
672.282	2936.79
672.473	2725.85
672.664	2971.6
672.855	2895.83
673.046	2756.57
673.237	2691.03
673.428	2836.44
673.619	2801.62
673.809	2656.22
674	2877.4
674.191	2785.24
674.382	2676.7
674.573	2652.12
674.764	2633.69
674.954	2752.47
675.145	2641.88
675.336	2547.67
675.527	2609.11
675.717	2623.45
675.908	2668.5
676.099	2596.82
676.289	2566.1
676.48	2631.64
676.671	2680.79
676.861	2527.19
677.052	2600.92
677.243	2588.63
677.433	2471.9
677.624	2666.46
677.814	2525.15
678.005	2596.82
678.195	2480.09
678.386	2586.58
678.576	2580.44
678.767	2414.56
678.957	2430.94
679.148	2625.5
679.338	2467.8
679.529	2484.19
679.719	2463.71
679.909	2512.86
680.1	2471.9
680.29	2465.75
680.481	2416.6
680.671	2494.43
680.861	2482.14
681.052	2422.75
681.242	2422.75
681.432	2451.42
681.622	2465.75
681.813	2283.49
682.003	2418.65
682.193	2404.32
682.383	2437.08
682.573	2420.7
682.764	2504.67
682.954	2475.99
683.144	2467.8
683.334	2385.88
683.524	2346.97
683.714	2314.2
683.904	2312.16
684.094	2322.4
684.284	2404.32
684.474	2377.69
684.664	2412.51
684.854	2445.27
685.044	2387.93
685.234	2346.97
685.424	2392.03
685.614	2342.88
685.804	2389.98
685.994	2324.44
686.184	2316.25
686.374	2443.23
686.564	2410.46
686.753	2363.36
686.943	2371.55
687.133	2404.32
687.323	2199.52
687.513	2185.18
687.702	2338.78
687.892	2314.2
688.082	2310.11
688.272	2394.08
688.461	2355.16
688.651	2310.11
688.841	2404.32
689.03	2346.97
689.22	2316.25
689.41	2349.02
689.599	2412.51
689.789	2273.25
689.979	2330.59
690.168	2346.97
690.358	2306.01
690.547	2197.47
690.737	2437.08
690.926	2357.21
691.116	2379.74
691.305	2355.16
691.495	2420.7
691.684	2279.39
691.874	2330.59
692.063	2271.2
692.252	2306.01
692.442	2416.6
692.631	2404.32
692.82	2306.01
693.01	2379.74
693.199	2389.98
693.388	2293.72
693.578	2299.87
693.767	2400.22
693.956	2375.64
694.146	2338.78
694.335	2291.68
694.524	2277.34
694.713	2283.49
694.902	2381.79
695.092	2308.06
695.281	2367.45
695.47	2471.9
695.659	2285.53
695.848	2402.27
696.037	2291.68
696.226	2283.49
696.415	2287.58
696.604	2318.3
696.793	2273.25
696.982	2334.68
697.171	2285.53
697.36	2346.97
697.549	2363.36
697.738	2289.63
697.927	2326.49
698.116	2402.27
698.305	2420.7
698.494	2344.92
698.683	2441.18
698.872	2271.2
699.061	2271.2
699.25	2285.53
699.438	2279.39
699.627	2332.64
699.816	2252.77
700.005	2228.19
700.193	2306.01
700.382	2365.4
700.571	2209.76
700.76	2156.51
700.948	2299.87
701.137	2187.23
701.326	2283.49
701.514	2195.42
701.703	2322.4
701.892	2248.67
702.08	2361.31
702.269	2226.14
702.457	2285.53
702.646	2269.15
702.834	2209.76
703.023	2263.01
703.212	2160.61
703.4	2166.75
703.589	2133.98
703.777	2275.29
703.965	2158.56
704.154	2269.15
704.342	2224.09
704.531	2207.71
704.719	2273.25
704.907	2277.34
705.096	2138.08
705.284	2267.1
705.472	2207.71
705.661	2142.18
705.849	2201.57
706.037	2142.18
706.226	2162.65
706.414	2074.59
706.602	2095.07
706.79	2109.41
706.979	2099.17
707.167	2150.37
707.355	2168.8
707.543	2115.55
707.731	2027.49
707.919	2015.2
708.107	2031.59
708.296	2047.97
708.484	2013.15
708.672	2019.3
708.86	2074.59
709.048	1972.19
709.236	2080.74
709.424	2047.97
709.612	2076.64
709.8	1984.48
709.988	1978.34
710.176	1994.72
710.364	1970.15
710.551	1961.95
710.739	1974.24
710.927	1914.85
711.115	1984.48
711.303	1945.57
711.491	1892.32
711.679	1955.81
711.866	1937.38
712.054	1853.41
712.242	1888.23
712.43	1781.73
712.617	1718.25
712.805	1744.87
712.993	1847.27
713.181	1761.25
713.368	1773.54
713.556	1775.59
713.744	1757.16
713.931	1814.5
714.119	1832.93
714.306	1615.85
714.494	1808.36
714.682	1642.47
714.869	1740.77
715.057	1695.72
715.244	1773.54
715.432	1748.97
715.619	1767.4
715.807	1716.2
715.994	1785.83
716.182	1554.41
716.369	1662.95
716.556	1705.96
716.744	1693.67
716.931	1734.63
717.119	1568.74
717.306	1595.37
717.493	1685.48
717.681	1646.57
717.868	1589.22
718.055	1621.99
718.242	1634.28
718.43	1599.46
718.617	1585.13
718.804	1499.11
718.991	1611.75
719.179	1452.01
719.366	1538.02
719.553	1523.69
719.74	1533.93
719.927	1499.11
720.114	1531.88
720.301	1462.25
720.488	1591.27
720.676	1570.79
720.863	1511.4
721.05	1507.3
721.237	1550.31
721.424	1519.59
721.611	1474.54
721.798	1472.49
721.985	1363.95
722.172	1447.91
722.358	1492.97
722.545	1490.92
722.732	1392.62
722.919	1396.71
723.106	1343.47
723.293	1357.8
723.48	1312.75
723.667	1265.64
723.853	1396.71
724.04	1413.1
724.227	1304.56
724.414	1374.19
724.6	1411.05
724.787	1368.04
724.974	1423.34
725.161	1298.41
725.347	1329.13
725.534	1343.47
725.72	1382.38
725.907	1267.69
726.094	1388.52
726.28	1261.55
726.467	1286.12
726.653	1265.64
726.84	1316.84
727.027	1308.65
727.213	1337.32
727.4	1157.1
727.586	1300.46
727.773	1292.27
727.959	1247.21
728.145	1236.97
728.332	1273.84
728.518	1204.21
728.705	1206.25
728.891	1277.93
729.077	1193.97
729.264	1103.86
729.45	1284.08
729.636	1216.49
729.823	1220.59
730.009	1196.01
730.195	1185.77
730.382	1159.15
730.568	1245.16
730.754	1169.39
730.94	1159.15
731.126	1099.76
731.313	1169.39
731.499	1107.95
731.685	1148.91
731.871	1101.81
732.057	1153.01
732.243	1083.38
732.429	1028.08
732.615	1093.62
732.801	1128.43
732.987	1079.28
733.173	1120.24
733.359	1066.99
733.545	1064.94
733.731	1034.22
733.917	1062.9
734.103	1142.77
734.289	1083.38
734.475	1028.08
734.661	1159.15
734.847	1054.7
735.033	1097.71
735.219	1030.13
735.404	987.12
735.59	1052.66
735.776	974.83
735.962	1038.32
736.148	948.21
736.333	972.79
736.519	1028.08
736.705	1030.13
736.89	1007.6
737.076	1071.09
737.262	942.07
737.447	997.36
737.633	1026.03
737.819	1015.79
738.004	950.26
738.19	929.78
738.375	960.5
738.561	1048.56
738.747	989.17
738.932	972.79
739.118	962.55
739.303	995.31
739.489	897.01
739.674	905.2
739.859	976.88
740.045	921.59
740.23	1015.79
740.416	917.49
740.601	897.01
740.786	854
740.972	874.48
741.157	886.77
741.342	884.72
741.528	905.2
741.713	968.69
741.898	927.73
742.084	870.39
742.269	782.32
742.454	911.35
742.639	860.15
742.824	933.87
743.01	823.28
743.195	849.91
743.38	829.43
743.565	839.67
743.75	782.32
743.935	831.48
744.12	935.92
744.305	763.89
744.49	767.99
744.675	864.24
744.86	739.32
745.045	948.21
745.23	815.09
745.415	765.94
745.6	821.24
745.785	815.09
745.97	737.27
746.155	817.14
746.34	714.74
746.525	825.33
746.71	825.33
746.895	774.13
747.079	747.51
747.264	659.45
747.449	745.46
747.634	722.93
747.819	708.6
748.003	751.6
748.188	755.7
748.373	675.83
748.557	663.54
748.742	751.6
748.927	655.35
749.111	657.4
749.296	722.93
749.481	761.84
749.665	659.45
749.85	673.78
750.034	643.06
750.219	665.59
750.404	600.05
750.588	589.82
750.773	651.25
750.957	681.97
751.141	655.35
751.326	610.29
751.51	567.29
751.695	653.3
751.879	569.34
752.064	610.29
752.248	630.77
752.432	534.52
752.617	538.62
752.801	677.88
752.985	618.49
753.17	595.96
753.354	610.29
753.538	602.1
753.722	548.86
753.907	606.2
754.091	684.02
754.275	534.52
754.459	593.91
754.643	555
754.828	581.62
755.012	595.96
755.196	471.03
755.38	618.49
755.564	544.76
755.748	600.05
755.932	663.54
756.116	546.81
756.3	575.48
756.484	557.05
756.668	499.7
756.852	536.57
757.036	448.51
757.22	501.75
757.404	514.04
757.588	511.99
757.772	448.51
757.956	489.46
758.14	544.76
758.323	456.7
758.507	507.9
758.691	526.33
758.875	489.46
759.059	503.8
759.242	516.09
759.426	493.56
759.61	479.22
759.794	542.71
759.977	399.35
760.161	520.18
760.345	475.13
760.528	479.22
760.712	458.75
760.895	440.31
761.079	442.36
761.263	481.27
761.446	483.32
761.63	538.62
761.813	462.84
761.997	391.16
762.18	432.12
762.364	479.22
762.547	389.11
762.731	452.6
762.914	434.17
763.098	421.88
763.281	520.18
763.464	438.27
763.648	481.27
763.831	380.92
764.015	397.31
764.198	473.08
764.381	387.07
764.564	393.21
764.748	399.35
764.931	393.21
765.114	475.13
765.297	446.46
765.481	405.5
765.664	450.55
765.847	393.21
766.03	376.83
766.213	378.87
766.397	450.55
766.58	403.45
766.763	428.03
766.946	399.35
767.129	382.97
767.312	385.02
767.495	350.2
767.678	436.22
767.861	368.63
768.044	358.39
768.227	403.45
768.41	434.17
768.593	382.97
768.776	428.03
768.959	389.11
769.142	456.7
769.324	366.59
769.507	342.01
769.69	399.35
769.873	327.67
770.056	352.25
770.239	358.39
770.421	374.78
770.604	325.63
770.787	331.77
770.97	374.78
771.152	339.96
771.335	339.96
771.518	405.5
771.7	430.07
771.883	323.58
772.066	315.39
772.248	352.25
772.431	360.44
772.613	301.05
772.796	350.2
772.978	307.2
773.161	344.06
773.343	358.39
773.526	307.2
773.708	356.35
773.891	397.31
774.073	305.15
774.256	313.34
774.438	356.35
774.621	362.49
774.803	331.77
774.985	350.2
775.168	239.61
775.35	323.58
775.532	305.15
775.715	366.59
775.897	364.54
776.079	356.35
776.261	268.28
776.444	311.29
776.626	274.43
776.808	276.48
776.99	276.48
777.173	241.66
777.355	303.1
777.537	303.1
777.719	317.44
777.901	282.62
778.083	264.19
778.265	264.19
778.447	309.24
778.629	358.39
778.811	229.37
778.993	294.91
779.175	354.3
779.357	317.44
779.539	274.43
779.721	249.85
779.903	262.14
780.085	243.71
780.267	284.67
780.449	276.48
780.631	292.86
780.812	206.84
780.994	202.75
781.176	249.85
781.358	258.04
781.54	301.05
781.721	342.01
781.903	247.8
782.085	229.37
782.267	194.56
782.448	231.42
782.63	241.66
782.812	272.38
782.993	202.75
783.175	212.99
783.357	321.53
783.538	178.17
783.72	223.23
783.901	247.8
784.083	208.89
784.264	194.56
784.446	270.33
784.627	241.66
784.809	225.28
784.99	167.93
785.172	204.8
785.353	221.18
785.535	202.75
785.716	161.79
785.897	163.84
786.079	159.74
786.26	176.13
786.441	178.17
786.623	114.69
786.804	221.18
786.985	161.79
787.167	208.89
787.348	194.56
787.529	272.38
787.71	118.78
787.891	135.17
788.073	131.07
788.254	122.88
788.435	212.99
788.616	198.65
788.797	139.26
788.978	163.84
789.159	169.98
789.34	153.6
789.522	196.61
789.703	116.73
789.884	178.17
790.065	200.7
790.246	149.5
790.427	141.31
790.607	135.17
790.788	174.08
790.969	165.89
791.15	192.51
791.331	102.4
791.512	200.7
791.693	108.54
791.874	204.8
792.054	200.7
792.235	161.79
792.416	178.17
792.597	104.45
792.778	135.17
792.958	94.21
793.139	116.73
793.32	153.6
793.5	69.63
793.681	143.36
793.862	102.4
794.042	188.41
794.223	153.6
794.404	153.6
794.584	81.92
794.765	163.84
794.945	124.93
795.126	81.92
795.306	145.41
795.487	176.13
795.667	86.01
795.848	153.6
796.028	155.65
796.209	141.31
796.389	137.21
796.57	73.73
796.75	137.21
796.93	190.46
797.111	159.74
797.291	153.6
797.471	172.03
797.652	126.97
797.832	108.54
798.012	118.78
798.192	118.78
798.373	135.17
798.553	139.26
798.733	143.36
798.913	143.36
799.093	120.83
799.274	122.88
799.454	126.97
799.634	139.26
799.814	112.64
799.994	133.12
800.174	106.49
800.354	73.73
800.534	69.63
800.714	159.74
800.894	116.73
801.074	55.3
801.254	122.88
801.434	118.78
801.614	118.78
801.794	122.88
801.974	325.63
802.154	133.12
802.334	124.93
802.514	61.44
802.693	32.77
802.873	65.54
803.053	135.17
803.233	67.58
803.413	45.06
803.592	65.54
803.772	59.39
803.952	108.54
804.131	38.91
804.311	118.78
804.491	112.64
804.67	67.58
804.85	188.41
805.03	133.12
805.209	88.06
805.389	110.59
805.568	79.87
805.748	65.54
805.928	69.63
806.107	90.11
806.287	116.73
806.466	57.34
806.646	110.59
806.825	40.96
807.004	-22.53
807.184	71.68
807.363	126.97
807.543	71.68
807.722	30.72
807.901	88.06
808.081	30.72
808.26	38.91
808.439	30.72
808.619	22.53
808.798	-22.53
808.977	34.82
809.156	71.68
809.336	126.97
809.515	77.82
809.694	26.62
809.873	83.97
810.052	96.25
810.231	131.07
810.411	135.17
810.59	18.43
810.769	161.79
810.948	92.16
811.127	-8.19
811.306	4.1
811.485	94.21
811.664	65.54
811.843	57.34
812.022	102.4
812.201	22.53
812.38	45.06
812.559	-8.19
812.737	139.26
812.916	20.48
813.095	55.3
813.274	26.62
813.453	59.39
813.632	18.43
813.811	28.67
813.989	28.67
814.168	0
814.347	49.15
814.526	38.91
814.704	32.77
814.883	38.91
815.062	71.68
815.24	63.49
815.419	67.58
815.598	49.15
815.776	75.77
815.955	59.39
816.133	24.58
816.312	-12.29
816.49	71.68
816.669	57.34
816.847	86.01
817.026	153.6
817.204	32.77
817.383	20.48
817.561	30.72
817.74	69.63
817.918	61.44
818.097	157.69
818.275	61.44
818.453	40.96
818.632	53.25
818.81	0
818.988	59.39
819.167	63.49
819.345	86.01
819.523	47.1
819.701	47.1
819.879	71.68
820.058	106.49
820.236	55.3
820.414	122.88
820.592	71.68
820.77	43.01
820.948	26.62
821.127	65.54
821.305	45.06
821.483	10.24
821.661	59.39
821.839	24.58
822.017	47.1
822.195	-26.62
822.373	38.91
822.551	65.54
822.729	12.29
822.907	40.96
823.085	71.68
823.262	75.77
823.44	120.83
823.618	20.48
823.796	63.49
823.974	-14.34
824.152	45.06
824.329	96.25
824.507	22.53
824.685	30.72
824.863	4.1
825.04	30.72
825.218	36.86
825.396	75.77
825.574	55.3
825.751	43.01
825.929	61.44
826.107	-53.25
826.284	79.87
826.462	55.3
826.639	38.91
826.817	47.1
826.994	126.97
827.172	-53.25
827.349	81.92
827.527	-28.67
827.704	38.91
827.882	43.01
828.059	12.29
828.237	4.1
828.414	40.96
828.591	90.11
828.769	0
828.946	20.48
829.124	53.25
829.301	100.35
829.478	47.1
829.655	4.1
829.833	71.68
830.01	8.19
830.187	34.82
830.364	18.43
830.542	79.87
830.719	69.63
830.896	63.49
831.073	14.34
831.25	8.19
831.427	-18.43
831.604	20.48
831.782	55.3
831.959	16.38
832.136	18.43
832.313	36.86
832.49	94.21
832.667	36.86
832.844	-24.58
833.021	139.26
833.198	-16.38
833.374	-45.06
833.551	4.1
833.728	-28.67
833.905	88.06
834.082	38.91
834.259	38.91
834.436	34.82
834.612	32.77
834.789	69.63
834.966	10.24
835.143	63.49
835.319	-16.38
835.496	47.1
835.673	18.43
835.85	61.44
836.026	51.2
836.203	59.39
836.38	104.45
836.556	6.14
836.733	-6.14
836.909	38.91
837.086	75.77
837.262	38.91
837.439	0
837.616	12.29
837.792	24.58
837.968	40.96
838.145	28.67
838.321	73.73
838.498	26.62
838.674	24.58
838.851	-28.67
839.027	22.53
839.203	63.49
839.38	4.1
839.556	2.05
839.732	32.77
839.909	32.77
840.085	22.53
840.261	63.49
840.437	24.58
840.614	-18.43
840.79	47.1
840.966	30.72
841.142	77.82
841.318	-24.58
841.494	65.54
841.671	47.1
841.847	22.53
842.023	-12.29
842.199	38.91
842.375	22.53
842.551	28.67
842.727	-12.29
842.903	22.53
843.079	-34.82
843.255	47.1
843.431	-8.19
843.607	-43.01
843.783	20.48
843.959	12.29
844.134	-36.86
844.31	6.14
844.486	30.72
844.662	-45.06
844.838	2.05
845.013	0
845.189	38.91
845.365	-14.34
845.541	24.58
845.716	22.53
845.892	14.34
846.068	-30.72
846.244	45.06
846.419	20.48
846.595	-2.05
846.77	4.1
846.946	22.53
847.122	-26.62
847.297	51.2
847.473	81.92
847.648	20.48
847.824	-6.14
847.999	34.82
848.175	4.1
848.35	28.67
848.526	43.01
848.701	63.49
848.876	0
849.052	10.24
849.227	6.14
849.403	30.72
849.578	-12.29
849.753	100.35
849.929	-4.1
850.104	-8.19
850.279	36.86
850.454	49.15
850.63	-10.24
850.805	-30.72
850.98	10.24
851.155	14.34
851.33	16.38
851.505	-69.63
851.681	-8.19
851.856	-34.82
852.031	118.78
852.206	77.82
852.381	49.15
852.556	-12.29
852.731	69.63
852.906	-75.77
853.081	-88.06
853.256	-8.19
853.431	8.19
853.606	18.43
853.781	-20.48
853.956	30.72
854.131	61.44
854.305	28.67
854.48	28.67
854.655	-38.91
854.83	12.29
855.005	-20.48
855.18	22.53
855.354	18.43
855.529	10.24
855.704	4.1
855.879	8.19
856.053	49.15
856.228	18.43
856.403	8.19
856.577	-10.24
856.752	28.67
856.926	-18.43
857.101	71.68
857.276	-20.48
857.45	14.34
857.625	36.86
857.799	32.77
857.974	0
858.148	55.3
858.323	49.15
858.497	53.25
858.672	38.91
858.846	69.63
859.02	6.14
859.195	2.05
859.369	14.34
859.543	-2.05
859.718	4.1
859.892	-2.05
860.066	51.2
860.241	-16.38
860.415	38.91
860.589	14.34
860.763	34.82
860.938	77.82
861.112	38.91
861.286	6.14
861.46	-53.25
861.634	18.43
861.808	10.24
861.982	-36.86
862.157	-36.86
862.331	4.1
862.505	-10.24
862.679	-75.77
862.853	43.01
863.027	-10.24
863.201	53.25
863.375	57.34
863.549	-43.01
863.722	-77.82
863.896	-18.43
864.07	8.19
864.244	-16.38
864.418	30.72
864.592	45.06
864.766	34.82
864.939	12.29
865.113	-4.1
865.287	83.97
865.461	-36.86
865.634	20.48
865.808	28.67
865.982	4.1
866.156	-6.14
866.329	-22.53
866.503	81.92
866.676	-26.62
866.85	-6.14
867.024	45.06
867.197	40.96
867.371	-30.72
867.544	32.77
867.718	-4.1
867.891	61.44
868.065	12.29
868.238	-18.43
868.412	-6.14
868.585	-16.38
868.759	-40.96
868.932	38.91
869.105	32.77
869.279	-4.1
869.452	61.44
869.625	18.43
869.799	2.05
869.972	34.82
870.145	10.24
870.319	28.67
870.492	4.1
870.665	-20.48
870.838	-22.53
871.011	-16.38
871.185	28.67
871.358	22.53
871.531	-20.48
871.704	-2.05
871.877	-18.43
872.05	38.91
872.223	-30.72
872.396	40.96
872.569	4.1
872.742	40.96
872.915	30.72
873.088	2.05
873.261	-20.48
873.434	16.38
873.607	-61.44
873.78	8.19
873.953	59.39
874.126	-26.62
874.299	18.43
874.471	-16.38
874.644	-67.58
874.817	57.34
874.99	71.68
875.163	18.43
875.335	-30.72
875.508	-38.91
875.681	-4.1
875.853	-47.1
876.026	61.44
876.199	59.39
876.371	0
876.544	30.72
876.717	-28.67
876.889	53.25
877.062	-10.24
877.234	51.2
877.407	16.38
877.579	40.96
877.752	22.53
877.924	24.58
878.097	-67.58
878.269	-53.25
878.442	106.49
878.614	-28.67
878.786	-14.34
878.959	-36.86
879.131	2.05
879.303	12.29
879.476	61.44
879.648	-8.19
879.82	67.58
879.993	14.34
880.165	-40.96
880.337	20.48
880.509	-8.19
880.681	-26.62
880.854	-30.72
881.026	36.86
881.198	-57.34
881.37	-4.1
881.542	8.19
881.714	-51.2
881.886	16.38
882.058	-20.48
882.23	34.82
882.402	-12.29
882.574	4.1
882.746	2.05
882.918	-26.62
883.09	-28.67
883.262	20.48
883.434	14.34
883.606	14.34
883.778	-69.63
883.95	110.59
884.122	-8.19
884.293	-16.38
884.465	-30.72
884.637	-53.25
884.809	16.38
884.98	-26.62
885.152	2.05
885.324	8.19
885.496	18.43
885.667	10.24
885.839	40.96
886.011	-10.24
886.182	94.21
886.354	-22.53
886.525	51.2
886.697	6.14
886.869	32.77
887.04	14.34
887.212	-51.2
887.383	20.48
887.555	32.77
887.726	36.86
887.897	-32.77
888.069	43.01
888.24	30.72
888.412	49.15
888.583	-16.38
888.754	-38.91
888.926	38.91
889.097	-28.67
889.268	-38.91
889.44	-12.29
889.611	-14.34
889.782	-61.44
889.953	-86.01
890.125	16.38
890.296	4.1
890.467	-10.24
890.638	-2.05
890.809	63.49
890.98	-10.24
891.151	22.53
891.323	4.1
891.494	18.43
891.665	16.38
891.836	12.29
892.007	57.34
892.178	26.62
892.349	-16.38
892.52	-26.62
892.691	-26.62
892.862	-67.58
893.032	-6.14
893.203	6.14
893.374	32.77
893.545	-24.58
893.716	0
893.887	4.1
894.057	-53.25
894.228	22.53
894.399	32.77
894.57	-47.1
894.74	24.58
894.911	40.96
895.082	34.82
895.253	-47.1
895.423	-43.01
895.594	43.01
895.764	-49.15
895.935	65.54
896.106	-34.82
896.276	-4.1
896.447	-59.39
896.617	83.97
896.788	-10.24
896.958	-32.77
897.129	12.29
897.299	-61.44
897.47	-49.15
897.64	-20.48
897.81	-12.29
897.981	-20.48
898.151	-83.97
898.322	36.86
898.492	-24.58
898.662	45.06
898.832	-24.58
899.003	-12.29
899.173	-83.97
899.343	26.62
899.513	-8.19
