Data from USB4F104151__223__14-00-16-422.txt Node

Date: Thu Mar 13 14:00:16 EDT 2025
User: louis
Spectrometer: USB4F10415
Trigger mode: 4
Integration Time (sec): 1.000000E-2
Scans to average: 1
Electric dark correction enabled: true
Nonlinearity correction enabled: false
Boxcar width: 0
XAxis mode: Wavelengths
Number of Pixels in Spectrum: 3648
>>>>>Begin Spectral Data<<<<<
178.204	-9.39
178.424	-9.39
178.644	-9.39
178.864	-3.24
179.084	-44.2
179.304	80.72
179.524	21.33
179.744	-15.53
179.964	21.33
180.184	9.05
180.404	29.52
180.624	41.81
180.844	-19.63
181.064	-99.5
181.283	-50.35
181.503	4.95
181.723	-23.72
181.943	-5.29
182.163	-17.58
182.383	68.44
182.602	-25.77
182.822	54.1
183.042	27.48
183.262	-25.77
183.482	9.05
183.701	70.48
183.921	27.48
184.141	70.48
184.361	-15.53
184.58	2.9
184.8	-17.58
185.02	15.19
185.239	74.58
185.459	-50.35
185.679	-29.87
185.898	39.76
186.118	78.68
186.338	66.39
186.557	95.06
186.777	-9.39
186.997	19.29
187.216	29.52
187.436	56.15
187.655	11.09
187.875	9.05
188.095	-19.63
188.314	60.24
188.534	23.38
188.753	-23.72
188.973	-11.43
189.192	56.15
189.412	43.86
189.631	50
189.851	35.67
190.07	27.48
190.29	-15.53
190.509	-29.87
190.729	-25.77
190.948	58.2
191.168	90.96
191.387	9.05
191.607	47.96
191.826	39.76
192.045	-23.72
192.265	19.29
192.484	2.9
192.704	33.62
192.923	25.43
193.142	64.34
193.362	88.92
193.581	-19.63
193.8	-7.34
194.02	66.39
194.239	41.81
194.458	35.67
194.678	62.29
194.897	7
195.116	35.67
195.335	25.43
195.555	-33.96
195.774	-11.43
195.993	15.19
196.212	31.57
196.432	-76.97
196.651	47.96
196.87	-9.39
197.089	-25.77
197.308	43.86
197.528	-36.01
197.747	-21.67
197.966	-19.63
198.185	19.29
198.404	-64.68
198.623	17.24
198.842	27.48
199.062	29.52
199.281	95.06
199.5	4.95
199.719	31.57
199.938	15.19
200.157	-23.72
200.376	29.52
200.595	7
200.814	-52.39
201.033	-17.58
201.252	64.34
201.471	80.72
201.69	58.2
201.909	-3.24
202.128	19.29
202.347	60.24
202.566	9.05
202.785	15.19
203.004	27.48
203.223	88.92
203.442	-21.67
203.661	2.9
203.879	0.85
204.098	41.81
204.317	-1.19
204.536	-9.39
204.755	7
204.974	17.24
205.193	123.73
205.411	17.24
205.63	-56.49
205.849	60.24
206.068	31.57
206.287	58.2
206.505	-48.3
206.724	-17.58
206.943	45.91
207.162	-33.96
207.381	35.67
207.599	13.14
207.818	2.9
208.037	29.52
208.255	-7.34
208.474	25.43
208.693	-33.96
208.911	13.14
209.13	56.15
209.349	17.24
209.567	7
209.786	76.63
210.005	101.2
210.223	35.67
210.442	-1.19
210.661	33.62
210.879	-17.58
211.098	-50.35
211.316	-25.77
211.535	29.52
211.753	-5.29
211.972	74.58
212.191	43.86
212.409	25.43
212.628	-19.63
212.846	-44.2
213.065	-44.2
213.283	15.19
213.502	-15.53
213.72	25.43
213.938	41.81
214.157	-13.48
214.375	41.81
214.594	-3.24
214.812	21.33
215.031	23.38
215.249	-27.82
215.467	47.96
215.686	-36.01
215.904	64.34
216.122	35.67
216.341	47.96
216.559	11.09
216.778	-5.29
216.996	-33.96
217.214	33.62
217.432	31.57
217.651	-33.96
217.869	11.09
218.087	7
218.306	15.19
218.524	-23.72
218.742	43.86
218.96	27.48
219.179	31.57
219.397	-25.77
219.615	33.62
219.833	23.38
220.051	-21.67
220.27	-7.34
220.488	-38.06
220.706	-33.96
220.924	13.14
221.142	27.48
221.36	-21.67
221.578	-68.78
221.796	7
222.015	13.14
222.233	2.9
222.451	88.92
222.669	23.38
222.887	-48.3
223.105	25.43
223.323	70.48
223.541	15.19
223.759	-31.91
223.977	50
224.195	35.67
224.413	-5.29
224.631	7
224.849	-19.63
225.067	99.16
225.285	-48.3
225.503	-9.39
225.721	-58.54
225.939	-11.43
226.157	56.15
226.375	27.48
226.592	45.91
226.81	17.24
227.028	43.86
227.246	52.05
227.464	29.52
227.682	21.33
227.9	15.19
228.117	43.86
228.335	70.48
228.553	97.11
228.771	17.24
228.989	-7.34
229.206	35.67
229.424	41.81
229.642	-3.24
229.86	15.19
230.077	41.81
230.295	41.81
230.513	-15.53
230.731	0.85
230.948	21.33
231.166	33.62
231.384	-11.43
231.601	35.67
231.819	39.76
232.037	-13.48
232.254	-5.29
232.472	-27.82
232.689	-5.29
232.907	45.91
233.125	45.91
233.342	21.33
233.56	62.29
233.777	54.1
233.995	60.24
234.213	-19.63
234.43	35.67
234.648	-5.29
234.865	7
235.083	25.43
235.3	0.85
235.518	0.85
235.735	56.15
235.953	45.91
236.17	4.95
236.388	11.09
236.605	-21.67
236.822	-7.34
237.04	-7.34
237.257	66.39
237.475	0.85
237.692	62.29
237.909	15.19
238.127	45.91
238.344	58.2
238.562	7
238.779	15.19
238.996	15.19
239.214	11.09
239.431	25.43
239.648	35.67
239.865	74.58
240.083	-27.82
240.3	39.76
240.517	21.33
240.735	-1.19
240.952	11.09
241.169	80.72
241.386	27.48
241.603	60.24
241.821	-17.58
242.038	27.48
242.255	-13.48
242.472	4.95
242.689	-5.29
242.907	68.44
243.124	-38.06
243.341	39.76
243.558	35.67
243.775	-21.67
243.992	60.24
244.209	43.86
244.426	58.2
244.643	50
244.86	45.91
245.078	82.77
245.295	23.38
245.512	-9.39
245.729	23.38
245.946	-1.19
246.163	-5.29
246.38	39.76
246.597	17.24
246.814	17.24
247.031	84.82
247.248	-23.72
247.464	33.62
247.681	62.29
247.898	78.68
248.115	66.39
248.332	-33.96
248.549	47.96
248.766	7
248.983	50
249.2	13.14
249.417	50
249.633	7
249.85	19.29
250.067	31.57
250.284	0.85
250.501	-64.68
250.717	-15.53
250.934	43.86
251.151	-7.34
251.368	9.05
251.585	-1.19
251.801	-1.19
252.018	56.15
252.235	2.9
252.451	80.72
252.668	-99.5
252.885	58.2
253.102	13.14
253.318	31.57
253.535	52.05
253.752	-33.96
253.968	27.48
254.185	17.24
254.401	39.76
254.618	35.67
254.835	52.05
255.051	-7.34
255.268	9.05
255.484	2.9
255.701	-52.39
255.917	35.67
256.134	43.86
256.351	25.43
256.567	-19.63
256.784	37.72
257	58.2
257.217	2.9
257.433	39.76
257.65	64.34
257.866	-17.58
258.082	29.52
258.299	-9.39
258.515	21.33
258.732	-5.29
258.948	-3.24
259.165	7
259.381	19.29
259.597	-11.43
259.814	-9.39
260.03	47.96
260.246	-25.77
260.463	15.19
260.679	62.29
260.895	-9.39
261.112	-33.96
261.328	-9.39
261.544	2.9
261.761	39.76
261.977	-1.19
262.193	35.67
262.409	-9.39
262.626	11.09
262.842	-9.39
263.058	25.43
263.274	-9.39
263.49	25.43
263.707	-25.77
263.923	31.57
264.139	9.05
264.355	90.96
264.571	-1.19
264.787	-25.77
265.004	82.77
265.22	50
265.436	-42.15
265.652	-17.58
265.868	31.57
266.084	29.52
266.3	64.34
266.516	-27.82
266.732	-9.39
266.948	-33.96
267.164	39.76
267.38	23.38
267.596	17.24
267.812	50
268.028	17.24
268.244	95.06
268.46	-19.63
268.676	43.86
268.892	13.14
269.108	13.14
269.324	60.24
269.54	11.09
269.756	86.87
269.972	11.09
270.188	29.52
270.403	4.95
270.619	54.1
270.835	-29.87
271.051	109.4
271.267	11.09
271.483	-50.35
271.698	-7.34
271.914	66.39
272.13	33.62
272.346	15.19
272.562	93.01
272.777	13.14
272.993	29.52
273.209	-1.19
273.425	23.38
273.64	4.95
273.856	52.05
274.072	107.35
274.287	58.2
274.503	60.24
274.719	41.81
274.934	68.44
275.15	-21.67
275.366	-3.24
275.581	-33.96
275.797	23.38
276.012	43.86
276.228	7
276.444	58.2
276.659	-1.19
276.875	60.24
277.09	9.05
277.306	-23.72
277.521	105.3
277.737	27.48
277.952	56.15
278.168	47.96
278.383	-97.45
278.599	52.05
278.814	41.81
279.03	64.34
279.245	54.1
279.461	-25.77
279.676	56.15
279.892	-1.19
280.107	72.53
280.322	-7.34
280.538	-62.63
280.753	64.34
280.969	82.77
281.184	29.52
281.399	31.57
281.615	41.81
281.83	66.39
282.045	13.14
282.26	43.86
282.476	37.72
282.691	27.48
282.906	-38.06
283.122	97.11
283.337	-33.96
283.552	123.73
283.767	41.81
283.983	0.85
284.198	-27.82
284.413	-17.58
284.628	23.38
284.843	-13.48
285.058	19.29
285.274	74.58
285.489	-3.24
285.704	23.38
285.919	-9.39
286.134	117.59
286.349	-17.58
286.564	27.48
286.779	15.19
286.995	31.57
287.21	-25.77
287.425	0.85
287.64	0.85
287.855	21.33
288.07	41.81
288.285	-9.39
288.5	50
288.715	0.85
288.93	31.57
289.145	56.15
289.36	33.62
289.575	-9.39
289.79	7
290.004	-23.72
290.219	35.67
290.434	0.85
290.649	-17.58
290.864	33.62
291.079	37.72
291.294	29.52
291.509	27.48
291.724	84.82
291.938	-15.53
292.153	62.29
292.368	-44.2
292.583	23.38
292.798	-38.06
293.012	-7.34
293.227	41.81
293.442	-74.92
293.657	39.76
293.871	47.96
294.086	64.34
294.301	27.48
294.516	27.48
294.73	56.15
294.945	60.24
295.16	2.9
295.374	-31.91
295.589	2.9
295.804	39.76
296.018	-17.58
296.233	11.09
296.447	64.34
296.662	7
296.877	64.34
297.091	-36.01
297.306	64.34
297.52	43.86
297.735	9.05
297.949	50
298.164	17.24
298.378	21.33
298.593	64.34
298.807	-5.29
299.022	107.35
299.236	82.77
299.451	88.92
299.665	-5.29
299.88	-25.77
300.094	78.68
300.309	23.38
300.523	54.1
300.737	11.09
300.952	-1.19
301.166	19.29
301.381	74.58
301.595	29.52
301.809	-50.35
302.024	-38.06
302.238	7
302.452	45.91
302.667	-83.11
302.881	50
303.095	43.86
303.309	-17.58
303.524	-42.15
303.738	15.19
303.952	11.09
304.166	15.19
304.381	11.09
304.595	31.57
304.809	41.81
305.023	33.62
305.237	33.62
305.452	-9.39
305.666	31.57
305.88	60.24
306.094	29.52
306.308	17.24
306.522	90.96
306.736	35.67
306.95	68.44
307.164	-7.34
307.379	7
307.593	-17.58
307.807	31.57
308.021	13.14
308.235	25.43
308.449	-15.53
308.663	66.39
308.877	88.92
309.091	23.38
309.305	43.86
309.519	72.53
309.733	62.29
309.947	43.86
310.161	66.39
310.374	50
310.588	15.19
310.802	105.3
311.016	29.52
311.23	13.14
311.444	-33.96
311.658	54.1
311.872	74.58
312.085	82.77
312.299	43.86
312.513	82.77
312.727	47.96
312.941	13.14
313.154	-48.3
313.368	-17.58
313.582	35.67
313.796	31.57
314.009	29.52
314.223	41.81
314.437	11.09
314.651	13.14
314.864	66.39
315.078	31.57
315.292	45.91
315.505	45.91
315.719	-19.63
315.933	29.52
316.146	7
316.36	23.38
316.573	47.96
316.787	11.09
317.001	58.2
317.214	31.57
317.428	-19.63
317.641	2.9
317.855	-3.24
318.068	4.95
318.282	13.14
318.495	60.24
318.709	72.53
318.922	72.53
319.136	56.15
319.349	70.48
319.563	60.24
319.776	19.29
319.99	-13.48
320.203	-21.67
320.417	66.39
320.63	66.39
320.843	-7.34
321.057	19.29
321.27	50
321.483	54.1
321.697	111.44
321.91	11.09
322.124	66.39
322.337	2.9
322.55	11.09
322.763	-15.53
322.977	19.29
323.19	25.43
323.403	25.43
323.617	35.67
323.83	2.9
324.043	-25.77
324.256	105.3
324.469	37.72
324.683	13.14
324.896	47.96
325.109	50
325.322	60.24
325.535	39.76
325.748	23.38
325.962	52.05
326.175	45.91
326.388	-5.29
326.601	72.53
326.814	39.76
327.027	50
327.24	136.02
327.453	56.15
327.666	15.19
327.879	-17.58
328.092	64.34
328.305	-3.24
328.518	-17.58
328.731	25.43
328.944	60.24
329.157	82.77
329.37	93.01
329.583	52.05
329.796	39.76
330.009	-38.06
330.222	80.72
330.435	47.96
330.648	2.9
330.861	27.48
331.073	52.05
331.286	21.33
331.499	7
331.712	-3.24
331.925	41.81
332.138	64.34
332.35	56.15
332.563	52.05
332.776	41.81
332.989	11.09
333.202	47.96
333.414	35.67
333.627	-25.77
333.84	88.92
334.053	50
334.265	-25.77
334.478	60.24
334.691	27.48
334.903	90.96
335.116	-36.01
335.329	7
335.541	31.57
335.754	19.29
335.966	68.44
336.179	15.19
336.392	52.05
336.604	23.38
336.817	52.05
337.029	4.95
337.242	62.29
337.454	33.62
337.667	9.05
337.88	109.4
338.092	33.62
338.305	-1.19
338.517	41.81
338.729	-9.39
338.942	21.33
339.154	41.81
339.367	80.72
339.579	-1.19
339.792	95.06
340.004	-3.24
340.217	11.09
340.429	45.91
340.641	-17.58
340.854	-1.19
341.066	41.81
341.278	80.72
341.491	47.96
341.703	90.96
341.915	27.48
342.128	45.91
342.34	43.86
342.552	72.53
342.764	103.25
342.977	72.53
343.189	41.81
343.401	64.34
343.613	-5.29
343.826	33.62
344.038	-7.34
344.25	17.24
344.462	7
344.674	105.3
344.886	-17.58
345.099	19.29
345.311	-36.01
345.523	76.63
345.735	58.2
345.947	88.92
346.159	52.05
346.371	-38.06
346.583	88.92
346.795	39.76
347.007	56.15
347.219	62.29
347.431	-1.19
347.643	9.05
347.855	62.29
348.067	47.96
348.279	7
348.491	70.48
348.703	45.91
348.915	31.57
349.127	17.24
349.339	-15.53
349.551	-9.39
349.763	23.38
349.975	74.58
350.187	27.48
350.399	19.29
350.61	7
350.822	19.29
351.034	21.33
351.246	19.29
351.458	56.15
351.669	17.24
351.881	2.9
352.093	25.43
352.305	11.09
352.517	35.67
352.728	64.34
352.94	78.68
353.152	78.68
353.363	62.29
353.575	54.1
353.787	60.24
353.999	31.57
354.21	50
354.422	60.24
354.633	21.33
354.845	72.53
355.057	35.67
355.268	47.96
355.48	-23.72
355.692	47.96
355.903	-40.11
356.115	52.05
356.326	-9.39
356.538	17.24
356.749	0.85
356.961	95.06
357.172	-60.59
357.384	15.19
357.595	39.76
357.807	39.76
358.018	-15.53
358.23	47.96
358.441	-9.39
358.653	64.34
358.864	74.58
359.075	7
359.287	27.48
359.498	21.33
359.709	-1.19
359.921	39.76
360.132	13.14
360.344	64.34
360.555	39.76
360.766	-33.96
360.977	4.95
361.189	105.3
361.4	21.33
361.611	56.15
361.823	121.68
362.034	15.19
362.245	84.82
362.456	2.9
362.667	80.72
362.879	-48.3
363.09	39.76
363.301	84.82
363.512	43.86
363.723	27.48
363.935	29.52
364.146	7
364.357	-9.39
364.568	88.92
364.779	11.09
364.99	9.05
365.201	43.86
365.412	66.39
365.623	64.34
365.834	58.2
366.045	17.24
366.256	37.72
366.467	-13.48
366.678	76.63
366.889	84.82
367.1	50
367.311	60.24
367.522	23.38
367.733	54.1
367.944	54.1
368.155	-38.06
368.366	50
368.577	11.09
368.788	-15.53
368.999	-1.19
369.209	15.19
369.42	15.19
369.631	64.34
369.842	76.63
370.053	54.1
370.264	43.86
370.474	11.09
370.685	56.15
370.896	15.19
371.107	95.06
371.317	70.48
371.528	35.67
371.739	60.24
371.95	23.38
372.16	11.09
372.371	23.38
372.582	33.62
372.792	56.15
373.003	68.44
373.214	-11.43
373.424	86.87
373.635	72.53
373.846	60.24
374.056	88.92
374.267	60.24
374.477	39.76
374.688	99.16
374.898	23.38
375.109	74.58
375.319	56.15
375.53	74.58
375.74	47.96
375.951	-38.06
376.161	82.77
376.372	72.53
376.582	78.68
376.793	62.29
377.003	133.97
377.214	66.39
377.424	33.62
377.635	33.62
377.845	47.96
378.055	72.53
378.266	103.25
378.476	60.24
378.686	68.44
378.897	39.76
379.107	66.39
379.317	47.96
379.528	76.63
379.738	-9.39
379.948	58.2
380.158	99.16
380.369	68.44
380.579	90.96
380.789	60.24
380.999	86.87
381.21	72.53
381.42	-33.96
381.63	47.96
381.84	66.39
382.05	17.24
382.261	31.57
382.471	113.49
382.681	111.44
382.891	23.38
383.101	105.3
383.311	0.85
383.521	-9.39
383.731	52.05
383.941	133.97
384.151	-11.43
384.361	115.54
384.571	72.53
384.781	93.01
384.991	50
385.201	0.85
385.411	-33.96
385.621	64.34
385.831	60.24
386.041	76.63
386.251	84.82
386.461	66.39
386.671	64.34
386.881	31.57
387.091	72.53
387.301	113.49
387.511	58.2
387.72	7
387.93	41.81
388.14	50
388.35	82.77
388.56	4.95
388.769	50
388.979	117.59
389.189	64.34
389.399	47.96
389.609	-19.63
389.818	86.87
390.028	31.57
390.238	33.62
390.447	82.77
390.657	107.35
390.867	25.43
391.076	131.92
391.286	43.86
391.496	52.05
391.705	76.63
391.915	50
392.125	39.76
392.334	121.68
392.544	72.53
392.753	41.81
392.963	47.96
393.172	170.83
393.382	74.58
393.591	86.87
393.801	37.72
394.01	109.4
394.22	86.87
394.429	101.2
394.639	88.92
394.848	82.77
395.058	19.29
395.267	70.48
395.477	60.24
395.686	148.31
395.895	101.2
396.105	90.96
396.314	13.14
396.524	80.72
396.733	78.68
396.942	146.26
397.152	39.76
397.361	37.72
397.57	64.34
397.78	101.2
397.989	88.92
398.198	105.3
398.407	70.48
398.617	56.15
398.826	58.2
399.035	88.92
399.244	99.16
399.453	119.64
399.663	72.53
399.872	117.59
400.081	160.59
400.29	133.97
400.499	15.19
400.708	35.67
400.917	113.49
401.127	97.11
401.336	111.44
401.545	129.88
401.754	60.24
401.963	111.44
402.172	78.68
402.381	125.78
402.59	187.22
402.799	174.93
403.008	86.87
403.217	82.77
403.426	174.93
403.635	84.82
403.844	125.78
404.053	133.97
404.262	162.64
404.471	109.4
404.68	62.29
404.888	185.17
405.097	101.2
405.306	170.83
405.515	76.63
405.724	74.58
405.933	181.07
406.142	185.17
406.35	240.47
406.559	179.03
406.768	117.59
406.977	236.37
407.185	160.59
407.394	285.52
407.603	158.55
407.812	252.75
408.02	254.8
408.229	162.64
408.438	166.74
408.646	246.61
408.855	183.12
409.064	265.04
409.272	197.46
409.481	228.18
409.69	226.13
409.898	224.08
410.107	314.19
410.315	396.11
410.524	330.58
410.733	269.14
410.941	379.73
411.15	346.96
411.358	424.78
411.567	346.96
411.775	439.12
411.984	402.26
412.192	441.17
412.401	473.93
412.609	435.02
412.818	457.55
413.026	547.66
413.234	514.89
413.443	514.89
413.651	506.7
413.86	506.7
414.068	490.32
414.276	525.13
414.485	576.33
414.693	600.91
414.901	641.87
415.11	625.48
415.318	686.92
415.526	697.16
415.734	731.98
415.943	746.31
416.151	844.62
416.359	764.75
416.567	789.32
416.776	852.81
416.984	942.92
417.192	901.96
417.4	957.25
417.608	961.35
417.817	983.88
418.025	1069.89
418.233	1139.52
418.441	1151.81
418.649	1155.91
418.857	1194.82
419.065	1254.21
419.273	1268.55
419.481	1276.74
419.689	1362.75
419.897	1356.61
420.105	1426.24
420.313	1497.92
420.521	1481.53
420.729	1504.06
420.937	1600.32
421.145	1731.39
421.353	1762.11
421.561	1887.03
421.769	1979.19
421.977	1960.76
422.185	1942.33
422.393	2038.58
422.601	2241.33
422.809	2231.09
423.017	2138.93
423.224	2300.72
423.432	2495.28
423.64	2329.39
423.848	2644.78
424.056	2646.83
424.263	2652.97
424.471	2796.33
424.679	2677.55
424.887	2970.41
425.094	3078.95
425.302	3009.32
425.51	3103.53
425.718	3138.34
425.925	3382.05
426.133	3445.54
426.341	3554.08
426.548	3674.91
426.756	3728.16
426.964	3873.56
427.171	4045.59
427.379	4012.82
427.586	4240.15
427.794	4412.18
428.001	4543.25
428.209	4754.19
428.417	4715.28
428.624	4993.8
428.832	4981.51
429.039	5018.38
429.247	4973.32
429.454	5335.81
429.662	5802.75
429.869	5370.63
430.076	5860.09
430.284	5479.17
430.491	5948.15
430.699	6308.6
430.906	6308.6
431.114	6261.49
431.321	6640.37
431.528	6603.5
431.736	7117.54
431.943	7322.34
432.15	7224.04
432.358	7318.25
432.565	7641.82
432.772	7701.22
432.979	7955.16
433.187	8008.41
433.394	8039.13
433.601	8659.67
433.808	8862.41
434.016	8682.19
434.223	9188.04
434.43	9646.79
434.637	9429.7
434.844	10019.52
435.052	10326.71
435.259	10132.15
435.466	10322.62
435.673	10099.39
435.88	10814.13
436.087	11289.26
436.294	11094.7
436.501	10904.24
436.708	11387.56
436.915	11532.97
437.122	12241.56
437.329	12401.3
437.537	12411.54
437.743	12622.48
437.95	12587.67
438.157	13193.87
438.364	13699.72
438.571	13820.55
438.778	13820.55
438.985	15233.64
439.192	14512.76
439.399	15032.94
439.606	14654.07
439.813	15551.08
440.02	16439.9
440.227	16251.49
440.433	15891.04
440.64	16613.98
440.847	16482.91
441.054	16779.86
441.261	17699.4
441.467	17668.68
441.674	18149.95
441.881	18588.22
442.088	18448.96
442.294	18553.4
442.501	18885.17
442.708	19251.76
442.914	20073
443.121	20783.64
443.328	20128.29
443.534	21588.49
443.741	21174.8
443.948	20900.37
444.154	22366.72
444.361	22258.18
444.568	22465.02
444.774	22196.74
444.981	22641.15
445.187	23441.9
445.394	24484.32
445.6	23982.57
445.807	26505.66
446.013	25287.12
446.22	25725.39
446.426	26458.56
446.633	26812.86
446.839	27623.86
447.046	26640.83
447.252	27836.84
447.459	28146.09
447.665	28053.93
447.871	29049.24
448.078	30351.75
448.284	28899.74
448.491	29729.17
448.697	30685.57
448.903	31469.94
449.11	31383.93
449.316	31097.21
449.522	31590.77
449.728	32438.63
449.935	32571.75
450.141	32942.43
450.347	33538.39
450.553	32270.7
450.76	33003.87
450.966	34091.34
451.172	33562.97
451.378	34373.96
451.584	33509.72
451.791	34269.51
451.997	34455.88
452.203	35051.84
452.409	34908.48
452.615	34595.14
452.821	32930.14
453.027	32952.67
453.233	34515.27
453.44	33452.37
453.646	33423.7
453.852	33794.39
454.058	34488.65
454.264	32991.58
454.47	33962.32
454.676	33018.21
454.882	34357.58
455.088	31379.83
455.294	31639.92
455.5	32340.33
455.705	32563.56
455.911	31293.82
456.117	30790.02
456.323	30269.83
456.529	28656.03
456.735	29993.36
456.941	28969.37
457.147	28639.65
457.352	27840.94
457.558	27230.65
457.764	27681.2
457.97	27023.8
458.176	26466.75
458.381	26264
458.587	25094.61
458.793	25330.13
458.999	23945.7
459.204	25704.91
459.41	24521.18
459.616	23304.69
459.821	23435.76
460.027	23138.8
460.233	22641.15
460.438	21592.59
460.644	22069.76
460.85	20953.62
461.055	20320.8
461.261	20486.68
461.466	19003.96
461.672	18467.39
461.878	19798.57
462.083	18965.04
462.289	18162.24
462.494	17984.07
462.7	17076.82
462.905	16921.17
463.111	17427.02
463.316	17361.48
463.522	17001.04
463.727	17214.03
463.932	17140.3
464.138	16970.32
464.343	17089.1
464.549	16605.78
464.754	16853.59
464.959	16896.6
465.165	16865.88
465.37	15977.06
465.575	15520.36
465.781	16233.05
465.986	16435.8
466.191	15628.9
466.397	15241.84
466.602	14891.63
466.807	15454.83
467.012	15442.54
467.218	15178.35
467.423	15215.21
467.628	15096.43
467.833	15712.87
468.038	15254.12
468.244	14869.11
468.449	15225.45
468.654	14867.06
468.859	14979.7
469.064	14547.58
469.269	14072.45
469.474	14195.32
469.679	14234.24
469.885	14066.3
470.09	14279.29
470.295	14193.28
470.5	13746.82
470.705	13896.32
470.91	13638.28
471.115	13511.3
471.32	13439.62
471.525	13671.04
471.73	13228.68
471.935	13224.59
472.139	12860.05
472.344	13042.32
472.549	12946.06
472.754	12618.39
472.959	12561.05
473.164	12206.75
473.369	11977.37
473.574	12556.95
473.778	12386.97
473.983	12106.4
474.188	12434.07
474.393	11539.11
474.598	11635.36
474.802	11633.32
475.007	11418.28
475.212	11541.16
475.417	11145.9
475.621	11086.51
475.826	11066.03
476.031	11078.32
476.235	10472.12
476.44	10805.94
476.645	10519.22
476.849	10623.67
477.054	10568.37
477.259	10416.82
477.463	10386.1
477.668	10263.22
477.872	10242.75
478.077	10189.5
478.282	9779.9
478.486	9927.36
478.691	9896.64
478.895	9720.51
479.1	9661.12
479.304	9616.07
479.509	9294.54
479.713	9558.72
479.918	9421.51
480.122	9140.94
480.326	9380.55
480.531	9298.63
480.735	9304.78
480.94	9224.9
481.144	9249.48
481.348	9059.02
481.553	9323.21
481.757	8803.02
481.961	8973
482.166	9274.06
482.37	9022.16
482.574	8827.6
482.778	8934.09
482.983	9116.36
483.187	9175.75
483.391	9048.78
483.595	8805.07
483.8	8903.37
484.004	9011.92
484.208	8993.48
484.412	8936.14
484.616	9065.16
484.821	9071.31
485.025	8958.67
485.229	9108.17
485.433	8985.29
485.637	8872.65
485.841	8794.83
486.045	8833.74
486.249	9011.92
486.453	8690.38
486.657	8942.28
486.861	8938.19
487.065	8768.21
487.269	8919.76
487.473	8708.82
487.677	9048.78
487.881	8821.45
488.085	8919.76
488.289	9032.4
488.493	8915.66
488.697	9026.25
488.901	9044.68
489.105	9067.21
489.309	9016.01
489.512	9056.97
489.716	9124.55
489.92	9075.4
490.124	9046.73
490.328	9226.95
490.531	9265.86
490.735	9327.3
490.939	9218.76
491.143	9407.17
491.346	9335.49
491.55	9482.95
491.754	9417.41
491.958	9458.37
492.161	9423.56
492.365	9620.16
492.569	9501.38
492.772	9599.68
492.976	9534.15
493.18	9558.72
493.383	9708.23
493.587	9814.72
493.79	9917.12
493.994	9872.06
494.197	9970.37
494.401	10068.67
494.605	10226.36
494.808	10322.62
495.012	10298.04
495.215	10042.04
495.419	10566.32
495.622	10492.6
495.825	10541.75
496.029	10611.38
496.232	10795.7
496.436	10924.72
496.639	11096.75
496.843	10939.05
497.046	11315.88
497.249	11336.36
497.453	11272.87
497.656	11594.4
497.859	11661.99
498.063	11725.47
498.266	11877.02
498.469	11893.41
498.673	12188.32
498.876	12051.1
499.079	12397.21
499.282	12180.12
499.485	12616.34
499.689	12831.38
499.892	12751.51
500.095	13048.46
500.298	13238.92
500.501	13232.78
500.705	13316.75
500.908	13558.41
501.111	13890.18
501.314	13939.33
501.517	13920.9
501.72	14488.18
501.923	14207.61
502.126	14631.54
502.329	14779
502.532	14977.65
502.735	15125.1
502.938	15422.06
503.141	15288.94
503.344	15751.78
503.547	15915.62
503.75	16058.98
503.953	16128.61
504.156	16509.53
504.359	16661.08
504.562	16912.98
504.765	17117.78
504.968	17031.76
505.17	17386.06
505.373	17490.51
505.576	17814.09
505.779	17867.33
505.982	18274.88
506.185	18723.38
506.387	18582.07
506.59	18891.32
506.793	19528.24
506.996	19255.86
507.198	19456.56
507.401	19460.65
507.604	19952.16
507.807	20247.07
508.009	20415.01
508.212	20589.08
508.415	20871.7
508.617	21213.71
508.82	21426.7
509.022	21160.47
509.225	21756.43
509.428	21959.17
509.63	22284.8
509.833	22548.99
510.035	22948.34
510.238	22913.53
510.44	23116.28
510.643	23681.52
510.845	23568.88
511.048	23740.91
511.25	24357.35
511.453	24187.36
511.655	25420.24
511.858	25272.79
512.06	25457.1
512.262	25649.61
512.465	25825.74
512.667	26390.98
512.87	26374.59
513.072	26595.78
513.274	27040.18
513.477	27474.35
513.679	27732.4
513.881	28258.73
514.084	28471.71
514.286	28473.76
514.488	28678.56
514.69	29424.02
514.893	29489.56
515.095	29858.19
515.297	30189.96
515.499	30474.63
515.701	30595.46
515.904	31054.2
516.106	31332.73
516.308	31674.74
516.51	32055.66
516.712	32282.98
516.914	32467.3
517.116	33349.98
517.318	33227.1
517.52	33497.43
517.722	34040.14
517.925	34099.53
518.127	34679.11
518.329	35037.5
518.531	34687.3
518.733	35764.53
518.935	35791.16
519.136	35983.66
519.338	36528.42
519.54	36743.46
519.742	36755.75
519.944	36944.16
520.146	37738.77
520.348	37890.32
520.55	38025.49
520.752	38441.23
520.954	39317.76
521.155	38799.62
521.357	39405.82
521.559	39524.6
521.761	40368.37
521.963	40270.06
522.164	40460.52
522.366	40696.04
522.568	41218.27
522.77	41359.58
522.971	42375.37
523.173	41935.06
523.375	42250.45
523.576	42379.47
523.778	42596.56
523.98	43169.99
524.181	42965.19
524.383	43301.06
524.584	44083.38
524.786	43851.96
524.988	43708.6
525.189	44501.17
525.391	44904.62
525.592	45181.09
525.794	44976.3
525.995	44968.1
526.197	45242.53
526.398	45074.6
526.6	45885.59
526.801	46198.93
527.003	46145.69
527.204	46178.45
527.406	46661.77
527.607	46837.9
527.808	46770.32
528.01	46114.97
528.211	46637.2
528.412	47669.37
528.614	47573.12
528.815	47188.1
529.016	47988.86
529.218	47589.5
529.419	48015.48
529.62	47906.94
529.822	47730.81
530.023	47730.81
530.224	47865.98
530.425	48152.69
530.626	48148.6
530.828	47833.21
531.029	49092.71
531.23	48398.45
531.431	48539.76
531.632	48554.1
531.833	48996.46
532.035	48519.28
532.236	48642.16
532.437	49047.66
532.638	48408.69
532.839	49188.97
533.04	49549.41
533.241	48654.45
533.442	49793.12
533.643	48957.55
533.844	49064.04
534.045	49270.89
534.246	48998.51
534.447	49739.87
534.648	49401.96
534.849	49156.2
535.05	48779.37
535.251	49223.78
535.451	49270.89
535.652	49528.93
535.853	49573.98
536.054	49254.5
536.255	49530.98
536.456	48961.64
536.657	50034.78
536.857	49432.68
537.058	49561.7
537.259	49453.15
537.46	49911.9
537.66	49530.98
537.861	49580.13
538.062	49283.17
538.263	49735.77
538.463	49514.59
538.664	49696.86
538.865	49453.15
539.065	50006.11
539.266	49258.6
539.466	49967.19
539.667	48818.28
539.868	50088.03
540.068	49516.64
540.269	49678.43
540.469	49723.49
540.67	49580.13
540.87	49387.62
541.071	49508.45
541.271	49930.33
541.472	49789.02
541.672	49393.76
541.873	49696.86
542.073	49014.89
542.274	49983.58
542.474	49440.87
542.675	49395.81
542.875	49533.03
543.075	49252.45
543.276	49338.47
543.476	49670.24
543.676	49580.13
543.877	49791.07
544.077	50051.16
544.277	49143.91
544.478	49129.58
544.678	49907.8
544.878	49662.05
545.078	49250.41
545.279	49274.98
545.479	49197.16
545.679	49393.76
545.879	49342.56
546.079	49320.04
546.28	49225.83
546.48	49225.83
546.68	49670.24
546.88	50108.5
547.08	49367.14
547.28	49287.27
547.48	48930.92
547.68	49533.03
547.88	48799.85
548.081	49315.94
548.281	49442.91
548.481	49209.45
548.681	49805.41
548.881	49848.41
549.081	49289.32
549.28	49250.41
549.48	49555.55
549.68	49211.49
549.88	49586.27
550.08	48889.96
550.28	49098.86
550.48	49356.9
550.68	49475.68
550.88	49109.1
551.08	48980.07
551.279	49137.77
551.479	49428.58
551.679	49561.7
551.879	49057.9
552.079	49432.68
552.278	49236.07
552.478	49475.68
552.678	49356.9
552.878	49481.83
553.077	49105
553.277	48535.66
553.477	49612.9
553.676	48787.56
553.876	48722.03
554.076	48803.95
554.275	48789.61
554.475	48109.69
554.674	48957.55
554.874	49150.06
555.074	48715.89
555.273	49006.7
555.473	49031.27
555.672	48181.37
555.872	48590.96
556.071	48679.02
556.271	49250.41
556.47	48310.39
556.67	47986.81
556.869	48629.87
557.068	48582.77
557.268	48029.82
557.467	48246.9
557.667	48537.71
557.866	48662.64
558.065	48187.51
558.265	48326.77
558.464	47984.76
558.663	48062.58
558.863	47831.16
559.062	48294
559.261	47079.56
559.461	47919.23
559.66	47554.69
559.859	48060.54
560.058	47532.16
560.258	47868.03
560.457	47284.36
560.656	47976.57
560.855	47564.93
561.054	47591.55
561.253	46956.68
561.453	47177.86
561.652	47501.44
561.851	47435.91
562.05	47110.28
562.249	46674.06
562.448	47077.51
562.647	47177.86
562.846	46749.84
563.045	47030.41
563.244	46426.26
563.443	46891.15
563.642	46385.3
563.841	46559.37
564.04	46760.08
564.239	47456.39
564.438	46327.95
564.637	46540.94
564.836	46610.57
565.035	45949.08
565.234	46252.18
565.432	45875.35
565.631	46147.73
565.83	46424.21
566.029	46205.08
566.228	45715.61
566.427	45992.09
566.625	45852.83
566.824	45504.67
567.023	45875.35
567.222	45250.72
567.42	46143.64
567.619	45273.25
567.818	45267.11
568.016	45205.67
568.215	45179.04
568.414	44982.44
568.612	45512.86
568.811	44611.76
569.01	44943.53
569.208	44417.2
569.407	44724.39
569.605	44286.13
569.804	44859.56
570.002	44366
570.201	44572.85
570.4	44067
570.598	43509.95
570.797	43804.86
570.995	43899.06
571.193	43303.1
571.392	44476.59
571.59	43528.38
571.789	43372.74
571.987	43188.42
572.186	43428.03
572.384	43292.86
572.582	43251.91
572.781	43145.41
572.979	42852.55
573.177	42813.64
573.376	43192.51
573.574	42864.84
573.772	42797.26
573.971	42506.44
574.169	42733.77
574.367	41847
574.565	42410.19
574.763	42244.3
574.962	42072.28
575.16	41332.96
575.358	42059.99
575.556	41353.44
575.754	41824.47
575.952	41464.03
576.151	41572.57
576.349	41367.77
576.547	41048.29
576.745	41656.54
576.943	41279.71
577.141	41183.46
577.339	40825.06
577.537	41001.19
577.735	40755.43
577.933	40607.98
578.131	40538.35
578.329	40392.94
578.527	40030.45
578.725	40059.12
578.923	40743.14
579.121	39983.35
579.319	40005.87
579.516	40048.88
579.714	39647.48
579.912	39645.43
580.11	39710.97
580.308	39090.43
580.506	39438.59
580.704	38934.79
580.901	39194.88
581.099	39241.98
581.297	38951.17
581.495	38844.68
581.692	38820.1
581.89	38359.31
582.088	39028.99
582.285	38508.81
582.483	38777.09
582.681	38310.16
582.878	38177.04
583.076	37994.77
583.274	38412.56
583.471	37253.4
583.669	37841.17
583.866	37230.88
584.064	37736.73
584.262	37255.45
584.459	37591.32
584.657	37337.37
584.854	37583.13
585.052	36884.77
585.249	37298.46
585.447	36899.11
585.644	36432.17
585.841	37021.98
586.039	37247.26
586.236	36333.87
586.434	36413.74
586.631	36342.06
586.828	36176.17
587.026	36276.52
587.223	36176.17
587.42	36094.25
587.618	35756.34
587.815	35586.36
588.012	35264.83
588.21	35547.45
588.407	35969.33
588.604	35182.91
588.801	35164.48
588.999	35113.28
589.196	34908.48
589.393	34685.25
589.59	35057.98
589.787	34502.98
589.984	34830.66
590.182	34320.71
590.379	34570.57
590.576	34056.53
590.773	34607.43
590.97	34079.05
591.167	34502.98
591.364	33945.94
591.561	33855.82
591.758	33515.86
591.955	33485.14
592.152	33716.56
592.349	33835.35
592.546	33519.96
592.743	33612.12
592.94	33040.73
593.137	33552.73
593.334	33470.81
593.531	33022.3
593.727	32967.01
593.924	32842.08
594.121	32579.94
594.318	33106.27
594.515	32014.7
594.712	32151.91
594.908	32358.76
595.105	32491.88
595.302	32215.4
595.499	32446.82
595.696	31852.91
595.892	31506.8
596.089	32141.67
596.286	31996.27
596.482	31525.24
596.679	31537.52
596.876	31779.18
597.072	31373.69
597.269	31592.82
597.466	30890.37
597.662	30847.36
597.859	31369.59
598.055	31164.79
598.252	30962.04
598.448	31086.97
598.645	30728.58
598.841	30685.57
599.038	30912.89
599.234	30267.78
599.431	30065.03
599.627	30103.95
599.824	30484.87
600.02	30118.28
600.217	30149
600.413	29899.15
600.609	29768.08
600.806	29690.26
601.002	30097.8
601.198	29622.67
601.395	29520.27
601.591	29321.62
601.787	29272.47
601.984	29120.92
602.18	29626.77
602.376	28713.38
602.572	29213.08
602.769	28942.75
602.965	28778.91
603.161	28895.64
603.357	28524.96
603.553	28309.93
603.75	28408.23
603.946	28254.63
604.142	28527.01
604.338	27994.54
604.534	28285.35
604.73	27791.79
604.926	27953.58
605.122	27740.59
605.318	27865.52
605.514	27648.43
605.71	27185.59
605.906	27345.33
606.102	27472.31
606.298	27443.63
606.494	27378.1
606.69	27308.47
606.886	27154.87
607.082	27197.88
607.278	27394.48
607.474	26388.93
607.67	27087.29
607.866	26399.17
608.062	26769.85
608.257	26083.78
608.453	26372.55
608.649	26440.13
608.845	26149.32
609.041	26366.4
609.236	26329.54
609.432	26192.33
609.628	26014.15
609.824	26096.07
610.019	26008.01
610.215	25643.47
610.411	25870.79
610.606	25764.3
610.802	26036.68
610.998	25776.59
611.193	25713.1
611.389	25477.58
611.584	25377.23
611.78	25108.95
611.976	25049.56
612.171	25100.76
612.367	24951.26
612.562	25020.89
612.758	24482.27
612.953	24711.64
613.149	25055.7
613.344	24300
613.539	25326.03
613.735	24611.29
613.93	24865.24
614.126	24547.81
614.321	24672.73
614.517	24109.54
614.712	24570.33
614.907	23871.98
615.103	24353.25
615.298	23935.46
615.493	24492.51
615.688	23638.51
615.884	24599.01
616.079	23828.97
616.274	24087.01
616.47	23640.56
616.665	23767.53
616.86	24001
617.055	23724.52
617.25	23644.65
617.445	23511.53
617.641	23302.64
617.836	23654.89
618.031	23310.83
618.226	23394.8
618.421	23280.11
618.616	23525.87
618.811	22471.17
619.006	23050.74
619.201	22497.79
619.396	22598.14
619.591	22534.65
619.786	22594.04
619.981	22311.42
620.176	22411.78
620.371	22254.08
620.566	22299.14
620.761	22004.23
620.956	22276.61
621.151	21676.55
621.346	21789.19
621.541	21748.23
621.735	21686.79
621.93	21500.43
622.125	21494.29
622.32	21111.32
622.515	21328.4
622.709	20638.23
622.904	21000.72
623.099	20832.79
623.294	20777.5
623.488	20539.93
623.683	20814.36
623.878	20156.96
624.072	20412.96
624.267	20617.75
624.462	20253.22
624.656	19587.63
624.851	19802.66
625.046	19790.38
625.24	20027.94
625.435	19427.88
625.629	19343.92
625.824	19380.78
626.018	19132.98
626.213	18889.27
626.407	19165.74
626.602	18795.06
626.796	18897.46
626.991	18586.17
627.185	18627.13
627.38	18643.51
627.574	18367.04
627.768	18289.21
627.963	18225.73
628.157	17883.72
628.352	18158.14
628.546	18016.83
628.74	18217.54
628.935	17898.05
629.129	17756.74
629.323	17656.39
629.517	17402.44
629.712	17193.55
629.906	17263.18
630.1	17171.02
630.294	17009.23
630.489	17125.97
630.683	17238.61
630.877	16802.39
631.071	16681.56
631.265	17035.86
631.459	16538.2
631.653	16464.47
631.848	16431.71
632.042	16437.85
632.236	16372.32
632.43	16310.88
632.624	16198.24
632.818	16015.97
633.012	15866.47
633.206	15821.41
633.4	16036.45
633.594	15606.38
633.788	15735.4
633.982	15579.75
634.176	15532.65
634.369	15352.43
634.563	15438.44
634.757	15241.84
634.951	15329.9
635.145	15299.18
635.339	15217.26
635.533	15112.81
635.726	15041.14
635.92	14817.91
636.114	15002.22
636.308	14748.28
636.501	14686.84
636.695	14617.21
636.889	14469.75
637.083	14398.07
637.276	14295.68
637.47	14314.11
637.664	14252.67
637.857	14211.71
638.051	14312.06
638.244	13800.07
638.438	13791.87
638.632	13779.59
638.825	13755.01
639.019	13501.06
639.212	13656.71
639.406	13556.36
639.599	13499.02
639.793	13314.7
639.986	13243.02
640.18	13210.25
640.373	13281.93
640.567	12878.48
640.76	12853.91
640.954	12874.38
641.147	12884.62
641.34	12624.53
641.534	12851.86
641.727	12665.49
641.92	12575.38
642.114	12669.59
642.307	12673.68
642.5	12458.65
642.694	12272.28
642.887	12190.36
643.08	12352.15
643.273	12192.41
643.467	12245.66
643.66	12026.53
643.853	11887.26
644.046	11799.2
644.239	11901.6
644.432	11758.24
644.626	11664.04
644.819	11565.73
645.012	11520.68
645.205	11330.22
645.398	11311.78
645.591	11246.25
645.784	11426.47
645.977	11074.22
646.17	11434.66
646.363	11104.94
646.556	10879.66
646.749	10986.16
646.942	11072.17
647.135	10775.22
647.328	10711.73
647.521	10595
647.714	10513.08
647.907	10576.56
648.099	10556.08
648.292	10480.31
648.485	10476.21
648.678	10224.31
648.871	10250.94
649.064	10087.1
649.256	10238.65
649.449	10228.41
649.642	9978.56
649.835	9933.5
650.027	9904.83
650.22	9747.14
650.413	9786.05
650.605	9659.07
650.798	9829.06
650.991	9579.2
651.183	9581.25
651.376	9421.51
651.568	9458.37
651.761	9362.12
651.954	9202.38
652.146	9468.61
652.339	9276.1
652.531	9444.04
652.724	9054.92
652.916	9007.82
653.109	8970.96
653.301	8858.32
653.494	8942.28
653.686	8544.98
653.879	8774.35
654.071	8751.82
654.263	8571.6
654.456	8618.71
654.648	8843.98
654.84	8428.24
655.033	8608.47
655.225	8561.36
655.417	8327.89
655.61	8454.87
655.802	8463.06
655.994	8147.67
656.186	8198.87
656.379	8065.75
656.571	8039.13
656.763	7834.33
656.955	7936.73
657.148	7916.25
657.34	8067.8
657.532	7799.52
657.724	7664.35
657.916	7666.4
658.108	7613.15
658.3	7394.02
658.492	7467.75
658.684	7574.24
658.876	7473.89
659.068	7445.22
659.26	7506.66
659.452	7338.73
659.644	7289.57
659.836	7135.98
660.028	7234.28
660.22	7082.73
660.412	7113.45
660.604	6834.93
660.796	7023.34
660.988	6898.41
661.18	6910.7
661.372	7019.24
661.563	6988.52
661.755	6900.46
661.947	6734.57
662.139	6613.74
662.331	6720.24
662.522	6527.73
662.714	6607.6
662.906	6568.69
663.097	6601.46
663.289	6449.91
663.481	6511.35
663.673	6335.22
663.864	6234.87
664.056	6109.94
664.247	6267.64
664.439	6130.42
664.631	6267.64
664.822	6028.03
665.014	6148.86
665.205	6011.64
665.397	5939.96
665.588	6036.22
665.78	5948.15
665.971	5825.28
666.163	5853.95
666.354	5722.88
666.546	5948.15
666.737	5661.44
666.929	5716.73
667.12	5761.79
667.311	5839.61
667.503	5640.96
667.694	5577.47
667.885	5511.94
668.077	5569.28
668.268	5571.33
668.459	5436.16
668.651	5597.95
668.842	5348.1
669.033	5268.23
669.224	5214.98
669.416	5352.2
669.607	5135.11
669.798	5270.28
669.989	5255.94
670.18	5268.23
670.371	5227.27
670.563	5186.31
670.754	5057.29
670.945	4965.13
671.136	4936.46
671.327	4997.9
671.518	5079.82
671.709	5253.89
671.9	5036.81
672.091	4969.23
672.282	4895.5
672.473	4930.31
672.664	4854.54
672.855	4913.93
673.046	4834.06
673.237	4913.93
673.428	4733.71
673.619	4694.8
673.809	4743.95
674	4705.04
674.191	4690.7
674.382	4686.61
674.573	4592.4
674.764	4481.81
674.954	4670.22
675.145	4627.21
675.336	4672.27
675.527	4678.41
675.717	4619.02
675.908	4657.93
676.099	4647.69
676.289	4324.12
676.48	4434.71
676.671	4537.1
676.861	4373.27
677.052	4395.79
677.243	4270.87
677.433	4342.55
677.624	4401.94
677.814	4340.5
678.005	4354.83
678.195	4340.5
678.386	4393.75
678.576	4344.6
678.767	4344.6
678.957	4365.07
679.148	4127.51
679.338	4174.61
679.529	4266.77
679.719	4121.37
679.909	4274.96
680.1	4201.24
680.29	4176.66
680.481	3984.15
680.671	4014.87
680.861	3975.96
681.052	4014.87
681.242	3859.23
681.432	4064.02
681.622	4098.84
681.813	4008.73
682.003	4023.06
682.193	4141.85
682.383	4098.84
682.573	3891.99
682.764	3947.29
682.954	3957.53
683.144	4035.35
683.334	3994.39
683.524	3912.47
683.714	3904.28
683.904	3820.32
684.094	3887.9
684.284	3697.44
684.474	3703.58
684.664	3857.18
684.854	3848.99
685.044	3867.42
685.234	3752.73
685.424	3789.6
685.614	3791.64
685.804	3801.88
685.994	3891.99
686.184	3738.4
686.374	3767.07
686.564	3668.77
686.753	3822.36
686.943	3654.43
687.133	3615.52
687.323	3640.09
687.513	3644.19
687.702	3685.15
687.892	3701.53
688.082	3517.22
688.272	3666.72
688.461	3765.02
688.651	3613.47
688.841	3683.1
689.03	3599.13
689.22	3664.67
689.41	3613.47
689.599	3521.31
689.789	3689.25
689.979	3476.26
690.168	3726.11
690.358	3629.85
690.547	3582.75
690.737	3535.65
690.926	3517.22
691.116	3449.63
691.305	3572.51
691.495	3509.02
691.684	3486.5
691.874	3533.6
692.063	3482.4
692.252	3506.98
692.442	3592.99
692.631	3455.78
692.82	3580.7
693.01	3455.78
693.199	3523.36
693.388	3437.34
693.578	3504.93
693.767	3527.46
693.956	3488.54
694.146	3382.05
694.335	3425.06
694.524	3441.44
694.713	3490.59
694.902	3402.53
695.092	3468.06
695.281	3308.32
695.47	3472.16
695.659	3521.31
695.848	3463.97
696.037	3343.14
696.226	3461.92
696.415	3392.29
696.604	3384.1
696.793	3418.91
696.982	3443.49
697.171	3429.15
697.36	3410.72
697.549	3349.28
697.738	3310.37
697.927	3312.42
698.116	3369.76
698.305	3240.74
698.494	3332.9
698.683	3238.69
698.872	3414.82
699.061	3242.79
699.25	3326.75
699.438	3289.89
699.627	3300.13
699.816	3302.18
700.005	3236.64
700.193	3255.08
700.382	3287.84
700.571	3216.16
700.76	3230.5
700.948	3234.6
701.137	3185.44
701.326	3281.7
701.514	3275.56
701.703	3152.68
701.892	3169.06
702.08	3257.12
702.269	3035.94
702.457	3109.67
702.646	3177.25
702.834	2982.7
703.023	3124.01
703.212	3121.96
703.4	3119.91
703.589	3027.75
703.777	3029.8
703.965	2925.35
704.154	3160.87
704.342	3130.15
704.531	3042.09
704.719	2994.98
704.907	3099.43
705.096	3037.99
705.284	2982.7
705.472	3007.27
705.661	3027.75
705.849	2923.3
706.037	2990.89
706.226	2980.65
706.414	2872.11
706.602	3029.8
706.79	2974.5
706.979	2759.47
707.167	2876.2
707.355	2878.25
707.543	2802.47
707.731	2931.5
707.919	2874.15
708.107	2876.2
708.296	2816.81
708.484	2767.66
708.672	2753.32
708.86	2790.19
709.048	2890.54
709.236	2835.24
709.424	2663.21
709.612	2700.08
709.8	2650.92
709.988	2691.88
710.176	2790.19
710.364	2702.12
710.551	2526
710.739	2546.48
710.927	2669.36
711.115	2599.73
711.303	2710.32
711.491	2579.25
711.679	2579.25
711.866	2550.57
712.054	2616.11
712.242	2530.09
712.43	2536.24
712.617	2507.57
712.805	2566.96
712.993	2532.14
713.181	2605.87
713.368	2464.56
713.556	2466.61
713.744	2308.91
713.931	2378.55
714.119	2353.97
714.306	2511.66
714.494	2427.7
714.682	2437.94
714.869	2401.07
715.057	2417.46
715.244	2308.91
715.432	2347.83
715.619	2386.74
715.807	2251.57
715.994	2192.18
716.182	2284.34
716.369	2413.36
716.556	2310.96
716.744	2227
716.931	2227
717.119	2306.87
717.306	2267.95
717.493	2257.71
717.681	2255.67
717.868	2151.22
718.055	2116.41
718.242	2177.84
718.43	2186.04
718.617	2126.64
718.804	2124.6
718.991	2112.31
719.179	2126.64
719.366	2163.51
719.553	2097.97
719.74	2143.03
719.927	2114.36
720.114	2124.6
720.301	2083.64
720.488	2030.39
720.676	2003.77
720.863	2034.49
721.05	1946.42
721.237	2040.63
721.424	2022.2
721.611	1950.52
721.798	1942.33
721.985	1915.7
722.172	1997.62
722.358	2052.92
722.545	1960.76
722.732	1917.75
722.919	1901.37
723.106	1946.42
723.293	1884.98
723.48	1903.42
723.667	1923.9
723.853	1856.31
724.04	1895.22
724.227	1962.81
724.414	1823.55
724.6	1815.35
724.787	1827.64
724.974	1930.04
725.161	1866.55
725.347	1839.93
725.534	1633.08
725.72	1901.37
725.907	1735.48
726.094	1878.84
726.28	1821.5
726.467	1762.11
726.653	1647.42
726.84	1686.33
727.027	1766.2
727.213	1702.72
727.4	1710.91
727.586	1680.19
727.773	1663.8
727.959	1616.7
728.145	1723.2
728.332	1760.06
728.518	1686.33
728.705	1635.13
728.891	1545.02
729.077	1620.8
729.264	1594.17
729.45	1542.97
729.636	1659.71
729.823	1653.56
730.009	1694.52
730.195	1641.28
730.382	1639.23
730.568	1645.37
730.754	1565.5
730.94	1538.88
731.126	1590.08
731.313	1583.93
731.499	1610.56
731.685	1483.58
731.871	1583.93
732.057	1487.68
732.243	1549.12
732.429	1432.38
732.615	1579.84
732.801	1549.12
732.987	1508.16
733.173	1551.17
733.359	1495.87
733.545	1459.01
733.731	1407.81
733.917	1528.64
734.103	1442.62
734.289	1491.77
734.475	1424.19
734.661	1334.08
734.847	1366.85
735.033	1424.19
735.219	1368.9
735.404	1379.14
735.59	1370.94
735.776	1467.2
735.962	1379.14
736.148	1448.77
736.333	1379.14
736.519	1383.23
736.705	1256.26
736.89	1372.99
737.076	1297.22
737.262	1334.08
737.447	1248.07
737.633	1276.74
737.819	1246.02
738.004	1325.89
738.19	1272.64
738.375	1239.87
738.561	1270.59
738.747	1358.66
738.932	1258.31
739.118	1340.22
739.303	1305.41
739.489	1205.06
739.674	1229.63
739.859	1286.98
740.045	1227.59
740.23	1264.45
740.416	1178.44
740.601	1186.63
740.786	1174.34
740.972	1231.68
741.157	1276.74
741.342	1219.39
741.528	1196.87
741.713	1151.81
741.898	1135.43
742.084	1196.87
742.269	1170.24
742.454	1147.72
742.639	1233.73
742.824	1196.87
743.01	1153.86
743.195	1170.24
743.38	1162.05
743.565	1102.66
743.75	1065.8
743.935	1104.71
744.12	1147.72
744.305	1141.57
744.49	1096.52
744.675	1055.56
744.86	1086.28
745.045	1102.66
745.23	1178.44
745.415	1102.66
745.6	1092.42
745.785	1030.98
745.97	1037.13
746.155	1069.89
746.34	1041.22
746.525	1092.42
746.71	893.77
746.895	983.88
747.079	1033.03
747.264	1028.93
747.449	961.35
747.634	901.96
747.819	916.3
748.003	977.73
748.188	961.35
748.373	1028.93
748.557	932.68
748.742	906.06
748.927	947.01
749.111	936.78
749.296	924.49
749.481	949.06
749.665	858.95
749.85	840.52
750.034	897.86
750.219	940.87
750.404	908.1
750.588	957.25
750.773	881.48
750.957	944.97
751.141	906.06
751.326	869.19
751.51	770.89
751.695	885.58
751.879	844.62
752.064	840.52
752.248	787.27
752.432	842.57
752.617	867.14
752.801	801.61
752.985	826.18
753.17	797.51
753.354	881.48
753.538	852.81
753.722	815.94
753.907	805.71
754.091	787.27
754.275	795.47
754.459	791.37
754.643	754.51
754.828	877.38
755.012	715.59
755.196	779.08
755.38	754.51
755.564	701.26
755.748	619.34
755.932	703.31
756.116	734.03
756.3	756.55
756.484	772.94
756.668	756.55
756.852	721.74
757.036	686.92
757.22	699.21
757.404	670.54
757.588	627.53
757.772	617.29
757.956	719.69
758.14	686.92
758.323	670.54
758.507	695.11
758.691	717.64
758.875	719.69
759.059	676.68
759.242	643.92
759.426	637.77
759.61	641.87
759.794	613.2
759.977	686.92
760.161	705.35
760.345	645.96
760.528	641.87
760.712	734.03
760.895	615.24
761.079	621.39
761.263	656.2
761.446	660.3
761.63	693.07
761.813	607.05
761.997	621.39
762.18	662.35
762.364	578.38
762.547	670.54
762.731	596.81
762.914	596.81
763.098	535.37
763.281	588.62
763.464	605
763.648	596.81
763.831	590.67
764.015	545.61
764.198	605
764.381	611.15
764.564	672.59
764.748	627.53
764.931	521.04
765.114	564.04
765.297	586.57
765.481	502.61
765.664	508.75
765.847	514.89
766.03	533.33
766.213	549.71
766.397	588.62
766.58	521.04
766.763	562
766.946	539.47
767.129	564.04
767.312	539.47
767.495	541.52
767.678	600.91
767.861	611.15
768.044	521.04
768.227	510.8
768.41	535.37
768.593	564.04
768.776	445.26
768.959	572.24
769.142	508.75
769.324	539.47
769.507	465.74
769.69	557.9
769.873	508.75
770.056	529.23
770.239	498.51
770.421	418.64
770.604	430.93
770.787	478.03
770.97	484.17
771.152	459.6
771.335	465.74
771.518	521.04
771.7	521.04
771.883	557.9
772.066	439.12
772.248	455.5
772.431	475.98
772.613	518.99
772.796	551.76
772.978	506.7
773.161	541.52
773.343	398.16
773.526	457.55
773.708	463.69
773.891	475.98
774.073	441.17
774.256	430.93
774.438	482.13
774.621	469.84
774.803	525.13
774.985	465.74
775.168	416.59
775.35	500.56
775.532	461.65
775.715	461.65
775.897	463.69
776.079	392.02
776.261	490.32
776.444	437.07
776.626	385.87
776.808	437.07
776.99	424.78
777.173	410.45
777.355	533.33
777.537	412.5
777.719	357.2
777.901	392.02
778.083	465.74
778.265	371.54
778.447	422.73
778.629	394.06
778.811	342.86
778.993	389.97
779.175	303.95
779.357	389.97
779.539	346.96
779.721	443.21
779.903	381.78
780.085	441.17
780.267	432.97
780.449	426.83
780.631	418.64
780.812	398.16
780.994	293.71
781.176	291.66
781.358	377.68
781.54	392.02
781.721	297.81
781.903	381.78
782.085	301.9
782.267	301.9
782.448	328.53
782.63	303.95
782.812	420.69
782.993	328.53
783.175	353.1
783.357	383.82
783.538	312.14
783.72	269.14
783.901	301.9
784.083	287.57
784.264	326.48
784.446	281.43
784.627	250.71
784.809	265.04
784.99	353.1
785.172	262.99
785.353	279.38
785.535	330.58
785.716	342.86
785.897	242.51
786.079	353.1
786.26	277.33
786.441	250.71
786.623	232.27
786.804	279.38
786.985	318.29
787.167	342.86
787.348	291.66
787.529	322.38
787.71	293.71
787.891	285.52
788.073	158.55
788.254	230.23
788.435	256.85
788.616	232.27
788.797	236.37
788.978	230.23
789.159	271.19
789.34	306
789.522	183.12
789.703	211.79
789.884	281.43
790.065	205.65
790.246	213.84
790.427	195.41
790.607	312.14
790.788	291.66
790.969	256.85
791.15	246.61
791.331	246.61
791.512	246.61
791.693	228.18
791.874	281.43
792.054	203.6
792.235	230.23
792.416	240.47
792.597	203.6
792.778	133.97
792.958	181.07
793.139	232.27
793.32	224.08
793.5	226.13
793.681	222.03
793.862	187.22
794.042	262.99
794.223	156.5
794.404	187.22
794.584	230.23
794.765	215.89
794.945	209.75
795.126	170.83
795.306	199.51
795.487	213.84
795.667	133.97
795.848	203.6
796.028	219.99
796.209	162.64
796.389	211.79
796.57	156.5
796.75	170.83
796.93	232.27
797.111	181.07
797.291	117.59
797.471	144.21
797.652	246.61
797.832	174.93
798.012	219.99
798.192	185.17
798.373	201.55
798.553	148.31
798.733	203.6
798.913	168.79
799.093	176.98
799.274	189.27
799.454	152.4
799.634	148.31
799.814	136.02
799.994	164.69
800.174	148.31
800.354	111.44
800.534	195.41
800.714	170.83
800.894	176.98
801.074	158.55
801.254	133.97
801.434	168.79
801.614	142.16
801.794	146.26
801.974	322.38
802.154	105.3
802.334	142.16
802.514	168.79
802.693	166.74
802.873	88.92
803.053	70.48
803.233	127.83
803.413	160.59
803.592	136.02
803.772	146.26
803.952	209.75
804.131	181.07
804.311	127.83
804.491	191.31
804.67	166.74
804.85	129.88
805.03	125.78
805.209	148.31
805.389	133.97
805.568	140.12
805.748	101.2
805.928	154.45
806.107	78.68
806.287	93.01
806.466	156.5
806.646	72.53
806.825	140.12
807.004	121.68
807.184	115.54
807.363	93.01
807.543	156.5
807.722	150.36
807.901	70.48
808.081	76.63
808.26	123.73
808.439	123.73
808.619	88.92
808.798	52.05
808.977	129.88
809.156	158.55
809.336	107.35
809.515	156.5
809.694	160.59
809.873	97.11
810.052	45.91
810.231	123.73
810.411	99.16
810.59	138.07
810.769	156.5
810.948	82.77
811.127	121.68
811.306	88.92
811.485	101.2
811.664	103.25
811.843	121.68
812.022	113.49
812.201	101.2
812.38	131.92
812.559	78.68
812.737	158.55
812.916	62.29
813.095	117.59
813.274	119.64
813.453	103.25
813.632	121.68
813.811	146.26
813.989	66.39
814.168	115.54
814.347	105.3
814.526	101.2
814.704	80.72
814.883	90.96
815.062	78.68
815.24	99.16
815.419	90.96
815.598	99.16
815.776	117.59
815.955	109.4
816.133	86.87
816.312	52.05
816.49	72.53
816.669	152.4
816.847	76.63
817.026	41.81
817.204	39.76
817.383	119.64
817.561	107.35
817.74	56.15
817.918	174.93
818.097	47.96
818.275	41.81
818.453	86.87
818.632	121.68
818.81	21.33
818.988	19.29
819.167	90.96
819.345	68.44
819.523	90.96
819.701	97.11
819.879	99.16
820.058	95.06
820.236	41.81
820.414	138.07
820.592	74.58
820.77	-1.19
820.948	72.53
821.127	33.62
821.305	35.67
821.483	80.72
821.661	88.92
821.839	66.39
822.017	58.2
822.195	43.86
822.373	113.49
822.551	146.26
822.729	109.4
822.907	23.38
823.085	121.68
823.262	80.72
823.44	64.34
823.618	82.77
823.796	148.31
823.974	76.63
824.152	60.24
824.329	170.83
824.507	95.06
824.685	97.11
824.863	50
825.04	105.3
825.218	127.83
825.396	101.2
825.574	64.34
825.751	76.63
825.929	45.91
826.107	56.15
826.284	37.72
826.462	43.86
826.639	52.05
826.817	68.44
826.994	66.39
827.172	74.58
827.349	45.91
827.527	70.48
827.704	35.67
827.882	25.43
828.059	43.86
828.237	43.86
828.414	121.68
828.591	60.24
828.769	76.63
828.946	45.91
829.124	88.92
829.301	25.43
829.478	15.19
829.655	60.24
829.833	82.77
830.01	29.52
830.187	9.05
830.364	56.15
830.542	82.77
830.719	15.19
830.896	31.57
831.073	17.24
831.25	58.2
831.427	21.33
831.604	2.9
831.782	107.35
831.959	78.68
832.136	50
832.313	93.01
832.49	33.62
832.667	113.49
832.844	0.85
833.021	140.12
833.198	35.67
833.374	33.62
833.551	33.62
833.728	74.58
833.905	9.05
834.082	23.38
834.259	56.15
834.436	47.96
834.612	-7.34
834.789	74.58
834.966	27.48
835.143	31.57
835.319	-48.3
835.496	93.01
835.673	21.33
835.85	4.95
836.026	138.07
836.203	113.49
836.38	37.72
836.556	97.11
836.733	33.62
836.909	76.63
837.086	68.44
837.262	45.91
837.439	-1.19
837.616	-9.39
837.792	17.24
837.968	27.48
838.145	93.01
838.321	-25.77
838.498	27.48
838.674	-17.58
838.851	27.48
839.027	7
839.203	62.29
839.38	62.29
839.556	58.2
839.732	93.01
839.909	-31.91
840.085	68.44
840.261	45.91
840.437	11.09
840.614	25.43
840.79	78.68
840.966	54.1
841.142	43.86
841.318	-9.39
841.494	41.81
841.671	-17.58
841.847	21.33
842.023	11.09
842.199	2.9
842.375	88.92
842.551	13.14
842.727	31.57
842.903	123.73
843.079	9.05
843.255	99.16
843.431	93.01
843.607	47.96
843.783	27.48
843.959	31.57
844.134	66.39
844.31	113.49
844.486	25.43
844.662	41.81
844.838	-17.58
845.013	31.57
845.189	9.05
845.365	45.91
845.541	66.39
845.716	39.76
845.892	27.48
846.068	-33.96
846.244	82.77
846.419	11.09
846.595	41.81
846.77	-33.96
846.946	60.24
847.122	23.38
847.297	62.29
847.473	64.34
847.648	37.72
847.824	82.77
847.999	72.53
848.175	52.05
848.35	-40.11
848.526	74.58
848.701	72.53
848.876	39.76
849.052	68.44
849.227	56.15
849.403	0.85
849.578	9.05
849.753	0.85
849.929	23.38
850.104	25.43
850.279	15.19
850.454	-21.67
850.63	78.68
850.805	15.19
850.98	52.05
851.155	21.33
851.33	25.43
851.505	33.62
851.681	-1.19
851.856	-52.39
852.031	23.38
852.206	25.43
852.381	-13.48
852.556	33.62
852.731	82.77
852.906	17.24
853.081	54.1
853.256	-9.39
853.431	-44.2
853.606	52.05
853.781	84.82
853.956	-33.96
854.131	29.52
854.305	88.92
854.48	31.57
854.655	11.09
854.83	68.44
855.005	56.15
855.18	43.86
855.354	0.85
855.529	50
855.704	56.15
855.879	37.72
856.053	125.78
856.228	31.57
856.403	27.48
856.577	15.19
856.752	37.72
856.926	0.85
857.101	41.81
857.276	-3.24
857.45	37.72
857.625	82.77
857.799	-21.67
857.974	50
858.148	105.3
858.323	-54.44
858.497	7
858.672	-15.53
858.846	66.39
859.02	21.33
859.195	-54.44
859.369	15.19
859.543	27.48
859.718	105.3
859.892	47.96
860.066	43.86
860.241	29.52
860.415	82.77
860.589	-11.43
860.763	17.24
860.938	17.24
861.112	58.2
861.286	15.19
861.46	17.24
861.634	52.05
861.808	-9.39
861.982	-5.29
862.157	64.34
862.331	11.09
862.505	13.14
862.679	-29.87
862.853	99.16
863.027	-60.59
863.201	127.83
863.375	-5.29
863.549	80.72
863.722	21.33
863.896	82.77
864.07	17.24
864.244	45.91
864.418	-17.58
864.592	-33.96
864.766	99.16
864.939	17.24
865.113	7
865.287	64.34
865.461	-25.77
865.634	19.29
865.808	-9.39
865.982	31.57
866.156	35.67
866.329	23.38
866.503	-40.11
866.676	7
866.85	11.09
867.024	41.81
867.197	76.63
867.371	13.14
867.544	-81.07
867.718	7
867.891	0.85
868.065	17.24
868.238	43.86
868.412	23.38
868.585	56.15
868.759	95.06
868.932	2.9
869.105	0.85
869.279	113.49
869.452	39.76
869.625	56.15
869.799	-15.53
869.972	-17.58
870.145	97.11
870.319	9.05
870.492	-11.43
870.665	21.33
870.838	7
871.011	-9.39
871.185	-56.49
871.358	43.86
871.531	43.86
871.704	-1.19
871.877	0.85
872.05	27.48
872.223	-50.35
872.396	-31.91
872.569	21.33
872.742	-74.92
872.915	-31.91
873.088	-3.24
873.261	41.81
873.434	7
873.607	21.33
873.78	-5.29
873.953	-17.58
874.126	-29.87
874.299	-25.77
874.471	27.48
874.644	-46.25
874.817	19.29
874.99	33.62
875.163	56.15
875.335	80.72
875.508	-29.87
875.681	25.43
875.853	-44.2
876.026	31.57
876.199	7
876.371	64.34
876.544	7
876.717	58.2
876.889	21.33
877.062	13.14
877.234	19.29
877.407	-7.34
877.579	7
877.752	7
877.924	-15.53
878.097	74.58
878.269	-40.11
878.442	64.34
878.614	13.14
878.786	-1.19
878.959	-93.35
879.131	74.58
879.303	-9.39
879.476	-9.39
879.648	74.58
879.82	11.09
879.993	2.9
880.165	-31.91
880.337	-21.67
880.509	-31.91
880.681	7
880.854	-27.82
881.026	-25.77
881.198	43.86
881.37	2.9
881.542	-97.45
881.714	-38.06
881.886	15.19
882.058	-19.63
882.23	37.72
882.402	17.24
882.574	105.3
882.746	2.9
882.918	7
883.09	52.05
883.262	-7.34
883.434	2.9
883.606	11.09
883.778	35.67
883.95	-31.91
884.122	74.58
884.293	-7.34
884.465	9.05
884.637	-5.29
884.809	-17.58
884.98	-76.97
885.152	29.52
885.324	21.33
885.496	74.58
885.667	17.24
885.839	15.19
886.011	-31.91
886.182	-38.06
886.354	15.19
886.525	-23.72
886.697	39.76
886.869	-21.67
887.04	-33.96
887.212	0.85
887.383	50
887.555	-3.24
887.726	-23.72
887.897	-66.73
888.069	35.67
888.24	-21.67
888.412	7
888.583	35.67
888.754	15.19
888.926	21.33
889.097	50
889.268	-29.87
889.44	-9.39
889.611	23.38
889.782	-9.39
889.953	43.86
890.125	0.85
890.296	43.86
890.467	-29.87
890.638	-23.72
890.809	0.85
890.98	-64.68
891.151	9.05
891.323	43.86
891.494	-25.77
891.665	-38.06
891.836	33.62
892.007	-40.11
892.178	80.72
892.349	-33.96
892.52	-56.49
892.691	47.96
892.862	-46.25
893.032	7
893.203	41.81
893.374	-25.77
893.545	25.43
893.716	-1.19
893.887	-19.63
894.057	17.24
894.228	-9.39
894.399	64.34
894.57	72.53
894.74	-79.02
894.911	43.86
895.082	2.9
895.253	-29.87
895.423	64.34
895.594	43.86
895.764	7
895.935	-3.24
896.106	9.05
896.276	7
896.447	15.19
896.617	-31.91
896.788	43.86
896.958	-5.29
897.129	-23.72
897.299	-9.39
897.47	84.82
897.64	-5.29
897.81	31.57
897.981	-17.58
898.151	11.09
898.322	62.29
898.492	64.34
898.662	4.95
898.832	-11.43
899.003	41.81
899.173	35.67
899.343	-13.48
899.513	-38.06
