Data from USB4F104151__183__13-59-06-270.txt Node

Date: Thu Mar 13 13:59:06 EDT 2025
User: louis
Spectrometer: USB4F10415
Trigger mode: 4
Integration Time (sec): 1.000000E-2
Scans to average: 1
Electric dark correction enabled: true
Nonlinearity correction enabled: false
Boxcar width: 0
XAxis mode: Wavelengths
Number of Pixels in Spectrum: 3648
>>>>>Begin Spectral Data<<<<<
178.204	-1.37
178.424	-1.37
178.644	-1.37
178.864	10.92
179.084	-30.04
179.304	10.92
179.524	17.07
179.744	2.73
179.964	27.31
180.184	19.11
180.404	-46.42
180.624	-5.46
180.844	4.78
181.064	6.83
181.283	-48.47
181.503	-1.37
181.723	12.97
181.943	21.16
182.163	62.12
182.383	10.92
182.602	45.74
182.822	-3.41
183.042	-3.41
183.262	-11.61
183.482	0.68
183.701	31.4
183.921	68.27
184.141	6.83
184.361	29.35
184.58	21.16
184.8	19.11
185.02	-17.75
185.239	27.31
185.459	39.59
185.679	0.68
185.898	-23.89
186.118	76.46
186.338	17.07
186.557	17.07
186.777	19.11
186.997	33.45
187.216	-32.08
187.436	12.97
187.655	19.11
187.875	49.83
188.095	15.02
188.314	41.64
188.534	31.4
188.753	49.83
188.973	12.97
189.192	35.5
189.412	25.26
189.631	47.79
189.851	8.87
190.07	12.97
190.29	60.07
190.509	-13.65
190.729	66.22
190.948	66.22
191.168	66.22
191.387	-32.08
191.607	66.22
191.826	17.07
192.045	66.22
192.265	-38.23
192.484	49.83
192.704	-13.65
192.923	25.26
193.142	72.36
193.362	-11.61
193.581	58.03
193.8	-71
194.02	53.93
194.239	76.46
194.458	74.41
194.678	21.16
194.897	21.16
195.116	-25.94
195.335	41.64
195.555	53.93
195.774	55.98
195.993	43.69
196.212	98.99
196.432	58.03
196.651	92.84
196.87	-7.51
197.089	84.65
197.308	-11.61
197.528	55.98
197.747	-9.56
197.966	49.83
198.185	-7.51
198.404	82.6
198.623	49.83
198.842	4.78
199.062	29.35
199.281	2.73
199.5	41.64
199.719	49.83
199.938	25.26
200.157	4.78
200.376	86.7
200.595	51.88
200.814	12.97
201.033	51.88
201.252	27.31
201.471	82.6
201.69	90.79
201.909	12.97
202.128	29.35
202.347	35.5
202.566	-23.89
202.785	31.4
203.004	53.93
203.223	101.03
203.442	-32.08
203.661	47.79
203.879	58.03
204.098	47.79
204.317	39.59
204.536	117.42
204.755	-17.75
204.974	51.88
205.193	27.31
205.411	-11.61
205.63	66.22
205.849	15.02
206.068	-7.51
206.287	68.27
206.505	92.84
206.724	33.45
206.943	25.26
207.162	51.88
207.381	43.69
207.599	-42.32
207.818	8.87
208.037	19.11
208.255	35.5
208.474	60.07
208.693	2.73
208.911	64.17
209.13	103.08
209.349	-5.46
209.567	76.46
209.786	92.84
210.005	86.7
210.223	31.4
210.442	-15.7
210.661	27.31
210.879	64.17
211.098	31.4
211.316	58.03
211.535	88.75
211.753	86.7
211.972	51.88
212.191	-17.75
212.409	53.93
212.628	-25.94
212.846	-3.41
213.065	86.7
213.283	76.46
213.502	-21.85
213.72	-34.13
213.938	29.35
214.157	25.26
214.375	41.64
214.594	68.27
214.812	74.41
215.031	68.27
215.249	-42.32
215.467	29.35
215.686	-27.99
215.904	74.41
216.122	19.11
216.341	107.18
216.559	-5.46
216.778	90.79
216.996	12.97
217.214	-7.51
217.432	41.64
217.651	107.18
217.869	60.07
218.087	58.03
218.306	-17.75
218.524	49.83
218.742	-7.51
218.96	58.03
219.179	45.74
219.397	49.83
219.615	64.17
219.833	43.69
220.051	-30.04
220.27	37.55
220.488	-7.51
220.706	4.78
220.924	62.12
221.142	43.69
221.36	-15.7
221.578	58.03
221.796	82.6
222.015	66.22
222.233	84.65
222.451	105.13
222.669	17.07
222.887	51.88
223.105	84.65
223.323	60.07
223.541	51.88
223.759	-27.99
223.977	58.03
224.195	60.07
224.413	19.11
224.631	58.03
224.849	8.87
225.067	92.84
225.285	58.03
225.503	17.07
225.721	6.83
225.939	66.22
226.157	10.92
226.375	111.27
226.592	-11.61
226.81	111.27
227.028	-34.13
227.246	31.4
227.464	-3.41
227.682	21.16
227.9	-3.41
228.117	17.07
228.335	17.07
228.553	51.88
228.771	107.18
228.989	86.7
229.206	23.21
229.424	-21.85
229.642	0.68
229.86	62.12
230.077	-5.46
230.295	51.88
230.513	39.59
230.731	74.41
230.948	23.21
231.166	66.22
231.384	-36.18
231.601	55.98
231.819	88.75
232.037	39.59
232.254	37.55
232.472	8.87
232.689	-11.61
232.907	35.5
233.125	12.97
233.342	90.79
233.56	94.89
233.777	-9.56
233.995	51.88
234.213	88.75
234.43	21.16
234.648	78.51
234.865	94.89
235.083	90.79
235.3	-36.18
235.518	35.5
235.735	74.41
235.953	58.03
236.17	43.69
236.388	41.64
236.605	39.59
236.822	78.51
237.04	25.26
237.257	62.12
237.475	55.98
237.692	135.85
237.909	19.11
238.127	78.51
238.344	25.26
238.562	131.75
238.779	33.45
238.996	39.59
239.214	-30.04
239.431	45.74
239.648	-44.37
239.865	37.55
240.083	43.69
240.3	49.83
240.517	-17.75
240.735	62.12
240.952	-7.51
241.169	37.55
241.386	82.6
241.603	-21.85
241.821	-38.23
242.038	60.07
242.255	47.79
242.472	60.07
242.689	25.26
242.907	76.46
243.124	8.87
243.341	45.74
243.558	53.93
243.775	43.69
243.992	127.66
244.209	125.61
244.426	90.79
244.643	19.11
244.86	29.35
245.078	31.4
245.295	2.73
245.512	47.79
245.729	23.21
245.946	123.56
246.163	-15.7
246.38	51.88
246.597	25.26
246.814	41.64
247.031	43.69
247.248	74.41
247.464	43.69
247.681	6.83
247.898	15.02
248.115	2.73
248.332	41.64
248.549	64.17
248.766	55.98
248.983	94.89
249.2	92.84
249.417	117.42
249.633	2.73
249.85	84.65
250.067	68.27
250.284	17.07
250.501	6.83
250.717	76.46
250.934	60.07
251.151	19.11
251.368	-7.51
251.585	70.31
251.801	64.17
252.018	10.92
252.235	82.6
252.451	76.46
252.668	19.11
252.885	111.27
253.102	-30.04
253.318	27.31
253.535	-1.37
253.752	60.07
253.968	-27.99
254.185	41.64
254.401	-13.65
254.618	35.5
254.835	0.68
255.051	74.41
255.268	58.03
255.484	74.41
255.701	49.83
255.917	111.27
256.134	39.59
256.351	55.98
256.567	94.89
256.784	58.03
257	21.16
257.217	33.45
257.433	72.36
257.65	58.03
257.866	115.37
258.082	60.07
258.299	-9.56
258.515	55.98
258.732	121.51
258.948	49.83
259.165	111.27
259.381	84.65
259.597	51.88
259.814	21.16
260.03	-17.75
260.246	-19.8
260.463	2.73
260.679	101.03
260.895	76.46
261.112	82.6
261.328	8.87
261.544	25.26
261.761	-9.56
261.977	19.11
262.193	101.03
262.409	64.17
262.626	25.26
262.842	-19.8
263.058	35.5
263.274	17.07
263.49	-1.37
263.707	53.93
263.923	-5.46
264.139	55.98
264.355	49.83
264.571	92.84
264.787	2.73
265.004	49.83
265.22	-3.41
265.436	39.59
265.652	60.07
265.868	19.11
266.084	17.07
266.3	74.41
266.516	62.12
266.732	68.27
266.948	33.45
267.164	35.5
267.38	76.46
267.596	35.5
267.812	58.03
268.028	72.36
268.244	-5.46
268.46	80.55
268.676	25.26
268.892	-15.7
269.108	78.51
269.324	21.16
269.54	23.21
269.756	39.59
269.972	51.88
270.188	51.88
270.403	64.17
270.619	49.83
270.835	21.16
271.051	58.03
271.267	-1.37
271.483	58.03
271.698	37.55
271.914	58.03
272.13	51.88
272.346	60.07
272.562	4.78
272.777	49.83
272.993	45.74
273.209	90.79
273.425	55.98
273.64	113.32
273.856	8.87
274.072	58.03
274.287	72.36
274.503	76.46
274.719	10.92
274.934	141.99
275.15	35.5
275.366	43.69
275.581	43.69
275.797	72.36
276.012	25.26
276.228	68.27
276.444	82.6
276.659	49.83
276.875	27.31
277.09	58.03
277.306	-3.41
277.521	31.4
277.737	55.98
277.952	33.45
278.168	12.97
278.383	86.7
278.599	66.22
278.814	74.41
279.03	68.27
279.245	37.55
279.461	33.45
279.676	4.78
279.892	76.46
280.107	43.69
280.322	41.64
280.538	35.5
280.753	41.64
280.969	-36.18
281.184	76.46
281.399	-1.37
281.615	23.21
281.83	90.79
282.045	64.17
282.26	12.97
282.476	27.31
282.691	35.5
282.906	90.79
283.122	96.94
283.337	39.59
283.552	51.88
283.767	17.07
283.983	121.51
284.198	47.79
284.413	39.59
284.628	39.59
284.843	35.5
285.058	-27.99
285.274	37.55
285.489	33.45
285.704	17.07
285.919	105.13
286.134	12.97
286.349	35.5
286.564	49.83
286.779	113.32
286.995	21.16
287.21	62.12
287.425	45.74
287.64	23.21
287.855	23.21
288.07	25.26
288.285	45.74
288.5	72.36
288.715	66.22
288.93	19.11
289.145	43.69
289.36	-3.41
289.575	35.5
289.79	109.23
290.004	78.51
290.219	49.83
290.434	96.94
290.649	25.26
290.864	109.23
291.079	-56.66
291.294	51.88
291.509	70.31
291.724	35.5
291.938	62.12
292.153	64.17
292.368	4.78
292.583	-13.65
292.798	12.97
293.012	49.83
293.227	39.59
293.442	8.87
293.657	4.78
293.871	41.64
294.086	90.79
294.301	43.69
294.516	25.26
294.73	60.07
294.945	55.98
295.16	43.69
295.374	41.64
295.589	41.64
295.804	39.59
296.018	62.12
296.233	53.93
296.447	-7.51
296.662	27.31
296.877	12.97
297.091	39.59
297.306	27.31
297.52	131.75
297.735	55.98
297.949	-1.37
298.164	60.07
298.378	53.93
298.593	41.64
298.807	49.83
299.022	-7.51
299.236	49.83
299.451	103.08
299.665	-5.46
299.88	62.12
300.094	6.83
300.309	15.02
300.523	25.26
300.737	27.31
300.952	127.66
301.166	41.64
301.381	111.27
301.595	41.64
301.809	43.69
302.024	10.92
302.238	135.85
302.452	41.64
302.667	51.88
302.881	43.69
303.095	25.26
303.309	76.46
303.524	-44.37
303.738	-11.61
303.952	41.64
304.166	45.74
304.381	2.73
304.595	72.36
304.809	107.18
305.023	125.61
305.237	10.92
305.452	-23.89
305.666	58.03
305.88	-19.8
306.094	27.31
306.308	80.55
306.522	12.97
306.736	119.46
306.95	68.27
307.164	78.51
307.379	10.92
307.593	96.94
307.807	21.16
308.021	25.26
308.235	-1.37
308.449	60.07
308.663	41.64
308.877	66.22
309.091	58.03
309.305	51.88
309.519	49.83
309.733	10.92
309.947	39.59
310.161	8.87
310.374	64.17
310.588	45.74
310.802	-50.52
311.016	47.79
311.23	115.37
311.444	27.31
311.658	33.45
311.872	86.7
312.085	-30.04
312.299	60.07
312.513	47.79
312.727	82.6
312.941	68.27
313.154	23.21
313.368	31.4
313.582	74.41
313.796	31.4
314.009	64.17
314.223	23.21
314.437	35.5
314.651	17.07
314.864	43.69
315.078	45.74
315.292	37.55
315.505	12.97
315.719	23.21
315.933	62.12
316.146	8.87
316.36	76.46
316.573	53.93
316.787	31.4
317.001	-11.61
317.214	43.69
317.428	35.5
317.641	17.07
317.855	2.73
318.068	43.69
318.282	43.69
318.495	80.55
318.709	43.69
318.922	58.03
319.136	96.94
319.349	58.03
319.563	33.45
319.776	103.08
319.99	98.99
320.203	88.75
320.417	33.45
320.63	19.11
320.843	127.66
321.057	23.21
321.27	-7.51
321.483	76.46
321.697	25.26
321.91	31.4
322.124	51.88
322.337	60.07
322.55	41.64
322.763	55.98
322.977	35.5
323.19	-42.32
323.403	78.51
323.617	66.22
323.83	98.99
324.043	109.23
324.256	60.07
324.469	19.11
324.683	70.31
324.896	45.74
325.109	19.11
325.322	0.68
325.535	111.27
325.748	94.89
325.962	-5.46
326.175	68.27
326.388	107.18
326.601	76.46
326.814	55.98
327.027	68.27
327.24	98.99
327.453	66.22
327.666	39.59
327.879	51.88
328.092	25.26
328.305	113.32
328.518	33.45
328.731	127.66
328.944	90.79
329.157	25.26
329.37	53.93
329.583	31.4
329.796	-15.7
330.009	17.07
330.222	133.8
330.435	35.5
330.648	86.7
330.861	74.41
331.073	86.7
331.286	86.7
331.499	33.45
331.712	21.16
331.925	10.92
332.138	29.35
332.35	21.16
332.563	15.02
332.776	123.56
332.989	-5.46
333.202	35.5
333.414	53.93
333.627	84.65
333.84	90.79
334.053	25.26
334.265	21.16
334.478	25.26
334.691	25.26
334.903	96.94
335.116	12.97
335.329	90.79
335.541	80.55
335.754	43.69
335.966	4.78
336.179	49.83
336.392	51.88
336.604	66.22
336.817	37.55
337.029	2.73
337.242	6.83
337.454	35.5
337.667	35.5
337.88	68.27
338.092	96.94
338.305	41.64
338.517	10.92
338.729	41.64
338.942	35.5
339.154	27.31
339.367	60.07
339.579	62.12
339.792	15.02
340.004	60.07
340.217	70.31
340.429	74.41
340.641	74.41
340.854	58.03
341.066	-11.61
341.278	80.55
341.491	111.27
341.703	66.22
341.915	-5.46
342.128	4.78
342.34	27.31
342.552	35.5
342.764	90.79
342.977	4.78
343.189	78.51
343.401	45.74
343.613	10.92
343.826	105.13
344.038	70.31
344.25	47.79
344.462	105.13
344.674	55.98
344.886	74.41
345.099	-5.46
345.311	45.74
345.523	70.31
345.735	78.51
345.947	0.68
346.159	96.94
346.371	90.79
346.583	53.93
346.795	55.98
347.007	60.07
347.219	41.64
347.431	94.89
347.643	133.8
347.855	74.41
348.067	58.03
348.279	-27.99
348.491	25.26
348.703	94.89
348.915	98.99
349.127	0.68
349.339	107.18
349.551	31.4
349.763	78.51
349.975	39.59
350.187	58.03
350.399	25.26
350.61	-21.85
350.822	53.93
351.034	-23.89
351.246	109.23
351.458	-27.99
351.669	39.59
351.881	103.08
352.093	84.65
352.305	41.64
352.517	123.56
352.728	98.99
352.94	43.69
353.152	92.84
353.363	64.17
353.575	58.03
353.787	43.69
353.999	84.65
354.21	-5.46
354.422	88.75
354.633	-40.28
354.845	6.83
355.057	41.64
355.268	-19.8
355.48	19.11
355.692	-13.65
355.903	27.31
356.115	41.64
356.326	-15.7
356.538	82.6
356.749	19.11
356.961	107.18
357.172	58.03
357.384	43.69
357.595	66.22
357.807	119.46
358.018	8.87
358.23	125.61
358.441	49.83
358.653	58.03
358.864	0.68
359.075	72.36
359.287	19.11
359.498	55.98
359.709	49.83
359.921	86.7
360.132	-44.37
360.344	74.41
360.555	58.03
360.766	74.41
360.977	45.74
361.189	70.31
361.4	4.78
361.611	82.6
361.823	66.22
362.034	76.46
362.245	19.11
362.456	-7.51
362.667	58.03
362.879	90.79
363.09	33.45
363.301	98.99
363.512	12.97
363.723	129.7
363.935	33.45
364.146	51.88
364.357	76.46
364.568	49.83
364.779	68.27
364.99	47.79
365.201	6.83
365.412	51.88
365.623	64.17
365.834	80.55
366.045	74.41
366.256	37.55
366.467	70.31
366.678	35.5
366.889	78.51
367.1	90.79
367.311	90.79
367.522	15.02
367.733	35.5
367.944	82.6
368.155	-7.51
368.366	43.69
368.577	35.5
368.788	15.02
368.999	88.75
369.209	103.08
369.42	90.79
369.631	105.13
369.842	141.99
370.053	111.27
370.264	-13.65
370.474	98.99
370.685	49.83
370.896	0.68
371.107	60.07
371.317	115.37
371.528	76.46
371.739	51.88
371.95	23.21
372.16	64.17
372.371	92.84
372.582	41.64
372.792	115.37
373.003	70.31
373.214	41.64
373.424	72.36
373.635	10.92
373.846	117.42
374.056	74.41
374.267	78.51
374.477	94.89
374.688	47.79
374.898	70.31
375.109	33.45
375.319	37.55
375.53	12.97
375.74	117.42
375.951	23.21
376.161	68.27
376.372	58.03
376.582	58.03
376.793	172.71
377.003	82.6
377.214	0.68
377.424	74.41
377.635	72.36
377.845	29.35
378.055	74.41
378.266	76.46
378.476	101.03
378.686	84.65
378.897	107.18
379.107	60.07
379.317	129.7
379.528	19.11
379.738	96.94
379.948	76.46
380.158	51.88
380.369	82.6
380.579	62.12
380.789	25.26
380.999	58.03
381.21	37.55
381.42	15.02
381.63	115.37
381.84	33.45
382.05	58.03
382.261	21.16
382.471	-7.51
382.681	58.03
382.891	115.37
383.101	66.22
383.311	-27.99
383.521	66.22
383.731	68.27
383.941	74.41
384.151	21.16
384.361	103.08
384.571	49.83
384.781	64.17
384.991	131.75
385.201	119.46
385.411	39.59
385.621	70.31
385.831	12.97
386.041	37.55
386.251	90.79
386.461	139.94
386.671	131.75
386.881	107.18
387.091	66.22
387.301	25.26
387.511	19.11
387.72	68.27
387.93	121.51
388.14	31.4
388.35	131.75
388.56	90.79
388.769	72.36
388.979	107.18
389.189	10.92
389.399	84.65
389.609	148.14
389.818	115.37
390.028	41.64
390.238	35.5
390.447	90.79
390.657	137.9
390.867	15.02
391.076	45.74
391.286	86.7
391.496	49.83
391.705	82.6
391.915	107.18
392.125	148.14
392.334	98.99
392.544	109.23
392.753	131.75
392.963	101.03
393.172	90.79
393.382	123.56
393.591	117.42
393.801	123.56
394.01	144.04
394.22	127.66
394.429	115.37
394.639	-40.28
394.848	80.55
395.058	109.23
395.267	92.84
395.477	78.51
395.686	111.27
395.895	139.94
396.105	123.56
396.314	189.1
396.524	98.99
396.733	107.18
396.942	21.16
397.152	6.83
397.361	156.33
397.57	37.55
397.78	43.69
397.989	139.94
398.198	78.51
398.407	60.07
398.617	131.75
398.826	70.31
399.035	64.17
399.244	119.46
399.453	8.87
399.663	107.18
399.872	139.94
400.081	117.42
400.29	119.46
400.499	115.37
400.708	131.75
400.917	133.8
401.127	133.8
401.336	178.86
401.545	90.79
401.754	101.03
401.963	98.99
402.172	121.51
402.381	135.85
402.59	98.99
402.799	105.13
403.008	109.23
403.217	176.81
403.426	154.28
403.635	135.85
403.844	96.94
404.053	103.08
404.262	127.66
404.471	185
404.68	172.71
404.888	150.18
405.097	86.7
405.306	139.94
405.515	178.86
405.724	207.53
405.933	240.3
406.142	160.42
406.35	205.48
406.559	160.42
406.768	135.85
406.977	211.62
407.185	193.19
407.394	199.34
407.603	217.77
407.812	178.86
408.02	174.76
408.229	209.58
408.438	266.92
408.646	256.68
408.855	258.73
409.064	240.3
409.272	160.42
409.481	205.48
409.69	297.64
409.898	258.73
410.107	373.41
410.315	322.21
410.524	324.26
410.733	262.82
410.941	275.11
411.15	402.08
411.358	414.37
411.567	418.47
411.775	344.74
411.984	387.75
412.192	447.14
412.401	402.08
412.609	479.91
412.818	461.48
413.026	451.24
413.234	484
413.443	567.97
413.651	565.92
413.86	471.72
414.068	555.68
414.276	514.72
414.485	594.59
414.693	502.43
414.901	664.22
415.11	643.74
415.318	703.14
415.526	694.94
415.734	750.24
415.943	764.58
416.151	778.91
416.359	713.38
416.567	828.06
416.776	819.87
416.984	805.53
417.192	907.93
417.4	887.45
417.608	862.88
417.817	965.28
418.025	1047.19
418.233	1053.34
418.441	1059.48
418.649	1141.4
418.857	1135.26
419.065	1190.55
419.273	1215.13
419.481	1307.29
419.689	1350.29
419.897	1274.52
420.105	1385.11
420.313	1471.12
420.521	1464.98
420.729	1544.85
420.937	1610.39
421.145	1692.3
421.353	1630.87
421.561	1739.41
421.769	1866.38
421.977	1809.04
422.185	1835.66
422.393	1837.71
422.601	2105.99
422.809	2087.56
423.017	2032.27
423.224	2122.38
423.432	2114.19
423.64	2259.59
423.848	2366.09
424.056	2419.33
424.263	2419.33
424.471	2538.12
424.679	2615.94
424.887	2806.4
425.094	2929.28
425.302	2880.13
425.51	2974.33
425.718	3037.82
425.925	3113.6
426.133	3267.19
426.341	3293.82
426.548	3437.17
426.756	3615.35
426.964	3465.85
427.171	3578.48
427.379	3889.78
427.586	3842.67
427.794	3990.13
428.001	4172.4
428.209	4432.49
428.417	4379.24
428.624	4674.15
428.832	4622.95
429.039	4500.07
429.247	4481.64
429.454	5112.41
429.662	5485.14
429.869	5044.83
430.076	5479
430.284	5427.8
430.491	5591.64
430.699	5761.62
430.906	5630.55
431.114	5784.15
431.321	6042.19
431.528	6085.2
431.736	6791.75
431.943	6758.98
432.15	6666.82
432.358	6605.38
432.565	7103.04
432.772	7068.22
432.979	7496.25
433.187	7608.89
433.394	7346.75
433.601	8202.8
433.808	8151.6
434.016	8174.13
434.223	8509.99
434.43	8813.09
434.637	8981.03
434.844	9464.35
435.052	9480.73
435.259	9480.73
435.466	9497.11
435.673	9503.26
435.88	9845.27
436.087	10408.46
436.294	10496.52
436.501	10340.88
436.708	10609.16
436.915	10863.11
437.122	11323.9
437.329	11182.59
437.537	11862.52
437.743	11803.13
437.95	11960.82
438.157	12607.98
438.364	12784.1
438.571	12698.09
438.778	13017.57
438.985	13990.36
439.192	13492.7
439.399	13896.15
439.606	13820.38
439.813	14246.35
440.02	15045.06
440.227	14965.19
440.433	14870.98
440.64	15323.58
440.847	15139.27
441.054	15593.92
441.261	16570.8
441.467	16513.45
441.674	16871.85
441.881	17451.42
442.088	17375.65
442.294	16935.34
442.501	17611.17
442.708	18090.39
442.914	18674.06
443.121	19790.2
443.328	19239.3
443.534	20298.1
443.741	19788.16
443.948	19331.46
444.154	20902.25
444.361	20439.41
444.568	21014.89
444.774	20873.58
444.981	21080.42
445.187	21805.41
445.394	22483.28
445.6	22419.8
445.807	24604.98
446.013	23427.4
446.22	24039.74
446.426	24799.54
446.633	24801.58
446.839	25839.9
447.046	24918.32
447.252	26210.59
447.459	26513.69
447.665	26245.4
447.871	27482.38
448.078	28500.22
448.284	27228.43
448.491	28111.1
448.697	28989.68
448.903	29497.58
449.11	29620.45
449.316	29327.6
449.522	29583.59
449.728	30286.04
449.935	30472.41
450.141	30439.64
450.347	31242.45
450.553	30380.25
450.76	30574.81
450.966	31924.42
451.172	31305.93
451.378	31965.38
451.584	31699.14
451.791	32192.7
451.997	32327.87
452.203	32936.12
452.409	32364.73
452.615	32809.14
452.821	31373.52
453.027	30986.45
453.233	32942.26
453.44	31385.8
453.646	32055.49
453.852	32069.83
454.058	32499.9
454.264	31037.65
454.47	32397.5
454.676	31301.84
454.882	32405.69
455.088	29475.05
455.294	30304.48
455.5	30521.56
455.705	30472.41
455.911	29507.82
456.117	29194.48
456.323	28619
456.529	27181.32
456.735	28494.07
456.941	27750.66
457.147	27212.04
457.352	26247.45
457.558	26056.99
457.764	26188.06
457.97	25706.79
458.176	25024.81
458.381	24957.23
458.587	23978.3
458.793	23820.61
458.999	22552.91
459.204	24103.23
459.41	23664.96
459.616	22040.92
459.821	22059.35
460.027	21983.58
460.233	21686.62
460.438	20394.36
460.644	20627.82
460.85	19833.21
461.055	19394.95
461.261	19472.77
461.466	17904.03
461.672	17510.82
461.878	18727.31
462.083	17424.8
462.289	16986.54
462.494	17193.38
462.7	16497.07
462.905	16021.94
463.111	16402.86
463.316	16564.65
463.522	16294.32
463.727	16069.05
463.932	16298.42
464.138	15880.63
464.343	16376.24
464.549	15485.37
464.754	15886.78
464.959	16187.83
465.165	15563.2
465.37	15157.7
465.575	14821.83
465.781	15344.06
465.986	15714.75
466.191	14868.94
466.397	14606.8
466.602	13660.63
466.807	14645.71
467.012	14539.21
467.218	14455.25
467.423	14356.94
467.628	14428.62
467.833	15063.49
468.038	14475.73
468.244	14066.13
468.449	14520.78
468.654	14160.34
468.859	14182.87
469.064	13820.38
469.269	13195.75
469.474	13353.44
469.679	13691.35
469.885	13210.08
470.09	13599.2
470.295	13494.75
470.5	13052.39
470.705	13220.32
470.91	12825.06
471.115	12884.45
471.32	13126.11
471.525	12927.46
471.73	12476.91
471.935	12354.03
472.139	12147.19
472.344	12384.75
472.549	12227.06
472.754	11993.59
472.959	11823.61
473.164	11397.63
473.369	11401.72
473.574	11983.35
473.778	11633.15
473.983	11508.22
474.188	11620.86
474.393	10967.56
474.598	11205.12
474.802	10893.83
475.007	11031.04
475.212	10879.49
475.417	10547.72
475.621	10639.88
475.826	10641.93
476.031	10299.92
476.235	10248.72
476.44	10365.45
476.645	10230.29
476.849	10177.04
477.054	9943.57
477.259	9857.56
477.463	9935.38
477.668	9753.11
477.872	9771.54
478.077	9450.01
478.282	9198.11
478.486	9294.36
478.691	9364
478.895	9282.08
479.1	9042.46
479.304	9087.52
479.509	8925.73
479.713	9198.11
479.918	8991.27
480.122	8718.89
480.326	9087.52
480.531	8694.31
480.735	8833.57
480.94	8790.56
481.144	8645.16
481.348	8528.42
481.553	8686.12
481.757	8530.47
481.961	8507.94
482.166	8727.08
482.37	8677.93
482.574	8528.42
482.778	8563.24
482.983	8532.52
483.187	8448.55
483.391	8718.89
483.595	8776.23
483.8	8061.49
484.004	8509.99
484.208	8673.83
484.412	8479.27
484.616	8649.25
484.821	8509.99
485.025	8448.55
485.229	8446.51
485.433	8575.53
485.637	8563.24
485.841	8331.82
486.045	8333.87
486.249	8444.46
486.453	8553
486.657	8524.33
486.861	8419.88
487.065	8258.09
487.269	8483.37
487.473	8294.96
487.677	8528.42
487.881	8419.88
488.085	8514.09
488.289	8383.02
488.493	8553
488.697	8577.58
488.901	8389.16
489.105	8563.24
489.309	8528.42
489.512	8661.54
489.716	8522.28
489.92	8657.45
490.124	8659.49
490.328	8567.34
490.531	8653.35
490.735	8931.87
490.939	8817.19
491.143	8829.48
491.346	8821.28
491.55	8919.59
491.754	8987.17
491.958	8989.22
492.161	8907.3
492.365	8946.21
492.569	8966.69
492.772	8974.88
492.976	9159.2
493.18	9212.45
493.383	9484.83
493.587	9613.85
493.79	9425.43
493.994	9454.11
494.197	9364
494.401	9490.97
494.605	9499.16
494.808	9810.45
495.012	9904.66
495.215	9798.17
495.419	9898.52
495.622	9724.44
495.825	9990.67
496.029	10052.11
496.232	10596.87
496.436	9964.05
496.639	10353.16
496.843	10525.19
497.046	10742.28
497.249	10879.49
497.453	10949.12
497.656	10834.44
497.859	10930.69
498.063	11112.96
498.266	11387.39
498.469	11233.79
498.673	11420.16
498.876	11893.24
499.079	11883
499.282	11725.3
499.485	12421.61
499.689	12325.36
499.892	12540.4
500.095	12362.22
500.298	12724.71
500.501	12653.03
500.705	13025.76
500.908	13232.61
501.111	13328.86
501.314	13447.65
501.517	13545.95
501.72	13619.67
501.923	13863.38
502.126	14172.63
502.329	14442.96
502.532	14551.5
502.735	14569.93
502.938	14817.74
503.141	14760.39
503.344	15167.94
503.547	15090.12
503.75	15446.46
503.953	15841.72
504.156	15862.2
504.359	16095.67
504.562	16374.19
504.765	16703.92
504.968	16875.95
505.17	17156.52
505.373	17125.8
505.576	17133.99
505.779	17461.66
505.982	17732
506.185	18311.57
506.387	18325.91
506.59	18469.26
506.793	18946.44
506.996	18672.01
507.198	19284.36
507.401	19360.13
507.604	19376.51
507.807	19935.61
508.009	19986.81
508.212	20466.03
508.415	20681.07
508.617	20742.51
508.82	21096.81
509.022	21076.33
509.225	21565.79
509.428	21903.71
509.63	22030.68
509.833	22190.42
510.035	22894.93
510.238	22479.19
510.44	23165.26
510.643	23355.72
510.845	23777.6
511.048	23558.47
511.25	23974.2
511.453	24336.7
511.655	25211.18
511.858	24987.95
512.06	25454.89
512.262	25510.18
512.465	25446.69
512.667	26157.34
512.87	26558.74
513.072	26358.04
513.274	27029.77
513.477	27486.47
513.679	27726.08
513.881	28104.96
514.084	28440.82
514.286	28309.75
514.488	28629.24
514.69	29206.76
514.893	29782.24
515.095	29733.09
515.297	30306.52
515.499	30234.85
515.701	30638.3
515.904	31080.66
516.106	31410.38
516.308	31705.29
516.51	31875.27
516.712	32364.73
516.914	32796.85
517.116	33145.01
517.318	33573.03
517.52	33554.6
517.722	34062.5
517.925	34314.4
518.127	34863.25
518.329	34846.87
518.531	34857.11
518.733	35887.24
518.935	36096.13
519.136	36407.42
519.338	36843.64
519.54	36831.35
519.742	37310.58
519.944	37558.38
520.146	38635.61
520.348	38406.24
520.55	38285.41
520.752	38987.86
520.954	39487.57
521.155	39542.86
521.357	40120.39
521.559	40417.35
521.761	40677.44
521.963	40685.63
522.164	41087.03
522.366	41574.45
522.568	41947.18
522.77	41838.64
522.971	42696.74
523.173	42661.92
523.375	42768.41
523.576	42879
523.778	43386.9
523.98	43456.53
524.181	43937.8
524.383	43939.85
524.584	44648.45
524.786	44642.31
524.988	44390.41
525.189	45311.99
525.391	44902.4
525.592	45817.84
525.794	45707.25
525.995	46186.47
526.197	46325.74
526.398	46172.14
526.6	46450.66
526.801	47091.68
527.003	47124.44
527.204	46983.13
527.406	47579.09
527.607	47476.69
527.808	47581.14
528.01	47413.21
528.211	47648.72
528.412	48558.02
528.614	47951.82
528.815	48412.62
529.016	49076.16
529.218	48168.91
529.419	48928.7
529.62	48904.13
529.822	48621.51
530.023	49151.93
530.224	49024.96
530.425	48828.35
530.626	48754.63
530.828	48996.29
531.029	49811.38
531.23	49129.4
531.431	49194.94
531.632	49444.79
531.833	49870.77
532.035	49864.63
532.236	49985.46
532.437	50493.35
532.638	49858.48
532.839	50239.4
533.04	50511.78
533.241	49706.93
533.442	50849.7
533.643	50991.01
533.844	50333.61
534.045	50468.78
534.246	49729.46
534.447	50225.07
534.648	50026.42
534.849	50669.48
535.05	50202.54
535.251	50554.79
535.451	50233.26
535.652	50665.38
535.853	50356.14
536.054	50282.41
536.255	50866.08
536.456	50401.19
536.657	51175.33
536.857	50487.21
537.058	49917.87
537.259	50929.57
537.46	51074.98
537.66	50493.35
537.861	50679.72
538.062	50399.15
538.263	51027.87
538.463	50683.81
538.664	50425.77
538.865	51449.75
539.065	51279.77
539.266	50147.25
539.466	51398.55
539.667	50620.33
539.868	51175.33
540.068	50487.21
540.269	50460.58
540.469	50552.74
540.67	50565.03
540.87	50849.7
541.071	50689.96
541.271	50313.13
541.472	50632.61
541.672	50206.64
541.873	50294.7
542.073	50124.72
542.274	50616.23
542.474	50436.01
542.675	50370.47
542.875	50622.37
543.075	50687.91
543.276	50048.94
543.476	50864.03
543.676	50515.88
543.877	50892.71
544.077	50722.72
544.277	50237.36
544.478	50558.89
544.678	50597.8
544.878	50280.36
545.078	50573.22
545.279	50540.46
545.479	50122.67
545.679	50919.33
545.879	50114.48
546.079	50429.87
546.28	50255.79
546.48	50044.85
546.68	50669.48
546.88	50401.19
547.08	50352.04
547.28	50544.55
547.48	49823.67
547.68	50694.05
547.88	50141.1
548.081	50425.77
548.281	50524.07
548.481	50476.97
548.681	50890.66
548.881	50311.08
549.081	50692.01
549.28	50163.63
549.48	50444.2
549.68	50683.81
549.88	50868.13
550.08	50300.84
550.28	50565.03
550.48	50497.45
550.68	50483.11
550.88	50102.19
551.08	50347.95
551.279	50253.74
551.479	49872.82
551.679	50208.68
551.879	49833.91
552.079	50608.04
552.278	50163.63
552.478	49946.54
552.678	50053.04
552.878	50595.75
553.077	50321.32
553.277	49442.74
553.477	50649
553.676	50141.1
553.876	50094
554.076	49885.11
554.275	49780.66
554.475	49354.68
554.674	49713.08
554.874	50249.64
555.074	49657.78
555.273	50247.6
555.473	50077.61
555.672	49422.26
555.872	49520.57
556.071	49536.95
556.271	49719.22
556.47	49387.45
556.67	49180.6
556.869	49348.54
557.068	49479.61
557.268	49117.12
557.467	49106.88
557.667	49307.58
557.866	48957.38
558.065	48703.43
558.265	48930.75
558.464	48451.53
558.663	49252.28
558.863	48984
559.062	49035.2
559.261	48582.6
559.461	49450.94
559.66	48605.12
559.859	48650.18
560.058	48463.82
560.258	49104.83
560.457	48203.72
560.656	48467.91
560.855	48527.3
561.054	48377.8
561.253	48134.09
561.453	48320.46
561.652	47996.88
561.851	48433.1
562.05	48060.37
562.249	47849.42
562.448	48189.39
562.647	48127.95
562.846	48076.75
563.045	47960.01
563.244	46888.93
563.443	47876.05
563.642	47142.88
563.841	47071.2
564.04	47409.11
564.239	47642.58
564.438	47472.6
564.637	47529.94
564.836	47654.87
565.035	46979.04
565.234	47026.14
565.432	47439.83
565.631	47206.36
565.83	47357.91
566.029	46813.15
566.228	46630.88
566.427	46440.42
566.625	46686.18
566.824	46137.32
567.023	47130.59
567.222	46176.23
567.42	46594.02
567.619	45950.96
567.818	46424.04
568.016	46010.35
568.215	46430.18
568.414	46413.8
568.612	45944.81
568.811	45662.19
569.01	45469.68
569.208	45084.67
569.407	45420.53
569.605	45318.14
569.804	45758.45
570.002	45029.37
570.201	45369.33
570.4	44896.25
570.598	45340.66
570.797	44367.88
570.995	44388.36
571.193	44062.73
571.392	44847.1
571.59	44453.89
571.789	44390.41
571.987	44552.19
572.186	44046.35
572.384	43880.46
572.582	43728.91
572.781	44343.3
572.979	43327.51
573.177	43497.49
573.376	43675.66
573.574	43081.75
573.772	43651.09
573.971	43108.38
574.169	43335.7
574.367	42659.87
574.565	42864.67
574.763	42414.12
574.962	42170.41
575.16	42371.11
575.358	42883.1
575.556	42219.56
575.754	42401.83
575.952	42178.6
576.151	42387.49
576.349	41607.22
576.547	41721.9
576.745	41852.97
576.943	41910.32
577.141	41394.23
577.339	41738.29
577.537	41259.06
577.735	41345.08
577.933	40659.01
578.131	41259.06
578.329	40663.1
578.527	40554.56
578.725	40489.02
578.923	40917.05
579.121	40382.53
579.319	40407.11
579.516	40697.92
579.714	40286.28
579.912	40058.95
580.11	39940.17
580.308	39735.37
580.506	39751.76
580.704	39495.76
580.901	39899.21
581.099	39579.73
581.297	39043.16
581.495	38907.99
581.692	39338.07
581.89	39043.16
582.088	39186.52
582.285	38250.59
582.483	38821.98
582.681	38922.33
582.878	38385.76
583.076	38453.34
583.274	38346.85
583.471	37818.47
583.669	37789.8
583.866	37486.7
584.064	38236.26
584.262	37916.78
584.459	38113.38
584.657	37668.97
584.854	38172.77
585.052	36872.31
585.249	37339.25
585.447	37329.01
585.644	37034.1
585.841	37208.18
586.039	37257.33
586.236	36407.42
586.434	36866.17
586.631	36630.65
586.828	37142.64
587.026	36259.97
587.223	36180.1
587.42	36110.47
587.618	36200.58
587.815	35704.97
588.012	35713.16
588.21	35631.24
588.407	35958.92
588.604	35416.21
588.801	35178.64
588.999	35332.24
589.196	35297.42
589.393	35055.76
589.59	35221.65
589.787	34865.3
589.984	34756.76
590.182	34635.93
590.379	34601.11
590.576	34345.12
590.773	34377.89
590.97	34009.25
591.167	34615.45
591.364	33910.95
591.561	34267.3
591.758	33874.09
591.955	33679.53
592.152	34338.97
592.349	34068.64
592.546	33833.13
592.743	33792.17
592.94	33341.61
593.137	33632.43
593.334	33759.4
593.531	33042.61
593.727	33173.68
593.924	33310.89
594.121	32737.46
594.318	33108.15
594.515	32811.19
594.712	32862.39
594.908	32764.09
595.105	32551.1
595.302	32096.45
595.499	32391.36
595.696	32131.26
595.892	31482.06
596.089	32225.47
596.286	32315.58
596.482	32207.04
596.679	31842.5
596.876	31801.54
597.072	31623.37
597.269	31584.46
597.466	31482.06
597.662	31473.87
597.859	31350.99
598.055	31432.91
598.252	31043.79
598.448	30916.82
598.645	30589.14
598.841	30554.33
599.038	30757.08
599.234	30722.26
599.431	30318.81
599.627	30320.86
599.824	30415.07
600.02	29991.14
600.217	30218.46
600.413	30036.19
600.609	30122.21
600.806	29774.05
601.002	30030.05
601.198	29272.3
601.395	29384.94
601.591	29614.31
601.787	29630.69
601.984	29290.73
602.18	29632.74
602.376	29231.34
602.572	29161.71
602.769	29042.93
602.965	28678.39
603.161	28762.36
603.357	28682.48
603.553	28860.66
603.75	28666.1
603.946	28041.47
604.142	28586.23
604.338	27926.78
604.534	28420.34
604.73	28190.97
604.926	27779.33
605.122	27996.42
605.318	27695.36
605.514	27506.95
605.71	27556.1
605.906	27443.46
606.102	27500.81
606.298	27302.15
606.494	27558.15
606.69	26870.03
606.886	27166.99
607.082	26659.09
607.278	27285.77
607.474	26671.38
607.67	26925.33
607.866	26439.96
608.062	26859.79
608.257	26495.25
608.453	26611.99
608.649	26425.62
608.845	26116.38
609.041	26237.21
609.236	26120.48
609.432	26200.35
609.628	25954.59
609.824	26140.96
610.019	26048.8
610.215	25813.28
610.411	25852.19
610.606	25428.26
610.802	25753.89
610.998	25567.52
611.193	25342.25
611.389	25080.11
611.584	25268.52
611.78	25071.92
611.976	24992.05
612.171	25104.68
612.367	24840.5
612.562	24924.46
612.758	24539.44
612.953	24650.03
613.149	24846.64
613.344	24580.4
613.539	24951.09
613.735	24344.89
613.93	24731.95
614.126	24301.88
614.321	24500.53
614.517	23943.49
614.712	24512.82
614.907	23933.25
615.103	24396.09
615.298	23890.24
615.493	24373.56
615.688	23691.59
615.884	24158.52
616.079	23415.11
616.274	24027.45
616.47	23609.67
616.665	23644.48
616.86	23509.32
617.055	23167.31
617.25	23167.31
617.445	23533.89
617.641	22970.7
617.836	23447.88
618.031	22937.93
618.226	23300.42
618.421	22661.46
618.616	23083.34
618.811	22258.01
619.006	23001.42
619.201	22192.47
619.396	22620.5
619.591	22002.01
619.786	22266.2
619.981	21887.32
620.176	21946.72
620.371	22212.95
620.566	21916
620.761	21684.58
620.956	21600.61
621.151	21170.54
621.346	21426.53
621.541	21590.37
621.735	21438.82
621.93	21008.75
622.125	21092.71
622.32	20463.99
622.515	20990.31
622.709	20404.6
622.904	20734.32
623.099	20365.68
623.294	20547.95
623.488	20197.75
623.683	20394.36
623.878	20005.24
624.072	19827.07
624.267	19820.92
624.462	19605.89
624.656	19370.37
624.851	19710.33
625.046	19460.48
625.24	19323.27
625.435	19270.02
625.629	19310.98
625.824	18837.9
626.018	19050.89
626.213	18471.31
626.407	18774.41
626.602	18588.05
626.796	18502.03
626.991	18399.63
627.185	18413.97
627.38	18170.26
627.574	18243.99
627.768	18135.45
627.963	18006.42
628.157	17621.41
628.352	17764.76
628.546	17441.18
628.74	17684.89
628.935	17342.88
629.129	17406.37
629.323	17424.8
629.517	17310.11
629.712	17004.97
629.906	16884.14
630.1	16636.33
630.294	16880.04
630.489	16556.46
630.683	16654.76
630.877	16452.02
631.071	16683.44
631.265	16464.3
631.459	16435.63
631.653	16327.09
631.848	16173.49
632.042	15966.65
632.236	15976.89
632.43	15952.31
632.624	15868.34
632.818	15776.19
633.012	15604.16
633.206	15491.52
633.4	15698.36
633.594	15317.44
633.788	15372.74
633.982	15712.7
634.176	15337.92
634.369	15020.49
634.563	15090.12
634.757	15126.98
634.951	14995.91
635.145	14852.55
635.339	14666.19
635.533	14600.65
635.726	14602.7
635.92	14590.41
636.114	14502.35
636.308	14303.7
636.501	14442.96
636.695	14416.33
636.889	14209.49
637.083	14193.11
637.276	13973.97
637.47	14068.18
637.664	13775.32
637.857	13857.24
638.051	13898.2
638.244	13625.82
638.438	13736.41
638.632	13580.76
638.825	13451.74
639.019	13410.78
639.212	13072.87
639.406	13322.72
639.599	12988.9
639.793	13093.35
639.986	13042.15
640.18	12990.95
640.373	12876.26
640.567	12868.07
640.76	12761.58
640.954	12655.08
641.147	12589.55
641.34	12722.66
641.534	12515.82
641.727	12564.97
641.92	12325.36
642.114	12431.85
642.307	12413.42
642.5	12112.37
642.694	12118.51
642.887	11932.15
643.08	12048.88
643.273	11883
643.467	11815.41
643.66	11635.19
643.853	11655.67
644.046	11618.81
644.239	11600.38
644.432	11489.79
644.626	11350.53
644.819	11536.89
645.012	11280.89
645.205	11198.98
645.398	11260.41
645.591	11096.58
645.784	11119.1
645.977	11133.44
646.17	10942.98
646.363	10813.96
646.556	10527.24
646.749	10830.34
646.942	10754.57
647.135	10664.46
647.328	10770.95
647.521	10455.56
647.714	10205.71
647.907	10195.47
648.099	10396.17
648.292	10252.81
648.485	10177.04
648.678	9912.85
648.871	9873.94
649.064	9964.05
649.256	9976.34
649.449	9896.47
649.642	9699.86
649.835	9732.63
650.027	9566.74
650.22	9493.02
650.413	9507.35
650.605	9658.9
650.798	9460.25
650.991	9402.91
651.183	9347.61
651.376	9165.34
651.568	9298.46
651.761	9128.48
651.954	9120.29
652.146	9052.7
652.339	8872.48
652.531	9015.84
652.724	8729.13
652.916	8512.04
653.109	8815.14
653.301	8630.82
653.494	8575.53
653.686	8553
653.879	8571.43
654.071	8507.94
654.263	8307.24
654.456	8344.11
654.648	8450.6
654.84	7971.38
655.033	8284.72
655.225	8247.85
655.417	8030.77
655.61	8221.23
655.802	8012.34
655.994	7858.74
656.186	7916.08
656.379	7674.42
656.571	7676.47
656.763	7840.31
656.955	7572.02
657.148	7764.53
657.34	7492.15
657.532	7592.5
657.724	7668.28
657.916	7352.89
658.108	7438.91
658.3	7361.08
658.492	7285.31
658.684	7268.92
658.876	7230.01
659.068	6965.82
659.26	6920.77
659.452	7150.14
659.644	6855.23
659.836	6857.28
660.028	6910.53
660.22	6783.56
660.412	6826.56
660.604	6736.45
660.796	6574.66
660.988	6578.76
661.18	6566.47
661.372	6402.63
661.563	6457.93
661.755	6398.54
661.947	6402.63
662.139	6373.96
662.331	6132.3
662.522	6101.58
662.714	6113.87
662.906	6031.95
663.097	6154.83
663.289	6017.61
663.481	6079.05
663.673	5952.08
663.864	5796.43
664.056	5868.11
664.247	5773.91
664.439	5732.95
664.631	5626.45
664.822	5704.28
665.014	5689.94
665.205	5694.04
665.397	5534.29
665.588	5685.84
665.78	5511.77
665.971	5323.35
666.163	5583.45
666.354	5395.03
666.546	5376.6
666.737	5360.22
666.929	5317.21
667.12	5333.59
667.311	5255.77
667.503	5116.51
667.694	5110.36
667.885	5034.59
668.077	5198.43
668.268	4932.19
668.459	5059.17
668.651	5022.3
668.842	4952.67
669.033	4991.58
669.224	4919.9
669.416	5001.82
669.607	4813.41
669.798	4844.13
669.989	4895.33
670.18	4833.89
670.371	4663.91
670.563	4801.12
670.754	4637.28
670.945	4647.52
671.136	4786.79
671.327	4522.6
671.518	4538.98
671.709	4684.39
671.9	4622.95
672.091	4555.37
672.282	4514.41
672.473	4485.73
672.664	4432.49
672.855	4436.58
673.046	4418.15
673.237	4416.1
673.428	4508.26
673.619	4477.54
673.809	4440.68
674	4409.96
674.191	4440.68
674.382	4246.12
674.573	4317.8
674.764	4250.22
674.954	4317.8
675.145	4149.87
675.336	4303.47
675.527	4194.92
675.717	4270.7
675.908	4414.06
676.099	4059.76
676.289	4186.73
676.48	4196.97
676.671	4074.09
676.861	4180.59
677.052	4051.56
677.243	4006.51
677.433	4162.16
677.624	4094.57
677.814	4110.96
678.005	4063.85
678.195	3969.65
678.386	3973.74
678.576	4010.61
678.767	3955.31
678.957	3865.2
679.148	3834.48
679.338	3857.01
679.529	3850.86
679.719	3842.67
679.909	3918.45
680.1	3809.9
680.29	3897.97
680.481	3775.09
680.671	3703.41
680.861	3863.15
681.052	3814
681.242	3779.19
681.432	3766.9
681.622	3799.66
681.813	3859.06
682.003	3787.38
682.193	3734.13
682.383	3687.03
682.573	3732.08
682.764	3631.73
682.954	3805.81
683.144	3654.26
683.334	3680.88
683.524	3711.6
683.714	3703.41
683.904	3707.51
684.094	3674.74
684.284	3723.89
684.474	3738.23
684.664	3558
684.854	3666.55
685.044	3596.92
685.234	3584.63
685.424	3701.36
685.614	3689.07
685.804	3603.06
685.994	3631.73
686.184	3721.84
686.374	3615.35
686.564	3433.08
686.753	3527.28
686.943	3451.51
687.133	3549.81
687.323	3523.19
687.513	3543.67
687.702	3478.13
687.892	3406.45
688.082	3478.13
688.272	3553.91
688.461	3662.45
688.651	3596.92
688.841	3492.47
689.03	3609.2
689.22	3523.19
689.41	3465.85
689.599	3506.81
689.789	3517.05
689.979	3484.28
690.168	3605.11
690.358	3349.11
690.547	3390.07
690.737	3594.87
690.926	3373.69
691.116	3512.95
691.305	3515
691.495	3484.28
691.684	3396.21
691.874	3371.64
692.063	3463.8
692.252	3521.14
692.442	3451.51
692.631	3496.57
692.82	3459.7
693.01	3383.93
693.199	3394.17
693.388	3394.17
693.578	3517.05
693.767	3494.52
693.956	3500.66
694.146	3383.93
694.335	3406.45
694.524	3334.78
694.713	3283.58
694.902	3564.15
695.092	3398.26
695.281	3349.11
695.47	3351.16
695.659	3287.67
695.848	3293.82
696.037	3240.57
696.226	3342.97
696.415	3416.69
696.604	3443.32
696.793	3324.54
696.982	3283.58
697.171	3322.49
697.36	3332.73
697.549	3302.01
697.738	3283.58
697.927	3342.97
698.116	3390.07
698.305	3304.06
698.494	3318.39
698.683	3375.74
698.872	3304.06
699.061	3201.66
699.25	3177.08
699.438	3299.96
699.627	3349.11
699.816	3261.05
700.005	3375.74
700.193	3195.51
700.382	3451.51
700.571	3246.71
700.76	3259
700.948	3287.67
701.137	3252.86
701.326	3242.62
701.514	3230.33
701.703	3170.94
701.892	3295.86
702.08	3195.51
702.269	3146.36
702.457	3160.7
702.646	3273.34
702.834	3023.48
703.023	3148.41
703.212	3068.54
703.4	3078.78
703.589	3017.34
703.777	3080.83
703.965	3064.44
704.154	3095.16
704.342	3064.44
704.531	2982.53
704.719	2941.57
704.907	3027.58
705.096	2976.38
705.284	2882.17
705.472	3037.82
705.661	2990.72
705.849	2947.71
706.037	2939.52
706.226	2798.21
706.414	2929.28
706.602	2988.67
706.79	2826.88
706.979	2855.55
707.167	2871.93
707.355	2847.36
707.543	2974.33
707.731	2865.79
707.919	2800.26
708.107	2859.65
708.296	2763.39
708.484	2724.48
708.672	2779.78
708.86	2777.73
709.048	2796.16
709.236	2685.57
709.424	2835.07
709.612	2810.5
709.8	2695.81
709.988	2712.19
710.176	2738.82
710.364	2638.47
710.551	2599.56
710.739	2699.91
710.927	2638.47
711.115	2632.32
711.303	2609.79
711.491	2615.94
711.679	2634.37
711.866	2620.03
712.054	2648.71
712.242	2558.6
712.43	2531.97
712.617	2523.78
712.805	2421.38
712.993	2493.06
713.181	2458.25
713.368	2552.45
713.556	2400.9
713.744	2443.91
713.931	2493.06
714.119	2552.45
714.306	2392.71
714.494	2433.67
714.682	2445.96
714.869	2359.94
715.057	2441.86
715.244	2372.23
715.432	2386.57
715.619	2415.24
715.807	2407.05
715.994	2347.65
716.182	2255.5
716.369	2384.52
716.556	2177.67
716.744	2259.59
716.931	2396.81
717.119	2271.88
717.306	2273.93
717.493	2327.18
717.681	2216.58
717.868	2239.11
718.055	2245.26
718.242	2157.19
718.43	2216.58
718.617	2167.43
718.804	2122.38
718.991	2167.43
719.179	2192.01
719.366	2011.79
719.553	2054.8
719.74	2089.61
719.927	2075.27
720.114	2124.43
720.301	2114.19
720.488	2036.36
720.676	1985.16
720.863	1966.73
721.05	2044.56
721.237	1938.06
721.424	2140.81
721.611	2071.18
721.798	1968.78
721.985	2026.12
722.172	1927.82
722.358	1938.06
722.545	2009.74
722.732	1966.73
722.919	1976.97
723.106	1850
723.293	1946.25
723.48	1979.02
723.667	1792.66
723.853	1933.97
724.04	1901.2
724.227	1823.37
724.414	1866.38
724.6	1913.49
724.787	1835.66
724.974	1743.5
725.161	1893.01
725.347	1796.75
725.534	1806.99
725.72	1802.9
725.907	1852.05
726.094	1811.09
726.28	1780.37
726.467	1770.13
726.653	1749.65
726.84	1682.06
727.027	1782.42
727.213	1755.79
727.4	1770.13
727.586	1745.55
727.773	1708.69
727.959	1612.43
728.145	1770.13
728.332	1743.5
728.518	1663.63
728.705	1583.76
728.891	1622.67
729.077	1692.3
729.264	1632.91
729.45	1630.87
729.636	1657.49
729.823	1637.01
730.009	1600.15
730.195	1665.68
730.382	1534.61
730.568	1540.76
730.754	1622.67
730.94	1630.87
731.126	1620.63
731.313	1559.19
731.499	1610.39
731.685	1503.89
731.871	1518.23
732.057	1534.61
732.243	1493.65
732.429	1518.23
732.615	1518.23
732.801	1532.56
732.987	1432.21
733.173	1493.65
733.359	1512.08
733.545	1581.71
733.731	1374.87
733.917	1485.46
734.103	1421.97
734.289	1440.4
734.475	1397.4
734.661	1477.27
734.847	1428.12
735.033	1329.81
735.219	1483.41
735.404	1335.96
735.59	1331.86
735.776	1335.96
735.962	1467.03
736.148	1419.92
736.333	1335.96
736.519	1411.73
736.705	1325.72
736.89	1411.73
737.076	1421.97
737.262	1364.63
737.447	1340.05
737.633	1358.49
737.819	1378.97
738.004	1251.99
738.19	1262.23
738.375	1313.43
738.561	1315.48
738.747	1260.18
738.932	1272.47
739.118	1348.25
739.303	1297.05
739.489	1295
739.674	1258.14
739.859	1256.09
740.045	1247.9
740.23	1262.23
740.416	1297.05
740.601	1321.62
740.786	1262.23
740.972	1256.09
741.157	1305.24
741.342	1147.55
741.528	1204.89
741.713	1184.41
741.898	1194.65
742.084	1112.73
742.269	1092.25
742.454	1153.69
742.639	1194.65
742.824	1153.69
743.01	1049.24
743.195	1116.83
743.38	1135.26
743.565	1139.35
743.75	1055.39
743.935	1077.91
744.12	1082.01
744.305	1032.86
744.49	1049.24
744.675	1127.07
744.86	1075.87
745.045	1036.95
745.23	1004.19
745.415	1069.72
745.6	1149.59
745.785	1018.52
745.97	1073.82
746.155	1049.24
746.34	1034.91
746.525	1034.91
746.71	1016.48
746.895	979.61
747.079	1034.91
747.264	1039
747.449	1049.24
747.634	989.85
747.819	1010.33
748.003	959.13
748.188	948.89
748.373	928.41
748.557	971.42
748.742	912.03
748.927	967.32
749.111	926.36
749.296	979.61
749.481	965.28
749.665	930.46
749.85	926.36
750.034	971.42
750.219	899.74
750.404	883.36
750.588	899.74
750.773	828.06
750.957	862.88
751.141	934.56
751.326	854.69
751.51	893.6
751.695	877.21
751.879	877.21
752.064	879.26
752.248	783.01
752.432	803.49
752.617	776.86
752.801	905.88
752.985	754.34
753.17	768.67
753.354	883.36
753.538	864.93
753.722	699.04
753.907	760.48
754.091	869.02
754.275	754.34
754.459	768.67
754.643	768.67
754.828	758.43
755.012	832.16
755.196	762.53
755.38	813.73
755.564	682.66
755.748	731.81
755.932	764.58
756.116	731.81
756.3	740
756.484	776.86
756.668	690.85
756.852	746.14
757.036	756.38
757.22	776.86
757.404	600.74
757.588	705.18
757.772	725.66
757.956	649.89
758.14	666.27
758.323	653.98
758.507	756.38
758.691	705.18
758.875	713.38
759.059	684.7
759.242	633.5
759.426	627.36
759.61	699.04
759.794	666.27
759.977	703.14
760.161	723.62
760.345	676.51
760.528	670.37
760.712	596.64
760.895	715.42
761.079	647.84
761.263	647.84
761.446	604.83
761.63	547.49
761.813	625.31
761.997	619.17
762.18	645.79
762.364	625.31
762.547	547.49
762.731	608.93
762.914	664.22
763.098	600.74
763.281	576.16
763.464	543.39
763.648	551.59
763.831	553.63
764.015	576.16
764.198	516.77
764.381	588.45
764.564	582.31
764.748	584.35
764.931	567.97
765.114	561.83
765.297	551.59
765.481	549.54
765.664	535.2
765.847	549.54
766.03	590.5
766.213	563.87
766.397	600.74
766.58	555.68
766.763	551.59
766.946	600.74
767.129	610.98
767.312	584.35
767.495	535.2
767.678	490.15
767.861	496.29
768.044	529.06
768.227	563.87
768.41	563.87
768.593	567.97
768.776	565.92
768.959	514.72
769.142	555.68
769.324	477.86
769.507	553.63
769.69	518.82
769.873	520.87
770.056	557.73
770.239	494.24
770.421	527.01
770.604	484
770.787	524.96
770.97	504.48
771.152	490.15
771.335	522.91
771.518	527.01
771.7	426.66
771.883	471.72
772.066	477.86
772.248	494.24
772.431	576.16
772.613	512.67
772.796	508.58
772.978	524.96
773.161	453.28
773.343	492.2
773.526	418.47
773.708	545.44
773.891	459.43
774.073	516.77
774.256	484
774.438	404.13
774.621	518.82
774.803	459.43
774.985	449.19
775.168	496.29
775.35	383.65
775.532	459.43
775.715	393.89
775.897	428.71
776.079	436.9
776.261	453.28
776.444	457.38
776.626	502.43
776.808	443.04
776.99	463.52
777.173	436.9
777.355	406.18
777.537	393.89
777.719	330.41
777.901	346.79
778.083	418.47
778.265	428.71
778.447	438.95
778.629	479.91
778.811	428.71
778.993	379.56
779.175	445.09
779.357	383.65
779.539	328.36
779.721	426.66
779.903	387.75
780.085	469.67
780.267	375.46
780.449	467.62
780.631	422.56
780.812	492.2
780.994	412.32
781.176	348.84
781.358	424.61
781.54	422.56
781.721	365.22
781.903	307.88
782.085	340.65
782.267	299.69
782.448	400.04
782.63	246.44
782.812	361.13
782.993	295.59
783.175	395.94
783.357	303.78
783.538	268.97
783.72	328.36
783.901	330.41
784.083	262.82
784.264	273.06
784.446	279.21
784.627	348.84
784.809	383.65
784.99	303.78
785.172	254.63
785.353	338.6
785.535	279.21
785.716	221.86
785.897	324.26
786.079	242.34
786.26	324.26
786.441	334.5
786.623	297.64
786.804	363.17
786.985	279.21
787.167	275.11
787.348	262.82
787.529	209.58
787.71	318.12
787.891	291.49
788.073	264.87
788.254	234.15
788.435	250.53
788.616	305.83
788.797	277.16
788.978	289.45
789.159	258.73
789.34	221.86
789.522	248.49
789.703	209.58
789.884	152.23
790.065	230.06
790.246	205.48
790.427	203.43
790.607	291.49
790.788	291.49
790.969	277.16
791.15	185
791.331	271.01
791.512	205.48
791.693	209.58
791.874	213.67
792.054	242.34
792.235	303.78
792.416	285.35
792.597	244.39
792.778	248.49
792.958	223.91
793.139	264.87
793.32	250.53
793.5	205.48
793.681	230.06
793.862	180.9
794.042	221.86
794.223	256.68
794.404	246.44
794.584	250.53
794.765	160.42
794.945	187.05
795.126	154.28
795.306	305.83
795.487	244.39
795.667	201.38
795.848	256.68
796.028	225.96
796.209	203.43
796.389	197.29
796.57	201.38
796.75	117.42
796.93	201.38
797.111	160.42
797.291	166.57
797.471	160.42
797.652	197.29
797.832	195.24
798.012	141.99
798.192	139.94
798.373	185
798.553	180.9
798.733	148.14
798.913	174.76
799.093	178.86
799.274	137.9
799.454	141.99
799.634	182.95
799.814	279.21
799.994	189.1
800.174	240.3
800.354	160.42
800.534	115.37
800.714	166.57
800.894	191.14
801.074	131.75
801.254	141.99
801.434	154.28
801.614	176.81
801.794	168.62
801.974	387.75
802.154	98.99
802.334	150.18
802.514	137.9
802.693	158.38
802.873	141.99
803.053	176.81
803.233	166.57
803.413	123.56
803.592	146.09
803.772	185
803.952	133.8
804.131	115.37
804.311	139.94
804.491	131.75
804.67	80.55
804.85	176.81
805.03	146.09
805.209	180.9
805.389	133.8
805.568	78.51
805.748	182.95
805.928	170.66
806.107	174.76
806.287	152.23
806.466	154.28
806.646	31.4
806.825	158.38
807.004	182.95
807.184	123.56
807.363	154.28
807.543	197.29
807.722	109.23
807.901	137.9
808.081	111.27
808.26	78.51
808.439	146.09
808.619	64.17
808.798	172.71
808.977	86.7
809.156	25.26
809.336	191.14
809.515	84.65
809.694	41.64
809.873	152.23
810.052	105.13
810.231	115.37
810.411	45.74
810.59	86.7
810.769	162.47
810.948	148.14
811.127	135.85
811.306	117.42
811.485	92.84
811.664	109.23
811.843	90.79
812.022	129.7
812.201	131.75
812.38	156.33
812.559	62.12
812.737	172.71
812.916	96.94
813.095	25.26
813.274	209.58
813.453	141.99
813.632	172.71
813.811	90.79
813.989	103.08
814.168	133.8
814.347	119.46
814.526	58.03
814.704	111.27
814.883	107.18
815.062	125.61
815.24	86.7
815.419	115.37
815.598	141.99
815.776	103.08
815.955	78.51
816.133	29.35
816.312	117.42
816.49	45.74
816.669	94.89
816.847	127.66
817.026	96.94
817.204	117.42
817.383	60.07
817.561	72.36
817.74	125.61
817.918	58.03
818.097	72.36
818.275	58.03
818.453	66.22
818.632	21.16
818.81	152.23
818.988	66.22
819.167	84.65
819.345	127.66
819.523	119.46
819.701	144.04
819.879	70.31
820.058	166.57
820.236	78.51
820.414	90.79
820.592	68.27
820.77	70.31
820.948	49.83
821.127	31.4
821.305	90.79
821.483	156.33
821.661	127.66
821.839	70.31
822.017	74.41
822.195	31.4
822.373	105.13
822.551	55.98
822.729	98.99
822.907	113.32
823.085	119.46
823.262	-9.56
823.44	133.8
823.618	39.59
823.796	103.08
823.974	96.94
824.152	113.32
824.329	146.09
824.507	68.27
824.685	15.02
824.863	25.26
825.04	72.36
825.218	58.03
825.396	88.75
825.574	152.23
825.751	41.64
825.929	129.7
826.107	92.84
826.284	62.12
826.462	58.03
826.639	74.41
826.817	55.98
826.994	45.74
827.172	90.79
827.349	37.55
827.527	115.37
827.704	119.46
827.882	21.16
828.059	121.51
828.237	78.51
828.414	115.37
828.591	60.07
828.769	43.69
828.946	82.6
829.124	107.18
829.301	17.07
829.478	82.6
829.655	113.32
829.833	109.23
830.01	103.08
830.187	76.46
830.364	64.17
830.542	31.4
830.719	80.55
830.896	60.07
831.073	41.64
831.25	41.64
831.427	49.83
831.604	115.37
831.782	131.75
831.959	144.04
832.136	111.27
832.313	66.22
832.49	51.88
832.667	92.84
832.844	25.26
833.021	33.45
833.198	45.74
833.374	96.94
833.551	66.22
833.728	90.79
833.905	98.99
834.082	82.6
834.259	-7.51
834.436	111.27
834.612	-13.65
834.789	101.03
834.966	-13.65
835.143	58.03
835.319	68.27
835.496	41.64
835.673	6.83
835.85	131.75
836.026	17.07
836.203	60.07
836.38	25.26
836.556	115.37
836.733	45.74
836.909	8.87
837.086	68.27
837.262	72.36
837.439	10.92
837.616	41.64
837.792	29.35
837.968	82.6
838.145	31.4
838.321	82.6
838.498	12.97
838.674	58.03
838.851	62.12
839.027	90.79
839.203	15.02
839.38	103.08
839.556	94.89
839.732	37.55
839.909	74.41
840.085	148.14
840.261	27.31
840.437	94.89
840.614	27.31
840.79	64.17
840.966	96.94
841.142	84.65
841.318	55.98
841.494	35.5
841.671	96.94
841.847	98.99
842.023	107.18
842.199	180.9
842.375	88.75
842.551	119.46
842.727	-38.23
842.903	66.22
843.079	98.99
843.255	31.4
843.431	37.55
843.607	105.13
843.783	25.26
843.959	119.46
844.134	92.84
844.31	-30.04
844.486	29.35
844.662	76.46
844.838	19.11
845.013	90.79
845.189	49.83
845.365	66.22
845.541	88.75
845.716	41.64
845.892	53.93
846.068	47.79
846.244	17.07
846.419	111.27
846.595	62.12
846.77	23.21
846.946	94.89
847.122	10.92
847.297	113.32
847.473	51.88
847.648	60.07
847.824	27.31
847.999	-21.85
848.175	35.5
848.35	82.6
848.526	43.69
848.701	47.79
848.876	53.93
849.052	31.4
849.227	17.07
849.403	35.5
849.578	98.99
849.753	53.93
849.929	33.45
850.104	25.26
850.279	33.45
850.454	60.07
850.63	-11.61
850.805	64.17
850.98	31.4
851.155	6.83
851.33	76.46
851.505	76.46
851.681	6.83
851.856	4.78
852.031	55.98
852.206	45.74
852.381	86.7
852.556	12.97
852.731	25.26
852.906	51.88
853.081	45.74
853.256	41.64
853.431	53.93
853.606	-1.37
853.781	62.12
853.956	41.64
854.131	101.03
854.305	-5.46
854.48	-5.46
854.655	64.17
854.83	72.36
855.005	72.36
855.18	39.59
855.354	25.26
855.529	47.79
855.704	4.78
855.879	53.93
856.053	2.73
856.228	82.6
856.403	-32.08
856.577	19.11
856.752	4.78
856.926	27.31
857.101	27.31
857.276	-3.41
857.45	62.12
857.625	10.92
857.799	29.35
857.974	55.98
858.148	35.5
858.323	60.07
858.497	6.83
858.672	43.69
858.846	49.83
859.02	6.83
859.195	-46.42
859.369	43.69
859.543	68.27
859.718	0.68
859.892	37.55
860.066	76.46
860.241	90.79
860.415	88.75
860.589	43.69
860.763	121.51
860.938	90.79
861.112	21.16
861.286	72.36
861.46	62.12
861.634	-15.7
861.808	17.07
861.982	10.92
862.157	-1.37
862.331	29.35
862.505	41.64
862.679	-7.51
862.853	62.12
863.027	-3.41
863.201	49.83
863.375	35.5
863.549	58.03
863.722	-23.89
863.896	123.56
864.07	19.11
864.244	58.03
864.418	80.55
864.592	58.03
864.766	10.92
864.939	21.16
865.113	74.41
865.287	19.11
865.461	-68.95
865.634	41.64
865.808	68.27
865.982	90.79
866.156	25.26
866.329	66.22
866.503	51.88
866.676	37.55
866.85	-5.46
867.024	12.97
867.197	21.16
867.371	68.27
867.544	10.92
867.718	41.64
867.891	64.17
868.065	88.75
868.238	2.73
868.412	-15.7
868.585	80.55
868.759	76.46
868.932	35.5
869.105	55.98
869.279	0.68
869.452	31.4
869.625	12.97
869.799	37.55
869.972	10.92
870.145	19.11
870.319	74.41
870.492	78.51
870.665	-7.51
870.838	58.03
871.011	12.97
871.185	107.18
871.358	-17.75
871.531	62.12
871.704	-5.46
871.877	-34.13
872.05	15.02
872.223	-11.61
872.396	-19.8
872.569	64.17
872.742	15.02
872.915	19.11
873.088	-1.37
873.261	55.98
873.434	21.16
873.607	-21.85
873.78	49.83
873.953	-40.28
874.126	25.26
874.299	27.31
874.471	-21.85
874.644	45.74
874.817	-13.65
874.99	37.55
875.163	19.11
875.335	12.97
875.508	-23.89
875.681	70.31
875.853	19.11
876.026	-9.56
876.199	0.68
876.371	27.31
876.544	27.31
876.717	49.83
876.889	74.41
877.062	31.4
877.234	4.78
877.407	29.35
877.579	64.17
877.752	27.31
877.924	-13.65
878.097	60.07
878.269	45.74
878.442	58.03
878.614	49.83
878.786	25.26
878.959	37.55
879.131	-21.85
879.303	82.6
879.476	-7.51
879.648	-9.56
879.82	90.79
879.993	15.02
880.165	62.12
880.337	-64.85
880.509	2.73
880.681	35.5
880.854	31.4
881.026	-1.37
881.198	-23.89
881.37	-7.51
881.542	49.83
881.714	6.83
881.886	66.22
882.058	25.26
882.23	60.07
882.402	45.74
882.574	76.46
882.746	23.21
882.918	49.83
883.09	78.51
883.262	-21.85
883.434	-23.89
883.606	8.87
883.778	0.68
883.95	25.26
884.122	-30.04
884.293	35.5
884.465	-34.13
884.637	-19.8
884.809	35.5
884.98	21.16
885.152	29.35
885.324	8.87
885.496	-60.76
885.667	43.69
885.839	2.73
886.011	33.45
886.182	55.98
886.354	41.64
886.525	29.35
886.697	2.73
886.869	17.07
887.04	19.11
887.212	33.45
887.383	39.59
887.555	27.31
887.726	51.88
887.897	15.02
888.069	53.93
888.24	12.97
888.412	41.64
888.583	-7.51
888.754	35.5
888.926	58.03
889.097	4.78
889.268	-5.46
889.44	21.16
889.611	-9.56
889.782	19.11
889.953	8.87
890.125	33.45
890.296	-44.37
890.467	47.79
890.638	0.68
890.809	21.16
890.98	0.68
891.151	-50.52
891.323	2.73
891.494	51.88
891.665	-7.51
891.836	17.07
892.007	58.03
892.178	66.22
892.349	29.35
892.52	-56.66
892.691	19.11
892.862	76.46
893.032	10.92
893.203	146.09
893.374	41.64
893.545	17.07
893.716	8.87
893.887	-23.89
894.057	17.07
894.228	-42.32
894.399	-44.37
894.57	33.45
894.74	-40.28
894.911	21.16
895.082	17.07
895.253	41.64
895.423	10.92
895.594	43.69
895.764	41.64
895.935	21.16
896.106	21.16
896.276	-54.61
896.447	-11.61
896.617	-13.65
896.788	-73.04
896.958	10.92
897.129	21.16
897.299	0.68
897.47	21.16
897.64	92.84
897.81	-48.47
897.981	8.87
898.151	90.79
898.322	-15.7
898.492	68.27
898.662	10.92
898.832	-62.8
899.003	-48.47
899.173	17.07
899.343	29.35
899.513	-13.65
