Data from USB4F104151__35__13-52-52-121.txt Node

Date: Thu Mar 13 13:52:52 EDT 2025
User: louis
Spectrometer: USB4F10415
Trigger mode: 4
Integration Time (sec): 1.000000E-2
Scans to average: 1
Electric dark correction enabled: true
Nonlinearity correction enabled: false
Boxcar width: 0
XAxis mode: Wavelengths
Number of Pixels in Spectrum: 3648
>>>>>Begin Spectral Data<<<<<
178.204	-66.22
178.424	-66.22
178.644	-66.22
178.864	-6.83
179.084	-41.64
179.304	-10.92
179.524	30.04
179.744	21.85
179.964	-21.16
180.184	9.56
180.404	40.28
180.624	-4.78
180.844	-55.98
181.064	-23.21
181.283	25.94
181.503	-0.68
181.723	-10.92
181.943	-17.07
182.163	85.33
182.383	-45.74
182.602	71
182.822	19.8
183.042	-25.26
183.262	23.89
183.482	7.51
183.701	-45.74
183.921	46.42
184.141	54.61
184.361	27.99
184.58	32.08
184.8	46.42
185.02	34.13
185.239	21.85
185.459	-2.73
185.679	27.99
185.898	-8.87
186.118	11.61
186.338	-17.07
186.557	73.04
186.777	-23.21
186.997	21.85
187.216	-19.11
187.436	-19.11
187.655	-12.97
187.875	68.95
188.095	-0.68
188.314	23.89
188.534	-66.22
188.753	21.85
188.973	111.96
189.192	56.66
189.412	15.7
189.631	1.37
189.851	25.94
190.07	91.48
190.29	21.85
190.509	83.28
190.729	-37.55
190.948	81.24
191.168	134.48
191.387	13.65
191.607	-6.83
191.826	30.04
192.045	34.13
192.265	19.8
192.484	34.13
192.704	-47.79
192.923	-8.87
193.142	23.89
193.362	-41.64
193.581	5.46
193.8	46.42
194.02	-31.4
194.239	13.65
194.458	-8.87
194.678	-25.26
194.897	13.65
195.116	54.61
195.335	11.61
195.555	93.52
195.774	-0.68
195.993	103.76
196.212	3.41
196.432	71
196.651	62.8
196.87	25.94
197.089	71
197.308	40.28
197.528	-23.21
197.747	-23.21
197.966	-19.11
198.185	-31.4
198.404	105.81
198.623	27.99
198.842	32.08
199.062	32.08
199.281	44.37
199.5	17.75
199.719	128.34
199.938	-19.11
200.157	-4.78
200.376	-4.78
200.595	32.08
200.814	44.37
201.033	25.94
201.252	68.95
201.471	21.85
201.69	58.71
201.909	38.23
202.128	-8.87
202.347	40.28
202.566	40.28
202.785	23.89
203.004	32.08
203.223	73.04
203.442	62.8
203.661	15.7
203.879	25.94
204.098	66.9
204.317	87.38
204.536	11.61
204.755	23.89
204.974	58.71
205.193	23.89
205.411	44.37
205.63	73.04
205.849	-10.92
206.068	27.99
206.287	11.61
206.505	81.24
206.724	66.9
206.943	46.42
207.162	3.41
207.381	40.28
207.599	-19.11
207.818	-12.97
208.037	21.85
208.255	77.14
208.474	13.65
208.693	-0.68
208.911	42.32
209.13	9.56
209.349	-4.78
209.567	13.65
209.786	13.65
210.005	-0.68
210.223	91.48
210.442	25.94
210.661	15.7
210.879	-0.68
211.098	46.42
211.316	-35.5
211.535	30.04
211.753	44.37
211.972	-10.92
212.191	-58.03
212.409	-33.45
212.628	19.8
212.846	83.28
213.065	58.71
213.283	60.76
213.502	-23.21
213.72	56.66
213.938	-35.5
214.157	93.52
214.375	-2.73
214.594	9.56
214.812	79.19
215.031	-35.5
215.249	-6.83
215.467	-8.87
215.686	58.71
215.904	11.61
216.122	3.41
216.341	89.43
216.559	62.8
216.778	32.08
216.996	-29.35
217.214	-12.97
217.432	-6.83
217.651	89.43
217.869	7.51
218.087	71
218.306	5.46
218.524	79.19
218.742	44.37
218.96	7.51
219.179	85.33
219.397	79.19
219.615	58.71
219.833	101.72
220.051	-21.16
220.27	42.32
220.488	48.47
220.706	40.28
220.924	-27.31
221.142	3.41
221.36	48.47
221.578	95.57
221.796	36.18
222.015	27.99
222.233	-47.79
222.451	48.47
222.669	44.37
222.887	77.14
223.105	15.7
223.323	5.46
223.541	21.85
223.759	52.56
223.977	-17.07
224.195	75.09
224.413	52.56
224.631	36.18
224.849	23.89
225.067	15.7
225.285	44.37
225.503	85.33
225.721	56.66
225.939	3.41
226.157	50.52
226.375	87.38
226.592	30.04
226.81	40.28
227.028	52.56
227.246	42.32
227.464	50.52
227.682	48.47
227.9	81.24
228.117	11.61
228.335	15.7
228.553	48.47
228.771	13.65
228.989	42.32
229.206	81.24
229.424	109.91
229.642	19.8
229.86	23.89
230.077	-41.64
230.295	21.85
230.513	64.85
230.731	122.2
230.948	50.52
231.166	68.95
231.384	66.9
231.601	50.52
231.819	58.71
232.037	44.37
232.254	48.47
232.472	-4.78
232.689	60.76
232.907	13.65
233.125	-27.31
233.342	64.85
233.56	17.75
233.777	-12.97
233.995	-0.68
234.213	83.28
234.43	25.94
234.648	19.8
234.865	60.76
235.083	36.18
235.3	64.85
235.518	-0.68
235.735	-39.59
235.953	81.24
236.17	-6.83
236.388	50.52
236.605	27.99
236.822	23.89
237.04	32.08
237.257	11.61
237.475	-8.87
237.692	60.76
237.909	68.95
238.127	-8.87
238.344	9.56
238.562	27.99
238.779	19.8
238.996	3.41
239.214	66.9
239.431	7.51
239.648	5.46
239.865	52.56
240.083	68.95
240.3	-10.92
240.517	48.47
240.735	32.08
240.952	38.23
241.169	89.43
241.386	60.76
241.603	17.75
241.821	54.61
242.038	42.32
242.255	17.75
242.472	40.28
242.689	56.66
242.907	46.42
243.124	66.9
243.341	71
243.558	-45.74
243.775	30.04
243.992	-47.79
244.209	7.51
244.426	66.9
244.643	13.65
244.86	101.72
245.078	66.9
245.295	-19.11
245.512	27.99
245.729	44.37
245.946	54.61
246.163	32.08
246.38	83.28
246.597	54.61
246.814	-17.07
247.031	13.65
247.248	93.52
247.464	11.61
247.681	40.28
247.898	52.56
248.115	50.52
248.332	27.99
248.549	15.7
248.766	-43.69
248.983	64.85
249.2	-17.07
249.417	9.56
249.633	3.41
249.85	97.62
250.067	17.75
250.284	27.99
250.501	-2.73
250.717	27.99
250.934	15.7
251.151	36.18
251.368	-12.97
251.585	64.85
251.801	-15.02
252.018	7.51
252.235	25.94
252.451	46.42
252.668	58.71
252.885	-19.11
253.102	-21.16
253.318	-2.73
253.535	38.23
253.752	-17.07
253.968	3.41
254.185	30.04
254.401	42.32
254.618	46.42
254.835	3.41
255.051	68.95
255.268	-41.64
255.484	36.18
255.701	44.37
255.917	89.43
256.134	42.32
256.351	7.51
256.567	-2.73
256.784	56.66
257	34.13
257.217	56.66
257.433	40.28
257.65	50.52
257.866	38.23
258.082	48.47
258.299	85.33
258.515	54.61
258.732	87.38
258.948	-0.68
259.165	-23.21
259.381	46.42
259.597	48.47
259.814	56.66
260.03	13.65
260.246	-23.21
260.463	-21.16
260.679	21.85
260.895	19.8
261.112	71
261.328	77.14
261.544	71
261.761	42.32
261.977	81.24
262.193	40.28
262.409	-4.78
262.626	68.95
262.842	17.75
263.058	-19.11
263.274	27.99
263.49	85.33
263.707	46.42
263.923	118.1
264.139	34.13
264.355	27.99
264.571	73.04
264.787	38.23
265.004	30.04
265.22	48.47
265.436	32.08
265.652	3.41
265.868	-39.59
266.084	-2.73
266.3	-6.83
266.516	9.56
266.732	66.9
266.948	50.52
267.164	124.24
267.38	-4.78
267.596	25.94
267.812	52.56
268.028	64.85
268.244	27.99
268.46	15.7
268.676	21.85
268.892	-10.92
269.108	-23.21
269.324	11.61
269.54	-25.26
269.756	34.13
269.972	-10.92
270.188	21.85
270.403	-19.11
270.619	-12.97
270.835	36.18
271.051	85.33
271.267	11.61
271.483	32.08
271.698	40.28
271.914	-21.16
272.13	83.28
272.346	83.28
272.562	34.13
272.777	13.65
272.993	-12.97
273.209	25.94
273.425	-31.4
273.64	-6.83
273.856	56.66
274.072	23.89
274.287	58.71
274.503	105.81
274.719	58.71
274.934	44.37
275.15	3.41
275.366	140.63
275.581	-27.31
275.797	21.85
276.012	25.94
276.228	-68.27
276.444	13.65
276.659	54.61
276.875	21.85
277.09	71
277.306	71
277.521	-15.02
277.737	48.47
277.952	17.75
278.168	50.52
278.383	87.38
278.599	79.19
278.814	103.76
279.03	-27.31
279.245	46.42
279.461	17.75
279.676	36.18
279.892	52.56
280.107	64.85
280.322	13.65
280.538	46.42
280.753	5.46
280.969	64.85
281.184	91.48
281.399	114
281.615	30.04
281.83	38.23
282.045	1.37
282.26	48.47
282.476	11.61
282.691	52.56
282.906	-8.87
283.122	9.56
283.337	36.18
283.552	42.32
283.767	58.71
283.983	38.23
284.198	54.61
284.413	3.41
284.628	30.04
284.843	44.37
285.058	87.38
285.274	-29.35
285.489	91.48
285.704	87.38
285.919	-4.78
286.134	60.76
286.349	62.8
286.564	25.94
286.779	95.57
286.995	13.65
287.21	87.38
287.425	50.52
287.64	-8.87
287.855	-2.73
288.07	-41.64
288.285	77.14
288.5	54.61
288.715	17.75
288.93	-6.83
289.145	101.72
289.36	52.56
289.575	58.71
289.79	44.37
290.004	-6.83
290.219	62.8
290.434	-6.83
290.649	-8.87
290.864	32.08
291.079	21.85
291.294	-4.78
291.509	36.18
291.724	44.37
291.938	50.52
292.153	62.8
292.368	68.95
292.583	60.76
292.798	118.1
293.012	5.46
293.227	48.47
293.442	32.08
293.657	-10.92
293.871	11.61
294.086	30.04
294.301	25.94
294.516	46.42
294.73	56.66
294.945	25.94
295.16	38.23
295.374	75.09
295.589	48.47
295.804	27.99
296.018	-23.21
296.233	40.28
296.447	81.24
296.662	54.61
296.877	38.23
297.091	75.09
297.306	38.23
297.52	42.32
297.735	71
297.949	-10.92
298.164	105.81
298.378	71
298.593	3.41
298.807	13.65
299.022	30.04
299.236	54.61
299.451	32.08
299.665	50.52
299.88	11.61
300.094	54.61
300.309	44.37
300.523	23.89
300.737	81.24
300.952	54.61
301.166	13.65
301.381	9.56
301.595	77.14
301.809	17.75
302.024	79.19
302.238	1.37
302.452	27.99
302.667	44.37
302.881	105.81
303.095	58.71
303.309	-15.02
303.524	66.9
303.738	-10.92
303.952	50.52
304.166	64.85
304.381	64.85
304.595	64.85
304.809	17.75
305.023	97.62
305.237	52.56
305.452	30.04
305.666	105.81
305.88	105.81
306.094	23.89
306.308	1.37
306.522	25.94
306.736	38.23
306.95	-29.35
307.164	73.04
307.379	73.04
307.593	-4.78
307.807	91.48
308.021	-6.83
308.235	-15.02
308.449	46.42
308.663	73.04
308.877	99.67
309.091	71
309.305	3.41
309.519	-33.45
309.733	44.37
309.947	7.51
310.161	-4.78
310.374	3.41
310.588	73.04
310.802	5.46
311.016	19.8
311.23	-8.87
311.444	-15.02
311.658	-33.45
311.872	136.53
312.085	23.89
312.299	122.2
312.513	60.76
312.727	15.7
312.941	17.75
313.154	-2.73
313.368	93.52
313.582	42.32
313.796	73.04
314.009	60.76
314.223	56.66
314.437	68.95
314.651	30.04
314.864	25.94
315.078	25.94
315.292	87.38
315.505	-15.02
315.719	107.86
315.933	77.14
316.146	27.99
316.36	54.61
316.573	3.41
316.787	87.38
317.001	36.18
317.214	60.76
317.428	13.65
317.641	-64.17
317.855	25.94
318.068	-10.92
318.282	52.56
318.495	93.52
318.709	44.37
318.922	81.24
319.136	85.33
319.349	77.14
319.563	-31.4
319.776	44.37
319.99	75.09
320.203	-4.78
320.417	50.52
320.63	17.75
320.843	73.04
321.057	75.09
321.27	-23.21
321.483	81.24
321.697	105.81
321.91	30.04
322.124	-0.68
322.337	48.47
322.55	48.47
322.763	36.18
322.977	60.76
323.19	1.37
323.403	25.94
323.617	30.04
323.83	44.37
324.043	56.66
324.256	126.29
324.469	64.85
324.683	114
324.896	21.85
325.109	101.72
325.322	27.99
325.535	101.72
325.748	13.65
325.962	-29.35
326.175	13.65
326.388	15.7
326.601	32.08
326.814	25.94
327.027	-2.73
327.24	103.76
327.453	64.85
327.666	23.89
327.879	9.56
328.092	54.61
328.305	15.7
328.518	27.99
328.731	58.71
328.944	44.37
329.157	109.91
329.37	89.43
329.583	60.76
329.796	30.04
330.009	11.61
330.222	7.51
330.435	77.14
330.648	38.23
330.861	15.7
331.073	40.28
331.286	-8.87
331.499	87.38
331.712	-15.02
331.925	36.18
332.138	56.66
332.35	126.29
332.563	-51.88
332.776	7.51
332.989	30.04
333.202	-15.02
333.414	124.24
333.627	58.71
333.84	48.47
334.053	23.89
334.265	50.52
334.478	1.37
334.691	105.81
334.903	54.61
335.116	50.52
335.329	40.28
335.541	21.85
335.754	48.47
335.966	-15.02
336.179	-10.92
336.392	40.28
336.604	19.8
336.817	-29.35
337.029	54.61
337.242	21.85
337.454	73.04
337.667	36.18
337.88	109.91
338.092	44.37
338.305	60.76
338.517	71
338.729	66.9
338.942	91.48
339.154	64.85
339.367	23.89
339.579	7.51
339.792	58.71
340.004	13.65
340.217	132.44
340.429	66.9
340.641	23.89
340.854	79.19
341.066	11.61
341.278	5.46
341.491	52.56
341.703	3.41
341.915	9.56
342.128	30.04
342.34	71
342.552	66.9
342.764	99.67
342.977	30.04
343.189	27.99
343.401	46.42
343.613	-43.69
343.826	-8.87
344.038	46.42
344.25	-23.21
344.462	60.76
344.674	87.38
344.886	81.24
345.099	95.57
345.311	-0.68
345.523	30.04
345.735	87.38
345.947	64.85
346.159	21.85
346.371	91.48
346.583	83.28
346.795	27.99
347.007	23.89
347.219	32.08
347.431	34.13
347.643	105.81
347.855	42.32
348.067	50.52
348.279	-23.21
348.491	-4.78
348.703	-41.64
348.915	17.75
349.127	79.19
349.339	36.18
349.551	9.56
349.763	66.9
349.975	9.56
350.187	23.89
350.399	11.61
350.61	54.61
350.822	-31.4
351.034	60.76
351.246	73.04
351.458	75.09
351.669	13.65
351.881	44.37
352.093	46.42
352.305	87.38
352.517	107.86
352.728	46.42
352.94	73.04
353.152	-6.83
353.363	1.37
353.575	50.52
353.787	44.37
353.999	-12.97
354.21	-6.83
354.422	89.43
354.633	50.52
354.845	83.28
355.057	56.66
355.268	68.95
355.48	15.7
355.692	68.95
355.903	44.37
356.115	44.37
356.326	46.42
356.538	54.61
356.749	62.8
356.961	48.47
357.172	66.9
357.384	21.85
357.595	68.95
357.807	42.32
358.018	42.32
358.23	23.89
358.441	42.32
358.653	40.28
358.864	27.99
359.075	-37.55
359.287	93.52
359.498	34.13
359.709	52.56
359.921	73.04
360.132	40.28
360.344	38.23
360.555	-0.68
360.766	1.37
360.977	68.95
361.189	17.75
361.4	44.37
361.611	109.91
361.823	50.52
362.034	7.51
362.245	-12.97
362.456	48.47
362.667	62.8
362.879	52.56
363.09	52.56
363.301	77.14
363.512	95.57
363.723	71
363.935	97.62
364.146	66.9
364.357	-45.74
364.568	15.7
364.779	48.47
364.99	36.18
365.201	23.89
365.412	27.99
365.623	89.43
365.834	62.8
366.045	-0.68
366.256	62.8
366.467	32.08
366.678	97.62
366.889	40.28
367.1	46.42
367.311	5.46
367.522	81.24
367.733	83.28
367.944	-41.64
368.155	64.85
368.366	99.67
368.577	46.42
368.788	68.95
368.999	58.71
369.209	75.09
369.42	116.05
369.631	3.41
369.842	109.91
370.053	93.52
370.264	75.09
370.474	64.85
370.685	-17.07
370.896	52.56
371.107	15.7
371.317	118.1
371.528	-2.73
371.739	58.71
371.95	1.37
372.16	89.43
372.371	3.41
372.582	34.13
372.792	19.8
373.003	-15.02
373.214	36.18
373.424	68.95
373.635	40.28
373.846	19.8
374.056	48.47
374.267	58.71
374.477	71
374.688	93.52
374.898	46.42
375.109	87.38
375.319	19.8
375.53	9.56
375.74	48.47
375.951	54.61
376.161	27.99
376.372	91.48
376.582	105.81
376.793	87.38
377.003	23.89
377.214	73.04
377.424	15.7
377.635	-2.73
377.845	60.76
378.055	30.04
378.266	30.04
378.476	25.94
378.686	9.56
378.897	105.81
379.107	85.33
379.317	19.8
379.528	50.52
379.738	107.86
379.948	-45.74
380.158	54.61
380.369	38.23
380.579	-0.68
380.789	5.46
380.999	128.34
381.21	54.61
381.42	101.72
381.63	21.85
381.84	-8.87
382.05	23.89
382.261	36.18
382.471	36.18
382.681	52.56
382.891	103.76
383.101	64.85
383.311	54.61
383.521	95.57
383.731	83.28
383.941	54.61
384.151	56.66
384.361	71
384.571	1.37
384.781	36.18
384.991	73.04
385.201	52.56
385.411	36.18
385.621	142.68
385.831	107.86
386.041	-43.69
386.251	91.48
386.461	79.19
386.671	13.65
386.881	54.61
387.091	52.56
387.301	17.75
387.511	46.42
387.72	46.42
387.93	21.85
388.14	30.04
388.35	46.42
388.56	114
388.769	99.67
388.979	42.32
389.189	32.08
389.399	91.48
389.609	50.52
389.818	15.7
390.028	11.61
390.238	-35.5
390.447	30.04
390.657	50.52
390.867	40.28
391.076	64.85
391.286	19.8
391.496	120.15
391.705	25.94
391.915	89.43
392.125	38.23
392.334	50.52
392.544	75.09
392.753	87.38
392.963	79.19
393.172	126.29
393.382	40.28
393.591	103.76
393.801	30.04
394.01	75.09
394.22	23.89
394.429	68.95
394.639	52.56
394.848	-0.68
395.058	54.61
395.267	60.76
395.477	23.89
395.686	97.62
395.895	62.8
396.105	99.67
396.314	132.44
396.524	62.8
396.733	77.14
396.942	146.77
397.152	111.96
397.361	87.38
397.57	-8.87
397.78	128.34
397.989	126.29
398.198	130.39
398.407	91.48
398.617	77.14
398.826	159.06
399.035	150.87
399.244	73.04
399.453	126.29
399.663	77.14
399.872	109.91
400.081	48.47
400.29	62.8
400.499	95.57
400.708	73.04
400.917	71
401.127	189.78
401.336	101.72
401.545	19.8
401.754	132.44
401.963	93.52
402.172	44.37
402.381	75.09
402.59	48.47
402.799	85.33
403.008	83.28
403.217	81.24
403.426	132.44
403.635	77.14
403.844	89.43
404.053	27.99
404.262	32.08
404.471	154.96
404.68	97.62
404.888	95.57
405.097	97.62
405.306	89.43
405.515	50.52
405.724	68.95
405.933	138.58
406.142	77.14
406.35	165.2
406.559	181.59
406.768	132.44
406.977	224.59
407.185	101.72
407.394	161.11
407.603	159.06
407.812	148.82
408.02	157.01
408.229	216.4
408.438	154.96
408.646	195.92
408.855	154.96
409.064	224.59
409.272	187.73
409.481	214.35
409.69	249.17
409.898	238.93
410.107	165.2
410.315	222.55
410.524	296.27
410.733	185.68
410.941	261.46
411.15	267.6
411.358	189.78
411.567	202.07
411.775	281.94
411.984	288.08
412.192	238.93
412.401	228.69
412.609	341.33
412.818	394.58
413.026	271.7
413.234	382.29
413.443	382.29
413.651	343.38
413.86	304.46
414.068	357.71
414.276	443.73
414.485	462.16
414.693	372.05
414.901	490.83
415.11	499.02
415.318	439.63
415.526	486.73
415.734	451.92
415.943	542.03
416.151	554.32
416.359	513.36
416.567	638.28
416.776	611.66
416.984	673.1
417.192	640.33
417.4	644.43
417.608	699.72
417.817	736.59
418.025	660.81
418.233	767.31
418.441	759.11
418.649	773.45
418.857	857.42
419.065	867.66
419.273	818.5
419.481	951.62
419.689	939.33
419.897	955.72
420.105	1047.88
420.313	980.29
420.521	1013.06
420.729	1062.21
420.937	1127.75
421.145	1129.8
421.353	1150.28
421.561	1289.54
421.769	1271.11
421.977	1400.13
422.185	1359.17
422.393	1525.05
422.601	1514.81
422.809	1420.61
423.017	1537.34
423.224	1506.62
423.432	1674.56
423.64	1647.93
423.848	1803.58
424.056	1748.28
424.263	1897.78
424.471	1905.98
424.679	1938.74
424.887	2127.16
425.094	2172.21
425.302	2039.09
425.51	2118.97
425.718	2286.9
425.925	2237.75
426.133	2362.67
426.341	2368.82
426.548	2559.28
426.756	2612.53
426.964	2563.37
427.171	2667.82
427.379	2977.06
427.586	2907.43
427.794	2870.57
428.001	3083.56
428.209	3263.78
428.417	3136.81
428.624	3400.99
428.832	3417.38
429.039	3450.14
429.247	3452.19
429.454	3626.27
429.662	3847.45
429.869	3726.62
430.076	3810.59
430.284	3925.27
430.491	3892.51
430.699	4224.28
430.906	4295.96
431.114	4338.96
431.321	4474.13
431.528	4652.3
431.736	4812.04
431.943	4992.27
432.15	4908.3
432.358	4881.67
432.565	5020.94
432.772	5274.88
432.979	5426.43
433.187	5664
433.394	5569.79
433.601	6051.06
433.808	5926.14
434.016	5985.53
434.223	6126.84
434.43	6587.63
434.637	6440.18
434.844	6651.12
435.052	6876.4
435.259	6989.03
435.466	6774
435.673	6720.75
435.88	7437.54
436.087	7599.33
436.294	7544.03
436.501	7460.07
436.708	7877.85
436.915	8035.55
437.122	8195.29
437.329	8256.73
437.537	8500.44
437.743	8692.94
437.95	8731.86
438.157	9211.08
438.364	9223.37
438.571	9348.29
438.778	9497.8
438.985	10347.7
439.192	9727.17
439.399	10228.92
439.606	10022.08
439.813	10480.82
440.02	11170.99
440.227	10878.13
440.433	10935.47
440.64	11439.27
440.847	11230.38
441.054	11435.17
441.261	12262.55
441.467	11959.45
441.674	12285.08
441.881	12633.24
442.088	12680.34
442.294	12600.47
442.501	12835.99
442.708	13255.82
442.914	13640.84
443.121	14431.35
443.328	14087.29
443.534	14867.57
443.741	14150.78
443.948	14169.21
444.154	15219.82
444.361	15268.97
444.568	15322.22
444.774	15273.07
444.981	15496.3
445.187	15860.84
445.394	16675.93
445.6	16618.58
445.807	18201.66
446.013	17226.83
446.22	17415.24
446.426	18250.81
446.633	18482.24
446.839	19409.97
447.046	18287.68
447.252	19141.68
447.459	19123.25
447.665	18945.08
447.871	19907.62
448.078	20962.33
448.284	19848.23
448.491	20366.37
448.697	21322.77
448.903	21644.3
449.11	21378.06
449.316	21548.04
449.522	21505.04
449.728	22215.68
449.935	22146.05
450.141	22465.53
450.347	22881.27
450.553	22094.85
450.76	22727.67
450.966	23239.67
451.172	22713.34
451.378	23348.21
451.584	23106.55
451.791	23421.94
451.997	23477.23
452.203	23923.69
452.409	23661.55
452.615	23618.54
452.821	22694.91
453.027	22504.45
453.233	23567.34
453.44	22940.66
453.646	22932.47
453.852	23069.69
454.058	23407.6
454.264	22377.47
454.47	23411.7
454.676	22737.91
454.882	23313.39
455.088	21130.26
455.294	21269.52
455.5	21900.3
455.705	22047.75
455.911	21160.98
456.117	20683.8
456.323	20524.06
456.529	19377.2
456.735	20153.38
456.941	19592.23
457.147	19319.85
457.352	18771
457.558	18371.64
457.764	18662.46
457.97	18084.93
458.176	17861.7
458.381	17751.11
458.587	16880.72
458.793	17155.15
458.999	16208.99
459.204	17286.22
459.41	16628.82
459.616	15510.63
459.821	15719.53
460.027	15658.09
460.233	15316.08
460.438	14646.39
460.644	14675.06
460.85	13855.87
461.055	14007.42
461.261	13825.15
461.466	12749.97
461.672	12342.42
461.878	13200.52
462.083	12463.26
462.289	11984.03
462.494	12063.9
462.7	11592.87
462.905	11105.45
463.111	11517.09
463.316	11754.66
463.522	11472.04
463.727	11418.79
463.932	11521.19
464.138	11191.47
464.343	11410.6
464.549	10919.09
464.754	11107.5
464.959	11187.37
465.165	11261.1
465.37	10742.96
465.575	10714.29
465.781	11011.25
465.986	10906.8
466.191	10441.91
466.397	10357.94
466.602	9952.45
466.807	10261.69
467.012	10259.64
467.218	10200.25
467.423	9893.05
467.628	10329.27
467.833	10536.12
468.038	10198.2
468.244	9827.52
468.449	10335.42
468.654	10040.51
468.859	9901.25
469.064	9817.28
469.269	9344.2
469.474	9493.7
469.679	9774.27
469.885	9260.23
470.09	9501.89
470.295	9379.01
470.5	9166.03
470.705	9438.41
470.91	8981.71
471.115	9043.15
471.32	9204.94
471.525	9061.58
471.73	8967.37
471.935	8899.79
472.139	8518.87
472.344	8715.47
472.549	8586.45
472.754	8428.76
472.959	8309.97
473.164	8072.41
473.369	8125.66
473.574	8289.49
473.778	8174.81
473.983	8223.96
474.188	8150.23
474.393	7638.24
474.598	7937.24
474.802	7531.75
475.007	7851.23
475.212	7777.5
475.417	7498.98
475.621	7363.81
475.826	7435.49
476.031	7304.42
476.235	7202.02
476.44	7240.93
476.645	7167.21
476.849	7214.31
477.054	7056.62
477.259	7101.67
477.463	6907.12
477.668	6757.61
477.872	6870.25
478.077	6505.71
478.282	6759.66
478.486	6452.47
478.691	6382.84
478.895	6528.24
479.1	6370.55
479.304	6573.3
479.509	6225.14
479.713	6458.61
479.918	6239.48
480.122	6114.55
480.326	6061.3
480.531	6337.78
480.735	6206.71
480.94	6159.61
481.144	6360.31
481.348	6096.12
481.553	6018.3
481.757	5922.04
481.961	6081.78
482.166	6096.12
482.37	6235.38
482.574	5934.33
482.778	6055.16
482.983	6116.6
483.187	5958.91
483.391	6141.18
483.595	5893.37
483.8	6026.49
484.004	6003.96
484.208	6077.69
484.412	6055.16
484.616	6175.99
484.821	5915.9
485.025	5946.62
485.229	6014.2
485.433	5854.46
485.637	6186.23
485.841	5844.22
486.045	5985.53
486.249	5842.17
486.453	5958.91
486.657	6079.74
486.861	5870.84
487.065	6014.2
487.269	5889.28
487.473	5868.8
487.677	6108.41
487.881	5948.67
488.085	5997.82
488.289	6126.84
488.493	5991.67
488.697	5963
488.901	6001.91
489.105	6016.25
489.309	6100.22
489.512	6069.5
489.716	6124.79
489.92	6067.45
490.124	6063.35
490.328	6128.89
490.531	6225.14
490.735	6180.09
490.939	6196.47
491.143	6087.93
491.346	6327.54
491.55	6323.44
491.754	6470.9
491.958	6309.11
492.161	6255.86
492.365	6487.28
492.569	6595.82
492.772	6409.46
492.976	6407.41
493.18	6587.63
493.383	6610.16
493.587	6550.77
493.79	6698.22
493.994	6550.77
494.197	6606.06
494.401	6890.73
494.605	6870.25
494.808	6925.55
495.012	6888.68
495.215	6968.55
495.419	7003.37
495.622	6968.55
495.825	7206.12
496.029	7195.88
496.232	7318.76
496.436	7335.14
496.639	7511.27
496.843	7398.63
497.046	7539.94
497.249	7595.23
497.453	7808.22
497.656	7806.17
497.859	7840.99
498.063	7947.48
498.266	7906.52
498.469	8103.13
498.673	8293.59
498.876	8277.21
499.079	8498.39
499.282	8185.05
499.485	8649.94
499.689	8629.46
499.892	8867.02
500.095	8770.77
500.298	9034.96
500.501	8832.21
500.705	9245.9
500.908	9450.69
501.111	9391.3
501.314	9620.67
501.517	9592
501.72	9757.89
501.923	9604.29
502.126	10058.94
502.329	10083.52
502.532	10091.71
502.735	10249.4
502.938	10507.44
503.141	10597.56
503.344	10722.48
503.547	10898.61
503.75	11103.4
503.953	11295.91
504.156	11238.57
504.359	11297.96
504.562	11519.14
504.765	11674.79
504.968	11969.69
505.17	12049.57
505.373	12072.09
505.576	12375.19
505.779	12471.45
505.982	12545.17
506.185	12995.73
506.387	12752.02
506.59	13081.74
506.793	13431.94
506.996	13200.52
507.198	13710.47
507.401	13345.93
507.604	13819.01
507.807	14230.65
508.009	14089.34
508.212	14607.48
508.415	14736.5
508.617	14963.82
508.82	14984.3
509.022	14756.98
509.225	15365.23
509.428	15524.97
509.63	15598.7
509.833	15678.57
510.035	16348.25
510.238	16174.17
510.44	16548.95
510.643	16921.68
510.845	16731.22
511.048	16907.35
511.25	17294.41
511.453	17273.93
511.655	17835.08
511.858	17749.06
512.06	17880.13
512.262	18443.32
512.465	18103.36
512.667	18893.88
512.87	18951.22
513.072	18965.56
513.274	19315.76
513.477	19708.97
513.679	19911.72
513.881	19997.73
514.084	20450.33
514.286	20276.26
514.488	20247.58
514.69	21122.07
514.893	21357.58
515.095	21447.69
515.297	21941.25
515.499	21863.43
515.701	22146.05
515.904	22535.17
516.106	22760.44
516.308	22883.32
516.51	23315.44
516.712	23315.44
516.914	23682.03
517.116	24118.25
517.318	24146.92
517.52	24300.51
517.722	24243.17
517.925	24785.88
518.127	25234.39
518.329	25404.37
518.531	25455.57
518.733	25865.16
518.935	26057.67
519.136	26317.76
519.338	27007.93
519.54	27012.03
519.742	27040.7
519.944	27308.98
520.146	27743.15
520.348	28119.98
520.55	28150.7
520.752	28380.07
520.954	28896.16
521.155	28867.48
521.357	29408.15
521.559	29827.98
521.761	29991.82
521.963	30223.24
522.164	30253.96
522.366	30933.89
522.568	30839.68
522.77	30643.07
522.971	31511.41
523.173	31155.07
523.375	32039.79
523.576	31984.49
523.778	32033.64
523.98	32441.19
524.181	32496.49
524.383	32994.14
524.584	32938.85
524.786	32938.85
524.988	33157.98
525.189	33409.88
525.391	33975.12
525.592	33921.87
525.794	34474.82
525.995	34229.07
526.197	34493.25
526.398	34433.86
526.6	34708.29
526.801	35232.57
527.003	35015.49
527.204	35294.01
527.406	35902.26
527.607	35670.84
527.808	36326.19
528.01	35445.56
528.211	36031.28
528.412	36617
528.614	36690.73
528.815	36293.42
529.016	36606.76
529.218	36236.08
529.419	37116.7
529.62	36889.38
529.822	36705.06
530.023	37057.31
530.224	37247.77
530.425	36868.9
530.626	36993.82
530.828	37161.76
531.029	37571.35
531.23	37516.06
531.431	37409.56
531.632	37620.5
531.833	37794.58
532.035	37530.39
532.236	37899.03
532.437	37974.8
532.638	37573.4
532.839	37702.42
533.04	38523.66
533.241	37630.74
533.442	38470.41
533.643	37972.75
533.844	38212.37
534.045	38269.71
534.246	38026
534.447	38509.32
534.648	38390.54
534.849	38185.74
535.05	38034.19
535.251	38230.8
535.451	38546.19
535.652	38511.37
535.853	38456.07
536.054	38302.48
536.255	38593.29
536.456	38603.53
536.657	38771.46
536.857	38556.42
537.058	38390.54
537.259	38607.62
537.46	38963.97
537.66	38058.77
537.861	38595.34
538.062	38847.24
538.263	38939.4
538.463	38515.47
538.664	38431.5
538.865	38607.62
539.065	38925.06
539.266	38359.82
539.466	38955.78
539.667	38087.44
539.868	39037.7
540.068	38726.41
540.269	38226.7
540.469	38953.73
540.67	38179.6
540.87	38619.91
541.071	38429.45
541.271	38664.97
541.472	38617.86
541.672	38613.77
541.873	38554.38
542.073	37948.18
542.274	38894.34
542.474	38486.79
542.675	38071.06
542.875	38564.62
543.075	38556.42
543.276	38460.17
543.476	38699.78
543.676	38431.5
543.877	38609.67
544.077	38763.27
544.277	38585.1
544.478	38263.57
544.678	38593.29
544.878	38673.16
545.078	38570.76
545.279	38505.23
545.479	38265.61
545.679	38646.54
545.879	38683.4
546.079	38583.05
546.28	38669.06
546.48	38427.4
546.68	38636.3
546.88	38685.45
547.08	38511.37
547.28	38689.54
547.48	38185.74
547.68	38435.59
547.88	38558.47
548.081	38961.92
548.281	38644.49
548.481	38351.63
548.681	38566.66
548.881	38392.59
549.081	38544.14
549.28	38292.24
549.48	38427.4
549.68	38474.51
549.88	38863.62
550.08	38359.82
550.28	38556.42
550.48	38548.23
550.68	38818.56
550.88	38077.2
551.08	38583.05
551.279	38595.34
551.479	38337.29
551.679	38370.06
551.879	38480.65
552.079	38773.51
552.278	38257.42
552.478	38290.19
552.678	38415.12
552.878	38863.62
553.077	38304.52
553.277	38109.97
553.477	38546.19
553.676	38243.09
553.876	38001.43
554.076	37972.75
554.275	38464.27
554.475	37624.6
554.674	38163.21
554.874	38310.67
555.074	37958.42
555.273	38062.86
555.473	38202.13
555.672	38101.78
555.872	38011.67
556.071	37782.29
556.271	37614.36
556.47	37765.91
556.67	37606.17
556.869	37477.15
557.068	37888.79
557.268	37798.68
557.467	37335.84
557.667	37550.87
557.866	37311.26
558.065	37821.2
558.265	37045.02
558.464	37161.76
558.663	37364.51
558.863	36776.74
559.062	37483.29
559.261	36932.39
559.461	37301.02
559.66	36541.22
559.859	37004.06
560.058	36918.05
560.258	37241.63
560.457	36561.7
560.656	37008.16
560.855	36686.63
561.054	36969.25
561.253	36551.46
561.453	36492.07
561.652	36877.09
561.851	36610.85
562.05	36649.77
562.249	36256.56
562.448	36580.14
562.647	36420.39
562.846	36381.48
563.045	35834.67
563.244	35812.15
563.443	36358.95
563.642	35838.77
563.841	36281.13
564.04	35550.01
564.239	36145.97
564.438	35867.44
564.637	35777.33
564.836	35906.35
565.035	35494.71
565.234	35836.72
565.432	35443.51
565.631	35713.84
565.83	35588.92
566.029	35496.76
566.228	35271.48
566.427	35265.34
566.625	35001.15
566.824	34597.7
567.023	34839.36
567.222	34403.14
567.42	34773.83
567.619	35011.39
567.818	34657.09
568.016	34351.95
568.215	35015.49
568.414	34319.18
568.612	34603.85
568.811	34263.88
569.01	34356.04
569.208	33946.45
569.407	34503.49
569.605	33545.05
569.804	34005.84
570.002	33653.59
570.201	34009.93
570.4	33479.51
570.598	33358.68
570.797	33409.88
570.995	33631.06
571.193	33174.36
571.392	33555.29
571.59	33028.96
571.789	33059.68
571.987	33026.91
572.186	32574.31
572.384	32090.99
572.582	32633.7
572.781	32648.04
572.979	32088.94
573.177	32439.14
573.376	32420.71
573.574	32183.15
573.772	32136.04
573.971	31818.61
574.169	31820.66
574.367	31288.18
574.565	31484.79
574.763	31740.78
574.962	31595.38
575.16	31015.8
575.358	31312.76
575.556	31171.45
575.754	31300.47
575.952	30772.1
576.151	31054.72
576.349	30469
576.547	31001.47
576.745	31085.43
576.943	30415.75
577.141	30456.71
577.339	30567.3
577.537	30417.8
577.735	30213
577.933	29932.43
578.131	30100.36
578.329	29758.35
578.527	29891.47
578.725	30372.74
578.923	29600.66
579.121	29567.89
579.319	29586.32
579.516	29653.9
579.714	29340.57
579.912	29307.8
580.11	28992.41
580.308	28869.53
580.506	29053.85
580.704	28103.59
580.901	29162.39
581.099	28902.3
581.297	28390.31
581.495	28947.36
581.692	28449.7
581.89	28062.63
582.088	28441.51
582.285	28324.77
582.483	28189.61
582.681	27974.57
582.878	27935.66
583.076	27734.96
583.274	27894.7
583.471	27272.12
583.669	27833.26
583.866	27282.36
584.064	27331.51
584.262	27093.94
584.459	27564.98
584.657	27087.8
584.854	27534.26
585.052	26954.68
585.249	26887.1
585.447	27048.89
585.644	27005.88
585.841	26997.69
586.039	26981.31
586.236	26676.16
586.434	26622.91
586.631	26538.94
586.828	26239.94
587.026	26432.45
587.223	26356.68
587.42	26031.05
587.618	26145.73
587.815	26055.62
588.012	25865.16
588.21	25738.19
588.407	25897.93
588.604	25615.31
588.801	25418.71
588.999	25658.32
589.196	25711.56
589.393	25588.69
589.59	25328.59
589.787	25234.39
589.984	25187.28
590.182	24792.03
590.379	25076.69
590.576	24640.48
590.773	24890.33
590.97	24845.27
591.167	24937.43
591.364	24484.83
591.561	24589.28
591.758	24320.99
591.955	24493.02
592.152	24644.57
592.349	24239.08
592.546	24452.06
592.743	24456.16
592.94	24142.82
593.137	23839.72
593.334	24048.61
593.531	23770.09
593.727	23575.53
593.924	23911.4
594.121	23819.24
594.318	23788.52
594.515	23423.98
594.712	23294.96
594.908	23628.78
595.105	23462.9
595.302	23186.42
595.499	23174.13
595.696	23428.08
595.892	23030.77
596.089	22955
596.286	23075.83
596.482	23030.77
596.679	22965.24
596.876	22938.62
597.072	22457.34
597.269	22823.93
597.466	22686.72
597.662	22473.73
597.859	22733.82
598.055	22721.53
598.252	22348.8
598.448	22318.08
598.645	22084.61
598.841	21953.54
599.038	22367.23
599.234	22135.81
599.431	21715.98
599.627	21799.94
599.824	22035.46
600.02	21922.82
600.217	21699.59
600.413	21459.98
600.609	21449.74
600.806	21451.79
601.002	21478.41
601.198	21373.97
601.395	21355.54
601.591	21320.72
601.787	21363.73
601.984	21402.64
602.18	21189.65
602.376	20935.7
602.572	20902.93
602.769	21062.68
602.965	20835.35
603.161	20763.67
603.357	20653.08
603.553	20501.53
603.75	20694.04
603.946	20278.3
604.142	20479
604.338	20093.99
604.534	20173.86
604.73	19954.72
604.926	19960.87
605.122	20182.05
605.318	19987.49
605.514	19739.69
605.71	19471.4
605.906	19827.75
606.102	19565.61
606.298	19416.11
606.494	19559.47
606.69	19305.52
606.886	19506.22
607.082	19002.42
607.278	19526.7
607.474	19137.59
607.67	19348.53
607.866	18877.49
608.062	19278.9
608.257	19153.97
608.453	18873.4
608.649	18998.32
608.845	18756.66
609.041	18715.7
609.236	18588.73
609.432	18488.38
609.628	18431.04
609.824	18437.18
610.019	18512.95
610.215	18263.1
610.411	18596.92
610.606	18224.19
610.802	18181.18
610.998	18144.32
611.193	18226.24
611.389	18238.53
611.584	17851.46
611.78	18013.25
611.976	17851.46
612.171	17779.78
612.367	17773.64
612.562	17552.46
612.758	17427.53
612.953	17460.3
613.149	17517.64
613.344	17513.55
613.539	17435.72
613.735	17294.41
613.93	17579.08
614.126	17507.4
614.321	17351.76
614.517	17431.63
614.712	17024.08
614.907	17429.58
615.103	17587.27
615.298	17058.9
615.493	17169.49
615.688	17009.75
615.884	17294.41
616.079	16942.16
616.274	16790.61
616.47	16915.54
616.665	16946.26
616.86	16950.35
617.055	16831.57
617.25	16917.59
617.445	16680.02
617.641	16518.23
617.836	16512.09
618.031	16485.47
618.226	16458.84
618.421	16344.16
618.616	16249.95
618.811	15981.67
619.006	16262.24
619.201	15901.79
619.396	16090.21
619.591	16135.26
619.786	15883.36
619.981	15780.96
620.176	15905.89
620.371	15420.52
620.566	15723.62
620.761	15527.02
620.956	15701.09
621.151	15256.68
621.346	15168.62
621.541	15299.69
621.735	15037.55
621.93	14902.39
622.125	14990.45
622.32	14777.46
622.515	14992.5
622.709	14765.17
622.904	14664.82
623.099	14451.83
623.294	14546.04
623.488	14402.68
623.683	14519.42
623.878	14171.26
624.072	14328.95
624.267	14226.56
624.462	14374.01
624.656	13913.22
624.851	13874.31
625.046	13745.28
625.24	13581.45
625.435	13390.98
625.629	13759.62
625.824	13573.25
626.018	13343.88
626.213	13085.84
626.407	13321.35
626.602	12991.63
626.796	12893.33
626.991	12979.34
627.185	12766.35
627.38	12979.34
627.574	12833.94
627.768	12739.73
627.963	12846.23
628.157	12453.02
628.352	12623
628.546	12422.3
628.74	12682.39
628.935	12430.49
629.129	12344.47
629.323	12113.05
629.517	12100.76
629.712	12176.54
629.906	12037.28
630.1	11768.99
630.294	11936.93
630.489	11822.24
630.683	11906.21
630.877	11406.5
631.071	11703.46
631.265	11682.98
631.459	11742.37
631.653	11740.32
631.848	11359.4
632.042	11383.98
632.236	11347.11
632.43	11056.3
632.624	11140.27
632.818	11248.81
633.012	10837.17
633.206	11015.34
633.4	11029.68
633.594	11039.92
633.788	10896.56
633.982	10874.03
634.176	10611.89
634.369	10593.46
634.563	10724.53
634.757	10345.66
634.951	10398.9
635.145	10486.97
635.339	10579.12
635.533	10325.18
635.726	10491.06
635.92	10206.39
636.114	10104
636.308	10228.92
636.501	10235.07
636.695	10060.99
636.889	10083.52
637.083	9893.05
637.276	9985.21
637.47	10030.27
637.664	9798.85
637.857	9653.44
638.051	9571.52
638.244	9678.02
638.438	9559.24
638.632	9540.8
638.825	9411.78
639.019	9471.17
639.212	9338.05
639.406	9264.33
639.599	9233.61
639.793	9325.77
639.986	9190.6
640.18	9047.24
640.373	9168.07
640.567	8959.18
640.76	8883.41
640.954	9082.06
641.147	8928.46
641.34	8942.8
641.534	8926.41
641.727	8805.58
641.92	8764.62
642.114	8664.27
642.307	8764.62
642.5	8535.25
642.694	8492.24
642.887	8381.65
643.08	8500.44
643.273	8266.97
643.467	8346.84
643.66	8148.19
643.853	8021.21
644.046	8156.38
644.239	8115.42
644.432	8010.97
644.626	7884
644.819	7996.64
645.012	7838.94
645.205	7840.99
645.398	7955.68
645.591	7750.88
645.784	7779.55
645.977	7605.47
646.17	7724.26
646.363	7464.16
646.556	7439.59
646.749	7380.2
646.942	7429.35
647.135	7378.15
647.328	7197.93
647.521	7285.99
647.714	7230.7
647.907	7152.87
648.099	7167.21
648.292	7029.99
648.485	7017.71
648.678	7015.66
648.871	6749.42
649.064	6999.27
649.256	6841.58
649.449	7005.42
649.642	6710.51
649.835	6890.73
650.027	6620.4
650.22	6812.91
650.413	6733.04
650.605	6509.81
650.798	6489.33
650.991	6499.57
651.183	6358.26
651.376	6245.62
651.568	6395.12
651.761	6282.49
651.954	6341.88
652.146	6288.63
652.339	6175.99
652.531	6266.1
652.724	6214.9
652.916	5954.81
653.109	6014.2
653.301	6049.02
653.494	6010.11
653.686	5840.12
653.879	6001.91
654.071	5960.95
654.263	5760.25
654.456	5815.55
654.648	5750.01
654.84	5776.64
655.033	5649.66
655.225	5727.49
655.417	5608.7
655.61	5571.84
655.802	5424.39
655.994	5571.84
656.186	5557.5
656.379	5369.09
656.571	5358.85
656.763	5301.51
656.955	5326.08
657.148	5289.22
657.34	5289.22
657.532	5217.54
657.724	5321.99
657.916	5068.04
658.108	5041.42
658.3	4947.21
658.492	5006.6
658.684	5033.22
658.876	4994.31
659.068	4787.47
659.26	4773.13
659.452	4918.54
659.644	4785.42
659.836	4775.18
660.028	4832.52
660.22	4764.94
660.412	4807.95
660.604	4660.49
660.796	4721.93
660.988	4654.35
661.18	4617.49
661.372	4494.61
661.563	4353.3
661.755	4402.45
661.947	4384.02
662.139	4443.41
662.331	4234.52
662.522	4328.72
662.714	4132.12
662.906	4181.27
663.097	4412.69
663.289	4246.8
663.481	4257.04
663.673	4179.22
663.864	4207.89
664.056	4138.26
664.247	4148.5
664.439	4087.06
664.631	4111.64
664.822	4035.86
665.014	4046.1
665.205	3908.89
665.397	3931.42
665.588	4039.96
665.78	3964.18
665.971	3790.11
666.163	3929.37
666.354	3736.86
666.546	3851.55
666.737	3820.83
666.929	3794.2
667.12	3812.64
667.311	3851.55
667.503	3665.18
667.694	3630.37
667.885	3722.52
668.077	3487.01
668.268	3634.46
668.459	3607.84
668.651	3659.04
668.842	3638.56
669.033	3513.63
669.224	3634.46
669.416	3583.26
669.607	3523.87
669.798	3474.72
669.989	3403.04
670.18	3462.43
670.371	3329.31
670.563	3374.37
670.754	3400.99
670.945	3267.88
671.136	3439.9
671.327	3376.42
671.518	3378.47
671.709	3407.14
671.9	3278.12
672.091	3339.55
672.282	3224.87
672.473	3261.73
672.664	3341.6
672.855	3290.4
673.046	3226.92
673.237	3214.63
673.428	3296.55
673.619	3233.06
673.809	3245.35
674	3282.21
674.191	3214.63
674.382	3077.41
674.573	3095.85
674.764	3177.76
674.954	3130.66
675.145	3069.22
675.336	3243.3
675.527	3079.46
675.717	3147.05
675.908	3050.79
676.099	2991.4
676.289	3089.7
676.48	2972.97
676.671	2979.11
676.861	3061.03
677.052	2985.26
677.243	2917.67
677.433	2848.04
677.624	3018.02
677.814	3007.78
678.005	2921.77
678.195	2913.58
678.386	2866.47
678.576	2860.33
678.767	2845.99
678.957	2774.32
679.148	2905.39
679.338	2827.56
679.529	2829.61
679.719	2835.75
679.909	2786.6
680.1	2868.52
680.29	2942.25
680.481	2821.42
680.671	2712.88
680.861	2852.14
681.052	2784.55
681.242	2809.13
681.432	2800.94
681.622	2835.75
681.813	2745.64
682.003	2796.84
682.193	2729.26
682.383	2829.61
682.573	2770.22
682.764	2671.92
682.954	2702.64
683.144	2796.84
683.334	2569.52
683.524	2731.31
683.714	2620.72
683.904	2725.16
684.094	2831.66
684.284	2702.64
684.474	2546.99
684.664	2729.26
684.854	2786.6
685.044	2772.27
685.234	2645.29
685.424	2565.42
685.614	2733.36
685.804	2643.24
685.994	2659.63
686.184	2633.01
686.374	2569.52
686.564	2471.22
686.753	2618.67
686.943	2549.04
687.133	2702.64
687.323	2698.54
687.513	2626.86
687.702	2622.77
687.892	2590
688.082	2501.94
688.272	2587.95
688.461	2532.65
688.651	2626.86
688.841	2647.34
689.03	2487.6
689.22	2483.5
689.41	2600.24
689.599	2544.94
689.789	2686.25
689.979	2581.81
690.168	2753.84
690.358	2471.22
690.547	2538.8
690.737	2594.09
690.926	2671.92
691.116	2522.41
691.305	2620.72
691.495	2592.05
691.684	2594.09
691.874	2532.65
692.063	2565.42
692.252	2460.98
692.442	2534.7
692.631	2551.09
692.82	2608.43
693.01	2661.68
693.199	2528.56
693.388	2610.48
693.578	2635.05
693.767	2534.7
693.956	2508.08
694.146	2497.84
694.335	2575.66
694.524	2573.61
694.713	2604.33
694.902	2702.64
695.092	2530.61
695.281	2567.47
695.47	2477.36
695.659	2565.42
695.848	2612.53
696.037	2682.16
696.226	2628.91
696.415	2608.43
696.604	2561.33
696.793	2639.15
696.982	2542.89
697.171	2559.28
697.36	2581.81
697.549	2592.05
697.738	2546.99
697.927	2540.85
698.116	2495.79
698.305	2534.7
698.494	2510.13
698.683	2538.8
698.872	2536.75
699.061	2516.27
699.25	2546.99
699.438	2528.56
699.627	2641.2
699.816	2661.68
700.005	2512.18
700.193	2604.33
700.382	2565.42
700.571	2510.13
700.76	2483.5
700.948	2600.24
701.137	2526.51
701.326	2526.51
701.514	2479.41
701.703	2661.68
701.892	2516.27
702.08	2553.13
702.269	2575.66
702.457	2536.75
702.646	2516.27
702.834	2475.31
703.023	2594.09
703.212	2542.89
703.4	2542.89
703.589	2446.64
703.777	2522.41
703.965	2475.31
704.154	2409.78
704.342	2467.12
704.531	2456.88
704.719	2405.68
704.907	2495.79
705.096	2450.74
705.284	2379.06
705.472	2467.12
705.661	2372.91
705.849	2413.87
706.037	2438.45
706.226	2366.77
706.414	2422.06
706.602	2356.53
706.79	2479.41
706.979	2387.25
707.167	2360.63
707.355	2340.15
707.543	2252.08
707.731	2372.91
707.919	2352.43
708.107	2245.94
708.296	2381.1
708.484	2372.91
708.672	2321.71
708.86	2346.29
709.048	2381.1
709.236	2336.05
709.424	2225.46
709.612	2260.27
709.8	2299.19
709.988	2260.27
710.176	2250.03
710.364	2204.98
710.551	2170.16
710.739	2176.31
710.927	2262.32
711.115	2204.98
711.303	2352.43
711.491	2250.03
711.679	2223.41
711.866	2075.96
712.054	2198.84
712.242	2254.13
712.43	2135.35
712.617	2127.16
712.805	2094.39
712.993	2164.02
713.181	2084.15
713.368	2123.06
713.556	2174.26
713.744	2045.24
713.931	2049.33
714.119	2231.6
714.306	2067.77
714.494	2047.29
714.682	2116.92
714.869	2016.57
715.057	1918.26
715.244	1957.18
715.432	2061.62
715.619	2088.25
715.807	2108.73
715.994	2026.81
716.182	2006.33
716.369	2016.57
716.556	2012.47
716.744	1983.8
716.931	2047.29
717.119	2035
717.306	2004.28
717.493	1959.22
717.681	1955.13
717.868	1987.89
718.055	1895.74
718.242	1948.98
718.43	1918.26
718.617	1826.11
718.804	1865.02
718.991	1914.17
719.179	1932.6
719.366	1809.72
719.553	1793.34
719.74	1860.92
719.927	1842.49
720.114	1865.02
720.301	1779
720.488	1807.67
720.676	1838.39
720.863	1772.86
721.05	1807.67
721.237	1719.61
721.424	1809.72
721.611	1873.21
721.798	1877.3
721.985	1744.19
722.172	1756.47
722.358	1690.94
722.545	1758.52
722.732	1811.77
722.919	1613.12
723.106	1668.41
723.293	1754.43
723.48	1652.03
723.667	1664.32
723.853	1649.98
724.04	1690.94
724.227	1623.36
724.414	1684.8
724.6	1617.21
724.787	1723.71
724.974	1621.31
725.161	1623.36
725.347	1551.68
725.534	1604.92
725.72	1467.71
725.907	1566.01
726.094	1588.54
726.28	1594.68
726.467	1584.45
726.653	1482.05
726.84	1490.24
727.027	1543.49
727.213	1629.5
727.4	1586.49
727.586	1582.4
727.773	1559.87
727.959	1551.68
728.145	1510.72
728.332	1627.45
728.518	1574.21
728.705	1637.69
728.891	1541.44
729.077	1529.15
729.264	1404.22
729.45	1457.47
729.636	1406.27
729.823	1434.94
730.009	1541.44
730.195	1418.56
730.382	1436.99
730.568	1426.75
730.754	1400.13
730.94	1453.38
731.126	1475.9
731.313	1406.27
731.499	1506.62
731.685	1410.37
731.871	1488.19
732.057	1402.18
732.243	1475.9
732.429	1383.74
732.615	1416.51
732.801	1451.33
732.987	1367.36
733.173	1371.46
733.359	1414.46
733.545	1430.85
733.731	1336.64
733.917	1402.18
734.103	1312.07
734.289	1434.94
734.475	1310.02
734.661	1264.96
734.847	1348.93
735.033	1314.11
735.219	1385.79
735.404	1361.22
735.59	1260.87
735.776	1344.83
735.962	1293.63
736.148	1353.02
736.333	1357.12
736.519	1336.64
736.705	1211.71
736.89	1301.83
737.076	1277.25
737.262	1244.48
737.447	1197.38
737.633	1246.53
737.819	1252.67
738.004	1213.76
738.19	1215.81
738.375	1232.19
738.561	1238.34
738.747	1226.05
738.932	1105.22
739.118	1314.11
739.303	1295.68
739.489	1305.92
739.674	1111.36
739.859	1273.15
740.045	1271.11
740.23	1189.19
740.416	1125.7
740.601	1219.91
740.786	1148.23
740.972	1162.56
741.157	1156.42
741.342	1197.38
741.528	1107.27
741.713	1117.51
741.898	1164.61
742.084	1109.32
742.269	1146.18
742.454	1170.76
742.639	1111.36
742.824	1056.07
743.01	1090.88
743.195	1187.14
743.38	963.91
743.565	1113.41
743.75	1105.22
743.935	994.63
744.12	1103.17
744.305	1006.92
744.49	1082.69
744.675	1076.55
744.86	982.34
745.045	994.63
745.23	1121.6
745.415	1002.82
745.6	1041.73
745.785	957.77
745.97	1011.01
746.155	986.44
746.34	994.63
746.525	951.62
746.71	1054.02
746.895	935.24
747.079	959.81
747.264	922.95
747.449	902.47
747.634	976.2
747.819	1023.3
748.003	935.24
748.188	972.1
748.373	963.91
748.557	904.52
748.742	922.95
748.927	1002.82
749.111	881.99
749.296	916.81
749.481	910.66
749.665	879.94
749.85	828.74
750.034	929.1
750.219	861.51
750.404	861.51
750.588	789.83
750.773	916.81
750.957	810.31
751.141	763.21
751.326	904.52
751.51	765.26
751.695	896.33
751.879	857.42
752.064	875.85
752.248	877.9
752.432	808.27
752.617	787.79
752.801	793.93
752.985	785.74
753.17	812.36
753.354	732.49
753.538	853.32
753.722	836.94
753.907	757.07
754.091	818.5
754.275	712.01
754.459	791.88
754.643	806.22
754.828	746.83
755.012	695.63
755.196	677.19
755.38	765.26
755.564	664.91
755.748	722.25
755.932	740.68
756.116	744.78
756.3	773.45
756.484	800.07
756.668	734.54
756.852	744.78
757.036	714.06
757.22	714.06
757.404	691.53
757.588	699.72
757.772	712.01
757.956	755.02
758.14	720.2
758.323	689.48
758.507	630.09
758.691	591.18
758.875	636.24
759.059	679.24
759.242	669
759.426	601.42
759.61	609.61
759.794	626
759.977	587.08
760.161	644.43
760.345	626
760.528	658.76
760.712	609.61
760.895	707.91
761.079	560.46
761.263	644.43
761.446	552.27
761.63	658.76
761.813	632.14
761.997	570.7
762.18	570.7
762.364	628.04
762.547	638.28
762.731	662.86
762.914	673.1
763.098	601.42
763.281	548.17
763.464	539.98
763.648	517.45
763.831	582.99
764.015	515.41
764.198	597.32
764.381	615.76
764.564	554.32
764.748	525.65
764.931	603.47
765.114	537.93
765.297	634.19
765.481	521.55
765.664	505.17
765.847	488.78
766.03	591.18
766.213	513.36
766.397	597.32
766.58	529.74
766.763	552.27
766.946	529.74
767.129	529.74
767.312	478.54
767.495	521.55
767.678	453.97
767.861	615.76
768.044	523.6
768.227	466.25
768.41	531.79
768.593	494.93
768.776	597.32
768.959	593.23
769.142	535.89
769.324	544.08
769.507	560.46
769.69	533.84
769.873	505.17
770.056	529.74
770.239	451.92
770.421	480.59
770.604	550.22
770.787	484.69
770.97	515.41
771.152	482.64
771.335	462.16
771.518	544.08
771.7	466.25
771.883	552.27
772.066	458.06
772.248	537.93
772.431	492.88
772.613	445.77
772.796	423.25
772.978	544.08
773.161	488.78
773.343	556.36
773.526	456.01
773.708	503.12
773.891	445.77
774.073	425.29
774.256	374.1
774.438	441.68
774.621	445.77
774.803	466.25
774.985	390.48
775.168	437.58
775.35	437.58
775.532	443.73
775.715	451.92
775.897	415.06
776.079	410.96
776.261	482.64
776.444	435.53
776.626	505.17
776.808	437.58
776.99	415.06
777.173	550.22
777.355	419.15
777.537	349.52
777.719	392.53
777.901	384.34
778.083	384.34
778.265	363.86
778.447	427.34
778.629	359.76
778.811	482.64
778.993	462.16
779.175	337.23
779.357	441.68
779.539	449.87
779.721	322.9
779.903	367.95
780.085	341.33
780.267	402.77
780.449	365.9
780.631	351.57
780.812	374.1
780.994	349.52
781.176	365.9
781.358	380.24
781.54	374.1
781.721	404.82
781.903	324.94
782.085	347.47
782.267	374.1
782.448	380.24
782.63	353.62
782.812	372.05
782.993	337.23
783.175	318.8
783.357	279.89
783.538	322.9
783.72	281.94
783.901	359.76
784.083	322.9
784.264	200.02
784.446	308.56
784.627	238.93
784.809	306.51
784.99	331.09
785.172	312.66
785.353	322.9
785.535	281.94
785.716	296.27
785.897	263.51
786.079	335.18
786.26	273.75
786.441	277.84
786.623	202.07
786.804	300.37
786.985	304.46
787.167	281.94
787.348	249.17
787.529	324.94
787.71	249.17
787.891	273.75
788.073	216.4
788.254	159.06
788.435	347.47
788.616	275.79
788.797	216.4
788.978	191.83
789.159	296.27
789.34	267.6
789.522	193.87
789.703	261.46
789.884	161.11
790.065	206.16
790.246	236.88
790.427	288.08
790.607	273.75
790.788	302.42
790.969	202.07
791.15	204.11
791.331	181.59
791.512	181.59
791.693	263.51
791.874	292.18
792.054	226.64
792.235	195.92
792.416	259.41
792.597	238.93
792.778	122.2
792.958	296.27
793.139	226.64
793.32	189.78
793.5	157.01
793.681	224.59
793.862	181.59
794.042	177.49
794.223	132.44
794.404	204.11
794.584	228.69
794.765	161.11
794.945	210.26
795.126	148.82
795.306	183.63
795.487	150.87
795.667	122.2
795.848	255.31
796.028	114
796.209	179.54
796.389	169.3
796.57	183.63
796.75	173.39
796.93	197.97
797.111	114
797.291	152.91
797.471	204.11
797.652	210.26
797.832	120.15
798.012	148.82
798.192	193.87
798.373	228.69
798.553	138.58
798.733	224.59
798.913	163.15
799.093	118.1
799.274	177.49
799.454	208.21
799.634	195.92
799.814	185.68
799.994	138.58
800.174	157.01
800.354	148.82
800.534	107.86
800.714	185.68
800.894	183.63
801.074	124.24
801.254	66.9
801.434	161.11
801.614	89.43
801.794	175.44
801.974	396.62
802.154	136.53
802.334	181.59
802.514	124.24
802.693	142.68
802.873	130.39
803.053	189.78
803.233	134.48
803.413	111.96
803.592	79.19
803.772	238.93
803.952	212.31
804.131	136.53
804.311	95.57
804.491	222.55
804.67	136.53
804.85	124.24
805.03	144.72
805.209	163.15
805.389	140.63
805.568	161.11
805.748	89.43
805.928	195.92
806.107	161.11
806.287	126.29
806.466	183.63
806.646	195.92
806.825	179.54
807.004	144.72
807.184	167.25
807.363	91.48
807.543	30.04
807.722	122.2
807.901	118.1
808.081	99.67
808.26	68.95
808.439	238.93
808.619	136.53
808.798	138.58
808.977	116.05
809.156	68.95
809.336	114
809.515	101.72
809.694	114
809.873	95.57
810.052	87.38
810.231	179.54
810.411	154.96
810.59	122.2
810.769	81.24
810.948	130.39
811.127	118.1
811.306	130.39
811.485	118.1
811.664	87.38
811.843	146.77
812.022	136.53
812.201	75.09
812.38	179.54
812.559	64.85
812.737	83.28
812.916	42.32
813.095	91.48
813.274	95.57
813.453	81.24
813.632	89.43
813.811	62.8
813.989	97.62
814.168	118.1
814.347	124.24
814.526	103.76
814.704	146.77
814.883	101.72
815.062	142.68
815.24	103.76
815.419	144.72
815.598	105.81
815.776	120.15
815.955	107.86
816.133	93.52
816.312	91.48
816.49	103.76
816.669	93.52
816.847	50.52
817.026	183.63
817.204	40.28
817.383	32.08
817.561	83.28
817.74	81.24
817.918	128.34
818.097	144.72
818.275	107.86
818.453	95.57
818.632	95.57
818.81	73.04
818.988	81.24
819.167	40.28
819.345	132.44
819.523	177.49
819.701	101.72
819.879	124.24
820.058	56.66
820.236	64.85
820.414	48.47
820.592	77.14
820.77	116.05
820.948	89.43
821.127	27.99
821.305	75.09
821.483	116.05
821.661	44.37
821.839	75.09
822.017	38.23
822.195	154.96
822.373	103.76
822.551	40.28
822.729	89.43
822.907	77.14
823.085	87.38
823.262	114
823.44	79.19
823.618	38.23
823.796	68.95
823.974	58.71
824.152	103.76
824.329	-2.73
824.507	73.04
824.685	1.37
824.863	68.95
825.04	56.66
825.218	34.13
825.396	19.8
825.574	144.72
825.751	48.47
825.929	64.85
826.107	38.23
826.284	97.62
826.462	52.56
826.639	60.76
826.817	50.52
826.994	73.04
827.172	66.9
827.349	107.86
827.527	109.91
827.704	99.67
827.882	23.89
828.059	103.76
828.237	83.28
828.414	30.04
828.591	11.61
828.769	23.89
828.946	66.9
829.124	38.23
829.301	50.52
829.478	7.51
829.655	46.42
829.833	85.33
830.01	77.14
830.187	93.52
830.364	64.85
830.542	-2.73
830.719	73.04
830.896	21.85
831.073	71
831.25	97.62
831.427	27.99
831.604	73.04
831.782	95.57
831.959	60.76
832.136	30.04
832.313	75.09
832.49	-6.83
832.667	75.09
832.844	23.89
833.021	40.28
833.198	60.76
833.374	46.42
833.551	40.28
833.728	83.28
833.905	66.9
834.082	38.23
834.259	34.13
834.436	105.81
834.612	46.42
834.789	56.66
834.966	-0.68
835.143	73.04
835.319	25.94
835.496	95.57
835.673	7.51
835.85	60.76
836.026	68.95
836.203	111.96
836.38	-0.68
836.556	48.47
836.733	40.28
836.909	64.85
837.086	34.13
837.262	13.65
837.439	62.8
837.616	27.99
837.792	25.94
837.968	19.8
838.145	56.66
838.321	17.75
838.498	50.52
838.674	56.66
838.851	93.52
839.027	75.09
839.203	32.08
839.38	34.13
839.556	75.09
839.732	9.56
839.909	54.61
840.085	40.28
840.261	21.85
840.437	75.09
840.614	15.7
840.79	83.28
840.966	30.04
841.142	21.85
841.318	46.42
841.494	120.15
841.671	118.1
841.847	79.19
842.023	71
842.199	87.38
842.375	79.19
842.551	42.32
842.727	58.71
842.903	75.09
843.079	89.43
843.255	120.15
843.431	13.65
843.607	50.52
843.783	-47.79
843.959	79.19
844.134	15.7
844.31	13.65
844.486	95.57
844.662	99.67
844.838	52.56
845.013	97.62
845.189	77.14
845.365	48.47
845.541	46.42
845.716	30.04
845.892	77.14
846.068	50.52
846.244	58.71
846.419	15.7
846.595	-2.73
846.77	-10.92
846.946	83.28
847.122	42.32
847.297	-15.02
847.473	77.14
847.648	9.56
847.824	25.94
847.999	44.37
848.175	3.41
848.35	7.51
848.526	109.91
848.701	27.99
848.876	30.04
849.052	13.65
849.227	3.41
849.403	9.56
849.578	52.56
849.753	87.38
849.929	75.09
850.104	-15.02
850.279	95.57
850.454	40.28
850.63	38.23
850.805	-17.07
850.98	25.94
851.155	-33.45
851.33	99.67
851.505	46.42
851.681	56.66
851.856	62.8
852.031	83.28
852.206	-15.02
852.381	89.43
852.556	107.86
852.731	62.8
852.906	30.04
853.081	-15.02
853.256	68.95
853.431	54.61
853.606	7.51
853.781	27.99
853.956	-6.83
854.131	71
854.305	81.24
854.48	34.13
854.655	15.7
854.83	54.61
855.005	46.42
855.18	-33.45
855.354	1.37
855.529	64.85
855.704	54.61
855.879	7.51
856.053	77.14
856.228	30.04
856.403	32.08
856.577	5.46
856.752	-19.11
856.926	83.28
857.101	23.89
857.276	36.18
857.45	3.41
857.625	38.23
857.799	-41.64
857.974	77.14
858.148	101.72
858.323	-39.59
858.497	-4.78
858.672	-0.68
858.846	34.13
859.02	32.08
859.195	5.46
859.369	68.95
859.543	17.75
859.718	56.66
859.892	13.65
860.066	111.96
860.241	1.37
860.415	13.65
860.589	-17.07
860.763	36.18
860.938	13.65
861.112	50.52
861.286	-6.83
861.46	77.14
861.634	27.99
861.808	46.42
861.982	83.28
862.157	42.32
862.331	42.32
862.505	30.04
862.679	9.56
862.853	21.85
863.027	-19.11
863.201	30.04
863.375	-4.78
863.549	85.33
863.722	34.13
863.896	52.56
864.07	38.23
864.244	30.04
864.418	34.13
864.592	25.94
864.766	34.13
864.939	-58.03
865.113	91.48
865.287	1.37
865.461	38.23
865.634	30.04
865.808	58.71
865.982	85.33
866.156	73.04
866.329	32.08
866.503	58.71
866.676	38.23
866.85	36.18
867.024	62.8
867.197	5.46
867.371	-8.87
867.544	62.8
867.718	3.41
867.891	34.13
868.065	-0.68
868.238	19.8
868.412	83.28
868.585	81.24
868.759	19.8
868.932	-12.97
869.105	34.13
869.279	11.61
869.452	54.61
869.625	-10.92
869.799	50.52
869.972	-64.17
870.145	9.56
870.319	48.47
870.492	56.66
870.665	-17.07
870.838	15.7
871.011	-4.78
871.185	-0.68
871.358	36.18
871.531	54.61
871.704	32.08
871.877	62.8
872.05	25.94
872.223	93.52
872.396	-58.03
872.569	58.71
872.742	36.18
872.915	-47.79
873.088	85.33
873.261	23.89
873.434	40.28
873.607	27.99
873.78	11.61
873.953	21.85
874.126	85.33
874.299	52.56
874.471	1.37
874.644	-10.92
874.817	3.41
874.99	-19.11
875.163	7.51
875.335	48.47
875.508	50.52
875.681	-2.73
875.853	-47.79
876.026	-15.02
876.199	48.47
876.371	25.94
876.544	32.08
876.717	-0.68
876.889	-10.92
877.062	36.18
877.234	58.71
877.407	71
877.579	-33.45
877.752	23.89
877.924	58.71
878.097	-10.92
878.269	-17.07
878.442	-35.5
878.614	58.71
878.786	17.75
878.959	62.8
879.131	11.61
879.303	5.46
879.476	73.04
879.648	73.04
879.82	21.85
879.993	-8.87
880.165	-4.78
880.337	30.04
880.509	27.99
880.681	36.18
880.854	-2.73
881.026	-8.87
881.198	38.23
881.37	34.13
881.542	64.85
881.714	1.37
881.886	58.71
882.058	-12.97
882.23	52.56
882.402	3.41
882.574	52.56
882.746	11.61
882.918	-15.02
883.09	-23.21
883.262	36.18
883.434	30.04
883.606	71
883.778	-2.73
883.95	56.66
884.122	34.13
884.293	17.75
884.465	-19.11
884.637	13.65
884.809	27.99
884.98	99.67
885.152	15.7
885.324	68.95
885.496	64.85
885.667	-17.07
885.839	40.28
886.011	66.9
886.182	36.18
886.354	40.28
886.525	-10.92
886.697	27.99
886.869	101.72
887.04	71
887.212	-25.26
887.383	-12.97
887.555	21.85
887.726	62.8
887.897	32.08
888.069	46.42
888.24	40.28
888.412	3.41
888.583	-8.87
888.754	-31.4
888.926	23.89
889.097	27.99
889.268	-31.4
889.44	73.04
889.611	1.37
889.782	54.61
889.953	25.94
890.125	62.8
890.296	-39.59
890.467	-27.31
890.638	-25.26
890.809	-2.73
890.98	-43.69
891.151	101.72
891.323	52.56
891.494	21.85
891.665	13.65
891.836	46.42
892.007	42.32
892.178	75.09
892.349	19.8
892.52	15.7
892.691	44.37
892.862	-4.78
893.032	-6.83
893.203	-84.65
893.374	25.94
893.545	5.46
893.716	17.75
893.887	58.71
894.057	103.76
894.228	-37.55
894.399	44.37
894.57	118.1
894.74	11.61
894.911	114
895.082	30.04
895.253	50.52
895.423	-12.97
895.594	42.32
895.764	19.8
895.935	1.37
896.106	27.99
896.276	64.85
896.447	1.37
896.617	56.66
896.788	-12.97
896.958	40.28
897.129	-51.88
897.299	-51.88
897.47	54.61
897.64	-19.11
897.81	11.61
897.981	34.13
898.151	58.71
898.322	25.94
898.492	-51.88
898.662	-12.97
898.832	-31.4
899.003	103.76
899.173	-21.16
899.343	38.23
899.513	21.85
