Data from USB4F104151__239__14-00-57-258.txt Node

Date: Thu Mar 13 14:00:57 EDT 2025
User: louis
Spectrometer: USB4F10415
Trigger mode: 4
Integration Time (sec): 1.000000E-2
Scans to average: 1
Electric dark correction enabled: true
Nonlinearity correction enabled: false
Boxcar width: 0
XAxis mode: Wavelengths
Number of Pixels in Spectrum: 3648
>>>>>Begin Spectral Data<<<<<
178.204	-57.86
178.424	-57.86
178.644	-57.86
178.864	-10.75
179.084	-47.62
179.304	7.68
179.524	13.82
179.744	-25.09
179.964	67.07
180.184	-0.51
180.404	19.97
180.624	-29.18
180.844	-41.47
181.064	-16.9
181.283	-18.94
181.503	-12.8
181.723	36.35
181.943	-74.24
182.163	7.68
182.383	28.16
182.602	-25.09
182.822	71.17
183.042	56.83
183.262	-16.9
183.482	24.06
183.701	-16.9
183.921	83.45
184.141	24.06
184.361	15.87
184.58	7.68
184.8	-8.7
185.02	-20.99
185.239	81.41
185.459	24.06
185.679	32.26
185.898	-72.19
186.118	24.06
186.338	3.58
186.557	34.3
186.777	58.88
186.997	56.83
187.216	91.65
187.436	114.17
187.655	15.87
187.875	93.69
188.095	7.68
188.314	97.79
188.534	-20.99
188.753	28.16
188.973	79.36
189.192	62.98
189.412	46.59
189.631	19.97
189.851	-20.99
190.07	-37.38
190.29	1.54
190.509	105.98
190.729	-78.33
190.948	-8.7
191.168	62.98
191.387	44.54
191.607	-27.14
191.826	30.21
192.045	22.02
192.265	54.78
192.484	26.11
192.704	56.83
192.923	28.16
193.142	77.31
193.362	15.87
193.581	52.74
193.8	52.74
194.02	30.21
194.239	26.11
194.458	1.54
194.678	11.78
194.897	-25.09
195.116	7.68
195.335	13.82
195.555	87.55
195.774	-14.85
195.993	-41.47
196.212	54.78
196.432	38.4
196.651	89.6
196.87	22.02
197.089	75.26
197.308	-51.71
197.528	60.93
197.747	-43.52
197.966	36.35
198.185	17.92
198.404	28.16
198.623	22.02
198.842	-16.9
199.062	81.41
199.281	-43.52
199.5	15.87
199.719	-12.8
199.938	-45.57
200.157	105.98
200.376	42.5
200.595	15.87
200.814	40.45
201.033	-4.61
201.252	42.5
201.471	52.74
201.69	36.35
201.909	50.69
202.128	32.26
202.347	22.02
202.566	62.98
202.785	7.68
203.004	26.11
203.223	44.54
203.442	-25.09
203.661	65.02
203.879	-29.18
204.098	56.83
204.317	-35.33
204.536	69.12
204.755	-16.9
204.974	-25.09
205.193	-2.56
205.411	67.07
205.63	38.4
205.849	-2.56
206.068	9.73
206.287	48.64
206.505	5.63
206.724	52.74
206.943	19.97
207.162	-12.8
207.381	54.78
207.599	79.36
207.818	77.31
208.037	-16.9
208.255	91.65
208.474	34.3
208.693	17.92
208.911	-43.52
209.13	-53.76
209.349	-0.51
209.567	-0.51
209.786	-2.56
210.005	15.87
210.223	13.82
210.442	50.69
210.661	-8.7
210.879	-27.14
211.098	-16.9
211.316	-2.56
211.535	26.11
211.753	24.06
211.972	-18.94
212.191	30.21
212.409	65.02
212.628	-2.56
212.846	-55.81
213.065	42.5
213.283	73.21
213.502	-6.66
213.72	30.21
213.938	36.35
214.157	52.74
214.375	40.45
214.594	-16.9
214.812	56.83
215.031	60.93
215.249	42.5
215.467	5.63
215.686	50.69
215.904	81.41
216.122	50.69
216.341	65.02
216.559	30.21
216.778	11.78
216.996	1.54
217.214	1.54
217.432	-2.56
217.651	-23.04
217.869	65.02
218.087	-8.7
218.306	-25.09
218.524	34.3
218.742	-25.09
218.96	1.54
219.179	69.12
219.397	65.02
219.615	77.31
219.833	71.17
220.051	-6.66
220.27	-4.61
220.488	54.78
220.706	17.92
220.924	48.64
221.142	13.82
221.36	-20.99
221.578	28.16
221.796	-10.75
222.015	32.26
222.233	-6.66
222.451	138.75
222.669	-49.66
222.887	73.21
223.105	-14.85
223.323	34.3
223.541	24.06
223.759	-16.9
223.977	19.97
224.195	40.45
224.413	32.26
224.631	34.3
224.849	-31.23
225.067	26.11
225.285	3.58
225.503	-6.66
225.721	-23.04
225.939	-6.66
226.157	42.5
226.375	60.93
226.592	19.97
226.81	34.3
227.028	-12.8
227.246	32.26
227.464	-25.09
227.682	32.26
227.9	44.54
228.117	24.06
228.335	13.82
228.553	-10.75
228.771	15.87
228.989	54.78
229.206	-41.47
229.424	7.68
229.642	54.78
229.86	13.82
230.077	103.93
230.295	-39.42
230.513	-2.56
230.731	73.21
230.948	93.69
231.166	48.64
231.384	3.58
231.601	83.45
231.819	-16.9
232.037	7.68
232.254	-8.7
232.472	15.87
232.689	50.69
232.907	65.02
233.125	3.58
233.342	48.64
233.56	83.45
233.777	79.36
233.995	9.73
234.213	-10.75
234.43	7.68
234.648	7.68
234.865	-16.9
235.083	65.02
235.3	71.17
235.518	13.82
235.735	42.5
235.953	-29.18
236.17	36.35
236.388	69.12
236.605	40.45
236.822	93.69
237.04	40.45
237.257	26.11
237.475	-59.9
237.692	9.73
237.909	54.78
238.127	15.87
238.344	22.02
238.562	-14.85
238.779	15.87
238.996	26.11
239.214	-12.8
239.431	85.5
239.648	54.78
239.865	56.83
240.083	40.45
240.3	-39.42
240.517	-27.14
240.735	30.21
240.952	15.87
241.169	-12.8
241.386	32.26
241.603	-6.66
241.821	7.68
242.038	83.45
242.255	3.58
242.472	42.5
242.689	3.58
242.907	28.16
243.124	-14.85
243.341	46.59
243.558	28.16
243.775	22.02
243.992	-16.9
244.209	26.11
244.426	52.74
244.643	7.68
244.86	-6.66
245.078	85.5
245.295	26.11
245.512	67.07
245.729	50.69
245.946	9.73
246.163	24.06
246.38	73.21
246.597	24.06
246.814	1.54
247.031	44.54
247.248	24.06
247.464	48.64
247.681	73.21
247.898	-47.62
248.115	50.69
248.332	87.55
248.549	60.93
248.766	7.68
248.983	101.89
249.2	-6.66
249.417	-33.28
249.633	-57.86
249.85	75.26
250.067	50.69
250.284	89.6
250.501	28.16
250.717	89.6
250.934	38.4
251.151	105.98
251.368	42.5
251.585	48.64
251.801	7.68
252.018	-47.62
252.235	11.78
252.451	-47.62
252.668	34.3
252.885	19.97
253.102	19.97
253.318	40.45
253.535	36.35
253.752	62.98
253.968	26.11
254.185	30.21
254.401	15.87
254.618	9.73
254.835	-8.7
255.051	-12.8
255.268	40.45
255.484	85.5
255.701	38.4
255.917	50.69
256.134	7.68
256.351	-8.7
256.567	3.58
256.784	26.11
257	-70.14
257.217	56.83
257.433	13.82
257.65	34.3
257.866	-27.14
258.082	-37.38
258.299	32.26
258.515	36.35
258.732	34.3
258.948	89.6
259.165	44.54
259.381	-8.7
259.597	89.6
259.814	-20.99
260.03	-25.09
260.246	79.36
260.463	38.4
260.679	24.06
260.895	-57.86
261.112	-0.51
261.328	40.45
261.544	-4.61
261.761	85.5
261.977	-0.51
262.193	65.02
262.409	46.59
262.626	-0.51
262.842	1.54
263.058	-39.42
263.274	26.11
263.49	38.4
263.707	11.78
263.923	40.45
264.139	-6.66
264.355	-43.52
264.571	-0.51
264.787	-8.7
265.004	40.45
265.22	7.68
265.436	-25.09
265.652	-43.52
265.868	30.21
266.084	-29.18
266.3	28.16
266.516	7.68
266.732	9.73
266.948	50.69
267.164	69.12
267.38	28.16
267.596	36.35
267.812	32.26
268.028	56.83
268.244	13.82
268.46	77.31
268.676	-27.14
268.892	1.54
269.108	3.58
269.324	3.58
269.54	40.45
269.756	36.35
269.972	36.35
270.188	-18.94
270.403	32.26
270.619	48.64
270.835	28.16
271.051	81.41
271.267	-74.24
271.483	26.11
271.698	11.78
271.914	79.36
272.13	-23.04
272.346	42.5
272.562	17.92
272.777	28.16
272.993	-6.66
273.209	34.3
273.425	36.35
273.64	7.68
273.856	32.26
274.072	-4.61
274.287	46.59
274.503	7.68
274.719	7.68
274.934	71.17
275.15	-0.51
275.366	-16.9
275.581	42.5
275.797	-6.66
276.012	-4.61
276.228	22.02
276.444	28.16
276.659	58.88
276.875	-29.18
277.09	58.88
277.306	65.02
277.521	73.21
277.737	-43.52
277.952	32.26
278.168	24.06
278.383	15.87
278.599	1.54
278.814	24.06
279.03	54.78
279.245	71.17
279.461	73.21
279.676	-8.7
279.892	38.4
280.107	91.65
280.322	-4.61
280.538	24.06
280.753	62.98
280.969	17.92
281.184	34.3
281.399	-12.8
281.615	40.45
281.83	42.5
282.045	-49.66
282.26	7.68
282.476	24.06
282.691	15.87
282.906	65.02
283.122	-31.23
283.337	38.4
283.552	73.21
283.767	17.92
283.983	7.68
284.198	-55.81
284.413	5.63
284.628	19.97
284.843	67.07
285.058	15.87
285.274	32.26
285.489	65.02
285.704	-2.56
285.919	13.82
286.134	50.69
286.349	52.74
286.564	85.5
286.779	28.16
286.995	-6.66
287.21	44.54
287.425	-55.81
287.64	-61.95
287.855	3.58
288.07	81.41
288.285	19.97
288.5	38.4
288.715	7.68
288.93	-0.51
289.145	19.97
289.36	-47.62
289.575	77.31
289.79	44.54
290.004	15.87
290.219	-47.62
290.434	32.26
290.649	-39.42
290.864	19.97
291.079	-6.66
291.294	15.87
291.509	120.32
291.724	42.5
291.938	71.17
292.153	26.11
292.368	19.97
292.583	56.83
292.798	-14.85
293.012	34.3
293.227	24.06
293.442	5.63
293.657	24.06
293.871	56.83
294.086	48.64
294.301	52.74
294.516	5.63
294.73	36.35
294.945	44.54
295.16	7.68
295.374	-23.04
295.589	40.45
295.804	3.58
296.018	-10.75
296.233	-14.85
296.447	34.3
296.662	-14.85
296.877	-25.09
297.091	28.16
297.306	67.07
297.52	32.26
297.735	48.64
297.949	15.87
298.164	77.31
298.378	-4.61
298.593	13.82
298.807	56.83
299.022	54.78
299.236	40.45
299.451	15.87
299.665	91.65
299.88	44.54
300.094	40.45
300.309	17.92
300.523	-4.61
300.737	73.21
300.952	65.02
301.166	56.83
301.381	40.45
301.595	-41.47
301.809	67.07
302.024	-8.7
302.238	44.54
302.452	83.45
302.667	-14.85
302.881	48.64
303.095	-37.38
303.309	32.26
303.524	32.26
303.738	26.11
303.952	48.64
304.166	-10.75
304.381	38.4
304.595	46.59
304.809	22.02
305.023	44.54
305.237	32.26
305.452	17.92
305.666	36.35
305.88	15.87
306.094	26.11
306.308	24.06
306.522	-6.66
306.736	34.3
306.95	17.92
307.164	-12.8
307.379	7.68
307.593	40.45
307.807	-10.75
308.021	126.46
308.235	73.21
308.449	7.68
308.663	73.21
308.877	36.35
309.091	3.58
309.305	97.79
309.519	-4.61
309.733	48.64
309.947	50.69
310.161	-27.14
310.374	91.65
310.588	32.26
310.802	-18.94
311.016	38.4
311.23	58.88
311.444	-29.18
311.658	38.4
311.872	97.79
312.085	15.87
312.299	42.5
312.513	42.5
312.727	56.83
312.941	24.06
313.154	-14.85
313.368	11.78
313.582	58.88
313.796	58.88
314.009	26.11
314.223	34.3
314.437	32.26
314.651	17.92
314.864	19.97
315.078	56.83
315.292	9.73
315.505	108.03
315.719	-18.94
315.933	19.97
316.146	62.98
316.36	-8.7
316.573	-2.56
316.787	108.03
317.001	15.87
317.214	15.87
317.428	46.59
317.641	65.02
317.855	19.97
318.068	28.16
318.282	48.64
318.495	75.26
318.709	83.45
318.922	48.64
319.136	19.97
319.349	93.69
319.563	9.73
319.776	52.74
319.99	52.74
320.203	108.03
320.417	56.83
320.63	87.55
320.843	71.17
321.057	40.45
321.27	22.02
321.483	103.93
321.697	65.02
321.91	32.26
322.124	17.92
322.337	26.11
322.55	65.02
322.763	36.35
322.977	28.16
323.19	71.17
323.403	-25.09
323.617	38.4
323.83	54.78
324.043	17.92
324.256	56.83
324.469	50.69
324.683	36.35
324.896	30.21
325.109	60.93
325.322	-27.14
325.535	3.58
325.748	22.02
325.962	19.97
326.175	-35.33
326.388	15.87
326.601	-16.9
326.814	105.98
327.027	13.82
327.24	32.26
327.453	73.21
327.666	42.5
327.879	50.69
328.092	-25.09
328.305	67.07
328.518	17.92
328.731	26.11
328.944	-37.38
329.157	-47.62
329.37	11.78
329.583	32.26
329.796	85.5
330.009	62.98
330.222	-14.85
330.435	42.5
330.648	5.63
330.861	40.45
331.073	15.87
331.286	42.5
331.499	46.59
331.712	79.36
331.925	36.35
332.138	56.83
332.35	32.26
332.563	48.64
332.776	-25.09
332.989	1.54
333.202	26.11
333.414	-10.75
333.627	44.54
333.84	-4.61
334.053	-74.24
334.265	-0.51
334.478	52.74
334.691	3.58
334.903	38.4
335.116	48.64
335.329	9.73
335.541	48.64
335.754	52.74
335.966	42.5
336.179	-8.7
336.392	24.06
336.604	15.87
336.817	118.27
337.029	89.6
337.242	56.83
337.454	-20.99
337.667	56.83
337.88	97.79
338.092	17.92
338.305	58.88
338.517	24.06
338.729	-0.51
338.942	60.93
339.154	-35.33
339.367	-64
339.579	-8.7
339.792	9.73
340.004	85.5
340.217	60.93
340.429	-27.14
340.641	-2.56
340.854	-8.7
341.066	-16.9
341.278	7.68
341.491	24.06
341.703	-14.85
341.915	36.35
342.128	62.98
342.34	9.73
342.552	52.74
342.764	28.16
342.977	54.78
343.189	11.78
343.401	28.16
343.613	58.88
343.826	34.3
344.038	15.87
344.25	69.12
344.462	32.26
344.674	52.74
344.886	56.83
345.099	-12.8
345.311	22.02
345.523	103.93
345.735	-2.56
345.947	26.11
346.159	42.5
346.371	-8.7
346.583	-16.9
346.795	60.93
347.007	38.4
347.219	60.93
347.431	-31.23
347.643	50.69
347.855	-45.57
348.067	67.07
348.279	50.69
348.491	5.63
348.703	56.83
348.915	17.92
349.127	52.74
349.339	60.93
349.551	42.5
349.763	-8.7
349.975	-33.28
350.187	9.73
350.399	19.97
350.61	65.02
350.822	69.12
351.034	93.69
351.246	65.02
351.458	34.3
351.669	-16.9
351.881	-6.66
352.093	-2.56
352.305	58.88
352.517	71.17
352.728	7.68
352.94	22.02
353.152	81.41
353.363	93.69
353.575	13.82
353.787	17.92
353.999	11.78
354.21	52.74
354.422	46.59
354.633	58.88
354.845	56.83
355.057	132.61
355.268	44.54
355.48	19.97
355.692	28.16
355.903	30.21
356.115	17.92
356.326	-12.8
356.538	75.26
356.749	42.5
356.961	11.78
357.172	77.31
357.384	40.45
357.595	67.07
357.807	-8.7
358.018	75.26
358.23	1.54
358.441	-16.9
358.653	89.6
358.864	-10.75
359.075	9.73
359.287	50.69
359.498	81.41
359.709	30.21
359.921	34.3
360.132	17.92
360.344	85.5
360.555	52.74
360.766	62.98
360.977	17.92
361.189	1.54
361.4	1.54
361.611	48.64
361.823	-6.66
362.034	-29.18
362.245	11.78
362.456	26.11
362.667	89.6
362.879	1.54
363.09	13.82
363.301	71.17
363.512	26.11
363.723	19.97
363.935	40.45
364.146	28.16
364.357	-10.75
364.568	7.68
364.779	26.11
364.99	97.79
365.201	24.06
365.412	24.06
365.623	28.16
365.834	65.02
366.045	50.69
366.256	56.83
366.467	73.21
366.678	56.83
366.889	-6.66
367.1	44.54
367.311	22.02
367.522	52.74
367.733	48.64
367.944	3.58
368.155	-53.76
368.366	67.07
368.577	7.68
368.788	99.84
368.999	124.41
369.209	75.26
369.42	-16.9
369.631	48.64
369.842	26.11
370.053	44.54
370.264	32.26
370.474	19.97
370.685	-20.99
370.896	15.87
371.107	99.84
371.317	52.74
371.528	-23.04
371.739	-18.94
371.95	-23.04
372.16	42.5
372.371	50.69
372.582	36.35
372.792	34.3
373.003	52.74
373.214	-27.14
373.424	11.78
373.635	56.83
373.846	56.83
374.056	11.78
374.267	48.64
374.477	9.73
374.688	-94.72
374.898	56.83
375.109	13.82
375.319	34.3
375.53	103.93
375.74	71.17
375.951	65.02
376.161	77.31
376.372	38.4
376.582	79.36
376.793	42.5
377.003	-8.7
377.214	105.98
377.424	-20.99
377.635	32.26
377.845	24.06
378.055	93.69
378.266	24.06
378.476	124.41
378.686	38.4
378.897	24.06
379.107	105.98
379.317	32.26
379.528	97.79
379.738	69.12
379.948	-8.7
380.158	50.69
380.369	46.59
380.579	17.92
380.789	67.07
380.999	81.41
381.21	73.21
381.42	79.36
381.63	17.92
381.84	58.88
382.05	19.97
382.261	48.64
382.471	65.02
382.681	3.58
382.891	67.07
383.101	46.59
383.311	58.88
383.521	62.98
383.731	46.59
383.941	44.54
384.151	48.64
384.361	5.63
384.571	42.5
384.781	42.5
384.991	40.45
385.201	9.73
385.411	-0.51
385.621	38.4
385.831	32.26
386.041	81.41
386.251	99.84
386.461	58.88
386.671	24.06
386.881	28.16
387.091	9.73
387.301	67.07
387.511	-0.51
387.72	7.68
387.93	48.64
388.14	48.64
388.35	-43.52
388.56	40.45
388.769	15.87
388.979	93.69
389.189	77.31
389.399	87.55
389.609	24.06
389.818	-8.7
390.028	1.54
390.238	30.21
390.447	3.58
390.657	15.87
390.867	-12.8
391.076	62.98
391.286	19.97
391.496	36.35
391.705	-14.85
391.915	69.12
392.125	-31.23
392.334	75.26
392.544	13.82
392.753	26.11
392.963	50.69
393.172	105.98
393.382	85.5
393.591	44.54
393.801	40.45
394.01	-2.56
394.22	54.78
394.429	81.41
394.639	38.4
394.848	67.07
395.058	83.45
395.267	99.84
395.477	24.06
395.686	-16.9
395.895	38.4
396.105	50.69
396.314	81.41
396.524	54.78
396.733	11.78
396.942	34.3
397.152	60.93
397.361	110.08
397.57	30.21
397.78	89.6
397.989	58.88
398.198	89.6
398.407	56.83
398.617	87.55
398.826	58.88
399.035	52.74
399.244	79.36
399.453	77.31
399.663	83.45
399.872	105.98
400.081	26.11
400.29	130.56
400.499	77.31
400.708	73.21
400.917	122.37
401.127	42.5
401.336	48.64
401.545	50.69
401.754	44.54
401.963	138.75
402.172	81.41
402.381	30.21
402.59	89.6
402.799	71.17
403.008	50.69
403.217	58.88
403.426	85.5
403.635	89.6
403.844	79.36
404.053	108.03
404.262	81.41
404.471	114.17
404.68	134.65
404.888	175.61
405.097	101.89
405.306	142.85
405.515	146.94
405.724	122.37
405.933	91.65
406.142	134.65
406.35	120.32
406.559	192
406.768	58.88
406.977	163.33
407.185	105.98
407.394	146.94
407.603	169.47
407.812	118.27
408.02	140.8
408.229	146.94
408.438	173.57
408.646	161.28
408.855	212.48
409.064	183.81
409.272	179.71
409.481	220.67
409.69	200.19
409.898	214.52
410.107	177.66
410.315	187.9
410.524	243.2
410.733	235
410.941	269.82
411.15	278.01
411.358	230.91
411.567	245.24
411.775	269.82
411.984	312.83
412.192	290.3
412.401	263.68
412.609	361.98
412.818	361.98
413.026	288.25
413.234	280.06
413.443	316.92
413.651	318.97
413.86	364.03
414.068	450.04
414.276	404.99
414.485	409.08
414.693	382.46
414.901	507.38
415.11	495.1
415.318	456.19
415.526	486.9
415.734	540.15
415.943	562.68
416.151	550.39
416.359	558.58
416.567	622.07
416.776	671.22
416.984	671.22
417.192	620.02
417.4	716.28
417.608	638.45
417.817	632.31
418.025	660.98
418.233	736.76
418.441	779.76
418.649	884.21
418.857	818.68
419.065	851.44
419.273	767.48
419.481	904.69
419.689	943.6
419.897	1015.28
420.105	1046
420.313	1011.18
420.521	1041.9
420.729	1109.49
420.937	1162.73
421.145	992.75
421.353	1179.12
421.561	1222.13
421.769	1199.6
421.977	1351.15
422.185	1314.28
422.393	1488.36
422.601	1490.41
422.809	1463.79
423.017	1457.64
423.224	1592.81
423.432	1617.38
423.64	1648.1
423.848	1777.12
424.056	1687.01
424.263	1943.01
424.471	1902.05
424.679	2012.64
424.887	1924.58
425.094	1943.01
425.302	2065.89
425.51	2094.56
425.718	2201.05
425.925	2186.72
426.133	2311.64
426.341	2383.32
426.548	2532.83
426.756	2555.35
426.964	2604.5
427.171	2792.92
427.379	2805.21
427.586	2651.61
427.794	2915.8
428.001	2893.27
428.209	3216.85
428.417	3089.87
428.624	3245.52
428.832	3290.57
429.039	3317.2
429.247	3370.44
429.454	3546.57
429.662	3874.24
429.869	3573.19
430.076	3931.59
430.284	3734.98
430.491	3861.96
430.699	4120
430.906	4144.58
431.114	4173.25
431.321	4365.76
431.528	4308.41
431.736	4668.86
431.943	4869.56
432.15	4879.8
432.358	4861.37
432.565	5264.82
432.772	5191.09
432.979	5447.08
433.187	5381.55
433.394	5406.13
433.601	5754.28
433.808	5746.09
434.016	5821.86
434.223	6065.57
434.43	6432.16
434.637	6217.12
434.844	6628.76
435.052	6835.61
435.259	6698.39
435.466	6923.67
435.673	6710.68
435.88	7124.37
436.087	7519.63
436.294	7583.12
436.501	7406.99
436.708	7409.04
436.915	7724.43
437.122	8082.82
437.329	8170.88
437.537	8334.72
437.743	8512.89
437.95	8226.18
438.157	8756.6
438.364	9219.44
438.571	8877.43
438.778	9260.4
438.985	10075.49
439.192	9594.22
439.399	9813.35
439.606	9692.52
439.813	10259.81
440.02	10599.77
440.227	10644.83
440.433	10532.19
440.64	10937.69
440.847	10732.89
441.054	11175.25
441.261	11808.08
441.467	11765.07
441.674	11928.91
441.881	12324.16
442.088	12328.26
442.294	12279.11
442.501	12541.25
442.708	12942.65
442.914	13387.06
443.121	13749.55
443.328	13280.57
443.534	14353.7
443.741	13817.13
443.948	13790.51
444.154	14849.31
444.361	14679.33
444.568	14859.55
444.774	14572.83
444.981	14830.88
445.187	15256.86
445.394	16198.92
445.6	15822.09
445.807	17233.15
446.013	16479.49
446.22	16669.95
446.426	17476.85
446.633	17624.31
446.839	18396.39
447.046	17706.23
447.252	18431.21
447.459	18533.61
447.665	18482.41
447.871	19539.16
448.078	20104.4
448.284	19211.48
448.491	19438.81
448.697	20616.39
448.903	20628.68
449.11	20759.75
449.316	20632.77
449.522	20782.27
449.728	21515.45
449.935	21812.4
450.141	21320.89
450.347	22170.8
450.553	21431.48
450.76	21695.67
450.966	22326.44
451.172	22176.94
451.378	22815.91
451.584	22064.3
451.791	22477.99
451.997	22682.79
452.203	22863.01
452.409	23004.32
452.615	22762.66
452.821	21912.75
453.027	21902.51
453.233	22836.39
453.44	22103.21
453.646	22129.84
453.852	22019.25
454.058	22572.2
454.264	22101.17
454.47	22391.98
454.676	21601.46
454.882	22656.17
455.088	20509.9
455.294	21044.41
455.5	21275.84
455.705	21372.09
455.911	20380.87
456.117	20104.4
456.323	19926.22
456.529	18687.2
456.735	19791.06
456.941	19258.59
457.147	18924.77
457.352	18339.05
457.558	18263.27
457.764	18117.87
457.97	17706.23
458.176	17136.89
458.381	17399.03
458.587	16645.38
458.793	16293.13
458.999	15621.39
459.204	16712.96
459.41	16477.44
459.616	15281.43
459.821	15402.26
460.027	15191.32
460.233	14918.94
460.438	14116.14
460.644	14513.44
460.85	13692.21
461.055	13335.86
461.261	13483.31
461.466	12500.29
461.672	12201.29
461.878	13016.38
462.083	11949.39
462.289	11820.36
462.494	11582.8
462.7	11091.29
462.905	10812.76
463.111	11224.4
463.316	11457.87
463.522	11066.71
463.727	11289.94
463.932	11322.71
464.138	11130.2
464.343	11038.04
464.549	10657.12
464.754	11214.16
464.959	11066.71
465.165	11070.81
465.37	10509.66
465.575	10358.11
465.781	10759.52
465.986	10646.88
466.191	10491.23
466.397	10214.76
466.602	9600.37
466.807	10093.93
467.012	10044.77
467.218	10005.86
467.423	9842.03
467.628	9844.07
467.833	10194.28
468.038	9948.52
468.244	9735.53
468.449	9915.75
468.654	9741.68
468.859	9758.06
469.064	9411.95
469.269	9129.33
469.474	9299.31
469.679	9592.17
469.885	9332.08
470.09	9282.93
470.295	9272.69
470.5	8953.21
470.705	9090.42
470.91	8842.62
471.115	8746.36
471.32	8910.2
471.525	9057.65
471.73	8854.9
471.935	8564.09
472.139	8252.8
472.344	8457.6
472.549	8453.5
472.754	8344.96
472.959	8097.16
473.164	7832.97
473.369	7839.11
473.574	8101.25
473.778	7994.76
473.983	7720.33
474.188	7933.32
474.393	7566.73
474.598	7746.95
474.802	7456.14
475.007	7390.61
475.212	7617.93
475.417	7308.69
475.621	7011.73
475.826	7247.25
476.031	6962.58
476.235	6895
476.44	7218.58
476.645	7071.12
476.849	7138.71
477.054	6811.03
477.259	6636.95
477.463	6776.22
477.668	6481.31
477.872	6749.59
478.077	6702.49
478.282	6299.04
478.486	6360.48
478.691	6286.75
478.895	6196.64
479.1	6278.56
479.304	6120.87
479.509	6038.95
479.713	5997.99
479.918	6053.28
480.122	6118.82
480.326	6088.1
480.531	6016.42
480.735	5991.84
480.94	5957.03
481.144	6104.48
481.348	6032.8
481.553	5995.94
481.757	6038.95
481.961	5961.13
482.166	6112.67
482.37	5838.25
482.574	5885.35
482.778	5905.83
482.983	5938.6
483.187	5881.25
483.391	5842.34
483.595	5793.19
483.8	5932.45
484.004	6016.42
484.208	5746.09
484.412	5961.13
484.616	5838.25
484.821	6061.48
485.025	5782.95
485.229	5868.97
485.433	5754.28
485.637	5914.02
485.841	5782.95
486.045	5883.3
486.249	5795.24
486.453	5778.86
486.657	5834.15
486.861	5989.8
487.065	5723.56
487.269	5748.14
487.473	5842.34
487.677	5873.06
487.881	5940.65
488.085	5899.69
488.289	5977.51
488.493	5864.87
488.697	5727.66
488.901	5883.3
489.105	5954.98
489.309	5979.56
489.512	5979.56
489.716	5815.72
489.92	5852.58
490.124	5948.84
490.328	6069.67
490.531	5922.21
490.735	5959.08
490.939	6012.32
491.143	6077.86
491.346	6028.71
491.55	6137.25
491.754	6143.39
491.958	6192.55
492.161	6137.25
492.365	6174.11
492.569	6172.07
492.772	6069.67
492.976	6335.9
493.18	6163.87
493.383	6376.86
493.587	6235.55
493.79	6501.79
493.994	6544.8
494.197	6342.05
494.401	6602.14
494.605	6399.39
494.808	6686.11
495.012	6714.78
495.215	6800.79
495.419	6854.04
495.622	6708.63
495.825	6860.18
496.029	6843.8
496.232	7089.56
496.436	6974.87
496.639	7159.19
496.843	7079.32
497.046	7404.94
497.249	7304.59
497.453	7345.55
497.656	7560.59
497.859	7507.34
498.063	7816.58
498.266	7660.94
498.469	7603.6
498.673	7734.67
498.876	7927.18
499.079	8035.72
499.282	7970.18
499.485	8224.13
499.689	8191.36
499.892	8410.5
500.095	8492.41
500.298	8607.1
500.501	8414.59
500.705	8758.65
500.908	8848.76
501.111	8879.48
501.314	9096.57
501.517	8940.92
501.72	9426.29
501.923	9274.74
502.126	9448.82
502.329	9618.8
502.532	9614.7
502.735	9887.08
502.938	9839.98
503.141	9905.51
503.344	10237.28
503.547	10278.24
503.75	10411.36
503.953	10616.16
504.156	10624.35
504.359	10677.6
504.562	10648.93
504.765	11230.55
504.968	11054.42
505.17	11244.88
505.373	11339.09
505.576	11474.26
505.779	11631.95
505.982	11918.67
506.185	12121.42
506.387	12182.85
506.59	12096.84
506.793	12473.67
506.996	12242.25
507.198	12705.09
507.401	12672.32
507.604	13008.19
507.807	13294.9
508.009	13331.76
508.212	13389.11
508.415	13536.56
508.617	13899.05
508.82	13858.09
509.022	13677.87
509.225	14286.12
509.428	14179.62
509.63	14515.49
509.833	14460.2
510.035	15088.92
510.238	14765.34
510.44	15142.17
510.643	15451.41
510.845	15605.01
511.048	15596.82
511.25	16018.7
511.453	15891.73
511.655	16442.63
511.858	16465.16
512.06	16555.27
512.262	17001.72
512.465	16610.56
512.667	16993.53
512.87	17171.71
513.072	17237.24
513.274	17657.07
513.477	18117.87
513.679	18064.62
513.881	18162.92
514.084	18443.49
514.286	18420.97
514.488	18943.2
514.69	19297.5
514.893	19498.2
515.095	19350.74
515.297	19590.36
515.499	19811.54
515.701	20274.38
515.904	20131.02
516.106	20450.5
516.308	20624.58
516.51	20874.43
516.712	21421.24
516.914	21402.81
517.116	21523.64
517.318	22084.78
517.52	21853.36
517.722	21882.03
517.925	22238.38
518.127	22817.96
518.329	22619.3
518.531	22586.54
518.733	23342.24
518.935	23700.63
519.136	23542.94
519.338	23966.87
519.54	24595.59
519.742	24460.43
519.944	24597.64
520.146	25234.56
520.348	25203.84
520.55	25056.39
520.752	25275.52
520.954	26113.14
521.155	25986.16
521.357	25926.77
521.559	26465.39
521.761	26942.56
521.963	26475.63
522.164	27108.45
522.366	27079.78
522.568	27583.58
522.77	27690.07
522.971	28283.98
523.173	27761.75
523.375	28329.04
523.576	28230.74
523.778	28357.71
523.98	28722.25
524.181	29058.12
524.383	29230.15
524.584	29563.96
524.786	29455.42
524.988	29465.66
525.189	30127.16
525.391	29905.98
525.592	30069.81
525.794	30356.53
525.995	30307.38
526.197	30503.98
526.398	30432.3
526.6	31521.82
526.801	30759.98
527.003	30979.11
527.204	31140.9
527.406	31740.96
527.607	31654.94
527.808	31722.52
528.01	31271.97
528.211	31593.5
528.412	32179.22
528.614	31894.55
528.815	31833.11
529.016	32422.93
529.218	32175.13
529.419	32554
529.62	32279.57
529.822	32824.33
530.023	32246.8
530.224	32680.97
530.425	32779.28
530.626	32566.29
530.828	32486.42
531.029	33248.26
531.23	32435.22
531.431	32803.85
531.632	33082.38
531.833	32885.77
532.035	33029.13
532.236	33729.53
532.437	33221.64
532.638	32887.82
532.839	33545.22
533.04	33391.62
533.241	33000.46
533.442	33942.52
533.643	33442.82
533.844	33467.39
534.045	33594.37
534.246	33240.07
534.447	33743.87
534.648	33604.61
534.849	33698.81
535.05	33352.71
535.251	33627.13
535.451	33240.07
535.652	33758.2
535.853	33797.12
536.054	33891.32
536.255	33688.57
536.456	33672.19
536.657	34124.79
536.857	33809.4
537.058	33692.67
537.259	33762.3
537.46	33815.55
537.66	33766.4
537.861	33913.85
538.062	33629.18
538.263	33930.23
538.463	33719.29
538.664	33471.49
538.865	33848.32
539.065	34270.2
539.266	33612.8
539.466	34323.44
539.667	33252.36
539.868	34202.61
540.068	33864.7
540.269	33852.41
540.469	34102.26
540.67	33608.7
540.87	33786.88
541.071	33807.36
541.271	33805.31
541.472	33729.53
541.672	33881.08
541.873	33831.93
542.073	33371.14
542.274	33842.17
542.474	33717.25
542.675	33754.11
542.875	33733.63
543.075	33743.87
543.276	33408
543.476	33942.52
543.676	33557.5
543.877	33893.37
544.077	33938.43
544.277	33569.79
544.478	33940.47
544.678	33948.67
544.878	33565.7
545.078	33737.73
545.279	33496.06
545.479	33553.41
545.679	33807.36
545.879	33784.83
546.079	33922.04
546.28	33600.51
546.48	33504.26
546.68	33903.61
546.88	33913.85
547.08	33584.13
547.28	33385.47
547.48	33549.31
547.68	33895.42
547.88	33614.85
548.081	33520.64
548.281	33694.72
548.481	34106.36
548.681	33909.75
548.881	33717.25
549.081	33465.35
549.28	33573.89
549.48	33874.94
549.68	33526.78
549.88	33778.68
550.08	33580.03
550.28	33600.51
550.48	33352.71
550.68	34094.07
550.88	33438.72
551.08	33668.09
551.279	33563.65
551.479	33631.23
551.679	33729.53
551.879	33616.9
552.079	34124.79
552.278	33223.69
552.478	33979.39
552.678	33504.26
552.878	33610.75
553.077	33463.3
553.277	32996.36
553.477	34087.93
553.676	33324.04
553.876	33653.76
554.076	33573.89
554.275	33141.77
554.475	32766.99
554.674	33192.97
554.874	33524.74
555.074	33428.48
555.273	33508.35
555.473	33573.89
555.672	33281.03
555.872	33205.25
556.071	33213.45
556.271	33131.53
556.47	32930.83
556.67	32736.27
556.869	33051.66
557.068	32779.28
557.268	32642.06
557.467	32853
557.667	32584.72
557.866	32754.7
558.065	32848.91
558.265	32850.95
558.464	32519.18
558.663	32979.98
558.863	32324.63
559.062	32977.93
559.261	31999
559.461	32799.76
559.66	32291.86
559.859	32424.98
560.058	32164.89
560.258	32144.41
560.457	31716.38
560.656	32171.03
560.855	31804.44
561.054	31966.23
561.253	31777.82
561.453	32070.68
561.652	31910.94
561.851	31943.7
562.05	31724.57
562.249	31429.66
562.448	32195.6
562.647	31751.2
562.846	31779.87
563.045	31996.95
563.244	31220.77
563.443	31747.1
563.642	30966.82
563.841	31220.77
564.04	31454.24
564.239	31165.48
564.438	31308.83
564.637	31304.74
564.836	31290.4
565.035	30762.03
565.234	31104.04
565.432	31030.31
565.631	30817.32
565.83	31128.61
566.029	30506.03
566.228	30796.84
566.427	30403.63
566.625	30483.5
566.824	29905.98
567.023	30659.63
567.222	29914.17
567.42	30577.71
567.619	30745.64
567.818	30346.29
568.016	30043.19
568.215	30448.69
568.414	29795.39
568.612	29862.97
568.811	29862.97
569.01	29920.31
569.208	29428.8
569.407	29981.75
569.605	29566.01
569.804	29615.16
570.002	29340.74
570.201	29686.84
570.4	29523.01
570.598	29213.76
570.797	28996.68
570.995	29097.03
571.193	28730.44
571.392	29178.95
571.59	28763.21
571.789	28953.67
571.987	28595.28
572.186	28902.47
572.384	28314.7
572.582	28609.61
572.781	28779.59
572.979	28159.06
573.177	28206.16
573.376	28288.08
573.574	27761.75
573.772	28066.9
573.971	27679.83
574.169	27704.41
574.367	27749.46
574.565	27472.99
574.763	27548.76
574.962	27485.28
575.16	27192.42
575.358	27466.84
575.556	26993.76
575.754	27532.38
575.952	26950.76
576.151	27221.09
576.349	26727.53
576.547	26592.36
576.745	26678.38
576.943	26725.48
577.141	26604.65
577.339	26948.71
577.537	26403.95
577.735	26356.85
577.933	26303.6
578.131	26211.44
578.329	26193.01
578.527	25898.1
578.725	25996.4
578.923	26025.07
579.121	25975.92
579.319	25681.02
579.516	25805.94
579.714	26023.03
579.912	25541.75
580.11	25574.52
580.308	25644.15
580.506	25535.61
580.704	25142.4
580.901	25119.87
581.099	25584.76
581.297	24931.46
581.495	24992.9
581.692	25146.5
581.89	24708.23
582.088	24708.23
582.285	24605.83
582.483	24704.14
582.681	24736.9
582.878	24437.9
583.076	24216.72
583.274	24485
583.471	24378.51
583.669	24190.09
583.866	24108.18
584.064	24046.74
584.262	23725.21
584.459	23796.88
584.657	23970.96
584.854	23970.96
585.052	23786.65
585.249	23846.04
585.447	23643.29
585.644	23338.14
585.841	23485.59
586.039	23665.81
586.236	23141.53
586.434	23647.38
586.631	23096.48
586.828	23018.66
587.026	23264.41
587.223	22959.27
587.42	22834.34
587.618	22750.37
587.815	22693.03
588.012	22793.38
588.21	22602.92
588.407	22803.62
588.604	22561.96
588.801	22473.9
588.999	22408.36
589.196	22396.07
589.393	22293.68
589.59	22019.25
589.787	22242.48
589.984	22144.17
590.182	21800.12
590.379	22027.44
590.576	21730.48
590.773	22033.58
590.97	21951.67
591.167	21974.19
591.364	21679.29
591.561	21775.54
591.758	21458.1
591.955	21593.27
592.152	21556.41
592.349	21042.37
592.546	21001.41
592.743	21437.62
592.94	20987.07
593.137	21241.02
593.334	20982.98
593.531	20968.64
593.727	20991.17
593.924	20835.52
594.121	20790.47
594.318	20937.92
594.515	20251.85
594.712	20880.58
594.908	20577.48
595.105	20475.08
595.302	20313.29
595.499	20081.87
595.696	20354.25
595.892	20137.16
596.089	20149.45
596.286	20253.9
596.482	20274.38
596.679	20051.15
596.876	20223.18
597.072	20319.43
597.269	20004.05
597.466	19670.23
597.662	19981.52
597.859	19760.34
598.055	19768.53
598.252	19631.32
598.448	19475.67
598.645	19338.46
598.841	19344.6
599.038	19664.08
599.234	19281.11
599.431	19125.47
599.627	18883.81
599.824	19092.7
600.02	19018.97
600.217	19152.09
600.413	18805.99
600.609	18818.27
600.806	18805.99
601.002	19023.07
601.198	18689.25
601.395	18549.99
601.591	18547.94
601.787	18627.81
601.984	18455.78
602.18	18545.89
602.376	18293.99
602.572	18318.57
602.769	18490.6
602.965	17906.93
603.161	18232.55
603.357	17833.2
603.553	17900.78
603.75	18234.6
603.946	17794.29
604.142	17665.27
604.338	17620.21
604.534	17818.86
604.73	17302.78
604.926	17358.07
605.122	17722.61
605.318	17507.57
605.514	17509.62
605.71	17396.98
605.906	17220.86
606.102	17315.06
606.298	17210.62
606.494	16907.52
606.69	17126.65
606.886	17116.41
607.082	16876.8
607.278	17095.93
607.474	16858.37
607.67	17065.21
607.866	16626.95
608.062	16936.19
608.257	16432.39
608.453	16592.13
608.649	16602.37
608.845	16626.95
609.041	16286.98
609.236	16424.2
609.432	16338.18
609.628	16209.16
609.824	16360.71
610.019	16182.54
610.215	16137.48
610.411	16301.32
610.606	15893.77
610.802	16153.87
610.998	15940.88
611.193	15994.12
611.389	15670.54
611.584	15691.02
611.78	15791.38
611.976	15861.01
612.171	15791.38
612.367	15781.14
612.562	15645.97
612.758	15387.93
612.953	15631.63
613.149	15678.74
613.344	15414.55
613.539	15484.18
613.735	15600.91
613.93	15377.69
614.126	15451.41
614.321	15412.5
614.517	15377.69
614.712	15078.68
614.907	15267.1
615.103	15537.43
615.298	15232.28
615.493	15232.28
615.688	15080.73
615.884	15351.06
616.079	14806.3
616.274	14966.04
616.47	14802.21
616.665	14957.85
616.86	14658.85
617.055	14939.42
617.25	14773.53
617.445	14896.41
617.641	14423.33
617.836	14933.28
618.031	14456.1
618.226	14589.22
618.421	14404.9
618.616	14327.08
618.811	14286.12
619.006	14564.64
619.201	14007.59
619.396	14239.01
619.591	14167.34
619.786	14259.49
619.981	13827.37
620.176	14140.71
620.371	13636.91
620.566	13829.42
620.761	13456.69
620.956	13831.47
621.151	13491.51
621.346	13645.1
621.541	13475.12
621.735	13471.03
621.93	13360.44
622.125	13229.37
622.32	13043
622.515	13184.31
622.709	13016.38
622.904	13116.73
623.099	13030.71
623.294	13063.48
623.488	12678.46
623.683	12883.26
623.878	12492.1
624.072	12449.09
624.267	12633.41
624.462	12510.53
624.656	12184.9
624.851	12483.91
625.046	12344.64
625.24	12268.87
625.435	12066.12
625.629	12027.21
625.824	11746.64
626.018	11910.47
626.213	11634
626.407	11851.08
626.602	11685.2
626.796	11836.75
626.991	11457.87
627.185	11394.39
627.38	11547.98
627.574	11511.12
627.768	11306.32
627.963	11291.99
628.157	11083.09
628.352	11308.37
628.546	11115.86
628.74	11224.4
628.935	10964.31
629.129	10900.83
629.323	10753.37
629.517	10882.39
629.712	10777.95
629.906	10685.79
630.1	10696.03
630.294	10655.07
630.489	10810.72
630.683	10657.12
630.877	10229.09
631.071	10464.61
631.265	10354.02
631.459	10046.82
631.653	10214.76
631.848	9966.95
632.042	10075.49
632.236	10018.15
632.43	10075.49
632.624	9887.08
632.818	9799.02
633.012	10063.21
633.206	9866.6
633.4	9923.94
633.594	9631.09
633.788	9622.89
633.982	9678.19
634.176	9674.09
634.369	9463.15
634.563	9469.3
634.757	9512.3
634.951	9448.82
635.145	9342.32
635.339	9321.84
635.533	9229.68
635.726	9321.84
635.92	9264.5
636.114	9330.03
636.308	9049.46
636.501	9088.37
636.695	8875.38
636.889	8705.4
637.083	8998.26
637.276	8787.32
637.47	8715.64
637.664	8732.03
637.857	8588.67
638.051	8680.83
638.244	8613.24
638.438	8600.96
638.632	8430.98
638.825	8482.17
639.019	8428.93
639.212	8201.6
639.406	8412.54
639.599	8222.08
639.793	8187.27
639.986	7990.66
640.18	8045.96
640.373	8142.21
640.567	8039.81
640.76	7945.61
640.954	7886.22
641.147	7914.89
641.34	7972.23
641.534	7888.26
641.727	7751.05
641.92	7658.89
642.114	7689.61
642.307	7740.81
642.5	7486.86
642.694	7359.89
642.887	7466.38
643.08	7595.4
643.273	7468.43
643.467	7234.96
643.66	7222.67
643.853	7318.93
644.046	7073.17
644.239	7167.38
644.432	7366.03
644.626	7058.84
644.819	7001.49
645.012	6946.2
645.205	6946.2
645.398	6907.29
645.591	6929.81
645.784	6749.59
645.977	6905.24
646.17	6800.79
646.363	6651.29
646.556	6712.73
646.749	6669.72
646.942	6729.11
647.135	6630.81
647.328	6526.36
647.521	6618.52
647.714	6509.98
647.907	6260.13
648.099	6313.38
648.292	6538.65
648.485	6372.77
648.678	6299.04
648.871	6229.41
649.064	6208.93
649.256	6239.65
649.449	6153.63
649.642	6036.9
649.835	6143.39
650.027	5905.83
650.22	6096.29
650.413	5903.78
650.605	5860.77
650.798	5942.69
650.991	5780.9
651.183	5807.53
651.376	5731.75
651.568	5741.99
651.761	5631.4
651.954	5602.73
652.146	5539.24
652.339	5567.92
652.531	5549.48
652.724	5561.77
652.916	5420.46
653.109	5422.51
653.301	5418.41
653.494	5506.48
653.686	5381.55
653.879	5359.02
654.071	5338.54
654.263	5307.82
654.456	5166.51
654.648	5320.11
654.84	5096.88
655.033	5121.46
655.225	5125.55
655.417	5113.27
655.61	5201.33
655.802	5168.56
655.994	4869.56
656.186	5037.49
656.379	4887.99
656.571	4898.23
656.763	4824.5
656.955	4949.43
657.148	4861.37
657.34	4736.44
657.532	4771.26
657.724	4670.9
657.916	4572.6
658.108	4709.82
658.3	4523.45
658.492	4494.78
658.684	4584.89
658.876	4500.92
659.068	4521.4
659.26	4472.25
659.452	4601.27
659.644	4416.96
659.836	4425.15
660.028	4433.34
660.22	4308.41
660.412	4265.41
660.604	4158.91
660.796	4285.89
660.988	4220.35
661.18	4109.76
661.372	4210.11
661.563	4228.54
661.755	4072.9
661.947	4120
662.139	4120
662.331	4089.28
662.522	4054.47
662.714	3915.2
662.906	3997.12
663.097	3947.97
663.289	3947.97
663.481	3939.78
663.673	4029.89
663.864	3706.31
664.056	3866.05
664.247	3845.57
664.439	3734.98
664.631	3808.71
664.822	3808.71
665.014	3741.13
665.205	3876.29
665.397	3630.54
665.588	3763.65
665.78	3675.59
665.971	3665.35
666.163	3710.41
666.354	3632.58
666.546	3454.41
666.737	3505.61
666.929	3505.61
667.12	3542.47
667.311	3411.4
667.503	3478.99
667.694	3505.61
667.885	3284.43
668.077	3458.51
668.268	3390.92
668.459	3481.03
668.651	3233.23
668.842	3435.98
669.033	3454.41
669.224	3345.87
669.416	3337.68
669.607	3337.68
669.798	3227.09
669.989	3288.53
670.18	3315.15
670.371	3268.05
670.563	3245.52
670.754	3173.84
670.945	3243.47
671.136	3093.97
671.327	3210.7
671.518	3194.32
671.709	3069.39
671.9	3128.78
672.091	3253.71
672.282	3167.7
672.473	2999.76
672.664	2991.57
672.855	3018.19
673.046	3001.81
673.237	3005.91
673.428	3071.44
673.619	2969.04
673.809	3050.96
674	3057.11
674.191	2993.62
674.382	2909.65
674.573	2889.17
674.764	3081.68
674.954	2868.69
675.145	2926.04
675.336	2835.92
675.527	3014.1
675.717	2837.97
675.908	2948.56
676.099	2866.64
676.289	2852.31
676.48	2956.75
676.671	2842.07
676.861	2831.83
677.052	2688.47
677.243	2815.45
677.433	2747.86
677.624	2797.01
677.814	2663.9
678.005	2743.77
678.195	2819.54
678.386	2788.82
678.576	2659.8
678.767	2680.28
678.957	2672.09
679.148	2637.27
679.338	2618.84
679.529	2713.05
679.719	2571.74
679.909	2762.2
680.1	2620.89
680.29	2647.51
680.481	2571.74
680.671	2622.94
680.861	2741.72
681.052	2692.57
681.242	2563.54
681.432	2704.85
681.622	2612.7
681.813	2473.43
682.003	2612.7
682.193	2672.09
682.383	2481.63
682.573	2700.76
682.764	2514.39
682.954	2532.83
683.144	2532.83
683.334	2577.88
683.524	2493.91
683.714	2463.19
683.904	2514.39
684.094	2465.24
684.284	2450.91
684.474	2579.93
684.664	2532.83
684.854	2487.77
685.044	2493.91
685.234	2434.52
685.424	2547.16
685.614	2596.31
685.804	2434.52
685.994	2452.95
686.184	2463.19
686.374	2442.71
686.564	2440.67
686.753	2489.82
686.943	2442.71
687.133	2360.8
687.323	2448.86
687.513	2465.24
687.702	2502.11
687.892	2481.63
688.082	2440.67
688.272	2317.79
688.461	2518.49
688.651	2358.75
688.841	2485.72
689.03	2412
689.22	2387.42
689.41	2397.66
689.599	2465.24
689.789	2336.22
689.979	2338.27
690.168	2330.08
690.358	2334.17
690.547	2416.09
690.737	2479.58
690.926	2403.8
691.116	2272.73
691.305	2422.24
691.495	2434.52
691.684	2280.93
691.874	2391.52
692.063	2317.79
692.252	2291.17
692.442	2301.4
692.631	2242.01
692.82	2336.22
693.01	2270.69
693.199	2258.4
693.388	2342.36
693.578	2342.36
693.767	2452.95
693.956	2303.45
694.146	2440.67
694.335	2350.56
694.524	2188.77
694.713	2391.52
694.902	2342.36
695.092	2452.95
695.281	2389.47
695.47	2350.56
695.659	2196.96
695.848	2321.88
696.037	2162.14
696.226	2371.04
696.415	2325.98
696.604	2362.84
696.793	2244.06
696.982	2311.64
697.171	2319.84
697.36	2235.87
697.549	2252.25
697.738	2262.49
697.927	2246.11
698.116	2338.27
698.305	2287.07
698.494	2244.06
698.683	2305.5
698.872	2276.83
699.061	2311.64
699.25	2246.11
699.438	2225.63
699.627	2270.69
699.816	2321.88
700.005	2334.17
700.193	2328.03
700.382	2422.24
700.571	2303.45
700.76	2285.02
700.948	2319.84
701.137	2358.75
701.326	2285.02
701.514	2270.69
701.703	2342.36
701.892	2174.43
702.08	2287.07
702.269	2205.15
702.457	2149.86
702.646	2121.18
702.834	2332.12
703.023	2266.59
703.212	2258.4
703.4	2231.77
703.589	2225.63
703.777	2221.53
703.965	2215.39
704.154	2203.1
704.342	2262.49
704.531	2244.06
704.719	2145.76
704.907	2237.92
705.096	2133.47
705.284	2285.02
705.472	2188.77
705.661	2088.42
705.849	2192.86
706.037	2080.22
706.226	2072.03
706.414	2129.38
706.602	2076.13
706.79	2182.62
706.979	2213.34
707.167	2026.98
707.355	2072.03
707.543	2106.85
707.731	2057.7
707.919	2074.08
708.107	2182.62
708.296	2051.55
708.484	2108.9
708.672	2031.07
708.86	2080.22
709.048	1938.91
709.236	2043.36
709.424	1969.63
709.612	1983.97
709.8	2008.55
709.988	2059.74
710.176	1998.31
710.364	1998.31
710.551	1953.25
710.739	1924.58
710.927	2055.65
711.115	1953.25
711.303	2059.74
711.491	1957.35
711.679	2006.5
711.866	1953.25
712.054	1971.68
712.242	1934.82
712.43	2033.12
712.617	1867.24
712.805	1895.91
712.993	1895.91
713.181	1871.33
713.368	1967.59
713.556	1990.11
713.744	1867.24
713.931	1883.62
714.119	1836.52
714.306	1938.91
714.494	1953.25
714.682	1877.48
714.869	1863.14
715.057	1897.96
715.244	1873.38
715.432	1842.66
715.619	1801.7
715.807	1840.61
715.994	1752.55
716.182	1826.28
716.369	1762.79
716.556	1805.8
716.744	1871.33
716.931	1687.01
717.119	1836.52
717.306	1797.6
717.493	1863.14
717.681	1750.5
717.868	1756.65
718.055	1752.55
718.242	1689.06
718.43	1732.07
718.617	1730.02
718.804	1725.93
718.991	1615.34
719.179	1695.21
719.366	1650.15
719.553	1601
719.74	1574.38
719.927	1609.19
720.114	1695.21
720.301	1648.1
720.488	1564.14
720.676	1672.68
720.863	1611.24
721.05	1662.44
721.237	1635.82
721.424	1697.25
721.611	1682.92
721.798	1545.7
721.985	1709.54
722.172	1590.76
722.358	1478.12
722.545	1560.04
722.732	1590.76
722.919	1551.85
723.106	1598.95
723.293	1517.03
723.48	1514.98
723.667	1465.83
723.853	1578.47
724.04	1521.13
724.227	1521.13
724.414	1492.46
724.6	1578.47
724.787	1498.6
724.974	1459.69
725.161	1476.07
725.347	1435.11
725.534	1523.18
725.72	1500.65
725.907	1428.97
726.094	1506.79
726.28	1445.35
726.467	1402.35
726.653	1404.39
726.84	1508.84
727.027	1467.88
727.213	1369.58
727.4	1539.56
727.586	1400.3
727.773	1359.34
727.959	1508.84
728.145	1410.54
728.332	1385.96
728.518	1410.54
728.705	1361.39
728.891	1361.39
729.077	1404.39
729.264	1418.73
729.45	1269.23
729.636	1314.28
729.823	1318.38
730.009	1377.77
730.195	1392.11
730.382	1355.24
730.568	1433.07
730.754	1320.43
730.94	1385.96
731.126	1367.53
731.313	1402.35
731.499	1371.63
731.685	1289.71
731.871	1318.38
732.057	1357.29
732.243	1287.66
732.429	1285.61
732.615	1371.63
732.801	1279.47
732.987	1314.28
733.173	1228.27
733.359	1277.42
733.545	1349.1
733.731	1322.48
733.917	1279.47
734.103	1269.23
734.289	1207.79
734.475	1285.61
734.661	1209.84
734.847	1304.04
735.033	1203.69
735.219	1295.85
735.404	1248.75
735.59	1201.65
735.776	1275.37
735.962	1197.55
736.148	1213.93
736.333	1252.84
736.519	1138.16
736.705	1215.98
736.89	1156.59
737.076	1148.4
737.262	1179.12
737.447	1242.61
737.633	1250.8
737.819	1222.13
738.004	1183.21
738.19	1138.16
738.375	1252.84
738.561	1203.69
738.747	1248.75
738.932	1230.32
739.118	1197.55
739.303	1140.21
739.489	1199.6
739.674	1080.82
739.859	1089.01
740.045	1089.01
740.23	1213.93
740.416	1134.06
740.601	1160.69
740.786	1086.96
740.972	1064.43
741.157	1103.34
741.342	1082.86
741.528	1058.29
741.713	1097.2
741.898	978.42
742.084	1043.95
742.269	1068.53
742.454	1050.1
742.639	1093.1
742.824	1103.34
743.01	1058.29
743.195	1017.33
743.38	1084.91
743.565	1023.47
743.75	1041.9
743.935	980.47
744.12	1039.86
744.305	925.17
744.49	1017.33
744.675	986.61
744.86	1033.71
745.045	972.27
745.23	1009.14
745.415	994.8
745.6	912.88
745.785	990.7
745.97	986.61
746.155	972.27
746.34	1017.33
746.525	964.08
746.71	1007.09
746.895	878.07
747.079	953.84
747.264	1043.95
747.449	929.27
747.634	884.21
747.819	951.79
748.003	890.35
748.188	988.66
748.373	959.99
748.557	947.7
748.742	810.48
748.927	869.87
749.111	845.3
749.296	863.73
749.481	869.87
749.665	851.44
749.85	906.74
750.034	839.16
750.219	830.96
750.404	847.35
750.588	794.1
750.773	767.48
750.957	873.97
751.141	916.98
751.326	781.81
751.51	790
751.695	728.56
751.879	718.33
752.064	818.68
752.248	796.15
752.432	820.72
752.617	810.48
752.801	835.06
752.985	751.09
753.17	744.95
753.354	753.14
753.538	769.52
753.722	712.18
753.907	779.76
754.091	699.89
754.275	667.13
754.459	607.73
754.643	683.51
754.828	747
755.012	691.7
755.196	638.45
755.38	695.8
755.564	665.08
755.748	683.51
755.932	738.8
756.116	718.33
756.3	652.79
756.484	716.28
756.668	699.89
756.852	624.12
757.036	648.69
757.22	681.46
757.404	613.88
757.588	640.5
757.772	685.56
757.956	638.45
758.14	626.17
758.323	605.69
758.507	572.92
758.691	611.83
758.875	544.25
759.059	558.58
759.242	566.78
759.426	626.17
759.61	607.73
759.794	613.88
759.977	599.54
760.161	566.78
760.345	677.37
760.528	638.45
760.712	572.92
760.895	583.16
761.079	636.41
761.263	601.59
761.446	591.35
761.63	519.67
761.813	542.2
761.997	640.5
762.18	507.38
762.364	564.73
762.547	509.43
762.731	587.26
762.914	505.34
763.098	527.86
763.281	536.06
763.464	585.21
763.648	493.05
763.831	495.1
764.015	540.15
764.198	581.11
764.381	550.39
764.564	544.25
764.748	527.86
764.931	478.71
765.114	587.26
765.297	566.78
765.481	462.33
765.664	558.58
765.847	527.86
766.03	470.52
766.213	484.86
766.397	550.39
766.58	452.09
766.763	542.2
766.946	491
767.129	491
767.312	517.62
767.495	460.28
767.678	472.57
767.861	556.54
768.044	462.33
768.227	454.14
768.41	491
768.593	525.82
768.776	560.63
768.959	429.56
769.142	464.38
769.324	472.57
769.507	544.25
769.69	452.09
769.873	439.8
770.056	624.12
770.239	433.66
770.421	540.15
770.604	462.33
770.787	462.33
770.97	531.96
771.152	413.18
771.335	413.18
771.518	454.14
771.7	409.08
771.883	423.42
772.066	415.23
772.248	538.1
772.431	400.89
772.613	386.55
772.796	411.13
772.978	478.71
773.161	480.76
773.343	435.71
773.526	437.75
773.708	429.56
773.891	384.51
774.073	411.13
774.256	441.85
774.438	400.89
774.621	452.09
774.803	540.15
774.985	351.74
775.168	488.95
775.35	372.22
775.532	433.66
775.715	384.51
775.897	390.65
776.079	364.03
776.261	364.03
776.444	392.7
776.626	464.38
776.808	361.98
776.99	388.6
777.173	398.84
777.355	335.35
777.537	372.22
777.719	357.88
777.901	345.59
778.083	327.16
778.265	394.75
778.447	394.75
778.629	361.98
778.811	296.44
778.993	312.83
779.175	331.26
779.357	286.2
779.539	343.55
779.721	323.07
779.903	376.31
780.085	275.96
780.267	275.96
780.449	357.88
780.631	296.44
780.812	304.64
780.994	306.68
781.176	329.21
781.358	296.44
781.54	306.68
781.721	304.64
781.903	327.16
782.085	290.3
782.267	298.49
782.448	257.53
782.63	339.45
782.812	280.06
782.993	308.73
783.175	312.83
783.357	290.3
783.538	296.44
783.72	220.67
783.901	275.96
784.083	222.72
784.264	253.44
784.446	271.87
784.627	257.53
784.809	288.25
784.99	241.15
785.172	263.68
785.353	261.63
785.535	275.96
785.716	247.29
785.897	206.33
786.079	249.34
786.26	314.88
786.441	196.09
786.623	251.39
786.804	214.52
786.985	169.47
787.167	261.63
787.348	218.62
787.529	265.72
787.71	241.15
787.891	216.57
788.073	335.35
788.254	153.09
788.435	294.4
788.616	212.48
788.797	204.28
788.978	245.24
789.159	192
789.34	232.96
789.522	265.72
789.703	206.33
789.884	241.15
790.065	294.4
790.246	269.82
790.427	171.52
790.607	161.28
790.788	302.59
790.969	286.2
791.15	267.77
791.331	241.15
791.512	269.82
791.693	151.04
791.874	239.1
792.054	169.47
792.235	228.86
792.416	177.66
792.597	241.15
792.778	173.57
792.958	179.71
793.139	196.09
793.32	132.61
793.5	185.85
793.681	241.15
793.862	136.7
794.042	208.38
794.223	151.04
794.404	159.23
794.584	212.48
794.765	220.67
794.945	245.24
795.126	177.66
795.306	165.37
795.487	183.81
795.667	177.66
795.848	155.13
796.028	194.05
796.209	232.96
796.389	173.57
796.57	110.08
796.75	179.71
796.93	148.99
797.111	136.7
797.291	153.09
797.471	216.57
797.652	132.61
797.832	112.13
798.012	241.15
798.192	148.99
798.373	196.09
798.553	126.46
798.733	114.17
798.913	187.9
799.093	138.75
799.274	165.37
799.454	228.86
799.634	93.69
799.814	122.37
799.994	110.08
800.174	185.85
800.354	194.05
800.534	163.33
800.714	136.7
800.894	134.65
801.074	97.79
801.254	163.33
801.434	136.7
801.614	97.79
801.794	173.57
801.974	400.89
802.154	71.17
802.334	151.04
802.514	157.18
802.693	140.8
802.873	120.32
803.053	122.37
803.233	75.26
803.413	142.85
803.592	181.76
803.772	134.65
803.952	189.95
804.131	108.03
804.311	140.8
804.491	136.7
804.67	93.69
804.85	134.65
805.03	134.65
805.209	196.09
805.389	103.93
805.568	48.64
805.748	153.09
805.928	192
806.107	108.03
806.287	112.13
806.466	81.41
806.646	148.99
806.825	73.21
807.004	122.37
807.184	50.69
807.363	122.37
807.543	134.65
807.722	73.21
807.901	116.22
808.081	103.93
808.26	3.58
808.439	97.79
808.619	140.8
808.798	93.69
808.977	75.26
809.156	101.89
809.336	85.5
809.515	138.75
809.694	67.07
809.873	144.89
810.052	93.69
810.231	169.47
810.411	52.74
810.59	142.85
810.769	95.74
810.948	126.46
811.127	105.98
811.306	120.32
811.485	73.21
811.664	194.05
811.843	24.06
812.022	67.07
812.201	83.45
812.38	50.69
812.559	108.03
812.737	144.89
812.916	110.08
813.095	114.17
813.274	71.17
813.453	73.21
813.632	69.12
813.811	75.26
813.989	77.31
814.168	65.02
814.347	52.74
814.526	89.6
814.704	99.84
814.883	89.6
815.062	26.11
815.24	105.98
815.419	58.88
815.598	151.04
815.776	52.74
815.955	91.65
816.133	85.5
816.312	81.41
816.49	146.94
816.669	89.6
816.847	99.84
817.026	128.51
817.204	79.36
817.383	62.98
817.561	101.89
817.74	81.41
817.918	62.98
818.097	105.98
818.275	85.5
818.453	103.93
818.632	114.17
818.81	91.65
818.988	1.54
819.167	89.6
819.345	65.02
819.523	122.37
819.701	56.83
819.879	130.56
820.058	81.41
820.236	73.21
820.414	157.18
820.592	7.68
820.77	65.02
820.948	91.65
821.127	7.68
821.305	22.02
821.483	-16.9
821.661	73.21
821.839	13.82
822.017	116.22
822.195	116.22
822.373	105.98
822.551	87.55
822.729	83.45
822.907	99.84
823.085	122.37
823.262	71.17
823.44	105.98
823.618	118.27
823.796	52.74
823.974	26.11
824.152	24.06
824.329	-2.56
824.507	101.89
824.685	116.22
824.863	138.75
825.04	108.03
825.218	110.08
825.396	28.16
825.574	83.45
825.751	93.69
825.929	148.99
826.107	44.54
826.284	93.69
826.462	110.08
826.639	97.79
826.817	24.06
826.994	65.02
827.172	48.64
827.349	105.98
827.527	138.75
827.704	50.69
827.882	7.68
828.059	40.45
828.237	42.5
828.414	65.02
828.591	44.54
828.769	105.98
828.946	44.54
829.124	44.54
829.301	1.54
829.478	32.26
829.655	52.74
829.833	-10.75
830.01	71.17
830.187	13.82
830.364	75.26
830.542	105.98
830.719	73.21
830.896	132.61
831.073	103.93
831.25	42.5
831.427	103.93
831.604	89.6
831.782	-72.19
831.959	67.07
832.136	15.87
832.313	71.17
832.49	69.12
832.667	19.97
832.844	46.59
833.021	97.79
833.198	34.3
833.374	67.07
833.551	54.78
833.728	95.74
833.905	73.21
834.082	34.3
834.259	5.63
834.436	38.4
834.612	44.54
834.789	83.45
834.966	52.74
835.143	77.31
835.319	-45.57
835.496	81.41
835.673	69.12
835.85	108.03
836.026	79.36
836.203	67.07
836.38	-2.56
836.556	28.16
836.733	58.88
836.909	-10.75
837.086	32.26
837.262	71.17
837.439	24.06
837.616	89.6
837.792	65.02
837.968	69.12
838.145	52.74
838.321	-0.51
838.498	79.36
838.674	30.21
838.851	24.06
839.027	32.26
839.203	67.07
839.38	81.41
839.556	93.69
839.732	38.4
839.909	-0.51
840.085	116.22
840.261	32.26
840.437	77.31
840.614	17.92
840.79	-0.51
840.966	11.78
841.142	83.45
841.318	52.74
841.494	110.08
841.671	95.74
841.847	32.26
842.023	-12.8
842.199	75.26
842.375	44.54
842.551	-14.85
842.727	71.17
842.903	30.21
843.079	32.26
843.255	44.54
843.431	60.93
843.607	56.83
843.783	11.78
843.959	9.73
844.134	44.54
844.31	110.08
844.486	5.63
844.662	-6.66
844.838	-4.61
845.013	67.07
845.189	52.74
845.365	28.16
845.541	13.82
845.716	-8.7
845.892	40.45
846.068	95.74
846.244	54.78
846.419	65.02
846.595	38.4
846.77	48.64
846.946	-10.75
847.122	50.69
847.297	36.35
847.473	34.3
847.648	13.82
847.824	83.45
847.999	-6.66
848.175	95.74
848.35	7.68
848.526	99.84
848.701	83.45
848.876	-25.09
849.052	62.98
849.227	87.55
849.403	17.92
849.578	-25.09
849.753	22.02
849.929	69.12
850.104	9.73
850.279	60.93
850.454	-0.51
850.63	91.65
850.805	75.26
850.98	65.02
851.155	26.11
851.33	-2.56
851.505	9.73
851.681	58.88
851.856	-25.09
852.031	89.6
852.206	22.02
852.381	15.87
852.556	-31.23
852.731	75.26
852.906	-33.28
853.081	73.21
853.256	34.3
853.431	83.45
853.606	17.92
853.781	3.58
853.956	-0.51
854.131	-49.66
854.305	-45.57
854.48	26.11
854.655	-8.7
854.83	-29.18
855.005	-16.9
855.18	52.74
855.354	-16.9
855.529	28.16
855.704	-31.23
855.879	32.26
856.053	108.03
856.228	26.11
856.403	9.73
856.577	-14.85
856.752	65.02
856.926	-16.9
857.101	-25.09
857.276	54.78
857.45	-16.9
857.625	-14.85
857.799	24.06
857.974	87.55
858.148	52.74
858.323	89.6
858.497	-96.77
858.672	-64
858.846	99.84
859.02	58.88
859.195	9.73
859.369	34.3
859.543	38.4
859.718	30.21
859.892	15.87
860.066	38.4
860.241	-0.51
860.415	-37.38
860.589	-31.23
860.763	15.87
860.938	-41.47
861.112	46.59
861.286	-10.75
861.46	42.5
861.634	-14.85
861.808	1.54
861.982	-57.86
862.157	-20.99
862.331	-18.94
862.505	11.78
862.679	-8.7
862.853	-0.51
863.027	56.83
863.201	77.31
863.375	-20.99
863.549	7.68
863.722	-6.66
863.896	30.21
864.07	-23.04
864.244	-31.23
864.418	44.54
864.592	3.58
864.766	-16.9
864.939	-47.62
865.113	46.59
865.287	-25.09
865.461	81.41
865.634	73.21
865.808	56.83
865.982	22.02
866.156	19.97
866.329	-29.18
866.503	48.64
866.676	79.36
866.85	-33.28
867.024	-33.28
867.197	26.11
867.371	89.6
867.544	11.78
867.718	-29.18
867.891	52.74
868.065	-33.28
868.238	9.73
868.412	-16.9
868.585	73.21
868.759	-16.9
868.932	-16.9
869.105	9.73
869.279	-29.18
869.452	13.82
869.625	26.11
869.799	24.06
869.972	24.06
870.145	42.5
870.319	-0.51
870.492	24.06
870.665	-12.8
870.838	3.58
871.011	24.06
871.185	30.21
871.358	13.82
871.531	-14.85
871.704	60.93
871.877	7.68
872.05	32.26
872.223	48.64
872.396	-80.38
872.569	67.07
872.742	-8.7
872.915	11.78
873.088	30.21
873.261	22.02
873.434	32.26
873.607	9.73
873.78	19.97
873.953	-23.04
874.126	15.87
874.299	30.21
874.471	-20.99
874.644	-0.51
874.817	26.11
874.99	-25.09
875.163	44.54
875.335	38.4
875.508	19.97
875.681	24.06
875.853	1.54
876.026	75.26
876.199	-0.51
876.371	-14.85
876.544	-43.52
876.717	7.68
876.889	-16.9
877.062	-8.7
877.234	17.92
877.407	40.45
877.579	-23.04
877.752	-2.56
877.924	34.3
878.097	24.06
878.269	-31.23
878.442	36.35
878.614	-6.66
878.786	-16.9
878.959	-14.85
879.131	-8.7
879.303	-8.7
879.476	-33.28
879.648	34.3
879.82	65.02
879.993	-27.14
880.165	71.17
880.337	5.63
880.509	13.82
880.681	3.58
880.854	36.35
881.026	36.35
881.198	56.83
881.37	9.73
881.542	19.97
881.714	71.17
881.886	24.06
882.058	56.83
882.23	7.68
882.402	-20.99
882.574	-12.8
882.746	85.5
882.918	-8.7
883.09	15.87
883.262	9.73
883.434	9.73
883.606	24.06
883.778	-64
883.95	44.54
884.122	-66.05
884.293	-29.18
884.465	-20.99
884.637	69.12
884.809	-53.76
884.98	-4.61
885.152	15.87
885.324	-23.04
885.496	-33.28
885.667	-12.8
885.839	38.4
886.011	32.26
886.182	-14.85
886.354	17.92
886.525	-72.19
886.697	91.65
886.869	-31.23
887.04	-20.99
887.212	40.45
887.383	40.45
887.555	-10.75
887.726	75.26
887.897	24.06
888.069	50.69
888.24	17.92
888.412	26.11
888.583	-41.47
888.754	17.92
888.926	58.88
889.097	71.17
889.268	-76.29
889.44	60.93
889.611	15.87
889.782	15.87
889.953	-29.18
890.125	-12.8
890.296	1.54
890.467	-23.04
890.638	19.97
890.809	11.78
890.98	60.93
891.151	38.4
891.323	9.73
891.494	75.26
891.665	-35.33
891.836	56.83
892.007	-20.99
892.178	38.4
892.349	-39.42
892.52	15.87
892.691	-6.66
892.862	36.35
893.032	36.35
893.203	-23.04
893.374	15.87
893.545	-49.66
893.716	101.89
893.887	1.54
894.057	-8.7
894.228	69.12
894.399	15.87
894.57	11.78
894.74	-39.42
894.911	58.88
895.082	-37.38
895.253	-27.14
895.423	-47.62
895.594	67.07
895.764	13.82
895.935	24.06
896.106	-14.85
896.276	-16.9
896.447	32.26
896.617	-33.28
896.788	-2.56
896.958	-18.94
897.129	-47.62
897.299	46.59
897.47	28.16
897.64	-16.9
897.81	97.79
897.981	-12.8
898.151	13.82
898.322	17.92
898.492	99.84
898.662	-31.23
898.832	7.68
899.003	28.16
899.173	26.11
899.343	24.06
899.513	-2.56
