Data from USB4F104151__259__14-01-41-944.txt Node

Date: Thu Mar 13 14:01:41 EDT 2025
User: louis
Spectrometer: USB4F10415
Trigger mode: 4
Integration Time (sec): 1.000000E-2
Scans to average: 1
Electric dark correction enabled: true
Nonlinearity correction enabled: false
Boxcar width: 0
XAxis mode: Wavelengths
Number of Pixels in Spectrum: 3648
>>>>>Begin Spectral Data<<<<<
178.204	-41.64
178.424	-41.64
178.644	-41.64
178.864	-43.69
179.084	-86.7
179.304	60.76
179.524	3.41
179.744	13.65
179.964	-12.97
180.184	40.28
180.404	-21.16
180.624	21.84
180.844	-64.17
181.064	-12.97
181.283	-39.59
181.503	-25.26
181.723	36.18
181.943	-72.36
182.163	68.95
182.383	-29.35
182.602	38.23
182.822	-0.68
183.042	11.61
183.262	-19.11
183.482	32.08
183.701	-25.26
183.921	87.38
184.141	5.46
184.361	62.8
184.58	13.65
184.8	-25.26
185.02	-21.16
185.239	-12.97
185.459	-2.73
185.679	11.61
185.898	27.99
186.118	-29.35
186.338	19.8
186.557	-2.73
186.777	13.65
186.997	-82.6
187.216	-29.35
187.436	5.46
187.655	-53.93
187.875	-19.11
188.095	7.51
188.314	-0.68
188.534	-2.73
188.753	11.61
188.973	-86.7
189.192	21.84
189.412	79.19
189.631	-8.87
189.851	-72.36
190.07	13.65
190.29	-27.31
190.509	-2.73
190.729	56.66
190.948	-19.11
191.168	-12.97
191.387	50.52
191.607	7.51
191.826	-23.21
192.045	-19.11
192.265	-25.26
192.484	-19.11
192.704	-8.87
192.923	-62.12
193.142	36.18
193.362	19.8
193.581	52.56
193.8	-10.92
194.02	32.08
194.239	-35.5
194.458	42.32
194.678	-0.68
194.897	-12.97
195.116	52.56
195.335	54.61
195.555	60.76
195.774	-43.69
195.993	13.65
196.212	11.61
196.432	-17.07
196.651	19.8
196.87	7.51
197.089	5.46
197.308	-78.51
197.528	25.94
197.747	3.41
197.966	-12.97
198.185	9.56
198.404	40.28
198.623	-15.02
198.842	52.56
199.062	56.66
199.281	71
199.5	48.47
199.719	32.08
199.938	-6.83
200.157	15.7
200.376	-49.83
200.595	52.56
200.814	-10.92
201.033	-4.78
201.252	52.56
201.471	46.42
201.69	21.84
201.909	-12.97
202.128	11.61
202.347	68.95
202.566	-29.35
202.785	64.85
203.004	-84.65
203.223	85.33
203.442	-29.35
203.661	3.41
203.879	-15.02
204.098	-66.22
204.317	-19.11
204.536	-0.68
204.755	-76.46
204.974	25.94
205.193	46.42
205.411	48.47
205.63	44.37
205.849	-10.92
206.068	-10.92
206.287	11.61
206.505	11.61
206.724	7.51
206.943	-47.79
207.162	21.84
207.381	-15.02
207.599	-4.78
207.818	11.61
208.037	62.8
208.255	13.65
208.474	11.61
208.693	-10.92
208.911	-8.87
209.13	21.84
209.349	54.61
209.567	-31.4
209.786	64.85
210.005	75.09
210.223	66.9
210.442	15.7
210.661	7.51
210.879	-27.31
211.098	5.46
211.316	-17.07
211.535	-21.16
211.753	-2.73
211.972	23.89
212.191	-35.5
212.409	-6.83
212.628	-58.03
212.846	11.61
213.065	17.75
213.283	-21.16
213.502	-37.55
213.72	7.51
213.938	11.61
214.157	81.24
214.375	-2.73
214.594	27.99
214.812	-10.92
215.031	-12.97
215.249	-21.16
215.467	13.65
215.686	-6.83
215.904	44.37
216.122	-12.97
216.341	99.67
216.559	-78.51
216.778	-12.97
216.996	46.42
217.214	7.51
217.432	-33.45
217.651	-6.83
217.869	-2.73
218.087	-29.35
218.306	68.95
218.524	-12.97
218.742	-33.45
218.96	60.76
219.179	-55.98
219.397	-45.74
219.615	13.65
219.833	11.61
220.051	-10.92
220.27	9.56
220.488	-21.16
220.706	23.89
220.924	-0.68
221.142	-12.97
221.36	30.04
221.578	-19.11
221.796	34.13
222.015	44.37
222.233	5.46
222.451	3.41
222.669	21.84
222.887	-21.16
223.105	89.43
223.323	3.41
223.541	-80.55
223.759	36.18
223.977	-8.87
224.195	64.85
224.413	52.56
224.631	54.61
224.849	23.89
225.067	36.18
225.285	-72.36
225.503	-10.92
225.721	-43.69
225.939	-27.31
226.157	-6.83
226.375	17.75
226.592	40.28
226.81	-62.12
227.028	103.76
227.246	11.61
227.464	-0.68
227.682	-43.69
227.9	54.61
228.117	-21.16
228.335	40.28
228.553	81.24
228.771	-31.4
228.989	-17.07
229.206	103.76
229.424	38.23
229.642	-51.88
229.86	-58.03
230.077	27.99
230.295	46.42
230.513	17.75
230.731	-0.68
230.948	48.47
231.166	1.37
231.384	85.33
231.601	-6.83
231.819	30.04
232.037	13.65
232.254	-29.35
232.472	25.94
232.689	32.08
232.907	27.99
233.125	60.76
233.342	85.33
233.56	-53.93
233.777	52.56
233.995	30.04
234.213	71
234.43	-31.4
234.648	-12.97
234.865	5.46
235.083	-29.35
235.3	-17.07
235.518	30.04
235.735	116.05
235.953	36.18
236.17	36.18
236.388	-17.07
236.605	-43.69
236.822	-70.31
237.04	56.66
237.257	-64.17
237.475	-25.26
237.692	60.76
237.909	50.52
238.127	-21.16
238.344	-29.35
238.562	-4.78
238.779	-35.5
238.996	-47.79
239.214	3.41
239.431	-33.45
239.648	36.18
239.865	21.84
240.083	44.37
240.3	-12.97
240.517	15.7
240.735	7.51
240.952	11.61
241.169	38.23
241.386	-12.97
241.603	7.51
241.821	15.7
242.038	36.18
242.255	-12.97
242.472	3.41
242.689	62.8
242.907	44.37
243.124	32.08
243.341	-0.68
243.558	11.61
243.775	40.28
243.992	66.9
244.209	-19.11
244.426	-39.59
244.643	83.28
244.86	-10.92
245.078	11.61
245.295	-53.93
245.512	46.42
245.729	-41.64
245.946	60.76
246.163	13.65
246.38	68.95
246.597	-2.73
246.814	19.8
247.031	-2.73
247.248	-33.45
247.464	-70.31
247.681	23.89
247.898	-27.31
248.115	11.61
248.332	3.41
248.549	-10.92
248.766	32.08
248.983	58.71
249.2	7.51
249.417	-0.68
249.633	-21.16
249.85	54.61
250.067	60.76
250.284	60.76
250.501	-10.92
250.717	36.18
250.934	-10.92
251.151	25.94
251.368	1.37
251.585	60.76
251.801	30.04
252.018	13.65
252.235	48.47
252.451	50.52
252.668	-35.5
252.885	9.56
253.102	52.56
253.318	-4.78
253.535	44.37
253.752	-92.84
253.968	15.7
254.185	-17.07
254.401	44.37
254.618	15.7
254.835	19.8
255.051	30.04
255.268	19.8
255.484	15.7
255.701	44.37
255.917	21.84
256.134	-17.07
256.351	91.48
256.567	-21.16
256.784	-45.74
257	19.8
257.217	77.14
257.433	-0.68
257.65	48.47
257.866	7.51
258.082	5.46
258.299	-8.87
258.515	-35.5
258.732	36.18
258.948	27.99
259.165	60.76
259.381	11.61
259.597	19.8
259.814	3.41
260.03	25.94
260.246	50.52
260.463	40.28
260.679	48.47
260.895	46.42
261.112	21.84
261.328	-6.83
261.544	-4.78
261.761	58.71
261.977	103.76
262.193	-62.12
262.409	3.41
262.626	-33.45
262.842	13.65
263.058	40.28
263.274	-62.12
263.49	60.76
263.707	68.95
263.923	5.46
264.139	34.13
264.355	30.04
264.571	-27.31
264.787	-27.31
265.004	27.99
265.22	-6.83
265.436	40.28
265.652	-6.83
265.868	25.94
266.084	38.23
266.3	19.8
266.516	23.89
266.732	19.8
266.948	-8.87
267.164	9.56
267.38	21.84
267.596	120.15
267.812	-41.64
268.028	11.61
268.244	7.51
268.46	-35.5
268.676	23.89
268.892	48.47
269.108	-2.73
269.324	50.52
269.54	3.41
269.756	66.9
269.972	-2.73
270.188	32.08
270.403	-17.07
270.619	75.09
270.835	3.41
271.051	-47.79
271.267	-4.78
271.483	7.51
271.698	-53.93
271.914	-4.78
272.13	-10.92
272.346	-6.83
272.562	40.28
272.777	42.32
272.993	68.95
273.209	-66.22
273.425	50.52
273.64	27.99
273.856	-21.16
274.072	11.61
274.287	13.65
274.503	21.84
274.719	13.65
274.934	46.42
275.15	81.24
275.366	-6.83
275.581	13.65
275.797	11.61
276.012	-47.79
276.228	-43.69
276.444	32.08
276.659	36.18
276.875	-21.16
277.09	-12.97
277.306	-12.97
277.521	52.56
277.737	-21.16
277.952	-19.11
278.168	-49.83
278.383	-53.93
278.599	11.61
278.814	46.42
279.03	13.65
279.245	23.89
279.461	48.47
279.676	-4.78
279.892	-8.87
280.107	-2.73
280.322	-12.97
280.538	64.85
280.753	3.41
280.969	93.52
281.184	-33.45
281.399	83.28
281.615	25.94
281.83	5.46
282.045	-0.68
282.26	-10.92
282.476	42.32
282.691	9.56
282.906	32.08
283.122	32.08
283.337	44.37
283.552	-21.16
283.767	3.41
283.983	21.84
284.198	42.32
284.413	36.18
284.628	58.71
284.843	27.99
285.058	23.89
285.274	-21.16
285.489	64.85
285.704	97.62
285.919	46.42
286.134	-23.21
286.349	50.52
286.564	44.37
286.779	5.46
286.995	11.61
287.21	-60.07
287.425	44.37
287.64	3.41
287.855	66.9
288.07	7.51
288.285	19.8
288.5	56.66
288.715	111.96
288.93	21.84
289.145	-10.92
289.36	-6.83
289.575	5.46
289.79	68.95
290.004	15.7
290.219	75.09
290.434	13.65
290.649	46.42
290.864	23.89
291.079	11.61
291.294	13.65
291.509	66.9
291.724	11.61
291.938	-6.83
292.153	52.56
292.368	-4.78
292.583	83.28
292.798	-12.97
293.012	5.46
293.227	3.41
293.442	34.13
293.657	-47.79
293.871	89.43
294.086	48.47
294.301	3.41
294.516	11.61
294.73	23.89
294.945	7.51
295.16	13.65
295.374	-10.92
295.589	-4.78
295.804	7.51
296.018	-10.92
296.233	44.37
296.447	-51.88
296.662	5.46
296.877	-25.26
297.091	38.23
297.306	46.42
297.52	-70.31
297.735	11.61
297.949	44.37
298.164	60.76
298.378	27.99
298.593	21.84
298.807	-12.97
299.022	38.23
299.236	9.56
299.451	36.18
299.665	56.66
299.88	-2.73
300.094	40.28
300.309	40.28
300.523	27.99
300.737	19.8
300.952	11.61
301.166	38.23
301.381	-19.11
301.595	-12.97
301.809	101.72
302.024	97.62
302.238	-17.07
302.452	5.46
302.667	58.71
302.881	77.14
303.095	-6.83
303.309	9.56
303.524	25.94
303.738	-10.92
303.952	-17.07
304.166	5.46
304.381	25.94
304.595	87.38
304.809	30.04
305.023	21.84
305.237	-2.73
305.452	60.76
305.666	40.28
305.88	3.41
306.094	38.23
306.308	44.37
306.522	-4.78
306.736	21.84
306.95	-25.26
307.164	13.65
307.379	-0.68
307.593	7.51
307.807	27.99
308.021	15.7
308.235	48.47
308.449	54.61
308.663	-84.65
308.877	36.18
309.091	-0.68
309.305	11.61
309.519	64.85
309.733	56.66
309.947	-10.92
310.161	7.51
310.374	68.95
310.588	27.99
310.802	-19.11
311.016	-2.73
311.23	-4.78
311.444	58.71
311.658	3.41
311.872	30.04
312.085	11.61
312.299	32.08
312.513	32.08
312.727	21.84
312.941	-29.35
313.154	-19.11
313.368	-2.73
313.582	11.61
313.796	-19.11
314.009	46.42
314.223	-27.31
314.437	3.41
314.651	52.56
314.864	17.75
315.078	73.04
315.292	-6.83
315.505	25.94
315.719	48.47
315.933	23.89
316.146	9.56
316.36	46.42
316.573	-12.97
316.787	-8.87
317.001	11.61
317.214	19.8
317.428	38.23
317.641	-15.02
317.855	-4.78
318.068	3.41
318.282	68.95
318.495	52.56
318.709	-21.16
318.922	3.41
319.136	-41.64
319.349	42.32
319.563	23.89
319.776	23.89
319.99	11.61
320.203	-60.07
320.417	58.71
320.63	-12.97
320.843	46.42
321.057	7.51
321.27	-17.07
321.483	36.18
321.697	5.46
321.91	13.65
322.124	-10.92
322.337	60.76
322.55	-8.87
322.763	27.99
322.977	9.56
323.19	1.37
323.403	11.61
323.617	-8.87
323.83	19.8
324.043	7.51
324.256	48.47
324.469	11.61
324.683	-0.68
324.896	-4.78
325.109	7.51
325.322	7.51
325.535	11.61
325.748	73.04
325.962	-21.16
326.175	17.75
326.388	48.47
326.601	56.66
326.814	19.8
327.027	-29.35
327.24	27.99
327.453	-12.97
327.666	38.23
327.879	50.52
328.092	56.66
328.305	5.46
328.518	23.89
328.731	19.8
328.944	3.41
329.157	-21.16
329.37	-21.16
329.583	38.23
329.796	60.76
330.009	11.61
330.222	-6.83
330.435	15.7
330.648	19.8
330.861	32.08
331.073	-8.87
331.286	48.47
331.499	-6.83
331.712	17.75
331.925	73.04
332.138	32.08
332.35	27.99
332.563	3.41
332.776	27.99
332.989	81.24
333.202	79.19
333.414	38.23
333.627	-43.69
333.84	19.8
334.053	-12.97
334.265	1.37
334.478	50.52
334.691	30.04
334.903	-0.68
335.116	62.8
335.329	1.37
335.541	54.61
335.754	44.37
335.966	77.14
336.179	54.61
336.392	68.95
336.604	36.18
336.817	42.32
337.029	27.99
337.242	101.72
337.454	21.84
337.667	-2.73
337.88	7.51
338.092	5.46
338.305	1.37
338.517	-103.08
338.729	40.28
338.942	-21.16
339.154	-8.87
339.367	32.08
339.579	21.84
339.792	36.18
340.004	34.13
340.217	3.41
340.429	5.46
340.641	-2.73
340.854	-19.11
341.066	46.42
341.278	68.95
341.491	25.94
341.703	83.28
341.915	-12.97
342.128	52.56
342.34	17.75
342.552	-31.4
342.764	-12.97
342.977	85.33
343.189	23.89
343.401	52.56
343.613	23.89
343.826	118.1
344.038	34.13
344.25	-2.73
344.462	-33.45
344.674	38.23
344.886	-27.31
345.099	9.56
345.311	15.7
345.523	-4.78
345.735	19.8
345.947	-8.87
346.159	91.48
346.371	64.85
346.583	68.95
346.795	111.96
347.007	3.41
347.219	-80.55
347.431	9.56
347.643	-2.73
347.855	-2.73
348.067	58.71
348.279	32.08
348.491	52.56
348.703	75.09
348.915	27.99
349.127	52.56
349.339	-6.83
349.551	-45.74
349.763	44.37
349.975	30.04
350.187	11.61
350.399	77.14
350.61	-39.59
350.822	19.8
351.034	46.42
351.246	7.51
351.458	77.14
351.669	27.99
351.881	71
352.093	27.99
352.305	9.56
352.517	93.52
352.728	9.56
352.94	109.91
353.152	66.9
353.363	42.32
353.575	19.8
353.787	-25.26
353.999	46.42
354.21	27.99
354.422	23.89
354.633	5.46
354.845	-0.68
355.057	21.84
355.268	36.18
355.48	64.85
355.692	32.08
355.903	66.9
356.115	73.04
356.326	-10.92
356.538	52.56
356.749	73.04
356.961	111.96
357.172	-8.87
357.384	27.99
357.595	-37.55
357.807	-21.16
358.018	-58.03
358.23	13.65
358.441	-15.02
358.653	54.61
358.864	-41.64
359.075	30.04
359.287	-23.21
359.498	30.04
359.709	81.24
359.921	3.41
360.132	48.47
360.344	13.65
360.555	58.71
360.766	77.14
360.977	-39.59
361.189	50.52
361.4	25.94
361.611	-78.51
361.823	-35.5
362.034	93.52
362.245	-41.64
362.456	79.19
362.667	-17.07
362.879	5.46
363.09	71
363.301	9.56
363.512	-8.87
363.723	36.18
363.935	58.71
364.146	54.61
364.357	50.52
364.568	44.37
364.779	36.18
364.99	27.99
365.201	13.65
365.412	-12.97
365.623	-25.26
365.834	-29.35
366.045	42.32
366.256	-23.21
366.467	5.46
366.678	50.52
366.889	93.52
367.1	56.66
367.311	48.47
367.522	46.42
367.733	77.14
367.944	-25.26
368.155	-4.78
368.366	-41.64
368.577	114
368.788	32.08
368.999	23.89
369.209	85.33
369.42	52.56
369.631	44.37
369.842	3.41
370.053	79.19
370.264	11.61
370.474	93.52
370.685	27.99
370.896	44.37
371.107	52.56
371.317	48.47
371.528	17.75
371.739	87.38
371.95	62.8
372.16	93.52
372.371	3.41
372.582	54.61
372.792	-41.64
373.003	23.89
373.214	40.28
373.424	13.65
373.635	-0.68
373.846	36.18
374.056	-37.55
374.267	109.91
374.477	-6.83
374.688	19.8
374.898	30.04
375.109	27.99
375.319	46.42
375.53	-2.73
375.74	5.46
375.951	21.84
376.161	36.18
376.372	101.72
376.582	32.08
376.793	23.89
377.003	95.57
377.214	-35.5
377.424	36.18
377.635	73.04
377.845	-33.45
378.055	46.42
378.266	34.13
378.476	85.33
378.686	36.18
378.897	-2.73
379.107	15.7
379.317	48.47
379.528	-23.21
379.738	75.09
379.948	1.37
380.158	23.89
380.369	42.32
380.579	-4.78
380.789	42.32
380.999	27.99
381.21	11.61
381.42	142.68
381.63	32.08
381.84	-51.88
382.05	32.08
382.261	79.19
382.471	44.37
382.681	93.52
382.891	52.56
383.101	-8.87
383.311	75.09
383.521	15.7
383.731	9.56
383.941	25.94
384.151	-4.78
384.361	-10.92
384.571	-12.97
384.781	48.47
384.991	23.89
385.201	36.18
385.411	42.32
385.621	81.24
385.831	23.89
386.041	58.71
386.251	40.28
386.461	30.04
386.671	64.85
386.881	11.61
387.091	40.28
387.301	40.28
387.511	-76.46
387.72	52.56
387.93	-0.68
388.14	11.61
388.35	56.66
388.56	66.9
388.769	52.56
388.979	68.95
389.189	7.51
389.399	40.28
389.609	5.46
389.818	15.7
390.028	-12.97
390.238	-4.78
390.447	19.8
390.657	44.37
390.867	5.46
391.076	5.46
391.286	36.18
391.496	23.89
391.705	17.75
391.915	138.58
392.125	-53.93
392.334	68.95
392.544	23.89
392.753	3.41
392.963	11.61
393.172	25.94
393.382	11.61
393.591	60.76
393.801	-8.87
394.01	-10.92
394.22	-2.73
394.429	23.89
394.639	48.47
394.848	103.76
395.058	-10.92
395.267	68.95
395.477	34.13
395.686	-29.35
395.895	58.71
396.105	36.18
396.314	52.56
396.524	77.14
396.733	56.66
396.942	-6.83
397.152	107.86
397.361	-4.78
397.57	36.18
397.78	140.63
397.989	46.42
398.198	134.48
398.407	40.28
398.617	124.24
398.826	52.56
399.035	99.67
399.244	9.56
399.453	124.24
399.663	48.47
399.872	132.44
400.081	87.38
400.29	128.34
400.499	85.33
400.708	48.47
400.917	79.19
401.127	64.85
401.336	50.52
401.545	85.33
401.754	1.37
401.963	138.58
402.172	62.8
402.381	9.56
402.59	81.24
402.799	93.52
403.008	48.47
403.217	101.72
403.426	120.15
403.635	116.05
403.844	93.52
404.053	34.13
404.262	62.8
404.471	81.24
404.68	99.67
404.888	109.91
405.097	64.85
405.306	144.72
405.515	73.04
405.724	136.53
405.933	73.04
406.142	134.48
406.35	107.86
406.559	169.3
406.768	85.33
406.977	212.31
407.185	126.29
407.394	204.11
407.603	130.39
407.812	183.63
408.02	187.73
408.229	101.72
408.438	218.45
408.646	193.87
408.855	193.87
409.064	99.67
409.272	208.21
409.481	216.4
409.69	240.98
409.898	216.4
410.107	283.98
410.315	197.97
410.524	236.88
410.733	296.27
410.941	191.83
411.15	228.69
411.358	283.98
411.567	216.4
411.775	302.42
411.984	298.32
412.192	288.08
412.401	275.79
412.609	281.94
412.818	413.01
413.026	398.67
413.234	333.14
413.443	374.1
413.651	320.85
413.86	388.43
414.068	464.21
414.276	478.54
414.485	435.53
414.693	480.59
414.901	521.55
415.11	521.55
415.318	501.07
415.526	490.83
415.734	470.35
415.943	490.83
416.151	544.08
416.359	685.39
416.567	671.05
416.776	654.67
416.984	705.87
417.192	781.64
417.4	732.49
417.608	724.3
417.817	658.76
418.025	787.79
418.233	748.87
418.441	734.54
418.649	906.57
418.857	855.37
419.065	972.1
419.273	931.14
419.481	980.29
419.689	1060.17
419.897	1031.49
420.105	1127.75
420.313	1158.47
420.521	1174.85
420.729	1232.19
420.937	1295.68
421.145	1250.63
421.353	1393.98
421.561	1305.92
421.769	1324.35
421.977	1387.84
422.185	1436.99
422.393	1604.92
422.601	1574.21
422.809	1654.08
423.017	1713.47
423.224	1774.91
423.432	1908.02
423.64	1871.16
423.848	1895.74
424.056	1908.02
424.263	2014.52
424.471	2182.45
424.679	2086.2
424.887	2176.31
425.094	2217.27
425.302	2282.8
425.51	2334
425.718	2288.95
425.925	2563.37
426.133	2512.17
426.341	2620.72
426.548	2880.81
426.756	2897.19
426.964	2895.15
427.171	3093.8
427.379	3083.56
427.586	3208.48
427.794	3099.94
428.001	3335.46
428.209	3433.76
428.417	3407.14
428.624	3700
428.832	3925.27
429.039	3745.05
429.247	3620.13
429.454	3999
429.662	4265.24
429.869	3841.31
430.076	4357.39
430.284	4287.76
430.491	4343.06
430.699	4486.42
430.906	4613.39
431.114	4713.74
431.321	4994.31
431.528	5033.22
431.736	5354.76
431.943	5508.35
432.15	5295.36
432.358	5571.84
432.565	5768.45
432.772	5623.04
432.979	6046.97
433.187	6118.65
433.394	6266.1
433.601	6575.34
433.808	6685.94
434.016	6477.04
434.223	6929.64
434.43	7138.54
434.637	7118.06
434.844	7458.02
435.052	7619.81
435.259	7636.19
435.466	7736.54
435.673	7730.4
435.88	8080.6
436.087	8553.68
436.294	8574.16
436.501	8340.69
436.708	8482
436.915	9030.86
437.122	9194.7
437.329	9026.76
437.537	9456.84
437.743	9663.68
437.95	9563.33
438.157	10095.8
438.364	10116.28
438.571	10400.95
438.778	10304.7
438.985	11205.8
439.192	10833.07
439.399	11224.23
439.606	11076.78
439.813	11343.02
440.02	12375.19
440.227	12086.43
440.433	12170.4
440.64	12246.17
440.847	12283.03
441.054	12559.51
441.261	13591.69
441.467	13255.82
441.674	13554.82
441.881	14113.92
442.088	13988.99
442.294	13763.72
442.501	14177.4
442.708	14412.92
442.914	15178.86
443.121	15760.48
443.328	15125.61
443.534	16428.12
443.741	15703.14
443.948	15830.12
444.154	16913.49
444.361	16682.07
444.568	16931.92
444.774	16657.5
444.981	16845.91
445.187	17407.05
445.394	18050.11
445.6	17898.56
445.807	19704.87
446.013	18627.64
446.22	19094.58
446.426	19770.41
446.633	20233.25
446.839	20909.08
447.046	19958.82
447.252	21255.18
447.459	21130.26
447.665	20974.61
447.871	21855.24
448.078	22803.45
448.284	21957.64
448.491	22262.79
448.697	23297.01
448.903	23643.12
449.11	23804.91
449.316	23380.98
449.522	23530.48
449.728	24325.09
449.935	24484.83
450.141	24409.06
450.347	25086.93
450.553	24339.43
450.76	24191.97
450.966	25344.98
451.172	25017.3
451.378	25891.79
451.584	25005.02
451.791	25592.78
451.997	25641.93
452.203	26137.54
452.409	26090.44
452.615	25992.14
452.821	24765.4
453.027	24865.75
453.233	26110.92
453.44	24734.68
453.646	25553.87
453.852	25430.99
454.058	25656.27
454.264	24902.62
454.47	25535.44
454.676	24826.84
454.882	25734.09
455.088	23677.93
455.294	23872.49
455.5	23809
455.705	24411.1
455.911	23192.56
456.117	22778.87
456.323	22653.95
456.529	21552.14
456.735	22279.17
456.941	21873.67
457.147	21675.02
457.352	20747.29
457.558	20466.72
457.764	20562.97
457.97	20225.06
458.176	19588.14
458.381	19926.05
458.587	18887.73
458.793	18592.83
458.999	17970.24
459.204	19213.36
459.41	18566.2
459.616	17321.04
459.821	17558.6
460.027	17345.61
460.233	16962.64
460.438	16127.07
460.644	16174.17
460.85	15670.37
461.055	15301.74
461.261	15443.05
461.466	14111.87
461.672	13935.74
461.878	14705.78
462.083	13812.87
462.289	13442.18
462.494	13483.14
462.7	12653.72
462.905	12690.58
463.111	12670.1
463.316	12981.39
463.522	12876.94
463.727	12418.2
463.932	12756.11
464.138	12592.28
464.343	12846.23
464.549	12307.61
464.754	12680.34
464.959	12455.06
465.165	12520.6
465.37	11945.12
465.575	11656.36
465.781	12299.42
465.986	12201.12
466.191	11629.73
466.397	11461.8
466.602	10837.17
466.807	11547.81
467.012	11447.46
467.218	11324.58
467.423	11156.65
467.628	11109.55
467.833	11687.07
468.038	11435.17
468.244	10939.57
468.449	11486.37
468.654	10826.93
468.859	10927.28
469.064	11046.06
469.269	10597.56
469.474	10536.12
469.679	10917.04
469.885	10417.33
470.09	10570.93
470.295	10484.92
470.5	10364.09
470.705	10386.61
470.91	10142.91
471.115	9841.86
471.32	10046.65
471.525	10128.57
471.73	9929.92
471.935	9770.18
472.139	9569.48
472.344	9702.59
472.549	9698.5
472.754	9319.62
472.959	9080.01
473.164	8871.12
473.369	8864.97
473.574	9282.76
473.778	9090.25
473.983	9157.83
474.188	8938.7
474.393	8563.92
474.598	8719.57
474.802	8594.64
475.007	8543.44
475.212	8656.08
475.417	8352.98
475.621	8209.62
475.826	8557.78
476.031	8064.22
476.235	7933.15
476.44	7900.38
476.645	8000.73
476.849	7922.91
477.054	7959.77
477.259	7662.82
477.463	7859.42
477.668	7666.91
477.872	7601.38
478.077	7494.88
478.282	7376.1
478.486	7232.74
478.691	7253.22
478.895	7054.57
479.1	7111.91
479.304	7165.16
479.509	6964.46
479.713	7236.84
479.918	6724.85
480.122	6943.98
480.326	7019.75
480.531	7007.47
480.735	6872.3
480.94	6950.12
481.144	7068.91
481.348	6790.38
481.553	6821.1
481.757	6528.24
481.961	6825.2
482.166	6894.83
482.37	6782.19
482.574	6587.63
482.778	6790.38
482.983	6911.21
483.187	6663.41
483.391	6698.22
483.595	6624.5
483.8	6681.84
484.004	6687.98
484.208	6708.46
484.412	6653.17
484.616	6552.82
484.821	6601.97
485.025	6585.58
485.229	7011.56
485.433	6730.99
485.637	6583.54
485.841	6460.66
486.045	6636.78
486.249	6587.63
486.453	6718.7
486.657	6794.48
486.861	6679.79
487.065	6452.47
487.269	6606.06
487.473	6501.62
487.677	6675.7
487.881	6843.63
488.085	6630.64
488.289	6774
488.493	6737.13
488.697	6753.52
488.901	6530.29
489.105	6755.57
489.309	6819.05
489.512	6708.46
489.716	6759.66
489.92	6606.06
490.124	6857.96
490.328	6794.48
490.531	6819.05
490.735	6921.45
490.939	6892.78
491.143	6823.15
491.346	6903.02
491.55	7001.32
491.754	7073
491.958	7091.43
492.161	7001.32
492.365	7060.71
492.569	7169.26
492.772	7210.22
492.976	7140.58
493.18	7138.54
493.383	7236.84
493.587	7263.46
493.79	7441.64
493.994	7118.06
494.197	7363.81
494.401	7462.12
494.605	7488.74
494.808	7722.21
495.012	7843.04
495.215	7574.75
495.419	7634.14
495.622	7931.1
495.825	7834.85
496.029	8037.59
496.232	7998.68
496.436	8006.88
496.639	8338.65
496.843	8078.55
497.046	8312.02
497.249	8344.79
497.453	8498.39
497.656	8383.7
497.859	8408.28
498.063	8723.66
498.266	8760.53
498.469	8625.36
498.673	8889.55
498.876	8924.37
499.079	9067.72
499.282	9012.43
499.485	9407.69
499.689	9419.97
499.892	9450.69
500.095	9544.9
500.298	9782.46
500.501	9532.61
500.705	10142.91
500.908	10007.74
501.111	10214.59
501.314	10210.49
501.517	10316.98
501.72	10646.71
501.923	10595.51
502.126	10560.69
502.329	10914.99
502.532	10835.12
502.735	10908.85
502.938	11179.18
503.141	11213.99
503.344	11633.83
503.547	11556
503.75	11816.1
503.953	11963.55
504.156	11846.82
504.359	12170.4
504.562	12311.71
504.765	12379.29
504.968	12516.5
505.17	12917.9
505.373	12924.05
505.576	13038.73
505.779	13270.15
505.982	13159.56
506.185	13614.21
506.387	13712.52
506.59	13589.64
506.793	13843.59
506.996	13962.37
507.198	14648.44
507.401	14163.07
507.604	14466.17
507.807	14818.42
508.009	14812.28
508.212	14967.92
508.415	15346.8
508.617	15414.38
508.82	15520.87
509.022	15543.4
509.225	15897.7
509.428	15987.81
509.63	16260.19
509.833	16221.28
510.035	16757.85
510.238	16745.56
510.44	16774.23
510.643	17175.63
510.845	17253.45
511.048	17202.25
511.25	17374.28
511.453	17605.7
511.655	18340.93
511.858	18193.47
512.06	18342.97
512.262	18363.45
512.465	18408.51
512.667	18644.02
512.87	19006.52
513.072	19063.86
513.274	19797.03
513.477	19809.32
513.679	20108.32
513.881	20325.41
514.084	20395.04
514.286	20450.33
514.488	20726.81
514.69	21050.39
514.893	21117.97
515.095	21423.12
515.297	21804.04
515.499	22101
515.701	22242.31
515.904	22264.83
516.106	22283.27
516.308	22723.58
516.51	23290.87
516.712	23053.3
516.914	23491.57
517.116	23489.52
517.318	23913.45
517.52	23786.47
517.722	24187.88
517.925	24312.8
518.127	24847.32
518.329	25193.43
518.531	25134.04
518.733	25523.15
518.935	25678.8
519.136	25742.28
519.338	26545.09
519.54	26215.37
519.742	26360.77
519.944	26368.96
520.146	27341.75
520.348	27306.93
520.55	27327.41
520.752	27763.63
520.954	28154.79
521.155	27763.63
521.357	28418.98
521.559	28619.68
521.761	29049.75
521.963	28855.2
522.164	29205.4
522.366	29596.56
522.568	29856.65
522.77	29799.31
522.971	30301.06
523.173	30405.51
523.375	30604.16
523.576	30659.46
523.778	30663.55
523.98	31628.15
524.181	31245.18
524.383	31368.05
524.584	31642.48
524.786	31509.36
524.988	31515.51
525.189	32455.53
525.391	32125.8
525.592	32314.22
525.794	32691.04
525.995	32988
526.197	32795.49
526.398	32985.95
526.6	33473.37
526.801	33586
527.003	33444.69
527.204	33391.45
527.406	33700.69
527.607	34247.5
527.808	34208.59
528.01	33823.57
528.211	33942.35
528.412	34397
528.614	34544.45
528.815	34566.98
529.016	34941.76
529.218	34249.55
529.419	34614.09
529.62	34386.76
529.822	34747.2
530.023	34937.66
530.224	35013.44
530.425	34995.01
530.626	35052.35
530.828	34663.24
531.029	35437.37
531.23	35089.21
531.431	35357.5
531.632	35558.2
531.833	35414.84
532.035	35545.91
532.236	35560.25
532.437	35562.29
532.638	35337.02
532.839	36008.75
533.04	36012.85
533.241	35093.31
533.442	36109.1
533.643	36025.14
533.844	35859.25
534.045	35941.17
534.246	35986.22
534.447	36272.94
534.648	35609.4
534.849	35975.98
535.05	35797.81
535.251	36070.19
535.451	35906.35
535.652	36039.47
535.853	36088.62
536.054	35994.42
536.255	36115.25
536.456	35937.07
536.657	36727.59
536.857	36231.98
537.058	35914.55
537.259	36389.67
537.46	36309.8
537.66	36281.13
537.861	36236.08
538.062	36178.73
538.263	35992.37
538.463	36131.63
538.664	36199.21
538.865	36320.04
539.065	36297.52
539.266	36078.38
539.466	36354.86
539.667	35724.08
539.868	36846.37
540.068	35885.87
540.269	35988.27
540.469	36203.31
540.67	35822.39
540.87	36160.3
541.071	35906.35
541.271	36334.38
541.472	36350.76
541.672	36291.37
541.873	36121.39
542.073	36072.24
542.274	36604.71
542.474	36148.01
542.675	35859.25
542.875	36342.57
543.075	36123.44
543.276	35717.94
543.476	36584.23
543.676	35789.62
543.877	36150.06
544.077	36295.47
544.277	35996.46
544.478	35939.12
544.678	36131.63
544.878	35799.86
545.078	36352.81
545.279	35865.39
545.479	36086.57
545.679	36158.25
545.879	36123.44
546.079	36279.08
546.28	36021.04
546.48	35861.3
546.68	36041.52
546.88	36410.15
547.08	35900.21
547.28	36021.04
547.48	35836.72
547.68	36260.65
547.88	35990.32
548.081	35947.31
548.281	36401.96
548.481	35773.24
548.681	36373.29
548.881	36090.67
549.081	35996.46
549.28	35916.59
549.48	36027.18
549.68	36031.28
549.88	36590.38
550.08	36004.66
550.28	36125.49
550.48	36111.15
550.68	35908.4
550.88	35541.81
551.08	36109.1
551.279	36078.38
551.479	35535.67
551.679	36066.1
551.879	35945.26
552.079	36215.6
552.278	35613.49
552.478	36059.95
552.678	35842.87
552.878	35824.43
553.077	35922.74
553.277	35523.38
553.477	36152.11
553.676	35975.98
553.876	35963.7
554.076	35437.37
554.275	35908.4
554.475	35330.87
554.674	35775.28
554.874	35650.36
555.074	35758.9
555.273	35795.76
555.473	36021.04
555.672	35240.76
555.872	35523.38
556.071	35689.27
556.271	35443.51
556.47	35271.48
556.67	35330.87
556.869	35621.69
557.068	35208
557.268	35357.5
557.467	35552.05
557.667	35244.86
557.866	35154.75
558.065	35007.3
558.265	35093.31
558.464	35058.49
558.663	35296.06
558.863	34607.94
559.062	35152.7
559.261	34501.45
559.461	35113.79
559.66	34554.69
559.859	34626.37
560.058	34319.18
560.258	34583.37
560.457	34620.23
560.656	34835.27
560.855	34442.06
561.054	34618.18
561.253	34331.47
561.453	34421.58
561.652	34452.3
561.851	34722.63
562.05	34298.7
562.249	34227.02
562.448	34241.35
562.647	34073.42
562.846	34491.21
563.045	34419.53
563.244	33741.65
563.443	33952.59
563.642	33590.1
563.841	33778.51
564.04	33776.47
564.239	34057.04
564.438	33590.1
564.637	33696.6
564.836	33209.18
565.035	33143.64
565.234	33704.79
565.432	33467.22
565.631	33545.05
565.83	33110.88
566.029	33129.31
566.228	33098.59
566.427	33129.31
566.625	32936.8
566.824	32617.32
567.023	33112.92
567.222	32551.78
567.42	32879.46
567.619	32834.4
567.818	32580.45
568.016	32904.03
568.215	32906.08
568.414	32467.81
568.612	32627.56
568.811	32555.88
569.01	32406.37
569.208	32023.4
569.407	32293.74
569.605	31757.17
569.804	32318.31
570.002	31861.62
570.201	31886.19
570.4	31890.29
570.598	31724.4
570.797	31665.01
570.995	31486.84
571.193	31275.9
571.392	31806.32
571.59	31529.84
571.789	31077.24
571.987	31230.84
572.186	30823.29
572.384	30741.38
572.582	31083.39
572.781	30851.97
572.979	30559.11
573.177	31091.58
573.376	30657.41
573.574	30657.41
573.772	30464.9
573.971	30454.66
574.169	30245.77
574.367	30051.21
574.565	30403.46
574.763	29825.93
574.962	29756.3
575.16	29713.3
575.358	30202.76
575.556	29625.23
575.754	30139.27
575.952	29465.49
576.151	29653.9
576.349	29234.07
576.547	29275.03
576.745	29252.5
576.943	29492.12
577.141	29346.71
577.339	29369.24
577.537	29123.48
577.735	28875.68
577.933	28744.61
578.131	29031.32
578.329	28656.54
578.527	28535.71
578.725	28636.06
578.923	28847.01
579.121	28554.15
579.319	28425.12
579.516	28355.49
579.714	28193.7
579.912	27675.57
580.11	28095.4
580.308	28175.27
580.506	27720.62
580.704	27597.74
580.901	27661.23
581.099	27968.43
581.297	27581.36
581.495	27265.97
581.692	27610.03
581.89	27009.98
582.088	27360.18
582.285	27120.57
582.483	27257.78
582.681	27345.84
582.878	27014.07
583.076	26825.66
583.274	26852.28
583.471	26637.25
583.669	26682.3
583.866	26463.17
584.064	26637.25
584.262	26317.76
584.459	26923.96
584.657	26373.06
584.854	26454.98
585.052	26051.53
585.249	26250.18
585.447	26270.66
585.644	25842.63
585.841	26108.87
586.039	26299.33
586.236	25611.21
586.434	25502.67
586.631	25578.45
586.828	25441.23
587.026	25678.8
587.223	25551.82
587.42	25406.42
587.618	25381.84
587.815	25285.59
588.012	25078.74
588.21	25052.12
588.407	25297.88
588.604	24984.54
588.801	24710.11
588.999	24744.92
589.196	24554.46
589.393	24830.94
589.59	24464.35
589.787	24488.93
589.984	24505.31
590.182	24267.75
590.379	24431.58
590.576	24196.07
590.773	24437.73
590.97	24484.83
591.167	24327.14
591.364	23698.41
591.561	23921.64
591.758	23704.56
591.955	23833.58
592.152	23823.34
592.349	23624.68
592.546	23466.99
592.743	23655.4
592.94	23221.23
593.137	23604.21
593.334	23639.02
593.531	23081.97
593.727	23249.91
593.924	23401.46
594.121	22946.81
594.318	23256.05
594.515	22891.51
594.712	23147.51
594.908	22772.73
595.105	22838.26
595.302	22797.31
595.499	22846.46
595.696	22563.84
595.892	22248.45
596.089	22309.89
596.286	22537.21
596.482	22293.51
596.679	22283.27
596.876	22289.41
597.072	22090.76
597.269	22230.02
597.466	22037.51
597.662	22076.42
597.859	21871.62
598.055	22076.42
598.252	21660.68
598.448	21781.51
598.645	21941.25
598.841	21646.35
599.038	21408.78
599.234	21632.01
599.431	21330.96
599.627	21238.8
599.824	21431.31
600.02	21228.56
600.217	21167.12
600.413	21093.4
600.609	20816.92
600.806	20880.41
601.002	20933.65
601.198	20976.66
601.395	20413.47
601.591	20573.21
601.787	20876.31
601.984	20667.42
602.18	20892.69
602.376	20524.06
602.572	20433.95
602.769	20444.19
602.965	19969.06
603.161	20132.9
603.357	20153.38
603.553	20196.39
603.75	19967.01
603.946	20067.36
604.142	20128.8
604.338	19721.26
604.534	19563.56
604.73	19448.88
604.926	19590.19
605.122	19465.26
605.318	19532.84
605.514	19270.7
605.71	19211.31
605.906	19209.26
606.102	19067.95
606.298	19239.98
606.494	19072.05
606.69	19086.39
606.886	19049.52
607.082	18822.2
607.278	19135.54
607.474	18723.9
607.67	18814.01
607.866	18914.36
608.062	18902.07
608.257	18601.02
608.453	18455.61
608.649	18754.62
608.845	18492.48
609.041	18494.52
609.236	18400.32
609.432	18418.75
609.628	18299.97
609.824	18275.39
610.019	18281.53
610.215	18236.48
610.411	18211.9
610.606	17990.72
610.802	18207.81
610.998	17712.2
611.193	18039.87
611.389	17767.49
611.584	17749.06
611.78	17947.72
611.976	17894.47
612.171	17581.13
612.367	17652.81
612.562	17661
612.758	17292.37
612.953	17390.67
613.149	17740.87
613.344	17695.82
613.539	17667.14
613.735	17288.27
613.93	17620.04
614.126	17386.57
614.321	17362
614.517	17495.11
614.712	17212.49
614.907	17134.67
615.103	17439.82
615.298	16989.27
615.493	17052.75
615.688	16845.91
615.884	17181.78
616.079	16782.42
616.274	16979.03
616.47	16929.88
616.665	17108.05
616.86	16802.9
617.055	16692.31
617.25	16655.45
617.445	16800.85
617.641	16479.32
617.836	16819.28
618.031	16485.47
618.226	16499.8
618.421	16362.59
618.616	16653.4
618.811	16147.55
619.006	16321.63
619.201	15991.91
619.396	16327.77
619.591	15760.48
619.786	15912.03
619.981	15637.61
620.176	16079.97
620.371	15672.42
620.566	15570.02
620.761	15602.79
620.956	15842.4
621.151	15393.9
621.346	15594.6
621.541	15168.62
621.735	15424.62
621.93	15055.98
622.125	15412.33
622.32	14820.47
622.515	14853.23
622.709	14871.67
622.904	14890.1
623.099	14867.57
623.294	14521.46
623.488	14451.83
623.683	14474.36
623.878	14275.71
624.072	14541.94
624.267	14314.62
624.462	14152.83
624.656	14175.36
624.851	14044.29
625.046	14021.76
625.24	13741.19
625.435	13784.19
625.629	13827.2
625.824	13540.49
626.018	13644.93
626.213	13495.43
626.407	13466.76
626.602	13397.13
626.796	13440.14
626.991	13282.44
627.185	13122.7
627.38	13130.89
627.574	13030.54
627.768	12973.2
627.963	12960.91
628.157	12946.58
628.352	12690.58
628.546	12731.54
628.74	12766.35
628.935	12629.14
629.129	12596.37
629.323	12293.27
629.517	12496.02
629.712	12307.61
629.906	12448.92
630.1	12080.28
630.294	12293.27
630.489	12063.9
630.683	12180.64
630.877	12117.15
631.071	11981.98
631.265	11816.1
631.459	11680.93
631.653	11594.92
631.848	11553.96
632.042	11693.22
632.236	11523.24
632.43	11422.89
632.624	11467.94
632.818	11488.42
633.012	11187.37
633.206	11218.09
633.4	11254.95
633.594	11025.58
633.788	11275.43
633.982	11048.11
634.176	11105.45
634.369	10708.15
634.563	10816.69
634.757	10886.32
634.951	10661.04
635.145	10783.92
635.339	10818.74
635.533	10521.78
635.726	10763.44
635.92	10587.32
636.114	10288.31
636.308	10534.07
636.501	10413.24
636.695	10278.07
636.889	10235.07
637.083	10273.98
637.276	10052.8
637.47	10220.73
637.664	10165.43
637.857	10155.19
638.051	9952.45
638.244	9946.3
638.438	9944.25
638.632	9899.2
638.825	9682.11
639.019	9704.64
639.212	9485.51
639.406	9813.18
639.599	9454.79
639.793	9520.32
639.986	9321.67
640.18	9352.39
640.373	9331.91
640.567	9137.35
640.76	9182.41
640.954	9206.98
641.147	8991.95
641.34	9075.91
641.534	8895.69
641.727	8873.17
641.92	8879.31
642.114	8836.3
642.307	8819.92
642.5	8791.25
642.694	8492.24
642.887	8608.98
643.08	8686.8
643.273	8535.25
643.467	8645.84
643.66	8211.67
643.853	8328.41
644.046	8238.3
644.239	8328.41
644.432	8183
644.626	8211.67
644.819	8062.17
645.012	8215.77
645.205	8090.84
645.398	8041.69
645.591	7728.35
645.784	7867.61
645.977	7748.83
646.17	7836.89
646.363	7777.5
646.556	7728.35
646.749	7763.17
646.942	7724.26
647.135	7498.98
647.328	7498.98
647.521	7468.26
647.714	7472.36
647.907	7593.19
648.099	7449.83
648.292	7484.64
648.485	7320.81
648.678	7324.9
648.871	7238.89
649.064	7152.87
649.256	7193.83
649.449	7060.71
649.642	7101.67
649.835	7070.95
650.027	7032.04
650.22	7015.66
650.413	6976.75
650.605	6851.82
650.798	6614.26
650.991	6767.85
651.183	6874.35
651.376	6687.98
651.568	6679.79
651.761	6608.11
651.954	6524.15
652.146	6552.82
652.339	6608.11
652.531	6616.3
652.724	6352.12
652.916	6360.31
653.109	6348.02
653.301	6305.01
653.494	6288.63
653.686	6196.47
653.879	6147.32
654.071	6055.16
654.263	6040.83
654.456	6286.58
654.648	6077.69
654.84	6040.83
655.033	6044.92
655.225	5926.14
655.417	6061.3
655.61	6020.35
655.802	5790.97
655.994	5815.55
656.186	5879.04
656.379	5760.25
656.571	5653.76
656.763	5629.18
656.955	5584.13
657.148	5745.92
657.34	5657.85
657.532	5516.55
657.724	5375.24
657.916	5436.67
658.108	5502.21
658.3	5473.54
658.492	5354.76
658.684	5303.56
658.876	5477.63
659.068	5385.48
659.26	5520.64
659.452	5256.45
659.644	5209.35
659.836	5246.21
660.028	5143.81
660.22	5102.86
660.412	5344.52
660.604	4990.22
660.796	5106.95
660.988	5029.13
661.18	4977.93
661.372	5043.46
661.563	5131.53
661.755	4902.15
661.947	4924.68
662.139	4764.94
662.331	4795.66
662.522	4830.48
662.714	4715.79
662.906	4758.8
663.097	4726.03
663.289	4658.45
663.481	4635.92
663.673	4633.87
663.864	4554
664.056	4480.27
664.247	4554
664.439	4513.04
664.631	4408.59
664.822	4607.25
665.014	4441.36
665.205	4470.03
665.397	4361.49
665.588	4410.64
665.78	4457.75
665.971	4386.07
666.163	4273.43
666.354	4336.92
666.546	4234.52
666.737	4248.85
666.929	4257.04
667.12	4226.32
667.311	4185.37
667.503	4152.6
667.694	4117.78
667.885	4162.84
668.077	4273.43
668.268	4156.69
668.459	4037.91
668.651	4132.12
668.842	4056.34
669.033	3974.42
669.224	3882.27
669.416	3941.66
669.607	4085.01
669.798	4060.44
669.989	3898.65
670.18	4037.91
670.371	3923.23
670.563	3906.84
670.754	3763.48
670.945	3767.58
671.136	3822.87
671.327	3826.97
671.518	3767.58
671.709	3773.72
671.9	3824.92
672.091	3599.65
672.282	3656.99
672.473	3505.44
672.664	3691.8
672.855	3566.88
673.046	3632.41
673.237	3597.6
673.428	3484.96
673.619	3620.13
673.809	3581.21
674	3630.37
674.191	3466.53
674.382	3527.97
674.573	3505.44
674.764	3656.99
674.954	3460.38
675.145	3540.26
675.336	3444
675.527	3419.43
675.717	3503.39
675.908	3349.79
676.099	3343.65
676.289	3306.79
676.48	3390.75
676.671	3329.31
676.861	3312.93
677.052	3290.4
677.243	3460.38
677.433	3265.83
677.624	3210.53
677.814	3224.87
678.005	3298.59
678.195	3261.73
678.386	3284.26
678.576	3171.62
678.767	3290.4
678.957	3259.68
679.148	3239.2
679.338	3239.2
679.529	3130.66
679.719	3151.14
679.909	3061.03
680.1	3134.76
680.29	3122.47
680.481	3085.61
680.671	3034.41
680.861	3085.61
681.052	3222.82
681.242	3136.81
681.432	3081.51
681.622	2993.45
681.813	3095.85
682.003	3056.93
682.193	3118.37
682.383	2964.78
682.573	2997.54
682.764	3058.98
682.954	2936.1
683.144	3085.61
683.334	3040.55
683.524	2911.53
683.714	3050.79
683.904	3075.37
684.094	2897.19
684.284	2968.87
684.474	2913.58
684.664	2858.28
684.854	2936.1
685.044	3071.27
685.234	2977.06
685.424	2845.99
685.614	3026.22
685.804	3020.07
685.994	2899.24
686.184	2923.82
686.374	2852.14
686.564	2848.04
686.753	2901.29
686.943	2755.88
687.133	2768.17
687.323	2757.93
687.513	2884.91
687.702	2923.82
687.892	2708.78
688.082	2854.19
688.272	2800.94
688.461	2809.13
688.651	2833.71
688.841	2747.69
689.03	2841.9
689.22	2716.97
689.41	2747.69
689.599	2731.31
689.789	2682.16
689.979	2753.84
690.168	2729.26
690.358	2739.5
690.547	2774.31
690.737	2821.42
690.926	2661.68
691.116	2714.92
691.305	2676.01
691.495	2671.92
691.684	2733.36
691.874	2684.2
692.063	2690.35
692.252	2706.73
692.442	2569.52
692.631	2739.5
692.82	2678.06
693.01	2600.24
693.199	2673.96
693.388	2659.63
693.578	2561.33
693.767	2518.32
693.956	2590
694.146	2508.08
694.335	2546.99
694.524	2569.52
694.713	2559.28
694.902	2700.59
695.092	2587.95
695.281	2528.56
695.47	2649.39
695.659	2637.1
695.848	2557.23
696.037	2579.76
696.226	2692.4
696.415	2575.66
696.604	2606.38
696.793	2526.51
696.982	2532.65
697.171	2579.76
697.36	2567.47
697.549	2600.24
697.738	2571.57
697.927	2518.32
698.116	2575.66
698.305	2614.57
698.494	2532.65
698.683	2583.85
698.872	2544.94
699.061	2569.52
699.25	2522.41
699.438	2506.03
699.627	2641.2
699.816	2542.89
700.005	2657.58
700.193	2530.61
700.382	2526.51
700.571	2458.93
700.76	2458.93
700.948	2383.15
701.137	2526.51
701.326	2487.6
701.514	2518.32
701.703	2565.42
701.892	2446.64
702.08	2473.26
702.269	2448.69
702.457	2456.88
702.646	2436.4
702.834	2479.41
703.023	2487.6
703.212	2465.07
703.4	2493.74
703.589	2360.63
703.777	2405.68
703.965	2413.87
704.154	2321.71
704.342	2352.43
704.531	2352.43
704.719	2379.06
704.907	2479.41
705.096	2309.43
705.284	2389.3
705.472	2383.15
705.661	2256.18
705.849	2329.91
706.037	2274.61
706.226	2276.66
706.414	2327.86
706.602	2454.83
706.79	2245.94
706.979	2299.19
707.167	2237.75
707.355	2280.75
707.543	2209.08
707.731	2303.28
707.919	2198.84
708.107	2243.89
708.296	2274.61
708.484	2225.46
708.672	2172.21
708.86	2311.47
709.048	2264.37
709.236	2155.83
709.424	2215.22
709.612	2147.64
709.8	2198.84
709.988	2280.75
710.176	2293.04
710.364	2207.03
710.551	2065.72
710.739	2135.35
710.927	2153.78
711.115	2241.84
711.303	2123.06
711.491	2121.01
711.679	2084.15
711.866	2055.48
712.054	2155.83
712.242	2035
712.43	2194.74
712.617	2129.2
712.805	2131.25
712.993	2057.53
713.181	2045.24
713.368	2080.05
713.556	2022.71
713.744	1985.85
713.931	2131.25
714.119	2028.85
714.306	2106.68
714.494	1998.13
714.682	1989.94
714.869	1905.98
715.057	1991.99
715.244	1951.03
715.432	1971.51
715.619	1998.13
715.807	1930.55
715.994	1895.74
716.182	1959.22
716.369	1963.32
716.556	1867.06
716.744	1883.45
716.931	1842.49
717.119	1912.12
717.306	1877.3
717.493	1871.16
717.681	1846.59
717.868	1764.67
718.055	1871.16
718.242	1865.02
718.43	1807.67
718.617	1846.59
718.804	1766.71
718.991	1881.4
719.179	1766.71
719.366	1701.18
719.553	1756.47
719.74	1805.63
719.927	1740.09
720.114	1762.62
720.301	1781.05
720.488	1748.28
720.676	1664.32
720.863	1727.8
721.05	1725.75
721.237	1766.71
721.424	1701.18
721.611	1838.39
721.798	1592.64
721.985	1654.08
722.172	1584.45
722.358	1723.71
722.545	1688.89
722.732	1563.97
722.919	1695.04
723.106	1678.65
723.293	1738.04
723.48	1703.23
723.667	1662.27
723.853	1647.93
724.04	1703.23
724.227	1649.98
724.414	1586.49
724.6	1643.84
724.787	1541.44
724.974	1529.15
725.161	1602.88
725.347	1609.02
725.534	1584.45
725.72	1475.9
725.907	1484.09
726.094	1627.45
726.28	1551.68
726.467	1549.63
726.653	1543.49
726.84	1432.9
727.027	1557.82
727.213	1527.1
727.4	1494.33
727.586	1469.76
727.773	1508.67
727.959	1365.31
728.145	1463.61
728.332	1506.62
728.518	1473.85
728.705	1551.68
728.891	1461.57
729.077	1432.9
729.264	1393.98
729.45	1445.18
729.636	1453.38
729.823	1461.57
730.009	1510.72
730.195	1510.72
730.382	1373.5
730.568	1445.18
730.754	1455.42
730.94	1404.22
731.126	1518.91
731.313	1383.74
731.499	1422.66
731.685	1453.38
731.871	1492.29
732.057	1420.61
732.243	1475.9
732.429	1367.36
732.615	1334.59
732.801	1441.09
732.987	1365.31
733.173	1430.85
733.359	1332.54
733.545	1406.27
733.731	1332.54
733.917	1365.31
734.103	1328.45
734.289	1330.5
734.475	1363.26
734.661	1283.39
734.847	1314.11
735.033	1295.68
735.219	1357.12
735.404	1477.95
735.59	1277.25
735.776	1385.79
735.962	1250.63
736.148	1295.68
736.333	1183.04
736.519	1238.34
736.705	1234.24
736.89	1344.83
737.076	1350.98
737.262	1273.15
737.447	1199.43
737.633	1162.56
737.819	1193.28
738.004	1228.1
738.19	1232.19
738.375	1287.49
738.561	1256.77
738.747	1232.19
738.932	1226.05
739.118	1199.43
739.303	1226.05
739.489	1185.09
739.674	1230.15
739.859	1137.99
740.045	1039.69
740.23	1199.43
740.416	1174.85
740.601	1203.52
740.786	1170.76
740.972	1203.52
741.157	1125.7
741.342	1207.62
741.528	1178.95
741.713	1127.75
741.898	1148.23
742.084	1150.28
742.269	1142.08
742.454	1121.6
742.639	1142.08
742.824	1154.37
743.01	1101.12
743.195	1174.85
743.38	1090.88
743.565	1023.3
743.75	1127.75
743.935	1113.41
744.12	1076.55
744.305	1047.88
744.49	1033.54
744.675	1064.26
744.86	1033.54
745.045	1094.98
745.23	1101.12
745.415	1074.5
745.6	1047.88
745.785	1035.59
745.97	963.91
746.155	1002.82
746.34	1035.59
746.525	1131.84
746.71	1017.16
746.895	1049.93
747.079	1000.77
747.264	965.96
747.449	1011.01
747.634	1021.25
747.819	1023.3
748.003	898.38
748.188	998.73
748.373	896.33
748.557	873.8
748.742	918.86
748.927	957.77
749.111	986.44
749.296	908.62
749.481	912.71
749.665	898.38
749.85	814.41
750.034	920.9
750.219	896.33
750.404	865.61
750.588	990.53
750.773	857.42
750.957	855.37
751.141	922.95
751.326	849.22
751.51	777.55
751.695	759.11
751.879	849.22
752.064	822.6
752.248	879.94
752.432	785.74
752.617	879.94
752.801	814.41
752.985	822.6
753.17	845.13
753.354	795.98
753.538	759.11
753.722	841.03
753.907	822.6
754.091	785.74
754.275	726.35
754.459	752.97
754.643	757.07
754.828	830.79
755.012	724.3
755.196	656.72
755.38	736.59
755.564	748.87
755.748	683.34
755.932	744.78
756.116	726.35
756.3	650.57
756.484	765.26
756.668	658.76
756.852	673.1
757.036	673.1
757.22	675.15
757.404	679.24
757.588	701.77
757.772	669
757.956	681.29
758.14	709.96
758.323	683.34
758.507	574.8
758.691	669
758.875	714.06
759.059	734.54
759.242	570.7
759.426	626
759.61	642.38
759.794	617.8
759.977	630.09
760.161	587.08
760.345	646.48
760.528	546.12
760.712	582.99
760.895	650.57
761.079	554.32
761.263	570.7
761.446	576.84
761.63	582.99
761.813	593.23
761.997	539.98
762.18	585.04
762.364	507.21
762.547	554.32
762.731	499.02
762.914	681.29
763.098	564.56
763.281	542.03
763.464	537.93
763.648	554.32
763.831	560.46
764.015	505.17
764.198	593.23
764.381	580.94
764.564	449.87
764.748	484.69
764.931	531.79
765.114	560.46
765.297	589.13
765.481	531.79
765.664	527.69
765.847	503.12
766.03	560.46
766.213	503.12
766.397	511.31
766.58	568.65
766.763	587.08
766.946	580.94
767.129	548.17
767.312	488.78
767.495	453.97
767.678	439.63
767.861	568.65
768.044	519.5
768.227	523.6
768.41	576.84
768.593	617.8
768.776	568.65
768.959	521.55
769.142	509.26
769.324	609.61
769.507	439.63
769.69	451.92
769.873	449.87
770.056	429.39
770.239	564.56
770.421	478.54
770.604	511.31
770.787	544.08
770.97	431.44
771.152	453.97
771.335	439.63
771.518	501.07
771.7	552.27
771.883	423.25
772.066	492.88
772.248	447.82
772.431	458.06
772.613	398.67
772.796	578.89
772.978	511.31
773.161	488.78
773.343	488.78
773.526	449.87
773.708	456.01
773.891	372.05
774.073	466.25
774.256	374.1
774.438	511.31
774.621	316.75
774.803	413.01
774.985	388.43
775.168	308.56
775.35	429.39
775.532	464.21
775.715	372.05
775.897	474.45
776.079	408.91
776.261	421.2
776.444	423.25
776.626	404.82
776.808	370
776.99	400.72
777.173	361.81
777.355	355.66
777.537	415.05
777.719	367.95
777.901	433.49
778.083	349.52
778.265	341.33
778.447	370
778.629	308.56
778.811	363.86
778.993	355.66
779.175	380.24
779.357	400.72
779.539	316.75
779.721	396.62
779.903	335.18
780.085	349.52
780.267	367.95
780.449	326.99
780.631	398.67
780.812	326.99
780.994	353.62
781.176	365.9
781.358	425.29
781.54	238.93
781.721	326.99
781.903	306.51
782.085	367.95
782.267	298.32
782.448	298.32
782.63	306.51
782.812	286.03
782.993	312.66
783.175	275.79
783.357	314.7
783.538	257.36
783.72	308.56
783.901	304.46
784.083	322.9
784.264	329.04
784.446	324.94
784.627	296.27
784.809	318.8
784.99	286.03
785.172	197.97
785.353	335.18
785.535	245.07
785.716	320.85
785.897	277.84
786.079	232.79
786.26	255.31
786.441	261.46
786.623	224.59
786.804	218.45
786.985	257.36
787.167	210.26
787.348	218.45
787.529	261.46
787.71	218.45
787.891	251.22
788.073	243.03
788.254	247.12
788.435	249.17
788.616	283.98
788.797	202.07
788.978	175.44
789.159	220.5
789.34	236.88
789.522	197.97
789.703	208.21
789.884	230.74
790.065	306.51
790.246	167.25
790.427	216.4
790.607	259.41
790.788	171.35
790.969	206.16
791.15	206.16
791.331	249.17
791.512	183.63
791.693	165.2
791.874	228.69
792.054	202.07
792.235	200.02
792.416	245.07
792.597	240.98
792.778	142.68
792.958	226.64
793.139	206.16
793.32	169.3
793.5	136.53
793.681	181.59
793.862	181.59
794.042	200.02
794.223	140.63
794.404	167.25
794.584	167.25
794.765	214.35
794.945	181.59
795.126	159.06
795.306	134.48
795.487	105.81
795.667	126.29
795.848	269.65
796.028	150.87
796.209	93.52
796.389	191.83
796.57	179.54
796.75	173.39
796.93	130.39
797.111	210.26
797.291	126.29
797.471	152.91
797.652	183.63
797.832	118.1
798.012	159.06
798.192	161.11
798.373	134.48
798.553	136.53
798.733	189.78
798.913	171.35
799.093	236.88
799.274	124.24
799.454	138.58
799.634	101.72
799.814	171.35
799.994	118.1
800.174	95.57
800.354	183.63
800.534	81.24
800.714	144.72
800.894	150.87
801.074	140.63
801.254	185.68
801.434	144.72
801.614	142.68
801.794	97.62
801.974	341.33
802.154	130.39
802.334	111.96
802.514	134.48
802.693	193.87
802.873	97.62
803.053	136.53
803.233	128.34
803.413	171.35
803.592	85.33
803.772	105.81
803.952	136.53
804.131	73.04
804.311	132.44
804.491	159.06
804.67	154.96
804.85	38.23
805.03	103.76
805.209	46.42
805.389	195.92
805.568	101.72
805.748	128.34
805.928	71
806.107	130.39
806.287	101.72
806.466	144.72
806.646	66.9
806.825	124.24
807.004	66.9
807.184	91.48
807.363	144.72
807.543	171.35
807.722	130.39
807.901	97.62
808.081	122.2
808.26	77.14
808.439	77.14
808.619	89.43
808.798	89.43
808.977	52.56
809.156	132.44
809.336	66.9
809.515	56.66
809.694	81.24
809.873	99.67
810.052	138.58
810.231	93.52
810.411	161.11
810.59	118.1
810.769	68.95
810.948	62.8
811.127	81.24
811.306	87.38
811.485	105.81
811.664	40.28
811.843	132.44
812.022	107.86
812.201	58.71
812.38	54.61
812.559	111.96
812.737	99.67
812.916	52.56
813.095	56.66
813.274	56.66
813.453	87.38
813.632	107.86
813.811	136.53
813.989	79.19
814.168	109.91
814.347	95.57
814.526	46.42
814.704	66.9
814.883	83.28
815.062	38.23
815.24	44.37
815.419	79.19
815.598	36.18
815.776	99.67
815.955	124.24
816.133	124.24
816.312	93.52
816.49	62.8
816.669	42.32
816.847	118.1
817.026	54.61
817.204	85.33
817.383	95.57
817.561	52.56
817.74	122.2
817.918	48.47
818.097	114
818.275	68.95
818.453	21.84
818.632	58.71
818.81	46.42
818.988	87.38
819.167	124.24
819.345	48.47
819.523	85.33
819.701	60.76
819.879	13.65
820.058	54.61
820.236	66.9
820.414	66.9
820.592	38.23
820.77	101.72
820.948	30.04
821.127	34.13
821.305	114
821.483	38.23
821.661	60.76
821.839	-23.21
822.017	-21.16
822.195	23.89
822.373	144.72
822.551	44.37
822.729	40.28
822.907	15.7
823.085	46.42
823.262	27.99
823.44	64.85
823.618	-8.87
823.796	71
823.974	56.66
824.152	-25.26
824.329	42.32
824.507	89.43
824.685	81.24
824.863	142.68
825.04	114
825.218	42.32
825.396	21.84
825.574	48.47
825.751	-64.17
825.929	64.85
826.107	105.81
826.284	32.08
826.462	-4.78
826.639	81.24
826.817	52.56
826.994	38.23
827.172	42.32
827.349	83.28
827.527	93.52
827.704	30.04
827.882	75.09
828.059	71
828.237	38.23
828.414	50.52
828.591	-19.11
828.769	66.9
828.946	79.19
829.124	30.04
829.301	21.84
829.478	-27.31
829.655	-92.84
829.833	54.61
830.01	64.85
830.187	52.56
830.364	30.04
830.542	-37.55
830.719	64.85
830.896	52.56
831.073	11.61
831.25	85.33
831.427	38.23
831.604	99.67
831.782	62.8
831.959	21.84
832.136	44.37
832.313	23.89
832.49	-27.31
832.667	44.37
832.844	-47.79
833.021	89.43
833.198	9.56
833.374	-17.07
833.551	64.85
833.728	21.84
833.905	-8.87
834.082	83.28
834.259	71
834.436	21.84
834.612	11.61
834.789	36.18
834.966	-27.31
835.143	-4.78
835.319	71
835.496	-2.73
835.673	36.18
835.85	46.42
836.026	-4.78
836.203	15.7
836.38	54.61
836.556	60.76
836.733	21.84
836.909	-6.83
837.086	62.8
837.262	-21.16
837.439	-10.92
837.616	73.04
837.792	5.46
837.968	66.9
838.145	42.32
838.321	30.04
838.498	36.18
838.674	30.04
838.851	-15.02
839.027	62.8
839.203	97.62
839.38	11.61
839.556	34.13
839.732	46.42
839.909	-21.16
840.085	36.18
840.261	52.56
840.437	3.41
840.614	85.33
840.79	58.71
840.966	-19.11
841.142	-49.83
841.318	11.61
841.494	73.04
841.671	66.9
841.847	11.61
842.023	7.51
842.199	5.46
842.375	60.76
842.551	30.04
842.727	-0.68
842.903	3.41
843.079	25.94
843.255	40.28
843.431	50.52
843.607	21.84
843.783	-4.78
843.959	-31.4
844.134	19.8
844.31	5.46
844.486	93.52
844.662	13.65
844.838	66.9
845.013	77.14
845.189	15.7
845.365	17.75
845.541	32.08
845.716	81.24
845.892	30.04
846.068	46.42
846.244	27.99
846.419	27.99
846.595	-8.87
846.77	27.99
846.946	38.23
847.122	17.75
847.297	17.75
847.473	40.28
847.648	52.56
847.824	44.37
847.999	-82.6
848.175	9.56
848.35	-37.55
848.526	85.33
848.701	73.04
848.876	38.23
849.052	-25.26
849.227	9.56
849.403	38.23
849.578	52.56
849.753	9.56
849.929	38.23
850.104	25.94
850.279	87.38
850.454	32.08
850.63	7.51
850.805	36.18
850.98	-4.78
851.155	124.24
851.33	-19.11
851.505	5.46
851.681	58.71
851.856	-27.31
852.031	30.04
852.206	-58.03
852.381	-0.68
852.556	-12.97
852.731	97.62
852.906	83.28
853.081	-19.11
853.256	40.28
853.431	21.84
853.606	9.56
853.781	-19.11
853.956	7.51
854.131	77.14
854.305	-2.73
854.48	32.08
854.655	23.89
854.83	-25.26
855.005	-15.02
855.18	54.61
855.354	-0.68
855.529	7.51
855.704	19.8
855.879	-19.11
856.053	21.84
856.228	132.44
856.403	-23.21
856.577	-19.11
856.752	-8.87
856.926	-33.45
857.101	19.8
857.276	-25.26
857.45	42.32
857.625	50.52
857.799	-0.68
857.974	-29.35
858.148	-17.07
858.323	5.46
858.497	9.56
858.672	7.51
858.846	5.46
859.02	46.42
859.195	44.37
859.369	68.95
859.543	-33.45
859.718	-21.16
859.892	-12.97
860.066	11.61
860.241	3.41
860.415	79.19
860.589	-53.93
860.763	-21.16
860.938	-31.4
861.112	77.14
861.286	17.75
861.46	21.84
861.634	-15.02
861.808	-33.45
861.982	13.65
862.157	-25.26
862.331	3.41
862.505	5.46
862.679	-39.59
862.853	-17.07
863.027	73.04
863.201	103.76
863.375	3.41
863.549	13.65
863.722	46.42
863.896	-64.17
864.07	-60.07
864.244	46.42
864.418	13.65
864.592	-43.69
864.766	-2.73
864.939	-29.35
865.113	5.46
865.287	-21.16
865.461	15.7
865.634	40.28
865.808	15.7
865.982	13.65
866.156	-17.07
866.329	11.61
866.503	15.7
866.676	5.46
866.85	27.99
867.024	13.65
867.197	-37.55
867.371	-27.31
867.544	-86.7
867.718	-12.97
867.891	-25.26
868.065	-8.87
868.238	-29.35
868.412	19.8
868.585	21.84
868.759	40.28
868.932	9.56
869.105	-66.22
869.279	-12.97
869.452	-31.4
869.625	25.94
869.799	-39.59
869.972	-19.11
870.145	13.65
870.319	36.18
870.492	36.18
870.665	-51.88
870.838	25.94
871.011	-6.83
871.185	-2.73
871.358	-12.97
871.531	-8.87
871.704	3.41
871.877	44.37
872.05	34.13
872.223	-25.26
872.396	-8.87
872.569	79.19
872.742	-8.87
872.915	56.66
873.088	40.28
873.261	36.18
873.434	-31.4
873.607	-49.83
873.78	56.66
873.953	15.7
874.126	1.37
874.299	40.28
874.471	-33.45
874.644	-19.11
874.817	44.37
874.99	21.84
875.163	-39.59
875.335	36.18
875.508	-45.74
875.681	38.23
875.853	-121.51
876.026	40.28
876.199	-2.73
876.371	-6.83
876.544	-35.5
876.717	7.51
876.889	-121.51
877.062	9.56
877.234	-10.92
877.407	-12.97
877.579	19.8
877.752	25.94
877.924	48.47
878.097	9.56
878.269	-58.03
878.442	32.08
878.614	17.75
878.786	-27.31
878.959	13.65
879.131	-12.97
879.303	9.56
879.476	-43.69
879.648	27.99
879.82	-41.64
879.993	34.13
880.165	38.23
880.337	-51.88
880.509	44.37
880.681	21.84
880.854	15.7
881.026	-12.97
881.198	60.76
881.37	-4.78
881.542	13.65
881.714	-41.64
881.886	5.46
882.058	11.61
882.23	1.37
882.402	-6.83
882.574	62.8
882.746	-29.35
882.918	-47.79
883.09	-49.83
883.262	34.13
883.434	-41.64
883.606	3.41
883.778	-21.16
883.95	79.19
884.122	-35.5
884.293	27.99
884.465	5.46
884.637	11.61
884.809	-12.97
884.98	79.19
885.152	-37.55
885.324	-12.97
885.496	-47.79
885.667	52.56
885.839	17.75
886.011	71
886.182	73.04
886.354	-0.68
886.525	-21.16
886.697	27.99
886.869	-25.26
887.04	-8.87
887.212	3.41
887.383	-23.21
887.555	-78.51
887.726	3.41
887.897	-60.07
888.069	23.89
888.24	-37.55
888.412	30.04
888.583	-15.02
888.754	-4.78
888.926	-6.83
889.097	21.84
889.268	-41.64
889.44	19.8
889.611	-33.45
889.782	-78.51
889.953	-47.79
890.125	-12.97
890.296	-43.69
890.467	3.41
890.638	-23.21
890.809	21.84
890.98	-6.83
891.151	-60.07
891.323	11.61
891.494	54.61
891.665	46.42
891.836	-60.07
892.007	64.85
892.178	-17.07
892.349	-2.73
892.52	-27.31
892.691	27.99
892.862	34.13
893.032	-58.03
893.203	-12.97
893.374	3.41
893.545	-2.73
893.716	-29.35
893.887	52.56
894.057	27.99
894.228	-68.27
894.399	1.37
894.57	-21.16
894.74	44.37
894.911	34.13
895.082	-23.21
895.253	-25.26
895.423	-21.16
895.594	-10.92
895.764	56.66
895.935	-6.83
896.106	27.99
896.276	-33.45
896.447	-21.16
896.617	-29.35
896.788	-27.31
896.958	36.18
897.129	-68.27
897.299	-23.21
897.47	-29.35
897.64	32.08
897.81	27.99
897.981	-29.35
898.151	-21.16
898.322	5.46
898.492	5.46
898.662	-4.78
898.832	-29.35
899.003	-86.7
899.173	-4.78
899.343	-2.73
899.513	-2.73
