Data from USB4F104151__62__13-53-41-115.txt Node

Date: Thu Mar 13 13:53:41 EDT 2025
User: louis
Spectrometer: USB4F10415
Trigger mode: 4
Integration Time (sec): 1.000000E-2
Scans to average: 1
Electric dark correction enabled: true
Nonlinearity correction enabled: false
Boxcar width: 0
XAxis mode: Wavelengths
Number of Pixels in Spectrum: 3648
>>>>>Begin Spectral Data<<<<<
178.204	-44.03
178.424	-44.03
178.644	-44.03
178.864	-58.37
179.084	-66.56
179.304	5.12
179.524	37.89
179.744	3.07
179.964	50.18
180.184	-25.6
180.404	21.5
180.624	31.74
180.844	-27.65
181.064	-76.8
181.283	15.36
181.503	-72.7
181.723	37.89
181.943	-29.7
182.163	52.22
182.383	-15.36
182.602	31.74
182.822	-3.07
183.042	21.5
183.262	-39.94
183.482	-31.74
183.701	27.65
183.921	27.65
184.141	27.65
184.361	-27.65
184.58	50.18
184.8	-37.89
185.02	35.84
185.239	27.65
185.459	-7.17
185.679	37.89
185.898	15.36
186.118	27.65
186.338	29.7
186.557	93.18
186.777	29.7
186.997	23.55
187.216	3.07
187.436	31.74
187.655	46.08
187.875	74.75
188.095	-33.79
188.314	37.89
188.534	-35.84
188.753	50.18
188.973	44.03
189.192	101.37
189.412	7.17
189.631	-44.03
189.851	5.12
190.07	46.08
190.29	44.03
190.509	11.26
190.729	-46.08
190.948	-31.74
191.168	37.89
191.387	37.89
191.607	-44.03
191.826	27.65
192.045	-3.07
192.265	41.98
192.484	60.42
192.704	11.26
192.923	-56.32
193.142	7.17
193.362	-1.02
193.581	-23.55
193.8	-11.26
194.02	46.08
194.239	17.41
194.458	97.28
194.678	31.74
194.897	39.94
195.116	13.31
195.335	3.07
195.555	31.74
195.774	-5.12
195.993	50.18
196.212	11.26
196.432	27.65
196.651	9.22
196.87	89.09
197.089	1.02
197.308	54.27
197.528	1.02
197.747	97.28
197.966	76.8
198.185	58.37
198.404	17.41
198.623	21.5
198.842	44.03
199.062	70.65
199.281	9.22
199.5	60.42
199.719	41.98
199.938	37.89
200.157	46.08
200.376	107.52
200.595	66.56
200.814	39.94
201.033	27.65
201.252	5.12
201.471	-7.17
201.69	50.18
201.909	46.08
202.128	21.5
202.347	-62.46
202.566	-21.5
202.785	44.03
203.004	5.12
203.223	15.36
203.442	-3.07
203.661	-9.22
203.879	95.23
204.098	25.6
204.317	-48.13
204.536	52.22
204.755	15.36
204.974	64.51
205.193	9.22
205.411	13.31
205.63	48.13
205.849	7.17
206.068	39.94
206.287	-29.7
206.505	35.84
206.724	29.7
206.943	-31.74
207.162	-17.41
207.381	-25.6
207.599	27.65
207.818	48.13
208.037	-19.46
208.255	46.08
208.474	50.18
208.693	93.18
208.911	29.7
209.13	46.08
209.349	17.41
209.567	70.65
209.786	44.03
210.005	64.51
210.223	7.17
210.442	-15.36
210.661	27.65
210.879	3.07
211.098	-9.22
211.316	46.08
211.535	66.56
211.753	50.18
211.972	-7.17
212.191	52.22
212.409	9.22
212.628	1.02
212.846	-11.26
213.065	-7.17
213.283	13.31
213.502	-33.79
213.72	50.18
213.938	19.46
214.157	35.84
214.375	48.13
214.594	37.89
214.812	37.89
215.031	52.22
215.249	19.46
215.467	27.65
215.686	27.65
215.904	1.02
216.122	25.6
216.341	-13.31
216.559	11.26
216.778	-13.31
216.996	-9.22
217.214	7.17
217.432	-1.02
217.651	62.46
217.869	23.55
218.087	46.08
218.306	37.89
218.524	68.61
218.742	33.79
218.96	13.31
219.179	-17.41
219.397	74.75
219.615	-23.55
219.833	33.79
220.051	1.02
220.27	-17.41
220.488	-17.41
220.706	58.37
220.924	27.65
221.142	7.17
221.36	7.17
221.578	23.55
221.796	-9.22
222.015	-84.99
222.233	-13.31
222.451	-7.17
222.669	-1.02
222.887	46.08
223.105	87.04
223.323	23.55
223.541	-29.7
223.759	9.22
223.977	-27.65
224.195	17.41
224.413	17.41
224.631	17.41
224.849	-7.17
225.067	44.03
225.285	37.89
225.503	9.22
225.721	35.84
225.939	31.74
226.157	17.41
226.375	74.75
226.592	54.27
226.81	48.13
227.028	78.85
227.246	-39.94
227.464	9.22
227.682	56.32
227.9	44.03
228.117	41.98
228.335	21.5
228.553	48.13
228.771	27.65
228.989	48.13
229.206	56.32
229.424	15.36
229.642	-13.31
229.86	3.07
230.077	48.13
230.295	-1.02
230.513	113.66
230.731	80.89
230.948	58.37
231.166	66.56
231.384	39.94
231.601	3.07
231.819	9.22
232.037	13.31
232.254	19.46
232.472	1.02
232.689	-52.22
232.907	27.65
233.125	52.22
233.342	-44.03
233.56	-9.22
233.777	29.7
233.995	56.32
234.213	7.17
234.43	58.37
234.648	-31.74
234.865	-9.22
235.083	-15.36
235.3	97.28
235.518	31.74
235.735	52.22
235.953	-3.07
236.17	13.31
236.388	25.6
236.605	72.7
236.822	80.89
237.04	60.42
237.257	33.79
237.475	80.89
237.692	-44.03
237.909	-9.22
238.127	39.94
238.344	50.18
238.562	80.89
238.779	-7.17
238.996	29.7
239.214	-41.98
239.431	87.04
239.648	29.7
239.865	21.5
240.083	7.17
240.3	62.46
240.517	25.6
240.735	70.65
240.952	3.07
241.169	33.79
241.386	64.51
241.603	1.02
241.821	-23.55
242.038	7.17
242.255	23.55
242.472	62.46
242.689	1.02
242.907	91.13
243.124	62.46
243.341	-25.6
243.558	48.13
243.775	33.79
243.992	-1.02
244.209	52.22
244.426	-19.46
244.643	52.22
244.86	62.46
245.078	78.85
245.295	31.74
245.512	62.46
245.729	33.79
245.946	48.13
246.163	-15.36
246.38	9.22
246.597	-33.79
246.814	52.22
247.031	-11.26
247.248	-13.31
247.464	7.17
247.681	72.7
247.898	-33.79
248.115	-23.55
248.332	93.18
248.549	89.09
248.766	27.65
248.983	21.5
249.2	52.22
249.417	25.6
249.633	11.26
249.85	35.84
250.067	13.31
250.284	80.89
250.501	44.03
250.717	60.42
250.934	37.89
251.151	3.07
251.368	48.13
251.585	-50.18
251.801	17.41
252.018	29.7
252.235	5.12
252.451	35.84
252.668	70.65
252.885	7.17
253.102	5.12
253.318	17.41
253.535	64.51
253.752	72.7
253.968	68.61
254.185	-17.41
254.401	31.74
254.618	17.41
254.835	1.02
255.051	70.65
255.268	64.51
255.484	33.79
255.701	-27.65
255.917	25.6
256.134	3.07
256.351	31.74
256.567	-17.41
256.784	3.07
257	19.46
257.217	52.22
257.433	11.26
257.65	95.23
257.866	9.22
258.082	-27.65
258.299	-9.22
258.515	19.46
258.732	15.36
258.948	7.17
259.165	3.07
259.381	37.89
259.597	3.07
259.814	-13.31
260.03	27.65
260.246	23.55
260.463	48.13
260.679	44.03
260.895	-19.46
261.112	68.61
261.328	-33.79
261.544	-72.7
261.761	64.51
261.977	21.5
262.193	68.61
262.409	3.07
262.626	3.07
262.842	82.94
263.058	-29.7
263.274	44.03
263.49	76.8
263.707	35.84
263.923	-25.6
264.139	35.84
264.355	11.26
264.571	1.02
264.787	33.79
265.004	52.22
265.22	58.37
265.436	-5.12
265.652	35.84
265.868	31.74
266.084	39.94
266.3	27.65
266.516	-68.61
266.732	33.79
266.948	-7.17
267.164	48.13
267.38	70.65
267.596	23.55
267.812	115.71
268.028	35.84
268.244	56.32
268.46	21.5
268.676	82.94
268.892	39.94
269.108	48.13
269.324	-68.61
269.54	-35.84
269.756	-7.17
269.972	33.79
270.188	7.17
270.403	37.89
270.619	44.03
270.835	-33.79
271.051	3.07
271.267	19.46
271.483	29.7
271.698	21.5
271.914	58.37
272.13	-33.79
272.346	25.6
272.562	-44.03
272.777	-1.02
272.993	11.26
273.209	39.94
273.425	23.55
273.64	29.7
273.856	164.86
274.072	-35.84
274.287	11.26
274.503	17.41
274.719	-13.31
274.934	52.22
275.15	37.89
275.366	60.42
275.581	-25.6
275.797	-11.26
276.012	15.36
276.228	31.74
276.444	-54.27
276.659	97.28
276.875	17.41
277.09	3.07
277.306	-3.07
277.521	48.13
277.737	37.89
277.952	56.32
278.168	-19.46
278.383	48.13
278.599	103.42
278.814	35.84
279.03	68.61
279.245	41.98
279.461	41.98
279.676	80.89
279.892	15.36
280.107	52.22
280.322	-1.02
280.538	93.18
280.753	3.07
280.969	74.75
281.184	9.22
281.399	52.22
281.615	35.84
281.83	11.26
282.045	66.56
282.26	44.03
282.476	46.08
282.691	84.99
282.906	-3.07
283.122	80.89
283.337	5.12
283.552	25.6
283.767	11.26
283.983	46.08
284.198	52.22
284.413	-15.36
284.628	-64.51
284.843	-62.46
285.058	13.31
285.274	84.99
285.489	103.42
285.704	13.31
285.919	-21.5
286.134	-11.26
286.349	3.07
286.564	13.31
286.779	72.7
286.995	-15.36
287.21	41.98
287.425	41.98
287.64	-21.5
287.855	50.18
288.07	1.02
288.285	5.12
288.5	82.94
288.715	5.12
288.93	33.79
289.145	-23.55
289.36	33.79
289.575	19.46
289.79	29.7
290.004	37.89
290.219	-9.22
290.434	56.32
290.649	11.26
290.864	-1.02
291.079	56.32
291.294	44.03
291.509	29.7
291.724	-29.7
291.938	-25.6
292.153	31.74
292.368	21.5
292.583	37.89
292.798	82.94
293.012	7.17
293.227	-9.22
293.442	52.22
293.657	80.89
293.871	82.94
294.086	35.84
294.301	5.12
294.516	60.42
294.73	76.8
294.945	-9.22
295.16	29.7
295.374	23.55
295.589	-1.02
295.804	62.46
296.018	-21.5
296.233	56.32
296.447	5.12
296.662	64.51
296.877	74.75
297.091	9.22
297.306	-7.17
297.52	17.41
297.735	48.13
297.949	-13.31
298.164	37.89
298.378	17.41
298.593	23.55
298.807	46.08
299.022	70.65
299.236	-3.07
299.451	-41.98
299.665	46.08
299.88	44.03
300.094	-1.02
300.309	41.98
300.523	105.47
300.737	41.98
300.952	13.31
301.166	-7.17
301.381	-19.46
301.595	44.03
301.809	17.41
302.024	66.56
302.238	25.6
302.452	44.03
302.667	58.37
302.881	58.37
303.095	-68.61
303.309	-15.36
303.524	46.08
303.738	9.22
303.952	17.41
304.166	-21.5
304.381	11.26
304.595	54.27
304.809	-23.55
305.023	-33.79
305.237	64.51
305.452	3.07
305.666	41.98
305.88	-1.02
306.094	-3.07
306.308	64.51
306.522	50.18
306.736	-1.02
306.95	15.36
307.164	41.98
307.379	39.94
307.593	-15.36
307.807	5.12
308.021	-1.02
308.235	33.79
308.449	35.84
308.663	-70.65
308.877	52.22
309.091	39.94
309.305	44.03
309.519	-5.12
309.733	95.23
309.947	70.65
310.161	74.75
310.374	31.74
310.588	-7.17
310.802	33.79
311.016	41.98
311.23	58.37
311.444	46.08
311.658	15.36
311.872	27.65
312.085	-13.31
312.299	-1.02
312.513	-21.5
312.727	44.03
312.941	-35.84
313.154	5.12
313.368	19.46
313.582	-7.17
313.796	84.99
314.009	78.85
314.223	76.8
314.437	13.31
314.651	31.74
314.864	50.18
315.078	-66.56
315.292	-27.65
315.505	-1.02
315.719	93.18
315.933	-9.22
316.146	-87.04
316.36	64.51
316.573	48.13
316.787	-95.23
317.001	31.74
317.214	-17.41
317.428	-9.22
317.641	48.13
317.855	35.84
318.068	-11.26
318.282	33.79
318.495	35.84
318.709	-33.79
318.922	35.84
319.136	66.56
319.349	23.55
319.563	7.17
319.776	70.65
319.99	-9.22
320.203	70.65
320.417	91.13
320.63	17.41
320.843	31.74
321.057	13.31
321.27	-7.17
321.483	46.08
321.697	82.94
321.91	11.26
322.124	41.98
322.337	15.36
322.55	76.8
322.763	31.74
322.977	68.61
323.19	54.27
323.403	39.94
323.617	-27.65
323.83	33.79
324.043	25.6
324.256	25.6
324.469	41.98
324.683	68.61
324.896	-11.26
325.109	39.94
325.322	-21.5
325.535	35.84
325.748	13.31
325.962	39.94
326.175	39.94
326.388	64.51
326.601	-27.65
326.814	23.55
327.027	11.26
327.24	-1.02
327.453	-44.03
327.666	19.46
327.879	21.5
328.092	-13.31
328.305	-7.17
328.518	23.55
328.731	41.98
328.944	44.03
329.157	39.94
329.37	46.08
329.583	9.22
329.796	62.46
330.009	-17.41
330.222	25.6
330.435	31.74
330.648	31.74
330.861	107.52
331.073	-9.22
331.286	17.41
331.499	82.94
331.712	-3.07
331.925	19.46
332.138	33.79
332.35	62.46
332.563	25.6
332.776	33.79
332.989	-5.12
333.202	56.32
333.414	1.02
333.627	9.22
333.84	46.08
334.053	9.22
334.265	3.07
334.478	76.8
334.691	35.84
334.903	31.74
335.116	37.89
335.329	21.5
335.541	23.55
335.754	89.09
335.966	-13.31
336.179	50.18
336.392	121.85
336.604	-48.13
336.817	46.08
337.029	70.65
337.242	44.03
337.454	5.12
337.667	7.17
337.88	56.32
338.092	46.08
338.305	54.27
338.517	41.98
338.729	52.22
338.942	9.22
339.154	11.26
339.367	-62.46
339.579	-1.02
339.792	-31.74
340.004	37.89
340.217	19.46
340.429	9.22
340.641	27.65
340.854	-7.17
341.066	31.74
341.278	23.55
341.491	109.57
341.703	33.79
341.915	35.84
342.128	-7.17
342.34	-5.12
342.552	17.41
342.764	21.5
342.977	58.37
343.189	15.36
343.401	5.12
343.613	54.27
343.826	97.28
344.038	-35.84
344.25	-15.36
344.462	-19.46
344.674	-5.12
344.886	-29.7
345.099	84.99
345.311	70.65
345.523	41.98
345.735	7.17
345.947	60.42
346.159	33.79
346.371	17.41
346.583	21.5
346.795	82.94
347.007	21.5
347.219	27.65
347.431	-35.84
347.643	33.79
347.855	3.07
348.067	11.26
348.279	-27.65
348.491	25.6
348.703	-60.42
348.915	103.42
349.127	56.32
349.339	13.31
349.551	27.65
349.763	78.85
349.975	-13.31
350.187	13.31
350.399	25.6
350.61	5.12
350.822	33.79
351.034	82.94
351.246	44.03
351.458	44.03
351.669	76.8
351.881	91.13
352.093	-19.46
352.305	39.94
352.517	-9.22
352.728	-9.22
352.94	29.7
353.152	54.27
353.363	72.7
353.575	66.56
353.787	13.31
353.999	105.47
354.21	-23.55
354.422	50.18
354.633	-7.17
354.845	60.42
355.057	-7.17
355.268	11.26
355.48	-27.65
355.692	66.56
355.903	-54.27
356.115	3.07
356.326	60.42
356.538	25.6
356.749	44.03
356.961	68.61
357.172	37.89
357.384	56.32
357.595	13.31
357.807	3.07
358.018	48.13
358.23	84.99
358.441	13.31
358.653	25.6
358.864	50.18
359.075	44.03
359.287	64.51
359.498	3.07
359.709	1.02
359.921	72.7
360.132	7.17
360.344	72.7
360.555	56.32
360.766	-46.08
360.977	23.55
361.189	74.75
361.4	27.65
361.611	119.81
361.823	35.84
362.034	19.46
362.245	64.51
362.456	52.22
362.667	68.61
362.879	35.84
363.09	52.22
363.301	66.56
363.512	-52.22
363.723	66.56
363.935	27.65
364.146	27.65
364.357	62.46
364.568	54.27
364.779	23.55
364.99	44.03
365.201	66.56
365.412	11.26
365.623	33.79
365.834	105.47
366.045	-33.79
366.256	29.7
366.467	5.12
366.678	58.37
366.889	62.46
367.1	17.41
367.311	31.74
367.522	60.42
367.733	-37.89
367.944	93.18
368.155	9.22
368.366	84.99
368.577	-11.26
368.788	-17.41
368.999	50.18
369.209	46.08
369.42	-52.22
369.631	-3.07
369.842	-9.22
370.053	140.29
370.264	89.09
370.474	50.18
370.685	80.89
370.896	58.37
371.107	95.23
371.317	82.94
371.528	7.17
371.739	87.04
371.95	39.94
372.16	-3.07
372.371	-37.89
372.582	66.56
372.792	66.56
373.003	25.6
373.214	50.18
373.424	-1.02
373.635	50.18
373.846	84.99
374.056	56.32
374.267	134.14
374.477	44.03
374.688	58.37
374.898	52.22
375.109	99.33
375.319	-39.94
375.53	125.95
375.74	-7.17
375.951	-41.98
376.161	115.71
376.372	93.18
376.582	-95.23
376.793	93.18
377.003	52.22
377.214	62.46
377.424	7.17
377.635	1.02
377.845	-15.36
378.055	17.41
378.266	33.79
378.476	19.46
378.686	68.61
378.897	11.26
379.107	68.61
379.317	35.84
379.528	27.65
379.738	87.04
379.948	7.17
380.158	33.79
380.369	-25.6
380.579	78.85
380.789	-5.12
380.999	52.22
381.21	109.57
381.42	64.51
381.63	-44.03
381.84	117.76
382.05	52.22
382.261	117.76
382.471	7.17
382.681	27.65
382.891	-7.17
383.101	29.7
383.311	23.55
383.521	58.37
383.731	-11.26
383.941	121.85
384.151	25.6
384.361	41.98
384.571	66.56
384.781	11.26
384.991	52.22
385.201	13.31
385.411	113.66
385.621	-9.22
385.831	99.33
386.041	62.46
386.251	-7.17
386.461	68.61
386.671	72.7
386.881	13.31
387.091	130.05
387.301	58.37
387.511	66.56
387.72	48.13
387.93	48.13
388.14	15.36
388.35	72.7
388.56	52.22
388.769	7.17
388.979	15.36
389.189	-23.55
389.399	76.8
389.609	-19.46
389.818	37.89
390.028	123.9
390.238	33.79
390.447	44.03
390.657	62.46
390.867	3.07
391.076	76.8
391.286	15.36
391.496	29.7
391.705	11.26
391.915	64.51
392.125	-60.42
392.334	89.09
392.544	-3.07
392.753	50.18
392.963	50.18
393.172	66.56
393.382	46.08
393.591	87.04
393.801	31.74
394.01	95.23
394.22	9.22
394.429	54.27
394.639	-29.7
394.848	52.22
395.058	56.32
395.267	87.04
395.477	23.55
395.686	95.23
395.895	68.61
396.105	-31.74
396.314	113.66
396.524	101.37
396.733	72.7
396.942	93.18
397.152	48.13
397.361	103.42
397.57	58.37
397.78	56.32
397.989	125.95
398.198	60.42
398.407	-11.26
398.617	37.89
398.826	62.46
399.035	95.23
399.244	105.47
399.453	21.5
399.663	84.99
399.872	52.22
400.081	39.94
400.29	62.46
400.499	19.46
400.708	56.32
400.917	68.61
401.127	91.13
401.336	78.85
401.545	160.77
401.754	117.76
401.963	148.48
402.172	66.56
402.381	78.85
402.59	113.66
402.799	70.65
403.008	121.85
403.217	33.79
403.426	89.09
403.635	99.33
403.844	60.42
404.053	95.23
404.262	37.89
404.471	62.46
404.68	99.33
404.888	115.71
405.097	89.09
405.306	113.66
405.515	89.09
405.724	158.72
405.933	62.46
406.142	95.23
406.35	50.18
406.559	64.51
406.768	70.65
406.977	160.77
407.185	82.94
407.394	173.05
407.603	125.95
407.812	80.89
408.02	115.71
408.229	128
408.438	142.33
408.646	156.67
408.855	70.65
409.064	148.48
409.272	109.57
409.481	171.01
409.69	156.67
409.898	148.48
410.107	177.15
410.315	171.01
410.524	123.9
410.733	183.29
410.941	218.11
411.15	181.25
411.358	230.4
411.567	220.16
411.775	203.77
411.984	214.01
412.192	250.88
412.401	234.49
412.609	238.59
412.818	300.03
413.026	250.88
413.234	295.93
413.443	252.92
413.651	295.93
413.86	326.65
414.068	443.39
414.276	246.78
414.485	375.8
414.693	297.98
414.901	328.7
415.11	332.79
415.318	367.61
415.526	355.32
415.734	392.19
415.943	377.85
416.151	431.1
416.359	386.04
416.567	529.4
416.776	502.78
416.984	519.16
417.192	527.35
417.4	545.78
417.608	582.65
417.817	558.07
418.025	531.45
418.233	562.17
418.441	662.52
418.649	568.31
418.857	676.85
419.065	658.42
419.273	728.05
419.481	736.24
419.689	750.58
419.897	756.72
420.105	779.25
420.313	797.68
420.521	812.02
420.729	883.7
420.937	879.6
421.145	867.31
421.353	918.51
421.561	963.57
421.769	1035.25
421.977	990.19
422.185	1061.87
422.393	1094.64
422.601	1188.85
422.809	1250.28
423.017	1238
423.224	1184.75
423.432	1205.23
423.64	1303.53
423.848	1496.04
424.056	1418.22
424.263	1504.23
424.471	1477.61
424.679	1432.55
424.887	1631.21
425.094	1704.93
425.302	1600.49
425.51	1686.5
425.718	1815.52
425.925	1811.43
426.133	1825.76
426.341	1969.12
426.548	2053.09
426.756	2073.57
426.964	2067.42
427.171	2264.03
427.379	2253.79
427.586	2397.15
427.794	2360.28
428.001	2442.2
428.209	2653.14
428.417	2524.12
428.624	2730.97
428.832	2573.27
429.039	2630.62
429.247	2739.16
429.454	2937.81
429.662	3066.83
429.869	2937.81
430.076	3171.28
430.284	3058.64
430.491	3154.9
430.699	3290.06
430.906	3308.49
431.114	3388.36
431.321	3568.59
431.528	3509.19
431.736	3879.88
431.943	4006.85
432.15	3812.29
432.358	3912.64
432.565	4162.5
432.772	4058.05
432.979	4287.42
433.187	4524.99
433.394	4369.34
433.601	4625.34
433.808	4805.56
434.016	4836.28
434.223	4809.65
434.43	5151.67
434.637	5082.03
434.844	5479.34
435.052	5561.26
435.259	5501.87
435.466	5551.02
435.673	5442.48
435.88	5907.37
436.087	6302.62
436.294	6058.92
436.501	6046.63
436.708	6210.47
436.915	6542.24
437.122	6618.01
437.329	6562.72
437.537	6894.49
437.743	6765.46
437.95	6974.36
438.157	7207.83
438.364	7486.35
438.571	7586.7
438.778	7576.46
438.985	8287.11
439.192	7721.87
439.399	8166.28
439.606	8014.73
439.813	8364.93
440.02	8917.88
440.227	8762.23
440.433	8770.43
440.64	8850.3
440.847	8743.8
441.054	9159.54
441.261	9683.82
441.467	9528.17
441.674	9692.01
441.881	10021.74
442.088	10314.59
442.294	10126.18
442.501	10392.42
442.708	10431.33
442.914	11074.39
443.121	11418.45
443.328	11180.89
443.534	11852.62
443.741	11365.2
443.948	11219.8
444.154	11955.02
444.361	11961.16
444.568	12122.95
444.774	12411.71
444.981	12313.41
445.187	12538.69
445.394	13271.86
445.6	13114.17
445.807	14175.02
446.013	13722.41
446.22	14025.51
446.426	14560.03
446.633	14607.14
446.839	15350.55
447.046	14519.07
447.252	15149.85
447.459	15315.73
447.665	15397.65
447.871	15887.12
448.078	16569.09
448.284	15643.41
448.491	16206.6
448.697	16806.66
448.903	16909.05
449.11	17138.43
449.316	16929.53
449.522	17193.72
449.728	17746.67
449.935	17634.03
450.141	17500.92
450.347	18031.34
450.553	17412.85
450.76	17560.31
450.966	18223.85
451.172	17910.51
451.378	18635.49
451.584	18004.72
451.791	18537.19
451.997	18354.92
452.203	18592.48
452.409	18698.98
452.615	18721.51
452.821	17896.17
453.027	17613.56
453.233	18469.61
453.44	17951.47
453.646	18131.69
453.852	18090.73
454.058	18004.72
454.264	17787.63
454.47	18029.29
454.676	17883.89
454.882	18389.74
455.088	16657.15
455.294	16808.7
455.5	17140.47
455.705	17470.2
455.911	16515.84
456.117	16345.86
456.323	15901.45
456.529	15145.75
456.735	15815.44
456.941	15272.73
457.147	15194.9
457.352	14635.81
457.558	14291.75
457.764	14570.27
457.97	14179.11
458.176	13787.95
458.381	13720.37
458.587	13343.54
458.793	13302.58
458.999	12778.3
459.204	13378.36
459.41	13017.91
459.616	12067.66
459.821	12133.19
460.027	12086.09
460.233	11709.26
460.438	11271
460.644	11479.89
460.85	10879.83
461.055	10728.28
461.261	10867.55
461.466	10046.31
461.672	9505.65
461.878	10337.12
462.083	9433.97
462.289	9622.38
462.494	9399.15
462.7	8964.98
462.905	8747.9
463.111	9096.05
463.316	9018.23
463.522	8815.48
463.727	8805.24
463.932	8993.65
464.138	8795
464.343	8825.72
464.549	8459.13
464.754	9046.9
464.959	8733.56
465.165	8801.15
465.37	8295.3
465.575	8104.84
465.781	8348.54
465.986	8545.15
466.191	8313.73
466.397	8164.23
466.602	7857.03
466.807	7934.85
467.012	7975.81
467.218	7891.85
467.423	7826.31
467.628	7748.49
467.833	8305.54
468.038	8104.84
468.244	7768.97
468.449	7887.75
468.654	7875.46
468.859	7633.8
469.064	7756.68
469.269	7326.61
469.474	7400.34
469.679	7603.08
469.885	7177.11
470.09	7445.39
470.295	7324.56
470.5	7238.55
470.705	7060.37
470.91	6937.49
471.115	7082.9
471.32	7238.55
471.525	6968.21
471.73	6994.84
471.935	6968.21
472.139	6656.92
472.344	6796.18
472.549	6620.06
472.754	6650.78
472.959	6448.03
473.164	6374.3
473.369	6331.3
473.574	6454.17
473.778	6300.58
473.983	6243.23
474.188	6390.69
474.393	6142.88
474.598	6228.9
474.802	5987.24
475.007	5970.85
475.212	5972.9
475.417	5811.11
475.621	5899.17
475.826	5768.1
476.031	5673.9
476.235	5440.43
476.44	5637.03
476.645	5526.44
476.849	5587.88
477.054	5551.02
477.259	5268.4
477.463	5438.38
477.668	5284.78
477.872	5266.35
478.077	5200.82
478.282	5039.03
478.486	5026.74
478.691	4934.58
478.895	4981.68
479.1	4932.53
479.304	5206.96
479.509	4877.24
479.713	4899.77
479.918	4756.41
480.122	4834.23
480.326	4737.98
480.531	4795.32
480.735	4752.31
480.94	4856.76
481.144	4881.33
481.348	4582.33
481.553	4801.46
481.757	4627.39
481.961	4729.78
482.166	4789.17
482.37	4764.6
482.574	4615.1
482.778	4709.3
482.983	4844.47
483.187	4684.73
483.391	4647.87
483.595	4570.04
483.8	4592.57
484.004	4553.66
484.208	4703.16
484.412	4660.15
484.616	4660.15
484.821	4746.17
485.025	4604.86
485.229	4688.82
485.433	4627.39
485.637	4621.24
485.841	4580.28
486.045	4479.93
486.249	4715.45
486.453	4522.94
486.657	4662.2
486.861	4713.4
487.065	4441.02
487.269	4787.13
487.473	4551.61
487.677	4658.1
487.881	4604.86
488.085	4682.68
488.289	4697.02
488.493	4742.07
488.697	4750.26
488.901	4647.87
489.105	4662.2
489.309	4654.01
489.512	4639.67
489.716	4740.02
489.92	4596.67
490.124	4789.17
490.328	4926.39
490.531	4647.87
490.735	4787.13
490.939	4723.64
491.143	4813.75
491.346	4674.49
491.55	4918.2
491.754	4924.34
491.958	4981.68
492.161	4840.37
492.365	4916.15
492.569	5006.26
492.772	4981.68
492.976	5057.46
493.18	4924.34
493.383	5133.23
493.587	5004.21
493.79	5145.52
493.994	5272.5
494.197	5137.33
494.401	5270.45
494.605	5213.1
494.808	5266.35
495.012	5350.32
495.215	5260.21
495.419	5534.64
495.622	5491.63
495.825	5331.89
496.029	5456.81
496.232	5546.92
496.436	5497.77
496.639	5802.92
496.843	5673.9
497.046	5845.93
497.249	6007.72
497.453	5915.56
497.656	5929.89
497.859	5884.84
498.063	6089.64
498.266	6167.46
498.469	6419.36
498.673	6202.27
498.876	6245.28
499.079	6497.18
499.282	6349.73
499.485	6413.21
499.689	6589.34
499.892	6687.64
500.095	6712.22
500.298	7017.36
500.501	6796.18
500.705	7025.56
500.908	7183.25
501.111	7125.91
501.314	7369.62
501.517	7293.84
501.72	7574.41
501.923	7531.41
502.126	7664.52
502.329	7666.57
502.532	7826.31
502.735	7740.3
502.938	7967.62
503.141	8055.69
503.344	8115.08
503.547	8240
503.75	8274.82
503.953	8375.17
504.156	8432.51
504.359	8532.86
504.562	8784.76
504.765	8766.33
504.968	8801.15
505.17	8979.32
505.373	9094.01
505.576	9220.98
505.779	9562.99
505.982	9270.13
506.185	9694.06
506.387	9513.84
506.59	9866.09
506.793	9849.71
506.996	9818.99
507.198	10226.53
507.401	10171.24
507.604	10453.86
507.807	10476.38
508.009	10367.84
508.212	10808.16
508.415	10795.87
508.617	11072.34
508.82	11062.1
509.022	10816.35
509.225	11234.13
509.428	11422.55
509.63	11586.38
509.833	11518.8
510.035	12014.41
510.238	11903.82
510.44	11909.96
510.643	12448.58
510.845	12237.64
511.048	12530.5
511.25	12593.98
511.453	12659.52
511.655	13114.17
511.858	13222.71
512.06	13165.37
512.262	13501.23
512.465	13511.47
512.667	13714.22
512.87	13841.2
513.072	13726.51
513.274	14132.01
513.477	14455.59
513.679	14349.09
513.881	14650.14
514.084	14674.72
514.286	14701.34
514.488	14713.63
514.69	15362.84
514.893	15309.59
515.095	15352.6
515.297	15895.31
515.499	15807.25
515.701	16067.34
515.904	16118.54
516.106	16261.9
516.308	16481.03
516.51	16732.93
516.712	16755.46
516.914	16950.01
517.116	17126.14
517.318	17464.05
517.52	17572.6
517.722	17656.56
517.925	17844.98
518.127	18281.19
518.329	18365.16
518.531	18154.22
518.733	18322.15
518.935	18750.18
519.136	18764.51
519.338	19133.15
519.54	19020.51
519.742	19542.74
519.944	19542.74
520.146	19872.46
520.348	19899.09
520.55	20013.77
520.752	20124.36
520.954	20619.97
521.155	20599.49
521.357	20869.83
521.559	21125.82
521.761	21533.37
521.963	21467.83
522.164	21588.66
522.366	21545.66
522.568	21834.42
522.77	22125.23
522.971	22495.91
523.173	21840.56
523.375	22465.19
523.576	22411.95
523.778	22153.9
523.98	22731.43
524.181	22778.53
524.383	22956.71
524.584	23501.47
524.786	23382.68
524.988	23462.55
525.189	23298.72
525.391	24087.18
525.592	23958.16
525.794	24326.8
525.995	24060.56
526.197	24038.03
526.398	24838.79
526.6	24541.83
526.801	24601.22
527.003	24963.72
527.204	24586.89
527.406	25076.35
527.607	25115.26
527.808	25299.58
528.01	24887.94
528.211	25098.88
528.412	25713.27
528.614	25225.86
528.815	25307.77
529.016	25526.91
529.218	25410.17
529.419	26155.63
529.62	25895.54
529.822	26036.85
530.023	25991.8
530.224	26122.87
530.425	25813.62
530.626	26083.95
530.828	25641.59
531.029	26088.05
531.23	26065.52
531.431	26196.59
531.632	26092.15
531.833	26557.03
532.035	26464.88
532.236	26358.38
532.437	26563.18
532.638	26559.08
532.839	26344.05
533.04	26638.95
533.241	26397.29
533.442	26985.06
533.643	26706.54
533.844	26526.32
534.045	26729.06
534.246	26387.05
534.447	26935.91
534.648	26735.21
534.849	27087.46
535.05	26698.34
535.251	26907.24
535.451	26616.43
535.652	26983.01
535.853	26782.31
536.054	26886.76
536.255	26935.91
536.456	26913.38
536.657	26872.42
536.857	26935.91
537.058	26749.54
537.259	27101.79
537.46	27368.03
537.66	26817.13
537.861	26921.57
538.062	26585.71
538.263	26907.24
538.463	26841.7
538.664	27155.04
538.865	26993.25
539.065	26927.72
539.266	26757.74
539.466	27226.72
539.667	26583.66
539.868	27290.21
540.068	26735.21
540.269	26784.36
540.469	26731.11
540.67	26847.85
540.87	26894.95
541.071	27054.69
541.271	27187.81
541.472	26485.36
541.672	27009.64
541.873	26878.57
542.073	26471.02
542.274	27089.51
542.474	27093.6
542.675	26669.67
542.875	27095.65
543.075	26710.63
543.276	26671.72
543.476	27251.3
543.676	26880.61
543.877	27066.98
544.077	26831.46
544.277	26817.13
544.478	26835.56
544.678	26696.3
544.878	26772.07
545.078	26886.76
545.279	26577.51
545.479	26819.17
545.679	26851.94
545.879	26903.14
546.079	26690.15
546.28	26813.03
546.48	26454.64
546.68	26663.53
546.88	27060.84
547.08	26641
547.28	26714.73
547.48	26632.81
547.68	26616.43
547.88	26638.95
548.081	26843.75
548.281	26636.91
548.481	26921.57
548.681	26978.92
548.881	26874.47
549.081	26856.04
549.28	26704.49
549.48	26819.17
549.68	26567.27
549.88	27290.21
550.08	26628.71
550.28	26839.65
550.48	26698.34
550.68	26935.91
550.88	26899.05
551.08	26741.35
551.279	26911.33
551.479	26651.24
551.679	26858.09
551.879	26872.42
552.079	26565.23
552.278	26665.58
552.478	26563.18
552.678	26552.94
552.878	26753.64
553.077	26378.86
553.277	26450.54
553.477	26970.72
553.676	26745.45
553.876	26856.04
554.076	26440.3
554.275	26262.13
554.475	26126.96
554.674	26559.08
554.874	26614.38
555.074	26342
555.273	26393.2
555.473	26980.96
555.672	26026.61
555.872	26337.9
556.071	26597.99
556.271	26643.05
556.47	26104.43
556.67	26346.09
556.869	26159.73
557.068	26260.08
557.268	25907.83
557.467	26215.02
557.667	25758.33
557.866	25875.06
558.065	25965.17
558.265	25813.62
558.464	26026.61
558.663	26104.43
558.863	25551.48
559.062	26079.86
559.261	25543.29
559.461	25977.46
559.66	25535.1
559.859	25729.66
560.058	25692.79
560.258	25614.97
560.457	25440.89
560.656	25455.23
560.855	25711.22
561.054	25647.74
561.253	25133.7
561.453	25625.21
561.652	25358.97
561.851	25090.69
562.05	25111.17
562.249	24869.51
562.448	25162.37
562.647	25139.84
562.846	25195.14
563.045	25227.9
563.244	24980.1
563.443	25342.59
563.642	24701.58
563.841	24853.12
564.04	24834.69
564.239	24998.53
564.438	24752.77
564.637	24603.27
564.836	24810.12
565.035	24429.2
565.234	24300.17
565.432	24527.5
565.631	24318.6
565.83	24693.38
566.029	24113.81
566.228	24185.49
566.427	23888.53
566.625	24089.23
566.824	23941.78
567.023	24126.1
567.222	23437.98
567.42	24130.19
567.619	23941.78
567.818	23675.54
568.016	23753.37
568.215	23843.48
568.414	23446.17
568.612	23863.96
568.811	23356.06
569.01	23511.71
569.208	22979.23
569.407	23501.47
569.605	23425.69
569.804	23231.13
570.002	23063.2
570.201	23001.76
570.4	22870.69
570.598	23112.35
570.797	22772.39
570.995	22850.21
571.193	22590.12
571.392	22848.16
571.59	22647.46
571.789	22721.19
571.987	22614.69
572.186	22389.42
572.384	22340.27
572.582	22170.29
572.781	22291.12
572.979	22282.92
573.177	22209.2
573.376	21998.26
573.574	21789.36
573.772	21883.57
573.971	22014.64
574.169	21682.87
574.367	21269.18
574.565	21836.47
574.763	21424.83
574.962	21504.7
575.16	21263.04
575.358	21543.61
575.556	21048
575.754	21498.55
575.952	21232.32
576.151	21562.04
576.349	21099.2
576.547	21103.29
576.745	21363.39
576.943	20947.65
577.141	20654.79
577.339	20787.91
577.537	20615.88
577.735	20480.71
577.933	20392.65
578.131	20366.03
578.329	20587.21
578.527	20341.45
578.725	20509.38
578.923	20644.55
579.121	20318.92
579.319	20294.35
579.516	20050.64
579.714	19989.2
579.912	20226.76
580.11	20028.11
580.308	20118.22
580.506	20122.32
580.704	19749.59
580.901	19690.2
581.099	19917.52
581.297	19770.07
581.495	19415.77
581.692	19487.45
581.89	19356.38
582.088	19210.97
582.285	19053.28
582.483	19331.8
582.681	19702.48
582.878	19167.96
583.076	19258.07
583.274	19090.14
583.471	19053.28
583.669	19165.92
583.866	18748.13
584.064	18950.88
584.262	18834.14
584.459	18774.75
584.657	18584.29
584.854	18840.29
585.052	18539.24
585.249	18606.82
585.447	18625.25
585.644	18463.46
585.841	18240.23
586.039	18252.52
586.236	17992.43
586.434	18176.75
586.631	17914.61
586.828	18244.33
587.026	18000.62
587.223	18035.44
587.42	17711.86
587.618	17720.05
587.815	17750.77
588.012	17775.34
588.21	17746.67
588.407	17720.05
588.604	17695.47
588.801	17265.4
588.999	17791.73
589.196	17308.41
589.393	17427.19
589.59	17281.78
589.787	17220.35
589.984	17242.87
590.182	17079.04
590.379	17128.19
590.576	17111.8
590.773	16919.29
590.97	16759.55
591.167	17066.75
591.364	16769.79
591.561	16847.61
591.758	16726.78
591.955	16851.71
592.152	16880.38
592.349	16626.43
592.546	16730.88
592.743	16405.25
592.94	16349.96
593.137	16286.47
593.334	16321.29
593.531	16192.26
593.727	16202.5
593.924	16341.77
594.121	16012.04
594.318	16165.64
594.515	15942.41
594.712	15885.07
594.908	15921.93
595.105	16247.56
595.302	15928.08
595.499	15702.8
595.696	15710.99
595.892	15866.64
596.089	16071.43
596.286	15670.03
596.482	15710.99
596.679	15637.27
596.876	15430.42
597.072	15446.8
597.269	15639.31
597.466	15282.97
597.662	15133.47
597.859	15176.47
598.055	15352.6
598.252	15272.73
598.448	15211.29
598.645	14713.63
598.841	15006.49
599.038	15225.62
599.234	15090.46
599.431	14693.15
599.627	14988.06
599.824	15104.79
600.02	14881.56
600.217	14873.37
600.413	14727.97
600.609	14854.94
600.806	14560.03
601.002	14598.95
601.198	14541.6
601.395	14549.79
601.591	14375.72
601.787	14363.43
601.984	14240.55
602.18	14324.52
602.376	14103.34
602.572	14242.6
602.769	14238.5
602.965	13769.52
603.161	13996.84
603.357	14113.58
603.553	13941.55
603.75	14025.51
603.946	13818.67
604.142	14093.1
604.338	13673.26
604.534	13656.88
604.73	13429.56
604.926	13669.17
605.122	13591.34
605.318	13677.36
605.514	13474.61
605.71	13595.44
605.906	13419.32
606.102	13349.68
606.298	13495.09
606.494	13200.18
606.69	13212.47
606.886	13445.94
607.082	13253.43
607.278	13255.48
607.474	12958.52
607.67	13099.83
607.866	12882.75
608.062	13075.26
608.257	12854.08
608.453	12987.19
608.649	13136.7
608.845	12774.21
609.041	12710.72
609.236	12733.25
609.432	12708.67
609.628	12675.9
609.824	12669.76
610.019	12675.9
610.215	12405.57
610.411	12692.29
610.606	12546.88
610.802	12528.45
610.998	12419.91
611.193	12446.53
611.389	12299.08
611.584	12223.3
611.78	12106.57
611.976	12249.93
612.171	11952.97
612.367	12231.49
612.562	12206.92
612.758	11969.35
612.953	12108.62
613.149	12219.21
613.344	11813.71
613.539	12055.37
613.735	11979.59
613.93	11895.63
614.126	11635.53
614.321	11993.93
614.517	12004.17
614.712	11975.5
614.907	11789.13
615.103	11998.02
615.298	11811.66
615.493	11772.75
615.688	11305.81
615.884	11701.07
616.079	11707.21
616.274	11631.44
616.47	11713.36
616.665	11565.9
616.86	11518.8
617.055	11479.89
617.25	11381.59
617.445	11594.58
617.641	11334.48
617.836	11420.5
618.031	11168.6
618.226	11375.44
618.421	11133.78
618.616	11195.22
618.811	11154.26
619.006	11246.42
619.201	10859.35
619.396	11029.34
619.591	10808.16
619.786	10894.17
619.981	10767.2
620.176	10957.66
620.371	10648.41
620.566	10654.56
620.761	10500.96
620.956	10718.04
621.151	10562.4
621.346	10507.1
621.541	10371.94
621.735	10431.33
621.93	10204
622.125	10175.33
622.32	10238.82
622.515	10285.92
622.709	10054.5
622.904	10054.5
623.099	9958.25
623.294	10140.52
623.488	9986.92
623.683	9919.34
623.878	9757.55
624.072	9706.35
624.267	9769.83
624.462	9681.77
624.656	9474.93
624.851	9517.93
625.046	9591.66
625.24	9231.22
625.435	9382.77
625.629	9485.17
625.824	9288.56
626.018	9231.22
626.213	9001.85
626.407	9098.1
626.602	8971.13
626.796	9126.77
626.991	9069.43
627.185	8932.22
627.38	8844.15
627.574	8758.14
627.768	8772.47
627.963	8891.26
628.157	8586.11
628.352	8797.05
628.546	8528.77
628.74	8547.2
628.935	8530.81
629.129	8592.25
629.323	8422.27
629.517	8360.83
629.712	8336.26
629.906	8395.65
630.1	8156.04
630.294	8268.67
630.489	8328.06
630.683	8317.83
630.877	8008.58
631.071	7877.51
631.265	8061.83
631.459	7783.31
631.653	7955.33
631.848	7904.14
632.042	7801.74
632.236	7840.65
632.43	7732.11
632.624	7666.57
632.818	7736.2
633.012	7713.67
633.206	7695.24
633.4	7521.17
633.594	7535.5
633.788	7359.38
633.982	7414.67
634.176	7500.69
634.369	7304.08
634.563	7338.9
634.757	7383.95
634.951	7371.66
635.145	7314.32
635.339	7158.67
635.533	7087
635.726	6882.2
635.92	6876.06
636.114	7121.81
636.308	6884.25
636.501	6925.21
636.695	7000.98
636.889	6876.06
637.083	6917.01
637.276	6767.51
637.47	6849.43
637.664	6736.79
637.857	6644.63
638.051	6636.44
638.244	6742.94
638.438	6519.71
638.632	6663.07
638.825	6470.56
639.019	6456.22
639.212	6484.89
639.406	6429.6
639.599	6458.27
639.793	6319.01
639.986	6185.89
640.18	6351.78
640.373	6226.85
640.567	6265.76
640.76	6009.76
640.954	6161.31
641.147	6063.01
641.34	6155.17
641.534	6116.26
641.727	5958.57
641.92	5845.93
642.114	5895.08
642.307	5903.27
642.5	5942.18
642.694	5704.62
642.887	5716.9
643.08	5632.94
643.273	5626.79
643.467	5645.23
643.66	5639.08
643.853	5757.86
644.046	5546.92
644.239	5657.51
644.432	5591.98
644.626	5471.15
644.819	5385.13
645.012	5303.22
645.205	5299.12
645.398	5362.61
645.591	5141.43
645.784	5276.59
645.977	5192.62
646.17	5241.78
646.363	5206.96
646.556	5174.19
646.749	5041.08
646.942	4981.68
647.135	4903.86
647.328	4981.68
647.521	4977.59
647.714	4803.51
647.907	4959.16
648.099	4932.53
648.292	4821.94
648.485	4750.26
648.678	4877.24
648.871	4744.12
649.064	4635.58
649.256	4725.69
649.449	4848.57
649.642	4684.73
649.835	4615.1
650.027	4611
650.22	4578.23
650.413	4373.44
650.605	4760.5
650.798	4545.47
650.991	4508.6
651.183	4361.15
651.376	4441.02
651.568	4393.92
651.761	4385.73
651.954	4303.81
652.146	4334.53
652.339	4348.86
652.531	4277.18
652.724	4221.89
652.916	4158.4
653.109	4160.45
653.301	4266.94
653.494	4084.67
653.686	4066.24
653.879	4185.02
654.071	4244.42
654.263	3992.52
654.456	4205.5
654.648	4121.54
654.84	4119.49
655.033	3879.88
655.225	3912.64
655.417	3800.01
655.61	3777.48
655.802	4029.38
655.994	3881.92
656.186	3881.92
656.379	3787.72
656.571	3791.81
656.763	3617.74
656.955	3834.82
657.148	3832.77
657.34	3773.38
657.532	3640.26
657.724	3636.17
657.916	3642.31
658.108	3566.54
658.3	3482.57
658.492	3535.82
658.684	3537.87
658.876	3439.56
659.068	3437.52
659.26	3255.25
659.452	3474.38
659.644	3242.96
659.836	3398.6
660.028	3437.52
660.22	3396.56
660.412	3380.17
660.604	3273.68
660.796	3185.62
660.988	3337.17
661.18	3337.17
661.372	3261.39
661.563	3175.38
661.755	3177.42
661.947	3191.76
662.139	3107.79
662.331	3214.29
662.522	3146.7
662.714	3099.6
662.906	3105.74
663.097	3097.55
663.289	3029.97
663.481	3079.12
663.673	3111.89
663.864	3068.88
664.056	2999.25
664.247	2986.96
664.439	2960.34
664.631	2943.96
664.822	2958.29
665.014	2968.53
665.205	2943.96
665.397	2905.04
665.588	2862.04
665.78	2800.6
665.971	2788.31
666.163	2649.05
666.354	2843.6
666.546	2771.93
666.737	2827.22
666.929	2771.93
667.12	2823.12
667.311	2677.72
667.503	2714.58
667.694	2651.1
667.885	2757.59
668.077	2757.59
668.268	2616.28
668.459	2706.39
668.651	2581.46
668.842	2640.86
669.033	2515.93
669.224	2599.9
669.416	2608.09
669.607	2493.4
669.798	2554.84
669.989	2507.74
670.18	2554.84
670.371	2550.75
670.563	2481.11
670.754	2565.08
670.945	2534.36
671.136	2479.07
671.327	2456.54
671.518	2409.44
671.709	2581.46
671.9	2464.73
672.091	2456.54
672.282	2331.61
672.473	2399.2
672.664	2423.77
672.855	2409.44
673.046	2436.06
673.237	2331.61
673.428	2393.05
673.619	2356.19
673.809	2337.76
674	2325.47
674.191	2337.76
674.382	2237.41
674.573	2413.53
674.764	2270.17
674.954	2251.74
675.145	2247.65
675.336	2313.18
675.527	2241.5
675.717	2294.75
675.908	2184.16
676.099	2286.56
676.289	2339.8
676.48	2157.54
676.671	2268.13
676.861	2243.55
677.052	2163.68
677.243	2157.54
677.433	2266.08
677.624	2216.93
677.814	2243.55
678.005	2184.16
678.195	2151.39
678.386	2171.87
678.576	2114.53
678.767	2089.95
678.957	2227.17
679.148	2155.49
679.338	2173.92
679.529	2225.12
679.719	2182.11
679.909	2024.42
680.1	2108.38
680.29	2137.06
680.481	2151.39
680.671	2079.71
680.861	2194.4
681.052	2016.23
681.242	2005.99
681.432	2198.49
681.622	2096.1
681.813	2051.04
682.003	2067.42
682.193	2182.11
682.383	2055.14
682.573	2089.95
682.764	2139.1
682.954	1905.63
683.144	2016.23
683.334	2065.38
683.524	2130.91
683.714	2008.03
683.904	2159.58
684.094	2022.37
684.284	2003.94
684.474	2034.66
684.664	2077.66
684.854	2051.04
685.044	2014.18
685.234	2030.56
685.424	2038.75
685.614	1952.74
685.804	1922.02
685.994	2010.08
686.184	1948.64
686.374	2114.53
686.564	1985.51
686.753	1967.07
686.943	1846.24
687.133	1899.49
687.323	1909.73
687.513	2003.94
687.702	1911.78
687.892	2001.89
688.082	2040.8
688.272	1928.16
688.461	2077.66
688.651	2020.32
688.841	1848.29
689.03	2022.37
689.22	1881.06
689.41	1919.97
689.599	1973.22
689.789	1926.11
689.979	1917.92
690.168	1901.54
690.358	1911.78
690.547	1946.59
690.737	1919.97
690.926	1938.4
691.116	1930.21
691.305	1903.59
691.495	1815.52
691.684	1774.56
691.874	1846.24
692.063	1901.54
692.252	1868.77
692.442	1827.81
692.631	1858.53
692.82	1862.63
693.01	1788.9
693.199	1897.44
693.388	1895.4
693.578	1793
693.767	1836
693.956	1854.44
694.146	1836
694.335	1846.24
694.524	1889.25
694.713	1903.59
694.902	1846.24
695.092	1825.76
695.281	1811.43
695.47	1928.16
695.659	1795.04
695.848	1852.39
696.037	1944.55
696.226	1739.75
696.415	1905.63
696.604	1899.49
696.793	1866.72
696.982	1801.19
697.171	1940.45
697.36	1836
697.549	1821.67
697.738	1952.74
697.927	1905.63
698.116	1872.87
698.305	1809.38
698.494	1762.28
698.683	1842.15
698.872	1928.16
699.061	1907.68
699.25	1887.2
699.438	1829.86
699.627	1917.92
699.816	1874.92
700.005	1897.44
700.193	1897.44
700.382	1872.87
700.571	1911.78
700.76	1893.35
700.948	1901.54
701.137	1934.31
701.326	1833.96
701.514	1772.52
701.703	1788.9
701.892	1795.04
702.08	1985.51
702.269	1905.63
702.457	1805.28
702.646	1922.02
702.834	1838.05
703.023	1811.43
703.212	1891.3
703.4	1868.77
703.589	1868.77
703.777	1919.97
703.965	1747.94
704.154	1809.38
704.342	1864.68
704.531	1725.41
704.719	1760.23
704.907	1756.13
705.096	1809.38
705.284	1825.76
705.472	1823.72
705.661	1821.67
705.849	1752.04
706.037	1825.76
706.226	1704.93
706.414	1786.85
706.602	1774.56
706.79	1762.28
706.979	1729.51
707.167	1723.37
707.355	1739.75
707.543	1729.51
707.731	1833.96
707.919	1719.27
708.107	1754.09
708.296	1778.66
708.484	1739.75
708.672	1666.02
708.86	1811.43
709.048	1704.93
709.236	1663.97
709.424	1793
709.612	1713.13
709.8	1747.94
709.988	1760.23
710.176	1661.93
710.364	1653.73
710.551	1608.68
710.739	1874.92
710.927	1678.31
711.115	1657.83
711.303	1627.11
711.491	1647.59
711.679	1659.88
711.866	1614.82
712.054	1676.26
712.242	1594.34
712.43	1623.02
712.617	1680.36
712.805	1614.82
712.993	1602.54
713.181	1569.77
713.368	1586.15
713.556	1639.4
713.744	1623.02
713.931	1584.1
714.119	1631.21
714.306	1614.82
714.494	1592.3
714.682	1606.63
714.869	1620.97
715.057	1559.53
715.244	1600.49
715.432	1629.16
715.619	1663.97
715.807	1569.77
715.994	1549.29
716.182	1641.45
716.369	1637.35
716.556	1526.76
716.744	1477.61
716.931	1450.99
717.119	1555.43
717.306	1483.75
717.493	1414.12
717.681	1567.72
717.868	1522.66
718.055	1422.31
718.242	1493.99
718.43	1428.46
718.617	1418.22
718.804	1493.99
718.991	1496.04
719.179	1555.43
719.366	1450.99
719.553	1416.17
719.74	1475.56
719.927	1434.6
720.114	1397.74
720.301	1416.17
720.488	1444.84
720.676	1397.74
720.863	1477.61
721.05	1448.94
721.237	1498.09
721.424	1448.94
721.611	1500.14
721.798	1295.34
721.985	1414.12
722.172	1356.78
722.358	1436.65
722.545	1364.97
722.732	1418.22
722.919	1387.5
723.106	1371.12
723.293	1324.01
723.48	1379.31
723.667	1289.2
723.853	1301.48
724.04	1401.83
724.227	1373.16
724.414	1330.16
724.6	1332.2
724.787	1385.45
724.974	1405.93
725.161	1389.55
725.347	1188.85
725.534	1274.86
725.72	1262.57
725.907	1364.97
726.094	1344.49
726.28	1371.12
726.467	1246.19
726.653	1238
726.84	1303.53
727.027	1342.44
727.213	1209.33
727.4	1289.2
727.586	1377.26
727.773	1260.52
727.959	1328.11
728.145	1291.24
728.332	1215.47
728.518	1199.09
728.705	1166.32
728.891	1307.63
729.077	1194.99
729.264	1260.52
729.45	1276.91
729.636	1276.91
729.823	1266.67
730.009	1227.76
730.195	1278.96
730.382	1299.44
730.568	1225.71
730.754	1201.13
730.94	1278.96
731.126	1186.8
731.313	1258.48
731.499	1231.85
731.685	1264.62
731.871	1297.39
732.057	1336.3
732.243	1199.09
732.429	1248.24
732.615	1176.56
732.801	1117.17
732.987	1162.22
733.173	1209.33
733.359	1209.33
733.545	1119.21
733.731	1125.36
733.917	1115.12
734.103	1168.37
734.289	1170.41
734.475	1078.26
734.661	1076.21
734.847	1137.65
735.033	1160.17
735.219	1029.1
735.404	1045.49
735.59	1080.3
735.776	1121.26
735.962	1104.88
736.148	1170.41
736.333	1215.47
736.519	1166.32
736.705	1080.3
736.89	1043.44
737.076	1068.02
737.262	1106.93
737.447	1070.06
737.633	1117.17
737.819	1070.06
738.004	1080.3
738.19	1047.54
738.375	1086.45
738.561	1070.06
738.747	1082.35
738.932	1092.59
739.118	1115.12
739.303	1092.59
739.489	1084.4
739.674	1111.02
739.859	984.05
740.045	1154.03
740.23	1055.73
740.416	979.95
740.601	1141.74
740.786	1082.35
740.972	988.14
741.157	965.62
741.342	957.43
741.528	971.76
741.713	1063.92
741.898	990.19
742.084	1010.67
742.269	1014.77
742.454	1074.16
742.639	1072.11
742.824	990.19
743.01	998.38
743.195	1039.34
743.38	977.91
743.565	1006.58
743.75	957.43
743.935	965.62
744.12	963.57
744.305	855.03
744.49	928.75
744.675	947.19
744.86	891.89
745.045	883.7
745.23	951.28
745.415	930.8
745.6	951.28
745.785	887.79
745.97	986.1
746.155	902.13
746.34	934.9
746.525	875.51
746.71	928.75
746.895	885.75
747.079	828.4
747.264	926.71
747.449	859.12
747.634	848.88
747.819	887.79
748.003	865.27
748.188	857.07
748.373	805.88
748.557	832.5
748.742	842.74
748.927	805.88
749.111	807.92
749.296	824.31
749.481	832.5
749.665	846.84
749.85	783.35
750.034	838.64
750.219	758.77
750.404	801.78
750.588	766.96
750.773	732.15
750.957	756.72
751.141	830.45
751.326	791.54
751.51	699.38
751.695	771.06
751.879	728.05
752.064	691.19
752.248	723.96
752.432	750.58
752.617	676.85
752.801	715.77
752.985	760.82
753.17	746.48
753.354	736.24
753.538	703.48
753.722	752.63
753.907	691.19
754.091	683
754.275	715.77
754.459	719.86
754.643	711.67
754.828	723.96
755.012	685.05
755.196	607.22
755.38	648.18
755.564	656.37
755.748	570.36
755.932	656.37
756.116	664.57
756.3	633.85
756.484	605.17
756.668	603.13
756.852	658.42
757.036	625.65
757.22	629.75
757.404	662.52
757.588	594.93
757.772	642.04
757.956	574.46
758.14	670.71
758.323	578.55
758.507	607.22
758.691	572.41
758.875	656.37
759.059	605.17
759.242	590.84
759.426	543.74
759.61	609.27
759.794	517.11
759.977	574.46
760.161	531.45
760.345	527.35
760.528	543.74
760.712	578.55
760.895	568.31
761.079	484.34
761.263	594.93
761.446	494.58
761.63	535.54
761.813	474.1
761.997	519.16
762.18	615.41
762.364	580.6
762.547	478.2
762.731	541.69
762.914	527.35
763.098	500.73
763.281	484.34
763.464	525.3
763.648	549.88
763.831	476.15
764.015	533.5
764.198	590.84
764.381	383.99
764.564	435.19
764.748	513.02
764.931	494.58
765.114	519.16
765.297	459.77
765.481	510.97
765.664	476.15
765.847	461.82
766.03	525.3
766.213	490.49
766.397	545.78
766.58	519.16
766.763	476.15
766.946	451.58
767.129	457.72
767.312	420.86
767.495	527.35
767.678	496.63
767.861	519.16
768.044	433.15
768.227	506.87
768.41	459.77
768.593	470.01
768.776	470.01
768.959	465.91
769.142	445.43
769.324	457.72
769.507	435.19
769.69	457.72
769.873	490.49
770.056	494.58
770.239	447.48
770.421	472.06
770.604	433.15
770.787	406.52
770.97	340.99
771.152	390.14
771.335	476.15
771.518	420.86
771.7	486.39
771.883	455.67
772.066	406.52
772.248	377.85
772.431	424.95
772.613	437.24
772.796	447.48
772.978	414.71
773.161	461.82
773.343	388.09
773.526	490.49
773.708	402.43
773.891	451.58
774.073	381.95
774.256	332.79
774.438	470.01
774.621	455.67
774.803	418.81
774.985	336.89
775.168	349.18
775.35	398.33
775.532	400.38
775.715	328.7
775.897	406.52
776.079	377.85
776.261	353.27
776.444	377.85
776.626	357.37
776.808	363.51
776.99	343.03
777.173	332.79
777.355	404.47
777.537	355.32
777.719	369.66
777.901	429.05
778.083	312.32
778.265	410.62
778.447	361.47
778.629	343.03
778.811	431.1
778.993	390.14
779.175	291.84
779.357	297.98
779.539	336.89
779.721	336.89
779.903	287.74
780.085	336.89
780.267	336.89
780.449	250.88
780.631	386.04
780.812	254.97
780.994	363.51
781.176	377.85
781.358	418.81
781.54	265.21
781.721	273.4
781.903	175.1
782.085	297.98
782.267	252.92
782.448	281.6
782.63	232.44
782.812	287.74
782.993	316.41
783.175	314.36
783.357	252.92
783.538	248.83
783.72	306.17
783.901	285.69
784.083	254.97
784.264	191.49
784.446	271.36
784.627	279.55
784.809	261.12
784.99	283.64
785.172	220.16
785.353	238.59
785.535	248.83
785.716	226.3
785.897	179.2
786.079	271.36
786.26	218.11
786.441	287.74
786.623	271.36
786.804	269.31
786.985	230.4
787.167	224.25
787.348	216.06
787.529	297.98
787.71	340.99
787.891	222.2
788.073	222.2
788.254	261.12
788.435	224.25
788.616	263.16
788.797	228.35
788.978	238.59
789.159	177.15
789.34	134.14
789.522	214.01
789.703	173.05
789.884	152.57
790.065	199.68
790.246	185.34
790.427	222.2
790.607	207.87
790.788	209.92
790.969	252.92
791.15	175.1
791.331	136.19
791.512	150.53
791.693	132.09
791.874	199.68
792.054	179.2
792.235	263.16
792.416	140.29
792.597	125.95
792.778	150.53
792.958	146.43
793.139	154.62
793.32	224.25
793.5	115.71
793.681	232.44
793.862	150.53
794.042	132.09
794.223	130.05
794.404	134.14
794.584	236.54
794.765	236.54
794.945	148.48
795.126	142.33
795.306	189.44
795.487	203.77
795.667	160.77
795.848	179.2
796.028	136.19
796.209	246.78
796.389	201.72
796.57	201.72
796.75	142.33
796.93	105.47
797.111	144.38
797.291	103.42
797.471	107.52
797.652	111.61
797.832	113.66
798.012	140.29
798.192	199.68
798.373	197.63
798.553	107.52
798.733	166.91
798.913	74.75
799.093	220.16
799.274	138.24
799.454	140.29
799.634	193.53
799.814	177.15
799.994	152.57
800.174	109.57
800.354	60.42
800.534	138.24
800.714	136.19
800.894	142.33
801.074	183.29
801.254	72.7
801.434	171.01
801.614	134.14
801.794	60.42
801.974	306.17
802.154	175.1
802.334	76.8
802.514	87.04
802.693	183.29
802.873	128
803.053	89.09
803.233	189.44
803.413	156.67
803.592	150.53
803.772	195.58
803.952	146.43
804.131	117.76
804.311	166.91
804.491	64.51
804.67	33.79
804.85	140.29
805.03	138.24
805.209	140.29
805.389	121.85
805.568	109.57
805.748	60.42
805.928	44.03
806.107	56.32
806.287	125.95
806.466	148.48
806.646	105.47
806.825	62.46
807.004	185.34
807.184	136.19
807.363	95.23
807.543	33.79
807.722	117.76
807.901	152.57
808.081	171.01
808.26	87.04
808.439	99.33
808.619	78.85
808.798	175.1
808.977	95.23
809.156	37.89
809.336	78.85
809.515	136.19
809.694	152.57
809.873	99.33
810.052	48.13
810.231	142.33
810.411	56.32
810.59	50.18
810.769	101.37
810.948	52.22
811.127	101.37
811.306	103.42
811.485	95.23
811.664	80.89
811.843	97.28
812.022	193.53
812.201	66.56
812.38	44.03
812.559	74.75
812.737	123.9
812.916	54.27
813.095	80.89
813.274	109.57
813.453	101.37
813.632	60.42
813.811	101.37
813.989	113.66
814.168	156.67
814.347	39.94
814.526	25.6
814.704	134.14
814.883	64.51
815.062	89.09
815.24	52.22
815.419	175.1
815.598	136.19
815.776	52.22
815.955	119.81
816.133	60.42
816.312	93.18
816.49	156.67
816.669	132.09
816.847	166.91
817.026	17.41
817.204	101.37
817.383	109.57
817.561	76.8
817.74	107.52
817.918	113.66
818.097	5.12
818.275	66.56
818.453	60.42
818.632	91.13
818.81	48.13
818.988	64.51
819.167	54.27
819.345	66.56
819.523	82.94
819.701	50.18
819.879	109.57
820.058	72.7
820.236	101.37
820.414	84.99
820.592	93.18
820.77	15.36
820.948	23.55
821.127	142.33
821.305	128
821.483	66.56
821.661	101.37
821.839	62.46
822.017	101.37
822.195	1.02
822.373	148.48
822.551	37.89
822.729	111.61
822.907	-5.12
823.085	121.85
823.262	39.94
823.44	82.94
823.618	105.47
823.796	27.65
823.974	33.79
824.152	64.51
824.329	31.74
824.507	27.65
824.685	99.33
824.863	50.18
825.04	31.74
825.218	50.18
825.396	109.57
825.574	62.46
825.751	62.46
825.929	109.57
826.107	-25.6
826.284	87.04
826.462	44.03
826.639	48.13
826.817	35.84
826.994	39.94
827.172	46.08
827.349	19.46
827.527	25.6
827.704	87.04
827.882	58.37
828.059	29.7
828.237	44.03
828.414	50.18
828.591	76.8
828.769	89.09
828.946	39.94
829.124	19.46
829.301	89.09
829.478	39.94
829.655	7.17
829.833	93.18
830.01	44.03
830.187	44.03
830.364	50.18
830.542	27.65
830.719	19.46
830.896	11.26
831.073	33.79
831.25	68.61
831.427	74.75
831.604	87.04
831.782	29.7
831.959	58.37
832.136	64.51
832.313	68.61
832.49	15.36
832.667	82.94
832.844	3.07
833.021	125.95
833.198	41.98
833.374	27.65
833.551	95.23
833.728	68.61
833.905	119.81
834.082	-23.55
834.259	31.74
834.436	39.94
834.612	-3.07
834.789	31.74
834.966	62.46
835.143	156.67
835.319	68.61
835.496	-17.41
835.673	37.89
835.85	19.46
836.026	37.89
836.203	23.55
836.38	105.47
836.556	-7.17
836.733	-5.12
836.909	107.52
837.086	9.22
837.262	-25.6
837.439	19.46
837.616	74.75
837.792	13.31
837.968	60.42
838.145	27.65
838.321	62.46
838.498	93.18
838.674	-1.02
838.851	-1.02
839.027	33.79
839.203	9.22
839.38	72.7
839.556	68.61
839.732	44.03
839.909	58.37
840.085	44.03
840.261	-15.36
840.437	70.65
840.614	52.22
840.79	-17.41
840.966	41.98
841.142	66.56
841.318	52.22
841.494	5.12
841.671	68.61
841.847	101.37
842.023	-3.07
842.199	56.32
842.375	25.6
842.551	13.31
842.727	76.8
842.903	9.22
843.079	97.28
843.255	33.79
843.431	-1.02
843.607	91.13
843.783	44.03
843.959	54.27
844.134	-7.17
844.31	33.79
844.486	25.6
844.662	19.46
844.838	15.36
845.013	64.51
845.189	52.22
845.365	78.85
845.541	44.03
845.716	37.89
845.892	21.5
846.068	-7.17
846.244	66.56
846.419	-35.84
846.595	-9.22
846.77	58.37
846.946	-13.31
847.122	19.46
847.297	70.65
847.473	21.5
847.648	25.6
847.824	21.5
847.999	-17.41
848.175	97.28
848.35	-46.08
848.526	33.79
848.701	-15.36
848.876	82.94
849.052	-3.07
849.227	23.55
849.403	35.84
849.578	29.7
849.753	50.18
849.929	84.99
850.104	-17.41
850.279	41.98
850.454	19.46
850.63	52.22
850.805	84.99
850.98	13.31
851.155	17.41
851.33	54.27
851.505	58.37
851.681	11.26
851.856	62.46
852.031	19.46
852.206	97.28
852.381	27.65
852.556	33.79
852.731	80.89
852.906	9.22
853.081	76.8
853.256	91.13
853.431	31.74
853.606	3.07
853.781	56.32
853.956	-35.84
854.131	21.5
854.305	7.17
854.48	1.02
854.655	23.55
854.83	25.6
855.005	-13.31
855.18	76.8
855.354	80.89
855.529	-37.89
855.704	29.7
855.879	37.89
856.053	-17.41
856.228	66.56
856.403	-19.46
856.577	25.6
856.752	44.03
856.926	64.51
857.101	9.22
857.276	9.22
857.45	35.84
857.625	50.18
857.799	5.12
857.974	9.22
858.148	58.37
858.323	70.65
858.497	39.94
858.672	58.37
858.846	-25.6
859.02	89.09
859.195	-5.12
859.369	37.89
859.543	58.37
859.718	-44.03
859.892	50.18
860.066	7.17
860.241	-27.65
860.415	37.89
860.589	84.99
860.763	11.26
860.938	25.6
861.112	39.94
861.286	19.46
861.46	56.32
861.634	29.7
861.808	-48.13
861.982	56.32
862.157	-3.07
862.331	11.26
862.505	56.32
862.679	46.08
862.853	50.18
863.027	-1.02
863.201	44.03
863.375	-13.31
863.549	68.61
863.722	27.65
863.896	46.08
864.07	19.46
864.244	21.5
864.418	23.55
864.592	19.46
864.766	80.89
864.939	50.18
865.113	1.02
865.287	60.42
865.461	66.56
865.634	-39.94
865.808	21.5
865.982	1.02
866.156	37.89
866.329	52.22
866.503	-25.6
866.676	-44.03
866.85	48.13
867.024	66.56
867.197	27.65
867.371	33.79
867.544	-60.42
867.718	23.55
867.891	66.56
868.065	7.17
868.238	-21.5
868.412	70.65
868.585	9.22
868.759	-15.36
868.932	-17.41
869.105	58.37
869.279	17.41
869.452	37.89
869.625	101.37
869.799	-1.02
869.972	105.47
870.145	-9.22
870.319	-9.22
870.492	70.65
870.665	21.5
870.838	-3.07
871.011	7.17
871.185	19.46
871.358	-13.31
871.531	35.84
871.704	-15.36
871.877	58.37
872.05	56.32
872.223	39.94
872.396	37.89
872.569	1.02
872.742	48.13
872.915	23.55
873.088	56.32
873.261	11.26
873.434	19.46
873.607	29.7
873.78	-54.27
873.953	39.94
874.126	35.84
874.299	-25.6
874.471	-13.31
874.644	9.22
874.817	-21.5
874.99	15.36
875.163	-54.27
875.335	-1.02
875.508	-50.18
875.681	-7.17
875.853	-15.36
876.026	31.74
876.199	13.31
876.371	-21.5
876.544	3.07
876.717	33.79
876.889	-60.42
877.062	60.42
877.234	48.13
877.407	29.7
877.579	35.84
877.752	35.84
877.924	9.22
878.097	21.5
878.269	-27.65
878.442	3.07
878.614	39.94
878.786	13.31
878.959	39.94
879.131	-27.65
879.303	-31.74
879.476	44.03
879.648	48.13
879.82	27.65
879.993	35.84
880.165	50.18
880.337	15.36
880.509	19.46
880.681	44.03
880.854	-31.74
881.026	1.02
881.198	64.51
881.37	-37.89
881.542	39.94
881.714	74.75
881.886	56.32
882.058	-31.74
882.23	1.02
882.402	9.22
882.574	-21.5
882.746	1.02
882.918	-33.79
883.09	50.18
883.262	11.26
883.434	-29.7
883.606	-15.36
883.778	21.5
883.95	15.36
884.122	-1.02
884.293	27.65
884.465	60.42
884.637	-11.26
884.809	11.26
884.98	39.94
885.152	3.07
885.324	39.94
885.496	-11.26
885.667	-48.13
885.839	-7.17
886.011	-25.6
886.182	97.28
886.354	25.6
886.525	5.12
886.697	15.36
886.869	27.65
887.04	68.61
887.212	-29.7
887.383	50.18
887.555	9.22
887.726	15.36
887.897	52.22
888.069	60.42
888.24	66.56
888.412	7.17
888.583	37.89
888.754	60.42
888.926	-11.26
889.097	-33.79
889.268	3.07
889.44	21.5
889.611	-25.6
889.782	50.18
889.953	-46.08
890.125	62.46
890.296	-27.65
890.467	5.12
890.638	54.27
890.809	-1.02
890.98	27.65
891.151	5.12
891.323	-17.41
891.494	27.65
891.665	107.52
891.836	50.18
892.007	17.41
892.178	64.51
892.349	37.89
892.52	46.08
892.691	-31.74
892.862	62.46
893.032	58.37
893.203	-41.98
893.374	37.89
893.545	66.56
893.716	5.12
893.887	21.5
894.057	-37.89
894.228	-13.31
894.399	-11.26
894.57	-29.7
894.74	33.79
894.911	-48.13
895.082	48.13
895.253	23.55
895.423	64.51
895.594	7.17
895.764	62.46
895.935	87.04
896.106	23.55
896.276	-5.12
896.447	-66.56
896.617	-17.41
896.788	5.12
896.958	-35.84
897.129	33.79
897.299	11.26
897.47	13.31
897.64	23.55
897.81	-1.02
897.981	23.55
898.151	52.22
898.322	44.03
898.492	74.75
898.662	-9.22
898.832	1.02
899.003	52.22
899.173	17.41
899.343	27.65
899.513	-11.26
