Data from USB4F104151__88__13-54-28-290.txt Node

Date: Thu Mar 13 13:54:28 EDT 2025
User: louis
Spectrometer: USB4F10415
Trigger mode: 4
Integration Time (sec): 1.000000E-2
Scans to average: 1
Electric dark correction enabled: true
Nonlinearity correction enabled: false
Boxcar width: 0
XAxis mode: Wavelengths
Number of Pixels in Spectrum: 3648
>>>>>Begin Spectral Data<<<<<
178.204	-49.49
178.424	-49.49
178.644	-49.49
178.864	-12.63
179.084	-16.73
179.304	-55.64
179.524	34.47
179.744	57
179.964	54.95
180.184	-45.4
180.404	36.52
180.624	-67.92
180.844	-55.64
181.064	-29.01
181.283	46.76
181.503	-0.34
181.723	24.23
181.943	28.33
182.163	69.29
182.383	36.52
182.602	-12.63
182.822	87.72
183.042	-57.68
183.262	-0.34
183.482	100.01
183.701	50.86
183.921	-18.77
184.141	16.04
184.361	93.87
184.58	73.39
184.8	52.91
185.02	61.1
185.239	32.43
185.459	46.76
185.679	16.04
185.898	16.04
186.118	32.43
186.338	22.19
186.557	89.77
186.777	38.57
186.997	32.43
187.216	24.23
187.436	1.71
187.655	18.09
187.875	132.78
188.095	50.86
188.314	100.01
188.534	67.24
188.753	85.67
188.973	-16.73
189.192	63.15
189.412	48.81
189.631	40.62
189.851	11.95
190.07	57
190.29	9.9
190.509	9.9
190.729	122.54
190.948	44.71
191.168	57
191.387	61.1
191.607	50.86
191.826	77.48
192.045	50.86
192.265	38.57
192.484	9.9
192.704	-2.39
192.923	-4.44
193.142	9.9
193.362	13.99
193.581	20.14
193.8	75.43
194.02	-2.39
194.239	97.96
194.458	-0.34
194.678	36.52
194.897	7.85
195.116	-16.73
195.335	50.86
195.555	52.91
195.774	54.95
195.993	42.67
196.212	75.43
196.432	1.71
196.651	9.9
196.87	30.38
197.089	91.82
197.308	5.8
197.528	3.75
197.747	69.29
197.966	38.57
198.185	-8.53
198.404	63.15
198.623	30.38
198.842	9.9
199.062	79.53
199.281	38.57
199.5	52.91
199.719	24.23
199.938	42.67
200.157	42.67
200.376	18.09
200.595	59.05
200.814	69.29
201.033	65.19
201.252	-76.12
201.471	-16.73
201.69	-14.68
201.909	67.24
202.128	136.87
202.347	57
202.566	48.81
202.785	-4.44
203.004	-12.63
203.223	48.81
203.442	13.99
203.661	-26.96
203.879	-22.87
204.098	-43.35
204.317	-2.39
204.536	46.76
204.755	18.09
204.974	-8.53
205.193	54.95
205.411	44.71
205.63	-72.02
205.849	40.62
206.068	-10.58
206.287	50.86
206.505	1.71
206.724	42.67
206.943	69.29
207.162	13.99
207.381	104.11
207.599	65.19
207.818	36.52
208.037	5.8
208.255	22.19
208.474	52.91
208.693	5.8
208.911	81.58
209.13	-18.77
209.349	26.28
209.567	-12.63
209.786	91.82
210.005	16.04
210.223	54.95
210.442	44.71
210.661	-14.68
210.879	32.43
211.098	106.15
211.316	54.95
211.535	16.04
211.753	42.67
211.972	13.99
212.191	24.23
212.409	48.81
212.628	16.04
212.846	13.99
213.065	79.53
213.283	18.09
213.502	24.23
213.72	-55.64
213.938	100.01
214.157	-10.58
214.375	52.91
214.594	44.71
214.812	77.48
215.031	65.19
215.249	-18.77
215.467	42.67
215.686	26.28
215.904	48.81
216.122	57
216.341	32.43
216.559	-76.12
216.778	40.62
216.996	-6.49
217.214	22.19
217.432	79.53
217.651	-12.63
217.869	42.67
218.087	50.86
218.306	-37.2
218.524	128.68
218.742	22.19
218.96	81.58
219.179	50.86
219.397	13.99
219.615	112.3
219.833	-4.44
220.051	-45.4
220.27	67.24
220.488	22.19
220.706	81.58
220.924	81.58
221.142	1.71
221.36	20.14
221.578	-22.87
221.796	71.34
222.015	-22.87
222.233	67.24
222.451	36.52
222.669	-6.49
222.887	65.19
223.105	13.99
223.323	87.72
223.541	61.1
223.759	102.06
223.977	26.28
224.195	42.67
224.413	26.28
224.631	32.43
224.849	42.67
225.067	36.52
225.285	7.85
225.503	48.81
225.721	18.09
225.939	89.77
226.157	50.86
226.375	73.39
226.592	26.28
226.81	-0.34
227.028	20.14
227.246	71.34
227.464	13.99
227.682	34.47
227.9	18.09
228.117	91.82
228.335	30.38
228.553	46.76
228.771	59.05
228.989	11.95
229.206	-8.53
229.424	30.38
229.642	3.75
229.86	-8.53
230.077	44.71
230.295	26.28
230.513	40.62
230.731	46.76
230.948	1.71
231.166	42.67
231.384	-22.87
231.601	83.63
231.819	65.19
232.037	34.47
232.254	11.95
232.472	85.67
232.689	32.43
232.907	22.19
233.125	122.54
233.342	16.04
233.56	3.75
233.777	-47.44
233.995	28.33
234.213	81.58
234.43	36.52
234.648	38.57
234.865	87.72
235.083	122.54
235.3	-14.68
235.518	106.15
235.735	42.67
235.953	38.57
236.17	28.33
236.388	26.28
236.605	-33.11
236.822	77.48
237.04	69.29
237.257	-6.49
237.475	30.38
237.692	24.23
237.909	50.86
238.127	3.75
238.344	20.14
238.562	83.63
238.779	52.91
238.996	7.85
239.214	-2.39
239.431	50.86
239.648	52.91
239.865	83.63
240.083	-14.68
240.3	73.39
240.517	9.9
240.735	50.86
240.952	42.67
241.169	116.39
241.386	1.71
241.603	-14.68
241.821	22.19
242.038	108.2
242.255	-8.53
242.472	-4.44
242.689	50.86
242.907	75.43
243.124	13.99
243.341	52.91
243.558	130.73
243.775	-24.92
243.992	40.62
244.209	28.33
244.426	77.48
244.643	48.81
244.86	44.71
245.078	57
245.295	11.95
245.512	44.71
245.729	69.29
245.946	7.85
246.163	57
246.38	40.62
246.597	50.86
246.814	24.23
247.031	73.39
247.248	69.29
247.464	71.34
247.681	36.52
247.898	81.58
248.115	24.23
248.332	34.47
248.549	34.47
248.766	91.82
248.983	50.86
249.2	81.58
249.417	30.38
249.633	87.72
249.85	61.1
250.067	42.67
250.284	34.47
250.501	89.77
250.717	100.01
250.934	20.14
251.151	18.09
251.368	67.24
251.585	38.57
251.801	-18.77
252.018	-61.78
252.235	-6.49
252.451	40.62
252.668	50.86
252.885	110.25
253.102	18.09
253.318	75.43
253.535	65.19
253.752	-37.2
253.968	1.71
254.185	73.39
254.401	7.85
254.618	26.28
254.835	-6.49
255.051	26.28
255.268	9.9
255.484	1.71
255.701	83.63
255.917	95.91
256.134	36.52
256.351	91.82
256.567	44.71
256.784	32.43
257	-33.11
257.217	50.86
257.433	38.57
257.65	5.8
257.866	30.38
258.082	5.8
258.299	16.04
258.515	34.47
258.732	-14.68
258.948	34.47
259.165	50.86
259.381	-2.39
259.597	22.19
259.814	24.23
260.03	44.71
260.246	28.33
260.463	34.47
260.679	30.38
260.895	57
261.112	97.96
261.328	-18.77
261.544	40.62
261.761	46.76
261.977	69.29
262.193	5.8
262.409	13.99
262.626	63.15
262.842	-45.4
263.058	54.95
263.274	-22.87
263.49	97.96
263.707	79.53
263.923	3.75
264.139	-35.16
264.355	-8.53
264.571	20.14
264.787	11.95
265.004	22.19
265.22	81.58
265.436	40.62
265.652	85.67
265.868	46.76
266.084	16.04
266.3	-4.44
266.516	44.71
266.732	48.81
266.948	81.58
267.164	20.14
267.38	30.38
267.596	83.63
267.812	16.04
268.028	16.04
268.244	-4.44
268.46	65.19
268.676	69.29
268.892	9.9
269.108	30.38
269.324	46.76
269.54	81.58
269.756	46.76
269.972	34.47
270.188	24.23
270.403	36.52
270.619	77.48
270.835	24.23
271.051	122.54
271.267	40.62
271.483	104.11
271.698	44.71
271.914	22.19
272.13	-57.68
272.346	44.71
272.562	-0.34
272.777	112.3
272.993	7.85
273.209	16.04
273.425	67.24
273.64	34.47
273.856	9.9
274.072	73.39
274.287	24.23
274.503	77.48
274.719	1.71
274.934	30.38
275.15	91.82
275.366	30.38
275.581	-24.92
275.797	9.9
276.012	34.47
276.228	30.38
276.444	73.39
276.659	95.91
276.875	3.75
277.09	91.82
277.306	18.09
277.521	7.85
277.737	30.38
277.952	173.74
278.168	54.95
278.383	89.77
278.599	52.91
278.814	46.76
279.03	69.29
279.245	28.33
279.461	50.86
279.676	73.39
279.892	13.99
280.107	26.28
280.322	18.09
280.538	63.15
280.753	77.48
280.969	59.05
281.184	-0.34
281.399	26.28
281.615	73.39
281.83	42.67
282.045	7.85
282.26	132.78
282.476	-12.63
282.691	91.82
282.906	1.71
283.122	28.33
283.337	97.96
283.552	13.99
283.767	30.38
283.983	30.38
284.198	26.28
284.413	11.95
284.628	40.62
284.843	87.72
285.058	28.33
285.274	-6.49
285.489	79.53
285.704	114.34
285.919	61.1
286.134	63.15
286.349	46.76
286.564	-12.63
286.779	79.53
286.995	26.28
287.21	22.19
287.425	40.62
287.64	7.85
287.855	13.99
288.07	110.25
288.285	112.3
288.5	3.75
288.715	122.54
288.93	40.62
289.145	9.9
289.36	30.38
289.575	36.52
289.79	-14.68
290.004	57
290.219	44.71
290.434	46.76
290.649	3.75
290.864	77.48
291.079	16.04
291.294	28.33
291.509	1.71
291.724	11.95
291.938	-22.87
292.153	85.67
292.368	-18.77
292.583	65.19
292.798	48.81
293.012	52.91
293.227	24.23
293.442	91.82
293.657	38.57
293.871	38.57
294.086	52.91
294.301	3.75
294.516	57
294.73	13.99
294.945	26.28
295.16	63.15
295.374	63.15
295.589	110.25
295.804	40.62
296.018	50.86
296.233	79.53
296.447	36.52
296.662	71.34
296.877	73.39
297.091	46.76
297.306	67.24
297.52	30.38
297.735	59.05
297.949	-35.16
298.164	24.23
298.378	59.05
298.593	87.72
298.807	93.87
299.022	61.1
299.236	48.81
299.451	22.19
299.665	44.71
299.88	104.11
300.094	34.47
300.309	5.8
300.523	18.09
300.737	-20.82
300.952	83.63
301.166	71.34
301.381	83.63
301.595	69.29
301.809	36.52
302.024	22.19
302.238	36.52
302.452	52.91
302.667	-67.92
302.881	13.99
303.095	75.43
303.309	16.04
303.524	38.57
303.738	46.76
303.952	48.81
304.166	61.1
304.381	57
304.595	36.52
304.809	38.57
305.023	24.23
305.237	140.97
305.452	-0.34
305.666	65.19
305.88	89.77
306.094	13.99
306.308	40.62
306.522	-8.53
306.736	130.73
306.95	34.47
307.164	3.75
307.379	67.24
307.593	5.8
307.807	32.43
308.021	9.9
308.235	5.8
308.449	36.52
308.663	9.9
308.877	85.67
309.091	48.81
309.305	61.1
309.519	-12.63
309.733	52.91
309.947	16.04
310.161	57
310.374	54.95
310.588	16.04
310.802	52.91
311.016	-16.73
311.23	75.43
311.444	36.52
311.658	-16.73
311.872	36.52
312.085	52.91
312.299	89.77
312.513	-10.58
312.727	52.91
312.941	-29.01
313.154	5.8
313.368	16.04
313.582	61.1
313.796	44.71
314.009	93.87
314.223	85.67
314.437	13.99
314.651	50.86
314.864	77.48
315.078	77.48
315.292	50.86
315.505	83.63
315.719	36.52
315.933	-49.49
316.146	52.91
316.36	-4.44
316.573	114.34
316.787	69.29
317.001	18.09
317.214	91.82
317.428	83.63
317.641	85.67
317.855	59.05
318.068	42.67
318.282	11.95
318.495	114.34
318.709	30.38
318.922	-8.53
319.136	73.39
319.349	7.85
319.563	36.52
319.776	65.19
319.99	81.58
320.203	36.52
320.417	48.81
320.63	71.34
320.843	18.09
321.057	26.28
321.27	93.87
321.483	59.05
321.697	34.47
321.91	46.76
322.124	-31.06
322.337	40.62
322.55	-6.49
322.763	50.86
322.977	110.25
323.19	50.86
323.403	26.28
323.617	89.77
323.83	59.05
324.043	-18.77
324.256	20.14
324.469	7.85
324.683	26.28
324.896	59.05
325.109	110.25
325.322	-2.39
325.535	73.39
325.748	108.2
325.962	24.23
326.175	46.76
326.388	20.14
326.601	50.86
326.814	-4.44
327.027	97.96
327.24	87.72
327.453	38.57
327.666	54.95
327.879	30.38
328.092	36.52
328.305	40.62
328.518	-2.39
328.731	20.14
328.944	32.43
329.157	118.44
329.37	-41.3
329.583	42.67
329.796	71.34
330.009	42.67
330.222	48.81
330.435	104.11
330.648	30.38
330.861	32.43
331.073	63.15
331.286	57
331.499	67.24
331.712	-10.58
331.925	-12.63
332.138	46.76
332.35	116.39
332.563	18.09
332.776	-4.44
332.989	91.82
333.202	77.48
333.414	38.57
333.627	71.34
333.84	110.25
334.053	44.71
334.265	52.91
334.478	36.52
334.691	57
334.903	-41.3
335.116	63.15
335.329	26.28
335.541	42.67
335.754	20.14
335.966	69.29
336.179	75.43
336.392	3.75
336.604	40.62
336.817	-2.39
337.029	59.05
337.242	18.09
337.454	44.71
337.667	65.19
337.88	71.34
338.092	102.06
338.305	67.24
338.517	48.81
338.729	75.43
338.942	126.63
339.154	26.28
339.367	54.95
339.579	42.67
339.792	85.67
340.004	28.33
340.217	85.67
340.429	108.2
340.641	89.77
340.854	18.09
341.066	75.43
341.278	57
341.491	38.57
341.703	16.04
341.915	-12.63
342.128	13.99
342.34	54.95
342.552	67.24
342.764	61.1
342.977	30.38
343.189	-4.44
343.401	73.39
343.613	63.15
343.826	48.81
344.038	24.23
344.25	-6.49
344.462	85.67
344.674	100.01
344.886	-22.87
345.099	97.96
345.311	30.38
345.523	57
345.735	79.53
345.947	32.43
346.159	61.1
346.371	95.91
346.583	-12.63
346.795	54.95
347.007	34.47
347.219	26.28
347.431	85.67
347.643	75.43
347.855	20.14
348.067	7.85
348.279	75.43
348.491	75.43
348.703	75.43
348.915	54.95
349.127	26.28
349.339	87.72
349.551	57
349.763	48.81
349.975	54.95
350.187	38.57
350.399	26.28
350.61	48.81
350.822	32.43
351.034	57
351.246	36.52
351.458	16.04
351.669	11.95
351.881	52.91
352.093	71.34
352.305	59.05
352.517	73.39
352.728	100.01
352.94	18.09
353.152	128.68
353.363	32.43
353.575	32.43
353.787	22.19
353.999	61.1
354.21	132.78
354.422	54.95
354.633	18.09
354.845	52.91
355.057	13.99
355.268	104.11
355.48	30.38
355.692	16.04
355.903	-18.77
356.115	100.01
356.326	42.67
356.538	42.67
356.749	69.29
356.961	13.99
357.172	48.81
357.384	73.39
357.595	26.28
357.807	13.99
358.018	11.95
358.23	75.43
358.441	65.19
358.653	67.24
358.864	104.11
359.075	13.99
359.287	44.71
359.498	130.73
359.709	48.81
359.921	26.28
360.132	40.62
360.344	-0.34
360.555	48.81
360.766	73.39
360.977	-6.49
361.189	153.26
361.4	48.81
361.611	93.87
361.823	22.19
362.034	65.19
362.245	20.14
362.456	42.67
362.667	97.96
362.879	18.09
363.09	59.05
363.301	42.67
363.512	20.14
363.723	81.58
363.935	38.57
364.146	87.72
364.357	46.76
364.568	85.67
364.779	11.95
364.99	48.81
365.201	61.1
365.412	89.77
365.623	30.38
365.834	89.77
366.045	-2.39
366.256	42.67
366.467	93.87
366.678	38.57
366.889	18.09
367.1	52.91
367.311	63.15
367.522	67.24
367.733	95.91
367.944	34.47
368.155	106.15
368.366	69.29
368.577	95.91
368.788	65.19
368.999	67.24
369.209	108.2
369.42	75.43
369.631	63.15
369.842	3.75
370.053	48.81
370.264	79.53
370.474	-31.06
370.685	57
370.896	95.91
371.107	-16.73
371.317	134.82
371.528	-22.87
371.739	32.43
371.95	100.01
372.16	77.48
372.371	61.1
372.582	40.62
372.792	42.67
373.003	73.39
373.214	95.91
373.424	46.76
373.635	38.57
373.846	42.67
374.056	81.58
374.267	11.95
374.477	120.49
374.688	75.43
374.898	61.1
375.109	13.99
375.319	71.34
375.53	-26.96
375.74	87.72
375.951	-8.53
376.161	57
376.372	50.86
376.582	54.95
376.793	42.67
377.003	-24.92
377.214	124.58
377.424	18.09
377.635	73.39
377.845	13.99
378.055	-12.63
378.266	81.58
378.476	-12.63
378.686	7.85
378.897	126.63
379.107	54.95
379.317	128.68
379.528	65.19
379.738	134.82
379.948	65.19
380.158	122.54
380.369	59.05
380.579	77.48
380.789	61.1
380.999	67.24
381.21	57
381.42	169.64
381.63	24.23
381.84	97.96
382.05	59.05
382.261	65.19
382.471	48.81
382.681	26.28
382.891	-22.87
383.101	102.06
383.311	50.86
383.521	52.91
383.731	36.52
383.941	67.24
384.151	7.85
384.361	28.33
384.571	48.81
384.781	67.24
384.991	102.06
385.201	42.67
385.411	89.77
385.621	57
385.831	32.43
386.041	46.76
386.251	30.38
386.461	102.06
386.671	-10.58
386.881	95.91
387.091	20.14
387.301	50.86
387.511	-14.68
387.72	93.87
387.93	18.09
388.14	91.82
388.35	50.86
388.56	104.11
388.769	81.58
388.979	40.62
389.189	91.82
389.399	93.87
389.609	61.1
389.818	36.52
390.028	143.02
390.238	134.82
390.447	36.52
390.657	104.11
390.867	65.19
391.076	85.67
391.286	81.58
391.496	-0.34
391.705	143.02
391.915	95.91
392.125	24.23
392.334	71.34
392.544	155.3
392.753	24.23
392.963	63.15
393.172	85.67
393.382	34.47
393.591	83.63
393.801	87.72
394.01	190.12
394.22	102.06
394.429	50.86
394.639	112.3
394.848	75.43
395.058	116.39
395.267	57
395.477	104.11
395.686	77.48
395.895	63.15
396.105	108.2
396.314	65.19
396.524	97.96
396.733	71.34
396.942	75.43
397.152	114.34
397.361	128.68
397.57	13.99
397.78	46.76
397.989	63.15
398.198	97.96
398.407	85.67
398.617	120.49
398.826	67.24
399.035	132.78
399.244	138.92
399.453	59.05
399.663	120.49
399.872	100.01
400.081	50.86
400.29	102.06
400.499	79.53
400.708	114.34
400.917	79.53
401.127	149.16
401.336	112.3
401.545	112.3
401.754	67.24
401.963	110.25
402.172	153.26
402.381	36.52
402.59	73.39
402.799	132.78
403.008	122.54
403.217	40.62
403.426	173.74
403.635	87.72
403.844	97.96
404.053	102.06
404.262	138.92
404.471	65.19
404.68	151.21
404.888	120.49
405.097	102.06
405.306	155.3
405.515	190.12
405.724	36.52
405.933	120.49
406.142	204.46
406.35	157.35
406.559	145.06
406.768	171.69
406.977	157.35
407.185	140.97
407.394	157.35
407.603	220.84
407.812	153.26
408.02	165.54
408.229	202.41
408.438	140.97
408.646	218.79
408.855	204.46
409.064	183.98
409.272	241.32
409.481	161.45
409.69	280.23
409.898	243.37
410.107	239.27
410.315	261.8
410.524	224.94
410.733	231.08
410.941	351.91
411.15	265.89
411.358	310.95
411.567	370.34
411.775	294.57
411.984	333.48
412.192	417.44
412.401	394.92
412.609	329.38
412.818	331.43
413.026	390.82
413.234	380.58
413.443	394.92
413.651	337.57
413.86	476.84
414.068	487.08
414.276	444.07
414.485	489.12
414.693	462.5
414.901	536.23
415.11	485.03
415.318	478.88
415.526	614.05
415.734	581.28
415.943	585.38
416.151	513.7
416.359	521.89
416.567	650.91
416.776	708.26
416.984	646.82
417.192	743.07
417.4	736.93
417.608	765.6
417.817	708.26
418.025	728.74
418.233	824.99
418.441	868
418.649	849.57
418.857	831.13
419.065	997.02
419.273	962.2
419.481	984.73
419.689	1091.23
419.897	1158.81
420.105	1259.16
420.313	1210.01
420.521	1158.81
420.729	1197.72
420.937	1255.06
421.145	1302.17
421.353	1293.97
421.561	1373.85
421.769	1463.96
421.977	1443.48
422.185	1560.21
422.393	1539.73
422.601	1574.55
422.809	1672.85
423.017	1705.62
423.224	1650.32
423.432	1871.5
423.64	1861.26
423.848	1965.71
424.056	1988.24
424.263	2072.2
424.471	2070.16
424.679	2199.18
424.887	2184.84
425.094	2266.76
425.302	2279.05
425.51	2459.27
425.718	2557.57
425.925	2459.27
426.133	2569.86
426.341	2649.73
426.548	2821.76
426.756	2823.81
426.964	2811.52
427.171	3047.04
427.379	3145.34
427.586	3208.83
427.794	3264.12
428.001	3481.21
428.209	3622.52
428.417	3434.1
428.624	3604.08
428.832	3784.3
429.039	3630.71
429.247	3843.7
429.454	4126.32
429.662	4269.67
429.869	4142.7
430.076	4372.07
430.284	4394.6
430.491	4441.7
430.699	4720.23
430.906	4738.66
431.114	4738.66
431.321	4771.43
431.528	5045.85
431.736	5146.2
431.943	5566.04
432.15	5459.54
432.358	5604.95
432.565	5797.46
432.772	5801.55
432.979	6032.97
433.187	6030.93
433.394	6065.74
433.601	6561.35
433.808	6729.28
434.016	6620.74
434.223	6956.61
434.43	7347.77
434.637	6991.42
434.844	7650.87
435.052	7593.53
435.259	7624.25
435.466	7636.53
435.673	7638.58
435.88	8076.85
436.087	8619.56
436.294	8513.06
436.501	8443.43
436.708	8496.68
436.915	8906.27
437.122	9176.61
437.329	9156.13
437.537	9434.65
437.743	9756.18
437.95	9655.83
438.157	10116.62
438.364	10311.18
438.571	10427.92
438.778	10202.64
438.985	11249.15
439.192	10905.09
439.399	11150.85
439.606	11232.77
439.813	11689.46
440.02	12281.33
440.227	12123.63
440.433	12031.48
440.64	12420.59
440.847	12062.19
441.054	12598.76
441.261	13266.4
441.467	13174.24
441.674	13573.6
441.881	13905.37
442.088	13970.9
442.294	13948.37
442.501	14323.15
442.708	14464.46
442.914	15295.94
443.121	15857.08
443.328	15152.58
443.534	16543.15
443.741	16037.3
443.948	15871.42
444.154	17051.05
444.361	16950.7
444.568	16760.23
444.774	16858.54
444.981	17247.65
445.187	17644.96
445.394	18349.46
445.6	18179.48
445.807	19809.66
446.013	18664.85
446.22	19594.62
446.426	20151.67
446.633	20338.04
446.839	20704.62
447.046	20180.34
447.252	21146.98
447.459	21124.46
447.665	21249.38
447.871	22109.53
448.078	22973.77
448.284	21974.36
448.491	22297.94
448.697	23209.29
448.903	23426.37
449.11	23600.45
449.316	23518.53
449.522	23727.42
449.728	24431.93
449.935	25118
450.141	24849.71
450.347	25414.95
450.553	24337.72
450.76	24417.59
450.966	25312.55
451.172	25214.25
451.378	25740.58
451.584	25531.69
451.791	25937.18
451.997	25879.84
452.203	26219.8
452.409	26250.52
452.615	26017.05
452.821	25181.48
453.027	24855.86
453.233	26092.83
453.44	24837.42
453.646	25679.14
453.852	24974.64
454.058	25734.43
454.264	25095.47
454.47	25496.87
454.676	24792.37
454.882	25627.94
455.088	23481.67
455.294	23932.22
455.5	24556.85
455.705	24587.57
455.911	23393.61
456.117	22818.13
456.323	22801.74
456.529	21429.6
456.735	22295.89
456.941	21882.2
457.147	21278.05
457.352	20684.14
457.558	20471.15
457.764	20432.24
457.97	19871.1
458.176	19705.21
458.381	19783.04
458.587	18957.71
458.793	18558.35
458.999	17612.19
459.204	19051.91
459.41	18783.63
459.616	17636.77
459.821	17538.46
460.027	17165.73
460.233	16946.6
460.438	16219.57
460.644	16178.61
460.85	15660.48
461.055	15433.15
461.261	15222.21
461.466	14167.51
461.672	13989.33
461.878	14829
462.083	13784.54
462.289	13405.66
462.494	13520.35
462.7	12963.3
462.905	12457.45
463.111	12969.44
463.316	12865
463.522	12713.45
463.727	12717.54
463.932	12674.54
464.138	12529.13
464.343	12539.37
464.549	12105.2
464.754	12572.14
464.959	12527.08
465.165	12346.86
465.37	11879.93
465.575	11507.2
465.781	12209.65
465.986	12166.64
466.191	11695.61
466.397	11484.67
466.602	10878.47
466.807	11372.03
467.012	11369.98
467.218	11296.25
467.423	11075.07
467.628	11345.41
467.833	11881.97
468.038	11406.84
468.244	11005.44
468.449	11369.98
468.654	10771.97
468.859	10941.96
469.064	10817.03
469.269	10274.32
469.474	10413.58
469.679	10372.62
469.885	10366.48
470.09	10456.59
470.295	10507.79
470.5	10145.3
470.705	10270.22
470.91	10120.72
471.115	10124.82
471.32	9969.17
471.525	9942.55
471.73	9864.72
471.935	9575.96
472.139	9555.48
472.344	9395.74
472.549	9502.23
472.754	9313.82
472.959	9131.55
473.164	8934.95
473.369	8775.2
473.574	8920.61
473.778	8939.04
473.983	8865.32
474.188	8869.41
474.393	8511.02
474.598	8549.93
474.802	8650.28
475.007	8402.47
475.212	8494.63
475.417	7978.54
475.621	8330.8
475.826	8007.22
476.031	8025.65
476.235	7693.88
476.44	8003.12
476.645	7898.67
476.849	7956.02
477.054	7843.38
477.259	7865.91
477.463	7624.25
477.668	7525.94
477.872	7491.13
478.077	7511.61
478.282	7276.09
478.486	7239.23
478.691	7212.6
478.895	7202.36
479.1	7130.69
479.304	7024.19
479.509	6827.59
479.713	7054.91
479.918	6960.7
480.122	6643.27
480.326	6975.04
480.531	6850.11
480.735	6905.41
480.94	6661.7
481.144	6895.17
481.348	6680.13
481.553	6592.07
481.757	6585.93
481.961	6843.97
482.166	6725.19
482.37	6633.03
482.574	6536.77
482.778	6387.27
482.983	6819.39
483.187	6600.26
483.391	6645.32
483.595	6483.53
483.8	6618.69
484.004	6499.91
484.208	6563.4
484.412	6602.31
484.616	6594.12
484.821	6557.25
485.025	6473.29
485.229	6688.32
485.433	6293.07
485.637	6565.45
485.841	6352.46
486.045	6635.08
486.249	6573.64
486.453	6454.86
486.657	6682.18
486.861	6487.62
487.065	6426.18
487.269	6612.55
487.473	6553.16
487.677	6657.61
487.881	6649.41
488.085	6481.48
488.289	6524.49
488.493	6524.49
488.697	6643.27
488.901	6735.43
489.105	6581.83
489.309	6903.36
489.512	6581.83
489.716	6645.32
489.92	6717
490.124	6719.04
490.328	6587.97
490.531	6667.84
490.735	6882.88
490.939	6907.46
491.143	6741.57
491.346	6628.93
491.55	6991.42
491.754	6807.11
491.958	6762.05
492.161	6944.32
492.365	6970.94
492.569	6915.65
492.772	7038.53
492.976	7095.87
493.18	6977.09
493.383	7179.84
493.587	7149.12
493.79	7145.02
493.994	7161.41
494.197	7261.76
494.401	7267.9
494.605	7345.72
494.808	7534.14
495.012	7368.25
495.215	7351.87
495.419	7607.86
495.622	7544.38
495.825	7644.73
496.029	7601.72
496.232	7994.93
496.436	7740.98
496.639	8214.06
496.843	7947.83
497.046	8011.31
497.249	8255.02
497.453	8326.7
497.656	8347.18
497.859	8396.33
498.063	8488.49
498.266	8767.01
498.469	8764.96
498.673	8730.15
498.876	8857.12
499.079	8816.16
499.282	8969.76
499.485	9172.51
499.689	9037.34
499.892	9467.42
500.095	9403.93
500.298	9555.48
500.501	9764.37
500.705	9870.87
500.908	9778.71
501.111	9936.4
501.314	10106.38
501.517	10475.02
501.72	10399.24
501.923	10323.47
502.126	10548.75
502.329	10823.17
502.532	10714.63
502.735	11097.6
502.938	11064.83
503.141	11132.42
503.344	11529.72
503.547	11484.67
503.75	11722.23
503.953	11746.81
504.156	11843.06
504.359	12117.49
504.562	12334.57
504.765	12328.43
504.968	12516.84
505.17	12572.14
505.373	12723.69
505.576	13032.93
505.779	13245.92
505.982	13219.3
506.185	13567.45
506.387	13559.26
506.59	13471.2
506.793	14009.81
506.996	13985.24
507.198	14185.94
507.401	13991.38
507.604	14284.24
507.807	14663.11
508.009	14687.69
508.212	14988.74
508.415	15150.53
508.617	15431.1
508.82	15289.79
509.022	15326.66
509.225	15898.04
509.428	15807.93
509.63	16135.6
509.833	16405.94
510.035	16784.81
510.238	16580.01
510.44	16745.9
510.643	17200.55
510.845	17380.77
511.048	17542.56
511.25	17737.12
511.453	17866.14
511.655	18367.89
511.858	18122.13
512.06	18531.73
512.262	18734.48
512.465	18705.81
512.667	19115.4
512.87	19209.61
513.072	19289.48
513.274	19750.27
513.477	19967.35
513.679	20055.42
513.881	20327.8
514.084	20774.25
514.286	20684.14
514.488	21050.73
514.69	21486.95
514.893	21663.07
515.095	21458.28
515.297	21978.46
515.499	22297.94
515.701	22414.68
515.904	22621.52
516.106	22871.37
516.308	22893.9
516.51	23422.28
516.712	23375.17
516.914	23739.71
517.116	24100.15
517.318	24159.55
517.52	24390.97
517.722	24575.28
517.925	24862
518.127	25261.35
518.329	25230.63
518.531	25382.18
518.733	25742.63
518.935	26096.92
519.136	26369.3
519.338	26793.23
519.54	26668.31
519.742	27161.87
519.944	27368.71
520.146	27819.27
520.348	27813.12
520.55	28163.32
520.752	28314.87
520.954	28943.6
521.155	28495.1
521.357	29054.19
521.559	29463.79
521.761	29730.02
521.963	29697.25
522.164	29916.39
522.366	30129.37
522.568	30487.77
522.77	30721.24
522.971	31001.81
523.173	31089.87
523.375	31222.99
523.576	31116.5
523.778	31560.91
523.98	31769.8
524.181	31866.05
524.383	31927.49
524.584	32183.49
524.786	32894.13
524.988	32593.08
525.189	32847.03
525.391	33332.4
525.592	33344.69
525.794	33522.86
525.995	33604.78
526.197	33688.74
526.398	34014.37
526.6	33942.69
526.801	34081.95
527.003	34552.99
527.204	34296.99
527.406	34935.96
527.607	34643.1
527.808	34657.43
528.01	34493.6
528.211	35169.43
528.412	35368.08
528.614	35396.75
528.815	35169.43
529.016	35787.91
529.218	35370.13
529.419	35515.53
529.62	35937.41
529.822	35775.62
530.023	35816.58
530.224	36222.08
530.425	36029.57
530.626	35669.13
530.828	35955.85
531.029	36842.62
531.23	36076.68
531.431	36338.82
531.632	36918.39
531.833	36713.59
532.035	36570.24
532.236	36394.11
532.437	36686.97
532.638	36398.21
532.839	37012.6
533.04	37336.18
533.241	36306.05
533.442	37366.9
533.643	36551.8
533.844	37360.75
534.045	37010.55
534.246	36992.12
534.447	37229.68
534.648	37164.15
534.849	37346.42
535.05	36932.73
535.251	37112.95
535.451	36973.69
535.652	37223.54
535.853	37014.65
536.054	37403.76
536.255	37530.73
536.456	36977.78
536.657	37944.42
536.857	37293.17
537.058	37135.48
537.259	37831.79
537.46	37364.85
537.66	37317.75
537.861	37280.88
538.062	37368.94
538.263	37514.35
538.463	37289.07
538.664	37264.5
538.865	37485.68
539.065	37444.72
539.266	36879.48
539.466	37600.36
539.667	36994.17
539.868	37995.62
540.068	37563.5
540.269	37383.28
540.469	37911.66
540.67	37260.4
540.87	37436.53
541.071	37018.74
541.271	37579.89
541.472	37424.24
541.672	37104.76
541.873	37330.03
542.073	37153.91
542.274	37780.59
542.474	37452.91
542.675	36912.25
542.875	37702.76
543.075	37610.6
543.276	36953.21
543.476	37457.01
543.676	37096.56
543.877	37514.35
544.077	37397.62
544.277	37207.15
544.478	37416.05
544.678	37401.71
544.878	37237.87
545.078	37459.06
545.279	37336.18
545.479	37299.31
545.679	37756.01
545.879	37766.25
546.079	37026.93
546.28	37110.9
546.48	37039.22
546.68	37602.41
546.88	37512.3
547.08	37407.86
547.28	37209.2
547.48	37037.17
547.68	37334.13
547.88	37071.99
548.081	37534.83
548.281	37301.36
548.481	37100.66
548.681	37391.47
548.881	37276.79
549.081	37389.42
549.28	37166.2
549.48	37528.69
549.68	37293.17
549.88	37962.86
550.08	37256.31
550.28	37442.67
550.48	37287.03
550.68	37725.29
550.88	36807.8
551.08	37059.7
551.279	37268.59
551.479	36906.1
551.679	37241.97
551.879	37002.36
552.079	37647.47
552.278	37221.49
552.478	36805.75
552.678	37088.37
552.878	37231.73
553.077	36859
553.277	36574.33
553.477	37532.78
553.676	36973.69
553.876	36971.64
554.076	37055.61
554.275	36906.1
554.475	36060.29
554.674	36494.46
554.874	36916.34
555.074	36510.85
555.273	36828.28
555.473	37155.96
555.672	37020.79
555.872	36383.87
556.071	36693.11
556.271	37024.89
556.47	36318.34
556.67	36144.26
556.869	36629.63
557.068	36248.71
557.268	36390.02
557.467	36443.26
557.667	36250.75
557.866	36447.36
558.065	36265.09
558.265	36146.31
558.464	36086.92
558.663	36269.19
558.863	35671.18
559.062	36347.01
559.261	35835.02
559.461	35947.65
559.66	35527.82
559.859	35789.96
560.058	35280.02
560.258	35677.32
560.457	35060.88
560.656	35896.45
560.855	35470.48
561.054	35880.07
561.253	35220.63
561.453	35558.54
561.652	35650.7
561.851	35282.06
562.05	35374.22
562.249	35486.86
562.448	35263.63
562.647	35513.48
562.846	35329.17
563.045	35130.51
563.244	34643.1
563.443	35132.56
563.642	34440.35
563.841	34770.07
564.04	34639
564.239	35017.88
564.438	34528.41
564.637	34608.28
564.836	34956.44
565.035	34086.05
565.234	34776.22
565.432	34419.87
565.631	34655.39
565.83	34280.61
566.029	34323.61
566.228	34233.5
566.427	33907.88
566.625	33973.41
566.824	33842.34
567.023	34272.42
567.222	33875.11
567.42	34092.19
567.619	33490.09
567.818	33535.15
568.016	33807.53
568.215	33836.2
568.414	33168.56
568.612	33868.97
568.811	33322.16
569.01	33561.77
569.208	32765.11
569.407	33070.26
569.605	32832.69
569.804	33143.98
570.002	32699.58
570.201	32713.91
570.4	32769.21
570.598	32312.51
570.797	32142.53
570.995	32324.8
571.193	32001.22
571.392	32404.67
571.59	31995.07
571.789	32462.01
571.987	31835.33
572.186	31866.05
572.384	32054.47
572.582	31798.47
572.781	31777.99
572.979	31220.94
573.177	31597.77
573.376	31345.87
573.574	31040.72
573.772	31440.07
573.971	31464.65
574.169	30903.51
574.367	30874.84
574.565	31014.1
574.763	30692.57
574.962	30592.22
575.16	30727.38
575.358	30670.04
575.556	30117.09
575.754	30940.37
575.952	30252.25
576.151	30563.54
576.349	30414.04
576.547	30086.37
576.745	29943.01
576.943	30069.98
577.141	29727.97
577.339	29836.52
577.537	29719.78
577.735	29476.07
577.933	29398.25
578.131	29547.75
578.329	29082.86
578.527	29000.94
578.725	29275.37
578.923	29041.9
579.121	29095.15
579.319	28724.47
579.516	29275.37
579.714	28855.54
579.912	28708.08
580.11	28392.7
580.308	28722.42
580.506	28767.48
580.704	28155.13
580.901	28323.07
581.099	28507.38
581.297	28296.44
581.495	28038.4
581.692	28257.53
581.89	28032.25
582.088	27872.51
582.285	27804.93
582.483	27936
582.681	27733.25
582.878	27622.66
583.076	27313.42
583.274	27282.7
583.471	27383.05
583.669	27251.98
583.866	27131.15
584.064	27260.17
584.262	26895.63
584.459	27346.19
584.657	26955.02
584.854	27125
585.052	26391.83
585.249	26662.16
585.447	26883.34
585.644	26275.1
585.841	26318.11
586.039	26643.73
586.236	26137.88
586.434	26041.63
586.631	26123.55
586.828	25888.03
587.026	25812.26
587.223	25847.07
587.42	25890.08
587.618	25926.94
587.815	25441.57
588.012	25654.56
588.21	25195.82
588.407	25576.74
588.604	25365.8
588.801	25433.38
588.999	25044.27
589.196	25228.59
589.393	25546.02
589.59	25185.58
589.787	25189.67
589.984	24898.86
590.182	24640.82
590.379	24698.16
590.576	24597.81
590.773	24249.66
590.97	24517.94
591.167	24448.31
591.364	24249.66
591.561	24476.98
591.758	24182.07
591.955	24153.4
592.152	24044.86
592.349	23819.58
592.546	23921.98
592.743	23631.17
592.94	23612.74
593.137	23817.54
593.334	23924.03
593.531	23373.13
593.727	23637.31
593.924	23500.1
594.121	23170.38
594.318	23268.68
594.515	23186.76
594.712	23164.23
594.908	23016.78
595.105	23049.55
595.302	23106.89
595.499	23010.64
595.696	22662.48
595.892	22523.22
596.089	22828.37
596.286	22781.26
596.482	22644.05
596.679	22560.08
596.876	22779.22
597.072	22527.31
597.269	22564.18
597.466	22207.83
597.662	21957.98
597.859	22138.2
598.055	22048.09
598.252	21921.12
598.448	22207.83
598.645	22113.63
598.841	21669.22
599.038	21540.19
599.234	21957.98
599.431	21532
599.627	21484.9
599.824	21661.02
600.02	21212.52
600.217	21788
600.413	21169.51
600.609	21245.29
600.806	21091.69
601.002	21185.9
601.198	21071.21
601.395	20995.43
601.591	21140.84
601.787	20911.47
601.984	20809.07
602.18	21005.67
602.376	20686.19
602.572	20637.04
602.769	20626.8
602.965	20319.6
603.161	20460.91
603.357	20020.6
603.553	20338.04
603.75	20180.34
603.946	20053.37
604.142	19903.87
604.338	19975.55
604.534	20237.69
604.73	19836.28
604.926	19789.18
605.122	19660.16
605.318	19688.83
605.514	19576.19
605.71	19332.48
605.906	19301.76
606.102	19465.6
606.298	19469.7
606.494	19400.07
606.69	19285.38
606.886	19314.05
607.082	18871.69
607.278	19039.62
607.474	18503.06
607.67	19090.82
607.866	18670.99
608.062	19023.24
608.257	18845.07
608.453	18673.04
608.649	18802.06
608.845	18742.67
609.041	18513.3
609.236	18376.08
609.432	18546.06
609.628	18242.96
609.824	18245.01
610.019	18400.66
610.215	18308.5
610.411	18218.39
610.606	18072.98
610.802	18072.98
610.998	18507.15
611.193	18195.86
611.389	18062.74
611.584	18142.61
611.78	17808.79
611.976	17763.74
612.171	17933.72
612.367	17917.34
612.562	17434.02
612.758	17544.61
612.953	17360.29
613.149	17690.01
613.344	17290.66
613.539	17788.32
613.735	17388.96
613.93	17464.74
614.126	17489.31
614.321	17585.57
614.517	17436.06
614.712	17276.32
614.907	16932.26
615.103	17325.47
615.298	17114.53
615.493	17268.13
615.688	16825.77
615.884	17227.17
616.079	16856.49
616.274	17089.96
616.47	16956.84
616.665	16793
616.86	16692.65
617.055	16631.21
617.25	16629.16
617.445	16780.71
617.641	16442.8
617.836	16571.82
618.031	16336.31
618.226	16661.93
618.421	16430.51
618.616	16311.73
618.811	16012.73
619.006	16477.62
619.201	15840.7
619.396	15975.86
619.591	15650.24
619.786	15883.7
619.981	15932.86
620.176	16088.5
620.371	15535.55
620.566	15603.13
620.761	15467.97
620.956	15539.65
621.151	15259.07
621.346	15531.45
621.541	15363.52
621.735	15304.13
621.93	15007.17
622.125	15240.64
622.32	14849.48
622.515	14908.87
622.709	14822.86
622.904	14699.98
623.099	14609.87
623.294	14607.82
623.488	14544.33
623.683	14589.39
623.878	14263.76
624.072	14378.45
624.267	14269.9
624.462	14079.44
624.656	13905.37
624.851	13968.85
625.046	13977.05
625.24	13823.45
625.435	13692.38
625.629	13854.17
625.824	13534.68
626.018	13700.57
626.213	13411.81
626.407	13381.09
626.602	13028.84
626.796	13190.63
626.991	13284.83
627.185	13092.32
627.38	13129.19
627.574	12819.94
627.768	12881.38
627.963	12801.51
628.157	12633.58
628.352	12707.3
628.546	12455.4
628.74	12680.68
628.935	12234.22
629.129	12355.05
629.323	12236.27
629.517	12305.9
629.712	12060.15
629.906	12156.4
630.1	11961.84
630.294	12008.95
630.489	11906.55
630.683	11619.83
630.877	11707.9
631.071	11873.78
631.265	11623.93
631.459	11822.58
631.653	11501.05
631.848	11496.96
632.042	11423.23
632.236	11470.33
632.43	11263.49
632.624	11408.89
632.818	11513.34
633.012	11107.84
633.206	11308.54
633.4	11095.55
633.594	11011.59
633.788	11013.63
633.982	10970.63
634.176	10993.15
634.369	10769.93
634.563	10804.74
634.757	10626.57
634.951	10843.65
635.145	10712.58
635.339	10628.62
635.533	10376.72
635.726	10511.88
635.92	10178.06
636.114	10413.58
636.308	10020.37
636.501	10221.07
636.695	10112.53
636.889	10219.02
637.083	9948.69
637.276	10016.27
637.47	9895.44
637.664	9889.3
637.857	9848.34
638.051	9747.99
638.244	9807.38
638.438	9719.32
638.632	9659.93
638.825	9483.8
639.019	9516.57
639.212	9520.67
639.406	9485.85
639.599	9291.29
639.793	9344.54
639.986	9205.28
640.18	9324.06
640.373	9330.2
640.567	9070.11
640.76	9289.24
640.954	8957.47
641.147	8848.93
641.34	8840.74
641.534	8875.56
641.727	8721.96
641.92	8654.37
642.114	8584.74
642.307	8730.15
642.5	8529.45
642.694	8341.04
642.887	8381.99
643.08	8625.7
643.273	8308.27
643.467	8261.16
643.66	8234.54
643.853	8138.29
644.046	8119.85
644.239	8154.67
644.432	8097.33
644.626	7972.4
644.819	7939.63
645.012	7945.78
645.205	7888.43
645.398	7931.44
645.591	7886.39
645.784	7757.36
645.977	7509.56
646.17	7652.92
646.363	7659.06
646.556	7394.87
646.749	7644.73
646.942	7441.98
647.135	7290.43
647.328	7341.63
647.521	7405.11
647.714	7200.32
647.907	7196.22
648.099	7128.64
648.292	7212.6
648.485	7173.69
648.678	7153.21
648.871	7138.88
649.064	6923.84
649.256	7097.92
649.449	6839.87
649.642	6856.26
649.835	6913.6
650.027	7104.06
650.22	6698.56
650.413	6686.28
650.605	6776.39
650.798	6688.32
650.991	6520.39
651.183	6536.77
651.376	6639.17
651.568	6450.76
651.761	6280.78
651.954	6428.23
652.146	6374.99
652.339	6325.83
652.531	6299.21
652.724	6340.17
652.916	6192.72
653.109	6055.5
653.301	6448.71
653.494	6131.28
653.686	6047.31
653.879	5938.77
654.071	6006.35
654.263	5938.77
654.456	6008.4
654.648	5906
654.84	5848.66
655.033	5842.51
655.225	5797.46
655.417	5670.48
655.61	5738.07
655.802	5611.09
655.994	5744.21
656.186	5654.1
656.379	5578.33
656.571	5451.35
656.763	5590.61
656.955	5484.12
657.148	5609.05
657.34	5582.42
657.532	5326.43
657.724	5394.01
657.916	5373.53
658.108	5336.67
658.3	5252.7
658.492	5195.36
658.684	5254.75
658.876	5289.56
659.068	5181.02
659.26	4925.02
659.452	5095
659.644	4931.17
659.836	5123.68
660.028	5052
660.22	4890.21
660.412	4906.59
660.604	4701.79
660.796	4775.52
660.988	4746.85
661.18	4750.95
661.372	4816.48
661.563	4953.7
661.755	4636.26
661.947	4701.79
662.139	4611.68
662.331	4503.14
662.522	4529.77
662.714	4765.28
662.906	4525.67
663.097	4470.37
663.289	4570.72
663.481	4511.33
663.673	4324.97
663.864	4511.33
664.056	4417.13
664.247	4210.28
664.439	4286.06
664.631	4343.4
664.822	4148.84
665.014	4195.95
665.205	4327.02
665.397	4167.28
665.588	4138.6
665.78	4267.63
665.971	4150.89
666.163	4034.16
666.354	4011.63
666.546	4208.23
666.737	4118.12
666.929	4015.73
667.12	3976.81
667.311	3993.2
667.503	3927.66
667.694	3985.01
667.885	3970.67
668.077	3784.3
668.268	3901.04
668.459	3849.84
668.651	3778.16
668.842	3753.59
669.033	3677.81
669.224	3741.3
669.416	3673.71
669.607	3778.16
669.798	3661.43
669.989	3735.15
670.18	3589.75
670.371	3604.08
670.563	3532.4
670.754	3477.11
670.945	3563.12
671.136	3616.37
671.327	3655.28
671.518	3599.99
671.709	3470.97
671.9	3548.79
672.091	3464.82
672.282	3485.3
672.473	3454.58
672.664	3454.58
672.855	3409.53
673.046	3534.45
673.237	3446.39
673.428	3378.81
673.619	3389.05
673.809	3346.04
674	3378.81
674.191	3403.38
674.382	3327.61
674.573	3366.52
674.764	3415.67
674.954	3270.26
675.145	3239.55
675.336	3249.79
675.527	3315.32
675.717	3292.79
675.908	3210.87
676.099	3270.26
676.289	3176.06
676.48	3253.88
676.671	3118.72
676.861	3204.73
677.052	3120.76
677.243	3088
677.433	3094.14
677.624	3186.3
677.814	2985.6
678.005	3053.18
678.195	3100.28
678.386	3153.53
678.576	2997.88
678.767	2922.11
678.957	3100.28
679.148	3139.19
679.338	2932.35
679.529	3061.37
679.719	2899.58
679.909	3061.37
680.1	3030.65
680.29	3098.24
680.481	2920.06
680.671	2907.77
680.861	2958.97
681.052	2993.79
681.242	2958.97
681.432	2963.07
681.622	2903.68
681.813	2799.23
682.003	2899.58
682.193	2768.51
682.383	2866.81
682.573	2842.24
682.764	2893.44
682.954	2772.61
683.144	2739.84
683.334	2948.73
683.524	2868.86
683.714	2723.46
683.904	2895.49
684.094	2827.9
684.284	2778.75
684.474	2795.14
684.664	2877.05
684.854	2770.56
685.044	2815.62
685.234	2705.03
685.424	2829.95
685.614	2778.75
685.804	2823.81
685.994	2707.07
686.184	2784.9
686.374	2748.03
686.564	2733.7
686.753	2643.59
686.943	2649.73
687.133	2653.83
687.323	2731.65
687.513	2666.11
687.702	2594.44
687.892	2602.63
688.082	2596.48
688.272	2778.75
688.461	2670.21
688.651	2637.44
688.841	2530.95
689.03	2592.39
689.22	2612.87
689.41	2569.86
689.599	2573.96
689.789	2696.83
689.979	2555.52
690.168	2461.32
690.358	2616.96
690.547	2594.44
690.737	2582.15
690.926	2635.39
691.116	2457.22
691.305	2483.84
691.495	2430.6
691.684	2465.41
691.874	2477.7
692.063	2406.02
692.252	2414.21
692.442	2598.53
692.631	2444.93
692.82	2567.81
693.01	2608.77
693.199	2608.77
693.388	2465.41
693.578	2467.46
693.767	2522.76
693.956	2483.84
694.146	2459.27
694.335	2530.95
694.524	2496.13
694.713	2502.28
694.902	2496.13
695.092	2412.17
695.281	2530.95
695.47	2444.93
695.659	2401.93
695.848	2506.37
696.037	2518.66
696.226	2489.99
696.415	2547.33
696.604	2461.32
696.793	2324.1
696.982	2467.46
697.171	2475.65
697.36	2344.58
697.549	2424.45
697.738	2328.2
697.927	2528.9
698.116	2498.18
698.305	2483.84
698.494	2551.43
698.683	2406.02
698.872	2526.85
699.061	2500.23
699.25	2373.25
699.438	2393.73
699.627	2436.74
699.816	2434.69
700.005	2530.95
700.193	2446.98
700.382	2365.06
700.571	2432.65
700.76	2389.64
700.948	2420.36
701.137	2481.8
701.326	2367.11
701.514	2395.78
701.703	2528.9
701.892	2320.01
702.08	2430.6
702.269	2231.94
702.457	2449.03
702.646	2338.44
702.834	2360.97
703.023	2328.2
703.212	2195.08
703.4	2471.56
703.589	2393.73
703.777	2297.48
703.965	2283.14
704.154	2350.73
704.342	2258.57
704.531	2381.45
704.719	2283.14
704.907	2320.01
705.096	2240.14
705.284	2377.35
705.472	2336.39
705.661	2293.38
705.849	2199.18
706.037	2342.53
706.226	2295.43
706.414	2309.77
706.602	2209.42
706.79	2238.09
706.979	2121.35
707.167	2248.33
707.355	2172.55
707.543	2201.23
707.731	2256.52
707.919	2125.45
708.107	2131.59
708.296	2190.99
708.484	2219.66
708.672	2131.59
708.86	2244.23
709.048	2135.69
709.236	2115.21
709.424	2133.64
709.612	2029.2
709.8	2133.64
709.988	2102.92
710.176	2027.15
710.364	2107.02
710.551	2096.78
710.739	2137.74
710.927	2035.34
711.115	2016.91
711.303	2133.64
711.491	2027.15
711.679	2090.63
711.866	2047.63
712.054	2055.82
712.242	2014.86
712.43	2043.53
712.617	2029.2
712.805	2016.91
712.993	2008.72
713.181	1900.17
713.368	1945.23
713.556	2014.86
713.744	1902.22
713.931	2014.86
714.119	1951.37
714.306	1920.65
714.494	1875.6
714.682	1934.99
714.869	1988.24
715.057	1916.56
715.244	1898.13
715.432	1848.97
715.619	1832.59
715.807	1943.18
715.994	1842.83
716.182	1932.94
716.369	1816.21
716.556	1822.35
716.744	1797.78
716.931	1822.35
717.119	1939.09
717.306	1836.69
717.493	1785.49
717.681	1777.3
717.868	1812.11
718.055	1826.45
718.242	1791.63
718.43	1834.64
718.617	1838.73
718.804	1822.35
718.991	1781.39
719.179	1719.95
719.366	1824.4
719.553	1756.82
719.74	1705.62
719.927	1728.14
720.114	1660.56
720.301	1687.18
720.488	1599.12
720.676	1719.95
720.863	1650.32
721.05	1633.94
721.237	1703.57
721.424	1642.13
721.611	1597.07
721.798	1707.66
721.985	1648.27
722.172	1597.07
722.358	1635.99
722.545	1599.12
722.732	1611.41
722.919	1638.03
723.106	1615.51
723.293	1556.11
723.48	1552.02
723.667	1678.99
723.853	1625.75
724.04	1627.79
724.227	1654.42
724.414	1470.1
724.6	1588.88
724.787	1502.87
724.974	1556.11
725.161	1400.47
725.347	1523.35
725.534	1490.58
725.72	1586.83
725.907	1504.92
726.094	1515.16
726.28	1482.39
726.467	1474.2
726.653	1441.43
726.84	1535.64
727.027	1478.29
727.213	1437.33
727.4	1406.61
727.586	1468.05
727.773	1470.1
727.959	1439.38
728.145	1398.42
728.332	1455.76
728.518	1396.37
728.705	1513.11
728.891	1466
729.077	1494.68
729.264	1443.48
729.45	1437.33
729.636	1451.67
729.823	1402.52
730.009	1418.9
730.195	1410.71
730.382	1306.26
730.568	1363.61
730.754	1423
730.94	1324.69
731.126	1300.12
731.313	1367.7
731.499	1361.56
731.685	1410.71
731.871	1314.45
732.057	1341.08
732.243	1379.99
732.429	1355.41
732.615	1339.03
732.801	1341.08
732.987	1293.97
733.173	1361.56
733.359	1400.47
733.545	1320.6
733.731	1371.8
733.917	1298.07
734.103	1367.7
734.289	1316.5
734.475	1273.5
734.661	1347.22
734.847	1273.5
735.033	1240.73
735.219	1246.87
735.404	1263.26
735.59	1345.17
735.776	1144.47
735.962	1232.54
736.148	1228.44
736.333	1179.29
736.519	1154.71
736.705	1275.54
736.89	1255.06
737.076	1308.31
737.262	1195.67
737.447	1236.63
737.633	1250.97
737.819	1236.63
738.004	1162.9
738.19	1253.02
738.375	1146.52
738.561	1259.16
738.747	1144.47
738.932	1179.29
739.118	1152.67
739.303	1138.33
739.489	1101.47
739.674	1117.85
739.859	1126.04
740.045	1187.48
740.23	1140.38
740.416	1070.75
740.601	1121.95
740.786	1093.27
740.972	1080.99
741.157	1128.09
741.342	1009.31
741.528	1099.42
741.713	1072.79
741.898	1031.83
742.084	1105.56
742.269	1017.5
742.454	1072.79
742.639	1148.57
742.824	1074.84
743.01	1169.05
743.195	1056.41
743.38	1040.03
743.565	1005.21
743.75	1037.98
743.935	1035.93
744.12	1037.98
744.305	984.73
744.49	984.73
744.675	1017.5
744.86	962.2
745.045	992.92
745.23	1033.88
745.415	974.49
745.6	1017.5
745.785	960.16
745.97	972.44
746.155	933.53
746.34	1058.46
746.525	1019.55
746.71	902.81
746.895	974.49
747.079	982.68
747.264	935.58
747.449	911
747.634	863.9
747.819	915.1
748.003	845.47
748.188	980.64
748.373	976.54
748.557	915.1
748.742	892.57
748.927	863.9
749.111	925.34
749.296	786.08
749.481	872.09
749.665	851.61
749.85	915.1
750.034	849.57
750.219	865.95
750.404	837.28
750.588	827.04
750.773	767.65
750.957	779.93
751.141	759.46
751.326	814.75
751.51	771.74
751.695	886.43
751.879	757.41
752.064	708.26
752.248	779.93
752.432	796.32
752.617	800.41
752.801	820.89
752.985	794.27
753.17	839.33
753.354	763.55
753.538	741.02
753.722	794.27
753.907	788.13
754.091	712.35
754.275	779.93
754.459	702.11
754.643	675.49
754.828	741.02
755.012	681.63
755.196	685.73
755.38	683.68
755.564	581.28
755.748	710.3
755.932	589.47
756.116	669.34
756.3	655.01
756.484	689.82
756.668	698.02
756.852	636.58
757.036	659.1
757.22	642.72
757.404	702.11
757.588	603.81
757.772	622.24
757.956	665.25
758.14	550.56
758.323	687.78
758.507	669.34
758.691	624.29
758.875	562.85
759.059	683.68
759.242	607.91
759.426	671.39
759.61	511.65
759.794	603.81
759.977	534.18
760.161	620.19
760.345	581.28
760.528	493.22
760.712	648.86
760.895	601.76
761.079	577.19
761.263	538.27
761.446	634.53
761.63	585.38
761.813	566.95
761.997	528.03
762.18	530.08
762.364	485.03
762.547	548.51
762.731	564.9
762.914	542.37
763.098	601.76
763.281	601.76
763.464	534.18
763.648	532.13
763.831	530.08
764.015	556.71
764.198	612
764.381	501.41
764.564	575.14
764.748	499.36
764.931	552.61
765.114	571.04
765.297	538.27
765.481	564.9
765.664	546.47
765.847	507.55
766.03	503.46
766.213	528.03
766.397	540.32
766.58	530.08
766.763	456.36
766.946	542.37
767.129	525.99
767.312	427.68
767.495	396.96
767.678	454.31
767.861	573.09
768.044	573.09
768.227	515.75
768.41	525.99
768.593	507.55
768.776	525.99
768.959	478.88
769.142	462.5
769.324	534.18
769.507	530.08
769.69	554.66
769.873	491.17
770.056	542.37
770.239	478.88
770.421	528.03
770.604	505.51
770.787	466.6
770.97	407.2
771.152	577.19
771.335	448.16
771.518	462.5
771.7	386.72
771.883	489.12
772.066	480.93
772.248	425.64
772.431	460.45
772.613	435.88
772.796	415.4
772.978	450.21
773.161	501.41
773.343	472.74
773.526	429.73
773.708	370.34
773.891	425.64
774.073	503.46
774.256	384.68
774.438	472.74
774.621	423.59
774.803	458.4
774.985	396.96
775.168	462.5
775.35	388.77
775.532	448.16
775.715	364.2
775.897	460.45
776.079	409.25
776.261	448.16
776.444	439.97
776.626	413.35
776.808	442.02
776.99	456.36
777.173	468.64
777.355	382.63
777.537	382.63
777.719	421.54
777.901	382.63
778.083	439.97
778.265	362.15
778.447	360.1
778.629	290.47
778.811	417.44
778.993	388.77
779.175	431.78
779.357	329.38
779.539	386.72
779.721	439.97
779.903	288.42
780.085	427.68
780.267	358.05
780.449	351.91
780.631	413.35
780.812	370.34
780.994	331.43
781.176	370.34
781.358	233.13
781.54	251.56
781.721	343.72
781.903	345.77
782.085	329.38
782.267	407.2
782.448	378.53
782.63	331.43
782.812	351.91
782.993	319.14
783.175	290.47
783.357	284.33
783.538	272.04
783.72	249.51
783.901	296.61
784.083	304.81
784.264	216.74
784.446	296.61
784.627	325.29
784.809	298.66
784.99	292.52
785.172	235.18
785.353	358.05
785.535	302.76
785.716	323.24
785.897	245.41
786.079	343.72
786.26	288.42
786.441	327.33
786.623	298.66
786.804	302.76
786.985	229.03
787.167	376.48
787.348	214.7
787.529	202.41
787.71	257.7
787.891	343.72
788.073	272.04
788.254	202.41
788.435	298.66
788.616	224.94
788.797	235.18
788.978	202.41
789.159	261.8
789.34	282.28
789.522	202.41
789.703	241.32
789.884	208.55
790.065	210.6
790.246	329.38
790.427	235.18
790.607	241.32
790.788	222.89
790.969	255.65
791.15	288.42
791.331	188.07
791.512	269.99
791.693	247.46
791.874	245.41
792.054	194.22
792.235	216.74
792.416	165.54
792.597	177.83
792.778	153.26
792.958	159.4
793.139	186.02
793.32	222.89
793.5	259.75
793.681	190.12
793.862	202.41
794.042	192.17
794.223	231.08
794.404	171.69
794.584	188.07
794.765	212.65
794.945	171.69
795.126	128.68
795.306	128.68
795.487	175.78
795.667	149.16
795.848	147.11
796.028	214.7
796.209	173.74
796.389	229.03
796.57	159.4
796.75	138.92
796.93	194.22
797.111	198.31
797.291	171.69
797.471	161.45
797.652	136.87
797.832	224.94
798.012	149.16
798.192	239.27
798.373	143.02
798.553	206.5
798.733	173.74
798.913	100.01
799.093	188.07
799.274	202.41
799.454	153.26
799.634	222.89
799.814	167.59
799.994	233.13
800.174	165.54
800.354	161.45
800.534	212.65
800.714	181.93
800.894	130.73
801.074	130.73
801.254	192.17
801.434	122.54
801.614	151.21
801.794	122.54
801.974	267.94
802.154	132.78
802.334	136.87
802.514	226.98
802.693	110.25
802.873	108.2
803.053	143.02
803.233	116.39
803.413	102.06
803.592	192.17
803.772	157.35
803.952	149.16
804.131	102.06
804.311	153.26
804.491	83.63
804.67	181.93
804.85	149.16
805.03	126.63
805.209	79.53
805.389	147.11
805.568	110.25
805.748	163.5
805.928	138.92
806.107	106.15
806.287	116.39
806.466	192.17
806.646	134.82
806.825	134.82
807.004	95.91
807.184	120.49
807.363	110.25
807.543	126.63
807.722	153.26
807.901	147.11
808.081	134.82
808.26	110.25
808.439	110.25
808.619	87.72
808.798	171.69
808.977	134.82
809.156	126.63
809.336	87.72
809.515	163.5
809.694	97.96
809.873	100.01
810.052	104.11
810.231	106.15
810.411	116.39
810.59	130.73
810.769	106.15
810.948	104.11
811.127	11.95
811.306	83.63
811.485	171.69
811.664	89.77
811.843	122.54
812.022	110.25
812.201	157.35
812.38	89.77
812.559	147.11
812.737	161.45
812.916	124.58
813.095	65.19
813.274	61.1
813.453	102.06
813.632	85.67
813.811	132.78
813.989	87.72
814.168	102.06
814.347	151.21
814.526	120.49
814.704	136.87
814.883	20.14
815.062	44.71
815.24	116.39
815.419	91.82
815.598	106.15
815.776	108.2
815.955	73.39
816.133	44.71
816.312	155.3
816.49	30.38
816.669	126.63
816.847	-22.87
817.026	79.53
817.204	73.39
817.383	134.82
817.561	83.63
817.74	161.45
817.918	128.68
818.097	140.97
818.275	132.78
818.453	106.15
818.632	132.78
818.81	69.29
818.988	48.81
819.167	44.71
819.345	116.39
819.523	100.01
819.701	40.62
819.879	177.83
820.058	100.01
820.236	124.58
820.414	124.58
820.592	124.58
820.77	91.82
820.948	61.1
821.127	106.15
821.305	102.06
821.483	-0.34
821.661	106.15
821.839	114.34
822.017	75.43
822.195	61.1
822.373	138.92
822.551	102.06
822.729	85.67
822.907	79.53
823.085	79.53
823.262	52.91
823.44	85.67
823.618	122.54
823.796	100.01
823.974	73.39
824.152	145.06
824.329	22.19
824.507	100.01
824.685	110.25
824.863	122.54
825.04	-10.58
825.218	54.95
825.396	65.19
825.574	87.72
825.751	24.23
825.929	87.72
826.107	26.28
826.284	59.05
826.462	91.82
826.639	77.48
826.817	91.82
826.994	40.62
827.172	59.05
827.349	34.47
827.527	59.05
827.704	147.11
827.882	69.29
828.059	61.1
828.237	44.71
828.414	85.67
828.591	38.57
828.769	52.91
828.946	57
829.124	61.1
829.301	63.15
829.478	26.28
829.655	118.44
829.833	136.87
830.01	65.19
830.187	97.96
830.364	-16.73
830.542	85.67
830.719	116.39
830.896	65.19
831.073	18.09
831.25	112.3
831.427	22.19
831.604	9.9
831.782	44.71
831.959	128.68
832.136	26.28
832.313	95.91
832.49	50.86
832.667	65.19
832.844	22.19
833.021	75.43
833.198	44.71
833.374	3.75
833.551	75.43
833.728	40.62
833.905	106.15
834.082	77.48
834.259	54.95
834.436	85.67
834.612	93.87
834.789	118.44
834.966	20.14
835.143	9.9
835.319	79.53
835.496	136.87
835.673	11.95
835.85	42.67
836.026	24.23
836.203	44.71
836.38	-0.34
836.556	34.47
836.733	-0.34
836.909	179.88
837.086	63.15
837.262	93.87
837.439	48.81
837.616	46.76
837.792	75.43
837.968	85.67
838.145	52.91
838.321	59.05
838.498	67.24
838.674	91.82
838.851	73.39
839.027	97.96
839.203	22.19
839.38	104.11
839.556	-12.63
839.732	69.29
839.909	73.39
840.085	24.23
840.261	85.67
840.437	28.33
840.614	52.91
840.79	34.47
840.966	75.43
841.142	48.81
841.318	54.95
841.494	69.29
841.671	106.15
841.847	63.15
842.023	40.62
842.199	9.9
842.375	46.76
842.551	112.3
842.727	36.52
842.903	9.9
843.079	-26.96
843.255	48.81
843.431	95.91
843.607	91.82
843.783	22.19
843.959	1.71
844.134	48.81
844.31	75.43
844.486	13.99
844.662	44.71
844.838	32.43
845.013	54.95
845.189	28.33
845.365	50.86
845.541	73.39
845.716	-14.68
845.892	63.15
846.068	89.77
846.244	81.58
846.419	34.47
846.595	36.52
846.77	54.95
846.946	13.99
847.122	50.86
847.297	34.47
847.473	59.05
847.648	5.8
847.824	24.23
847.999	1.71
848.175	75.43
848.35	-22.87
848.526	83.63
848.701	69.29
848.876	-12.63
849.052	7.85
849.227	71.34
849.403	61.1
849.578	81.58
849.753	63.15
849.929	36.52
850.104	26.28
850.279	75.43
850.454	48.81
850.63	59.05
850.805	79.53
850.98	46.76
851.155	71.34
851.33	87.72
851.505	59.05
851.681	7.85
851.856	-4.44
852.031	-2.39
852.206	63.15
852.381	-16.73
852.556	32.43
852.731	57
852.906	44.71
853.081	95.91
853.256	54.95
853.431	40.62
853.606	104.11
853.781	26.28
853.956	36.52
854.131	52.91
854.305	3.75
854.48	24.23
854.655	-2.39
854.83	69.29
855.005	46.76
855.18	34.47
855.354	32.43
855.529	-14.68
855.704	42.67
855.879	77.48
856.053	22.19
856.228	38.57
856.403	69.29
856.577	32.43
856.752	-18.77
856.926	87.72
857.101	143.02
857.276	81.58
857.45	50.86
857.625	52.91
857.799	-12.63
857.974	7.85
858.148	36.52
858.323	3.75
858.497	97.96
858.672	69.29
858.846	-6.49
859.02	52.91
859.195	42.67
859.369	-6.49
859.543	81.58
859.718	32.43
859.892	57
860.066	91.82
860.241	24.23
860.415	67.24
860.589	36.52
860.763	67.24
860.938	36.52
861.112	11.95
861.286	89.77
861.46	91.82
861.634	-2.39
861.808	73.39
861.982	91.82
862.157	-22.87
862.331	22.19
862.505	22.19
862.679	73.39
862.853	81.58
863.027	38.57
863.201	42.67
863.375	44.71
863.549	-4.44
863.722	-6.49
863.896	65.19
864.07	57
864.244	-53.59
864.418	57
864.592	-12.63
864.766	28.33
864.939	48.81
865.113	13.99
865.287	24.23
865.461	24.23
865.634	73.39
865.808	24.23
865.982	-18.77
866.156	-14.68
866.329	3.75
866.503	-24.92
866.676	36.52
866.85	79.53
867.024	-0.34
867.197	30.38
867.371	69.29
867.544	-10.58
867.718	1.71
867.891	-16.73
868.065	50.86
868.238	61.1
868.412	16.04
868.585	36.52
868.759	24.23
868.932	32.43
869.105	-6.49
869.279	36.52
869.452	50.86
869.625	52.91
869.799	7.85
869.972	63.15
870.145	46.76
870.319	48.81
870.492	13.99
870.665	44.71
870.838	-8.53
871.011	-43.35
871.185	7.85
871.358	-16.73
871.531	34.47
871.704	26.28
871.877	59.05
872.05	11.95
872.223	52.91
872.396	3.75
872.569	20.14
872.742	24.23
872.915	50.86
873.088	28.33
873.261	-6.49
873.434	87.72
873.607	22.19
873.78	-69.97
873.953	32.43
874.126	48.81
874.299	89.77
874.471	59.05
874.644	32.43
874.817	-26.96
874.99	18.09
875.163	5.8
875.335	54.95
875.508	-24.92
875.681	77.48
875.853	-49.49
876.026	34.47
876.199	28.33
876.371	73.39
876.544	-24.92
876.717	104.11
876.889	18.09
877.062	26.28
877.234	-0.34
877.407	28.33
877.579	73.39
877.752	24.23
877.924	11.95
878.097	28.33
878.269	-51.54
878.442	-39.25
878.614	22.19
878.786	48.81
878.959	63.15
879.131	81.58
879.303	-0.34
879.476	7.85
879.648	40.62
879.82	108.2
879.993	3.75
880.165	24.23
880.337	44.71
880.509	50.86
880.681	-29.01
880.854	48.81
881.026	136.87
881.198	59.05
881.37	81.58
881.542	50.86
881.714	89.77
881.886	30.38
882.058	5.8
882.23	18.09
882.402	1.71
882.574	75.43
882.746	-18.77
882.918	102.06
883.09	30.38
883.262	22.19
883.434	26.28
883.606	16.04
883.778	65.19
883.95	-16.73
884.122	11.95
884.293	71.34
884.465	-14.68
884.637	24.23
884.809	93.87
884.98	65.19
885.152	59.05
885.324	9.9
885.496	-4.44
885.667	52.91
885.839	-6.49
886.011	108.2
886.182	-18.77
886.354	26.28
886.525	11.95
886.697	40.62
886.869	28.33
887.04	73.39
887.212	42.67
887.383	108.2
887.555	102.06
887.726	116.39
887.897	20.14
888.069	69.29
888.24	24.23
888.412	36.52
888.583	38.57
888.754	16.04
888.926	7.85
889.097	11.95
889.268	36.52
889.44	-0.34
889.611	-4.44
889.782	32.43
889.953	32.43
890.125	22.19
890.296	57
890.467	7.85
890.638	52.91
890.809	54.95
890.98	22.19
891.151	28.33
891.323	11.95
891.494	59.05
891.665	30.38
891.836	-24.92
892.007	7.85
892.178	73.39
892.349	13.99
892.52	20.14
892.691	32.43
892.862	26.28
893.032	-4.44
893.203	34.47
893.374	18.09
893.545	34.47
893.716	28.33
893.887	13.99
894.057	34.47
894.228	67.24
894.399	63.15
894.57	1.71
894.74	30.38
894.911	26.28
895.082	-14.68
895.253	7.85
895.423	5.8
895.594	28.33
895.764	50.86
895.935	13.99
896.106	32.43
896.276	9.9
896.447	30.38
896.617	22.19
896.788	24.23
896.958	-10.58
897.129	13.99
897.299	-10.58
897.47	81.58
897.64	16.04
897.81	42.67
897.981	26.28
898.151	18.09
898.322	-16.73
898.492	63.15
898.662	34.47
898.832	1.71
899.003	38.57
899.173	5.8
899.343	-14.68
899.513	-6.49
