Data from USB4F104151__111__13-54-55-867.txt Node

Date: Thu Mar 13 13:54:55 EDT 2025
User: louis
Spectrometer: USB4F10415
Trigger mode: 4
Integration Time (sec): 1.000000E-2
Scans to average: 1
Electric dark correction enabled: true
Nonlinearity correction enabled: false
Boxcar width: 0
XAxis mode: Wavelengths
Number of Pixels in Spectrum: 3648
>>>>>Begin Spectral Data<<<<<
178.204	-0.51
178.424	-0.51
178.644	-0.51
178.864	-31.23
179.084	24.06
179.304	-0.51
179.524	-33.28
179.744	-31.23
179.964	-10.75
180.184	-20.99
180.404	52.74
180.624	58.88
180.844	19.97
181.064	-49.66
181.283	24.06
181.503	-27.14
181.723	17.92
181.943	-12.8
182.163	3.58
182.383	3.58
182.602	24.06
182.822	-8.7
183.042	32.26
183.262	-14.85
183.482	-37.38
183.701	-16.9
183.921	-41.47
184.141	-0.51
184.361	36.35
184.58	77.31
184.8	-10.75
185.02	11.78
185.239	65.02
185.459	-72.19
185.679	-4.61
185.898	-47.62
186.118	46.59
186.338	3.58
186.557	32.26
186.777	13.82
186.997	-37.38
187.216	38.4
187.436	48.64
187.655	-4.61
187.875	17.92
188.095	-31.23
188.314	75.26
188.534	11.78
188.753	-61.95
188.973	19.97
189.192	19.97
189.412	7.68
189.631	95.74
189.851	52.74
190.07	13.82
190.29	40.45
190.509	-43.52
190.729	-0.51
190.948	-49.66
191.168	26.11
191.387	28.16
191.607	-10.75
191.826	73.21
192.045	87.55
192.265	9.73
192.484	5.63
192.704	36.35
192.923	91.65
193.142	67.07
193.362	28.16
193.581	-0.51
193.8	-29.18
194.02	48.64
194.239	-10.75
194.458	-53.76
194.678	-16.9
194.897	17.92
195.116	-16.9
195.335	-10.75
195.555	60.93
195.774	-29.18
195.993	28.16
196.212	13.82
196.432	30.21
196.651	56.83
196.87	48.64
197.089	103.93
197.308	97.79
197.528	-31.23
197.747	13.82
197.966	42.5
198.185	58.88
198.404	32.26
198.623	7.68
198.842	26.11
199.062	19.97
199.281	-14.85
199.5	-4.61
199.719	-4.61
199.938	-2.56
200.157	38.4
200.376	13.82
200.595	52.74
200.814	-14.85
201.033	9.73
201.252	40.45
201.471	48.64
201.69	54.78
201.909	-6.66
202.128	9.73
202.347	54.78
202.566	-23.04
202.785	34.3
203.004	15.87
203.223	75.26
203.442	-59.9
203.661	34.3
203.879	1.54
204.098	36.35
204.317	-35.33
204.536	85.5
204.755	1.54
204.974	-8.7
205.193	-51.71
205.411	48.64
205.63	38.4
205.849	83.45
206.068	60.93
206.287	13.82
206.505	5.63
206.724	30.21
206.943	-16.9
207.162	30.21
207.381	-66.05
207.599	50.69
207.818	40.45
208.037	-10.75
208.255	-12.8
208.474	60.93
208.693	-59.9
208.911	38.4
209.13	34.3
209.349	-20.99
209.567	-29.18
209.786	34.3
210.005	-10.75
210.223	108.03
210.442	17.92
210.661	56.83
210.879	-0.51
211.098	-4.61
211.316	40.45
211.535	112.13
211.753	-4.61
211.972	48.64
212.191	-96.77
212.409	62.98
212.628	17.92
212.846	3.58
213.065	15.87
213.283	17.92
213.502	19.97
213.72	54.78
213.938	-0.51
214.157	65.02
214.375	26.11
214.594	50.69
214.812	-8.7
215.031	-59.9
215.249	9.73
215.467	-14.85
215.686	26.11
215.904	110.08
216.122	-12.8
216.341	42.5
216.559	24.06
216.778	32.26
216.996	-2.56
217.214	50.69
217.432	5.63
217.651	13.82
217.869	-23.04
218.087	-16.9
218.306	-14.85
218.524	101.89
218.742	-23.04
218.96	-16.9
219.179	65.02
219.397	-18.94
219.615	40.45
219.833	17.92
220.051	-18.94
220.27	65.02
220.488	-57.86
220.706	11.78
220.924	17.92
221.142	26.11
221.36	73.21
221.578	15.87
221.796	44.54
222.015	5.63
222.233	-31.23
222.451	44.54
222.669	26.11
222.887	13.82
223.105	-18.94
223.323	11.78
223.541	-37.38
223.759	34.3
223.977	77.31
224.195	87.55
224.413	15.87
224.631	46.59
224.849	-35.33
225.067	3.58
225.285	87.55
225.503	48.64
225.721	-23.04
225.939	-25.09
226.157	26.11
226.375	48.64
226.592	34.3
226.81	-8.7
227.028	-10.75
227.246	1.54
227.464	5.63
227.682	1.54
227.9	38.4
228.117	-2.56
228.335	-23.04
228.553	-8.7
228.771	99.84
228.989	-2.56
229.206	15.87
229.424	-16.9
229.642	-4.61
229.86	-14.85
230.077	13.82
230.295	-10.75
230.513	9.73
230.731	52.74
230.948	54.78
231.166	19.97
231.384	-27.14
231.601	30.21
231.819	-14.85
232.037	-51.71
232.254	-6.66
232.472	-14.85
232.689	-16.9
232.907	-20.99
233.125	-12.8
233.342	46.59
233.56	-18.94
233.777	54.78
233.995	32.26
234.213	7.68
234.43	91.65
234.648	38.4
234.865	17.92
235.083	17.92
235.3	-8.7
235.518	108.03
235.735	11.78
235.953	-39.42
236.17	56.83
236.388	-2.56
236.605	17.92
236.822	73.21
237.04	5.63
237.257	11.78
237.475	26.11
237.692	48.64
237.909	44.54
238.127	83.45
238.344	-14.85
238.562	1.54
238.779	-18.94
238.996	-4.61
239.214	58.88
239.431	71.17
239.648	-14.85
239.865	11.78
240.083	3.58
240.3	71.17
240.517	81.41
240.735	38.4
240.952	26.11
241.169	-25.09
241.386	-23.04
241.603	-4.61
241.821	24.06
242.038	26.11
242.255	54.78
242.472	17.92
242.689	-14.85
242.907	34.3
243.124	22.02
243.341	-0.51
243.558	-10.75
243.775	-16.9
243.992	56.83
244.209	19.97
244.426	36.35
244.643	77.31
244.86	-41.47
245.078	24.06
245.295	91.65
245.512	7.68
245.729	-25.09
245.946	36.35
246.163	-2.56
246.38	26.11
246.597	-4.61
246.814	75.26
247.031	38.4
247.248	13.82
247.464	56.83
247.681	-20.99
247.898	48.64
248.115	-20.99
248.332	32.26
248.549	54.78
248.766	52.74
248.983	30.21
249.2	-14.85
249.417	83.45
249.633	58.88
249.85	73.21
250.067	7.68
250.284	-12.8
250.501	17.92
250.717	11.78
250.934	-20.99
251.151	-18.94
251.368	24.06
251.585	36.35
251.801	7.68
252.018	40.45
252.235	-20.99
252.451	54.78
252.668	-16.9
252.885	-74.24
253.102	-12.8
253.318	56.83
253.535	46.59
253.752	5.63
253.968	26.11
254.185	30.21
254.401	89.6
254.618	1.54
254.835	28.16
255.051	-14.85
255.268	71.17
255.484	-14.85
255.701	60.93
255.917	30.21
256.134	22.02
256.351	40.45
256.567	1.54
256.784	28.16
257	-64
257.217	81.41
257.433	69.12
257.65	-12.8
257.866	52.74
258.082	62.98
258.299	-8.7
258.515	30.21
258.732	24.06
258.948	-14.85
259.165	75.26
259.381	-37.38
259.597	-12.8
259.814	48.64
260.03	-31.23
260.246	17.92
260.463	1.54
260.679	-0.51
260.895	-31.23
261.112	79.36
261.328	-8.7
261.544	-31.23
261.761	75.26
261.977	-4.61
262.193	32.26
262.409	50.69
262.626	-8.7
262.842	13.82
263.058	-76.29
263.274	40.45
263.49	44.54
263.707	105.98
263.923	-16.9
264.139	69.12
264.355	-31.23
264.571	77.31
264.787	-18.94
265.004	67.07
265.22	75.26
265.436	52.74
265.652	-8.7
265.868	42.5
266.084	22.02
266.3	34.3
266.516	56.83
266.732	17.92
266.948	22.02
267.164	-12.8
267.38	67.07
267.596	15.87
267.812	75.26
268.028	144.89
268.244	32.26
268.46	77.31
268.676	7.68
268.892	-6.66
269.108	-6.66
269.324	-4.61
269.54	22.02
269.756	36.35
269.972	19.97
270.188	103.93
270.403	-2.56
270.619	11.78
270.835	-57.86
271.051	26.11
271.267	-18.94
271.483	46.59
271.698	-16.9
271.914	38.4
272.13	24.06
272.346	1.54
272.562	11.78
272.777	108.03
272.993	-16.9
273.209	17.92
273.425	-0.51
273.64	65.02
273.856	40.45
274.072	26.11
274.287	50.69
274.503	1.54
274.719	15.87
274.934	22.02
275.15	30.21
275.366	13.82
275.581	46.59
275.797	11.78
276.012	1.54
276.228	9.73
276.444	-6.66
276.659	60.93
276.875	69.12
277.09	67.07
277.306	-45.57
277.521	-12.8
277.737	50.69
277.952	34.3
278.168	3.58
278.383	17.92
278.599	17.92
278.814	5.63
279.03	69.12
279.245	-8.7
279.461	5.63
279.676	65.02
279.892	-27.14
280.107	40.45
280.322	-35.33
280.538	19.97
280.753	5.63
280.969	40.45
281.184	-18.94
281.399	5.63
281.615	36.35
281.83	48.64
282.045	7.68
282.26	-0.51
282.476	26.11
282.691	60.93
282.906	26.11
283.122	44.54
283.337	32.26
283.552	-4.61
283.767	7.68
283.983	105.98
284.198	73.21
284.413	5.63
284.628	54.78
284.843	40.45
285.058	54.78
285.274	7.68
285.489	13.82
285.704	36.35
285.919	46.59
286.134	77.31
286.349	52.74
286.564	24.06
286.779	65.02
286.995	26.11
287.21	-64
287.425	50.69
287.64	28.16
287.855	38.4
288.07	-29.18
288.285	34.3
288.5	-4.61
288.715	85.5
288.93	-41.47
289.145	19.97
289.36	83.45
289.575	17.92
289.79	56.83
290.004	24.06
290.219	26.11
290.434	67.07
290.649	15.87
290.864	36.35
291.079	-33.28
291.294	28.16
291.509	1.54
291.724	-8.7
291.938	36.35
292.153	73.21
292.368	-20.99
292.583	42.5
292.798	-29.18
293.012	48.64
293.227	42.5
293.442	26.11
293.657	36.35
293.871	30.21
294.086	-14.85
294.301	42.5
294.516	36.35
294.73	32.26
294.945	26.11
295.16	42.5
295.374	132.61
295.589	-33.28
295.804	-8.7
296.018	73.21
296.233	34.3
296.447	128.51
296.662	5.63
296.877	28.16
297.091	22.02
297.306	65.02
297.52	3.58
297.735	7.68
297.949	11.78
298.164	44.54
298.378	81.41
298.593	-10.75
298.807	17.92
299.022	75.26
299.236	60.93
299.451	-53.76
299.665	-12.8
299.88	11.78
300.094	54.78
300.309	-2.56
300.523	-14.85
300.737	-10.75
300.952	79.36
301.166	-25.09
301.381	-0.51
301.595	38.4
301.809	11.78
302.024	71.17
302.238	-64
302.452	17.92
302.667	-23.04
302.881	-33.28
303.095	13.82
303.309	-14.85
303.524	22.02
303.738	-20.99
303.952	-0.51
304.166	26.11
304.381	7.68
304.595	-4.61
304.809	-51.71
305.023	17.92
305.237	52.74
305.452	-20.99
305.666	50.69
305.88	-2.56
306.094	114.17
306.308	48.64
306.522	48.64
306.736	13.82
306.95	32.26
307.164	-18.94
307.379	-53.76
307.593	85.5
307.807	7.68
308.021	-10.75
308.235	-12.8
308.449	19.97
308.663	112.13
308.877	34.3
309.091	19.97
309.305	67.07
309.519	77.31
309.733	52.74
309.947	22.02
310.161	-20.99
310.374	9.73
310.588	-6.66
310.802	28.16
311.016	-6.66
311.23	38.4
311.444	17.92
311.658	17.92
311.872	7.68
312.085	-10.75
312.299	11.78
312.513	11.78
312.727	56.83
312.941	34.3
313.154	5.63
313.368	7.68
313.582	42.5
313.796	-0.51
314.009	9.73
314.223	15.87
314.437	-8.7
314.651	65.02
314.864	9.73
315.078	-27.14
315.292	30.21
315.505	54.78
315.719	62.98
315.933	50.69
316.146	62.98
316.36	11.78
316.573	28.16
316.787	5.63
317.001	42.5
317.214	38.4
317.428	73.21
317.641	24.06
317.855	77.31
318.068	-27.14
318.282	40.45
318.495	19.97
318.709	48.64
318.922	5.63
319.136	34.3
319.349	28.16
319.563	60.93
319.776	54.78
319.99	-12.8
320.203	17.92
320.417	15.87
320.63	44.54
320.843	83.45
321.057	46.59
321.27	19.97
321.483	32.26
321.697	1.54
321.91	-0.51
322.124	24.06
322.337	19.97
322.55	30.21
322.763	75.26
322.977	71.17
323.19	-6.66
323.403	73.21
323.617	19.97
323.83	38.4
324.043	38.4
324.256	-12.8
324.469	81.41
324.683	69.12
324.896	1.54
325.109	40.45
325.322	-70.14
325.535	79.36
325.748	97.79
325.962	58.88
326.175	1.54
326.388	19.97
326.601	-4.61
326.814	52.74
327.027	-45.57
327.24	-20.99
327.453	-25.09
327.666	34.3
327.879	-29.18
328.092	73.21
328.305	-0.51
328.518	62.98
328.731	13.82
328.944	-12.8
329.157	-8.7
329.37	40.45
329.583	40.45
329.796	17.92
330.009	40.45
330.222	69.12
330.435	62.98
330.648	30.21
330.861	-45.57
331.073	75.26
331.286	26.11
331.499	13.82
331.712	32.26
331.925	7.68
332.138	52.74
332.35	48.64
332.563	48.64
332.776	42.5
332.989	83.45
333.202	42.5
333.414	-45.57
333.627	-25.09
333.84	-8.7
334.053	50.69
334.265	-4.61
334.478	17.92
334.691	77.31
334.903	44.54
335.116	-12.8
335.329	26.11
335.541	101.89
335.754	56.83
335.966	7.68
336.179	-12.8
336.392	99.84
336.604	36.35
336.817	11.78
337.029	48.64
337.242	-4.61
337.454	-57.86
337.667	-33.28
337.88	67.07
338.092	54.78
338.305	17.92
338.517	-16.9
338.729	58.88
338.942	89.6
339.154	22.02
339.367	9.73
339.579	114.17
339.792	-12.8
340.004	54.78
340.217	42.5
340.429	97.79
340.641	-18.94
340.854	34.3
341.066	5.63
341.278	30.21
341.491	44.54
341.703	-16.9
341.915	-16.9
342.128	120.32
342.34	93.69
342.552	22.02
342.764	28.16
342.977	40.45
343.189	11.78
343.401	38.4
343.613	17.92
343.826	67.07
344.038	36.35
344.25	97.79
344.462	36.35
344.674	65.02
344.886	69.12
345.099	-23.04
345.311	-70.14
345.523	24.06
345.735	3.58
345.947	71.17
346.159	34.3
346.371	17.92
346.583	-10.75
346.795	85.5
347.007	65.02
347.219	44.54
347.431	-20.99
347.643	-29.18
347.855	103.93
348.067	56.83
348.279	22.02
348.491	32.26
348.703	1.54
348.915	-0.51
349.127	52.74
349.339	75.26
349.551	65.02
349.763	-8.7
349.975	56.83
350.187	48.64
350.399	58.88
350.61	-2.56
350.822	50.69
351.034	17.92
351.246	32.26
351.458	15.87
351.669	46.59
351.881	60.93
352.093	48.64
352.305	58.88
352.517	5.63
352.728	-18.94
352.94	-10.75
353.152	17.92
353.363	-25.09
353.575	93.69
353.787	87.55
353.999	13.82
354.21	40.45
354.422	38.4
354.633	13.82
354.845	69.12
355.057	28.16
355.268	3.58
355.48	19.97
355.692	7.68
355.903	-23.04
356.115	7.68
356.326	7.68
356.538	56.83
356.749	1.54
356.961	-4.61
357.172	1.54
357.384	130.56
357.595	89.6
357.807	19.97
358.018	-39.42
358.23	58.88
358.441	-4.61
358.653	-20.99
358.864	22.02
359.075	40.45
359.287	60.93
359.498	-8.7
359.709	40.45
359.921	-8.7
360.132	56.83
360.344	120.32
360.555	34.3
360.766	73.21
360.977	19.97
361.189	60.93
361.4	26.11
361.611	34.3
361.823	67.07
362.034	-10.75
362.245	-41.47
362.456	38.4
362.667	110.08
362.879	87.55
363.09	13.82
363.301	26.11
363.512	89.6
363.723	60.93
363.935	42.5
364.146	-0.51
364.357	-18.94
364.568	1.54
364.779	65.02
364.99	-0.51
365.201	46.59
365.412	93.69
365.623	85.5
365.834	9.73
366.045	40.45
366.256	85.5
366.467	3.58
366.678	9.73
366.889	3.58
367.1	54.78
367.311	-2.56
367.522	-12.8
367.733	-55.81
367.944	3.58
368.155	-39.42
368.366	79.36
368.577	73.21
368.788	-10.75
368.999	38.4
369.209	-4.61
369.42	42.5
369.631	73.21
369.842	-31.23
370.053	101.89
370.264	75.26
370.474	3.58
370.685	112.13
370.896	15.87
371.107	126.46
371.317	-2.56
371.528	34.3
371.739	67.07
371.95	91.65
372.16	60.93
372.371	-35.33
372.582	36.35
372.792	110.08
373.003	60.93
373.214	9.73
373.424	48.64
373.635	69.12
373.846	75.26
374.056	-27.14
374.267	13.82
374.477	-23.04
374.688	46.59
374.898	54.78
375.109	-18.94
375.319	1.54
375.53	36.35
375.74	11.78
375.951	28.16
376.161	34.3
376.372	77.31
376.582	22.02
376.793	65.02
377.003	40.45
377.214	-2.56
377.424	17.92
377.635	110.08
377.845	-10.75
378.055	95.74
378.266	38.4
378.476	5.63
378.686	48.64
378.897	46.59
379.107	34.3
379.317	65.02
379.528	52.74
379.738	83.45
379.948	28.16
380.158	60.93
380.369	110.08
380.579	85.5
380.789	46.59
380.999	9.73
381.21	56.83
381.42	56.83
381.63	95.74
381.84	1.54
382.05	34.3
382.261	38.4
382.471	52.74
382.681	44.54
382.891	48.64
383.101	50.69
383.311	-10.75
383.521	24.06
383.731	75.26
383.941	24.06
384.151	11.78
384.361	28.16
384.571	38.4
384.781	48.64
384.991	85.5
385.201	-23.04
385.411	58.88
385.621	-16.9
385.831	26.11
386.041	46.59
386.251	36.35
386.461	48.64
386.671	30.21
386.881	42.5
387.091	-6.66
387.301	28.16
387.511	30.21
387.72	36.35
387.93	65.02
388.14	99.84
388.35	13.82
388.56	40.45
388.769	17.92
388.979	5.63
389.189	32.26
389.399	83.45
389.609	110.08
389.818	108.03
390.028	-2.56
390.238	69.12
390.447	87.55
390.657	46.59
390.867	-12.8
391.076	81.41
391.286	89.6
391.496	26.11
391.705	101.89
391.915	60.93
392.125	54.78
392.334	11.78
392.544	38.4
392.753	22.02
392.963	3.58
393.172	50.69
393.382	13.82
393.591	116.22
393.801	24.06
394.01	93.69
394.22	48.64
394.429	42.5
394.639	44.54
394.848	60.93
395.058	52.74
395.267	52.74
395.477	-6.66
395.686	81.41
395.895	44.54
396.105	34.3
396.314	67.07
396.524	40.45
396.733	7.68
396.942	114.17
397.152	101.89
397.361	87.55
397.57	79.36
397.78	83.45
397.989	87.55
398.198	69.12
398.407	77.31
398.617	130.56
398.826	54.78
399.035	24.06
399.244	42.5
399.453	85.5
399.663	95.74
399.872	32.26
400.081	128.51
400.29	54.78
400.499	87.55
400.708	89.6
400.917	48.64
401.127	71.17
401.336	56.83
401.545	95.74
401.754	95.74
401.963	38.4
402.172	101.89
402.381	97.79
402.59	110.08
402.799	132.61
403.008	105.98
403.217	67.07
403.426	97.79
403.635	97.79
403.844	103.93
404.053	93.69
404.262	110.08
404.471	87.55
404.68	73.21
404.888	81.41
405.097	67.07
405.306	71.17
405.515	79.36
405.724	169.47
405.933	128.51
406.142	179.71
406.35	136.7
406.559	167.42
406.768	146.94
406.977	83.45
407.185	183.81
407.394	118.27
407.603	148.99
407.812	148.99
408.02	177.66
408.229	173.57
408.438	177.66
408.646	155.13
408.855	128.51
409.064	196.09
409.272	169.47
409.481	210.43
409.69	175.61
409.898	237.05
410.107	237.05
410.315	235
410.524	226.81
410.733	198.14
410.941	185.85
411.15	267.77
411.358	298.49
411.567	308.73
411.775	296.44
411.984	361.98
412.192	241.15
412.401	376.31
412.609	304.64
412.818	427.51
413.026	400.89
413.234	292.35
413.443	407.03
413.651	402.94
413.86	474.62
414.068	370.17
414.276	392.7
414.485	474.62
414.693	427.51
414.901	484.86
415.11	495.1
415.318	501.24
415.526	482.81
415.734	478.71
415.943	521.72
416.151	593.4
416.359	566.78
416.567	581.11
416.776	710.13
416.984	701.94
417.192	663.03
417.4	706.04
417.608	736.76
417.817	679.41
418.025	802.29
418.233	769.52
418.441	812.53
418.649	804.34
418.857	865.78
419.065	959.99
419.273	902.64
419.481	951.79
419.689	1025.52
419.897	1080.82
420.105	1058.29
420.313	1134.06
420.521	1084.91
420.729	1150.45
420.937	1271.28
421.145	1232.37
421.353	1267.18
421.561	1371.63
421.769	1406.44
421.977	1406.44
422.185	1361.39
422.393	1496.55
422.601	1609.19
422.809	1633.77
423.017	1578.47
423.224	1635.82
423.432	1760.74
423.64	1770.98
423.848	1951.2
424.056	1955.3
424.263	2012.64
424.471	2033.12
424.679	2063.84
424.887	2246.11
425.094	2186.72
425.302	2088.42
425.51	2274.78
425.718	2373.08
425.925	2467.29
426.133	2573.78
426.341	2604.5
426.548	2690.52
426.756	2764.25
426.964	2799.06
427.171	2977.23
427.379	2979.28
427.586	3077.59
427.794	3186.13
428.001	3282.38
428.209	3429.84
428.417	3489.23
428.624	3646.92
428.832	3601.87
429.039	3505.61
429.247	3716.55
429.454	3931.59
429.662	4208.06
429.869	4085.19
430.076	4142.53
430.284	4179.39
430.491	4285.89
430.699	4574.65
430.906	4576.7
431.114	4558.27
431.321	4744.63
431.528	4857.27
431.736	5180.85
431.943	5365.17
432.15	5291.44
432.358	5303.73
432.565	5627.31
432.772	5547.44
432.979	5944.74
433.187	5813.67
433.394	6104.48
433.601	6376.86
433.808	6354.34
434.016	6483.36
434.223	6714.78
434.43	7105.94
434.637	7101.84
434.844	7396.75
435.052	7462.29
435.259	7439.76
435.466	7474.57
435.673	7433.61
435.88	7867.78
436.087	8273.28
436.294	8351.1
436.501	8123.78
436.708	8367.49
436.915	8672.64
437.122	8996.21
437.329	8904.06
437.537	9475.44
437.743	9475.44
437.95	9319.79
438.157	9846.12
438.364	10184.04
438.571	10247.52
438.778	10233.19
438.985	11246.93
439.192	10628.45
439.399	11025.75
439.606	10857.82
439.813	11449.68
440.02	12211.53
440.227	11781.45
440.433	11728.21
440.64	12277.06
440.847	12305.73
441.054	12205.38
441.261	13071.67
441.467	13049.14
441.674	13251.89
441.881	13663.54
442.088	13677.87
442.294	13526.32
442.501	13843.76
442.708	14167.34
442.914	14716.19
443.121	15271.19
443.328	14910.75
443.534	16071.95
443.741	15586.58
443.948	15426.84
444.154	16803.07
444.361	16301.32
444.568	16452.87
444.774	16596.23
444.981	16893.18
445.187	17421.56
445.394	17925.36
445.6	17814.77
445.807	19164.38
446.013	18629.86
446.22	18752.74
446.426	19674.32
446.633	19711.19
446.839	20186.32
447.046	19315.93
447.252	20569.29
447.459	20724.93
447.665	20675.78
447.871	21640.37
448.078	22584.49
448.284	21284.03
448.491	21630.13
448.697	22707.37
448.903	23190.69
449.11	23274.65
449.316	22750.37
449.522	23278.75
449.728	23874.71
449.935	23962.77
450.141	24325.26
450.347	24646.79
450.553	23870.61
450.76	23868.56
450.966	24841.35
451.172	24534.15
451.378	24892.55
451.584	24863.88
451.791	25425.02
451.997	25152.64
452.203	25619.58
452.409	25484.41
452.615	25539.71
452.821	24165.52
453.027	24190.09
453.233	25324.67
453.44	24908.93
453.646	24878.21
453.852	24863.88
454.058	25158.78
454.264	24370.32
454.47	24872.07
454.676	24136.85
454.882	25300.09
455.088	22998.18
455.294	23317.66
455.5	23415.96
455.705	23850.13
455.911	22801.57
456.117	22279.34
456.323	22222
456.529	20759.75
456.735	21718.2
456.941	21298.36
457.147	21120.19
457.352	20292.81
457.558	20083.92
457.764	20169.93
457.97	19588.31
458.176	19475.67
458.381	19377.37
458.587	18476.26
458.793	18705.63
458.999	17366.26
459.204	18808.03
459.41	18078.96
459.616	17169.66
459.821	16964.86
460.027	17163.51
460.233	16375.05
460.438	15924.49
460.644	15727.89
460.85	15256.86
461.055	15011.1
461.261	15072.54
461.466	13712.69
461.672	13468.98
461.878	14427.43
462.083	13532.47
462.289	13184.31
462.494	12864.83
462.7	12457.28
462.905	11924.81
463.111	12453.19
463.316	12684.61
463.522	12164.42
463.727	12395.84
463.932	12412.23
464.138	12164.42
464.343	12115.27
464.549	12107.08
464.754	12539.2
464.959	12244.29
465.165	12150.09
465.37	11560.27
465.575	11470.16
465.781	11826.51
465.986	11814.22
466.191	11357.52
466.397	11265.36
466.602	10546.53
466.807	11015.51
467.012	11201.88
467.218	10952.02
467.423	10949.98
467.628	10958.17
467.833	11474.26
468.038	10970.46
468.244	10704.22
468.449	11033.94
468.654	10827.1
468.859	10542.43
469.064	10550.62
469.269	10212.71
469.474	10274.15
469.679	10409.31
469.885	10198.37
470.09	10282.34
470.295	10100.07
470.5	9932.14
470.705	9907.56
470.91	9817.45
471.115	9473.39
471.32	9782.63
471.525	9764.2
471.73	9467.25
471.935	9590.13
472.139	9196.92
472.344	9319.79
472.549	9323.89
472.754	9145.72
472.959	8959.35
473.164	8582.53
473.369	8566.14
473.574	8918.39
473.778	8768.89
473.983	8736.12
474.188	8783.23
474.393	8312.19
474.598	8306.05
474.802	8287.62
475.007	8285.57
475.212	8285.57
475.417	8035.72
475.621	8068.48
475.826	8054.15
476.031	7914.89
476.235	7699.85
476.44	7878.02
476.645	7685.51
476.849	7601.55
477.054	7366.03
477.259	7394.7
477.463	7452.05
477.668	7286.16
477.872	7347.6
478.077	7216.53
478.282	7232.91
478.486	7126.42
478.691	6993.3
478.895	7058.84
479.1	6913.43
479.304	7019.92
479.509	6667.67
479.713	6858.14
479.918	6696.35
480.122	6585.76
480.326	6737.31
480.531	6722.97
480.735	6667.67
480.94	6632.86
481.144	6735.26
481.348	6405.53
481.553	6694.3
481.757	6389.15
481.961	6413.73
482.166	6620.57
482.37	6546.84
482.574	6397.34
482.778	6579.61
482.983	6565.28
483.187	6436.25
483.391	6477.21
483.595	6333.86
483.8	6262.18
484.004	6483.36
484.208	6704.54
484.412	6423.97
484.616	6421.92
484.821	6311.33
485.025	6385.05
485.229	6385.05
485.433	6292.9
485.637	6266.27
485.841	6456.73
486.045	6270.37
486.249	6520.22
486.453	6401.44
486.657	6370.72
486.861	6442.4
487.065	6229.41
487.269	6522.27
487.473	6356.38
487.677	6370.72
487.881	6573.47
488.085	6440.35
488.289	6528.41
488.493	6276.51
488.697	6677.91
488.901	6419.87
489.105	6397.34
489.309	6493.6
489.512	6528.41
489.716	6522.27
489.92	6469.02
490.124	6620.57
490.328	6565.28
490.531	6550.94
490.735	6499.74
490.939	6649.24
491.143	6473.12
491.346	6430.11
491.55	6759.83
491.754	6624.67
491.958	6718.87
492.161	6811.03
492.365	6774.17
492.569	6725.02
492.772	6802.84
492.976	6811.03
493.18	6765.98
493.383	6952.34
493.587	6903.19
493.79	7064.98
493.994	6948.25
494.197	7181.71
494.401	7155.09
494.605	7177.62
494.808	7122.32
495.012	7339.41
495.215	7450
495.419	7556.49
495.622	7413.13
495.825	7679.37
496.029	7656.84
496.232	7529.87
496.436	7603.6
496.639	7781.77
496.843	7867.78
497.046	7998.85
497.249	8037.77
497.453	8093.06
497.656	8088.96
497.859	8220.03
498.063	8283.52
498.266	8529.28
498.469	8443.26
498.673	8625.53
498.876	8623.48
499.079	8760.7
499.282	8611.2
499.485	8979.83
499.689	8961.4
499.892	9033.08
500.095	9330.03
500.298	9430.38
500.501	9262.45
500.705	9547.12
500.908	9682.28
501.111	9825.64
501.314	9932.14
501.517	9805.16
501.72	9983.34
501.923	10112.36
502.126	10526.05
502.329	10337.63
502.532	10601.82
502.735	10444.13
502.938	10902.87
503.141	10648.93
503.344	11191.64
503.547	11165.01
503.75	11283.8
503.953	11509.07
504.156	11517.26
504.359	11627.85
504.562	11840.84
504.765	11859.28
504.968	12111.18
505.17	12387.65
505.373	12223.81
505.576	12625.22
505.779	12764.48
505.982	12819.77
506.185	13210.93
506.387	13088.06
506.59	13274.42
506.793	13546.8
506.996	13419.83
507.198	14196.01
507.401	13630.77
507.604	14132.52
507.807	14286.12
508.009	14198.06
508.212	14591.27
508.415	14720.29
508.617	14863.65
508.82	15011.1
509.022	14900.51
509.225	15519
509.428	15428.88
509.63	15621.39
509.833	15811.85
510.035	16217.35
510.238	15889.68
510.44	16266.5
510.643	16557.32
510.845	16745.73
511.048	16848.13
511.25	17128.7
511.453	17222.91
511.655	17521.91
511.858	17675.51
512.06	17810.67
512.262	18076.91
512.465	18048.24
512.667	18478.31
512.87	18664.68
513.072	18867.42
513.274	19129.56
513.477	19102.94
513.679	19535.06
513.881	19737.81
514.084	19840.21
514.286	20061.39
514.488	20145.36
514.69	21009.6
514.893	21034.18
515.095	20989.12
515.297	21167.29
515.499	21138.62
515.701	21523.64
515.904	21728.44
516.106	21920.95
516.308	22371.5
516.51	22768.8
516.712	22676.65
516.914	22842.53
517.116	23100.58
517.318	23409.82
517.52	23514.27
517.722	23954.58
517.925	24009.87
518.127	24200.33
518.329	24419.47
518.531	24425.61
518.733	25343.1
518.935	25150.59
519.136	25449.6
519.338	25832.57
519.54	25937.01
519.742	26250.35
519.944	26098.8
520.146	26526.83
520.348	26719.34
520.55	27163.75
520.752	27208.8
520.954	27614.3
521.155	27681.88
521.357	28134.48
521.559	27991.12
521.761	28326.99
521.963	28685.39
522.164	28908.61
522.366	28929.09
522.568	29236.29
522.77	29525.05
522.971	29965.37
523.173	29666.36
523.375	30073.91
523.576	30231.6
523.778	30282.8
523.98	30661.68
524.181	30641.2
524.383	30958.63
524.584	31548.45
524.786	31376.42
524.988	31665.18
525.189	31906.84
525.391	32021.53
525.592	32463.89
525.794	32508.94
525.995	32373.78
526.197	32642.06
526.398	32482.32
526.6	32730.12
526.801	32799.76
527.003	33657.85
527.204	33133.57
527.406	33522.69
527.607	33643.52
527.808	33985.53
528.01	33461.25
528.211	33625.09
528.412	34333.68
528.614	34087.93
528.815	34130.94
529.016	34698.22
529.218	34518
529.419	34520.05
529.62	34552.82
529.822	34876.4
530.023	34456.56
530.224	34853.87
530.425	34917.36
530.626	34827.24
530.828	34774
531.029	35797.98
531.23	35369.96
531.431	34915.31
531.632	35425.25
531.833	35601.38
532.035	35576.8
532.236	35433.44
532.437	35582.95
532.638	35300.33
532.839	35595.23
533.04	35691.49
533.241	35259.37
533.442	36078.55
533.643	36027.35
533.844	35976.16
534.045	36260.82
534.246	35554.27
534.447	36062.17
534.648	35871.71
534.849	35830.75
535.05	35859.42
535.251	36230.1
535.451	35466.21
535.652	36279.25
535.853	36293.59
536.054	36504.53
536.255	36281.3
536.456	35978.2
536.657	36336.6
536.857	36133.85
537.058	36121.56
537.259	36160.47
537.46	35980.25
537.66	35867.61
537.861	36058.07
538.062	36197.34
538.263	36342.74
538.463	35814.37
538.664	36346.84
538.865	35945.44
539.065	36174.81
539.266	35894.24
539.466	36606.93
539.667	36051.93
539.868	36838.35
540.068	36230.1
540.269	36180.95
540.469	36148.18
540.67	36107.23
540.87	36043.74
541.071	36135.9
541.271	36305.88
541.472	36273.11
541.672	36090.84
541.873	35859.42
542.073	35814.37
542.274	36230.1
542.474	36144.09
542.675	35462.11
542.875	36070.36
543.075	35978.2
543.276	35789.79
543.476	36195.29
543.676	36297.69
543.877	36056.03
544.077	36127.7
544.277	36322.26
544.478	36164.57
544.678	36264.92
544.878	36174.81
545.078	36340.69
545.279	35843.04
545.479	35965.92
545.679	36035.55
545.879	36197.34
546.079	36117.46
546.28	36023.26
546.48	35959.77
546.68	36355.03
546.88	35875.8
547.08	36164.57
547.28	36058.07
547.48	35769.31
547.68	36127.7
547.88	35662.82
548.081	35757.02
548.281	36041.69
548.481	36045.79
548.681	36297.69
548.881	36172.76
549.081	35970.01
549.28	36125.66
549.48	36058.07
549.68	35724.25
549.88	36377.56
550.08	35726.3
550.28	35699.68
550.48	35761.12
550.68	36285.4
550.88	35810.27
551.08	36060.12
551.279	35875.8
551.479	35503.07
551.679	36019.16
551.879	35584.99
552.079	36516.82
552.278	35634.14
552.478	36086.75
552.678	36191.19
552.878	35970.01
553.077	35490.79
553.277	35724.25
553.477	36101.08
553.676	35818.46
553.876	35941.34
554.076	35752.93
554.275	35470.31
554.475	35404.77
554.674	35699.68
554.874	35689.44
555.074	35644.38
555.273	35341.28
555.473	35804.13
555.672	35533.79
555.872	35623.9
556.071	35388.39
556.271	35759.07
556.47	35150.82
556.67	34978.79
556.869	35017.71
557.068	35343.33
557.268	35240.93
557.467	35036.14
557.667	35177.45
557.866	35288.04
558.065	35191.78
558.265	35095.53
558.464	34827.24
558.663	35292.13
558.863	34640.88
559.062	35310.57
559.261	34685.93
559.461	35118.06
559.66	34212.85
559.859	34483.19
560.058	34548.72
560.258	34628.59
560.457	34278.39
560.656	34343.92
560.855	34278.39
561.054	34378.74
561.253	34016.25
561.453	34194.42
561.652	33922.04
561.851	34388.98
562.05	33950.71
562.249	34061.3
562.448	34268.15
562.647	34120.7
562.846	34012.15
563.045	34061.3
563.244	33807.36
563.443	33856.51
563.642	33516.54
563.841	33289.22
564.04	33504.26
564.239	33729.53
564.438	33344.52
564.637	33594.37
564.836	33504.26
565.035	32898.06
565.234	33090.57
565.432	32928.78
565.631	33057.8
565.83	33317.89
566.029	32732.17
566.228	33152.01
566.427	32740.36
566.625	32480.27
566.824	32381.97
567.023	32951.31
567.222	32115.73
567.42	32588.81
567.619	32334.87
567.818	32631.82
568.016	32191.51
568.215	32523.28
568.414	31937.56
568.612	32244.76
568.811	31800.35
569.01	32125.97
569.208	31761.44
569.407	32013.34
569.605	31839.26
569.804	31689.76
570.002	31089.7
570.201	31501.34
570.4	31581.21
570.598	31241.25
570.797	31212.58
570.995	31540.25
571.193	30676.01
571.392	31089.7
571.59	30829.61
571.789	30514.22
571.987	30477.36
572.186	30774.31
572.384	30606.38
572.582	30854.19
572.781	30762.03
572.979	30268.47
573.177	30354.48
573.376	30444.59
573.574	29873.21
573.772	30190.64
573.971	29834.3
574.169	29797.43
574.367	29735.99
574.565	29703.23
574.763	29664.32
574.962	29299.78
575.16	29183.04
575.358	29307.97
575.556	29092.93
575.754	29854.78
575.952	29025.35
576.151	29574.2
576.349	28732.49
576.547	28652.62
576.745	29002.82
576.943	28779.59
577.141	28994.63
577.339	28752.97
577.537	28453.97
577.735	28435.53
577.933	27984.98
578.131	28118.1
578.329	28148.82
578.527	27898.97
578.725	27675.74
578.923	28064.85
579.121	27722.84
579.319	27518.04
579.516	27923.54
579.714	27638.87
579.912	27552.86
580.11	27561.05
580.308	27360.35
580.506	27223.14
580.704	27020.39
580.901	27249.76
581.099	27223.14
581.297	26877.03
581.495	26786.92
581.692	26995.81
581.89	26682.47
582.088	26868.84
582.285	26438.76
582.483	26694.76
582.681	26543.21
582.878	26326.13
583.076	26172.53
583.274	26297.45
583.471	25732.22
583.669	26231.92
583.866	26213.49
584.064	26059.89
584.262	25717.88
584.459	25601.15
584.657	25601.15
584.854	25527.42
585.052	25271.42
585.249	25566.33
585.447	25322.62
585.644	25388.16
585.841	25398.4
586.039	25261.18
586.236	25080.96
586.434	24865.92
586.631	25050.24
586.828	24798.34
587.026	24935.56
587.223	25048.19
587.42	24341.64
587.618	24896.64
587.815	24454.28
588.012	24431.76
588.21	24448.14
588.407	24718.47
588.604	24173.71
588.801	23989.39
588.999	24243.34
589.196	23921.81
589.393	24061.07
589.59	24048.79
589.787	23975.06
589.984	23587.99
590.182	23635.1
590.379	23719.06
590.576	23475.35
590.773	23647.38
590.97	23377.05
591.167	23456.92
591.364	23264.41
591.561	23086.24
591.758	22996.13
591.955	23116.96
592.152	23340.19
592.349	23121.06
592.546	23035.04
592.743	22887.59
592.94	22498.47
593.137	22781.09
593.334	22490.28
593.531	22301.87
593.727	22555.82
593.924	22338.73
594.121	22230.19
594.318	22500.52
594.515	21953.71
594.712	22213.81
594.908	22029.49
595.105	22215.85
595.302	21941.43
595.499	21877.94
595.696	21908.66
595.892	21742.77
596.089	22078.64
596.286	22228.14
596.482	21615.8
596.679	21667
596.876	21601.46
597.072	21787.83
597.269	21374.14
597.466	21349.56
597.662	21171.39
597.859	21429.43
598.055	21230.78
598.252	21238.97
598.448	21048.51
598.645	20860.1
598.841	20939.97
599.038	20821.19
599.234	20876.48
599.431	20542.66
599.627	20798.66
599.824	20833.47
600.02	20518.09
600.217	20493.51
600.413	20380.87
600.609	20274.38
600.806	20169.93
601.002	20276.43
601.198	20276.43
601.395	19623.12
601.591	20040.91
601.787	20088.01
601.984	20016.33
602.18	19870.93
602.376	19735.76
602.572	19694.8
602.769	19588.31
602.965	19465.43
603.161	19684.56
603.357	19428.57
603.553	19436.76
603.75	19291.35
603.946	19080.41
604.142	19178.72
604.338	18746.59
604.534	19031.26
604.73	19025.12
604.926	18842.85
605.122	18785.51
605.318	18885.86
605.514	18660.58
605.71	18595.04
605.906	18679.01
606.102	18572.52
606.298	18564.32
606.494	18396.39
606.69	18482.41
606.886	18652.39
607.082	18220.27
607.278	18169.07
607.474	17960.17
607.67	18078.96
607.866	17929.45
608.062	17925.36
608.257	18062.57
608.453	17951.98
608.649	17861.87
608.845	17937.65
609.041	17837.3
609.236	17646.83
609.432	17675.51
609.628	17456.37
609.824	17452.28
610.019	17317.11
610.215	17235.19
610.411	17444.09
610.606	17358.07
610.802	17298.68
610.998	17179.9
611.193	17120.51
611.389	17122.55
611.584	17016.06
611.78	16829.7
611.976	16872.7
612.171	16872.7
612.367	16995.58
612.562	16641.28
612.758	16653.57
612.953	16719.1
613.149	16717.06
613.344	16463.11
613.539	17009.92
613.735	16649.47
613.93	16762.11
614.126	16502.02
614.321	16698.63
614.517	16495.88
614.712	16319.75
614.907	16270.6
615.103	16436.49
615.298	16221.45
615.493	16561.41
615.688	16035.08
615.884	16409.86
616.079	16047.37
616.274	16274.7
616.47	16256.26
616.665	15940.88
616.86	15998.22
617.055	15959.31
617.25	15904.01
617.445	15885.58
617.641	15729.94
617.836	16030.99
618.031	15736.08
618.226	15424.79
618.421	15555.86
618.616	15537.43
618.811	15387.93
619.006	15410.45
619.201	15133.98
619.396	15144.22
619.591	14843.17
619.786	15090.97
619.981	14802.21
620.176	14986.52
620.371	14619.94
620.566	14699.81
620.761	14808.35
620.956	14845.21
621.151	14419.24
621.346	14357.8
621.541	14343.46
621.735	14425.38
621.93	14071.08
622.125	14275.88
622.32	13862.19
622.515	14034.22
622.709	14017.83
622.904	13952.3
623.099	13966.63
623.294	13665.58
623.488	13983.02
623.683	13690.16
623.878	13344.05
624.072	13661.49
624.267	13442.35
624.462	13530.42
624.656	13374.77
624.851	13086.01
625.046	13190.45
625.24	13108.54
625.435	12838.2
625.629	12907.84
625.824	12799.29
626.018	12772.67
626.213	12739.9
626.407	12737.85
626.602	12447.04
626.796	12588.35
626.991	12324.16
627.185	12545.34
627.38	12199.24
627.574	12350.79
627.768	12170.57
627.963	12240.2
628.157	12004.68
628.352	12137.8
628.546	11855.18
628.74	12037.45
628.935	12072.26
629.129	11820.36
629.323	11724.11
629.517	11550.03
629.712	11873.61
629.906	11597.14
630.1	11271.51
630.294	11476.3
630.489	11459.92
630.683	11416.91
630.877	11095.38
631.071	11269.46
631.265	11287.89
631.459	11111.77
631.653	10968.41
631.848	10814.81
632.042	10579.29
632.236	10941.79
632.43	10700.12
632.624	10802.52
632.818	10575.2
633.012	10468.7
633.206	10384.74
633.4	10655.07
633.594	10405.22
633.788	10362.21
633.982	10503.52
634.176	10388.83
634.369	10227.04
634.563	10165.6
634.757	10048.87
634.951	10372.45
635.145	9936.23
635.339	10161.51
635.533	9917.8
635.726	9815.4
635.92	9805.16
636.114	9997.67
636.308	9852.27
636.501	9821.55
636.695	9743.72
636.889	9698.67
637.083	9563.5
637.276	9399.66
637.47	9520.49
637.664	9411.95
637.857	9346.42
638.051	9235.83
638.244	9313.65
638.438	9110.9
638.632	9178.48
638.825	8949.11
639.019	9172.34
639.212	9074.04
639.406	9106.81
639.599	8906.1
639.793	8992.12
639.986	8643.96
640.18	8801.66
640.373	8689.02
640.567	8467.84
640.76	8531.33
640.954	8443.26
641.147	8512.89
641.34	8277.38
641.534	8603
641.727	8269.19
641.92	8371.58
642.114	8273.28
642.307	8113.54
642.5	8166.79
642.694	8166.79
642.887	7990.66
643.08	8234.37
643.273	8027.53
643.467	7939.46
643.66	7759.24
643.853	7869.83
644.046	7955.85
644.239	7873.93
644.432	7654.8
644.626	7769.48
644.819	7611.79
645.012	7714.19
645.205	7525.77
645.398	7550.35
645.591	7464.33
645.784	7437.71
645.977	7341.46
646.17	7232.91
646.363	7194
646.556	7050.64
646.749	7214.48
646.942	7226.77
647.135	7060.88
647.328	7067.03
647.521	6858.14
647.714	7052.69
647.907	6921.62
648.099	6892.95
648.292	6845.85
648.485	6806.94
648.678	6755.74
648.871	6673.82
649.064	6837.66
649.256	6800.79
649.449	6690.2
649.642	6417.82
649.835	6528.41
650.027	6397.34
650.22	6419.87
650.413	6342.05
650.605	6356.38
650.798	6272.42
650.991	6213.03
651.183	6286.75
651.376	6098.34
651.568	6206.88
651.761	6120.87
651.954	6145.44
652.146	6110.63
652.339	6100.39
652.531	6004.13
652.724	6065.57
652.916	5803.43
653.109	5791.14
653.301	5887.4
653.494	5942.69
653.686	5823.91
653.879	5936.55
654.071	5701.03
654.263	5584.3
654.456	5899.69
654.648	5623.21
654.84	5506.48
655.033	5563.82
655.225	5586.35
655.417	5471.66
655.61	5512.62
655.802	5330.35
655.994	5332.4
656.186	5336.49
656.379	5201.33
656.571	5440.94
656.763	5227.95
656.955	5221.81
657.148	5248.43
657.34	5313.97
657.532	5367.21
657.724	4980.15
657.916	5121.46
658.108	4988.34
658.3	5049.78
658.492	5019.06
658.684	4867.51
658.876	4879.8
659.068	4812.21
659.26	4791.73
659.452	4892.09
659.644	4777.4
659.836	4804.02
660.028	4836.79
660.22	4582.84
660.412	4736.44
660.604	4496.83
660.796	4701.62
660.988	4472.25
661.18	4449.72
661.372	4545.98
661.563	4496.83
661.755	4566.46
661.947	4470.2
662.139	4353.47
662.331	4384.19
662.522	4347.33
662.714	4218.3
662.906	4226.5
663.097	4261.31
663.289	4232.64
663.481	4296.13
663.673	4429.24
663.864	4232.64
664.056	4171.2
664.247	4083.14
664.439	4056.51
664.631	4054.47
664.822	4052.42
665.014	4021.7
665.205	4027.84
665.397	4160.96
665.588	4033.99
665.78	4021.7
665.971	4140.48
666.163	3861.96
666.354	3892.68
666.546	3935.68
666.737	3712.46
666.929	3855.81
667.12	3849.67
667.311	3898.82
667.503	3714.5
667.694	3749.32
667.885	3777.99
668.077	3704.26
668.268	3634.63
668.459	3560.91
668.651	3583.43
668.842	3610.06
669.033	3620.3
669.224	3565
669.416	3542.47
669.607	3620.3
669.798	3530.19
669.989	3517.9
670.18	3450.32
670.371	3608.01
670.563	3421.64
670.754	3421.64
670.945	3526.09
671.136	3392.97
671.327	3376.59
671.518	3339.73
671.709	3419.6
671.9	3440.08
672.091	3407.31
672.282	3405.26
672.473	3284.43
672.664	3300.81
672.855	3354.06
673.046	3253.71
673.237	3284.43
673.428	3155.41
673.619	3208.66
673.809	3206.61
674	3288.53
674.191	3212.75
674.382	3198.42
674.573	3182.03
674.764	3091.92
674.954	3233.23
675.145	3147.22
675.336	3079.63
675.527	3112.4
675.717	3177.94
675.908	3024.34
676.099	3112.4
676.289	3079.63
676.48	2993.62
676.671	3057.11
676.861	3100.11
677.052	3040.72
677.243	2831.83
677.433	2985.43
677.624	3053.01
677.814	2954.71
678.005	2860.5
678.195	2985.43
678.386	2907.6
678.576	2942.42
678.767	2876.88
678.957	2885.08
679.148	2999.76
679.338	2930.13
679.529	3106.26
679.719	2825.68
679.909	2829.78
680.1	2809.3
680.29	2903.51
680.481	2856.4
680.671	2772.44
680.861	2694.61
681.052	2725.33
681.242	2723.29
681.432	2858.45
681.622	2653.66
681.813	2745.81
682.003	2780.63
682.193	2837.97
682.383	2711
682.573	2831.83
682.764	2702.81
682.954	2790.87
683.144	2672.09
683.334	2674.14
683.524	2770.39
683.714	2762.2
683.904	2586.07
684.094	2729.43
684.284	2584.02
684.474	2598.36
684.664	2573.78
684.854	2682.33
685.044	2522.59
685.234	2559.45
685.424	2600.41
685.614	2702.81
685.804	2541.02
685.994	2649.56
686.184	2627.03
686.374	2575.83
686.564	2629.08
686.753	2516.44
686.943	2635.22
687.133	2498.01
687.323	2514.39
687.513	2483.67
687.702	2532.83
687.892	2579.93
688.082	2479.58
688.272	2651.61
688.461	2512.35
688.651	2614.74
688.841	2573.78
689.03	2508.25
689.22	2493.91
689.41	2436.57
689.599	2559.45
689.789	2487.77
689.979	2469.34
690.168	2444.76
690.358	2485.72
690.547	2426.33
690.737	2473.43
690.926	2399.71
691.116	2581.98
691.305	2459.1
691.495	2471.39
691.684	2416.09
691.874	2543.07
692.063	2358.75
692.252	2541.02
692.442	2487.77
692.631	2360.8
692.82	2491.87
693.01	2444.76
693.199	2444.76
693.388	2328.03
693.578	2360.8
693.767	2434.52
693.956	2407.9
694.146	2381.28
694.335	2412
694.524	2270.69
694.713	2338.27
694.902	2321.88
695.092	2407.9
695.281	2412
695.47	2299.36
695.659	2325.98
695.848	2311.64
696.037	2399.71
696.226	2297.31
696.415	2368.99
696.604	2424.28
696.793	2342.36
696.982	2448.86
697.171	2383.32
697.36	2457.05
697.549	2405.85
697.738	2319.84
697.927	2219.49
698.116	2303.45
698.305	2416.09
698.494	2325.98
698.683	2416.09
698.872	2465.24
699.061	2338.27
699.25	2348.51
699.438	2393.56
699.627	2170.33
699.816	2291.17
700.005	2346.46
700.193	2285.02
700.382	2366.94
700.571	2336.22
700.76	2391.52
700.948	2358.75
701.137	2278.88
701.326	2285.02
701.514	2305.5
701.703	2272.73
701.892	2362.84
702.08	2231.77
702.269	2401.76
702.457	2362.84
702.646	2262.49
702.834	2194.91
703.023	2254.3
703.212	2229.73
703.4	2293.21
703.589	2256.35
703.777	2231.77
703.965	2252.25
704.154	2231.77
704.342	2182.62
704.531	2248.16
704.719	2127.33
704.907	2250.21
705.096	2235.87
705.284	2217.44
705.472	2268.64
705.661	2196.96
705.849	2201.05
706.037	2199.01
706.226	2248.16
706.414	2239.97
706.602	2172.38
706.79	2137.57
706.979	2203.1
707.167	2235.87
707.355	2065.89
707.543	2139.62
707.731	2180.57
707.919	1955.3
708.107	2033.12
708.296	2104.8
708.484	2127.33
708.672	2133.47
708.86	2006.5
709.048	2160.1
709.236	2072.03
709.424	2045.41
709.612	2110.94
709.8	2135.52
709.988	2074.08
710.176	2004.45
710.364	2055.65
710.551	2106.85
710.739	2039.26
710.927	2035.17
711.115	2000.35
711.303	1979.87
711.491	1981.92
711.679	1988.07
711.866	2065.89
712.054	1988.07
712.242	1953.25
712.43	1967.59
712.617	2020.83
712.805	1930.72
712.993	1949.15
713.181	1965.54
713.368	1943.01
713.556	2039.26
713.744	1965.54
713.931	1922.53
714.119	1869.28
714.306	1865.19
714.494	1881.57
714.682	1979.87
714.869	1857
715.057	1928.67
715.244	1820.13
715.432	1854.95
715.619	1908.19
715.807	1885.67
715.994	1820.13
716.182	1820.13
716.369	1881.57
716.556	1807.84
716.744	1818.08
716.931	1895.91
717.119	1891.81
717.306	1803.75
717.493	1770.98
717.681	1762.79
717.868	1768.93
718.055	1756.65
718.242	1773.03
718.43	1723.88
718.617	1775.08
718.804	1695.21
718.991	1697.25
719.179	1713.64
719.366	1701.35
719.553	1703.4
719.74	1811.94
719.927	1709.54
720.114	1615.34
720.301	1676.77
720.488	1588.71
720.676	1732.07
720.863	1623.53
721.05	1607.14
721.237	1668.58
721.424	1658.34
721.611	1680.87
721.798	1596.9
721.985	1641.96
722.172	1668.58
722.358	1584.62
722.545	1486.31
722.732	1598.95
722.919	1592.81
723.106	1646.05
723.293	1535.46
723.48	1598.95
723.667	1570.28
723.853	1508.84
724.04	1463.79
724.227	1572.33
724.414	1572.33
724.6	1523.18
724.787	1474.03
724.974	1590.76
725.161	1541.61
725.347	1537.51
725.534	1566.18
725.72	1486.31
725.907	1445.35
726.094	1486.31
726.28	1465.83
726.467	1369.58
726.653	1451.5
726.84	1519.08
727.027	1478.12
727.213	1453.55
727.4	1392.11
727.586	1523.18
727.773	1435.11
727.959	1465.83
728.145	1408.49
728.332	1367.53
728.518	1416.68
728.705	1385.96
728.891	1357.29
729.077	1332.72
729.264	1416.68
729.45	1379.82
729.636	1410.54
729.823	1326.57
730.009	1359.34
730.195	1406.44
730.382	1414.63
730.568	1392.11
730.754	1408.49
730.94	1439.21
731.126	1342.96
731.313	1363.44
731.499	1240.56
731.685	1381.87
731.871	1381.87
732.057	1326.57
732.243	1222.13
732.429	1324.52
732.615	1340.91
732.801	1250.8
732.987	1326.57
733.173	1332.72
733.359	1281.52
733.545	1338.86
733.731	1205.74
733.917	1342.96
734.103	1160.69
734.289	1367.53
734.475	1277.42
734.661	1304.04
734.847	1199.6
735.033	1316.33
735.219	1279.47
735.404	1289.71
735.59	1324.52
735.776	1256.94
735.962	1242.61
736.148	1258.99
736.333	1170.93
736.519	1261.04
736.705	1299.95
736.89	1244.65
737.076	1242.61
737.262	1211.89
737.447	1226.22
737.633	1150.45
737.819	1197.55
738.004	1273.32
738.19	1148.4
738.375	1170.93
738.561	1144.3
738.747	1113.58
738.932	1144.3
739.118	1187.31
739.303	1117.68
739.489	1105.39
739.674	1152.49
739.859	1062.38
740.045	1185.26
740.23	1138.16
740.416	1154.54
740.601	1144.3
740.786	1089.01
740.972	1175.02
741.157	1052.14
741.342	1117.68
741.528	1046
741.713	1091.06
741.898	1007.09
742.084	1070.58
742.269	1113.58
742.454	1039.86
742.639	1064.43
742.824	1062.38
743.01	1095.15
743.195	1017.33
743.38	1074.67
743.565	955.89
743.75	1101.3
743.935	970.23
744.12	1039.86
744.305	998.9
744.49	980.47
744.675	992.75
744.86	935.41
745.045	1015.28
745.23	1002.99
745.415	1048.05
745.6	1041.9
745.785	974.32
745.97	933.36
746.155	1046
746.34	921.07
746.525	896.5
746.71	906.74
746.895	888.31
747.079	968.18
747.264	912.88
747.449	886.26
747.634	968.18
747.819	933.36
748.003	835.06
748.188	873.97
748.373	853.49
748.557	837.11
748.742	929.27
748.927	908.79
749.111	898.55
749.296	910.83
749.481	849.4
749.665	820.72
749.85	919.03
750.034	835.06
750.219	851.44
750.404	828.92
750.588	892.4
750.773	830.96
750.957	808.44
751.141	736.76
751.326	867.83
751.51	763.38
751.695	751.09
751.879	755.19
752.064	773.62
752.248	761.33
752.432	763.38
752.617	818.68
752.801	833.01
752.985	751.09
753.17	800.24
753.354	677.37
753.538	697.85
753.722	706.04
753.907	679.41
754.091	763.38
754.275	810.48
754.459	818.68
754.643	802.29
754.828	759.28
755.012	699.89
755.196	658.93
755.38	769.52
755.564	755.19
755.748	771.57
755.932	749.04
756.116	646.65
756.3	652.79
756.484	740.85
756.668	677.37
756.852	660.98
757.036	732.66
757.22	679.41
757.404	654.84
757.588	613.88
757.772	624.12
757.956	583.16
758.14	620.02
758.323	689.65
758.507	607.73
758.691	640.5
758.875	605.69
759.059	574.97
759.242	665.08
759.426	650.74
759.61	644.6
759.794	564.73
759.977	542.2
760.161	679.41
760.345	632.31
760.528	556.54
760.712	597.49
760.895	507.38
761.079	603.64
761.263	507.38
761.446	531.96
761.63	611.83
761.813	521.72
761.997	574.97
762.18	509.43
762.364	538.1
762.547	501.24
762.731	597.49
762.914	505.34
763.098	556.54
763.281	552.44
763.464	538.1
763.648	609.78
763.831	538.1
764.015	552.44
764.198	499.19
764.381	603.64
764.564	572.92
764.748	515.58
764.931	540.15
765.114	478.71
765.297	503.29
765.481	468.47
765.664	552.44
765.847	507.38
766.03	497.14
766.213	439.8
766.397	499.19
766.58	552.44
766.763	556.54
766.946	456.19
767.129	509.43
767.312	464.38
767.495	556.54
767.678	591.35
767.861	470.52
768.044	491
768.227	474.62
768.41	452.09
768.593	447.99
768.776	517.62
768.959	507.38
769.142	505.34
769.324	568.82
769.507	474.62
769.69	452.09
769.873	445.95
770.056	466.42
770.239	452.09
770.421	501.24
770.604	409.08
770.787	466.42
770.97	513.53
771.152	411.13
771.335	503.29
771.518	488.95
771.7	439.8
771.883	507.38
772.066	454.14
772.248	425.47
772.431	482.81
772.613	474.62
772.796	386.55
772.978	447.99
773.161	462.33
773.343	439.8
773.526	454.14
773.708	443.9
773.891	417.27
774.073	394.75
774.256	445.95
774.438	423.42
774.621	413.18
774.803	376.31
774.985	380.41
775.168	419.32
775.35	452.09
775.532	404.99
775.715	435.71
775.897	390.65
776.079	464.38
776.261	388.6
776.444	370.17
776.626	407.03
776.808	361.98
776.99	407.03
777.173	380.41
777.355	359.93
777.537	368.12
777.719	347.64
777.901	331.26
778.083	306.68
778.265	337.4
778.447	359.93
778.629	341.5
778.811	357.88
778.993	294.4
779.175	378.36
779.357	431.61
779.539	370.17
779.721	384.51
779.903	361.98
780.085	341.5
780.267	355.83
780.449	316.92
780.631	380.41
780.812	323.07
780.994	343.55
781.176	245.24
781.358	247.29
781.54	284.16
781.721	351.74
781.903	269.82
782.085	347.64
782.267	345.59
782.448	251.39
782.63	288.25
782.812	245.24
782.993	255.48
783.175	302.59
783.357	239.1
783.538	331.26
783.72	177.66
783.901	251.39
784.083	208.38
784.264	351.74
784.446	294.4
784.627	245.24
784.809	310.78
784.99	265.72
785.172	284.16
785.353	321.02
785.535	396.79
785.716	282.11
785.897	337.4
786.079	306.68
786.26	251.39
786.441	284.16
786.623	298.49
786.804	241.15
786.985	196.09
787.167	204.28
787.348	265.72
787.529	241.15
787.71	175.61
787.891	226.81
788.073	151.04
788.254	294.4
788.435	247.29
788.616	237.05
788.797	237.05
788.978	157.18
789.159	214.52
789.34	312.83
789.522	239.1
789.703	187.9
789.884	161.28
790.065	175.61
790.246	206.33
790.427	222.72
790.607	187.9
790.788	259.58
790.969	220.67
791.15	239.1
791.331	194.05
791.512	210.43
791.693	140.8
791.874	175.61
792.054	185.85
792.235	243.2
792.416	198.14
792.597	206.33
792.778	192
792.958	216.57
793.139	132.61
793.32	206.33
793.5	101.89
793.681	196.09
793.862	204.28
794.042	157.18
794.223	194.05
794.404	187.9
794.584	114.17
794.765	169.47
794.945	144.89
795.126	146.94
795.306	167.42
795.487	251.39
795.667	181.76
795.848	126.46
796.028	155.13
796.209	175.61
796.389	198.14
796.57	157.18
796.75	216.57
796.93	183.81
797.111	173.57
797.291	181.76
797.471	148.99
797.652	148.99
797.832	161.28
798.012	212.48
798.192	208.38
798.373	110.08
798.553	159.23
798.733	151.04
798.913	179.71
799.093	202.24
799.274	130.56
799.454	208.38
799.634	228.86
799.814	204.28
799.994	103.93
800.174	169.47
800.354	87.55
800.534	142.85
800.714	73.21
800.894	206.33
801.074	128.51
801.254	122.37
801.434	161.28
801.614	194.05
801.794	93.69
801.974	329.21
802.154	183.81
802.334	122.37
802.514	87.55
802.693	91.65
802.873	83.45
803.053	138.75
803.233	146.94
803.413	202.24
803.592	101.89
803.772	134.65
803.952	118.27
804.131	126.46
804.311	79.36
804.491	173.57
804.67	148.99
804.85	146.94
805.03	140.8
805.209	75.26
805.389	124.41
805.568	185.85
805.748	132.61
805.928	69.12
806.107	89.6
806.287	157.18
806.466	118.27
806.646	171.52
806.825	38.4
807.004	56.83
807.184	83.45
807.363	89.6
807.543	65.02
807.722	128.51
807.901	79.36
808.081	163.33
808.26	71.17
808.439	181.76
808.619	138.75
808.798	15.87
808.977	52.74
809.156	93.69
809.336	91.65
809.515	146.94
809.694	38.4
809.873	89.6
810.052	40.45
810.231	99.84
810.411	65.02
810.59	132.61
810.769	40.45
810.948	124.41
811.127	148.99
811.306	91.65
811.485	75.26
811.664	87.55
811.843	114.17
812.022	136.7
812.201	110.08
812.38	83.45
812.559	73.21
812.737	159.23
812.916	91.65
813.095	140.8
813.274	54.78
813.453	5.63
813.632	22.02
813.811	81.41
813.989	-18.94
814.168	112.13
814.347	15.87
814.526	83.45
814.704	136.7
814.883	134.65
815.062	81.41
815.24	75.26
815.419	83.45
815.598	110.08
815.776	48.64
815.955	93.69
816.133	40.45
816.312	38.4
816.49	108.03
816.669	122.37
816.847	28.16
817.026	32.26
817.204	19.97
817.383	183.81
817.561	28.16
817.74	116.22
817.918	13.82
818.097	46.59
818.275	130.56
818.453	97.79
818.632	69.12
818.81	105.98
818.988	26.11
819.167	46.59
819.345	73.21
819.523	28.16
819.701	24.06
819.879	28.16
820.058	54.78
820.236	105.98
820.414	38.4
820.592	56.83
820.77	93.69
820.948	19.97
821.127	-27.14
821.305	34.3
821.483	71.17
821.661	75.26
821.839	62.98
822.017	69.12
822.195	75.26
822.373	40.45
822.551	40.45
822.729	58.88
822.907	50.69
823.085	91.65
823.262	136.7
823.44	148.99
823.618	32.26
823.796	73.21
823.974	91.65
824.152	15.87
824.329	67.07
824.507	85.5
824.685	9.73
824.863	99.84
825.04	42.5
825.218	81.41
825.396	87.55
825.574	-16.9
825.751	9.73
825.929	73.21
826.107	50.69
826.284	30.21
826.462	26.11
826.639	56.83
826.817	30.21
826.994	95.74
827.172	34.3
827.349	77.31
827.527	38.4
827.704	108.03
827.882	13.82
828.059	28.16
828.237	19.97
828.414	22.02
828.591	69.12
828.769	26.11
828.946	19.97
829.124	34.3
829.301	58.88
829.478	73.21
829.655	60.93
829.833	58.88
830.01	-0.51
830.187	19.97
830.364	5.63
830.542	44.54
830.719	89.6
830.896	75.26
831.073	19.97
831.25	87.55
831.427	28.16
831.604	105.98
831.782	56.83
831.959	60.93
832.136	5.63
832.313	-27.14
832.49	60.93
832.667	30.21
832.844	56.83
833.021	34.3
833.198	28.16
833.374	52.74
833.551	-0.51
833.728	50.69
833.905	56.83
834.082	110.08
834.259	-2.56
834.436	3.58
834.612	13.82
834.789	73.21
834.966	-4.61
835.143	81.41
835.319	95.74
835.496	38.4
835.673	42.5
835.85	28.16
836.026	28.16
836.203	30.21
836.38	22.02
836.556	42.5
836.733	-18.94
836.909	146.94
837.086	34.3
837.262	28.16
837.439	11.78
837.616	26.11
837.792	54.78
837.968	-10.75
838.145	13.82
838.321	11.78
838.498	26.11
838.674	56.83
838.851	48.64
839.027	54.78
839.203	77.31
839.38	17.92
839.556	65.02
839.732	-27.14
839.909	28.16
840.085	-31.23
840.261	-25.09
840.437	40.45
840.614	13.82
840.79	91.65
840.966	30.21
841.142	30.21
841.318	62.98
841.494	75.26
841.671	22.02
841.847	-16.9
842.023	-14.85
842.199	30.21
842.375	-0.51
842.551	77.31
842.727	9.73
842.903	56.83
843.079	5.63
843.255	26.11
843.431	-31.23
843.607	105.98
843.783	22.02
843.959	34.3
844.134	-33.28
844.31	58.88
844.486	124.41
844.662	73.21
844.838	38.4
845.013	46.59
845.189	50.69
845.365	48.64
845.541	1.54
845.716	38.4
845.892	50.69
846.068	38.4
846.244	24.06
846.419	71.17
846.595	-4.61
846.77	9.73
846.946	19.97
847.122	40.45
847.297	22.02
847.473	105.98
847.648	7.68
847.824	95.74
847.999	13.82
848.175	34.3
848.35	9.73
848.526	60.93
848.701	26.11
848.876	46.59
849.052	22.02
849.227	87.55
849.403	-12.8
849.578	38.4
849.753	-10.75
849.929	15.87
850.104	93.69
850.279	69.12
850.454	28.16
850.63	3.58
850.805	22.02
850.98	9.73
851.155	85.5
851.33	85.5
851.505	50.69
851.681	85.5
851.856	71.17
852.031	3.58
852.206	-4.61
852.381	-10.75
852.556	46.59
852.731	56.83
852.906	87.55
853.081	-6.66
853.256	19.97
853.431	-14.85
853.606	17.92
853.781	26.11
853.956	-51.71
854.131	62.98
854.305	32.26
854.48	-4.61
854.655	-2.56
854.83	44.54
855.005	11.78
855.18	-6.66
855.354	87.55
855.529	-14.85
855.704	-6.66
855.879	-0.51
856.053	62.98
856.228	17.92
856.403	-4.61
856.577	40.45
856.752	7.68
856.926	34.3
857.101	65.02
857.276	32.26
857.45	-23.04
857.625	97.79
857.799	-14.85
857.974	-0.51
858.148	22.02
858.323	58.88
858.497	28.16
858.672	42.5
858.846	38.4
859.02	28.16
859.195	58.88
859.369	9.73
859.543	19.97
859.718	42.5
859.892	58.88
860.066	38.4
860.241	9.73
860.415	-20.99
860.589	-2.56
860.763	44.54
860.938	-8.7
861.112	30.21
861.286	-51.71
861.46	54.78
861.634	-25.09
861.808	62.98
861.982	30.21
862.157	44.54
862.331	46.59
862.505	9.73
862.679	-12.8
862.853	56.83
863.027	-2.56
863.201	-49.66
863.375	13.82
863.549	60.93
863.722	-35.33
863.896	79.36
864.07	-64
864.244	58.88
864.418	26.11
864.592	7.68
864.766	24.06
864.939	11.78
865.113	-0.51
865.287	-27.14
865.461	7.68
865.634	17.92
865.808	5.63
865.982	11.78
866.156	-8.7
866.329	48.64
866.503	56.83
866.676	44.54
866.85	-10.75
867.024	54.78
867.197	-27.14
867.371	-14.85
867.544	5.63
867.718	65.02
867.891	-8.7
868.065	-29.18
868.238	48.64
868.412	79.36
868.585	-33.28
868.759	54.78
868.932	26.11
869.105	-33.28
869.279	3.58
869.452	40.45
869.625	-43.52
869.799	19.97
869.972	7.68
870.145	1.54
870.319	-31.23
870.492	48.64
870.665	3.58
870.838	-23.04
871.011	32.26
871.185	-0.51
871.358	-14.85
871.531	9.73
871.704	46.59
871.877	97.79
872.05	-29.18
872.223	50.69
872.396	48.64
872.569	22.02
872.742	5.63
872.915	-27.14
873.088	9.73
873.261	38.4
873.434	54.78
873.607	44.54
873.78	56.83
873.953	26.11
874.126	5.63
874.299	22.02
874.471	13.82
874.644	-8.7
874.817	34.3
874.99	-14.85
875.163	-33.28
875.335	-0.51
875.508	15.87
875.681	75.26
875.853	11.78
876.026	-23.04
876.199	-0.51
876.371	15.87
876.544	7.68
876.717	-27.14
876.889	36.35
877.062	38.4
877.234	56.83
877.407	108.03
877.579	1.54
877.752	46.59
877.924	65.02
878.097	67.07
878.269	-43.52
878.442	44.54
878.614	11.78
878.786	1.54
878.959	34.3
879.131	-10.75
879.303	-4.61
879.476	13.82
879.648	-25.09
879.82	60.93
879.993	-57.86
880.165	-25.09
880.337	-43.52
880.509	3.58
880.681	3.58
880.854	19.97
881.026	5.63
881.198	-23.04
881.37	50.69
881.542	83.45
881.714	40.45
881.886	-2.56
882.058	56.83
882.23	-2.56
882.402	-41.47
882.574	42.5
882.746	48.64
882.918	15.87
883.09	30.21
883.262	42.5
883.434	-12.8
883.606	19.97
883.778	15.87
883.95	15.87
884.122	-49.66
884.293	-18.94
884.465	11.78
884.637	15.87
884.809	-6.66
884.98	28.16
885.152	67.07
885.324	-4.61
885.496	-18.94
885.667	32.26
885.839	17.92
886.011	26.11
886.182	-47.62
886.354	22.02
886.525	34.3
886.697	36.35
886.869	-14.85
887.04	24.06
887.212	11.78
887.383	58.88
887.555	52.74
887.726	60.93
887.897	-29.18
888.069	-12.8
888.24	-33.28
888.412	-31.23
888.583	15.87
888.754	40.45
888.926	46.59
889.097	26.11
889.268	15.87
889.44	-0.51
889.611	-59.9
889.782	40.45
889.953	-6.66
890.125	32.26
890.296	-8.7
890.467	-27.14
890.638	-6.66
890.809	-12.8
890.98	-0.51
891.151	-29.18
891.323	-45.57
891.494	-6.66
891.665	-14.85
891.836	-86.53
892.007	1.54
892.178	103.93
892.349	-23.04
892.52	46.59
892.691	81.41
892.862	48.64
893.032	7.68
893.203	-18.94
893.374	65.02
893.545	67.07
893.716	9.73
893.887	-0.51
894.057	13.82
894.228	50.69
894.399	1.54
894.57	36.35
894.74	-16.9
894.911	-0.51
895.082	-33.28
895.253	3.58
895.423	-16.9
895.594	-14.85
895.764	-31.23
895.935	46.59
896.106	-18.94
896.276	52.74
896.447	-37.38
896.617	-49.66
896.788	99.84
896.958	40.45
897.129	-41.47
897.299	19.97
897.47	17.92
897.64	13.82
897.81	15.87
897.981	58.88
898.151	-51.71
898.322	42.5
898.492	1.54
898.662	36.35
898.832	-0.51
899.003	5.63
899.173	32.26
899.343	-47.62
899.513	36.35
