Data from USB4F104151__297__14-02-53-435.txt Node

Date: Thu Mar 13 14:02:53 EDT 2025
User: louis
Spectrometer: USB4F10415
Trigger mode: 4
Integration Time (sec): 1.000000E-2
Scans to average: 1
Electric dark correction enabled: true
Nonlinearity correction enabled: false
Boxcar width: 0
XAxis mode: Wavelengths
Number of Pixels in Spectrum: 3648
>>>>>Begin Spectral Data<<<<<
178.204	-88.92
178.424	-88.92
178.644	-88.92
178.864	-60.24
179.084	-15.19
179.304	13.48
179.524	-15.19
179.744	-70.48
179.964	-11.09
180.184	74.92
180.404	-50
180.624	52.39
180.844	5.29
181.064	-35.67
181.283	-17.24
181.503	21.67
181.723	31.91
181.943	-4.95
182.163	74.92
182.383	1.19
182.602	-7
182.822	52.39
183.042	36.01
183.262	19.63
183.482	-2.9
183.701	74.92
183.921	-7
184.141	5.29
184.361	97.45
184.58	3.24
184.8	-23.38
185.02	-56.15
185.239	13.48
185.459	15.53
185.679	-66.39
185.898	-2.9
186.118	31.91
186.338	-17.24
186.557	46.25
186.777	-97.11
186.997	-17.24
187.216	19.63
187.436	-13.14
187.655	9.39
187.875	27.82
188.095	-15.19
188.314	38.06
188.534	-23.38
188.753	9.39
188.973	-2.9
189.192	17.58
189.412	-4.95
189.631	9.39
189.851	-29.52
190.07	-25.43
190.29	42.15
190.509	-41.81
190.729	25.77
190.948	46.25
191.168	50.35
191.387	50.35
191.607	13.48
191.826	23.72
192.045	25.77
192.265	25.77
192.484	-43.86
192.704	25.77
192.923	3.24
193.142	89.26
193.362	33.96
193.581	50.35
193.8	23.72
194.02	-47.96
194.239	46.25
194.458	-0.85
194.678	50.35
194.897	1.19
195.116	5.29
195.335	66.73
195.555	54.44
195.774	38.06
195.993	56.49
196.212	38.06
196.432	-25.43
196.651	19.63
196.87	5.29
197.089	17.58
197.308	-29.52
197.528	-11.09
197.747	42.15
197.966	66.73
198.185	9.39
198.404	74.92
198.623	5.29
198.842	33.96
199.062	40.11
199.281	91.31
199.5	-2.9
199.719	60.59
199.938	-64.34
200.157	17.58
200.376	42.15
200.595	-27.48
200.814	-0.85
201.033	36.01
201.252	19.63
201.471	-0.85
201.69	50.35
201.909	-56.15
202.128	38.06
202.347	-19.29
202.566	74.92
202.785	17.58
203.004	-15.19
203.223	-19.29
203.442	-17.24
203.661	44.2
203.879	1.19
204.098	44.2
204.317	-31.57
204.536	-4.95
204.755	40.11
204.974	-0.85
205.193	66.73
205.411	1.19
205.63	-70.48
205.849	54.44
206.068	29.87
206.287	76.97
206.505	5.29
206.724	-2.9
206.943	-33.62
207.162	-9.05
207.381	50.35
207.599	3.24
207.818	38.06
208.037	-19.29
208.255	3.24
208.474	15.53
208.693	27.82
208.911	33.96
209.13	-15.19
209.349	-23.38
209.567	52.39
209.786	-37.72
210.005	3.24
210.223	52.39
210.442	-4.95
210.661	3.24
210.879	3.24
211.098	40.11
211.316	-64.34
211.535	76.97
211.753	-47.96
211.972	93.35
212.191	9.39
212.409	-9.05
212.628	-9.05
212.846	25.77
213.065	36.01
213.283	-41.81
213.502	-15.19
213.72	70.83
213.938	-43.86
214.157	-0.85
214.375	42.15
214.594	-2.9
214.812	-31.57
215.031	33.96
215.249	25.77
215.467	25.77
215.686	27.82
215.904	54.44
216.122	33.96
216.341	-64.34
216.559	60.59
216.778	52.39
216.996	-7
217.214	11.43
217.432	27.82
217.651	42.15
217.869	60.59
218.087	60.59
218.306	33.96
218.524	74.92
218.742	13.48
218.96	-27.48
219.179	13.48
219.397	19.63
219.615	50.35
219.833	62.63
220.051	-23.38
220.27	7.34
220.488	15.53
220.706	9.39
220.924	21.67
221.142	101.55
221.36	1.19
221.578	58.54
221.796	33.96
222.015	44.2
222.233	25.77
222.451	31.91
222.669	-37.72
222.887	23.72
223.105	-31.57
223.323	-39.76
223.541	50.35
223.759	74.92
223.977	76.97
224.195	50.35
224.413	31.91
224.631	19.63
224.849	-70.48
225.067	25.77
225.285	66.73
225.503	58.54
225.721	-35.67
225.939	-54.1
226.157	74.92
226.375	21.67
226.592	3.24
226.81	-4.95
227.028	52.39
227.246	33.96
227.464	-29.52
227.682	-4.95
227.9	13.48
228.117	33.96
228.335	42.15
228.553	33.96
228.771	50.35
228.989	42.15
229.206	33.96
229.424	21.67
229.642	-21.33
229.86	1.19
230.077	85.16
230.295	48.3
230.513	13.48
230.731	50.35
230.948	19.63
231.166	5.29
231.384	-4.95
231.601	5.29
231.819	19.63
232.037	-37.72
232.254	33.96
232.472	58.54
232.689	-2.9
232.907	-15.19
233.125	-43.86
233.342	27.82
233.56	-21.33
233.777	1.19
233.995	50.35
234.213	44.2
234.43	5.29
234.648	42.15
234.865	36.01
235.083	44.2
235.3	62.63
235.518	46.25
235.735	95.4
235.953	101.55
236.17	-41.81
236.388	48.3
236.605	-33.62
236.822	42.15
237.04	17.58
237.257	-52.05
237.475	-64.34
237.692	44.2
237.909	25.77
238.127	-58.2
238.344	17.58
238.562	64.68
238.779	-23.38
238.996	9.39
239.214	-7
239.431	25.77
239.648	17.58
239.865	-2.9
240.083	5.29
240.3	-23.38
240.517	-50
240.735	-35.67
240.952	50.35
241.169	38.06
241.386	1.19
241.603	46.25
241.821	54.44
242.038	7.34
242.255	9.39
242.472	58.54
242.689	13.48
242.907	42.15
243.124	-25.43
243.341	33.96
243.558	25.77
243.775	-27.48
243.992	31.91
244.209	111.78
244.426	52.39
244.643	23.72
244.86	3.24
245.078	-39.76
245.295	17.58
245.512	29.87
245.729	11.43
245.946	17.58
246.163	15.53
246.38	-13.14
246.597	27.82
246.814	44.2
247.031	23.72
247.248	42.15
247.464	36.01
247.681	38.06
247.898	48.3
248.115	-39.76
248.332	-2.9
248.549	66.73
248.766	9.39
248.983	58.54
249.2	-23.38
249.417	29.87
249.633	76.97
249.85	-27.48
250.067	-0.85
250.284	19.63
250.501	23.72
250.717	85.16
250.934	17.58
251.151	-11.09
251.368	3.24
251.585	17.58
251.801	-11.09
252.018	25.77
252.235	31.91
252.451	70.83
252.668	1.19
252.885	58.54
253.102	9.39
253.318	17.58
253.535	81.07
253.752	66.73
253.968	36.01
254.185	-9.05
254.401	-19.29
254.618	13.48
254.835	-19.29
255.051	42.15
255.268	-29.52
255.484	15.53
255.701	40.11
255.917	40.11
256.134	60.59
256.351	3.24
256.567	1.19
256.784	113.83
257	-66.39
257.217	-15.19
257.433	13.48
257.65	64.68
257.866	13.48
258.082	19.63
258.299	50.35
258.515	72.87
258.732	29.87
258.948	54.44
259.165	64.68
259.381	11.43
259.597	99.5
259.814	56.49
260.03	-0.85
260.246	70.83
260.463	54.44
260.679	9.39
260.895	9.39
261.112	-11.09
261.328	36.01
261.544	95.4
261.761	64.68
261.977	54.44
262.193	19.63
262.409	101.55
262.626	1.19
262.842	-47.96
263.058	-80.72
263.274	-35.67
263.49	23.72
263.707	-2.9
263.923	40.11
264.139	-17.24
264.355	99.5
264.571	23.72
264.787	25.77
265.004	36.01
265.22	66.73
265.436	48.3
265.652	29.87
265.868	-9.05
266.084	1.19
266.3	33.96
266.516	-13.14
266.732	-2.9
266.948	-17.24
267.164	5.29
267.38	70.83
267.596	17.58
267.812	68.78
268.028	17.58
268.244	74.92
268.46	9.39
268.676	50.35
268.892	13.48
269.108	11.43
269.324	-33.62
269.54	3.24
269.756	33.96
269.972	7.34
270.188	-37.72
270.403	-25.43
270.619	50.35
270.835	62.63
271.051	27.82
271.267	42.15
271.483	17.58
271.698	44.2
271.914	62.63
272.13	-29.52
272.346	-27.48
272.562	56.49
272.777	19.63
272.993	-9.05
273.209	29.87
273.425	17.58
273.64	-39.76
273.856	40.11
274.072	-41.81
274.287	-4.95
274.503	3.24
274.719	31.91
274.934	62.63
275.15	-50
275.366	21.67
275.581	-13.14
275.797	-9.05
276.012	42.15
276.228	-35.67
276.444	58.54
276.659	48.3
276.875	-52.05
277.09	79.02
277.306	21.67
277.521	44.2
277.737	13.48
277.952	58.54
278.168	29.87
278.383	7.34
278.599	42.15
278.814	-13.14
279.03	29.87
279.245	19.63
279.461	-11.09
279.676	113.83
279.892	60.59
280.107	-13.14
280.322	44.2
280.538	46.25
280.753	54.44
280.969	70.83
281.184	40.11
281.399	50.35
281.615	64.68
281.83	58.54
282.045	60.59
282.26	27.82
282.476	-2.9
282.691	72.87
282.906	-9.05
283.122	5.29
283.337	44.2
283.552	60.59
283.767	33.96
283.983	95.4
284.198	68.78
284.413	-31.57
284.628	-50
284.843	17.58
285.058	-9.05
285.274	1.19
285.489	54.44
285.704	-56.15
285.919	25.77
286.134	9.39
286.349	58.54
286.564	-4.95
286.779	-19.29
286.995	-23.38
287.21	-9.05
287.425	42.15
287.64	31.91
287.855	-0.85
288.07	42.15
288.285	21.67
288.5	-60.24
288.715	68.78
288.93	-4.95
289.145	64.68
289.36	-56.15
289.575	42.15
289.79	1.19
290.004	-25.43
290.219	15.53
290.434	25.77
290.649	-58.2
290.864	11.43
291.079	38.06
291.294	-47.96
291.509	9.39
291.724	81.07
291.938	27.82
292.153	-39.76
292.368	21.67
292.583	7.34
292.798	-13.14
293.012	9.39
293.227	-13.14
293.442	13.48
293.657	46.25
293.871	-19.29
294.086	48.3
294.301	25.77
294.516	-23.38
294.73	-11.09
294.945	58.54
295.16	72.87
295.374	50.35
295.589	48.3
295.804	23.72
296.018	-13.14
296.233	70.83
296.447	-15.19
296.662	11.43
296.877	1.19
297.091	-11.09
297.306	46.25
297.52	-47.96
297.735	19.63
297.949	36.01
298.164	66.73
298.378	40.11
298.593	109.74
298.807	40.11
299.022	33.96
299.236	9.39
299.451	-15.19
299.665	29.87
299.88	33.96
300.094	50.35
300.309	-52.05
300.523	-9.05
300.737	60.59
300.952	-60.24
301.166	66.73
301.381	29.87
301.595	76.97
301.809	-15.19
302.024	62.63
302.238	25.77
302.452	50.35
302.667	54.44
302.881	40.11
303.095	3.24
303.309	52.39
303.524	29.87
303.738	29.87
303.952	27.82
304.166	50.35
304.381	21.67
304.595	54.44
304.809	-21.33
305.023	56.49
305.237	38.06
305.452	-35.67
305.666	-31.57
305.88	54.44
306.094	11.43
306.308	5.29
306.522	36.01
306.736	5.29
306.95	25.77
307.164	-2.9
307.379	31.91
307.593	52.39
307.807	27.82
308.021	17.58
308.235	-13.14
308.449	105.64
308.663	7.34
308.877	56.49
309.091	-19.29
309.305	11.43
309.519	-0.85
309.733	42.15
309.947	-43.86
310.161	62.63
310.374	-39.76
310.588	83.11
310.802	3.24
311.016	91.31
311.23	79.02
311.444	60.59
311.658	19.63
311.872	-33.62
312.085	29.87
312.299	9.39
312.513	23.72
312.727	46.25
312.941	19.63
313.154	62.63
313.368	-2.9
313.582	-4.95
313.796	19.63
314.009	64.68
314.223	76.97
314.437	-72.53
314.651	-11.09
314.864	31.91
315.078	-66.39
315.292	13.48
315.505	3.24
315.719	52.39
315.933	31.91
316.146	-7
316.36	38.06
316.573	-39.76
316.787	23.72
317.001	64.68
317.214	-0.85
317.428	19.63
317.641	3.24
317.855	17.58
318.068	31.91
318.282	52.39
318.495	72.87
318.709	74.92
318.922	-25.43
319.136	76.97
319.349	5.29
319.563	33.96
319.776	25.77
319.99	9.39
320.203	54.44
320.417	-43.86
320.63	17.58
320.843	31.91
321.057	70.83
321.27	-19.29
321.483	50.35
321.697	33.96
321.91	58.54
322.124	-23.38
322.337	29.87
322.55	122.02
322.763	-7
322.977	5.29
323.19	-2.9
323.403	64.68
323.617	13.48
323.83	38.06
324.043	38.06
324.256	36.01
324.469	56.49
324.683	15.53
324.896	38.06
325.109	40.11
325.322	13.48
325.535	21.67
325.748	9.39
325.962	76.97
326.175	36.01
326.388	42.15
326.601	3.24
326.814	40.11
327.027	-4.95
327.24	58.54
327.453	-82.77
327.666	-7
327.879	66.73
328.092	-27.48
328.305	19.63
328.518	21.67
328.731	-41.81
328.944	-41.81
329.157	74.92
329.37	66.73
329.583	54.44
329.796	9.39
330.009	17.58
330.222	52.39
330.435	25.77
330.648	74.92
330.861	3.24
331.073	81.07
331.286	66.73
331.499	42.15
331.712	9.39
331.925	17.58
332.138	74.92
332.35	21.67
332.563	50.35
332.776	134.31
332.989	1.19
333.202	25.77
333.414	33.96
333.627	36.01
333.84	21.67
334.053	-15.19
334.265	7.34
334.478	74.92
334.691	27.82
334.903	97.45
335.116	-62.29
335.329	44.2
335.541	40.11
335.754	81.07
335.966	5.29
336.179	40.11
336.392	9.39
336.604	99.5
336.817	29.87
337.029	79.02
337.242	-7
337.454	50.35
337.667	27.82
337.88	126.12
338.092	29.87
338.305	-2.9
338.517	66.73
338.729	9.39
338.942	122.02
339.154	-15.19
339.367	21.67
339.579	95.4
339.792	-13.14
340.004	-21.33
340.217	54.44
340.429	-7
340.641	52.39
340.854	-27.48
341.066	52.39
341.278	29.87
341.491	58.54
341.703	29.87
341.915	23.72
342.128	11.43
342.34	50.35
342.552	91.31
342.764	52.39
342.977	83.11
343.189	9.39
343.401	42.15
343.613	36.01
343.826	21.67
344.038	-2.9
344.25	19.63
344.462	54.44
344.674	3.24
344.886	-7
345.099	58.54
345.311	-11.09
345.523	70.83
345.735	56.49
345.947	-23.38
346.159	15.53
346.371	-19.29
346.583	36.01
346.795	19.63
347.007	-2.9
347.219	52.39
347.431	17.58
347.643	27.82
347.855	-4.95
348.067	117.93
348.279	31.91
348.491	62.63
348.703	19.63
348.915	-33.62
349.127	27.82
349.339	9.39
349.551	-13.14
349.763	31.91
349.975	-4.95
350.187	23.72
350.399	83.11
350.61	42.15
350.822	1.19
351.034	17.58
351.246	3.24
351.458	38.06
351.669	33.96
351.881	-13.14
352.093	-31.57
352.305	-27.48
352.517	-4.95
352.728	-31.57
352.94	89.26
353.152	-52.05
353.363	25.77
353.575	-9.05
353.787	66.73
353.999	40.11
354.21	11.43
354.422	44.2
354.633	54.44
354.845	-31.57
355.057	25.77
355.268	27.82
355.48	105.64
355.692	25.77
355.903	11.43
356.115	1.19
356.326	-7
356.538	79.02
356.749	1.19
356.961	44.2
357.172	44.2
357.384	117.93
357.595	-11.09
357.807	33.96
358.018	29.87
358.23	93.35
358.441	66.73
358.653	60.59
358.864	9.39
359.075	-13.14
359.287	-47.96
359.498	44.2
359.709	25.77
359.921	-13.14
360.132	31.91
360.344	11.43
360.555	17.58
360.766	99.5
360.977	21.67
361.189	38.06
361.4	44.2
361.611	64.68
361.823	-33.62
362.034	72.87
362.245	46.25
362.456	52.39
362.667	83.11
362.879	38.06
363.09	-0.85
363.301	76.97
363.512	33.96
363.723	-0.85
363.935	70.83
364.146	81.07
364.357	13.48
364.568	74.92
364.779	17.58
364.99	48.3
365.201	68.78
365.412	72.87
365.623	38.06
365.834	-37.72
366.045	33.96
366.256	50.35
366.467	50.35
366.678	33.96
366.889	15.53
367.1	50.35
367.311	46.25
367.522	-0.85
367.733	-0.85
367.944	103.59
368.155	76.97
368.366	62.63
368.577	56.49
368.788	52.39
368.999	21.67
369.209	31.91
369.42	9.39
369.631	85.16
369.842	56.49
370.053	3.24
370.264	38.06
370.474	50.35
370.685	42.15
370.896	27.82
371.107	29.87
371.317	56.49
371.528	-13.14
371.739	44.2
371.95	27.82
372.16	58.54
372.371	42.15
372.582	56.49
372.792	50.35
373.003	31.91
373.214	19.63
373.424	38.06
373.635	-0.85
373.846	23.72
374.056	42.15
374.267	36.01
374.477	15.53
374.688	27.82
374.898	1.19
375.109	42.15
375.319	17.58
375.53	-2.9
375.74	1.19
375.951	52.39
376.161	-23.38
376.372	15.53
376.582	21.67
376.793	36.01
377.003	-35.67
377.214	9.39
377.424	31.91
377.635	5.29
377.845	11.43
378.055	70.83
378.266	-21.33
378.476	-11.09
378.686	7.34
378.897	25.77
379.107	58.54
379.317	40.11
379.528	48.3
379.738	54.44
379.948	42.15
380.158	27.82
380.369	-13.14
380.579	54.44
380.789	74.92
380.999	87.21
381.21	95.4
381.42	15.53
381.63	13.48
381.84	89.26
382.05	5.29
382.261	101.55
382.471	9.39
382.681	70.83
382.891	58.54
383.101	33.96
383.311	89.26
383.521	11.43
383.731	58.54
383.941	33.96
384.151	42.15
384.361	29.87
384.571	64.68
384.781	7.34
384.991	17.58
385.201	-11.09
385.411	17.58
385.621	-2.9
385.831	13.48
386.041	21.67
386.251	85.16
386.461	48.3
386.671	17.58
386.881	17.58
387.091	17.58
387.301	62.63
387.511	72.87
387.72	52.39
387.93	58.54
388.14	-7
388.35	64.68
388.56	117.93
388.769	-9.05
388.979	-2.9
389.189	-11.09
389.399	60.59
389.609	-47.96
389.818	23.72
390.028	-0.85
390.238	7.34
390.447	-15.19
390.657	66.73
390.867	52.39
391.076	91.31
391.286	-7
391.496	-7
391.705	33.96
391.915	29.87
392.125	31.91
392.334	83.11
392.544	93.35
392.753	36.01
392.963	38.06
393.172	74.92
393.382	29.87
393.591	109.74
393.801	23.72
394.01	29.87
394.22	33.96
394.429	76.97
394.639	56.49
394.848	83.11
395.058	-9.05
395.267	99.5
395.477	44.2
395.686	68.78
395.895	91.31
396.105	66.73
396.314	91.31
396.524	3.24
396.733	46.25
396.942	76.97
397.152	72.87
397.361	93.35
397.57	-11.09
397.78	25.77
397.989	38.06
398.198	44.2
398.407	62.63
398.617	36.01
398.826	60.59
399.035	83.11
399.244	-37.72
399.453	33.96
399.663	46.25
399.872	66.73
400.081	52.39
400.29	29.87
400.499	81.07
400.708	83.11
400.917	111.78
401.127	91.31
401.336	23.72
401.545	117.93
401.754	122.02
401.963	76.97
402.172	85.16
402.381	97.45
402.59	50.35
402.799	105.64
403.008	70.83
403.217	93.35
403.426	99.5
403.635	66.73
403.844	52.39
404.053	89.26
404.262	21.67
404.471	62.63
404.68	72.87
404.888	138.41
405.097	29.87
405.306	103.59
405.515	91.31
405.724	165.03
405.933	152.74
406.142	76.97
406.35	83.11
406.559	134.31
406.768	66.73
406.977	167.08
407.185	154.79
407.394	130.22
407.603	66.73
407.812	160.94
408.02	181.42
408.229	199.85
408.438	165.03
408.646	128.17
408.855	144.55
409.064	189.61
409.272	111.78
409.481	158.89
409.69	271.53
409.898	249
410.107	267.43
410.315	183.46
410.524	218.28
410.733	234.66
410.941	298.15
411.15	240.81
411.358	201.9
411.567	195.75
411.775	271.53
411.984	265.38
412.192	353.45
412.401	289.96
412.609	281.77
412.818	382.12
413.026	386.21
413.234	314.53
413.443	378.02
413.651	355.49
413.86	437.41
414.068	347.3
414.276	490.66
414.485	451.75
414.693	429.22
414.901	478.37
415.11	378.02
415.318	433.32
415.526	519.33
415.734	476.32
415.943	470.18
416.151	486.56
416.359	521.38
416.567	582.82
416.776	550.05
416.984	640.16
417.192	601.25
417.4	568.48
417.608	545.95
417.817	693.41
418.025	728.22
418.233	836.77
418.441	705.7
418.649	814.24
418.857	859.29
419.065	890.01
419.273	877.73
419.481	957.6
419.689	949.4
419.897	984.22
420.105	1053.85
420.313	1000.6
420.521	1027.23
420.729	1059.99
420.937	1168.54
421.145	1174.68
421.353	1152.15
421.561	1301.65
421.769	1361.05
421.977	1225.88
422.185	1387.67
422.393	1395.86
422.601	1533.08
422.809	1467.54
423.017	1397.91
423.224	1539.22
423.432	1627.28
423.64	1680.53
423.848	1754.26
424.056	1776.78
424.263	1942.67
424.471	1905.81
424.679	1969.29
424.887	1989.77
425.094	1987.72
425.302	2118.79
425.51	2079.88
425.718	2268.3
425.925	2358.41
426.133	2370.69
426.341	2493.57
426.548	2520.2
426.756	2598.02
426.964	2528.39
427.171	2788.48
427.379	2905.21
427.586	2886.78
427.794	3058.81
428.001	3087.48
428.209	3107.96
428.417	3282.04
428.624	3327.1
428.832	3331.19
429.039	3398.77
429.247	3417.21
429.454	3730.55
429.662	3966.06
429.869	3832.94
430.076	3970.16
430.284	3865.71
430.491	3933.29
430.699	4205.67
430.906	4187.24
431.114	4277.35
431.321	4381.8
431.528	4400.23
431.736	4828.26
431.943	4990.05
432.15	4858.98
432.358	5039.2
432.565	5184.6
432.772	5153.88
432.979	5383.26
433.187	5465.18
433.394	5483.61
433.601	6120.53
433.808	6050.89
434.016	5991.5
434.223	6231.12
434.43	6562.89
434.637	6413.38
434.844	6773.83
435.052	6986.82
435.259	7031.87
435.466	6997.06
435.673	6925.38
435.88	7210.04
436.087	7570.49
436.294	7791.67
436.501	7525.43
436.708	7722.04
436.915	7986.22
437.122	8211.5
437.329	8236.08
437.537	8653.86
437.743	8811.56
437.95	8592.42
438.157	8942.63
438.364	9411.61
438.571	9417.75
438.778	9346.08
438.985	10505.23
439.192	9610.26
439.399	10216.46
439.606	10011.67
439.813	10392.59
440.02	11176.96
440.227	11101.19
440.433	10943.49
440.64	11072.51
440.847	11224.06
441.054	11305.98
441.261	12159.99
441.467	11987.96
441.674	12297.2
441.881	12622.83
442.088	12772.33
442.294	12383.21
442.501	13020.13
442.708	13296.61
442.914	13648.86
443.121	13939.67
443.328	13794.26
443.534	14599.12
443.741	14336.98
443.948	14123.99
444.154	15291.33
444.361	15264.71
444.568	15180.74
444.774	15297.47
444.981	15666.11
445.187	15842.23
445.394	16427.95
445.6	16442.29
445.807	18062.23
446.013	17261.48
446.22	17447.84
446.426	18211.73
446.633	18140.05
446.839	18862.99
447.046	18140.05
447.252	19129.22
447.459	19188.61
447.665	19026.82
447.871	19839.87
448.078	20796.27
448.284	19764.09
448.491	20521.84
448.697	21117.8
448.903	21191.53
449.11	21779.29
449.316	21197.67
449.522	21560.16
449.728	22135.64
449.935	22303.57
450.141	22121.31
450.347	22860.62
450.553	22102.87
450.76	22371.16
450.966	22991.69
451.172	22717.26
451.378	23659.33
451.584	22815.57
451.791	23446.34
451.997	23601.99
452.203	23857.98
452.409	23900.99
452.615	23542.6
452.821	23038.8
453.027	22403.92
453.233	23831.36
453.44	23051.08
453.646	23059.27
453.852	23157.58
454.058	23546.69
454.264	22762.32
454.47	23257.93
454.676	22760.27
454.882	23644.99
455.088	21490.53
455.294	21721.95
455.5	21850.97
455.705	22260.57
455.911	21125.99
456.117	21103.46
456.323	20620.14
456.529	19618.69
456.735	20382.58
456.941	19876.73
457.147	19436.42
457.352	19227.53
457.558	18881.42
457.764	19073.93
457.97	18545.55
458.176	18209.68
458.381	18242.45
458.587	17011.62
458.793	17308.58
458.999	16149.43
459.204	17513.38
459.41	16976.81
459.616	15809.47
459.821	16192.44
460.027	15752.12
460.233	15303.62
460.438	14934.98
460.644	14908.36
460.85	14218.19
461.055	14148.56
461.261	13976.53
461.466	12975.08
461.672	12592.11
461.878	13591.52
462.083	12538.86
462.289	12346.35
462.494	12274.67
462.7	11680.76
462.905	11418.62
463.111	11848.69
463.316	11901.94
463.522	11561.98
463.727	11715.58
463.932	11600.89
464.138	11580.41
464.343	11656.18
464.549	11060.23
464.754	11533.31
464.959	11604.99
465.165	11285.5
465.37	10896.39
465.575	10542.09
465.781	11080.71
465.986	11183.1
466.191	10607.62
466.397	10515.47
466.602	10017.81
466.807	10339.34
467.012	10615.82
467.218	10505.23
467.423	10329.1
467.628	10232.85
467.833	10851.33
468.038	10269.71
468.244	10064.91
468.449	10423.31
468.654	10046.48
468.859	10060.82
469.064	9954.32
469.269	9565.21
469.474	9735.19
469.679	9729.05
469.885	9622.55
470.09	9702.42
470.295	9575.45
470.5	9423.9
470.705	9333.79
470.91	9042.98
471.115	9196.57
471.32	9464.86
471.525	9163.81
471.73	9034.78
471.935	8954.91
472.139	8674.34
472.344	8842.28
472.549	8643.62
472.754	8737.83
472.959	8379.43
473.164	8244.27
473.369	8213.55
473.574	8737.83
473.778	8461.35
473.983	8199.21
474.188	8131.63
474.393	7914.55
474.598	7889.97
474.802	7932.98
475.007	7789.62
475.212	7810.1
475.417	7652.41
475.621	7439.42
475.826	7463.99
476.031	7466.04
476.235	7259.2
476.44	7466.04
476.645	7390.27
476.849	7261.24
477.054	7343.16
477.259	7035.97
477.463	7103.55
477.668	7046.21
477.872	6947.9
478.077	6878.27
478.282	6716.48
478.486	6779.97
478.691	6566.98
478.895	6644.81
479.1	6599.75
479.304	6601.8
479.509	6413.38
479.713	6325.32
479.918	6282.31
480.122	6204.49
480.326	6562.89
480.531	6384.71
480.735	6315.08
480.94	6200.4
481.144	6374.47
481.348	6243.4
481.553	6046.8
481.757	6005.84
481.961	6319.18
482.166	6087.76
482.37	6042.7
482.574	6063.18
482.778	6210.64
482.983	6280.27
483.187	6128.72
483.391	6061.13
483.595	6130.77
483.8	6087.76
484.004	6194.25
484.208	6202.44
484.412	6145.1
484.616	6206.54
484.821	6210.64
485.025	6059.09
485.229	6224.97
485.433	6016.08
485.637	6145.1
485.841	5923.92
486.045	6050.89
486.249	5964.88
486.453	6042.7
486.657	6274.12
486.861	6057.04
487.065	5991.5
487.269	6100.05
487.473	5973.07
487.677	6214.73
487.881	6014.03
488.085	6005.84
488.289	6077.52
488.493	6091.85
488.697	6071.37
488.901	6143.05
489.105	6118.48
489.309	6081.61
489.512	6069.33
489.716	6251.6
489.92	6112.33
490.124	6382.67
490.328	6243.4
490.531	6280.27
490.735	6399.05
490.939	6255.69
491.143	6173.77
491.346	6286.41
491.55	6483.02
491.754	6411.34
491.958	6411.34
492.161	6437.96
492.365	6431.82
492.569	6487.11
492.772	6456.39
492.976	6669.38
493.18	6646.85
493.383	6724.68
493.587	6571.08
493.79	6700.1
493.994	6659.14
494.197	6794.31
494.401	6988.86
494.605	6808.64
494.808	7099.45
495.012	6878.27
495.215	7128.13
495.419	7275.58
495.622	7156.8
495.825	7375.93
496.029	7150.65
496.232	7447.61
496.436	7334.97
496.639	7613.49
496.843	7611.45
497.046	7547.96
497.249	7726.13
497.453	7826.48
497.656	7875.63
497.859	7842.87
498.063	8078.38
498.266	8225.84
498.469	8082.48
498.673	8143.92
498.876	8332.33
499.079	8471.59
499.282	8395.82
499.485	8582.18
499.689	8553.51
499.892	8696.87
500.095	8774.69
500.298	9061.41
500.501	9100.32
500.705	9217.05
500.908	9280.54
501.111	9491.48
501.314	9600.02
501.517	9497.63
501.72	9718.81
501.923	9839.64
502.126	9833.49
502.329	10179.6
502.532	9980.95
502.735	10261.52
502.938	10472.46
503.141	10507.27
503.344	10845.19
503.547	10763.27
503.75	11105.28
503.953	10920.96
504.156	11310.08
504.359	11289.6
504.562	11453.44
504.765	11508.73
504.968	11889.65
505.17	11940.85
505.373	12061.68
505.576	12080.11
505.779	12129.27
505.982	12469.23
506.185	12655.59
506.387	12805.1
506.59	12860.39
506.793	13030.37
506.996	13153.25
507.198	13497.31
507.401	13274.08
507.604	13775.83
507.807	14173.14
508.009	13886.42
508.212	14179.28
508.415	14259.15
508.617	14369.74
508.82	14480.33
509.022	14721.99
509.225	14826.44
509.428	14920.65
509.63	15352.77
509.833	15188.93
510.035	15838.14
510.238	15606.72
510.44	15901.62
510.643	16081.85
510.845	16372.66
511.048	16196.53
511.25	16544.69
511.453	16618.41
511.655	17167.27
511.858	17003.43
512.06	17607.58
512.262	17599.39
512.465	17548.19
512.667	18066.33
512.87	18172.82
513.072	18219.92
513.274	18221.97
513.477	18658.19
513.679	18760.59
513.881	18992.01
514.084	19460.99
514.286	19278.72
514.488	19520.38
514.69	20179.83
514.893	20212.6
515.095	20128.63
515.297	20601.71
515.499	20689.77
515.701	21068.65
515.904	21252.97
516.106	21386.08
516.308	21574.5
516.51	21971.8
516.712	22078.3
516.914	22352.73
517.116	22817.61
517.318	22809.42
517.52	22786.89
517.722	23200.58
517.925	23511.88
518.127	24032.06
518.329	23946.05
518.531	24222.52
518.733	24081.21
518.935	24503.09
519.136	25002.8
519.338	25000.75
519.54	25471.78
519.742	25682.72
519.944	25676.58
520.146	26129.18
520.348	26399.51
520.55	26508.05
520.752	26422.04
520.954	26974.99
521.155	26749.71
521.357	27304.71
521.559	27564.81
521.761	28117.76
521.963	27626.25
522.164	28330.75
522.366	28515.06
522.568	28744.44
522.77	28842.74
522.971	29272.81
523.173	28846.83
523.375	29313.77
523.576	29242.09
523.778	29414.12
523.98	30124.77
524.181	30405.34
524.383	30024.42
524.584	30782.16
524.786	30556.89
524.988	30628.57
525.189	31128.27
525.391	31283.92
525.592	31554.25
525.794	31822.53
525.995	31691.46
526.197	31689.42
526.398	31875.78
526.6	32088.77
526.801	32473.79
527.003	32475.84
527.204	32271.04
527.406	32486.07
527.607	32451.26
527.808	32580.28
528.01	32635.58
528.211	32987.83
528.412	33495.72
528.614	33448.62
528.815	33364.65
529.016	33723.05
529.218	33280.69
529.419	33442.48
529.62	33946.28
529.822	33890.98
530.023	33731.24
530.224	33725.1
530.425	33813.16
530.626	33716.9
530.828	33743.53
531.029	34828.95
531.23	34044.58
531.431	34130.59
531.632	34267.81
531.833	34632.35
532.035	34185.89
532.236	34288.29
532.437	34648.73
532.638	34415.26
532.839	34787.99
533.04	34865.81
533.241	34298.53
533.442	35293.84
533.643	34673.31
533.844	34812.57
534.045	34816.66
534.246	34697.88
534.447	35052.18
534.648	34751.13
534.849	34931.35
535.05	35005.08
535.251	35156.63
535.451	34912.92
535.652	34955.93
535.853	34896.53
536.054	35136.15
536.255	35291.79
536.456	34388.64
536.657	35363.47
536.857	34957.97
537.058	35009.17
537.259	35029.65
537.46	35596.94
537.66	34714.26
537.861	34978.45
538.062	34851.48
538.263	35256.98
538.463	34941.59
538.664	34966.17
538.865	35316.37
539.065	35156.63
539.266	34949.78
539.466	35435.15
539.667	34968.21
539.868	35130
540.068	35236.5
540.269	35007.12
540.469	35437.2
540.67	34681.5
540.87	35015.32
541.071	34908.82
541.271	35197.59
541.472	35007.12
541.672	35291.79
541.873	34630.3
542.073	34888.34
542.274	35338.9
542.474	34923.16
542.675	34994.84
542.875	35322.51
543.075	34988.69
543.276	34544.28
543.476	35224.21
543.676	35031.7
543.877	35166.87
544.077	35039.89
544.277	34927.25
544.478	35232.4
544.678	35181.2
544.878	35248.78
545.078	35275.41
545.279	35216.02
545.479	35029.65
545.679	34998.93
545.879	35058.32
546.079	35121.81
546.28	35127.95
546.48	34736.79
546.68	35187.35
546.88	35449.49
547.08	35121.81
547.28	35173.01
547.48	34714.26
547.68	35138.19
547.88	35017.36
548.081	35107.47
548.281	35115.67
548.481	34859.67
548.681	35398.29
548.881	35318.42
549.081	35250.83
549.28	34945.69
549.48	35695.24
549.68	35000.98
549.88	35113.62
550.08	34892.44
550.28	34968.21
550.48	34794.14
550.68	35230.35
550.88	34953.88
551.08	35150.48
551.279	35199.63
551.479	35054.23
551.679	34968.21
551.879	34990.74
552.079	35191.44
552.278	34890.39
552.478	34767.51
552.678	34759.32
552.878	35027.6
553.077	34796.18
553.277	34546.33
553.477	35322.51
553.676	34744.98
553.876	34929.3
554.076	34591.39
554.275	34679.45
554.475	34366.11
554.674	34378.4
554.874	34861.72
555.074	34667.16
555.273	34732.7
555.473	34886.29
555.672	34103.97
555.872	34427.55
556.071	34380.45
556.271	34701.98
556.47	34319.01
556.67	34161.31
556.869	34001.57
557.068	34622.11
557.268	34095.78
557.467	34122.4
557.667	34394.78
557.866	34505.37
558.065	33927.84
558.265	33940.13
558.464	33966.76
558.663	34237.09
558.863	33833.64
559.062	34218.66
559.261	33905.32
559.461	34116.26
559.66	33725.1
559.859	33673.9
560.058	33583.79
560.258	33983.14
560.457	33139.38
560.656	33401.52
560.855	33604.27
561.054	33831.59
561.253	33311.41
561.453	33567.4
561.652	33444.52
561.851	33317.55
562.05	33108.66
562.249	33092.27
562.448	33223.34
562.647	33235.63
562.846	33280.69
563.045	33143.47
563.244	32680.63
563.443	33086.13
563.642	32563.9
563.841	32903.86
564.04	32561.85
564.239	32875.19
564.438	32350.91
564.637	32819.89
564.836	32668.34
565.035	32291.52
565.234	32379.58
565.432	32244.41
565.631	32043.71
565.83	32584.38
566.029	32346.81
566.228	32305.85
566.427	31990.47
566.625	32107.2
566.824	31744.71
567.023	32127.68
567.222	31365.84
567.42	31791.81
567.619	31494.86
567.818	31503.05
568.016	31513.29
568.215	31486.67
568.414	31644.36
568.612	31947.46
568.811	31335.12
569.01	31353.55
569.208	30919.38
569.407	31034.07
569.605	30950.1
569.804	31105.74
570.002	30558.94
570.201	30919.38
570.4	30851.8
570.598	30573.27
570.797	30477.02
570.995	30794.45
571.193	30196.45
571.392	30747.35
571.59	30419.67
571.789	30141.15
571.987	30085.86
572.186	29649.64
572.384	29887.2
572.582	30069.47
572.781	30137.05
572.979	29377.26
573.177	29569.77
573.376	29639.4
573.574	29432.55
573.772	29383.4
573.971	29369.07
574.169	29238
574.367	28965.62
574.565	29281
574.763	28873.46
574.962	29070.06
575.16	28635.89
575.358	29172.46
575.556	28545.78
575.754	28904.18
575.952	28361.47
576.151	28639.99
576.349	28263.16
576.547	28271.36
576.745	28465.91
576.943	28304.12
577.141	28465.91
577.339	28041.98
577.537	27818.75
577.735	27876.1
577.933	27861.76
578.131	27634.44
578.329	27388.68
578.527	27364.11
578.725	27400.97
578.923	27425.54
579.121	27364.11
579.319	27042.57
579.516	27368.2
579.714	27245.32
579.912	27585.29
580.11	26888.98
580.308	26946.32
580.506	26891.02
580.704	26362.65
580.901	26694.42
581.099	26917.65
581.297	26350.36
581.495	26475.29
581.692	26528.53
581.89	26297.11
582.088	26319.64
582.285	26123.04
582.483	26182.43
582.681	26016.54
582.878	26073.88
583.076	26016.54
583.274	26198.81
583.471	25592.61
583.669	25830.18
583.866	25770.79
584.064	25506.6
584.262	25269.03
584.459	25432.87
584.657	24941.36
584.854	25258.79
585.052	24904.49
585.249	25121.58
585.447	25178.92
585.644	24664.88
585.841	24750.9
586.039	25144.11
586.236	24699.7
586.434	24578.87
586.631	24892.21
586.828	24615.73
587.026	24511.28
587.223	24826.67
587.42	24316.73
587.618	24636.21
587.815	24013.63
588.012	24118.07
588.21	23958.33
588.407	24308.54
588.604	24044.35
588.801	23683.91
588.999	23903.04
589.196	23941.95
589.393	23536.45
589.59	23688
589.787	23472.96
589.984	23415.62
590.182	23157.58
590.379	23554.88
590.576	23253.83
590.773	23356.23
590.97	23094.09
591.167	23155.53
591.364	22936.4
591.561	22991.69
591.758	22991.69
591.955	22551.38
592.152	22917.96
592.349	22670.16
592.546	22965.07
592.743	22612.82
592.94	22491.99
593.137	22494.04
593.334	22483.8
593.531	22299.48
593.727	22334.29
593.924	22041.43
594.121	22184.79
594.318	22328.15
594.515	21635.94
594.712	22197.08
594.908	22082.39
595.105	21922.65
595.302	21654.37
595.499	21795.68
595.696	21883.74
595.892	21740.38
596.089	21703.52
596.286	21566.31
596.482	21338.98
596.679	21295.97
596.876	21631.84
597.072	21308.26
597.269	21173.1
597.466	21212.01
597.662	21101.42
597.859	21035.88
598.055	21087.08
598.252	20906.86
598.448	20810.61
598.645	20556.66
598.841	20788.08
599.038	20896.62
599.234	20822.89
599.431	20097.91
599.627	20200.31
599.824	20501.36
600.02	20185.97
600.217	20329.33
600.413	19995.51
600.609	20159.35
600.806	20005.75
601.002	20046.71
601.198	19862.4
601.395	19651.45
601.591	19876.73
601.787	19821.44
601.984	19882.88
602.18	20132.73
602.376	19762.05
602.572	19209.09
602.769	19534.72
602.965	19227.53
603.161	19471.23
603.357	19131.27
603.553	19516.29
603.75	19118.98
603.946	19139.46
604.142	19471.23
604.338	19071.88
604.534	19182.47
604.73	18541.46
604.926	18637.71
605.122	18617.23
605.318	18496.4
605.514	18527.12
605.71	18586.51
605.906	18682.77
606.102	18328.47
606.298	18400.15
606.494	18203.54
606.69	18385.81
606.886	18205.59
607.082	17986.46
607.278	18090.9
607.474	18015.13
607.67	17941.4
607.866	17796
608.062	17974.17
608.257	17677.21
608.453	17752.99
608.649	17951.64
608.845	17677.21
609.041	17818.52
609.236	18043.8
609.432	17689.5
609.628	17535.9
609.824	17509.28
610.019	17560.48
610.215	17331.11
610.411	17445.79
610.606	17093.54
610.802	17316.77
610.998	17232.8
611.193	17150.88
611.389	16999.34
611.584	16987.05
611.78	17011.62
611.976	16702.38
612.171	17011.62
612.367	16649.13
612.562	16729
612.758	16845.74
612.953	16628.65
613.149	17163.17
613.344	16518.06
613.539	16901.03
613.735	16673.71
613.93	16659.37
614.126	16395.18
614.321	16575.41
614.517	16624.56
614.712	16294.83
614.907	16374.7
615.103	16311.22
615.298	16116.66
615.493	16440.24
615.688	16178.1
615.884	16284.59
616.079	15817.66
616.274	16274.35
616.47	15977.4
616.665	15907.77
616.86	15842.23
617.055	15944.63
617.25	15766.46
617.445	15731.64
617.641	15541.18
617.836	15594.43
618.031	15434.69
618.226	15422.4
618.421	15463.36
618.616	15616.96
618.811	15573.95
619.006	15678.4
619.201	15231.94
619.396	15279.04
619.591	15102.92
619.786	15287.23
619.981	14918.6
620.176	15387.58
620.371	15025.09
620.566	14998.47
620.761	14992.33
620.956	14975.94
621.151	14576.59
621.346	14732.23
621.541	14328.78
621.735	14560.2
621.93	14271.44
622.125	14394.32
622.32	14138.32
622.515	14312.4
622.709	14140.37
622.904	14078.93
623.099	13876.18
623.294	14109.65
623.488	13562.84
623.683	13693.91
623.878	13593.56
624.072	13700.06
624.267	13503.45
624.462	13650.91
624.656	13368.29
624.851	13439.97
625.046	13235.17
625.24	13118.43
625.435	13454.3
625.629	13100
625.824	12899.3
626.018	13067.24
626.213	12776.42
626.407	12960.74
626.602	12680.17
626.796	12745.7
626.991	12700.65
627.185	12444.65
627.38	12422.13
627.574	12358.64
627.768	12194.8
627.963	12332.01
628.157	12082.16
628.352	12063.73
628.546	11944.95
628.74	12188.66
628.935	11879.41
629.129	11781.11
629.323	11967.48
629.517	11736.06
629.712	11789.3
629.906	11711.48
630.1	11615.23
630.294	11693.05
630.489	11418.62
630.683	11707.38
630.877	11217.92
631.071	11414.52
631.265	11273.21
631.459	11236.35
631.653	10982.4
631.848	11152.38
632.042	11060.23
632.236	11129.86
632.43	10961.92
632.624	11021.31
632.818	10896.39
633.012	10712.07
633.206	10609.67
633.4	10658.82
633.594	10486.79
633.788	10570.76
633.982	10486.79
634.176	10499.08
634.369	10238.99
634.563	10560.52
634.757	10445.84
634.951	10271.76
635.145	10062.87
635.339	10290.19
635.533	10114.06
635.726	10359.82
635.92	9911.32
636.114	9874.45
636.308	9741.33
636.501	9735.19
636.695	9864.21
636.889	9884.69
637.083	9739.29
637.276	9507.87
637.47	9581.59
637.664	9391.13
637.857	9579.54
638.051	9454.62
638.244	9501.72
638.438	9258.01
638.632	9225.25
638.825	9186.33
639.019	9036.83
639.212	9139.23
639.406	9038.88
639.599	9073.7
639.793	8799.27
639.986	8750.12
640.18	8938.53
640.373	8746.02
640.567	8770.6
640.76	8696.87
640.954	8633.38
641.147	8502.31
641.34	8602.66
641.534	8567.85
641.727	8537.13
641.92	8453.16
642.114	8338.48
642.307	8231.98
642.5	7986.22
642.694	8154.16
642.887	8274.99
643.08	8143.92
643.273	7963.7
643.467	7959.6
643.66	7926.83
643.853	7949.36
644.046	7627.83
644.239	7941.17
644.432	7836.72
644.626	7914.55
644.819	7568.44
645.012	7586.87
645.205	7726.13
645.398	7468.09
645.591	7519.29
645.784	7371.83
645.977	7459.9
646.17	7228.48
646.363	7345.21
646.556	7455.8
646.749	7324.73
646.942	7463.99
647.135	7169.09
647.328	7191.61
647.521	7343.16
647.714	6923.33
647.907	7076.93
648.099	6825.03
648.292	7095.36
648.485	6956.1
648.678	6868.03
648.871	6868.03
649.064	6792.26
649.256	6908.99
649.449	6710.34
649.642	6532.17
649.835	6374.47
650.027	6581.32
650.22	6562.89
650.413	6349.9
650.605	6380.62
650.798	6444.1
650.991	6347.85
651.183	6495.3
651.376	6218.83
651.568	6343.75
651.761	6253.64
651.954	6120.53
652.146	6198.35
652.339	6095.95
652.531	6272.07
652.724	5948.5
652.916	5966.93
653.109	5989.46
653.301	5977.17
653.494	5915.73
653.686	5731.41
653.879	6030.41
654.071	5827.67
654.263	5743.7
654.456	5794.9
654.648	5782.61
654.84	5635.16
655.033	5698.64
655.225	5629.01
655.417	5514.33
655.61	5590.1
655.802	5551.19
655.994	5461.08
656.186	5608.53
656.379	5514.33
656.571	5420.12
656.763	5516.37
656.955	5313.63
657.148	5416.02
657.34	5287
657.532	5215.32
657.724	5272.67
657.916	5080.16
658.108	5266.52
658.3	5104.73
658.492	5049.44
658.684	5074.01
658.876	4969.57
659.068	5031.01
659.26	4942.94
659.452	4949.09
659.644	4940.9
659.836	4781.15
660.028	4994.14
660.22	4711.52
660.412	4682.85
660.604	4625.51
660.796	4844.64
660.988	4668.52
661.18	4639.84
661.372	4666.47
661.563	4686.95
661.755	4539.49
661.947	4760.67
662.139	4576.36
662.331	4303.98
662.522	4410.47
662.714	4426.86
662.906	4461.67
663.097	4525.16
663.289	4408.42
663.481	4279.4
663.673	4363.37
663.864	4084.84
664.056	4353.13
664.247	4224.11
664.439	4252.78
664.631	4199.53
664.822	4193.39
665.014	4129.9
665.205	4066.41
665.397	4162.67
665.588	4146.28
665.78	4031.6
665.971	4121.71
666.163	4033.65
666.354	4058.22
666.546	3882.1
666.737	3988.59
666.929	4138.09
667.12	3751.03
667.311	3937.39
667.503	3730.55
667.694	3834.99
667.885	3816.56
668.077	3736.69
668.268	3847.28
668.459	3791.98
668.651	3648.63
668.842	3638.39
669.033	3798.13
669.224	3652.72
669.416	3779.7
669.607	3697.78
669.798	3597.43
669.989	3761.27
670.18	3511.41
670.371	3599.48
670.563	3630.2
670.754	3519.6
670.945	3466.36
671.136	3632.24
671.327	3546.23
671.518	3476.6
671.709	3474.55
671.9	3562.61
672.091	3468.41
672.282	3458.17
672.473	3474.55
672.664	3384.44
672.855	3535.99
673.046	3357.82
673.237	3458.17
673.428	3392.63
673.619	3327.1
673.809	3310.71
674	3204.22
674.191	3353.72
674.382	3351.67
674.573	3251.32
674.764	3341.43
674.954	3294.33
675.145	3191.93
675.336	3245.18
675.527	3101.82
675.717	3361.91
675.908	3122.3
676.099	3257.46
676.289	3169.4
676.48	3124.35
676.671	3011.71
676.861	3126.39
677.052	3146.87
677.243	3120.25
677.433	3081.34
677.624	3138.68
677.814	3067
678.005	3032.19
678.195	3040.38
678.386	2999.42
678.576	2987.13
678.767	3040.38
678.957	3001.47
679.148	2935.93
679.338	2913.41
679.529	3007.61
679.719	2980.99
679.909	2987.13
680.1	2968.7
680.29	2987.13
680.481	2878.59
680.671	3009.66
680.861	2847.87
681.052	2901.12
681.242	2868.35
681.432	2874.49
681.622	2907.26
681.813	2909.31
682.003	2825.34
682.193	2806.91
682.383	2856.06
682.573	2835.58
682.764	2919.55
682.954	2819.2
683.144	2784.38
683.334	2944.13
683.524	2817.15
683.714	2751.62
683.904	2815.1
684.094	2751.62
684.284	2802.82
684.474	2774.14
684.664	2776.19
684.854	2733.18
685.044	2739.33
685.234	2790.53
685.424	2747.52
685.614	2847.87
685.804	2649.22
685.994	2731.14
686.184	2819.2
686.374	2770.05
686.564	2714.75
686.753	2749.57
686.943	2653.31
687.133	2702.47
687.323	2667.65
687.513	2718.85
687.702	2587.78
687.892	2550.92
688.082	2638.98
688.272	2616.45
688.461	2677.89
688.651	2585.73
688.841	2655.36
689.03	2598.02
689.22	2630.79
689.41	2681.99
689.599	2622.59
689.789	2632.83
689.979	2583.68
690.168	2677.89
690.358	2516.1
690.547	2538.63
690.737	2516.1
690.926	2501.76
691.116	2514.05
691.305	2542.72
691.495	2557.06
691.684	2579.59
691.874	2577.54
692.063	2638.98
692.252	2458.76
692.442	2499.72
692.631	2530.44
692.82	2536.58
693.01	2487.43
693.199	2538.63
693.388	2532.48
693.578	2544.77
693.767	2495.62
693.956	2397.32
694.146	2604.16
694.335	2561.16
694.524	2626.69
694.713	2573.44
694.902	2497.67
695.092	2473.09
695.281	2487.43
695.47	2501.76
695.659	2505.86
695.848	2382.98
696.037	2559.11
696.226	2540.68
696.415	2425.99
696.604	2540.68
696.793	2534.53
696.982	2409.61
697.171	2503.81
697.36	2448.52
697.549	2589.83
697.738	2423.94
697.927	2380.93
698.116	2538.63
698.305	2571.4
698.494	2557.06
698.683	2491.52
698.872	2434.18
699.061	2481.28
699.25	2301.06
699.438	2403.46
699.627	2337.93
699.816	2436.23
700.005	2466.95
700.193	2446.47
700.382	2428.04
700.571	2458.76
700.76	2313.35
700.948	2516.1
701.137	2303.11
701.326	2469
701.514	2417.8
701.703	2430.09
701.892	2405.51
702.08	2393.22
702.269	2184.33
702.457	2421.89
702.646	2403.46
702.834	2376.84
703.023	2428.04
703.212	2413.7
703.4	2251.91
703.589	2344.07
703.777	2339.97
703.965	2176.14
704.154	2327.69
704.342	2335.88
704.531	2362.5
704.719	2331.78
704.907	2335.88
705.096	2307.21
705.284	2348.17
705.472	2180.23
705.661	2344.07
705.849	2335.88
706.037	2221.19
706.226	2348.17
706.414	2202.76
706.602	2225.29
706.79	2198.67
706.979	2256.01
707.167	2307.21
707.355	2159.75
707.543	2122.89
707.731	2163.85
707.919	2294.92
708.107	2186.38
708.296	2159.75
708.484	2110.6
708.672	2247.82
708.86	2237.58
709.048	2131.08
709.236	2147.47
709.424	2217.1
709.612	2147.47
709.8	2217.1
709.988	2204.81
710.176	2192.52
710.364	2188.43
710.551	2145.42
710.739	2034.83
710.927	2081.93
711.115	2262.15
711.303	2110.6
711.491	2075.79
711.679	2098.31
711.866	2102.41
712.054	2108.55
712.242	2014.35
712.43	1963.15
712.617	1969.29
712.805	1877.13
712.993	1991.82
713.181	1985.68
713.368	2034.83
713.556	1985.68
713.744	2000.01
713.931	1928.33
714.119	1918.09
714.306	1930.38
714.494	2063.5
714.682	1983.63
714.869	1926.29
715.057	2032.78
715.244	1864.85
715.432	1940.62
715.619	1973.39
715.807	1885.33
715.994	1811.6
716.182	1815.69
716.369	1918.09
716.556	1827.98
716.744	1864.85
716.931	1870.99
717.119	1840.27
717.306	1823.89
717.493	1815.69
717.681	1850.51
717.868	1844.37
718.055	1877.13
718.242	1805.46
718.43	1887.37
718.617	1813.65
718.804	1754.26
718.991	1711.25
719.179	1801.36
719.366	1795.22
719.553	1688.72
719.74	1727.63
719.927	1823.89
720.114	1801.36
720.301	1887.37
720.488	1672.34
720.676	1733.78
720.863	1748.11
721.05	1731.73
721.237	1692.82
721.424	1610.9
721.611	1658
721.798	1668.24
721.985	1623.19
722.172	1764.5
722.358	1729.68
722.545	1746.06
722.732	1645.71
722.919	1598.61
723.106	1594.51
723.293	1758.35
723.48	1549.46
723.667	1705.1
723.853	1590.42
724.04	1658
724.227	1625.23
724.414	1606.8
724.6	1545.36
724.787	1563.79
724.974	1547.41
725.161	1576.08
725.347	1647.76
725.534	1561.75
725.72	1492.12
725.907	1547.41
726.094	1619.09
726.28	1606.8
726.467	1508.5
726.653	1582.23
726.84	1535.12
727.027	1533.08
727.213	1385.62
727.4	1465.49
727.586	1481.88
727.773	1533.08
727.959	1395.86
728.145	1551.51
728.332	1422.48
728.518	1473.68
728.705	1524.88
728.891	1479.83
729.077	1442.96
729.264	1502.36
729.45	1463.44
729.636	1449.11
729.823	1373.33
730.009	1445.01
730.195	1385.62
730.382	1422.48
730.568	1356.95
730.754	1406.1
730.94	1410.2
731.126	1356.95
731.313	1467.54
731.499	1367.19
731.685	1287.32
731.871	1397.91
732.057	1369.24
732.243	1346.71
732.429	1385.62
732.615	1305.75
732.801	1279.13
732.987	1336.47
733.173	1361.05
733.359	1346.71
733.545	1262.74
733.731	1381.53
733.917	1295.51
734.103	1293.46
734.289	1371.29
734.475	1246.36
734.661	1354.9
734.847	1279.13
735.033	1328.28
735.219	1221.78
735.404	1283.22
735.59	1250.46
735.776	1291.41
735.962	1258.65
736.148	1373.33
736.333	1205.4
736.519	1240.22
736.705	1254.55
736.89	1217.69
737.076	1232.02
737.262	1301.65
737.447	1229.98
737.633	1242.26
737.819	1258.65
738.004	1260.7
738.19	1182.87
738.375	1246.36
738.561	1258.65
738.747	1287.32
738.932	1186.97
739.118	1211.54
739.303	1158.3
739.489	1232.02
739.674	1125.53
739.859	1129.63
740.045	1197.21
740.23	1250.46
740.416	1180.82
740.601	1164.44
740.786	1164.44
740.972	1123.48
741.157	1148.06
741.342	1109.15
741.528	1103
741.713	1164.44
741.898	1117.34
742.084	1170.58
742.269	1043.61
742.454	1084.57
742.639	1092.76
742.824	1189.02
743.01	1002.65
743.195	1092.76
743.38	1117.34
743.565	1074.33
743.75	1037.47
743.935	1117.34
744.12	1084.57
744.305	1004.7
744.49	1002.65
744.675	1031.32
744.86	1070.23
745.045	1045.66
745.23	953.5
745.415	1045.66
745.6	955.55
745.785	1090.71
745.97	1045.66
746.155	1027.23
746.34	1010.84
746.525	1053.85
746.71	965.79
746.895	1004.7
747.079	1025.18
747.264	992.41
747.449	926.88
747.634	904.35
747.819	885.92
748.003	980.12
748.188	945.31
748.373	892.06
748.557	984.22
748.742	959.64
748.927	873.63
749.111	910.49
749.296	920.73
749.481	906.4
749.665	871.58
749.85	902.3
750.034	912.54
750.219	910.49
750.404	912.54
750.588	857.25
750.773	763.04
750.957	812.19
751.141	804
751.326	857.25
751.51	881.82
751.695	832.67
751.879	834.72
752.064	828.57
752.248	767.13
752.432	875.68
752.617	877.73
752.801	822.43
752.985	726.18
753.17	748.7
753.354	771.23
753.538	787.61
753.722	754.85
753.907	724.13
754.091	746.66
754.275	775.33
754.459	773.28
754.643	730.27
754.828	713.89
755.012	730.27
755.196	793.76
755.38	707.74
755.564	720.03
755.748	717.98
755.932	709.79
756.116	777.37
756.3	685.22
756.484	689.31
756.668	730.27
756.852	664.74
757.036	674.98
757.22	734.37
757.404	763.04
757.588	601.25
757.772	638.11
757.956	693.41
758.14	615.59
758.323	738.46
758.507	705.7
758.691	705.7
758.875	570.53
759.059	623.78
759.242	627.87
759.426	595.11
759.61	697.5
759.794	627.87
759.977	593.06
760.161	642.21
760.345	609.44
760.528	595.11
760.712	693.41
760.895	595.11
761.079	666.78
761.263	609.44
761.446	584.87
761.63	611.49
761.813	611.49
761.997	648.35
762.18	582.82
762.364	644.26
762.547	509.09
762.731	601.25
762.914	588.96
763.098	586.91
763.281	578.72
763.464	550.05
763.648	554.15
763.831	513.19
764.015	560.29
764.198	496.8
764.381	545.95
764.564	496.8
764.748	541.86
764.931	554.15
765.114	603.3
765.297	576.67
765.481	533.67
765.664	529.57
765.847	486.56
766.03	552.1
766.213	531.62
766.397	449.7
766.58	523.43
766.763	541.86
766.946	461.99
767.129	511.14
767.312	498.85
767.495	537.76
767.678	472.23
767.861	558.24
768.044	511.14
768.227	548
768.41	435.36
768.593	468.13
768.776	502.95
768.959	494.76
769.142	541.86
769.324	545.95
769.507	521.38
769.69	496.8
769.873	492.71
770.056	529.57
770.239	461.99
770.421	550.05
770.604	486.56
770.787	478.37
770.97	414.88
771.152	484.52
771.335	502.95
771.518	515.23
771.7	474.28
771.883	527.52
772.066	470.18
772.248	447.65
772.431	504.99
772.613	478.37
772.796	447.65
772.978	521.38
773.161	449.7
773.343	453.8
773.526	529.57
773.708	480.42
773.891	392.36
774.073	482.47
774.256	486.56
774.438	519.33
774.621	410.79
774.803	398.5
774.985	371.88
775.168	406.69
775.35	400.55
775.532	402.6
775.715	431.27
775.897	384.16
776.079	461.99
776.261	429.22
776.444	453.8
776.626	418.98
776.808	418.98
776.99	373.92
777.173	386.21
777.355	349.35
777.537	373.92
777.719	406.69
777.901	337.06
778.083	367.78
778.265	388.26
778.447	341.16
778.629	394.4
778.811	337.06
778.993	355.49
779.175	388.26
779.357	394.4
779.539	398.5
779.721	382.12
779.903	371.88
780.085	369.83
780.267	306.34
780.449	335.01
780.631	353.45
780.812	345.25
780.994	398.5
781.176	289.96
781.358	259.24
781.54	294.05
781.721	386.21
781.903	386.21
782.085	353.45
782.267	287.91
782.448	392.36
782.63	347.3
782.812	328.87
782.993	316.58
783.175	283.81
783.357	298.15
783.538	267.43
783.72	263.33
783.901	332.97
784.083	255.14
784.264	324.77
784.446	275.62
784.627	212.14
784.809	244.9
784.99	246.95
785.172	283.81
785.353	244.9
785.535	316.58
785.716	308.39
785.897	230.57
786.079	287.91
786.26	267.43
786.441	240.81
786.623	224.42
786.804	230.57
786.985	232.62
787.167	296.1
787.348	251.05
787.529	234.66
787.71	298.15
787.891	279.72
788.073	232.62
788.254	292.01
788.435	230.57
788.616	246.95
788.797	238.76
788.978	347.3
789.159	216.23
789.34	320.68
789.522	230.57
789.703	197.8
789.884	226.47
790.065	255.14
790.246	175.27
790.427	263.33
790.607	267.43
790.788	193.7
790.969	146.6
791.15	218.28
791.331	212.14
791.512	259.24
791.693	226.47
791.874	210.09
792.054	203.94
792.235	148.65
792.416	222.38
792.597	283.81
792.778	240.81
792.958	183.46
793.139	210.09
793.32	212.14
793.5	171.18
793.681	154.79
793.862	169.13
794.042	240.81
794.223	191.66
794.404	195.75
794.584	214.18
794.765	189.61
794.945	222.38
795.126	156.84
795.306	167.08
795.487	138.41
795.667	175.27
795.848	261.29
796.028	140.46
796.209	183.46
796.389	158.89
796.57	91.31
796.75	140.46
796.93	150.7
797.111	183.46
797.291	132.26
797.471	150.7
797.652	140.46
797.832	205.99
798.012	87.21
798.192	148.65
798.373	119.98
798.553	156.84
798.733	191.66
798.913	156.84
799.093	130.22
799.274	216.23
799.454	197.8
799.634	238.76
799.814	148.65
799.994	160.94
800.174	156.84
800.354	183.46
800.534	68.78
800.714	109.74
800.894	113.83
801.074	126.12
801.254	130.22
801.434	109.74
801.614	152.74
801.794	93.35
801.974	451.75
802.154	79.02
802.334	165.03
802.514	171.18
802.693	103.59
802.873	99.5
803.053	115.88
803.233	134.31
803.413	169.13
803.592	117.93
803.772	171.18
803.952	136.36
804.131	74.92
804.311	119.98
804.491	152.74
804.67	83.11
804.85	134.31
805.03	156.84
805.209	148.65
805.389	150.7
805.568	25.77
805.748	115.88
805.928	115.88
806.107	189.61
806.287	187.56
806.466	74.92
806.646	42.15
806.825	36.01
807.004	79.02
807.184	111.78
807.363	79.02
807.543	142.5
807.722	103.59
807.901	148.65
808.081	-7
808.26	44.2
808.439	109.74
808.619	93.35
808.798	148.65
808.977	66.73
809.156	117.93
809.336	38.06
809.515	91.31
809.694	101.55
809.873	99.5
810.052	109.74
810.231	101.55
810.411	66.73
810.59	85.16
810.769	191.66
810.948	111.78
811.127	83.11
811.306	124.07
811.485	111.78
811.664	150.7
811.843	81.07
812.022	68.78
812.201	62.63
812.38	79.02
812.559	117.93
812.737	93.35
812.916	99.5
813.095	83.11
813.274	62.63
813.453	27.82
813.632	44.2
813.811	76.97
813.989	25.77
814.168	101.55
814.347	52.39
814.526	72.87
814.704	79.02
814.883	93.35
815.062	105.64
815.24	156.84
815.419	38.06
815.598	115.88
815.776	113.83
815.955	126.12
816.133	15.53
816.312	99.5
816.49	103.59
816.669	85.16
816.847	91.31
817.026	83.11
817.204	9.39
817.383	117.93
817.561	85.16
817.74	97.45
817.918	111.78
818.097	99.5
818.275	44.2
818.453	113.83
818.632	68.78
818.81	31.91
818.988	38.06
819.167	60.59
819.345	-9.05
819.523	76.97
819.701	91.31
819.879	130.22
820.058	52.39
820.236	126.12
820.414	107.69
820.592	17.58
820.77	85.16
820.948	21.67
821.127	58.54
821.305	83.11
821.483	101.55
821.661	95.4
821.839	99.5
822.017	36.01
822.195	54.44
822.373	93.35
822.551	27.82
822.729	50.35
822.907	66.73
823.085	50.35
823.262	68.78
823.44	132.26
823.618	25.77
823.796	50.35
823.974	25.77
824.152	72.87
824.329	122.02
824.507	23.72
824.685	5.29
824.863	38.06
825.04	115.88
825.218	85.16
825.396	107.69
825.574	-7
825.751	-4.95
825.929	115.88
826.107	109.74
826.284	107.69
826.462	54.44
826.639	66.73
826.817	79.02
826.994	93.35
827.172	74.92
827.349	38.06
827.527	64.68
827.704	74.92
827.882	44.2
828.059	21.67
828.237	36.01
828.414	70.83
828.591	9.39
828.769	42.15
828.946	33.96
829.124	56.49
829.301	97.45
829.478	66.73
829.655	95.4
829.833	93.35
830.01	-31.57
830.187	44.2
830.364	97.45
830.542	19.63
830.719	58.54
830.896	17.58
831.073	83.11
831.25	36.01
831.427	19.63
831.604	40.11
831.782	76.97
831.959	83.11
832.136	50.35
832.313	64.68
832.49	31.91
832.667	60.59
832.844	-11.09
833.021	148.65
833.198	19.63
833.374	52.39
833.551	42.15
833.728	58.54
833.905	23.72
834.082	42.15
834.259	99.5
834.436	25.77
834.612	-23.38
834.789	113.83
834.966	36.01
835.143	38.06
835.319	-4.95
835.496	38.06
835.673	23.72
835.85	-7
836.026	46.25
836.203	64.68
836.38	27.82
836.556	27.82
836.733	27.82
836.909	-4.95
837.086	36.01
837.262	-2.9
837.439	97.45
837.616	9.39
837.792	68.78
837.968	25.77
838.145	36.01
838.321	17.58
838.498	3.24
838.674	52.39
838.851	13.48
839.027	31.91
839.203	40.11
839.38	115.88
839.556	36.01
839.732	-15.19
839.909	128.17
840.085	33.96
840.261	85.16
840.437	52.39
840.614	33.96
840.79	48.3
840.966	-47.96
841.142	21.67
841.318	27.82
841.494	54.44
841.671	79.02
841.847	40.11
842.023	21.67
842.199	25.77
842.375	36.01
842.551	3.24
842.727	-7
842.903	62.63
843.079	9.39
843.255	56.49
843.431	64.68
843.607	83.11
843.783	-21.33
843.959	126.12
844.134	17.58
844.31	115.88
844.486	36.01
844.662	66.73
844.838	109.74
845.013	83.11
845.189	21.67
845.365	62.63
845.541	70.83
845.716	-21.33
845.892	-21.33
846.068	66.73
846.244	17.58
846.419	58.54
846.595	58.54
846.77	91.31
846.946	-31.57
847.122	81.07
847.297	27.82
847.473	101.55
847.648	107.69
847.824	66.73
847.999	-11.09
848.175	-23.38
848.35	-58.2
848.526	56.49
848.701	66.73
848.876	74.92
849.052	1.19
849.227	-11.09
849.403	9.39
849.578	93.35
849.753	58.54
849.929	3.24
850.104	9.39
850.279	68.78
850.454	50.35
850.63	-7
850.805	17.58
850.98	87.21
851.155	56.49
851.33	107.69
851.505	29.87
851.681	42.15
851.856	-4.95
852.031	36.01
852.206	27.82
852.381	9.39
852.556	3.24
852.731	36.01
852.906	50.35
853.081	54.44
853.256	-23.38
853.431	19.63
853.606	-33.62
853.781	15.53
853.956	3.24
854.131	15.53
854.305	52.39
854.48	-4.95
854.655	17.58
854.83	79.02
855.005	17.58
855.18	52.39
855.354	-35.67
855.529	-7
855.704	23.72
855.879	44.2
856.053	1.19
856.228	99.5
856.403	48.3
856.577	19.63
856.752	-35.67
856.926	13.48
857.101	52.39
857.276	95.4
857.45	36.01
857.625	13.48
857.799	-15.19
857.974	87.21
858.148	11.43
858.323	-9.05
858.497	-0.85
858.672	72.87
858.846	11.43
859.02	-0.85
859.195	11.43
859.369	5.29
859.543	44.2
859.718	13.48
859.892	58.54
860.066	40.11
860.241	29.87
860.415	-7
860.589	19.63
860.763	3.24
860.938	-54.1
861.112	-15.19
861.286	5.29
861.46	-2.9
861.634	21.67
861.808	54.44
861.982	13.48
862.157	-9.05
862.331	3.24
862.505	11.43
862.679	-31.57
862.853	50.35
863.027	11.43
863.201	79.02
863.375	-31.57
863.549	-9.05
863.722	-25.43
863.896	21.67
864.07	-13.14
864.244	17.58
864.418	-41.81
864.592	-35.67
864.766	-0.85
864.939	-2.9
865.113	50.35
865.287	46.25
865.461	5.29
865.634	74.92
865.808	23.72
865.982	25.77
866.156	-7
866.329	36.01
866.503	-23.38
866.676	19.63
866.85	-17.24
867.024	-25.43
867.197	36.01
867.371	44.2
867.544	9.39
867.718	-4.95
867.891	-39.76
868.065	29.87
868.238	44.2
868.412	-39.76
868.585	17.58
868.759	89.26
868.932	1.19
869.105	56.49
869.279	44.2
869.452	19.63
869.625	5.29
869.799	19.63
869.972	-78.68
870.145	29.87
870.319	1.19
870.492	42.15
870.665	-37.72
870.838	9.39
871.011	-9.05
871.185	11.43
871.358	-21.33
871.531	-15.19
871.704	-88.92
871.877	83.11
872.05	-21.33
872.223	-56.15
872.396	33.96
872.569	52.39
872.742	-4.95
872.915	-76.63
873.088	68.78
873.261	50.35
873.434	-23.38
873.607	74.92
873.78	21.67
873.953	-2.9
874.126	-21.33
874.299	3.24
874.471	33.96
874.644	85.16
874.817	31.91
874.99	58.54
875.163	-37.72
875.335	-11.09
875.508	3.24
875.681	-93.01
875.853	-29.52
876.026	21.67
876.199	-9.05
876.371	11.43
876.544	-9.05
876.717	56.49
876.889	3.24
877.062	-37.72
877.234	58.54
877.407	44.2
877.579	-29.52
877.752	-2.9
877.924	62.63
878.097	58.54
878.269	-0.85
878.442	-17.24
878.614	-17.24
878.786	79.02
878.959	-35.67
879.131	7.34
879.303	11.43
879.476	19.63
879.648	-13.14
879.82	50.35
879.993	-15.19
880.165	42.15
880.337	11.43
880.509	-31.57
880.681	-11.09
880.854	-2.9
881.026	-56.15
881.198	60.59
881.37	52.39
881.542	33.96
881.714	19.63
881.886	5.29
882.058	9.39
882.23	25.77
882.402	1.19
882.574	44.2
882.746	-7
882.918	38.06
883.09	13.48
883.262	3.24
883.434	-9.05
883.606	23.72
883.778	-31.57
883.95	23.72
884.122	-7
884.293	99.5
884.465	25.77
884.637	46.25
884.809	50.35
884.98	50.35
885.152	11.43
885.324	1.19
885.496	-27.48
885.667	-7
885.839	60.59
886.011	-47.96
886.182	-33.62
886.354	-15.19
886.525	48.3
886.697	-7
886.869	-23.38
887.04	52.39
887.212	17.58
887.383	-37.72
887.555	13.48
887.726	1.19
887.897	-27.48
888.069	36.01
888.24	38.06
888.412	-21.33
888.583	33.96
888.754	9.39
888.926	-2.9
889.097	66.73
889.268	50.35
889.44	58.54
889.611	-9.05
889.782	-31.57
889.953	-29.52
890.125	-39.76
890.296	-0.85
890.467	-62.29
890.638	36.01
890.809	19.63
890.98	-47.96
891.151	-2.9
891.323	42.15
891.494	-31.57
891.665	23.72
891.836	50.35
892.007	-0.85
892.178	21.67
892.349	21.67
892.52	19.63
892.691	48.3
892.862	21.67
893.032	15.53
893.203	11.43
893.374	44.2
893.545	27.82
893.716	13.48
893.887	-27.48
894.057	11.43
894.228	-0.85
894.399	-80.72
894.57	33.96
894.74	64.68
894.911	97.45
895.082	29.87
895.253	62.63
895.423	-15.19
895.594	-50
895.764	23.72
895.935	-13.14
896.106	1.19
896.276	66.73
896.447	11.43
896.617	38.06
896.788	-56.15
896.958	25.77
897.129	9.39
897.299	25.77
897.47	3.24
897.64	44.2
897.81	-64.34
897.981	-15.19
898.151	42.15
898.322	11.43
898.492	19.63
898.662	-13.14
898.832	23.72
899.003	44.2
899.173	-31.57
899.343	-31.57
899.513	-0.85
