Data from USB4F104151__181__13-59-05-270.txt Node

Date: Thu Mar 13 13:59:05 EDT 2025
User: louis
Spectrometer: USB4F10415
Trigger mode: 4
Integration Time (sec): 1.000000E-2
Scans to average: 1
Electric dark correction enabled: true
Nonlinearity correction enabled: false
Boxcar width: 0
XAxis mode: Wavelengths
Number of Pixels in Spectrum: 3648
>>>>>Begin Spectral Data<<<<<
178.204	-17.07
178.424	-17.07
178.644	-17.07
178.864	-41.64
179.084	-55.98
179.304	17.75
179.524	77.14
179.744	3.41
179.964	-27.31
180.184	3.41
180.404	11.61
180.624	23.89
180.844	-53.93
181.064	25.94
181.283	-21.16
181.503	-10.92
181.723	-49.83
181.943	-12.97
182.163	58.71
182.383	17.75
182.602	83.28
182.822	58.71
183.042	32.08
183.262	7.51
183.482	75.09
183.701	19.8
183.921	-25.26
184.141	48.47
184.361	-2.73
184.58	19.8
184.8	17.75
185.02	15.7
185.239	7.51
185.459	40.28
185.679	83.28
185.898	7.51
186.118	89.43
186.338	-17.07
186.557	58.71
186.777	54.61
186.997	7.51
187.216	89.43
187.436	-6.83
187.655	54.61
187.875	23.89
188.095	27.99
188.314	83.28
188.534	21.85
188.753	89.43
188.973	38.23
189.192	15.7
189.412	11.61
189.631	89.43
189.851	15.7
190.07	1.37
190.29	19.8
190.509	36.18
190.729	1.37
190.948	25.94
191.168	95.57
191.387	73.04
191.607	23.89
191.826	73.04
192.045	1.37
192.265	56.66
192.484	11.61
192.704	-0.68
192.923	-17.07
193.142	42.32
193.362	58.71
193.581	99.67
193.8	42.32
194.02	32.08
194.239	27.99
194.458	48.47
194.678	-10.92
194.897	-19.11
195.116	25.94
195.335	9.56
195.555	-29.35
195.774	-2.73
195.993	3.41
196.212	-4.78
196.432	32.08
196.651	79.19
196.87	-10.92
197.089	-2.73
197.308	44.37
197.528	56.66
197.747	79.19
197.966	-51.88
198.185	-6.83
198.404	32.08
198.623	3.41
198.842	79.19
199.062	32.08
199.281	83.28
199.5	17.75
199.719	79.19
199.938	32.08
200.157	75.09
200.376	34.13
200.595	3.41
200.814	30.04
201.033	15.7
201.252	64.85
201.471	48.47
201.69	-8.87
201.909	25.94
202.128	54.61
202.347	19.8
202.566	85.33
202.785	-33.45
203.004	46.42
203.223	58.71
203.442	21.85
203.661	44.37
203.879	93.52
204.098	32.08
204.317	9.56
204.536	-37.55
204.755	48.47
204.974	23.89
205.193	32.08
205.411	93.52
205.63	11.61
205.849	-4.78
206.068	25.94
206.287	46.42
206.505	-31.4
206.724	-19.11
206.943	36.18
207.162	19.8
207.381	44.37
207.599	52.56
207.818	-49.83
208.037	46.42
208.255	5.46
208.474	7.51
208.693	-8.87
208.911	50.52
209.13	50.52
209.349	21.85
209.567	7.51
209.786	118.1
210.005	138.58
210.223	75.09
210.442	-0.68
210.661	75.09
210.879	75.09
211.098	-41.64
211.316	50.52
211.535	27.99
211.753	5.46
211.972	116.05
212.191	81.24
212.409	58.71
212.628	58.71
212.846	-35.5
213.065	-15.02
213.283	9.56
213.502	75.09
213.72	7.51
213.938	23.89
214.157	36.18
214.375	-43.69
214.594	7.51
214.812	34.13
215.031	17.75
215.249	58.71
215.467	36.18
215.686	-31.4
215.904	23.89
216.122	-33.45
216.341	64.85
216.559	-8.87
216.778	64.85
216.996	32.08
217.214	50.52
217.432	48.47
217.651	-25.26
217.869	21.85
218.087	50.52
218.306	-35.5
218.524	105.81
218.742	-4.78
218.96	66.9
219.179	85.33
219.397	48.47
219.615	54.61
219.833	23.89
220.051	-31.4
220.27	56.66
220.488	81.24
220.706	30.04
220.924	-2.73
221.142	-23.21
221.36	17.75
221.578	54.61
221.796	11.61
222.015	93.52
222.233	3.41
222.451	48.47
222.669	64.85
222.887	32.08
223.105	30.04
223.323	32.08
223.541	19.8
223.759	36.18
223.977	34.13
224.195	19.8
224.413	17.75
224.631	48.47
224.849	50.52
225.067	85.33
225.285	-10.92
225.503	32.08
225.721	9.56
225.939	52.56
226.157	-8.87
226.375	83.28
226.592	46.42
226.81	-23.21
227.028	83.28
227.246	83.28
227.464	40.28
227.682	-41.64
227.9	27.99
228.117	64.85
228.335	42.32
228.553	11.61
228.771	27.99
228.989	36.18
229.206	56.66
229.424	40.28
229.642	-10.92
229.86	46.42
230.077	77.14
230.295	58.71
230.513	42.32
230.731	-17.07
230.948	36.18
231.166	11.61
231.384	60.76
231.601	15.7
231.819	60.76
232.037	48.47
232.254	7.51
232.472	5.46
232.689	66.9
232.907	52.56
233.125	36.18
233.342	93.52
233.56	-17.07
233.777	50.52
233.995	-19.11
234.213	85.33
234.43	7.51
234.648	23.89
234.865	44.37
235.083	40.28
235.3	58.71
235.518	-6.83
235.735	54.61
235.953	116.05
236.17	-10.92
236.388	54.61
236.605	34.13
236.822	36.18
237.04	21.85
237.257	13.65
237.475	19.8
237.692	-6.83
237.909	38.23
238.127	17.75
238.344	5.46
238.562	85.33
238.779	75.09
238.996	-0.68
239.214	40.28
239.431	42.32
239.648	3.41
239.865	38.23
240.083	23.89
240.3	64.85
240.517	11.61
240.735	97.62
240.952	48.47
241.169	42.32
241.386	-8.87
241.603	-4.78
241.821	-15.02
242.038	25.94
242.255	-4.78
242.472	62.8
242.689	73.04
242.907	34.13
243.124	13.65
243.341	-31.4
243.558	-49.83
243.775	-8.87
243.992	-6.83
244.209	3.41
244.426	62.8
244.643	23.89
244.86	21.85
245.078	-33.45
245.295	19.8
245.512	91.48
245.729	-8.87
245.946	-4.78
246.163	44.37
246.38	-19.11
246.597	9.56
246.814	-4.78
247.031	73.04
247.248	62.8
247.464	138.58
247.681	54.61
247.898	91.48
248.115	48.47
248.332	11.61
248.549	81.24
248.766	36.18
248.983	56.66
249.2	62.8
249.417	60.76
249.633	15.7
249.85	-29.35
250.067	-2.73
250.284	25.94
250.501	-4.78
250.717	38.23
250.934	25.94
251.151	-45.74
251.368	50.52
251.585	21.85
251.801	38.23
252.018	-23.21
252.235	48.47
252.451	-15.02
252.668	17.75
252.885	36.18
253.102	85.33
253.318	105.81
253.535	42.32
253.752	13.65
253.968	44.37
254.185	30.04
254.401	-41.64
254.618	17.75
254.835	23.89
255.051	71
255.268	85.33
255.484	81.24
255.701	34.13
255.917	97.62
256.134	19.8
256.351	79.19
256.567	19.8
256.784	40.28
257	58.71
257.217	58.71
257.433	109.91
257.65	42.32
257.866	120.15
258.082	-27.31
258.299	40.28
258.515	116.05
258.732	32.08
258.948	68.95
259.165	9.56
259.381	25.94
259.597	50.52
259.814	7.51
260.03	-10.92
260.246	81.24
260.463	58.71
260.679	40.28
260.895	50.52
261.112	66.9
261.328	23.89
261.544	32.08
261.761	50.52
261.977	17.75
262.193	13.65
262.409	-0.68
262.626	3.41
262.842	75.09
263.058	19.8
263.274	75.09
263.49	25.94
263.707	91.48
263.923	68.95
264.139	73.04
264.355	23.89
264.571	-6.83
264.787	60.76
265.004	-0.68
265.22	46.42
265.436	17.75
265.652	15.7
265.868	87.38
266.084	64.85
266.3	79.19
266.516	15.7
266.732	19.8
266.948	-6.83
267.164	19.8
267.38	56.66
267.596	23.89
267.812	114
268.028	-15.02
268.244	83.28
268.46	21.85
268.676	9.56
268.892	30.04
269.108	34.13
269.324	42.32
269.54	40.28
269.756	89.43
269.972	-4.78
270.188	3.41
270.403	15.7
270.619	34.13
270.835	54.61
271.051	32.08
271.267	40.28
271.483	64.85
271.698	36.18
271.914	34.13
272.13	25.94
272.346	7.51
272.562	32.08
272.777	44.37
272.993	32.08
273.209	56.66
273.425	-8.87
273.64	48.47
273.856	-12.97
274.072	23.89
274.287	1.37
274.503	36.18
274.719	7.51
274.934	44.37
275.15	50.52
275.366	58.71
275.581	38.23
275.797	42.32
276.012	64.85
276.228	56.66
276.444	48.47
276.659	7.51
276.875	3.41
277.09	-2.73
277.306	-0.68
277.521	44.37
277.737	56.66
277.952	50.52
278.168	73.04
278.383	34.13
278.599	27.99
278.814	97.62
279.03	75.09
279.245	-6.83
279.461	-35.5
279.676	42.32
279.892	36.18
280.107	75.09
280.322	66.9
280.538	21.85
280.753	5.46
280.969	32.08
281.184	7.51
281.399	85.33
281.615	48.47
281.83	48.47
282.045	42.32
282.26	73.04
282.476	34.13
282.691	50.52
282.906	-55.98
283.122	17.75
283.337	36.18
283.552	-4.78
283.767	30.04
283.983	116.05
284.198	21.85
284.413	30.04
284.628	38.23
284.843	30.04
285.058	52.56
285.274	32.08
285.489	89.43
285.704	66.9
285.919	23.89
286.134	1.37
286.349	-8.87
286.564	-12.97
286.779	52.56
286.995	27.99
287.21	-25.26
287.425	75.09
287.64	-15.02
287.855	122.2
288.07	27.99
288.285	15.7
288.5	50.52
288.715	97.62
288.93	64.85
289.145	66.9
289.36	-10.92
289.575	19.8
289.79	68.95
290.004	9.56
290.219	64.85
290.434	40.28
290.649	85.33
290.864	3.41
291.079	64.85
291.294	40.28
291.509	3.41
291.724	-31.4
291.938	179.54
292.153	54.61
292.368	66.9
292.583	73.04
292.798	73.04
293.012	118.1
293.227	27.99
293.442	-2.73
293.657	21.85
293.871	122.2
294.086	15.7
294.301	52.56
294.516	103.76
294.73	21.85
294.945	34.13
295.16	97.62
295.374	27.99
295.589	101.72
295.804	52.56
296.018	19.8
296.233	89.43
296.447	23.89
296.662	-0.68
296.877	38.23
297.091	71
297.306	40.28
297.52	9.56
297.735	60.76
297.949	73.04
298.164	91.48
298.378	-15.02
298.593	38.23
298.807	19.8
299.022	-49.83
299.236	105.81
299.451	32.08
299.665	64.85
299.88	66.9
300.094	85.33
300.309	89.43
300.523	42.32
300.737	-4.78
300.952	54.61
301.166	58.71
301.381	15.7
301.595	40.28
301.809	68.95
302.024	34.13
302.238	68.95
302.452	32.08
302.667	62.8
302.881	85.33
303.095	56.66
303.309	19.8
303.524	38.23
303.738	23.89
303.952	54.61
304.166	32.08
304.381	101.72
304.595	75.09
304.809	38.23
305.023	42.32
305.237	58.71
305.452	30.04
305.666	44.37
305.88	40.28
306.094	9.56
306.308	-6.83
306.522	87.38
306.736	75.09
306.95	66.9
307.164	5.46
307.379	3.41
307.593	99.67
307.807	50.52
308.021	87.38
308.235	95.57
308.449	32.08
308.663	62.8
308.877	93.52
309.091	107.86
309.305	62.8
309.519	103.76
309.733	81.24
309.947	11.61
310.161	-33.45
310.374	58.71
310.588	21.85
310.802	19.8
311.016	71
311.23	23.89
311.444	40.28
311.658	23.89
311.872	42.32
312.085	34.13
312.299	40.28
312.513	-51.88
312.727	83.28
312.941	58.71
313.154	85.33
313.368	50.52
313.582	60.76
313.796	-8.87
314.009	68.95
314.223	83.28
314.437	48.47
314.651	56.66
314.864	32.08
315.078	58.71
315.292	71
315.505	68.95
315.719	50.52
315.933	105.81
316.146	58.71
316.36	23.89
316.573	34.13
316.787	75.09
317.001	-31.4
317.214	32.08
317.428	60.76
317.641	40.28
317.855	64.85
318.068	56.66
318.282	68.95
318.495	32.08
318.709	58.71
318.922	-23.21
319.136	87.38
319.349	17.75
319.563	56.66
319.776	42.32
319.99	134.48
320.203	19.8
320.417	9.56
320.63	97.62
320.843	128.34
321.057	5.46
321.27	19.8
321.483	3.41
321.697	-17.07
321.91	1.37
322.124	64.85
322.337	7.51
322.55	40.28
322.763	34.13
322.977	-0.68
323.19	64.85
323.403	-6.83
323.617	44.37
323.83	73.04
324.043	73.04
324.256	5.46
324.469	11.61
324.683	64.85
324.896	-10.92
325.109	27.99
325.322	62.8
325.535	79.19
325.748	52.56
325.962	25.94
326.175	85.33
326.388	46.42
326.601	5.46
326.814	52.56
327.027	71
327.24	48.47
327.453	23.89
327.666	71
327.879	17.75
328.092	23.89
328.305	-0.68
328.518	34.13
328.731	-39.59
328.944	-39.59
329.157	-12.97
329.37	81.24
329.583	103.76
329.796	27.99
330.009	34.13
330.222	89.43
330.435	50.52
330.648	36.18
330.861	11.61
331.073	50.52
331.286	132.44
331.499	52.56
331.712	44.37
331.925	32.08
332.138	52.56
332.35	23.89
332.563	23.89
332.776	56.66
332.989	64.85
333.202	1.37
333.414	68.95
333.627	36.18
333.84	-19.11
334.053	68.95
334.265	48.47
334.478	56.66
334.691	66.9
334.903	85.33
335.116	25.94
335.329	91.48
335.541	75.09
335.754	36.18
335.966	13.65
336.179	17.75
336.392	93.52
336.604	99.67
336.817	-6.83
337.029	77.14
337.242	146.77
337.454	-4.78
337.667	36.18
337.88	3.41
338.092	36.18
338.305	83.28
338.517	54.61
338.729	167.25
338.942	66.9
339.154	13.65
339.367	71
339.579	89.43
339.792	34.13
340.004	-2.73
340.217	32.08
340.429	25.94
340.641	58.71
340.854	64.85
341.066	42.32
341.278	62.8
341.491	68.95
341.703	34.13
341.915	50.52
342.128	89.43
342.34	34.13
342.552	118.1
342.764	44.37
342.977	-19.11
343.189	-0.68
343.401	71
343.613	75.09
343.826	91.48
344.038	77.14
344.25	42.32
344.462	73.04
344.674	50.52
344.886	50.52
345.099	58.71
345.311	36.18
345.523	52.56
345.735	5.46
345.947	66.9
346.159	68.95
346.371	75.09
346.583	130.39
346.795	109.91
347.007	40.28
347.219	118.1
347.431	13.65
347.643	25.94
347.855	30.04
348.067	13.65
348.279	52.56
348.491	89.43
348.703	91.48
348.915	62.8
349.127	-6.83
349.339	68.95
349.551	36.18
349.763	105.81
349.975	40.28
350.187	40.28
350.399	58.71
350.61	46.42
350.822	109.91
351.034	25.94
351.246	36.18
351.458	81.24
351.669	60.76
351.881	-15.02
352.093	64.85
352.305	50.52
352.517	48.47
352.728	81.24
352.94	36.18
353.152	48.47
353.363	50.52
353.575	36.18
353.787	48.47
353.999	17.75
354.21	71
354.422	62.8
354.633	130.39
354.845	64.85
355.057	81.24
355.268	128.34
355.48	19.8
355.692	99.67
355.903	81.24
356.115	36.18
356.326	-23.21
356.538	130.39
356.749	19.8
356.961	54.61
357.172	73.04
357.384	36.18
357.595	116.05
357.807	34.13
358.018	40.28
358.23	91.48
358.441	44.37
358.653	60.76
358.864	62.8
359.075	23.89
359.287	91.48
359.498	-6.83
359.709	15.7
359.921	21.85
360.132	42.32
360.344	21.85
360.555	32.08
360.766	77.14
360.977	32.08
361.189	122.2
361.4	7.51
361.611	89.43
361.823	91.48
362.034	109.91
362.245	52.56
362.456	66.9
362.667	99.67
362.879	38.23
363.09	32.08
363.301	42.32
363.512	1.37
363.723	48.47
363.935	58.71
364.146	75.09
364.357	-19.11
364.568	17.75
364.779	56.66
364.99	58.71
365.201	13.65
365.412	83.28
365.623	85.33
365.834	48.47
366.045	60.76
366.256	93.52
366.467	73.04
366.678	21.85
366.889	5.46
367.1	73.04
367.311	21.85
367.522	64.85
367.733	7.51
367.944	44.37
368.155	58.71
368.366	32.08
368.577	71
368.788	126.29
368.999	85.33
369.209	40.28
369.42	97.62
369.631	85.33
369.842	99.67
370.053	71
370.264	52.56
370.474	38.23
370.685	66.9
370.896	73.04
371.107	30.04
371.317	27.99
371.528	99.67
371.739	-43.69
371.95	40.28
372.16	50.52
372.371	15.7
372.582	58.71
372.792	118.1
373.003	107.86
373.214	64.85
373.424	114
373.635	101.72
373.846	87.38
374.056	50.52
374.267	60.76
374.477	91.48
374.688	66.9
374.898	38.23
375.109	91.48
375.319	64.85
375.53	34.13
375.74	93.52
375.951	93.52
376.161	50.52
376.372	1.37
376.582	27.99
376.793	27.99
377.003	111.96
377.214	73.04
377.424	118.1
377.635	93.52
377.845	36.18
378.055	66.9
378.266	85.33
378.476	140.63
378.686	1.37
378.897	77.14
379.107	48.47
379.317	42.32
379.528	23.89
379.738	44.37
379.948	5.46
380.158	146.77
380.369	11.61
380.579	27.99
380.789	52.56
380.999	64.85
381.21	46.42
381.42	85.33
381.63	77.14
381.84	44.37
382.05	-8.87
382.261	105.81
382.471	52.56
382.681	54.61
382.891	40.28
383.101	81.24
383.311	34.13
383.521	68.95
383.731	32.08
383.941	126.29
384.151	60.76
384.361	73.04
384.571	25.94
384.781	56.66
384.991	54.61
385.201	148.82
385.411	124.24
385.621	36.18
385.831	54.61
386.041	91.48
386.251	-4.78
386.461	40.28
386.671	15.7
386.881	73.04
387.091	64.85
387.301	95.57
387.511	-35.5
387.72	54.61
387.93	42.32
388.14	85.33
388.35	44.37
388.56	64.85
388.769	87.38
388.979	91.48
389.189	38.23
389.399	48.47
389.609	68.95
389.818	85.33
390.028	91.48
390.238	71
390.447	81.24
390.657	138.58
390.867	11.61
391.076	56.66
391.286	81.24
391.496	66.9
391.705	81.24
391.915	52.56
392.125	71
392.334	122.2
392.544	124.24
392.753	122.2
392.963	107.86
393.172	52.56
393.382	66.9
393.591	81.24
393.801	38.23
394.01	116.05
394.22	77.14
394.429	54.61
394.639	52.56
394.848	159.06
395.058	81.24
395.267	83.28
395.477	111.96
395.686	103.76
395.895	118.1
396.105	126.29
396.314	46.42
396.524	64.85
396.733	93.52
396.942	77.14
397.152	52.56
397.361	64.85
397.57	56.66
397.78	79.19
397.989	124.24
398.198	150.87
398.407	97.62
398.617	77.14
398.826	62.8
399.035	93.52
399.244	171.35
399.453	167.25
399.663	89.43
399.872	99.67
400.081	83.28
400.29	120.15
400.499	150.87
400.708	116.05
400.917	138.58
401.127	105.81
401.336	101.72
401.545	111.96
401.754	122.2
401.963	81.24
402.172	122.2
402.381	111.96
402.59	85.33
402.799	114
403.008	91.48
403.217	169.3
403.426	148.82
403.635	140.63
403.844	101.72
404.053	109.91
404.262	81.24
404.471	130.39
404.68	165.2
404.888	142.68
405.097	163.15
405.306	97.62
405.515	111.96
405.724	183.63
405.933	169.3
406.142	148.82
406.35	175.44
406.559	193.87
406.768	191.83
406.977	234.83
407.185	255.31
407.394	142.68
407.603	177.49
407.812	193.87
408.02	230.74
408.229	234.83
408.438	220.5
408.646	259.41
408.855	286.03
409.064	302.42
409.272	228.69
409.481	255.31
409.69	310.61
409.898	296.27
410.107	290.13
410.315	335.18
410.524	345.42
410.733	386.38
410.941	357.71
411.15	384.34
411.358	386.38
411.567	431.44
411.775	410.96
411.984	392.53
412.192	421.2
412.401	427.34
412.609	456.01
412.818	499.02
413.026	496.97
413.234	456.01
413.443	525.65
413.651	482.64
413.86	539.98
414.068	603.47
414.276	646.48
414.485	531.79
414.693	599.37
414.901	632.14
415.11	752.97
415.318	611.66
415.526	664.91
415.734	740.68
415.943	742.73
416.151	767.31
416.359	765.26
416.567	775.5
416.776	894.28
416.984	945.48
417.192	902.47
417.4	836.94
417.608	875.85
417.817	996.68
418.025	1008.97
418.233	1074.5
418.441	1017.16
418.649	1031.49
418.857	1152.32
419.065	1301.83
419.273	1127.75
419.481	1269.06
419.689	1287.49
419.897	1393.98
420.105	1363.26
420.313	1385.79
420.521	1375.55
420.729	1580.35
420.937	1576.25
421.145	1740.09
421.353	1647.93
421.561	1756.47
421.769	1735.99
421.977	1854.78
422.185	1783.1
422.393	1903.93
422.601	2147.64
422.809	2000.18
423.017	2182.45
423.224	2137.4
423.432	2227.51
423.64	2133.3
423.848	2448.69
424.056	2424.11
424.263	2538.8
424.471	2641.2
424.679	2704.68
424.887	2907.43
425.094	2878.76
425.302	2880.81
425.51	2940.2
425.718	2927.91
425.925	3188
426.133	3163.43
426.341	3446.05
426.548	3480.86
426.756	3487.01
426.964	3595.55
427.171	3822.88
427.379	3941.66
427.586	3857.69
427.794	4021.53
428.001	4238.61
428.209	4334.87
428.417	4252.95
428.624	4603.15
428.832	4572.43
429.039	4687.12
429.247	4668.69
429.454	5201.16
429.662	5469.44
429.869	4988.17
430.076	5522.69
430.284	5225.73
430.491	5526.78
430.699	5620.99
430.906	5881.08
431.114	5876.99
431.321	6262.01
431.528	6399.22
431.736	6644.98
431.943	7011.56
432.15	6636.78
432.358	6823.15
432.565	7101.67
432.772	7034.09
432.979	7539.94
433.187	7740.64
433.394	7644.38
433.601	8185.05
433.808	8226.01
434.016	8137.95
434.223	8408.28
434.43	8793.3
434.637	8666.32
434.844	9372.87
435.052	9385.16
435.259	9602.24
435.466	9258.18
435.673	9462.98
435.88	10079.42
436.087	10499.25
436.294	10689.71
436.501	10380.47
436.708	10503.35
436.915	10876.08
437.122	11336.87
437.329	11353.26
437.537	11605.16
437.743	11957.41
437.95	11873.44
438.157	12579.99
438.364	13008.01
438.571	12690.58
438.778	12850.32
438.985	13859.97
439.192	13624.45
439.399	13898.88
439.606	13505.67
439.813	14638.2
440.02	15344.75
440.227	14957.68
440.433	14931.06
440.64	15705.19
440.847	15148.14
441.054	15709.29
441.261	16534.62
441.467	16469.08
441.674	16970.83
441.881	17345.61
442.088	17300.56
442.294	17300.56
442.501	17513.55
442.708	18050.11
442.914	19055.67
443.121	19594.28
443.328	19004.47
443.534	20159.52
443.741	19692.58
443.948	19518.51
444.154	21077.01
444.361	20628.51
444.568	21046.29
444.774	21031.96
444.981	21146.64
445.187	21863.43
445.394	23192.56
445.6	22354.94
445.807	24435.68
446.013	23880.68
446.22	24032.23
446.426	24970.2
446.633	25496.53
446.839	26029
447.046	24849.37
447.252	26082.25
447.459	26325.96
447.665	26049.48
447.871	27335.6
448.078	28631.97
448.284	27001.79
448.491	28027.82
448.697	28717.98
448.903	29782.93
449.11	29676.43
449.316	29088.67
449.522	29692.82
449.728	30790.53
449.935	30659.46
450.141	30524.29
450.347	31433.59
450.553	30710.66
450.76	31103.87
450.966	31869.81
451.172	31452.02
451.378	32101.23
451.584	31902.57
451.791	32170.86
451.997	32545.64
452.203	33143.64
452.409	32732
452.615	32545.64
452.821	31716.21
453.027	31144.83
453.233	33074.01
453.44	31529.84
453.646	31712.11
453.852	31964.01
454.058	32707.43
454.264	31468.41
454.47	32326.5
454.676	31501.17
454.882	32713.57
455.088	29547.41
455.294	30272.39
455.5	30528.39
455.705	31130.49
455.911	29758.35
456.117	29205.4
456.323	28664.74
456.529	27308.98
456.735	28853.15
456.941	27726.77
457.147	27493.3
457.352	26581.95
457.558	26141.64
457.764	26078.15
457.97	25785.29
458.176	25144.28
458.381	25199.57
458.587	24212.45
458.793	24017.89
458.999	22860.79
459.204	24304.61
459.41	23399.41
459.616	22211.59
459.821	22078.47
460.027	22090.76
460.233	21500.94
460.438	20749.34
460.644	20749.34
460.85	20034.6
461.055	19534.89
461.261	19625
461.466	18269.25
461.672	17517.64
461.878	18785.33
462.083	17579.08
462.289	17278.03
462.494	17118.29
462.7	16577.62
462.905	16000.1
463.111	16632.92
463.316	16483.42
463.522	16075.87
463.727	16249.95
463.932	16157.79
464.138	15977.57
464.343	16036.96
464.549	15500.39
464.754	16354.4
464.959	16055.39
465.165	15735.91
465.37	15242.35
465.575	14824.56
465.781	15656.04
465.986	15653.99
466.191	15049.84
466.397	14705.78
466.602	13896.83
466.807	14652.53
467.012	14443.64
467.218	14539.9
467.423	14281.85
467.628	14414.97
467.833	14828.66
468.038	14244.99
468.244	14083.2
468.449	14634.1
468.654	14296.19
468.859	13993.09
469.064	13624.45
469.269	13618.31
469.474	13657.22
469.679	13802.63
469.885	13370.51
470.09	13659.27
470.295	13462.66
470.5	13282.44
470.705	13374.6
470.91	12967.06
471.115	12754.07
471.32	13089.93
471.525	12848.27
471.73	12741.78
471.935	12440.73
472.139	11965.6
472.344	12491.93
472.549	12237.98
472.754	12100.76
472.959	12047.52
473.164	11652.26
473.369	11365.54
473.574	11902.11
473.778	11873.44
473.983	11717.79
474.188	11508.9
474.393	11064.49
474.598	11134.12
474.802	10812.59
475.007	11009.2
475.212	11048.11
475.417	10656.95
475.621	10552.5
475.826	10628.28
476.031	10192.06
476.235	10290.36
476.44	10513.59
476.645	10079.42
476.849	10026.17
477.054	10022.08
477.259	9948.35
477.463	9696.45
477.668	9585.86
477.872	9821.38
478.077	9592
478.282	9272.52
478.486	9358.53
478.691	9192.65
478.895	9266.38
479.1	9258.18
479.304	9258.18
479.509	8846.54
479.713	9198.79
479.918	8922.32
480.122	8776.91
480.326	8768.72
480.531	8807.63
480.735	8768.72
480.94	8735.95
481.144	8785.1
481.348	8439
481.553	8641.75
481.757	8445.14
481.961	8666.32
482.166	8633.55
482.37	8602.83
482.574	8279.25
482.778	8709.33
482.983	8717.52
483.187	8369.37
483.391	8615.12
483.595	8580.31
483.8	8346.84
484.004	8428.76
484.208	8645.84
484.412	8502.48
484.616	8428.76
484.821	8477.91
485.025	8348.89
485.229	8672.47
485.433	8441.04
485.637	8404.18
485.841	8373.46
486.045	8428.76
486.249	8447.19
486.453	8395.99
486.657	8357.08
486.861	8611.03
487.065	8336.6
487.269	8539.35
487.473	8443.09
487.677	8502.48
487.881	8568.02
488.085	8539.35
488.289	8762.58
488.493	8598.74
488.697	8738
488.901	8496.34
489.105	8613.07
489.309	8799.44
489.512	8768.72
489.716	8625.36
489.92	8729.81
490.124	8527.06
490.328	8920.27
490.531	8727.76
490.735	8887.5
490.939	8830.16
491.143	8727.76
491.346	8821.97
491.55	8998.09
491.754	8887.5
491.958	8983.76
492.161	8932.56
492.365	9084.11
492.569	9037
492.772	9100.49
492.976	9047.24
493.18	9086.15
493.383	9370.82
493.587	9444.55
493.79	9530.56
493.994	9301.19
494.197	9460.93
494.401	9512.13
494.605	9600.19
494.808	9757.89
495.012	9780.42
495.215	9626.82
495.419	9841.86
495.622	9952.45
495.825	9985.21
496.029	10259.64
496.232	10204.35
496.436	10273.98
496.639	10560.69
496.843	10632.37
497.046	11025.58
497.249	10986.67
497.453	10931.37
497.656	10921.13
497.859	11091.12
498.063	11068.59
498.266	11672.74
498.469	11596.96
498.673	11531.43
498.876	11764.9
499.079	11938.98
499.282	11920.54
499.485	12133.53
499.689	12233.88
499.892	12487.83
500.095	12623
500.298	12692.63
500.501	12809.36
500.705	13141.13
500.908	13272.2
501.111	13411.46
501.314	13563.01
501.517	13804.67
501.72	14042.24
501.923	13978.75
502.126	13993.09
502.329	14482.55
502.532	14474.36
502.735	14580.85
502.938	15131.76
503.141	15185.01
503.344	15242.35
503.547	15150.19
503.75	15522.92
503.953	15883.36
504.156	15932.51
504.359	16464.99
504.562	16311.39
504.765	16708.69
504.968	16755.8
505.17	17280.08
505.373	17042.51
505.576	17349.71
505.779	17683.53
505.982	17810.5
506.185	18029.63
506.387	18402.36
506.59	18435.13
506.793	19125.3
506.996	18932.79
507.198	19676.2
507.401	19301.42
507.604	19737.64
507.807	19862.57
508.009	20055.08
508.212	20225.06
508.415	20700.19
508.617	20947.99
508.82	21158.93
509.022	21083.16
509.225	21918.73
509.428	22248.45
509.63	22248.45
509.833	22076.42
510.035	22594.56
510.238	22795.26
510.44	23323.63
510.643	23352.31
510.845	23573.49
511.048	23673.84
511.25	24144.87
511.453	24407.01
511.655	25508.82
511.858	24730.59
512.06	25062.36
512.262	25756.62
512.465	25588.69
512.667	26203.08
512.87	26219.46
513.072	26663.87
513.274	27126.71
513.477	27679.66
513.679	27847.6
513.881	28101.54
514.084	28556.19
514.286	28609.44
514.488	28879.77
514.69	29791.12
514.893	29660.05
515.095	30112.65
515.297	30376.84
515.499	30460.8
515.701	30686.08
515.904	31099.77
516.106	31288.18
516.308	31759.22
516.51	32293.74
516.712	32093.04
516.914	32918.37
517.116	33325.91
517.318	33739.6
517.52	33782.61
517.722	33964.88
517.925	34667.33
518.127	35109.69
518.329	35580.73
518.531	35044.16
518.733	35744.56
518.935	36293.42
519.136	36320.04
519.338	36942.63
519.54	37208.86
519.742	37694.23
519.944	37620.5
520.146	38210.32
520.348	38255.37
520.55	38572.81
520.752	39023.36
520.954	39416.57
521.155	39443.2
521.357	39777.01
521.559	40442.6
521.761	41161.44
521.963	40844.01
522.164	41249.5
522.366	41450.2
522.568	41804.5
522.77	42142.42
522.971	42740.43
523.173	42279.63
523.375	42998.47
523.576	43016.9
523.778	43102.92
523.98	43782.84
524.181	44292.79
524.383	44163.76
524.584	44751.53
524.786	44837.55
524.988	44739.24
525.189	45337.25
525.391	45634.2
525.592	45648.54
525.794	45961.88
525.995	45750.94
526.197	45943.45
526.398	46414.48
526.6	46670.48
526.801	46938.76
527.003	47135.37
527.204	47387.27
527.406	47729.28
527.607	47555.2
527.808	47766.14
528.01	47219.33
528.211	47702.65
528.412	48700.01
528.614	48493.17
528.815	48564.85
529.016	49295.97
529.218	48831.08
529.419	48824.94
529.62	48808.56
529.822	48826.99
530.023	48988.78
530.224	49455.71
530.425	49390.18
530.626	49166.95
530.828	49027.69
531.029	50129.5
531.23	49525.35
531.431	49517.15
531.632	49943.13
531.833	50029.15
532.035	49959.51
532.236	49650.27
532.437	50172.5
532.638	49797.73
532.839	50113.11
533.04	50428.5
533.241	49934.94
533.442	50840.14
533.643	50580.05
533.844	50346.58
534.045	50637.39
534.246	50322.01
534.447	50803.28
534.648	50084.44
534.849	50616.91
535.05	50240.09
535.251	50840.14
535.451	50395.73
535.652	51034.7
535.853	50301.53
536.054	50453.08
536.255	50578
536.456	50256.47
536.657	51262.02
536.857	50741.84
537.058	50588.24
537.259	51239.5
537.46	50600.53
537.66	50438.74
537.861	50526.8
538.062	50819.66
538.263	51214.92
538.463	51020.36
538.664	50676.3
538.865	50920.01
539.065	50995.79
539.266	50270.81
539.466	50975.31
539.667	50610.77
539.868	51143.24
540.068	50803.28
540.269	50991.69
540.469	50725.46
540.67	50225.75
540.87	50367.06
541.071	50995.79
541.271	50905.68
541.472	50696.78
541.672	50528.85
541.873	50604.63
542.073	50096.73
542.274	50985.55
542.474	50498.13
542.675	50246.23
542.875	50565.71
543.075	50121.3
543.276	50147.93
543.476	51030.6
543.676	50496.08
543.877	50969.16
544.077	50838.09
544.277	50487.89
544.478	50557.52
544.678	51006.03
544.878	50332.25
545.078	50606.67
545.279	50401.88
545.479	50348.63
545.679	50610.77
545.879	50694.74
546.079	50747.98
546.28	50283.09
546.48	49949.28
546.68	50342.49
546.88	50883.15
547.08	50260.57
547.28	50768.46
547.48	50109.02
547.68	50702.93
547.88	50195.03
548.081	50754.13
548.281	50610.77
548.481	50354.77
548.681	50858.57
548.881	50455.12
549.081	50805.33
549.28	50469.46
549.48	50504.27
549.68	50322.01
549.88	50801.23
550.08	50164.31
550.28	50559.57
550.48	50354.77
550.68	50823.76
550.88	50305.62
551.08	50113.11
551.279	50475.6
551.479	50098.78
551.679	50205.27
551.879	50262.61
552.079	50461.27
552.278	50358.87
552.478	50358.87
552.678	50459.22
552.878	50496.08
553.077	50537.04
553.277	50035.29
553.477	50637.39
553.676	50111.06
553.876	49990.23
554.076	49730.14
554.275	49685.09
554.475	49381.99
554.674	50209.37
554.874	49918.56
555.074	49707.61
555.273	50188.89
555.473	50274.9
555.672	49584.74
555.872	49674.85
556.071	49728.09
556.271	50301.53
556.47	49705.57
556.67	49025.64
556.869	49324.64
557.068	49609.31
557.268	48929.39
557.467	49490.53
557.667	49472.1
557.866	49085.03
558.065	48886.38
558.265	48874.09
558.464	48683.63
558.663	49269.35
558.863	48675.44
559.062	49807.97
559.261	48935.53
559.461	49138.28
559.66	48388.72
559.859	49011.31
560.058	48220.79
560.258	48824.94
560.457	48263.8
560.656	48910.95
560.855	48315
561.054	48626.29
561.253	48112.25
561.453	48403.06
561.652	48110.2
561.851	48317.04
562.05	48423.54
562.249	48261.75
562.448	48304.76
562.647	48128.63
562.846	47952.51
563.045	47960.7
563.244	47301.25
563.443	48333.43
563.642	47110.79
563.841	47835.77
564.04	47186.57
564.239	47872.63
564.438	47391.36
564.637	47262.34
564.836	47559.3
565.035	47055.5
565.234	47321.73
565.432	47006.34
565.631	46664.33
565.83	46967.43
566.029	47114.89
566.228	46707.34
566.427	46641.81
566.625	46389.91
566.824	46582.41
567.023	46746.25
567.222	45994.65
567.42	46842.51
567.619	46281.36
567.818	46269.08
568.016	45787.8
568.215	46195.35
568.414	46115.48
568.612	46338.71
568.811	45904.54
569.01	45611.68
569.208	45447.84
569.407	45445.79
569.605	45574.81
569.804	45679.26
570.002	45089.45
570.201	45247.14
570.4	45128.36
570.598	45017.77
570.797	44759.72
570.995	45144.74
571.193	44552.88
571.392	44706.48
571.59	44468.91
571.789	44552.88
571.987	44436.14
572.186	44331.7
572.384	44030.65
572.582	44245.68
572.781	44210.87
572.979	43539.13
573.177	43561.66
573.376	43666.11
573.574	43631.29
573.772	43901.62
573.971	43168.45
574.169	43449.02
574.367	42699.47
574.565	42908.36
574.763	43043.52
574.962	42906.31
575.16	42156.75
575.358	42691.27
575.556	42478.29
575.754	42586.83
575.952	41886.42
576.151	42545.87
576.349	41558.75
576.547	42017.49
576.745	42035.92
576.943	41695.96
577.141	41065.19
577.339	41657.05
577.537	41593.56
577.735	41292.51
577.933	40960.74
578.131	41007.84
578.329	40897.25
578.527	40434.41
578.725	40567.53
578.923	41093.86
579.121	40409.84
579.319	40411.88
579.516	40620.78
579.714	40137.46
579.912	40188.66
580.11	40135.41
580.308	40043.25
580.506	39844.6
580.704	39160.58
580.901	39959.28
581.099	39965.43
581.297	39293.69
581.495	38910.72
581.692	39195.39
581.89	39230.21
582.088	39389.95
582.285	38800.13
582.483	38834.95
582.681	38671.11
582.878	38511.37
583.076	38120.21
583.274	38578.95
583.471	38241.04
583.669	38249.23
583.866	38085.39
584.064	37894.93
584.262	37450.52
584.459	37847.83
584.657	37526.3
584.854	38204.17
585.052	37411.61
585.249	37372.7
585.447	37206.81
585.644	36981.54
585.841	36993.82
586.039	37182.24
586.236	36825.89
586.434	36916
586.631	36215.6
586.828	36784.93
587.026	36815.65
587.223	36250.41
587.42	36573.99
587.618	36590.38
587.815	35789.62
588.012	35912.5
588.21	35519.29
588.407	36023.09
588.604	35433.27
588.801	35296.06
588.999	35457.85
589.196	35302.2
589.393	35631.93
589.59	35244.86
589.787	34765.63
589.984	34888.51
590.182	34526.02
590.379	35056.45
590.576	34429.77
590.773	34362.18
590.97	34130.76
591.167	34964.29
591.364	34085.71
591.561	34163.53
591.758	33819.47
591.955	33864.53
592.152	34011.98
592.349	33807.19
592.546	34235.21
592.743	33467.22
592.94	33540.95
593.137	33383.26
593.334	33610.58
593.531	32920.42
593.727	33393.5
593.924	33108.83
594.121	33049.44
594.318	33209.18
594.515	32402.28
594.712	32924.51
594.908	32824.16
595.105	32635.75
595.302	32361.32
595.499	32422.76
595.696	32363.37
595.892	31685.49
596.089	32600.93
596.286	32398.18
596.482	32109.42
596.679	31828.85
596.876	31675.25
597.072	31548.28
597.269	31695.73
597.466	31583.09
597.662	31439.73
597.859	31378.29
598.055	31406.97
598.252	31056.76
598.448	31220.6
598.645	31009.66
598.841	30788.48
599.038	30358.41
599.234	30587.78
599.431	30460.8
599.627	30454.66
599.824	30995.32
600.02	30274.44
600.217	30448.52
600.413	29950.86
600.609	29836.17
600.806	29899.66
601.002	29952.91
601.198	29844.37
601.395	29793.17
601.591	29770.64
601.787	29815.69
601.984	29072.28
602.18	29647.76
602.376	29318.04
602.572	29219.74
602.769	29119.38
602.965	28896.16
603.161	29000.6
603.357	28584.87
603.553	28586.91
603.75	28502.95
603.946	28521.38
604.142	28496.8
604.338	28353.44
604.534	28310.44
604.73	27880.36
604.926	28046.25
605.122	28191.66
605.318	27798.45
605.514	27644.85
605.71	27648.94
605.906	27421.62
606.102	27706.29
606.298	27169.72
606.494	27100.09
606.69	26964.92
606.886	27200.44
607.082	26655.68
607.278	27136.95
607.474	26584
607.67	27161.53
607.866	26608.58
608.062	26737.6
608.257	26434.5
608.453	26661.82
608.649	26342.34
608.845	26264.52
609.041	26180.55
609.236	26241.99
609.432	26039.24
609.628	26291.14
609.824	25730
610.019	25568.21
610.215	25543.63
610.411	26131.4
610.606	25443.28
610.802	25402.32
610.998	25576.4
611.193	25680.85
611.389	25166.81
611.584	25031.64
611.78	25058.26
611.976	25076.69
612.171	25222.1
612.367	24779.74
612.562	24853.47
612.758	24642.53
612.953	24601.57
613.149	25111.51
613.344	24378.34
613.539	24703.96
613.735	24536.03
613.93	24495.07
614.126	24626.14
614.321	24490.98
614.517	24249.32
614.712	24175.59
614.907	23915.5
615.103	24120.29
615.298	23647.21
615.493	24140.77
615.688	23731.18
615.884	24144.87
616.079	23831.53
616.274	23737.32
616.47	23612.4
616.665	23706.6
616.86	23649.26
617.055	23575.53
617.25	23294.96
617.445	23372.78
617.641	23294.96
617.836	23413.74
618.031	22828.02
618.226	23084.02
618.421	22914.04
618.616	22985.72
618.811	22586.36
619.006	23000.05
619.201	22322.18
619.396	22737.91
619.591	22006.79
619.786	22621.18
619.981	21804.04
620.176	22113.28
620.371	22051.84
620.566	22051.84
620.761	21799.94
620.956	22000.65
621.151	21382.16
621.346	21679.11
621.541	21273.62
621.735	21234.71
621.93	20962.33
622.125	20921.37
622.32	21089.3
622.515	20917.27
622.709	20634.65
622.904	20507.68
623.099	20585.5
623.294	20433.95
623.488	20423.71
623.683	20288.54
623.878	20091.94
624.072	20087.84
624.267	20050.98
624.462	19616.81
624.656	19657.77
624.851	19921.96
625.046	19291.18
625.24	19106.87
625.435	19674.15
625.629	19371.05
625.824	19067.95
626.018	18963.51
626.213	18392.12
626.407	18979.89
626.602	18385.98
626.796	18549.82
626.991	18504.76
627.185	18222.14
627.38	18312.25
627.574	18263.1
627.768	17777.73
627.963	17816.65
628.157	17792.07
628.352	18005.06
628.546	17603.66
628.74	17523.79
628.935	17443.92
629.129	17644.62
629.323	17146.96
629.517	17116.24
629.712	16874.58
629.906	17083.47
630.1	16716.89
630.294	17071.18
630.489	16735.32
630.683	17087.57
630.877	16393.31
631.071	16479.32
631.265	16321.63
631.459	16430.17
631.653	16524.38
631.848	16270.43
632.042	15950.95
632.236	15928.42
632.43	16082.02
632.624	15895.65
632.818	15905.89
633.012	15707.24
633.206	15619.17
633.4	15787.11
633.594	15395.95
633.788	15662.18
633.982	15453.29
634.176	15447.15
634.369	14994.54
634.563	14945.39
634.757	15221.87
634.951	15074.42
635.145	14900.34
635.339	14955.63
635.533	14625.91
635.726	14589.05
635.92	14642.29
636.114	14599.29
636.308	14445.69
636.501	14484.6
636.695	14300.28
636.889	14402.68
637.083	14267.52
637.276	13982.85
637.47	14083.2
637.664	14040.19
637.857	14150.78
638.051	13825.15
638.244	13859.97
638.438	13747.33
638.632	13667.46
638.825	13632.65
639.019	13515.91
639.212	13341.83
639.406	13483.14
639.599	13245.58
639.793	13247.63
639.986	12829.84
640.18	12981.39
640.373	13100.17
640.567	12965.01
640.76	13032.59
640.954	12629.14
641.147	12377.24
641.34	12512.41
641.534	12582.04
641.727	12582.04
641.92	12473.49
642.114	12397.72
642.307	12364.95
642.5	12219.55
642.694	11795.62
642.887	12180.64
643.08	11955.36
643.273	12039.33
643.467	11879.58
643.66	11965.6
643.853	11719.84
644.046	11685.03
644.239	11551.91
644.432	11320.49
644.626	11412.65
644.819	11361.45
645.012	11480.23
645.205	11082.92
645.398	11144.36
645.591	11144.36
645.784	11138.22
645.977	10886.32
646.17	10835.12
646.363	10648.75
646.556	10675.38
646.749	10763.44
646.942	10828.98
647.135	10507.44
647.328	10554.55
647.521	10425.53
647.714	10327.22
647.907	10310.84
648.099	10347.7
648.292	10364.09
648.485	10226.87
648.678	10181.82
648.871	9985.21
649.064	9802.94
649.256	10126.52
649.449	9821.38
649.642	9854.14
649.835	9610.43
650.027	9635.01
650.22	9491.65
650.413	9579.72
650.605	9473.22
650.798	9411.78
650.991	9319.62
651.183	9444.55
651.376	9028.81
651.568	9262.28
651.761	9116.87
651.954	9080.01
652.146	8973.52
652.339	8961.23
652.531	8885.45
652.724	8903.89
652.916	8662.23
653.109	8735.95
653.301	8770.77
653.494	8678.61
653.686	8412.37
653.879	8692.94
654.071	8453.33
654.263	8547.54
654.456	8412.37
654.648	8406.23
654.84	8250.58
655.033	7949.53
655.225	8299.73
655.417	8006.88
655.61	7992.54
655.802	7970.01
655.994	7834.85
656.186	7976.16
656.379	7703.78
656.571	7804.13
656.763	7638.24
656.955	7656.67
657.148	7480.55
657.34	7548.13
657.532	7605.47
657.724	7283.94
657.916	7447.78
658.108	7382.24
658.3	7144.68
658.492	7144.68
658.684	7228.65
658.876	7095.53
659.068	7097.58
659.26	6913.26
659.452	7177.45
659.644	7070.95
659.836	6843.63
660.028	6780.14
660.22	6806.77
660.412	6894.83
660.604	6620.4
660.796	6753.52
660.988	6456.56
661.18	6456.56
661.372	6378.74
661.563	6391.03
661.755	6497.52
661.947	6298.87
662.139	6229.24
662.331	6358.26
662.522	6319.35
662.714	6149.37
662.906	6026.49
663.097	6063.35
663.289	6053.11
663.481	6100.22
663.673	5926.14
663.864	5766.4
664.056	5879.04
664.247	5819.64
664.439	5788.93
664.631	5631.23
664.822	5678.33
665.014	5682.43
665.205	5661.95
665.397	5610.75
665.588	5655.81
665.78	5561.6
665.971	5502.21
666.163	5385.48
666.354	5532.93
666.546	5557.5
666.737	5342.47
666.929	5274.88
667.12	5297.41
667.311	5283.08
667.503	5127.43
667.694	5020.94
667.885	5119.24
668.077	5152.01
668.268	5088.52
668.459	5080.33
668.651	4994.31
668.842	4932.87
669.033	5047.56
669.224	4902.15
669.416	5037.32
669.607	4922.63
669.798	4717.84
669.989	4836.62
670.18	4957.45
670.371	4807.95
670.563	4717.84
670.754	4861.2
670.945	4709.65
671.136	4650.25
671.327	4662.54
671.518	4560.14
671.709	4611.34
671.9	4758.8
672.091	4644.11
672.282	4590.86
672.473	4541.71
672.664	4519.18
672.855	4465.94
673.046	4478.23
673.237	4504.85
673.428	4490.51
673.619	4492.56
673.809	4361.49
674	4205.85
674.191	4289.81
674.382	4271.38
674.573	4480.27
674.764	4314.39
674.954	4234.52
675.145	4285.72
675.336	4298
675.527	4209.94
675.717	4216.09
675.908	4138.26
676.099	4115.73
676.289	4109.59
676.48	4066.58
676.671	3999
676.861	4195.61
677.052	4142.36
677.243	3962.14
677.433	3958.04
677.624	4062.49
677.814	3898.65
678.005	3984.66
678.195	3894.55
678.386	4009.24
678.576	3865.88
678.767	3857.69
678.957	3902.75
679.148	3951.9
679.338	3872.03
679.529	3783.96
679.719	3986.71
679.909	3839.26
680.1	3894.55
680.29	3886.36
680.481	3824.92
680.671	3964.18
680.861	3859.74
681.052	3896.6
681.242	3826.97
681.432	3910.94
681.622	3775.77
681.813	3792.16
682.003	3718.43
682.193	3702.04
682.383	3898.65
682.573	3693.85
682.764	3689.76
682.954	3792.16
683.144	3706.14
683.334	3652.89
683.524	3685.66
683.714	3568.93
683.904	3673.37
684.094	3765.53
684.284	3689.76
684.474	3767.58
684.664	3716.38
684.854	3659.04
685.044	3536.16
685.234	3552.54
685.424	3628.32
685.614	3679.52
685.804	3552.54
685.994	3624.22
686.184	3616.03
686.374	3667.23
686.564	3521.82
686.753	3591.45
686.943	3564.83
687.133	3599.65
687.323	3413.28
687.513	3630.37
687.702	3620.13
687.892	3515.68
688.082	3525.92
688.272	3554.59
688.461	3632.41
688.651	3523.87
688.841	3554.59
689.03	3568.93
689.22	3548.45
689.41	3550.5
689.599	3605.79
689.789	3532.06
689.979	3466.53
690.168	3583.26
690.358	3511.58
690.547	3642.65
690.737	3536.16
690.926	3427.62
691.116	3261.73
691.305	3448.1
691.495	3407.14
691.684	3466.53
691.874	3491.1
692.063	3403.04
692.252	3421.47
692.442	3415.33
692.631	3403.04
692.82	3511.58
693.01	3460.38
693.199	3400.99
693.388	3341.6
693.578	3437.86
693.767	3411.23
693.956	3200.29
694.146	3374.37
694.335	3339.55
694.524	3407.14
694.713	3243.3
694.902	3554.59
695.092	3345.7
695.281	3476.77
695.47	3376.42
695.659	3478.82
695.848	3345.7
696.037	3403.04
696.226	3351.84
696.415	3337.51
696.604	3228.96
696.793	3335.46
696.982	3372.32
697.171	3294.5
697.36	3431.71
697.549	3329.31
697.738	3435.81
697.927	3357.99
698.116	3364.13
698.305	3261.73
698.494	3368.23
698.683	3269.92
698.872	3292.45
699.061	3429.66
699.25	3360.03
699.438	3325.22
699.627	3251.49
699.816	3325.22
700.005	3294.5
700.193	3247.4
700.382	3235.11
700.571	3140.9
700.76	3185.96
700.948	3220.77
701.137	3210.53
701.326	3208.48
701.514	3181.86
701.703	3159.33
701.892	3120.42
702.08	3175.72
702.269	3169.57
702.457	3177.76
702.646	3210.53
702.834	3138.85
703.023	2993.45
703.212	3138.85
703.4	3108.13
703.589	3007.78
703.777	3097.89
703.965	3183.91
704.154	3063.08
704.342	2977.06
704.531	3132.71
704.719	2962.73
704.907	3056.93
705.096	2968.87
705.284	2903.34
705.472	2942.25
705.661	2927.91
705.849	3018.02
706.037	2854.19
706.226	3054.89
706.414	3018.02
706.602	2923.82
706.79	2956.58
706.979	2856.23
707.167	2794.79
707.355	2821.42
707.543	2893.1
707.731	2821.42
707.919	2876.71
708.107	2809.13
708.296	2921.77
708.484	2850.09
708.672	2755.88
708.86	2704.68
709.048	2813.23
709.236	2762.03
709.424	2776.36
709.612	2696.49
709.8	2778.41
709.988	2704.68
710.176	2743.6
710.364	2680.11
710.551	2784.55
710.739	2553.13
710.927	2772.27
711.115	2598.19
711.303	2565.42
711.491	2590
711.679	2628.91
711.866	2616.62
712.054	2630.96
712.242	2508.08
712.43	2579.76
712.617	2544.94
712.805	2524.46
712.993	2512.18
713.181	2346.29
713.368	2469.17
713.556	2460.98
713.744	2415.92
713.931	2514.22
714.119	2350.39
714.306	2420.02
714.494	2520.37
714.682	2374.96
714.869	2413.87
715.057	2393.39
715.244	2264.37
715.432	2522.41
715.619	2366.77
715.807	2393.39
715.994	2282.8
716.182	2362.67
716.369	2389.3
716.556	2327.86
716.744	2301.23
716.931	2352.43
717.119	2282.8
717.306	2284.85
717.493	2198.84
717.681	2250.03
717.868	2174.26
718.055	2108.73
718.242	2303.28
718.43	2194.74
718.617	2202.93
718.804	2188.6
718.991	2178.36
719.179	2164.02
719.366	2184.5
719.553	2172.21
719.74	2190.64
719.927	2041.14
720.114	1991.99
720.301	2037.05
720.488	2147.64
720.676	2104.63
720.863	2073.91
721.05	2020.66
721.237	2088.25
721.424	1946.94
721.611	2053.43
721.798	1924.41
721.985	1991.99
722.172	1991.99
722.358	1987.89
722.545	1942.84
722.732	1942.84
722.919	1877.3
723.106	1867.06
723.293	1959.22
723.48	1916.22
723.667	1944.89
723.853	1928.5
724.04	1977.66
724.227	1899.83
724.414	1768.76
724.6	1789.24
724.787	1789.24
724.974	1918.26
725.161	1787.19
725.347	1801.53
725.534	1834.3
725.72	1817.91
725.907	1842.49
726.094	1729.85
726.28	1854.78
726.467	1795.39
726.653	1729.85
726.84	1740.09
727.027	1733.95
727.213	1774.91
727.4	1791.29
727.586	1641.79
727.773	1717.56
727.959	1643.84
728.145	1688.89
728.332	1652.03
728.518	1649.98
728.705	1686.84
728.891	1725.75
729.077	1619.26
729.264	1572.16
729.45	1621.31
729.636	1668.41
729.823	1582.4
730.009	1635.64
730.195	1576.25
730.382	1492.29
730.568	1465.66
730.754	1615.16
730.94	1604.92
731.126	1576.25
731.313	1609.02
731.499	1588.54
731.685	1647.93
731.871	1461.57
732.057	1559.87
732.243	1561.92
732.429	1516.86
732.615	1492.29
732.801	1541.44
732.987	1490.24
733.173	1363.26
733.359	1529.15
733.545	1502.53
733.731	1408.32
733.917	1498.43
734.103	1482.05
734.289	1549.63
734.475	1338.69
734.661	1432.9
734.847	1455.42
735.033	1363.26
735.219	1453.38
735.404	1406.27
735.59	1416.51
735.776	1389.89
735.962	1402.18
736.148	1473.85
736.333	1353.02
736.519	1416.51
736.705	1379.65
736.89	1402.18
737.076	1447.23
737.262	1299.78
737.447	1363.26
737.633	1318.21
737.819	1256.77
738.004	1379.65
738.19	1226.05
738.375	1328.45
738.561	1299.78
738.747	1219.91
738.932	1297.73
739.118	1318.21
739.303	1332.54
739.489	1236.29
739.674	1236.29
739.859	1273.15
740.045	1285.44
740.23	1240.39
740.416	1273.15
740.601	1258.82
740.786	1144.13
740.972	1181
741.157	1232.19
741.342	1172.8
741.528	1242.43
741.713	1103.17
741.898	1213.76
742.084	1269.06
742.269	1201.48
742.454	1178.95
742.639	1191.24
742.824	1146.18
743.01	1129.8
743.195	1176.9
743.38	1195.33
743.565	1170.76
743.75	1201.48
743.935	1099.08
744.12	1123.65
744.305	1236.29
744.49	1162.56
744.675	1078.6
744.86	1068.36
745.045	1183.04
745.23	1064.26
745.415	1064.26
745.6	970.05
745.785	1119.56
745.97	1088.84
746.155	1066.31
746.34	982.34
746.525	1090.88
746.71	1011.01
746.895	1017.16
747.079	1111.36
747.264	1056.07
747.449	996.68
747.634	976.2
747.819	1004.87
748.003	912.71
748.188	968.01
748.373	959.81
748.557	998.73
748.742	918.86
748.927	1027.4
749.111	1002.82
749.296	970.05
749.481	925
749.665	951.62
749.85	965.96
750.034	892.23
750.219	857.42
750.404	951.62
750.588	851.27
750.773	802.12
750.957	881.99
751.141	845.13
751.326	896.33
751.51	875.85
751.695	916.81
751.879	744.78
752.064	918.86
752.248	806.22
752.432	847.18
752.617	898.38
752.801	941.38
752.985	853.32
753.17	859.46
753.354	845.13
753.538	843.08
753.722	787.79
753.907	779.59
754.091	695.63
754.275	859.46
754.459	709.96
754.643	697.67
754.828	773.45
755.012	779.59
755.196	785.74
755.38	820.55
755.564	730.44
755.748	732.49
755.932	728.39
756.116	714.06
756.3	769.35
756.484	701.77
756.668	777.55
756.852	689.48
757.036	736.59
757.22	816.46
757.404	648.52
757.588	699.72
757.772	781.64
757.956	726.35
758.14	656.72
758.323	712.01
758.507	679.24
758.691	585.04
758.875	617.8
759.059	738.63
759.242	572.75
759.426	638.28
759.61	666.96
759.794	656.72
759.977	632.14
760.161	671.05
760.345	593.23
760.528	630.09
760.712	623.95
760.895	691.53
761.079	587.08
761.263	605.52
761.446	609.61
761.63	630.09
761.813	589.13
761.997	605.52
762.18	595.28
762.364	568.65
762.547	656.72
762.731	636.24
762.914	568.65
763.098	615.76
763.281	589.13
763.464	621.9
763.648	591.18
763.831	517.45
764.015	513.36
764.198	626
764.381	628.04
764.564	580.94
764.748	648.52
764.931	632.14
765.114	451.92
765.297	576.84
765.481	642.38
765.664	613.71
765.847	554.32
766.03	539.98
766.213	552.27
766.397	523.6
766.58	496.97
766.763	552.27
766.946	519.5
767.129	517.45
767.312	593.23
767.495	499.02
767.678	568.65
767.861	494.93
768.044	546.12
768.227	589.13
768.41	511.31
768.593	570.7
768.776	582.99
768.959	554.32
769.142	621.9
769.324	451.92
769.507	521.55
769.69	552.27
769.873	554.32
770.056	490.83
770.239	531.79
770.421	511.31
770.604	478.54
770.787	525.65
770.97	539.98
771.152	531.79
771.335	515.41
771.518	552.27
771.7	501.07
771.883	519.5
772.066	462.16
772.248	527.69
772.431	466.25
772.613	431.44
772.796	462.16
772.978	419.15
773.161	484.69
773.343	462.16
773.526	445.77
773.708	408.91
773.891	429.39
774.073	466.25
774.256	357.71
774.438	492.88
774.621	494.93
774.803	462.16
774.985	408.91
775.168	494.93
775.35	410.96
775.532	408.91
775.715	437.58
775.897	456.01
776.079	402.77
776.261	476.49
776.444	415.06
776.626	574.8
776.808	439.63
776.99	392.53
777.173	443.73
777.355	316.75
777.537	499.02
777.719	425.29
777.901	466.25
778.083	417.1
778.265	435.53
778.447	363.86
778.629	394.58
778.811	404.82
778.993	376.14
779.175	419.15
779.357	425.29
779.539	343.38
779.721	361.81
779.903	339.28
780.085	339.28
780.267	335.18
780.449	386.38
780.631	345.42
780.812	333.14
780.994	320.85
781.176	324.94
781.358	298.32
781.54	378.19
781.721	312.66
781.903	288.08
782.085	365.9
782.267	343.38
782.448	380.24
782.63	253.27
782.812	380.24
782.993	408.91
783.175	318.8
783.357	335.18
783.538	378.19
783.72	357.71
783.901	382.29
784.083	335.18
784.264	376.14
784.446	365.9
784.627	279.89
784.809	275.79
784.99	316.75
785.172	230.74
785.353	339.28
785.535	367.95
785.716	329.04
785.897	224.59
786.079	265.55
786.26	286.03
786.441	372.05
786.623	259.41
786.804	296.27
786.985	236.88
787.167	316.75
787.348	359.76
787.529	306.51
787.71	263.51
787.891	281.94
788.073	226.64
788.254	267.6
788.435	322.9
788.616	318.8
788.797	312.66
788.978	263.51
789.159	173.39
789.34	232.79
789.522	228.69
789.703	269.65
789.884	271.7
790.065	243.03
790.246	238.93
790.427	234.83
790.607	204.11
790.788	191.83
790.969	243.03
791.15	195.92
791.331	259.41
791.512	171.35
791.693	218.45
791.874	243.03
792.054	269.65
792.235	220.5
792.416	212.31
792.597	236.88
792.778	224.59
792.958	204.11
793.139	218.45
793.32	238.93
793.5	134.48
793.681	206.16
793.862	226.64
794.042	202.07
794.223	234.83
794.404	179.54
794.584	216.4
794.765	195.92
794.945	144.72
795.126	255.31
795.306	159.06
795.487	245.07
795.667	177.49
795.848	255.31
796.028	204.11
796.209	148.82
796.389	224.59
796.57	238.93
796.75	296.27
796.93	253.27
797.111	138.58
797.291	126.29
797.471	171.35
797.652	185.68
797.832	165.2
798.012	195.92
798.192	124.24
798.373	171.35
798.553	140.63
798.733	75.09
798.913	32.08
799.093	130.39
799.274	126.29
799.454	126.29
799.634	251.22
799.814	175.44
799.994	183.63
800.174	177.49
800.354	99.67
800.534	187.73
800.714	165.2
800.894	189.78
801.074	179.54
801.254	245.07
801.434	165.2
801.614	181.59
801.794	99.67
801.974	468.3
802.154	189.78
802.334	187.73
802.514	238.93
802.693	99.67
802.873	181.59
803.053	132.44
803.233	152.91
803.413	120.15
803.592	187.73
803.772	212.31
803.952	144.72
804.131	89.43
804.311	157.01
804.491	226.64
804.67	42.32
804.85	132.44
805.03	116.05
805.209	171.35
805.389	144.72
805.568	152.91
805.748	116.05
805.928	128.34
806.107	140.63
806.287	99.67
806.466	150.87
806.646	114
806.825	107.86
807.004	130.39
807.184	226.64
807.363	179.54
807.543	99.67
807.722	152.91
807.901	163.15
808.081	103.76
808.26	73.04
808.439	114
808.619	97.62
808.798	75.09
808.977	157.01
809.156	142.68
809.336	79.19
809.515	118.1
809.694	187.73
809.873	120.15
810.052	134.48
810.231	130.39
810.411	144.72
810.59	111.96
810.769	105.81
810.948	89.43
811.127	83.28
811.306	161.11
811.485	146.77
811.664	216.4
811.843	101.72
812.022	107.86
812.201	101.72
812.38	103.76
812.559	154.96
812.737	48.47
812.916	64.85
813.095	77.14
813.274	103.76
813.453	73.04
813.632	79.19
813.811	154.96
813.989	32.08
814.168	116.05
814.347	124.24
814.526	179.54
814.704	109.91
814.883	132.44
815.062	140.63
815.24	107.86
815.419	124.24
815.598	122.2
815.776	68.95
815.955	97.62
816.133	68.95
816.312	56.66
816.49	91.48
816.669	144.72
816.847	111.96
817.026	107.86
817.204	48.47
817.383	140.63
817.561	46.42
817.74	132.44
817.918	68.95
818.097	75.09
818.275	32.08
818.453	101.72
818.632	132.44
818.81	36.18
818.988	89.43
819.167	91.48
819.345	79.19
819.523	48.47
819.701	83.28
819.879	95.57
820.058	93.52
820.236	130.39
820.414	15.7
820.592	83.28
820.77	120.15
820.948	58.71
821.127	17.75
821.305	62.8
821.483	89.43
821.661	79.19
821.839	62.8
822.017	73.04
822.195	116.05
822.373	103.76
822.551	-23.21
822.729	136.53
822.907	97.62
823.085	89.43
823.262	19.8
823.44	107.86
823.618	54.61
823.796	146.77
823.974	77.14
824.152	128.34
824.329	75.09
824.507	124.24
824.685	124.24
824.863	89.43
825.04	93.52
825.218	48.47
825.396	66.9
825.574	105.81
825.751	105.81
825.929	83.28
826.107	79.19
826.284	89.43
826.462	68.95
826.639	52.56
826.817	46.42
826.994	36.18
827.172	60.76
827.349	148.82
827.527	64.85
827.704	122.2
827.882	83.28
828.059	68.95
828.237	15.7
828.414	42.32
828.591	30.04
828.769	-19.11
828.946	5.46
829.124	120.15
829.301	-17.07
829.478	64.85
829.655	120.15
829.833	64.85
830.01	23.89
830.187	64.85
830.364	97.62
830.542	52.56
830.719	136.53
830.896	48.47
831.073	40.28
831.25	109.91
831.427	103.76
831.604	109.91
831.782	-8.87
831.959	23.89
832.136	52.56
832.313	48.47
832.49	64.85
832.667	85.33
832.844	73.04
833.021	17.75
833.198	48.47
833.374	85.33
833.551	124.24
833.728	50.52
833.905	32.08
834.082	7.51
834.259	83.28
834.436	-6.83
834.612	-17.07
834.789	17.75
834.966	52.56
835.143	34.13
835.319	52.56
835.496	62.8
835.673	9.56
835.85	75.09
836.026	54.61
836.203	93.52
836.38	25.94
836.556	71
836.733	64.85
836.909	103.76
837.086	75.09
837.262	101.72
837.439	97.62
837.616	34.13
837.792	38.23
837.968	11.61
838.145	-6.83
838.321	-12.97
838.498	152.91
838.674	48.47
838.851	-23.21
839.027	36.18
839.203	36.18
839.38	52.56
839.556	120.15
839.732	32.08
839.909	81.24
840.085	56.66
840.261	56.66
840.437	56.66
840.614	30.04
840.79	64.85
840.966	34.13
841.142	27.99
841.318	75.09
841.494	68.95
841.671	79.19
841.847	77.14
842.023	15.7
842.199	68.95
842.375	83.28
842.551	87.38
842.727	62.8
842.903	48.47
843.079	15.7
843.255	107.86
843.431	42.32
843.607	99.67
843.783	13.65
843.959	40.28
844.134	30.04
844.31	105.81
844.486	-8.87
844.662	56.66
844.838	17.75
845.013	38.23
845.189	40.28
845.365	75.09
845.541	66.9
845.716	13.65
845.892	34.13
846.068	50.52
846.244	85.33
846.419	1.37
846.595	11.61
846.77	64.85
846.946	62.8
847.122	64.85
847.297	77.14
847.473	9.56
847.648	73.04
847.824	54.61
847.999	3.41
848.175	83.28
848.35	73.04
848.526	99.67
848.701	1.37
848.876	44.37
849.052	62.8
849.227	27.99
849.403	-6.83
849.578	19.8
849.753	-62.12
849.929	48.47
850.104	44.37
850.279	27.99
850.454	-10.92
850.63	85.33
850.805	19.8
850.98	27.99
851.155	42.32
851.33	27.99
851.505	3.41
851.681	38.23
851.856	85.33
852.031	52.56
852.206	19.8
852.381	11.61
852.556	46.42
852.731	83.28
852.906	17.75
853.081	124.24
853.256	81.24
853.431	38.23
853.606	27.99
853.781	-2.73
853.956	-0.68
854.131	107.86
854.305	32.08
854.48	-31.4
854.655	-17.07
854.83	52.56
855.005	13.65
855.18	32.08
855.354	85.33
855.529	54.61
855.704	36.18
855.879	68.95
856.053	73.04
856.228	9.56
856.403	-27.31
856.577	-12.97
856.752	38.23
856.926	-12.97
857.101	3.41
857.276	25.94
857.45	56.66
857.625	-4.78
857.799	91.48
857.974	52.56
858.148	-31.4
858.323	83.28
858.497	23.89
858.672	7.51
858.846	36.18
859.02	40.28
859.195	34.13
859.369	15.7
859.543	19.8
859.718	23.89
859.892	42.32
860.066	48.47
860.241	-8.87
860.415	34.13
860.589	11.61
860.763	11.61
860.938	38.23
861.112	-0.68
861.286	-45.74
861.46	38.23
861.634	15.7
861.808	73.04
861.982	1.37
862.157	-2.73
862.331	48.47
862.505	64.85
862.679	7.51
862.853	97.62
863.027	-17.07
863.201	3.41
863.375	-15.02
863.549	68.95
863.722	-23.21
863.896	48.47
864.07	42.32
864.244	13.65
864.418	71
864.592	-60.07
864.766	130.39
864.939	9.56
865.113	-66.22
865.287	79.19
865.461	-8.87
865.634	-25.26
865.808	38.23
865.982	-35.5
866.156	50.52
866.329	71
866.503	107.86
866.676	32.08
866.85	-6.83
867.024	-39.59
867.197	71
867.371	25.94
867.544	3.41
867.718	25.94
867.891	11.61
868.065	32.08
868.238	3.41
868.412	7.51
868.585	3.41
868.759	97.62
868.932	27.99
869.105	3.41
869.279	-27.31
869.452	54.61
869.625	-15.02
869.799	56.66
869.972	-19.11
870.145	64.85
870.319	-6.83
870.492	-21.16
870.665	-17.07
870.838	23.89
871.011	-6.83
871.185	64.85
871.358	66.9
871.531	-10.92
871.704	81.24
871.877	66.9
872.05	17.75
872.223	58.71
872.396	3.41
872.569	48.47
872.742	15.7
872.915	54.61
873.088	-66.22
873.261	-8.87
873.434	23.89
873.607	1.37
873.78	-35.5
873.953	11.61
874.126	-19.11
874.299	15.7
874.471	32.08
874.644	54.61
874.817	30.04
874.99	27.99
875.163	11.61
875.335	19.8
875.508	-8.87
875.681	1.37
875.853	66.9
876.026	-4.78
876.199	46.42
876.371	60.76
876.544	30.04
876.717	19.8
876.889	9.56
877.062	15.7
877.234	-6.83
877.407	58.71
877.579	32.08
877.752	11.61
877.924	64.85
878.097	-45.74
878.269	-21.16
878.442	42.32
878.614	52.56
878.786	56.66
878.959	42.32
879.131	73.04
879.303	32.08
879.476	-2.73
879.648	66.9
879.82	46.42
879.993	9.56
880.165	-0.68
880.337	44.37
880.509	40.28
880.681	-4.78
880.854	11.61
881.026	107.86
881.198	40.28
881.37	48.47
881.542	-8.87
881.714	71
881.886	-41.64
882.058	-10.92
882.23	11.61
882.402	36.18
882.574	48.47
882.746	42.32
882.918	40.28
883.09	11.61
883.262	19.8
883.434	-39.59
883.606	-19.11
883.778	-0.68
883.95	1.37
884.122	-27.31
884.293	62.8
884.465	48.47
884.637	68.95
884.809	56.66
884.98	44.37
885.152	38.23
885.324	-6.83
885.496	38.23
885.667	77.14
885.839	-0.68
886.011	34.13
886.182	19.8
886.354	64.85
886.525	36.18
886.697	3.41
886.869	19.8
887.04	73.04
887.212	-8.87
887.383	-6.83
887.555	-6.83
887.726	9.56
887.897	-12.97
888.069	-55.98
888.24	11.61
888.412	66.9
888.583	5.46
888.754	60.76
888.926	-6.83
889.097	-33.45
889.268	64.85
889.44	34.13
889.611	56.66
889.782	52.56
889.953	-29.35
890.125	99.67
890.296	5.46
890.467	25.94
890.638	68.95
890.809	-8.87
890.98	7.51
891.151	124.24
891.323	40.28
891.494	42.32
891.665	19.8
891.836	38.23
892.007	-94.89
892.178	73.04
892.349	42.32
892.52	25.94
892.691	56.66
892.862	-27.31
893.032	-6.83
893.203	34.13
893.374	38.23
893.545	17.75
893.716	-17.07
893.887	3.41
894.057	-45.74
894.228	19.8
894.399	25.94
894.57	50.52
894.74	-4.78
894.911	-45.74
895.082	1.37
895.253	52.56
895.423	42.32
895.594	-0.68
895.764	23.89
895.935	34.13
896.106	50.52
896.276	13.65
896.447	-12.97
896.617	9.56
896.788	-8.87
896.958	-2.73
897.129	-49.83
897.299	50.52
897.47	-43.69
897.64	30.04
897.81	25.94
897.981	60.76
898.151	-47.79
898.322	-53.93
898.492	23.89
898.662	36.18
898.832	42.32
899.003	15.7
899.173	21.85
899.343	-25.26
899.513	32.08
