Data from USB4F104151__137__13-58-09-777.txt Node

Date: Thu Mar 13 13:58:09 EDT 2025
User: louis
Spectrometer: USB4F10415
Trigger mode: 4
Integration Time (sec): 1.000000E-2
Scans to average: 1
Electric dark correction enabled: true
Nonlinearity correction enabled: false
Boxcar width: 0
XAxis mode: Wavelengths
Number of Pixels in Spectrum: 3648
>>>>>Begin Spectral Data<<<<<
178.204	-128
178.424	-128
178.644	-128
178.864	-25.6
179.084	-76.8
179.304	19.46
179.524	-44.03
179.744	5.12
179.964	33.79
180.184	-41.98
180.404	56.32
180.624	-37.89
180.844	-23.55
181.064	-21.5
181.283	-13.31
181.503	33.79
181.723	33.79
181.943	-5.12
182.163	-25.6
182.383	31.74
182.602	19.46
182.822	-7.17
183.042	-21.5
183.262	-1.02
183.482	50.18
183.701	-33.79
183.921	21.5
184.141	15.36
184.361	56.32
184.58	3.07
184.8	-19.46
185.02	-5.12
185.239	-41.98
185.459	33.79
185.679	21.5
185.898	3.07
186.118	23.55
186.338	15.36
186.557	54.27
186.777	21.5
186.997	23.55
187.216	-7.17
187.436	23.55
187.655	46.08
187.875	15.36
188.095	25.6
188.314	41.98
188.534	44.03
188.753	-15.36
188.973	44.03
189.192	52.22
189.412	27.65
189.631	41.98
189.851	19.46
190.07	52.22
190.29	35.84
190.509	9.22
190.729	-7.17
190.948	13.31
191.168	144.38
191.387	66.56
191.607	-60.42
191.826	84.99
192.045	52.22
192.265	-9.22
192.484	-39.94
192.704	7.17
192.923	58.37
193.142	23.55
193.362	25.6
193.581	74.75
193.8	-7.17
194.02	-31.74
194.239	29.7
194.458	48.13
194.678	13.31
194.897	-76.8
195.116	-11.26
195.335	78.85
195.555	66.56
195.774	60.42
195.993	33.79
196.212	17.41
196.432	37.89
196.651	25.6
196.87	17.41
197.089	5.12
197.308	1.02
197.528	91.13
197.747	-3.07
197.966	1.02
198.185	37.89
198.404	64.51
198.623	25.6
198.842	27.65
199.062	1.02
199.281	48.13
199.5	-11.26
199.719	-31.74
199.938	21.5
200.157	113.66
200.376	37.89
200.595	31.74
200.814	7.17
201.033	17.41
201.252	27.65
201.471	13.31
201.69	39.94
201.909	37.89
202.128	68.61
202.347	52.22
202.566	41.98
202.785	-27.65
203.004	11.26
203.223	-39.94
203.442	72.7
203.661	-1.02
203.879	15.36
204.098	-19.46
204.317	68.61
204.536	23.55
204.755	17.41
204.974	-15.36
205.193	-7.17
205.411	27.65
205.63	58.37
205.849	119.81
206.068	19.46
206.287	19.46
206.505	13.31
206.724	-72.7
206.943	-68.61
207.162	17.41
207.381	23.55
207.599	19.46
207.818	39.94
208.037	-44.03
208.255	33.79
208.474	119.81
208.693	5.12
208.911	17.41
209.13	13.31
209.349	-5.12
209.567	5.12
209.786	31.74
210.005	-1.02
210.223	29.7
210.442	-66.56
210.661	15.36
210.879	-5.12
211.098	97.28
211.316	-9.22
211.535	9.22
211.753	-33.79
211.972	76.8
212.191	35.84
212.409	39.94
212.628	41.98
212.846	115.71
213.065	64.51
213.283	37.89
213.502	-52.22
213.72	41.98
213.938	105.47
214.157	89.09
214.375	-11.26
214.594	5.12
214.812	33.79
215.031	41.98
215.249	35.84
215.467	132.09
215.686	58.37
215.904	87.04
216.122	21.5
216.341	33.79
216.559	23.55
216.778	15.36
216.996	3.07
217.214	-27.65
217.432	60.42
217.651	-1.02
217.869	-5.12
218.087	58.37
218.306	3.07
218.524	31.74
218.742	64.51
218.96	15.36
219.179	46.08
219.397	33.79
219.615	70.65
219.833	-1.02
220.051	7.17
220.27	33.79
220.488	9.22
220.706	56.32
220.924	52.22
221.142	13.31
221.36	35.84
221.578	-23.55
221.796	17.41
222.015	31.74
222.233	46.08
222.451	46.08
222.669	41.98
222.887	37.89
223.105	21.5
223.323	19.46
223.541	-29.7
223.759	-17.41
223.977	21.5
224.195	35.84
224.413	-25.6
224.631	27.65
224.849	-17.41
225.067	105.47
225.285	11.26
225.503	62.46
225.721	17.41
225.939	13.31
226.157	-13.31
226.375	50.18
226.592	21.5
226.81	48.13
227.028	-19.46
227.246	58.37
227.464	13.31
227.682	11.26
227.9	41.98
228.117	-13.31
228.335	23.55
228.553	9.22
228.771	11.26
228.989	70.65
229.206	-3.07
229.424	89.09
229.642	25.6
229.86	50.18
230.077	-21.5
230.295	52.22
230.513	9.22
230.731	29.7
230.948	5.12
231.166	37.89
231.384	46.08
231.601	33.79
231.819	-25.6
232.037	-5.12
232.254	5.12
232.472	-15.36
232.689	41.98
232.907	68.61
233.125	17.41
233.342	-1.02
233.56	99.33
233.777	29.7
233.995	9.22
234.213	82.94
234.43	33.79
234.648	19.46
234.865	-7.17
235.083	54.27
235.3	7.17
235.518	76.8
235.735	-29.7
235.953	62.46
236.17	37.89
236.388	-11.26
236.605	31.74
236.822	76.8
237.04	7.17
237.257	70.65
237.475	54.27
237.692	5.12
237.909	44.03
238.127	-19.46
238.344	9.22
238.562	37.89
238.779	-23.55
238.996	-44.03
239.214	-56.32
239.431	39.94
239.648	76.8
239.865	62.46
240.083	74.75
240.3	78.85
240.517	60.42
240.735	21.5
240.952	72.7
241.169	-25.6
241.386	-13.31
241.603	33.79
241.821	-17.41
242.038	-52.22
242.255	17.41
242.472	-7.17
242.689	44.03
242.907	-5.12
243.124	29.7
243.341	-39.94
243.558	29.7
243.775	54.27
243.992	29.7
244.209	68.61
244.426	68.61
244.643	54.27
244.86	3.07
245.078	78.85
245.295	13.31
245.512	-15.36
245.729	-52.22
245.946	62.46
246.163	-3.07
246.38	-25.6
246.597	13.31
246.814	76.8
247.031	19.46
247.248	93.18
247.464	82.94
247.681	5.12
247.898	29.7
248.115	-19.46
248.332	21.5
248.549	21.5
248.766	35.84
248.983	74.75
249.2	29.7
249.417	54.27
249.633	3.07
249.85	37.89
250.067	35.84
250.284	9.22
250.501	78.85
250.717	74.75
250.934	29.7
251.151	52.22
251.368	7.17
251.585	70.65
251.801	-11.26
252.018	5.12
252.235	33.79
252.451	25.6
252.668	60.42
252.885	3.07
253.102	-21.5
253.318	-9.22
253.535	-41.98
253.752	48.13
253.968	60.42
254.185	-41.98
254.401	-13.31
254.618	37.89
254.835	44.03
255.051	41.98
255.268	41.98
255.484	39.94
255.701	91.13
255.917	62.46
256.134	54.27
256.351	64.51
256.567	-13.31
256.784	46.08
257	15.36
257.217	21.5
257.433	23.55
257.65	9.22
257.866	-39.94
258.082	-21.5
258.299	17.41
258.515	21.5
258.732	-27.65
258.948	50.18
259.165	68.61
259.381	27.65
259.597	-46.08
259.814	-68.61
260.03	23.55
260.246	7.17
260.463	48.13
260.679	93.18
260.895	-1.02
261.112	-7.17
261.328	23.55
261.544	111.61
261.761	9.22
261.977	31.74
262.193	25.6
262.409	95.23
262.626	3.07
262.842	56.32
263.058	-7.17
263.274	89.09
263.49	37.89
263.707	39.94
263.923	82.94
264.139	-19.46
264.355	82.94
264.571	103.42
264.787	25.6
265.004	103.42
265.22	5.12
265.436	58.37
265.652	27.65
265.868	44.03
266.084	87.04
266.3	70.65
266.516	87.04
266.732	-1.02
266.948	25.6
267.164	64.51
267.38	46.08
267.596	105.47
267.812	5.12
268.028	33.79
268.244	39.94
268.46	89.09
268.676	60.42
268.892	9.22
269.108	-21.5
269.324	33.79
269.54	-50.18
269.756	-41.98
269.972	70.65
270.188	27.65
270.403	46.08
270.619	-11.26
270.835	-21.5
271.051	54.27
271.267	-1.02
271.483	89.09
271.698	41.98
271.914	89.09
272.13	41.98
272.346	39.94
272.562	-1.02
272.777	29.7
272.993	13.31
273.209	29.7
273.425	60.42
273.64	56.32
273.856	111.61
274.072	19.46
274.287	9.22
274.503	54.27
274.719	35.84
274.934	82.94
275.15	66.56
275.366	50.18
275.581	19.46
275.797	46.08
276.012	68.61
276.228	-9.22
276.444	-17.41
276.659	80.89
276.875	27.65
277.09	62.46
277.306	27.65
277.521	97.28
277.737	-41.98
277.952	54.27
278.168	-17.41
278.383	1.02
278.599	72.7
278.814	25.6
279.03	13.31
279.245	25.6
279.461	7.17
279.676	68.61
279.892	9.22
280.107	39.94
280.322	-17.41
280.538	17.41
280.753	23.55
280.969	29.7
281.184	27.65
281.399	72.7
281.615	-23.55
281.83	21.5
282.045	72.7
282.26	66.56
282.476	7.17
282.691	95.23
282.906	31.74
283.122	3.07
283.337	119.81
283.552	103.42
283.767	17.41
283.983	58.37
284.198	3.07
284.413	35.84
284.628	80.89
284.843	82.94
285.058	41.98
285.274	62.46
285.489	-3.07
285.704	103.42
285.919	58.37
286.134	13.31
286.349	11.26
286.564	95.23
286.779	41.98
286.995	39.94
287.21	44.03
287.425	-46.08
287.64	-54.27
287.855	46.08
288.07	52.22
288.285	62.46
288.5	91.13
288.715	89.09
288.93	-1.02
289.145	21.5
289.36	62.46
289.575	25.6
289.79	27.65
290.004	78.85
290.219	33.79
290.434	5.12
290.649	29.7
290.864	48.13
291.079	35.84
291.294	39.94
291.509	82.94
291.724	-9.22
291.938	11.26
292.153	13.31
292.368	-19.46
292.583	58.37
292.798	111.61
293.012	33.79
293.227	58.37
293.442	27.65
293.657	-27.65
293.871	27.65
294.086	29.7
294.301	7.17
294.516	5.12
294.73	58.37
294.945	58.37
295.16	72.7
295.374	58.37
295.589	68.61
295.804	-19.46
296.018	76.8
296.233	-50.18
296.447	-13.31
296.662	60.42
296.877	29.7
297.091	91.13
297.306	11.26
297.52	33.79
297.735	21.5
297.949	50.18
298.164	64.51
298.378	-25.6
298.593	17.41
298.807	37.89
299.022	76.8
299.236	-21.5
299.451	41.98
299.665	-23.55
299.88	29.7
300.094	29.7
300.309	1.02
300.523	19.46
300.737	-46.08
300.952	9.22
301.166	52.22
301.381	17.41
301.595	-35.84
301.809	19.46
302.024	-3.07
302.238	-5.12
302.452	84.99
302.667	52.22
302.881	5.12
303.095	50.18
303.309	41.98
303.524	76.8
303.738	37.89
303.952	-25.6
304.166	-1.02
304.381	7.17
304.595	74.75
304.809	39.94
305.023	-3.07
305.237	52.22
305.452	46.08
305.666	48.13
305.88	-54.27
306.094	9.22
306.308	33.79
306.522	31.74
306.736	37.89
306.95	99.33
307.164	5.12
307.379	-29.7
307.593	9.22
307.807	27.65
308.021	29.7
308.235	5.12
308.449	13.31
308.663	48.13
308.877	48.13
309.091	89.09
309.305	62.46
309.519	1.02
309.733	9.22
309.947	-1.02
310.161	-29.7
310.374	56.32
310.588	-19.46
310.802	-13.31
311.016	3.07
311.23	17.41
311.444	-17.41
311.658	58.37
311.872	54.27
312.085	-19.46
312.299	52.22
312.513	72.7
312.727	17.41
312.941	-25.6
313.154	48.13
313.368	-1.02
313.582	80.89
313.796	27.65
314.009	33.79
314.223	62.46
314.437	39.94
314.651	41.98
314.864	-17.41
315.078	-35.84
315.292	50.18
315.505	5.12
315.719	66.56
315.933	70.65
316.146	54.27
316.36	27.65
316.573	33.79
316.787	76.8
317.001	17.41
317.214	23.55
317.428	68.61
317.641	56.32
317.855	35.84
318.068	25.6
318.282	82.94
318.495	44.03
318.709	46.08
318.922	60.42
319.136	115.71
319.349	11.26
319.563	68.61
319.776	13.31
319.99	29.7
320.203	99.33
320.417	33.79
320.63	78.85
320.843	121.85
321.057	21.5
321.27	54.27
321.483	-23.55
321.697	9.22
321.91	25.6
322.124	41.98
322.337	-1.02
322.55	-52.22
322.763	1.02
322.977	46.08
323.19	-1.02
323.403	46.08
323.617	27.65
323.83	82.94
324.043	11.26
324.256	9.22
324.469	23.55
324.683	33.79
324.896	72.7
325.109	56.32
325.322	15.36
325.535	50.18
325.748	17.41
325.962	52.22
326.175	5.12
326.388	-23.55
326.601	44.03
326.814	31.74
327.027	-41.98
327.24	78.85
327.453	5.12
327.666	23.55
327.879	76.8
328.092	119.81
328.305	-35.84
328.518	-23.55
328.731	17.41
328.944	5.12
329.157	-1.02
329.37	-1.02
329.583	136.19
329.796	33.79
330.009	-52.22
330.222	11.26
330.435	58.37
330.648	58.37
330.861	33.79
331.073	39.94
331.286	-5.12
331.499	93.18
331.712	15.36
331.925	54.27
332.138	-41.98
332.35	-3.07
332.563	27.65
332.776	82.94
332.989	44.03
333.202	58.37
333.414	54.27
333.627	66.56
333.84	56.32
334.053	21.5
334.265	-66.56
334.478	72.7
334.691	56.32
334.903	-21.5
335.116	-31.74
335.329	31.74
335.541	-1.02
335.754	41.98
335.966	48.13
336.179	13.31
336.392	39.94
336.604	5.12
336.817	56.32
337.029	56.32
337.242	-1.02
337.454	39.94
337.667	17.41
337.88	21.5
338.092	-29.7
338.305	54.27
338.517	17.41
338.729	-31.74
338.942	7.17
339.154	-3.07
339.367	19.46
339.579	54.27
339.792	46.08
340.004	66.56
340.217	50.18
340.429	93.18
340.641	7.17
340.854	17.41
341.066	29.7
341.278	11.26
341.491	48.13
341.703	-15.36
341.915	37.89
342.128	21.5
342.34	39.94
342.552	-7.17
342.764	46.08
342.977	128
343.189	54.27
343.401	46.08
343.613	39.94
343.826	78.85
344.038	-23.55
344.25	111.61
344.462	78.85
344.674	46.08
344.886	9.22
345.099	74.75
345.311	1.02
345.523	89.09
345.735	33.79
345.947	50.18
346.159	-13.31
346.371	84.99
346.583	21.5
346.795	62.46
347.007	29.7
347.219	76.8
347.431	60.42
347.643	13.31
347.855	56.32
348.067	72.7
348.279	5.12
348.491	-37.89
348.703	39.94
348.915	-11.26
349.127	87.04
349.339	13.31
349.551	-33.79
349.763	50.18
349.975	31.74
350.187	-1.02
350.399	29.7
350.61	82.94
350.822	39.94
351.034	62.46
351.246	23.55
351.458	46.08
351.669	87.04
351.881	46.08
352.093	54.27
352.305	82.94
352.517	-13.31
352.728	-27.65
352.94	-15.36
353.152	185.34
353.363	23.55
353.575	78.85
353.787	44.03
353.999	70.65
354.21	44.03
354.422	46.08
354.633	82.94
354.845	46.08
355.057	39.94
355.268	37.89
355.48	-5.12
355.692	13.31
355.903	52.22
356.115	-11.26
356.326	15.36
356.538	60.42
356.749	-39.94
356.961	35.84
357.172	66.56
357.384	64.51
357.595	-1.02
357.807	46.08
358.018	13.31
358.23	9.22
358.441	46.08
358.653	107.52
358.864	31.74
359.075	19.46
359.287	-3.07
359.498	13.31
359.709	31.74
359.921	27.65
360.132	95.23
360.344	64.51
360.555	-15.36
360.766	1.02
360.977	3.07
361.189	3.07
361.4	19.46
361.611	21.5
361.823	19.46
362.034	29.7
362.245	-29.7
362.456	93.18
362.667	44.03
362.879	37.89
363.09	21.5
363.301	7.17
363.512	-46.08
363.723	105.47
363.935	23.55
364.146	50.18
364.357	60.42
364.568	54.27
364.779	29.7
364.99	25.6
365.201	35.84
365.412	5.12
365.623	44.03
365.834	39.94
366.045	13.31
366.256	3.07
366.467	25.6
366.678	13.31
366.889	64.51
367.1	44.03
367.311	7.17
367.522	54.27
367.733	35.84
367.944	-7.17
368.155	-25.6
368.366	27.65
368.577	82.94
368.788	66.56
368.999	58.37
369.209	23.55
369.42	82.94
369.631	29.7
369.842	-17.41
370.053	-19.46
370.264	5.12
370.474	37.89
370.685	97.28
370.896	-25.6
371.107	95.23
371.317	-7.17
371.528	-13.31
371.739	68.61
371.95	23.55
372.16	21.5
372.371	1.02
372.582	70.65
372.792	37.89
373.003	87.04
373.214	62.46
373.424	-19.46
373.635	21.5
373.846	-1.02
374.056	23.55
374.267	74.75
374.477	-11.26
374.688	7.17
374.898	46.08
375.109	21.5
375.319	-1.02
375.53	60.42
375.74	-7.17
375.951	17.41
376.161	123.9
376.372	82.94
376.582	-13.31
376.793	52.22
377.003	5.12
377.214	74.75
377.424	7.17
377.635	48.13
377.845	29.7
378.055	31.74
378.266	1.02
378.476	21.5
378.686	21.5
378.897	7.17
379.107	-9.22
379.317	25.6
379.528	72.7
379.738	13.31
379.948	13.31
380.158	21.5
380.369	68.61
380.579	41.98
380.789	-46.08
380.999	62.46
381.21	78.85
381.42	119.81
381.63	29.7
381.84	37.89
382.05	48.13
382.261	29.7
382.471	-52.22
382.681	23.55
382.891	50.18
383.101	70.65
383.311	37.89
383.521	41.98
383.731	7.17
383.941	68.61
384.151	9.22
384.361	27.65
384.571	68.61
384.781	89.09
384.991	-17.41
385.201	70.65
385.411	50.18
385.621	-3.07
385.831	-15.36
386.041	13.31
386.251	-11.26
386.461	31.74
386.671	31.74
386.881	66.56
387.091	46.08
387.301	64.51
387.511	72.7
387.72	58.37
387.93	54.27
388.14	37.89
388.35	54.27
388.56	29.7
388.769	5.12
388.979	46.08
389.189	48.13
389.399	48.13
389.609	68.61
389.818	25.6
390.028	62.46
390.238	50.18
390.447	74.75
390.657	56.32
390.867	17.41
391.076	-27.65
391.286	44.03
391.496	119.81
391.705	50.18
391.915	7.17
392.125	27.65
392.334	11.26
392.544	52.22
392.753	66.56
392.963	37.89
393.172	9.22
393.382	29.7
393.591	105.47
393.801	46.08
394.01	82.94
394.22	-7.17
394.429	95.23
394.639	13.31
394.848	37.89
395.058	11.26
395.267	50.18
395.477	66.56
395.686	82.94
395.895	78.85
396.105	37.89
396.314	107.52
396.524	82.94
396.733	39.94
396.942	46.08
397.152	29.7
397.361	11.26
397.57	60.42
397.78	103.42
397.989	82.94
398.198	87.04
398.407	60.42
398.617	41.98
398.826	101.37
399.035	50.18
399.244	44.03
399.453	41.98
399.663	78.85
399.872	121.85
400.081	103.42
400.29	76.8
400.499	37.89
400.708	128
400.917	-1.02
401.127	37.89
401.336	68.61
401.545	130.05
401.754	103.42
401.963	62.46
402.172	72.7
402.381	78.85
402.59	-5.12
402.799	78.85
403.008	23.55
403.217	78.85
403.426	52.22
403.635	64.51
403.844	-15.36
404.053	99.33
404.262	105.47
404.471	25.6
404.68	17.41
404.888	87.04
405.097	33.79
405.306	101.37
405.515	39.94
405.724	105.47
405.933	99.33
406.142	109.57
406.35	46.08
406.559	164.86
406.768	128
406.977	171.01
407.185	91.13
407.394	125.95
407.603	89.09
407.812	128
408.02	103.42
408.229	95.23
408.438	74.75
408.646	82.94
408.855	132.09
409.064	-5.12
409.272	23.55
409.481	111.61
409.69	93.18
409.898	152.57
410.107	35.84
410.315	87.04
410.524	39.94
410.733	140.29
410.941	101.37
411.15	148.48
411.358	166.91
411.567	160.77
411.775	107.52
411.984	218.11
412.192	226.3
412.401	187.39
412.609	191.49
412.818	191.49
413.026	177.15
413.234	203.77
413.443	214.01
413.651	269.31
413.86	304.12
414.068	283.64
414.276	232.44
414.485	242.68
414.693	216.06
414.901	312.32
415.11	263.16
415.318	332.79
415.526	238.59
415.734	300.03
415.943	318.46
416.151	277.5
416.359	318.46
416.567	340.99
416.776	343.03
416.984	433.15
417.192	420.86
417.4	394.23
417.608	351.23
417.817	386.04
418.025	396.28
418.233	470.01
418.441	441.34
418.649	478.2
418.857	373.75
419.065	519.16
419.273	543.74
419.481	586.74
419.689	637.94
419.897	556.02
420.105	525.3
420.313	504.82
420.521	619.51
420.729	613.37
420.937	656.37
421.145	627.7
421.353	703.48
421.561	715.77
421.769	756.72
421.977	746.48
422.185	715.77
422.393	699.38
422.601	785.4
422.809	865.27
423.017	799.73
423.224	889.84
423.432	877.55
423.64	857.07
423.848	1008.62
424.056	965.62
424.263	1037.3
424.471	1014.77
424.679	1031.15
424.887	1135.6
425.094	1119.21
425.302	1143.79
425.51	1180.65
425.718	1238
425.925	1213.42
426.133	1246.19
426.341	1276.91
426.548	1297.39
426.756	1309.68
426.964	1336.3
427.171	1438.7
427.379	1502.19
427.586	1565.67
427.794	1600.49
428.001	1788.9
428.209	1717.22
428.417	1774.56
428.624	1795.04
428.832	1934.31
429.039	1811.43
429.247	1786.85
429.454	1973.22
429.662	2139.1
429.869	2020.32
430.076	2151.39
430.284	2108.38
430.491	2167.77
430.699	2360.28
430.906	2311.13
431.114	2294.75
431.321	2513.88
431.528	2491.35
431.736	2649.05
431.943	2626.52
432.15	2681.82
432.358	2706.39
432.565	2849.75
432.772	2800.6
432.979	3048.4
433.187	2847.7
433.394	3021.78
433.601	3134.42
433.808	3224.53
434.016	3097.55
434.223	3204.05
434.43	3572.68
434.637	3531.72
434.844	3781.57
435.052	3687.37
435.259	3722.18
435.466	3718.09
435.673	3644.36
435.88	3873.73
436.087	4158.4
436.294	4072.39
436.501	3951.56
436.708	4062.15
436.915	4111.3
437.122	4459.45
437.329	4494.27
437.537	4600.76
437.743	4641.72
437.95	4662.2
438.157	4871.09
438.364	5022.64
438.571	5073.84
438.778	5004.21
438.985	5671.85
439.192	5305.26
439.399	5395.37
439.606	5252.02
439.813	5815.21
440.02	6042.53
440.227	5989.28
440.433	5870.5
440.64	5952.42
440.847	6003.62
441.054	6028.2
441.261	6435.74
441.467	6570.91
441.674	6560.67
441.881	6839.19
442.088	6888.34
442.294	6787.99
442.501	6867.86
442.708	7021.46
442.914	7314.32
443.121	7871.37
443.328	7590.8
443.534	7897.99
443.741	7623.56
443.948	7676.81
444.154	8205.19
444.361	8201.09
444.568	8178.56
444.774	8305.54
444.981	8479.61
445.187	8463.23
445.394	8797.05
445.6	8647.55
445.807	9544.56
446.013	9280.37
446.22	9481.07
446.426	9640.81
446.633	9933.67
446.839	10220.39
447.046	9757.55
447.252	10464.1
447.459	10476.38
447.665	10302.31
447.871	10699.61
448.078	11082.58
448.284	10470.24
448.491	10914.65
448.697	11436.88
448.903	11850.57
449.11	11535.18
449.316	11410.26
449.522	11453.27
449.728	11934.54
449.935	12104.52
450.141	12174.15
450.347	12321.6
450.553	11881.29
450.76	12100.42
450.966	12278.6
451.172	12395.33
451.378	12479.3
451.584	12555.07
451.791	12704.57
451.997	12718.91
452.203	12899.13
452.409	12907.32
452.615	12923.71
452.821	12280.64
453.027	12374.85
453.233	12811.07
453.44	12559.17
453.646	12505.92
453.852	12544.83
454.058	12694.33
454.264	12446.53
454.47	12813.12
454.676	12317.51
454.882	12884.8
455.088	11762.51
455.294	12045.13
455.5	12317.51
455.705	11955.02
455.911	11856.72
456.117	11512.66
456.323	11275.09
456.529	10634.08
456.735	11213.65
456.941	10937.18
457.147	10773.34
457.352	10376.03
457.558	10261.35
457.764	10234.72
457.97	10175.33
458.176	10091.37
458.381	9995.11
458.587	9464.69
458.793	9593.71
458.999	8983.41
459.204	9558.89
459.41	9284.47
459.616	8651.64
459.821	8979.32
460.027	8639.36
460.233	8598.4
460.438	8182.66
460.644	8180.61
460.85	7959.43
461.055	7728.01
461.261	7668.62
461.466	7195.54
461.672	7027.6
461.878	7416.72
462.083	7019.41
462.289	6718.36
462.494	6722.46
462.7	6372.25
462.905	6181.79
463.111	6484.89
463.316	6488.99
463.522	6429.6
463.727	6394.78
463.932	6370.21
464.138	6355.87
464.343	6263.71
464.549	6224.8
464.754	6200.23
464.959	6378.4
465.165	6136.74
465.37	6056.87
465.575	5868.45
465.781	6017.96
465.986	6003.62
466.191	5741.48
466.397	5600.17
466.602	5473.2
466.807	5747.62
467.012	5643.18
467.218	5591.98
467.423	5542.83
467.628	5634.99
467.833	5796.78
468.038	5512.11
468.244	5526.44
468.449	5579.69
468.654	5489.58
468.859	5540.78
469.064	5456.81
469.269	5348.27
469.474	5108.66
469.679	5282.74
469.885	5301.17
470.09	5149.62
470.295	5135.28
470.5	5061.55
470.705	5331.89
470.91	4942.77
471.115	5122.99
471.32	5184.43
471.525	5098.42
471.73	5041.08
471.935	4811.7
472.139	4600.76
472.344	4817.85
472.549	4768.7
472.754	4748.22
472.959	4479.93
473.164	4561.85
473.369	4484.03
473.574	4862.9
473.778	4541.37
473.983	4570.04
474.188	4533.18
474.393	4322.24
474.598	4316.09
474.802	4295.61
475.007	4309.95
475.212	4180.93
475.417	4170.69
475.621	4002.75
475.826	4056
476.031	4228.03
476.235	3933.12
476.44	4123.59
476.645	3957.7
476.849	3922.88
477.054	4041.67
477.259	3812.29
477.463	3949.51
477.668	3724.23
477.872	3818.44
478.077	3730.38
478.282	3765.19
478.486	3689.42
478.691	3621.83
478.895	3539.91
479.1	3414.99
479.304	3455.95
479.509	3386.32
479.713	3560.39
479.918	3398.6
480.122	3470.28
480.326	3554.25
480.531	3558.35
480.735	3402.7
480.94	3410.89
481.144	3533.77
481.348	3310.54
481.553	3431.37
481.757	3193.81
481.961	3380.17
482.166	3488.71
482.37	3390.41
482.574	3240.91
482.778	3308.49
482.983	3331.02
483.187	3337.17
483.391	3259.34
483.595	3273.68
483.8	3318.73
484.004	3269.58
484.208	3339.21
484.412	3384.27
484.616	3312.59
484.821	3388.36
485.025	3269.58
485.229	3363.79
485.433	3275.73
485.637	3263.44
485.841	3265.49
486.045	3296.21
486.249	3068.88
486.453	3107.79
486.657	3263.44
486.861	3245.01
487.065	3189.71
487.269	3314.64
487.473	3281.87
487.677	3306.45
487.881	3353.55
488.085	3347.4
488.289	3382.22
488.493	3304.4
488.697	3425.23
488.901	3388.36
489.105	3335.12
489.309	3380.17
489.512	3304.4
489.716	3449.8
489.92	3380.17
490.124	3341.26
490.328	3470.28
490.531	3337.17
490.735	3361.74
490.939	3421.13
491.143	3398.6
491.346	3300.3
491.55	3433.42
491.754	3429.32
491.958	3355.6
492.161	3460.04
492.365	3521.48
492.569	3552.2
492.772	3394.51
492.976	3566.54
493.18	3564.49
493.383	3675.08
493.587	3675.08
493.79	3578.83
493.994	3546.06
494.197	3636.17
494.401	3572.68
494.605	3711.94
494.808	3910.6
495.012	3707.85
495.215	3644.36
495.419	3804.1
495.622	3783.62
495.825	4035.52
496.029	4000.71
496.232	3881.92
496.436	4092.87
496.639	4219.84
496.843	3978.18
497.046	4154.3
497.249	4127.68
497.453	4250.56
497.656	4211.65
497.859	4330.43
498.063	4330.43
498.266	4340.67
498.469	4436.92
498.673	4412.35
498.876	4580.28
499.079	4512.7
499.282	4613.05
499.485	4809.65
499.689	4735.93
499.892	4815.8
500.095	4918.2
500.298	5020.6
500.501	4944.82
500.705	4901.81
500.908	4985.78
501.111	5147.57
501.314	5157.81
501.517	5286.83
501.72	5444.52
501.923	5315.5
502.126	5479.34
502.329	5729.19
502.532	5571.5
502.735	5487.53
502.938	5743.53
503.141	5784.49
503.344	5784.49
503.547	5954.47
503.75	5977
503.953	6099.87
504.156	6036.39
504.359	6155.17
504.562	6339.49
504.765	6355.87
504.968	6394.78
505.17	6656.92
505.373	6534.04
505.576	6718.36
505.779	6730.65
505.982	6869.91
506.185	7199.63
506.387	7048.08
506.59	7119.76
506.793	7408.53
506.996	7269.27
507.198	7570.32
507.401	7496.59
507.604	7541.64
507.807	7998.34
508.009	7680.91
508.212	8020.87
508.415	8346.5
508.617	8098.69
508.82	8215.43
509.022	8223.62
509.225	8442.75
509.428	8592.25
509.63	8582.01
509.833	8655.74
510.035	8944.5
510.238	8883.06
510.44	9073.53
510.643	9081.72
510.845	9270.13
511.048	9384.82
511.25	9589.61
511.453	9653.1
511.655	10085.22
511.858	10007.4
512.06	9960.3
512.262	10021.74
512.465	10158.95
512.667	10468.19
512.87	10363.75
513.072	10498.91
513.274	10789.72
513.477	11043.67
513.679	11029.34
513.881	11109.21
514.084	11406.16
514.286	11277.14
514.488	11582.29
514.69	12071.75
514.893	11805.52
515.095	12243.78
515.297	12153.67
515.499	12260.16
515.701	12467.01
515.904	12391.23
516.106	12680
516.308	12895.04
516.51	13013.82
516.712	13177.65
516.914	13472.56
517.116	13669.17
517.318	13792.05
517.52	13677.36
517.722	13902.64
517.925	13931.31
518.127	14404.39
518.329	14670.62
518.531	14424.87
518.733	14664.48
518.935	15063.83
519.136	14977.82
519.338	15293.21
519.54	15323.93
519.742	15997.71
519.944	15811.34
520.146	15989.52
520.348	16100.11
520.55	16448.26
520.752	16356.1
520.954	16642.82
521.155	16663.3
521.357	16923.39
521.559	17146.62
521.761	17265.4
521.963	17296.12
522.164	17521.4
522.366	17775.34
522.568	17994.48
522.77	18072.3
522.971	18262.76
523.173	18381.54
523.375	18451.17
523.576	18322.15
523.778	18555.62
523.98	18907.87
524.181	19161.82
524.383	19077.85
524.584	19278.55
524.786	19546.84
524.988	19286.75
525.189	19856.08
525.391	19714.77
525.592	20032.21
525.794	20159.18
525.995	20110.03
526.197	20325.07
526.398	20167.37
526.6	20646.6
526.801	20792
527.003	20792
527.204	20814.53
527.406	20951.74
527.607	21136.06
527.808	21170.88
528.01	21011.14
528.211	21252.8
528.412	21691.06
528.614	21539.51
528.815	21596.85
529.016	21899.95
529.218	21762.74
529.419	21418.68
529.62	22069.94
529.822	21865.14
530.023	21893.81
530.224	22194.86
530.425	22049.46
530.626	21912.24
530.828	22155.95
531.029	22391.47
531.23	22463.15
531.431	22424.23
531.632	22342.32
531.833	22713
532.035	22520.49
532.236	22616.74
532.437	22669.99
532.638	22444.71
532.839	22907.55
533.04	22923.94
533.241	22334.12
533.442	23354.01
533.643	22921.89
533.844	22729.38
534.045	22706.85
534.246	22819.49
534.447	23200.41
534.648	23165.6
534.849	23165.6
535.05	22667.94
535.251	23151.26
535.451	22956.71
535.652	23251.61
535.853	23229.09
536.054	22966.95
536.255	23179.93
536.456	22964.9
536.657	23628.44
536.857	23376.54
537.058	23204.51
537.259	23607.96
537.46	23280.28
537.66	23403.16
537.861	23534.23
538.062	23169.69
538.263	23532.18
538.463	23239.33
538.664	23181.98
538.865	23397.02
539.065	23687.83
539.266	23210.65
539.466	23571.1
539.667	23155.36
539.868	23591.58
540.068	23464.6
540.269	23210.65
540.469	23712.41
540.67	23339.68
540.87	23503.51
541.071	23378.59
541.271	23450.27
541.472	23120.54
541.672	23394.97
541.873	23276.19
542.073	23112.35
542.274	23360.16
542.474	23284.38
542.675	23270.04
542.875	23304.86
543.075	23331.48
543.276	23235.23
543.476	23433.88
543.676	23106.21
543.877	23677.59
544.077	23433.88
544.277	23519.9
544.478	23339.68
544.678	23474.84
544.878	23491.23
545.078	23364.25
545.279	23323.29
545.479	23224.99
545.679	23280.28
545.879	23290.52
546.079	23610.01
546.28	23487.13
546.48	23134.88
546.68	23526.04
546.88	23335.58
547.08	23456.41
547.28	23425.69
547.48	23171.74
547.68	23411.35
547.88	23194.27
548.081	23712.41
548.281	23380.64
548.481	23179.93
548.681	23650.97
548.881	23868.05
549.081	23384.73
549.28	23098.02
549.48	23700.12
549.68	23308.96
549.88	23614.1
550.08	23585.43
550.28	23614.1
550.48	23136.93
550.68	23378.59
550.88	23382.68
551.08	23476.89
551.279	23368.35
551.479	23345.82
551.679	23177.89
551.879	23315.1
552.079	23587.48
552.278	23397.02
552.478	23437.98
552.678	23456.41
552.878	23663.25
553.077	23370.4
553.277	23313.05
553.477	23640.73
553.676	22989.47
553.876	23392.92
554.076	23120.54
554.275	23224.99
554.475	23165.6
554.674	23308.96
554.874	23374.49
555.074	23192.22
555.273	23241.37
555.473	23317.15
555.672	23130.78
555.872	22917.79
556.071	23102.11
556.271	23296.67
556.47	22985.38
556.67	22874.79
556.869	22852.26
557.068	22966.95
557.268	22813.35
557.467	22907.55
557.667	22753.96
557.866	22772.39
558.065	22901.41
558.265	22708.9
558.464	22823.59
558.663	23012
558.863	22461.1
559.062	22919.84
559.261	22348.46
559.461	22506.15
559.66	22119.09
559.859	22461.1
560.058	22256.3
560.258	22205.1
560.457	22319.79
560.656	22530.73
560.855	22158
561.054	22448.81
561.253	21942.96
561.453	22215.34
561.652	21969.58
561.851	22334.12
562.05	22071.98
562.249	21695.16
562.448	22354.6
562.647	22117.04
562.846	22055.6
563.045	21914.29
563.244	21564.09
563.443	21686.97
563.642	21668.53
563.841	21795.51
564.04	21494.46
564.239	21742.26
564.438	21562.04
564.637	21729.97
564.836	21254.84
565.035	21052.09
565.234	21693.11
565.432	21248.7
565.631	21213.88
565.83	21404.35
566.029	21435.06
566.228	21105.34
566.427	21424.83
566.625	20984.51
566.824	20918.98
567.023	20943.55
567.222	20662.98
567.42	20783.81
567.619	21019.33
567.818	20968.13
568.016	20615.88
568.215	20548.29
568.414	20468.42
568.612	20579.01
568.811	20359.88
569.01	20597.45
569.208	20048.59
569.407	20355.79
569.605	20183.76
569.804	20075.21
570.002	19864.27
570.201	20150.99
570.4	19950.29
570.598	19682
570.797	19677.91
570.995	19831.51
571.193	20030.16
571.392	20171.47
571.59	19532.5
571.789	19516.12
571.987	19647.19
572.186	19444.44
572.384	19370.71
572.582	19292.89
572.781	19190.49
572.979	18885.34
573.177	19260.12
573.376	19479.25
573.574	19344.09
573.772	19135.2
573.971	18832.1
574.169	18627.3
574.367	18727.65
574.565	18760.42
574.763	18457.32
574.962	18602.72
575.16	18160.36
575.358	18555.62
575.556	18289.38
575.754	18463.46
575.952	18178.79
576.151	18307.82
576.349	18088.68
576.547	17883.89
576.745	17933.04
576.943	17980.14
577.141	17791.73
577.339	17701.62
577.537	17695.47
577.735	17836.78
577.933	17560.31
578.131	17601.27
578.329	17431.29
578.527	17468.15
578.725	17543.92
578.923	17441.53
579.121	17228.54
579.319	17033.98
579.516	17261.3
579.714	17281.78
579.912	17033.98
580.11	17138.43
580.308	17382.13
580.506	16864
580.704	16409.35
580.901	16661.25
581.099	16956.16
581.297	16589.57
581.495	16782.08
581.692	16597.76
581.89	16429.83
582.088	16655.11
582.285	16331.53
582.483	16515.84
582.681	16175.88
582.878	16247.56
583.076	16206.6
583.274	16210.7
583.471	16020.24
583.669	16024.33
583.866	15891.21
584.064	16028.43
584.262	15817.49
584.459	15815.44
584.657	15610.64
584.854	15629.07
585.052	15590.16
585.249	15829.77
585.447	15354.65
585.644	15577.87
585.841	15631.12
586.039	15577.87
586.236	15139.61
586.434	15295.25
586.631	15387.41
586.828	15133.47
587.026	15000.35
587.223	15295.25
587.42	15168.28
587.618	15141.66
587.815	15115.03
588.012	14951.2
588.21	14914.33
588.407	15014.68
588.604	14750.49
588.801	14875.42
588.999	14832.41
589.196	14746.4
589.393	14484.26
589.59	14754.59
589.787	14351.14
589.984	14431.01
590.182	14506.79
590.379	14261.03
590.576	14422.82
590.773	14250.79
590.97	14340.9
591.167	14271.27
591.364	14158.63
591.561	14269.22
591.758	13976.36
591.955	13976.36
592.152	14009.13
592.349	14033.71
592.546	14048.04
592.743	13873.96
592.94	13812.53
593.137	13790
593.334	13806.38
593.531	13601.58
593.727	13617.97
593.924	13634.35
594.121	13630.26
594.318	13536.05
594.515	13345.59
594.712	13693.74
594.908	13450.03
595.105	13357.88
595.302	13304.63
595.499	13239.09
595.696	13206.33
595.892	13015.87
596.089	13372.21
596.286	13327.16
596.482	13179.7
596.679	13181.75
596.876	13142.84
597.072	12849.98
597.269	13194.04
597.466	12852.03
597.662	12700.48
597.859	12739.39
598.055	12702.53
598.252	12630.85
598.448	12770.11
598.645	12684.09
598.841	12493.63
599.038	12395.33
599.234	12720.96
599.431	12374.85
599.627	12600.13
599.824	12606.27
600.02	12360.52
600.217	12604.22
600.413	12460.87
600.609	12448.58
600.806	12196.68
601.002	12163.91
601.198	12106.57
601.395	12172.1
601.591	12098.38
601.787	12028.74
601.984	11930.44
602.18	12176.2
602.376	11842.38
602.572	11856.72
602.769	11955.02
602.965	11752.27
603.161	11809.61
603.357	11817.8
603.553	11658.06
603.75	11580.24
603.946	11385.68
604.142	11588.43
604.338	11369.3
604.534	11440.98
604.73	11457.36
604.926	11412.31
605.122	11271
605.318	11328.34
605.514	11338.58
605.71	11256.66
605.906	11047.77
606.102	11195.22
606.298	11070.3
606.494	11062.1
606.69	11041.62
606.886	10976.09
607.082	10738.52
607.278	10818.39
607.474	10789.72
607.67	10859.35
607.866	10574.69
608.062	10892.12
608.257	10695.52
608.453	10695.52
608.649	10716
608.845	10494.82
609.041	10507.1
609.236	10505.06
609.432	10437.47
609.628	10345.31
609.824	10425.18
610.019	10402.66
610.215	10173.28
610.411	10273.64
610.606	10273.64
610.802	10206.05
610.998	10253.16
611.193	10193.76
611.389	10130.28
611.584	10040.17
611.78	10126.18
611.976	10083.17
612.171	10007.4
612.367	9921.38
612.562	9915.24
612.758	9704.3
612.953	9718.64
613.149	9796.46
613.344	9655.15
613.539	9769.83
613.735	9761.64
613.93	9919.34
614.126	9644.91
614.321	9714.54
614.517	9681.77
614.712	9374.58
614.907	9583.47
615.103	9653.1
615.298	9483.12
615.493	9712.49
615.688	9350
615.884	9765.74
616.079	9249.65
616.274	9431.92
616.47	9237.36
616.665	9263.99
616.86	9284.47
617.055	9286.51
617.25	9218.93
617.445	9233.27
617.641	9182.07
617.836	9169.78
618.031	8887.16
618.226	9089.91
618.421	8934.26
618.616	8917.88
618.811	8827.77
619.006	8991.61
619.201	8782.71
619.396	8993.65
619.591	8743.8
619.786	8635.26
619.981	8567.68
620.176	8760.19
620.371	8657.79
620.566	8635.26
620.761	8594.3
620.956	8485.76
621.151	8366.98
621.346	8391.55
621.541	8287.11
621.735	8455.04
621.93	8086.4
622.125	8172.42
622.32	8129.41
622.515	8319.87
622.709	8027.01
622.904	7869.32
623.099	8074.12
623.294	8147.84
623.488	7887.75
623.683	7725.96
623.878	7791.5
624.072	7826.31
624.267	7918.47
624.462	7637.9
624.656	7642
624.851	7697.29
625.046	7576.46
625.24	7621.52
625.435	7472.01
625.629	7541.64
625.824	7197.59
626.018	7377.81
626.213	7236.5
626.407	7392.14
626.602	7226.26
626.796	7107.48
626.991	7230.35
627.185	6990.74
627.38	7046.04
627.574	6990.74
627.768	7074.71
627.963	6962.07
628.157	6841.24
628.352	6968.21
628.546	6796.18
628.74	6994.84
628.935	6833.05
629.129	6871.96
629.323	6699.93
629.517	6685.59
629.712	6706.07
629.906	6652.83
630.1	6622.11
630.294	6626.2
630.489	6517.66
630.683	6765.46
630.877	6362.01
631.071	6271.9
631.265	6470.56
631.459	6355.87
631.653	6378.4
631.848	6337.44
632.042	6304.67
632.236	6292.38
632.43	6292.38
632.624	6243.23
632.818	6075.3
633.012	6085.54
633.206	6110.11
633.4	6005.67
633.594	5993.38
633.788	6005.67
633.982	5970.85
634.176	5897.13
634.369	5729.19
634.563	6001.57
634.757	5962.66
634.951	5993.38
635.145	5854.12
635.339	5897.13
635.533	5761.96
635.726	5698.47
635.92	5544.88
636.114	5544.88
636.308	5727.14
636.501	5694.38
636.695	5583.79
636.889	5637.03
637.083	5436.33
637.276	5458.86
637.47	5295.02
637.664	5444.52
637.857	5331.89
638.051	5245.87
638.244	5159.86
638.438	5297.07
638.632	5137.33
638.825	5225.39
639.019	5256.11
639.212	5135.28
639.406	5100.47
639.599	5100.47
639.793	4936.63
639.986	5112.75
640.18	5014.45
640.373	4957.11
640.567	4875.19
640.76	4893.62
640.954	4977.59
641.147	4838.33
641.34	4858.81
641.534	4678.58
641.727	4725.69
641.92	4776.89
642.114	4617.15
642.307	4643.77
642.5	4719.54
642.694	4606.91
642.887	4598.71
643.08	4637.63
643.273	4578.23
643.467	4629.43
643.66	4506.56
643.853	4441.02
644.046	4342.72
644.239	4307.9
644.432	4473.79
644.626	4174.78
644.819	4281.28
645.012	4109.25
645.205	4232.13
645.398	4164.54
645.591	4176.83
645.784	4174.78
645.977	4029.38
646.17	4027.33
646.363	4070.34
646.556	3974.08
646.749	4012.99
646.942	4031.43
647.135	3890.12
647.328	3898.31
647.521	3965.89
647.714	3797.96
647.907	3775.43
648.099	3746.76
648.292	3736.52
648.485	3812.29
648.678	3650.5
648.871	3797.96
649.064	3767.24
649.256	3707.85
649.449	3589.07
649.642	3648.46
649.835	3560.39
650.027	3621.83
650.22	3492.81
650.413	3574.73
650.605	3494.86
650.798	3326.93
650.991	3462.09
651.183	3525.58
651.376	3361.74
651.568	3365.84
651.761	3396.56
651.954	3361.74
652.146	3369.93
652.339	3351.5
652.531	3226.57
652.724	3199.95
652.916	3226.57
653.109	3245.01
653.301	3240.91
653.494	3249.1
653.686	3249.1
653.879	3216.33
654.071	3083.22
654.263	3064.79
654.456	3136.46
654.648	3087.31
654.84	3140.56
655.033	2937.81
655.225	2933.72
655.417	2847.7
655.61	3056.59
655.802	2946
655.994	2923.48
656.186	2839.51
656.379	2925.52
656.571	3036.11
656.763	2733.01
656.955	2841.56
657.148	2872.28
657.34	2794.45
657.532	2733.01
657.724	2763.73
657.916	2751.45
658.108	2773.97
658.3	2571.22
658.492	2698.2
658.684	2620.38
658.876	2526.17
659.068	2608.09
659.26	2622.42
659.452	2477.02
659.644	2585.56
659.836	2722.77
660.028	2581.46
660.22	2536.41
660.412	2517.98
660.604	2544.6
660.796	2515.93
660.988	2364.38
661.18	2425.82
661.372	2294.75
661.563	2474.97
661.755	2419.68
661.947	2339.8
662.139	2411.48
662.331	2458.59
662.522	2300.89
662.714	2282.46
662.906	2313.18
663.097	2315.23
663.289	2245.6
663.481	2204.64
663.673	2202.59
663.864	2128.86
664.056	2249.69
664.247	2137.06
664.439	2229.21
664.631	2124.77
664.822	2196.45
665.014	2104.29
665.205	2079.71
665.397	2104.29
665.588	2167.77
665.78	2175.97
665.971	2104.29
666.163	2012.13
666.354	2005.99
666.546	2024.42
666.737	1958.88
666.929	2063.33
667.12	1997.79
667.311	1930.21
667.503	2012.13
667.694	1973.22
667.885	1848.29
668.077	1938.4
668.268	1899.49
668.459	1946.59
668.651	1881.06
668.842	1993.7
669.033	1965.03
669.224	1893.35
669.416	1815.52
669.607	1840.1
669.798	1831.91
669.989	1860.58
670.18	1829.86
670.371	1784.8
670.563	1917.92
670.754	1876.96
670.945	1727.46
671.136	1885.16
671.327	1797.09
671.518	1711.08
671.709	1743.85
671.9	1747.94
672.091	1793
672.282	1670.12
672.473	1778.66
672.664	1770.47
672.855	1700.84
673.046	1731.56
673.237	1696.74
673.428	1706.98
673.619	1743.85
673.809	1653.73
674	1692.65
674.191	1721.32
674.382	1672.17
674.573	1702.89
674.764	1582.06
674.954	1721.32
675.145	1672.17
675.336	1647.59
675.527	1604.58
675.717	1700.84
675.908	1604.58
676.099	1743.85
676.289	1590.25
676.48	1706.98
676.671	1663.97
676.861	1594.34
677.052	1594.34
677.243	1504.23
677.433	1569.77
677.624	1604.58
677.814	1629.16
678.005	1592.3
678.195	1592.3
678.386	1584.1
678.576	1547.24
678.767	1592.3
678.957	1575.91
679.148	1514.47
679.338	1657.83
679.529	1547.24
679.719	1614.82
679.909	1537
680.1	1639.4
680.29	1549.29
680.481	1487.85
680.671	1559.53
680.861	1530.86
681.052	1561.58
681.242	1516.52
681.432	1618.92
681.622	1557.48
681.813	1559.53
682.003	1479.66
682.193	1577.96
682.383	1459.18
682.573	1610.73
682.764	1530.86
682.954	1461.23
683.144	1520.62
683.334	1496.04
683.524	1465.32
683.714	1418.22
683.904	1502.19
684.094	1483.75
684.284	1577.96
684.474	1489.9
684.664	1610.73
684.854	1508.33
685.044	1428.46
685.234	1512.42
685.424	1500.14
685.614	1438.7
685.804	1465.32
685.994	1483.75
686.184	1514.47
686.374	1520.62
686.564	1461.23
686.753	1493.99
686.943	1430.51
687.133	1561.58
687.323	1545.19
687.513	1410.03
687.702	1567.72
687.892	1457.13
688.082	1450.99
688.272	1506.28
688.461	1465.32
688.651	1528.81
688.841	1397.74
689.03	1487.85
689.22	1459.18
689.41	1432.55
689.599	1442.79
689.789	1518.57
689.979	1508.33
690.168	1498.09
690.358	1459.18
690.547	1498.09
690.737	1446.89
690.926	1403.88
691.116	1491.95
691.305	1446.89
691.495	1514.47
691.684	1448.94
691.874	1541.1
692.063	1438.7
692.252	1569.77
692.442	1496.04
692.631	1383.4
692.82	1520.62
693.01	1471.47
693.199	1500.14
693.388	1471.47
693.578	1442.79
693.767	1559.53
693.956	1477.61
694.146	1479.66
694.335	1489.9
694.524	1446.89
694.713	1514.47
694.902	1557.48
695.092	1555.43
695.281	1534.95
695.47	1522.66
695.659	1504.23
695.848	1522.66
696.037	1471.47
696.226	1485.8
696.415	1500.14
696.604	1604.58
696.793	1479.66
696.982	1508.33
697.171	1616.87
697.36	1485.8
697.549	1491.95
697.738	1571.82
697.927	1375.21
698.116	1557.48
698.305	1450.99
698.494	1506.28
698.683	1643.49
698.872	1549.29
699.061	1598.44
699.25	1530.86
699.438	1594.34
699.627	1614.82
699.816	1534.95
700.005	1526.76
700.193	1541.1
700.382	1610.73
700.571	1465.32
700.76	1717.22
700.948	1510.38
701.137	1614.82
701.326	1580.01
701.514	1522.66
701.703	1629.16
701.892	1612.78
702.08	1625.06
702.269	1506.28
702.457	1616.87
702.646	1498.09
702.834	1410.03
703.023	1518.57
703.212	1522.66
703.4	1524.71
703.589	1629.16
703.777	1553.38
703.965	1530.86
704.154	1541.1
704.342	1567.72
704.531	1600.49
704.719	1422.31
704.907	1577.96
705.096	1514.47
705.284	1477.61
705.472	1623.02
705.661	1508.33
705.849	1481.71
706.037	1514.47
706.226	1532.9
706.414	1530.86
706.602	1485.8
706.79	1500.14
706.979	1442.79
707.167	1475.56
707.355	1430.51
707.543	1438.7
707.731	1465.32
707.919	1350.64
708.107	1391.59
708.296	1473.51
708.484	1528.81
708.672	1514.47
708.86	1483.75
709.048	1358.83
709.236	1455.08
709.424	1430.51
709.612	1364.97
709.8	1420.27
709.988	1440.75
710.176	1407.98
710.364	1489.9
710.551	1362.92
710.739	1438.7
710.927	1414.12
711.115	1385.45
711.303	1496.04
711.491	1448.94
711.679	1383.4
711.866	1377.26
712.054	1293.29
712.242	1342.44
712.43	1385.45
712.617	1395.69
712.805	1324.01
712.993	1393.64
713.181	1336.3
713.368	1332.2
713.556	1334.25
713.744	1317.87
713.931	1432.55
714.119	1371.12
714.306	1360.88
714.494	1401.83
714.682	1313.77
714.869	1309.68
715.057	1416.17
715.244	1334.25
715.432	1332.2
715.619	1274.86
715.807	1231.85
715.994	1455.08
716.182	1315.82
716.369	1418.22
716.556	1262.57
716.744	1311.72
716.931	1242.09
717.119	1240.05
717.306	1260.52
717.493	1268.72
717.681	1340.4
717.868	1283.05
718.055	1254.38
718.242	1289.2
718.43	1221.61
718.617	1278.96
718.804	1154.03
718.991	1252.33
719.179	1233.9
719.366	1293.29
719.553	1313.77
719.74	1178.61
719.927	1194.99
720.114	1190.89
720.301	1192.94
720.488	1147.89
720.676	1194.99
720.863	1186.8
721.05	1184.75
721.237	1231.85
721.424	1147.89
721.611	1291.24
721.798	1176.56
721.985	1180.65
722.172	1104.88
722.358	1096.69
722.545	1145.84
722.732	1115.12
722.919	1070.06
723.106	1123.31
723.293	1059.82
723.48	1170.41
723.667	1092.59
723.853	1078.26
724.04	1197.04
724.227	1217.52
724.414	1164.27
724.6	1113.07
724.787	1045.49
724.974	1088.5
725.161	1057.78
725.347	1072.11
725.534	1104.88
725.72	1092.59
725.907	1065.97
726.094	1022.96
726.28	1061.87
726.467	1020.91
726.653	1027.06
726.84	1070.06
727.027	1123.31
727.213	1045.49
727.4	1016.82
727.586	1037.3
727.773	1065.97
727.959	1074.16
728.145	1010.67
728.332	947.19
728.518	1117.17
728.705	1094.64
728.891	994.29
729.077	1045.49
729.264	1090.54
729.45	1016.82
729.636	1031.15
729.823	1025.01
730.009	988.14
730.195	1002.48
730.382	977.91
730.568	971.76
730.754	1002.48
730.94	992.24
731.126	951.28
731.313	992.24
731.499	918.51
731.685	963.57
731.871	1018.86
732.057	1059.82
732.243	990.19
732.429	963.57
732.615	885.75
732.801	1004.53
732.987	988.14
733.173	1025.01
733.359	988.14
733.545	885.75
733.731	1006.58
733.917	986.1
734.103	898.03
734.289	885.75
734.475	898.03
734.661	1000.43
734.847	934.9
735.033	1033.2
735.219	959.47
735.404	900.08
735.59	955.38
735.776	916.47
735.962	908.27
736.148	938.99
736.333	900.08
736.519	877.55
736.705	824.31
736.89	881.65
737.076	855.03
737.262	850.93
737.447	941.04
737.633	867.31
737.819	926.71
738.004	877.55
738.19	809.97
738.375	836.6
738.561	881.65
738.747	916.47
738.932	889.84
739.118	832.5
739.303	779.25
739.489	855.03
739.674	762.87
739.859	826.36
740.045	742.39
740.23	820.21
740.416	734.2
740.601	820.21
740.786	842.74
740.972	842.74
741.157	885.75
741.342	783.35
741.528	775.16
741.713	812.02
741.898	760.82
742.084	809.97
742.269	799.73
742.454	771.06
742.639	840.69
742.824	732.15
743.01	834.55
743.195	740.34
743.38	730.1
743.565	734.2
743.75	760.82
743.935	754.68
744.12	848.88
744.305	867.31
744.49	797.68
744.675	750.58
744.86	754.68
745.045	742.39
745.23	750.58
745.415	775.16
745.6	699.38
745.785	699.38
745.97	775.16
746.155	742.39
746.34	703.48
746.525	789.49
746.71	734.2
746.895	728.05
747.079	611.32
747.264	717.81
747.449	762.87
747.634	785.4
747.819	652.28
748.003	705.53
748.188	629.75
748.373	717.81
748.557	738.29
748.742	693.24
748.927	711.67
749.111	607.22
749.296	617.46
749.481	726
749.665	676.85
749.85	633.85
750.034	668.66
750.219	576.5
750.404	695.29
750.588	613.37
750.773	631.8
750.957	701.43
751.141	599.03
751.326	621.56
751.51	672.76
751.695	498.68
751.879	549.88
752.064	578.55
752.248	566.26
752.432	564.22
752.617	584.7
752.801	580.6
752.985	556.02
753.17	607.22
753.354	549.88
753.538	549.88
753.722	515.06
753.907	594.93
754.091	619.51
754.275	551.93
754.459	515.06
754.643	558.07
754.828	537.59
755.012	578.55
755.196	500.73
755.38	480.25
755.564	463.86
755.748	553.98
755.932	521.21
756.116	496.63
756.3	562.17
756.484	486.39
756.668	515.06
756.852	465.91
757.036	578.55
757.22	474.1
757.404	529.4
757.588	496.63
757.772	482.3
757.956	494.58
758.14	455.67
758.323	472.06
758.507	502.78
758.691	549.88
758.875	513.02
759.059	418.81
759.242	508.92
759.426	406.52
759.61	443.39
759.794	494.58
759.977	439.29
760.161	531.45
760.345	404.47
760.528	441.34
760.712	429.05
760.895	467.96
761.079	392.19
761.263	379.9
761.446	470.01
761.63	455.67
761.813	517.11
761.997	498.68
762.18	386.04
762.364	406.52
762.547	420.86
762.731	435.19
762.914	375.8
763.098	431.1
763.281	402.43
763.464	478.2
763.648	424.95
763.831	422.91
764.015	377.85
764.198	445.43
764.381	332.79
764.564	330.75
764.748	443.39
764.931	388.09
765.114	361.47
765.297	478.2
765.481	431.1
765.664	363.51
765.847	398.33
766.03	379.9
766.213	410.62
766.397	351.23
766.58	353.27
766.763	361.47
766.946	381.95
767.129	400.38
767.312	390.14
767.495	375.8
767.678	402.43
767.861	357.37
768.044	375.8
768.227	353.27
768.41	347.13
768.593	340.99
768.776	404.47
768.959	406.52
769.142	390.14
769.324	297.98
769.507	435.19
769.69	328.7
769.873	373.75
770.056	343.03
770.239	285.69
770.421	330.75
770.604	392.19
770.787	324.6
770.97	402.43
771.152	308.22
771.335	283.64
771.518	340.99
771.7	367.61
771.883	351.23
772.066	324.6
772.248	324.6
772.431	338.94
772.613	302.08
772.796	377.85
772.978	316.41
773.161	361.47
773.343	318.46
773.526	273.4
773.708	336.89
773.891	328.7
774.073	357.37
774.256	226.3
774.438	377.85
774.621	377.85
774.803	295.93
774.985	336.89
775.168	332.79
775.35	281.6
775.532	246.78
775.715	293.88
775.897	365.56
776.079	386.04
776.261	267.26
776.444	291.84
776.626	334.84
776.808	318.46
776.99	312.32
777.173	300.03
777.355	324.6
777.537	289.79
777.719	300.03
777.901	312.32
778.083	209.92
778.265	248.83
778.447	287.74
778.629	259.07
778.811	240.64
778.993	308.22
779.175	187.39
779.357	230.4
779.539	252.92
779.721	222.2
779.903	293.88
780.085	203.77
780.267	263.16
780.449	281.6
780.631	283.64
780.812	279.55
780.994	283.64
781.176	214.01
781.358	259.07
781.54	203.77
781.721	275.45
781.903	269.31
782.085	150.53
782.267	228.35
782.448	193.53
782.63	201.72
782.812	236.54
782.993	154.62
783.175	263.16
783.357	244.73
783.538	248.83
783.72	244.73
783.901	218.11
784.083	207.87
784.264	273.4
784.446	207.87
784.627	177.15
784.809	205.82
784.99	236.54
785.172	250.88
785.353	134.14
785.535	230.4
785.716	218.11
785.897	232.44
786.079	193.53
786.26	238.59
786.441	111.61
786.623	128
786.804	203.77
786.985	220.16
787.167	209.92
787.348	234.49
787.529	187.39
787.71	214.01
787.891	214.01
788.073	158.72
788.254	242.68
788.435	179.2
788.616	138.24
788.797	197.63
788.978	187.39
789.159	128
789.34	179.2
789.522	203.77
789.703	132.09
789.884	156.67
790.065	128
790.246	160.77
790.427	189.44
790.607	205.82
790.788	158.72
790.969	140.29
791.15	218.11
791.331	181.25
791.512	125.95
791.693	111.61
791.874	140.29
792.054	189.44
792.235	238.59
792.416	185.34
792.597	152.57
792.778	168.96
792.958	187.39
793.139	173.05
793.32	144.38
793.5	158.72
793.681	154.62
793.862	160.77
794.042	136.19
794.223	218.11
794.404	123.9
794.584	123.9
794.765	130.05
794.945	103.42
795.126	130.05
795.306	228.35
795.487	148.48
795.667	136.19
795.848	115.71
796.028	68.61
796.209	154.62
796.389	136.19
796.57	84.99
796.75	117.76
796.93	152.57
797.111	115.71
797.291	125.95
797.471	93.18
797.652	136.19
797.832	142.33
798.012	142.33
798.192	93.18
798.373	134.14
798.553	52.22
798.733	103.42
798.913	68.61
799.093	95.23
799.274	138.24
799.454	82.94
799.634	263.16
799.814	78.85
799.994	121.85
800.174	87.04
800.354	54.27
800.534	58.37
800.714	111.61
800.894	191.49
801.074	89.09
801.254	168.96
801.434	93.18
801.614	56.32
801.794	111.61
801.974	373.75
802.154	56.32
802.334	91.13
802.514	68.61
802.693	171.01
802.873	205.82
803.053	64.51
803.233	136.19
803.413	97.28
803.592	128
803.772	68.61
803.952	68.61
804.131	101.37
804.311	140.29
804.491	113.66
804.67	144.38
804.85	115.71
805.03	87.04
805.209	84.99
805.389	46.08
805.568	154.62
805.748	132.09
805.928	142.33
806.107	72.7
806.287	179.2
806.466	37.89
806.646	74.75
806.825	78.85
807.004	44.03
807.184	44.03
807.363	117.76
807.543	78.85
807.722	103.42
807.901	115.71
808.081	84.99
808.26	183.29
808.439	37.89
808.619	123.9
808.798	105.47
808.977	50.18
809.156	91.13
809.336	66.56
809.515	113.66
809.694	64.51
809.873	64.51
810.052	21.5
810.231	46.08
810.411	23.55
810.59	130.05
810.769	164.86
810.948	111.61
811.127	89.09
811.306	64.51
811.485	58.37
811.664	66.56
811.843	115.71
812.022	68.61
812.201	-13.31
812.38	125.95
812.559	66.56
812.737	125.95
812.916	56.32
813.095	134.14
813.274	115.71
813.453	74.75
813.632	109.57
813.811	128
813.989	50.18
814.168	82.94
814.347	39.94
814.526	62.46
814.704	68.61
814.883	95.23
815.062	58.37
815.24	103.42
815.419	84.99
815.598	54.27
815.776	-17.41
815.955	37.89
816.133	15.36
816.312	70.65
816.49	121.85
816.669	72.7
816.847	-17.41
817.026	103.42
817.204	78.85
817.383	27.65
817.561	48.13
817.74	123.9
817.918	44.03
818.097	76.8
818.275	35.84
818.453	72.7
818.632	23.55
818.81	97.28
818.988	72.7
819.167	105.47
819.345	54.27
819.523	95.23
819.701	-5.12
819.879	70.65
820.058	37.89
820.236	13.31
820.414	70.65
820.592	-19.46
820.77	82.94
820.948	91.13
821.127	29.7
821.305	89.09
821.483	37.89
821.661	119.81
821.839	-27.65
822.017	23.55
822.195	27.65
822.373	54.27
822.551	89.09
822.729	156.67
822.907	15.36
823.085	91.13
823.262	68.61
823.44	56.32
823.618	84.99
823.796	-11.26
823.974	13.31
824.152	27.65
824.329	23.55
824.507	31.74
824.685	25.6
824.863	19.46
825.04	19.46
825.218	37.89
825.396	93.18
825.574	19.46
825.751	-33.79
825.929	93.18
826.107	23.55
826.284	80.89
826.462	87.04
826.639	76.8
826.817	-25.6
826.994	46.08
827.172	9.22
827.349	91.13
827.527	23.55
827.704	74.75
827.882	99.33
828.059	87.04
828.237	115.71
828.414	70.65
828.591	44.03
828.769	29.7
828.946	62.46
829.124	95.23
829.301	48.13
829.478	33.79
829.655	54.27
829.833	74.75
830.01	56.32
830.187	91.13
830.364	21.5
830.542	78.85
830.719	93.18
830.896	46.08
831.073	64.51
831.25	-1.02
831.427	7.17
831.604	44.03
831.782	130.05
831.959	-15.36
832.136	48.13
832.313	115.71
832.49	50.18
832.667	111.61
832.844	107.52
833.021	54.27
833.198	-29.7
833.374	48.13
833.551	60.42
833.728	29.7
833.905	54.27
834.082	76.8
834.259	72.7
834.436	87.04
834.612	23.55
834.789	48.13
834.966	52.22
835.143	17.41
835.319	82.94
835.496	1.02
835.673	48.13
835.85	52.22
836.026	17.41
836.203	-3.07
836.38	56.32
836.556	113.66
836.733	72.7
836.909	-23.55
837.086	9.22
837.262	56.32
837.439	64.51
837.616	33.79
837.792	-21.5
837.968	97.28
838.145	3.07
838.321	62.46
838.498	46.08
838.674	7.17
838.851	87.04
839.027	15.36
839.203	27.65
839.38	41.98
839.556	109.57
839.732	56.32
839.909	54.27
840.085	9.22
840.261	99.33
840.437	33.79
840.614	35.84
840.79	58.37
840.966	37.89
841.142	44.03
841.318	25.6
841.494	17.41
841.671	11.26
841.847	84.99
842.023	91.13
842.199	68.61
842.375	33.79
842.551	-72.7
842.727	1.02
842.903	119.81
843.079	74.75
843.255	87.04
843.431	105.47
843.607	84.99
843.783	84.99
843.959	84.99
844.134	21.5
844.31	-7.17
844.486	23.55
844.662	52.22
844.838	17.41
845.013	7.17
845.189	-35.84
845.365	27.65
845.541	15.36
845.716	-27.65
845.892	64.51
846.068	29.7
846.244	-35.84
846.419	62.46
846.595	13.31
846.77	-19.46
846.946	19.46
847.122	74.75
847.297	17.41
847.473	50.18
847.648	-27.65
847.824	-29.7
847.999	-21.5
848.175	107.52
848.35	60.42
848.526	27.65
848.701	130.05
848.876	89.09
849.052	-3.07
849.227	21.5
849.403	-7.17
849.578	23.55
849.753	41.98
849.929	29.7
850.104	23.55
850.279	21.5
850.454	62.46
850.63	140.29
850.805	41.98
850.98	33.79
851.155	11.26
851.33	35.84
851.505	39.94
851.681	-1.02
851.856	7.17
852.031	70.65
852.206	27.65
852.381	31.74
852.556	-25.6
852.731	-5.12
852.906	37.89
853.081	21.5
853.256	37.89
853.431	44.03
853.606	-7.17
853.781	68.61
853.956	50.18
854.131	-1.02
854.305	13.31
854.48	7.17
854.655	-15.36
854.83	5.12
855.005	19.46
855.18	25.6
855.354	-11.26
855.529	52.22
855.704	87.04
855.879	13.31
856.053	31.74
856.228	13.31
856.403	-7.17
856.577	-25.6
856.752	37.89
856.926	-35.84
857.101	72.7
857.276	13.31
857.45	41.98
857.625	84.99
857.799	46.08
857.974	87.04
858.148	13.31
858.323	66.56
858.497	29.7
858.672	62.46
858.846	46.08
859.02	95.23
859.195	29.7
859.369	-9.22
859.543	31.74
859.718	-1.02
859.892	54.27
860.066	25.6
860.241	-5.12
860.415	80.89
860.589	-5.12
860.763	35.84
860.938	27.65
861.112	54.27
861.286	27.65
861.46	1.02
861.634	37.89
861.808	-13.31
861.982	-17.41
862.157	-21.5
862.331	-19.46
862.505	-23.55
862.679	25.6
862.853	64.51
863.027	29.7
863.201	68.61
863.375	-9.22
863.549	-52.22
863.722	27.65
863.896	29.7
864.07	-46.08
864.244	-60.42
864.418	13.31
864.592	70.65
864.766	-44.03
864.939	-3.07
865.113	-58.37
865.287	80.89
865.461	39.94
865.634	-3.07
865.808	87.04
865.982	25.6
866.156	-21.5
866.329	37.89
866.503	50.18
866.676	89.09
866.85	3.07
867.024	60.42
867.197	-11.26
867.371	-23.55
867.544	11.26
867.718	82.94
867.891	13.31
868.065	23.55
868.238	56.32
868.412	41.98
868.585	29.7
868.759	-21.5
868.932	37.89
869.105	23.55
869.279	29.7
869.452	1.02
869.625	41.98
869.799	17.41
869.972	-70.65
870.145	29.7
870.319	-58.37
870.492	17.41
870.665	5.12
870.838	50.18
871.011	17.41
871.185	72.7
871.358	58.37
871.531	48.13
871.704	27.65
871.877	68.61
872.05	-3.07
872.223	-33.79
872.396	37.89
872.569	68.61
872.742	5.12
872.915	25.6
873.088	35.84
873.261	58.37
873.434	23.55
873.607	39.94
873.78	23.55
873.953	13.31
874.126	-44.03
874.299	25.6
874.471	9.22
874.644	-19.46
874.817	74.75
874.99	9.22
875.163	23.55
875.335	19.46
875.508	68.61
875.681	50.18
875.853	-56.32
876.026	29.7
876.199	29.7
876.371	9.22
876.544	64.51
876.717	11.26
876.889	9.22
877.062	54.27
877.234	-15.36
877.407	-27.65
877.579	37.89
877.752	-1.02
877.924	95.23
878.097	50.18
878.269	72.7
878.442	37.89
878.614	13.31
878.786	11.26
878.959	46.08
879.131	56.32
879.303	-29.7
879.476	-3.07
879.648	48.13
879.82	39.94
879.993	-66.56
880.165	66.56
880.337	33.79
880.509	29.7
880.681	-46.08
880.854	29.7
881.026	50.18
881.198	-11.26
881.37	13.31
881.542	33.79
881.714	54.27
881.886	56.32
882.058	1.02
882.23	-1.02
882.402	-3.07
882.574	76.8
882.746	29.7
882.918	82.94
883.09	35.84
883.262	-11.26
883.434	21.5
883.606	-62.46
883.778	15.36
883.95	39.94
884.122	-31.74
884.293	74.75
884.465	-19.46
884.637	33.79
884.809	-33.79
884.98	39.94
885.152	74.75
885.324	19.46
885.496	9.22
885.667	25.6
885.839	-15.36
886.011	31.74
886.182	105.47
886.354	21.5
886.525	-15.36
886.697	-13.31
886.869	-13.31
887.04	39.94
887.212	-13.31
887.383	46.08
887.555	74.75
887.726	64.51
887.897	-9.22
888.069	39.94
888.24	-17.41
888.412	15.36
888.583	60.42
888.754	13.31
888.926	5.12
889.097	48.13
889.268	-41.98
889.44	-7.17
889.611	44.03
889.782	50.18
889.953	-41.98
890.125	31.74
890.296	-31.74
890.467	-1.02
890.638	35.84
890.809	-7.17
890.98	97.28
891.151	21.5
891.323	39.94
891.494	46.08
891.665	-19.46
891.836	-17.41
892.007	29.7
892.178	-13.31
892.349	-31.74
892.52	-9.22
892.691	37.89
892.862	19.46
893.032	21.5
893.203	-60.42
893.374	60.42
893.545	105.47
893.716	-17.41
893.887	66.56
894.057	82.94
894.228	3.07
894.399	5.12
894.57	76.8
894.74	-52.22
894.911	37.89
895.082	95.23
895.253	13.31
895.423	9.22
895.594	-27.65
895.764	46.08
895.935	62.46
896.106	-31.74
896.276	-74.75
896.447	-11.26
896.617	-15.36
896.788	33.79
896.958	11.26
897.129	27.65
897.299	50.18
897.47	3.07
897.64	21.5
897.81	-3.07
897.981	66.56
898.151	7.17
898.322	78.85
898.492	84.99
898.662	95.23
898.832	27.65
899.003	-21.5
899.173	21.5
899.343	9.22
899.513	-31.74
