Data from USB4F104151__69__13-53-54-974.txt Node

Date: Thu Mar 13 13:53:54 EDT 2025
User: louis
Spectrometer: USB4F10415
Trigger mode: 4
Integration Time (sec): 1.000000E-2
Scans to average: 1
Electric dark correction enabled: true
Nonlinearity correction enabled: false
Boxcar width: 0
XAxis mode: Wavelengths
Number of Pixels in Spectrum: 3648
>>>>>Begin Spectral Data<<<<<
178.204	-40.79
178.424	-40.79
178.644	-40.79
178.864	-81.75
179.084	-12.12
179.304	-38.74
179.524	39.08
179.744	-32.6
179.964	4.27
180.184	39.08
180.404	28.84
180.624	-18.26
180.844	2.22
181.064	-12.12
181.283	39.08
181.503	-26.45
181.723	-24.4
181.943	49.32
182.163	77.99
182.383	12.46
182.602	-8.02
182.822	16.55
183.042	0.17
183.262	10.41
183.482	-14.17
183.701	-10.07
183.921	80.04
184.141	0.17
184.361	28.84
184.58	24.75
184.8	67.75
185.02	-34.64
185.239	-14.17
185.459	28.84
185.679	49.32
185.898	51.37
186.118	28.84
186.338	-10.07
186.557	82.09
186.777	-5.97
186.997	34.99
187.216	22.7
187.436	51.37
187.655	-12.12
187.875	37.03
188.095	94.38
188.314	-26.45
188.534	57.51
188.753	45.23
188.973	6.31
189.192	57.51
189.412	32.94
189.631	-16.21
189.851	-20.31
190.07	-22.36
190.29	43.18
190.509	-3.93
190.729	34.99
190.948	39.08
191.168	174.25
191.387	57.51
191.607	2.22
191.826	14.51
192.045	-36.69
192.265	-48.98
192.484	16.55
192.704	41.13
192.923	41.13
193.142	41.13
193.362	22.7
193.581	63.66
193.8	20.65
194.02	-5.97
194.239	18.6
194.458	53.42
194.678	-16.21
194.897	82.09
195.116	-30.55
195.335	-3.93
195.555	4.27
195.774	28.84
195.993	16.55
196.212	67.75
196.432	43.18
196.651	-16.21
196.87	-14.17
197.089	69.8
197.308	-3.93
197.528	4.27
197.747	24.75
197.966	90.28
198.185	100.52
198.404	77.99
198.623	28.84
198.842	100.52
199.062	88.23
199.281	-12.12
199.5	-14.17
199.719	82.09
199.938	4.27
200.157	26.79
200.376	77.99
200.595	0.17
200.814	67.75
201.033	-1.88
201.252	-3.93
201.471	0.17
201.69	63.66
201.909	2.22
202.128	51.37
202.347	20.65
202.566	-12.12
202.785	-8.02
203.004	10.41
203.223	30.89
203.442	43.18
203.661	90.28
203.879	121
204.098	8.36
204.317	-3.93
204.536	-28.5
204.755	73.9
204.974	-5.97
205.193	32.94
205.411	39.08
205.63	-18.26
205.849	-10.07
206.068	18.6
206.287	-5.97
206.505	65.71
206.724	20.65
206.943	0.17
207.162	65.71
207.381	12.46
207.599	-32.6
207.818	63.66
208.037	-18.26
208.255	59.56
208.474	8.36
208.693	-83.8
208.911	4.27
209.13	39.08
209.349	22.7
209.567	67.75
209.786	22.7
210.005	26.79
210.223	2.22
210.442	14.51
210.661	28.84
210.879	45.23
211.098	45.23
211.316	92.33
211.535	65.71
211.753	-28.5
211.972	104.62
212.191	-10.07
212.409	22.7
212.628	6.31
212.846	65.71
213.065	30.89
213.283	69.8
213.502	59.56
213.72	80.04
213.938	-8.02
214.157	8.36
214.375	16.55
214.594	28.84
214.812	-14.17
215.031	69.8
215.249	67.75
215.467	47.27
215.686	67.75
215.904	61.61
216.122	24.75
216.341	18.6
216.559	-10.07
216.778	37.03
216.996	125.1
217.214	108.71
217.432	2.22
217.651	63.66
217.869	75.95
218.087	71.85
218.306	8.36
218.524	73.9
218.742	22.7
218.96	63.66
219.179	22.7
219.397	10.41
219.615	18.6
219.833	28.84
220.051	90.28
220.27	-3.93
220.488	14.51
220.706	10.41
220.924	32.94
221.142	-8.02
221.36	34.99
221.578	-10.07
221.796	45.23
222.015	65.71
222.233	88.23
222.451	96.43
222.669	20.65
222.887	59.56
223.105	-28.5
223.323	28.84
223.541	10.41
223.759	30.89
223.977	12.46
224.195	24.75
224.413	49.32
224.631	100.52
224.849	6.31
225.067	28.84
225.285	-22.36
225.503	-20.31
225.721	-30.55
225.939	-22.36
226.157	47.27
226.375	71.85
226.592	61.61
226.81	-16.21
227.028	77.99
227.246	61.61
227.464	80.04
227.682	10.41
227.9	49.32
228.117	-16.21
228.335	-18.26
228.553	6.31
228.771	-12.12
228.989	45.23
229.206	-20.31
229.424	88.23
229.642	49.32
229.86	-8.02
230.077	22.7
230.295	12.46
230.513	26.79
230.731	18.6
230.948	137.38
231.166	90.28
231.384	-5.97
231.601	26.79
231.819	37.03
232.037	73.9
232.254	-20.31
232.472	28.84
232.689	18.6
232.907	22.7
233.125	71.85
233.342	37.03
233.56	-10.07
233.777	59.56
233.995	-10.07
234.213	90.28
234.43	28.84
234.648	14.51
234.865	4.27
235.083	94.38
235.3	14.51
235.518	32.94
235.735	14.51
235.953	55.47
236.17	22.7
236.388	-3.93
236.605	32.94
236.822	90.28
237.04	75.95
237.257	-14.17
237.475	43.18
237.692	18.6
237.909	-24.4
238.127	-36.69
238.344	32.94
238.562	18.6
238.779	32.94
238.996	49.32
239.214	-5.97
239.431	127.14
239.648	92.33
239.865	6.31
240.083	49.32
240.3	-34.64
240.517	34.99
240.735	59.56
240.952	71.85
241.169	-26.45
241.386	-44.88
241.603	53.42
241.821	-8.02
242.038	53.42
242.255	45.23
242.472	12.46
242.689	6.31
242.907	32.94
243.124	34.99
243.341	59.56
243.558	-16.21
243.775	-12.12
243.992	53.42
244.209	69.8
244.426	-16.21
244.643	-24.4
244.86	-26.45
245.078	55.47
245.295	57.51
245.512	71.85
245.729	-73.56
245.946	37.03
246.163	10.41
246.38	4.27
246.597	71.85
246.814	43.18
247.031	-5.97
247.248	45.23
247.464	10.41
247.681	14.51
247.898	-22.36
248.115	59.56
248.332	6.31
248.549	39.08
248.766	63.66
248.983	-8.02
249.2	161.96
249.417	0.17
249.633	51.37
249.85	49.32
250.067	37.03
250.284	118.95
250.501	6.31
250.717	53.42
250.934	-12.12
251.151	-14.17
251.368	53.42
251.585	12.46
251.801	41.13
252.018	110.76
252.235	57.51
252.451	43.18
252.668	51.37
252.885	-1.88
253.102	82.09
253.318	-8.02
253.535	100.52
253.752	14.51
253.968	39.08
254.185	67.75
254.401	10.41
254.618	61.61
254.835	75.95
255.051	86.19
255.268	-3.93
255.484	53.42
255.701	63.66
255.917	94.38
256.134	-30.55
256.351	59.56
256.567	80.04
256.784	-8.02
257	26.79
257.217	53.42
257.433	65.71
257.65	-30.55
257.866	10.41
258.082	49.32
258.299	-55.12
258.515	-55.12
258.732	57.51
258.948	8.36
259.165	-8.02
259.381	39.08
259.597	12.46
259.814	112.81
260.03	16.55
260.246	86.19
260.463	100.52
260.679	8.36
260.895	55.47
261.112	65.71
261.328	30.89
261.544	32.94
261.761	49.32
261.977	22.7
262.193	47.27
262.409	-3.93
262.626	18.6
262.842	20.65
263.058	41.13
263.274	20.65
263.49	32.94
263.707	20.65
263.923	20.65
264.139	86.19
264.355	39.08
264.571	18.6
264.787	41.13
265.004	-51.03
265.22	4.27
265.436	-5.97
265.652	34.99
265.868	65.71
266.084	-16.21
266.3	24.75
266.516	10.41
266.732	77.99
266.948	22.7
267.164	6.31
267.38	59.56
267.596	28.84
267.812	-67.41
268.028	16.55
268.244	59.56
268.46	8.36
268.676	106.67
268.892	37.03
269.108	96.43
269.324	65.71
269.54	-40.79
269.756	45.23
269.972	-10.07
270.188	-26.45
270.403	65.71
270.619	-8.02
270.835	4.27
271.051	24.75
271.267	63.66
271.483	0.17
271.698	49.32
271.914	53.42
272.13	-5.97
272.346	-24.4
272.562	45.23
272.777	43.18
272.993	-34.64
273.209	-40.79
273.425	0.17
273.64	51.37
273.856	45.23
274.072	41.13
274.287	14.51
274.503	2.22
274.719	80.04
274.934	30.89
275.15	8.36
275.366	55.47
275.581	-57.17
275.797	22.7
276.012	-44.88
276.228	-26.45
276.444	-1.88
276.659	80.04
276.875	39.08
277.09	16.55
277.306	16.55
277.521	41.13
277.737	-1.88
277.952	92.33
278.168	47.27
278.383	-24.4
278.599	4.27
278.814	34.99
279.03	12.46
279.245	67.75
279.461	30.89
279.676	65.71
279.892	8.36
280.107	67.75
280.322	41.13
280.538	77.99
280.753	16.55
280.969	73.9
281.184	34.99
281.399	30.89
281.615	90.28
281.83	-34.64
282.045	6.31
282.26	65.71
282.476	86.19
282.691	-1.88
282.906	8.36
283.122	43.18
283.337	28.84
283.552	59.56
283.767	86.19
283.983	28.84
284.198	-10.07
284.413	69.8
284.628	24.75
284.843	28.84
285.058	116.9
285.274	16.55
285.489	28.84
285.704	55.47
285.919	26.79
286.134	86.19
286.349	6.31
286.564	14.51
286.779	63.66
286.995	59.56
287.21	12.46
287.425	22.7
287.64	8.36
287.855	96.43
288.07	53.42
288.285	26.79
288.5	94.38
288.715	108.71
288.93	8.36
289.145	39.08
289.36	63.66
289.575	22.7
289.79	22.7
290.004	80.04
290.219	8.36
290.434	-18.26
290.649	2.22
290.864	59.56
291.079	57.51
291.294	16.55
291.509	39.08
291.724	28.84
291.938	18.6
292.153	67.75
292.368	80.04
292.583	8.36
292.798	16.55
293.012	-16.21
293.227	16.55
293.442	-1.88
293.657	22.7
293.871	34.99
294.086	84.14
294.301	32.94
294.516	41.13
294.73	14.51
294.945	32.94
295.16	28.84
295.374	37.03
295.589	51.37
295.804	32.94
296.018	30.89
296.233	69.8
296.447	57.51
296.662	-18.26
296.877	43.18
297.091	82.09
297.306	118.95
297.52	26.79
297.735	82.09
297.949	28.84
298.164	77.99
298.378	69.8
298.593	55.47
298.807	10.41
299.022	49.32
299.236	59.56
299.451	-24.4
299.665	16.55
299.88	39.08
300.094	20.65
300.309	14.51
300.523	-8.02
300.737	34.99
300.952	43.18
301.166	71.85
301.381	18.6
301.595	63.66
301.809	57.51
302.024	6.31
302.238	53.42
302.452	108.71
302.667	20.65
302.881	59.56
303.095	20.65
303.309	24.75
303.524	16.55
303.738	6.31
303.952	-14.17
304.166	14.51
304.381	49.32
304.595	26.79
304.809	47.27
305.023	77.99
305.237	0.17
305.452	61.61
305.666	43.18
305.88	30.89
306.094	45.23
306.308	24.75
306.522	45.23
306.736	139.43
306.95	77.99
307.164	51.37
307.379	49.32
307.593	57.51
307.807	-14.17
308.021	26.79
308.235	-28.5
308.449	80.04
308.663	45.23
308.877	10.41
309.091	84.14
309.305	96.43
309.519	2.22
309.733	22.7
309.947	49.32
310.161	55.47
310.374	51.37
310.588	80.04
310.802	6.31
311.016	26.79
311.23	90.28
311.444	34.99
311.658	-12.12
311.872	51.37
312.085	32.94
312.299	108.71
312.513	26.79
312.727	55.47
312.941	37.03
313.154	67.75
313.368	45.23
313.582	2.22
313.796	-28.5
314.009	24.75
314.223	108.71
314.437	-1.88
314.651	43.18
314.864	-24.4
315.078	4.27
315.292	108.71
315.505	-12.12
315.719	43.18
315.933	-10.07
316.146	32.94
316.36	-3.93
316.573	6.31
316.787	51.37
317.001	18.6
317.214	8.36
317.428	75.95
317.641	2.22
317.855	34.99
318.068	22.7
318.282	-3.93
318.495	82.09
318.709	77.99
318.922	22.7
319.136	45.23
319.349	49.32
319.563	37.03
319.776	18.6
319.99	-42.84
320.203	57.51
320.417	71.85
320.63	10.41
320.843	129.19
321.057	18.6
321.27	45.23
321.483	-1.88
321.697	71.85
321.91	43.18
322.124	53.42
322.337	16.55
322.55	30.89
322.763	18.6
322.977	-1.88
323.19	32.94
323.403	92.33
323.617	2.22
323.83	80.04
324.043	-10.07
324.256	-30.55
324.469	43.18
324.683	14.51
324.896	6.31
325.109	24.75
325.322	24.75
325.535	47.27
325.748	57.51
325.962	16.55
326.175	65.71
326.388	14.51
326.601	100.52
326.814	-3.93
327.027	59.56
327.24	-12.12
327.453	12.46
327.666	61.61
327.879	32.94
328.092	90.28
328.305	14.51
328.518	37.03
328.731	10.41
328.944	22.7
329.157	34.99
329.37	34.99
329.583	59.56
329.796	43.18
330.009	20.65
330.222	69.8
330.435	10.41
330.648	8.36
330.861	22.7
331.073	16.55
331.286	80.04
331.499	-16.21
331.712	106.67
331.925	12.46
332.138	20.65
332.35	94.38
332.563	14.51
332.776	61.61
332.989	24.75
333.202	-30.55
333.414	8.36
333.627	100.52
333.84	18.6
334.053	49.32
334.265	28.84
334.478	65.71
334.691	-16.21
334.903	94.38
335.116	2.22
335.329	34.99
335.541	53.42
335.754	24.75
335.966	-12.12
336.179	20.65
336.392	26.79
336.604	20.65
336.817	16.55
337.029	39.08
337.242	61.61
337.454	53.42
337.667	10.41
337.88	73.9
338.092	37.03
338.305	41.13
338.517	45.23
338.729	12.46
338.942	-5.97
339.154	2.22
339.367	-22.36
339.579	84.14
339.792	12.46
340.004	39.08
340.217	0.17
340.429	37.03
340.641	0.17
340.854	26.79
341.066	47.27
341.278	45.23
341.491	18.6
341.703	118.95
341.915	-3.93
342.128	55.47
342.34	63.66
342.552	-5.97
342.764	47.27
342.977	30.89
343.189	2.22
343.401	100.52
343.613	16.55
343.826	39.08
344.038	39.08
344.25	37.03
344.462	39.08
344.674	61.61
344.886	22.7
345.099	71.85
345.311	8.36
345.523	4.27
345.735	-18.26
345.947	102.57
346.159	34.99
346.371	73.9
346.583	69.8
346.795	43.18
347.007	-3.93
347.219	37.03
347.431	-26.45
347.643	90.28
347.855	12.46
348.067	16.55
348.279	41.13
348.491	80.04
348.703	-30.55
348.915	90.28
349.127	-18.26
349.339	51.37
349.551	53.42
349.763	84.14
349.975	14.51
350.187	155.82
350.399	61.61
350.61	55.47
350.822	65.71
351.034	24.75
351.246	71.85
351.458	24.75
351.669	49.32
351.881	59.56
352.093	49.32
352.305	22.7
352.517	34.99
352.728	112.81
352.94	39.08
353.152	135.34
353.363	20.65
353.575	77.99
353.787	45.23
353.999	141.48
354.21	12.46
354.422	-65.36
354.633	30.89
354.845	53.42
355.057	28.84
355.268	-14.17
355.48	22.7
355.692	22.7
355.903	49.32
356.115	2.22
356.326	-3.93
356.538	86.19
356.749	22.7
356.961	57.51
357.172	71.85
357.384	41.13
357.595	41.13
357.807	-3.93
358.018	28.84
358.23	63.66
358.441	-8.02
358.653	98.47
358.864	10.41
359.075	49.32
359.287	30.89
359.498	10.41
359.709	12.46
359.921	71.85
360.132	0.17
360.344	92.33
360.555	82.09
360.766	43.18
360.977	34.99
361.189	45.23
361.4	69.8
361.611	100.52
361.823	39.08
362.034	18.6
362.245	34.99
362.456	127.14
362.667	39.08
362.879	53.42
363.09	12.46
363.301	96.43
363.512	8.36
363.723	53.42
363.935	-10.07
364.146	137.38
364.357	82.09
364.568	45.23
364.779	-44.88
364.99	53.42
365.201	4.27
365.412	123.05
365.623	43.18
365.834	12.46
366.045	51.37
366.256	22.7
366.467	45.23
366.678	102.57
366.889	6.31
367.1	-14.17
367.311	-14.17
367.522	6.31
367.733	22.7
367.944	61.61
368.155	32.94
368.366	30.89
368.577	49.32
368.788	47.27
368.999	26.79
369.209	59.56
369.42	20.65
369.631	145.58
369.842	69.8
370.053	47.27
370.264	28.84
370.474	0.17
370.685	28.84
370.896	0.17
371.107	2.22
371.317	30.89
371.528	-1.88
371.739	34.99
371.95	10.41
372.16	12.46
372.371	-5.97
372.582	26.79
372.792	75.95
373.003	-5.97
373.214	37.03
373.424	77.99
373.635	10.41
373.846	63.66
374.056	41.13
374.267	24.75
374.477	71.85
374.688	151.72
374.898	55.47
375.109	65.71
375.319	41.13
375.53	-42.84
375.74	51.37
375.951	30.89
376.161	39.08
376.372	45.23
376.582	0.17
376.793	26.79
377.003	88.23
377.214	34.99
377.424	43.18
377.635	12.46
377.845	30.89
378.055	28.84
378.266	30.89
378.476	-26.45
378.686	0.17
378.897	86.19
379.107	16.55
379.317	92.33
379.528	16.55
379.738	43.18
379.948	-22.36
380.158	71.85
380.369	14.51
380.579	12.46
380.789	108.71
380.999	22.7
381.21	65.71
381.42	45.23
381.63	-5.97
381.84	45.23
382.05	98.47
382.261	92.33
382.471	86.19
382.681	59.56
382.891	59.56
383.101	86.19
383.311	77.99
383.521	22.7
383.731	24.75
383.941	51.37
384.151	73.9
384.361	57.51
384.571	61.61
384.781	4.27
384.991	39.08
385.201	61.61
385.411	53.42
385.621	4.27
385.831	41.13
386.041	32.94
386.251	65.71
386.461	34.99
386.671	71.85
386.881	88.23
387.091	4.27
387.301	39.08
387.511	22.7
387.72	34.99
387.93	20.65
388.14	55.47
388.35	102.57
388.56	110.76
388.769	110.76
388.979	94.38
389.189	32.94
389.399	86.19
389.609	32.94
389.818	-14.17
390.028	30.89
390.238	69.8
390.447	82.09
390.657	94.38
390.867	71.85
391.076	65.71
391.286	18.6
391.496	26.79
391.705	37.03
391.915	108.71
392.125	90.28
392.334	135.34
392.544	43.18
392.753	-28.5
392.963	96.43
393.172	32.94
393.382	49.32
393.591	18.6
393.801	59.56
394.01	57.51
394.22	16.55
394.429	86.19
394.639	69.8
394.848	63.66
395.058	57.51
395.267	16.55
395.477	47.27
395.686	129.19
395.895	57.51
396.105	24.75
396.314	16.55
396.524	20.65
396.733	86.19
396.942	104.62
397.152	82.09
397.361	104.62
397.57	143.53
397.78	41.13
397.989	77.99
398.198	110.76
398.407	-10.07
398.617	77.99
398.826	71.85
399.035	45.23
399.244	75.95
399.453	49.32
399.663	18.6
399.872	92.33
400.081	86.19
400.29	118.95
400.499	32.94
400.708	57.51
400.917	84.14
401.127	82.09
401.336	55.47
401.545	155.82
401.754	82.09
401.963	43.18
402.172	73.9
402.381	127.14
402.59	80.04
402.799	39.08
403.008	49.32
403.217	102.57
403.426	26.79
403.635	137.38
403.844	41.13
404.053	104.62
404.262	100.52
404.471	137.38
404.68	84.14
404.888	77.99
405.097	49.32
405.306	75.95
405.515	30.89
405.724	96.43
405.933	141.48
406.142	121
406.35	86.19
406.559	26.79
406.768	114.86
406.977	112.81
407.185	104.62
407.394	102.57
407.603	104.62
407.812	69.8
408.02	73.9
408.229	172.2
408.438	159.91
408.646	123.05
408.855	133.29
409.064	125.1
409.272	168.1
409.481	180.39
409.69	182.44
409.898	98.47
410.107	98.47
410.315	178.34
410.524	204.97
410.733	75.95
410.941	182.44
411.15	200.87
411.358	166.06
411.567	186.54
411.775	258.21
411.984	147.62
412.192	219.3
412.401	225.45
412.609	182.44
412.818	262.31
413.026	254.12
413.234	288.93
413.443	272.55
413.651	301.22
413.86	288.93
414.068	254.12
414.276	280.74
414.485	293.03
414.693	340.13
414.901	331.94
415.11	352.42
415.318	391.33
415.526	297.13
415.734	385.19
415.943	395.43
416.151	346.28
416.359	315.56
416.567	481.44
416.776	385.19
416.984	409.76
417.192	432.29
417.4	499.88
417.608	463.01
417.817	514.21
418.025	540.83
418.233	534.69
418.441	536.74
418.649	536.74
418.857	577.7
419.065	682.14
419.273	567.46
419.481	616.61
419.689	618.66
419.897	686.24
420.105	688.29
420.313	706.72
420.521	700.58
420.729	755.87
420.937	706.72
421.145	753.82
421.353	817.31
421.561	862.37
421.769	878.75
421.977	854.17
422.185	919.71
422.393	997.53
422.601	981.15
422.809	1007.77
423.017	1026.2
423.224	977.05
423.432	1087.64
423.64	1177.75
423.848	1214.62
424.056	1181.85
424.263	1249.43
424.471	1181.85
424.679	1284.25
424.887	1415.32
425.094	1317.01
425.302	1331.35
425.51	1484.95
425.718	1530
425.925	1542.29
426.133	1505.43
426.341	1677.46
426.548	1671.31
426.756	1775.76
426.964	1679.51
427.171	1822.86
427.379	1945.74
427.586	1912.97
427.794	1980.56
428.001	1943.69
428.209	2238.6
428.417	2123.91
428.624	2263.18
428.832	2234.5
429.039	2171.02
429.247	2330.76
429.454	2488.45
429.662	2588.8
429.869	2500.74
430.076	2590.85
430.284	2472.07
430.491	2680.96
430.699	2869.37
430.906	2871.42
431.114	2936.96
431.321	3039.36
431.528	2986.11
431.736	3219.58
431.943	3401.85
432.15	3295.35
432.358	3342.46
432.565	3489.91
432.772	3475.57
432.979	3686.51
433.187	3594.36
433.394	3846.26
433.601	3944.56
433.808	4071.53
434.016	3952.75
434.223	4180.07
434.43	4446.31
434.637	4323.43
434.844	4735.07
435.052	4694.12
435.259	4690.02
435.466	4630.63
435.673	4599.91
435.88	4819.04
436.087	5298.27
436.294	5232.73
436.501	5066.85
436.708	5081.18
436.915	5210.2
437.122	5636.18
437.329	5474.39
437.537	5949.52
437.743	5908.56
437.95	5814.35
438.157	6090.83
438.364	6101.07
438.571	6375.5
438.778	6377.55
438.985	7026.75
439.192	6580.29
439.399	6803.52
439.606	6631.49
439.813	7000.13
440.02	7610.42
440.227	7233.6
440.433	7147.58
440.64	7520.31
440.847	7454.78
441.054	7710.77
441.261	7999.54
441.467	8093.74
441.674	8136.75
441.881	8462.38
442.088	8409.13
442.294	8269.87
442.501	8548.39
442.708	8857.64
442.914	9132.06
443.121	9717.78
443.328	9279.52
443.534	10049.55
443.741	9605.14
443.948	9596.95
444.154	10375.18
444.361	10080.27
444.568	10225.68
444.774	10227.73
444.981	10444.81
445.187	10604.55
445.394	11216.9
445.6	10936.32
445.807	11876.34
446.013	11554.81
446.22	11524.09
446.426	12025.84
446.633	12103.67
446.839	12611.56
447.046	12068.85
447.252	13092.83
447.459	12744.68
447.665	12804.07
447.871	13402.08
448.078	13850.58
448.284	13223.9
448.491	13842.39
448.697	14030.8
448.903	14184.4
449.11	14456.78
449.316	13991.89
449.522	14485.45
449.728	15146.95
449.935	14940.1
450.141	14862.28
450.347	15347.65
450.553	14651.34
450.76	14884.81
450.966	15327.17
451.172	15380.42
451.378	15609.79
451.584	15538.11
451.791	15783.87
451.997	15556.54
452.203	15962.04
452.409	15939.51
452.615	15747
452.821	15292.35
453.027	15007.69
453.233	15622.08
453.44	15114.18
453.646	15255.49
453.852	15464.38
454.058	15486.91
454.264	14825.42
454.47	15525.82
454.676	14876.62
454.882	15536.06
455.088	14288.85
455.294	14401.49
455.5	14469.07
455.705	14718.92
455.911	14039
456.117	13795.29
456.323	13434.85
456.529	12974.05
456.735	13682.65
456.941	12965.86
457.147	12910.57
457.352	12507.12
457.558	12183.54
457.764	12294.13
457.97	12189.68
458.176	12044.27
458.381	11956.21
458.587	11284.48
458.793	11419.64
458.999	10758.15
459.204	11622.39
459.41	11057.15
459.616	10506.25
459.821	10278.93
460.027	10311.69
460.233	10338.32
460.438	9590.81
460.644	9646.1
460.85	9279.52
461.055	9207.84
461.261	9111.58
461.466	8523.82
461.672	8355.88
461.878	8910.88
462.083	8294.44
462.289	8202.29
462.494	8128.56
462.7	7721.01
462.905	7718.96
463.111	7886.9
463.316	7823.41
463.522	7823.41
463.727	7780.4
463.932	7659.57
464.138	7501.88
464.343	7802.93
464.549	7319.61
464.754	7649.33
464.959	7452.73
465.165	7514.17
465.37	7229.5
465.575	7061.57
465.781	7221.31
465.986	7436.35
466.191	7053.38
466.397	6817.86
466.602	6656.07
466.807	6838.34
467.012	6746.18
467.218	6713.41
467.423	6481.99
467.628	6860.87
467.833	7116.86
468.038	6760.52
468.244	6715.46
468.449	7028.8
468.654	6629.45
468.859	6527.05
469.064	6553.67
469.269	6295.63
469.474	6492.23
469.679	6514.76
469.885	6414.41
470.09	6400.07
470.295	6258.76
470.5	6205.52
470.705	6047.82
470.91	6076.49
471.115	6135.89
471.32	6258.76
471.525	6107.21
471.73	5867.6
471.935	5914.7
472.139	5808.21
472.344	5939.28
472.549	5638.23
472.754	5589.08
472.959	5445.72
473.164	5462.1
473.369	5410.9
473.574	5675.09
473.778	5548.12
473.983	5415
474.188	5535.83
474.393	5183.58
474.598	5077.09
474.802	5118.04
475.007	5144.67
475.212	5361.75
475.417	4997.21
475.621	4876.38
475.826	4929.63
476.031	4862.05
476.235	4814.95
476.44	4913.25
476.645	4761.7
476.849	4853.86
477.054	4749.41
477.259	4636.77
477.463	4776.03
477.668	4462.69
477.872	4581.48
478.077	4561
478.282	4386.92
478.486	4399.21
478.691	4358.25
478.895	4327.53
479.1	4321.38
479.304	4296.81
479.509	4149.36
479.713	4386.92
479.918	4102.25
480.122	4102.25
480.326	4169.84
480.531	4132.97
480.735	3995.76
480.94	4175.98
481.144	4218.99
481.348	4055.15
481.553	4128.88
481.757	4092.01
481.961	4147.31
482.166	4126.83
482.37	4079.72
482.574	4059.24
482.778	4083.82
482.983	4096.11
483.187	3981.42
483.391	4190.31
483.595	4087.92
483.8	4063.34
484.004	4063.34
484.208	4044.91
484.412	4022.38
484.616	4006
484.821	4010.09
485.025	4112.49
485.229	4083.82
485.433	4081.77
485.637	3979.37
485.841	4022.38
486.045	4034.67
486.249	4085.87
486.453	4053.1
486.657	4063.34
486.861	4143.21
487.065	3926.13
487.269	4100.2
487.473	3995.76
487.677	4075.63
487.881	4128.88
488.085	4053.1
488.289	3995.76
488.493	4092.01
488.697	4159.6
488.901	4034.67
489.105	4057.2
489.309	4137.07
489.512	4128.88
489.716	4114.54
489.92	4163.69
490.124	4018.29
490.328	4102.25
490.531	4126.83
490.735	4151.4
490.939	4200.55
491.143	4194.41
491.346	4280.43
491.55	4270.19
491.754	4286.57
491.958	4350.06
492.161	4243.56
492.365	4333.67
492.569	4212.84
492.772	4382.82
492.976	4249.71
493.18	4419.69
493.383	4311.14
493.587	4487.27
493.79	4505.7
493.994	4401.26
494.197	4534.37
494.401	4587.62
494.605	4581.48
494.808	4694.12
495.012	4528.23
495.215	4687.97
495.419	4706.4
495.622	4669.54
495.825	4864.1
496.029	4733.03
496.232	4989.02
496.436	4769.89
496.639	5093.47
496.843	4927.58
497.046	5312.6
497.249	5109.85
497.453	5167.2
497.656	5316.7
497.859	5267.55
498.063	5451.86
498.266	5417.05
498.469	5365.85
498.673	5591.13
498.876	5648.47
499.079	5777.49
499.282	5654.61
499.485	5779.54
499.689	5863.51
499.892	5853.27
500.095	6099.02
500.298	6031.44
500.501	6139.98
500.705	6371.4
500.908	6326.35
501.111	6568.01
501.314	6594.63
501.517	6502.47
501.72	6651.97
501.923	6510.66
502.126	6654.02
502.329	6803.52
502.532	7010.37
502.735	6828.1
502.938	7075.9
503.141	7010.37
503.344	7262.27
503.547	7067.71
503.75	7389.24
503.953	7589.94
504.156	7546.94
504.359	7680.05
504.562	7628.85
504.765	7909.43
504.968	7952.43
505.17	8042.54
505.373	8196.14
505.576	8134.7
505.779	8398.89
505.982	8515.62
506.185	8701.99
506.387	8704.04
506.59	8886.31
506.793	8968.23
506.996	8796.2
507.198	9164.83
507.401	9209.89
507.604	9302.04
507.807	9355.29
508.009	9529.37
508.212	9463.83
508.415	9629.72
508.617	9930.77
508.82	9824.28
509.022	10027.03
509.225	10465.29
509.428	10375.18
509.63	10371.08
509.833	10467.34
510.035	10876.93
510.238	10926.08
510.44	10983.43
510.643	11360.25
510.845	11202.56
511.048	11044.87
511.25	11431.93
511.453	11644.92
511.655	11956.21
511.858	11907.06
512.06	11747.32
512.262	12087.28
512.465	12007.41
512.667	12443.63
512.87	12543.98
513.072	12699.62
513.274	13006.82
513.477	12894.18
513.679	13141.99
513.881	13344.74
514.084	13592.54
514.286	13430.75
514.488	13789.14
514.69	14120.92
514.893	13883.35
515.095	14139.35
515.297	14188.5
515.499	14524.37
515.701	14591.95
515.904	14901.19
516.106	14809.03
516.308	15220.67
516.51	15103.94
516.712	15384.51
516.914	15716.28
517.116	15914.94
517.318	15978.42
517.52	16070.58
517.722	16195.51
517.925	16406.45
518.127	17061.8
518.329	16990.12
518.531	16785.32
518.733	17317.79
518.935	17287.07
519.136	17479.58
519.338	17649.57
519.54	17803.16
519.742	18048.92
519.944	18030.49
520.146	18354.07
520.348	18632.59
520.55	18648.97
520.752	18571.15
520.954	19113.86
521.155	19074.95
521.357	19402.63
521.559	19502.98
521.761	19881.85
521.963	19732.35
522.164	20043.64
522.366	20012.92
522.568	20354.93
522.77	20641.65
522.971	20903.79
523.173	20647.79
523.375	21208.94
523.576	21194.6
523.778	21251.94
523.98	21571.43
524.181	21473.12
524.383	21503.84
524.584	22005.59
524.786	22064.99
524.988	21907.29
525.189	22253.4
525.391	22175.58
525.592	22593.36
525.794	22474.58
525.995	22624.08
526.197	22622.03
526.398	22695.76
526.6	22992.72
526.801	23056.2
527.003	23279.43
527.204	23539.52
527.406	23271.24
527.607	23295.82
527.808	23781.18
528.01	23459.65
528.211	23494.47
528.412	24072
528.614	23775.04
528.815	24016.7
529.016	24293.18
529.218	24287.03
529.419	24444.73
529.62	24211.26
529.822	24332.09
530.023	24282.94
530.224	24823.6
530.425	24577.84
530.626	24559.41
530.828	24459.06
531.029	25032.49
531.23	24344.38
531.431	24713.01
531.632	24713.01
531.833	25028.4
532.035	24600.37
532.236	24848.18
532.437	24837.94
532.638	25161.51
532.839	25247.53
533.04	25057.07
533.241	24903.47
533.442	25468.71
533.643	25239.34
533.844	25360.17
534.045	25401.13
534.246	24999.73
534.447	25356.07
534.648	25538.34
534.849	25366.31
535.05	25360.17
535.251	25292.58
535.451	25294.63
535.652	25458.47
535.853	25263.91
536.054	25614.12
536.255	25249.58
536.456	25444.13
536.657	25898.78
536.857	25515.81
537.058	25339.69
537.259	25663.27
537.46	25339.69
537.66	25581.35
537.861	25605.92
538.062	25442.09
538.263	25564.96
538.463	25188.14
538.664	25622.31
538.865	25769.76
539.065	25761.57
539.266	25237.29
539.466	25911.07
539.667	25493.29
539.868	25612.07
540.068	25687.84
540.269	25601.83
540.469	25777.95
540.67	25368.36
540.87	25708.32
541.071	25509.67
541.271	25648.93
541.472	25831.2
541.672	25372.46
541.873	25374.5
542.073	25208.62
542.274	26076.96
542.474	25483.05
542.675	25550.63
542.875	25782.05
543.075	25452.33
543.276	25419.56
543.476	25659.17
543.676	25407.27
543.877	25644.84
544.077	25468.71
544.277	25274.15
544.478	25452.33
544.678	25524.01
544.878	25622.31
545.078	25597.73
545.279	25151.27
545.479	25657.12
545.679	25640.74
545.879	25399.08
546.079	25773.86
546.28	25284.39
546.48	25345.83
546.68	25642.79
546.88	25577.25
547.08	25673.51
547.28	25356.07
547.48	25216.81
547.68	25417.51
547.88	25300.78
548.081	25653.03
548.281	25335.59
548.481	25384.74
548.681	25655.08
548.881	25718.56
549.081	25220.91
549.28	25696.03
549.48	25927.46
549.68	25440.04
549.88	25904.93
550.08	25319.21
550.28	25775.91
550.48	25800.48
550.68	25939.74
550.88	25569.06
551.08	25222.95
551.279	25638.69
551.479	25095.98
551.679	25284.39
551.879	25263.91
552.079	25415.46
552.278	25519.91
552.478	25528.1
552.678	25534.25
552.878	25476.9
553.077	25335.59
553.277	24960.81
553.477	25724.71
553.676	25225
553.876	25270.06
554.076	25290.54
554.275	25169.71
554.475	25036.59
554.674	25253.67
554.874	25132.84
555.074	25022.25
555.273	24885.04
555.473	25325.35
555.672	25089.84
555.872	25329.45
556.071	24911.66
556.271	25366.31
556.47	25091.88
556.67	25085.74
556.869	24819.5
557.068	24993.58
557.268	24887.09
557.467	24831.79
557.667	24848.18
557.866	25100.08
558.065	24760.11
558.265	25089.84
558.464	24723.25
558.663	24749.87
558.863	24710.96
559.062	24782.64
559.261	24463.16
559.461	24786.74
559.66	24284.98
559.859	24489.78
560.058	24270.65
560.258	24201.02
560.457	24291.13
560.656	24530.74
560.855	24252.22
561.054	24053.56
561.253	24018.75
561.453	24315.7
561.652	24239.93
561.851	24262.46
562.05	24110.91
562.249	23682.88
562.448	24284.98
562.647	24016.7
562.846	23869.25
563.045	23977.79
563.244	23691.07
563.443	23983.93
563.642	23517
563.841	23842.62
564.04	23451.46
564.239	23660.35
564.438	23273.29
564.637	23465.8
564.836	23824.19
565.035	23154.51
565.234	23529.28
565.432	23217.99
565.631	23338.82
565.83	23369.54
566.029	23326.53
566.228	23312.2
566.427	23109.45
566.625	22548.31
566.824	22996.81
567.023	22978.38
567.222	22638.42
567.42	22865.74
567.619	22744.91
567.818	22955.85
568.016	22726.48
568.215	22726.48
568.414	22255.45
568.612	22550.35
568.811	22275.93
569.01	22361.94
569.208	22064.99
569.407	22490.96
569.605	22355.8
569.804	22339.41
570.002	22024.03
570.201	22118.23
570.4	21870.43
570.598	21765.98
570.797	21696.35
570.995	21901.15
571.193	21663.58
571.392	21839.71
571.59	21415.78
571.789	21612.38
571.987	21491.55
572.186	21485.41
572.384	21354.34
572.582	21495.65
572.781	21356.39
572.979	21096.3
573.177	21014.38
573.376	20989.8
573.574	20838.25
573.772	20993.9
573.971	20567.92
574.169	20772.72
574.367	20815.73
574.565	20813.68
574.763	20496.24
574.962	20475.76
575.16	20111.22
575.358	20557.68
575.556	20164.47
575.754	20475.76
575.952	20389.75
576.151	20500.34
576.349	19863.42
576.547	19963.77
576.745	20094.84
576.943	19916.67
577.141	19885.95
577.339	19535.74
577.537	19666.81
577.735	19558.27
577.933	19595.14
578.131	19728.25
578.329	19478.4
578.527	19588.99
578.725	19470.21
578.923	19316.61
579.121	19242.89
579.319	19337.09
579.516	19093.38
579.714	19109.77
579.912	18945.93
580.11	19146.63
580.308	18780.04
580.506	18982.79
580.704	18466.7
580.901	18747.28
581.099	19093.38
581.297	18495.38
581.495	18702.22
581.692	18538.38
581.89	18145.17
582.088	18462.61
582.285	18206.61
582.483	18397.07
582.681	18235.28
582.878	18190.23
583.076	18216.85
583.274	18091.93
583.471	18022.3
583.669	18128.79
583.866	17903.51
584.064	17794.97
584.262	17739.68
584.459	17696.67
584.657	17610.65
584.854	17776.54
585.052	17395.62
585.249	17536.93
585.447	17438.62
585.644	17301.41
585.841	17778.59
586.039	17323.94
586.236	17141.67
586.434	16883.63
586.631	16996.26
586.828	17176.48
587.026	17176.48
587.223	17041.32
587.42	17074.09
587.618	16707.5
587.815	16748.46
588.012	16517.04
588.21	16695.21
588.407	16730.03
588.604	16220.08
588.801	16764.84
588.999	16435.12
589.196	16422.83
589.393	16490.42
589.59	16566.19
589.787	16443.31
589.984	16023.48
590.182	16392.11
590.379	16244.66
590.576	16134.07
590.773	16129.97
590.97	16052.15
591.167	16068.53
591.364	15534.01
591.561	16054.2
591.758	15824.83
591.955	15863.74
592.152	15974.33
592.349	15667.13
592.546	15896.5
592.743	15904.7
592.94	15480.77
593.137	15347.65
593.334	15622.08
593.531	15298.5
593.727	15448
593.924	15396.8
594.121	15275.97
594.318	15458.24
594.515	15179.72
594.712	15212.48
594.908	15171.52
595.105	15232.96
595.302	15030.21
595.499	14954.44
595.696	14845.9
595.892	14809.03
596.089	14983.11
596.286	14864.33
596.482	14743.5
596.679	14872.52
596.876	14727.11
597.072	14522.32
597.269	14778.31
597.466	14364.62
597.662	14469.07
597.859	14448.59
598.055	14514.13
598.252	14340.05
598.448	14231.51
598.645	14311.38
598.841	14239.7
599.038	14092.24
599.234	14215.12
599.431	14030.8
599.627	14000.09
599.824	14161.87
600.02	13952.98
600.217	13977.56
600.413	13828.06
600.609	13748.18
600.806	13838.3
601.002	14061.52
601.198	13807.58
601.395	13703.13
601.591	13414.37
601.787	13426.65
601.984	13594.59
602.18	13701.08
602.376	13555.68
602.572	13455.33
602.769	13416.41
602.965	13238.24
603.161	13373.41
603.357	13348.83
603.553	13092.83
603.75	13373.41
603.946	13015.01
604.142	13166.56
604.338	12638.19
604.534	12849.13
604.73	12629.99
604.926	12675.05
605.122	12746.73
605.318	12644.33
605.514	12537.84
605.71	12580.84
605.906	12722.15
606.102	12673
606.298	12752.87
606.494	12703.72
606.69	12648.43
606.886	12609.51
607.082	12365.81
607.278	12443.63
607.474	12238.83
607.67	12316.65
607.866	12206.06
608.062	12062.71
608.257	12265.46
608.453	12294.13
608.649	12206.06
608.845	12136.43
609.041	12132.34
609.236	12156.91
609.432	12204.02
609.628	12005.36
609.824	12007.41
610.019	11935.73
610.215	12079.09
610.411	11749.37
610.606	11718.65
610.802	11796.47
610.998	11737.08
611.193	11769.85
611.389	11737.08
611.584	11472.89
611.78	11485.18
611.976	11732.98
612.171	11511.8
612.367	11581.43
612.562	11401.21
612.758	11249.66
612.953	11431.93
613.149	11376.64
613.344	11194.37
613.539	11673.59
613.735	11433.98
613.93	11278.33
614.126	11433.98
614.321	11382.78
614.517	11239.42
614.712	11116.55
614.907	11044.87
615.103	11157.5
615.298	10903.56
615.493	11182.08
615.688	10936.32
615.884	11018.24
616.079	10973.19
616.274	10885.12
616.47	10829.83
616.665	10883.08
616.86	10817.54
617.055	10813.45
617.25	10532.87
617.445	10915.84
617.641	10536.97
617.836	10534.92
618.031	10348.56
618.226	10645.51
618.421	10539.02
618.616	10539.02
618.811	10321.93
619.006	10407.95
619.201	10252.3
619.396	10354.7
619.591	10004.5
619.786	10319.89
619.981	10342.41
620.176	10336.27
620.371	10063.89
620.566	10096.66
620.761	10020.88
620.956	10092.56
621.151	9895.96
621.346	9994.26
621.541	9895.96
621.735	9703.45
621.93	9515.03
622.125	9711.64
622.32	9584.66
622.515	9472.03
622.709	9486.36
622.904	9459.74
623.099	9379.87
623.294	9498.65
623.488	9256.99
623.683	9328.67
623.878	9216.03
624.072	9175.07
624.267	9173.02
624.462	9015.33
624.656	8869.92
624.851	9076.77
625.046	8863.78
625.24	8759.33
625.435	8867.88
625.629	8820.77
625.824	8763.43
626.018	8704.04
626.213	8564.78
626.407	8597.54
626.602	8425.51
626.796	8597.54
626.991	8327.21
627.185	8529.96
627.38	8441.9
627.574	8402.99
627.768	8321.07
627.963	8245.29
628.157	8290.35
628.352	8114.22
628.546	8120.37
628.74	8103.98
628.935	7997.49
629.129	7888.95
629.323	7968.82
629.517	7647.29
629.712	7749.68
629.906	7868.47
630.1	7645.24
630.294	7557.18
630.489	7632.95
630.683	7696.44
630.877	7852.08
631.071	7624.76
631.265	7536.7
631.459	7516.22
631.653	7376.95
631.848	7493.69
632.042	7243.84
632.236	7325.75
632.43	7387.19
632.624	7227.45
632.818	7141.44
633.012	7268.41
633.206	7053.38
633.4	7321.66
633.594	7135.29
633.788	7032.9
633.982	6963.26
634.176	7014.46
634.369	6877.25
634.563	6887.49
634.757	6944.83
634.951	6887.49
635.145	6766.66
635.339	6856.77
635.533	6684.74
635.726	6639.69
635.92	6635.59
636.114	6666.31
636.308	6531.14
636.501	6676.55
636.695	6574.15
636.889	6531.14
637.083	6426.7
637.276	6346.83
637.47	6242.38
637.664	6250.57
637.857	6346.83
638.051	6303.82
638.244	6197.32
638.438	6197.32
638.632	6191.18
638.825	6133.84
639.019	6082.64
639.212	6101.07
639.406	6123.6
639.599	6019.15
639.793	6023.25
639.986	5814.35
640.18	5967.95
640.373	5914.7
640.567	5783.63
640.76	5679.19
640.954	5789.78
641.147	5787.73
641.34	5595.22
641.534	5660.76
641.727	5599.32
641.92	5556.31
642.114	5636.18
642.307	5515.35
642.5	5707.86
642.694	5462.1
642.887	5511.25
643.08	5593.17
643.273	5355.61
643.467	5292.12
643.66	5277.79
643.853	5277.79
644.046	5189.72
644.239	5029.98
644.432	5163.1
644.626	5134.43
644.819	5132.38
645.012	5040.22
645.205	5003.36
645.398	5040.22
645.591	4874.34
645.784	4915.3
645.977	4864.1
646.17	4749.41
646.363	4751.46
646.556	4708.45
646.749	4825.19
646.942	4888.67
647.135	4757.6
647.328	4665.44
647.521	4655.2
647.714	4665.44
647.907	4540.52
648.099	4511.85
648.292	4659.3
648.485	4571.24
648.678	4290.67
648.871	4403.3
649.064	4491.37
649.256	4466.79
649.449	4440.17
649.642	4397.16
649.835	4231.27
650.027	4362.34
650.22	4292.71
650.413	4235.37
650.605	4178.03
650.798	4186.22
650.991	4200.55
651.183	4055.15
651.376	4184.17
651.568	4083.82
651.761	4046.96
651.954	4098.16
652.146	4147.31
652.339	4151.4
652.531	4110.44
652.724	4026.48
652.916	3995.76
653.109	3928.17
653.301	3858.54
653.494	3774.58
653.686	3930.22
653.879	3768.43
654.071	3874.93
654.263	3930.22
654.456	3797.1
654.648	3727.47
654.84	3627.12
655.033	3692.66
655.225	3580.02
655.417	3641.46
655.61	3678.32
655.802	3549.3
655.994	3588.21
656.186	3663.99
656.379	3522.68
656.571	3508.34
656.763	3397.75
656.955	3489.91
657.148	3479.67
657.34	3483.77
657.532	3524.72
657.724	3381.37
657.916	3375.22
658.108	3297.4
658.3	3276.92
658.492	3262.58
658.684	3246.2
658.876	3176.57
659.068	3252.35
659.26	3102.84
659.452	3244.15
659.644	3276.92
659.836	3223.67
660.028	3168.38
660.22	3276.92
660.412	3201.15
660.604	2879.61
660.796	3125.37
660.988	2857.09
661.18	3045.5
661.372	3063.93
661.563	2992.25
661.755	3004.54
661.947	2951.29
662.139	3029.12
662.331	2926.72
662.522	2916.48
662.714	2994.3
662.906	2850.94
663.097	2818.18
663.289	2812.03
663.481	2836.61
663.673	2871.42
663.864	2771.07
664.056	2689.15
664.247	2746.5
664.439	2857.09
664.631	2676.87
664.822	2697.35
665.014	2605.19
665.205	2742.4
665.397	2646.15
665.588	2578.56
665.78	2619.52
665.971	2670.72
666.163	2701.44
666.354	2621.57
666.546	2730.11
666.737	2472.07
666.929	2504.84
667.12	2535.56
667.311	2541.7
667.503	2465.93
667.694	2635.91
667.885	2437.25
668.077	2429.06
668.268	2453.64
668.459	2445.45
668.651	2431.11
668.842	2359.43
669.033	2422.92
669.224	2433.16
669.416	2490.5
669.607	2515.08
669.798	2318.47
669.989	2390.15
670.18	2371.72
670.371	2273.42
670.563	2281.61
670.754	2314.38
670.945	2398.34
671.136	2285.7
671.327	2336.9
671.518	2328.71
671.709	2248.84
671.9	2236.55
672.091	2353.29
672.282	2179.21
672.473	2156.68
672.664	2191.5
672.855	2218.12
673.046	2220.17
673.237	2242.7
673.428	2252.94
673.619	2244.74
673.809	2265.22
674	2111.63
674.191	2193.55
674.382	2050.19
674.573	2136.2
674.764	2214.02
674.954	2236.55
675.145	2128.01
675.336	2089.1
675.527	2070.67
675.717	2093.19
675.908	2085
676.099	2181.26
676.289	2226.31
676.48	2044.04
676.671	2037.9
676.861	2064.52
677.052	2019.47
677.243	2037.9
677.433	2164.87
677.624	2123.91
677.814	2068.62
678.005	2035.85
678.195	2066.57
678.386	2087.05
678.576	2009.23
678.767	1966.22
678.957	2050.19
679.148	2019.47
679.338	2031.76
679.529	2015.37
679.719	1994.89
679.909	2052.24
680.1	1941.65
680.29	2066.57
680.481	1937.55
680.671	2078.86
680.861	1908.88
681.052	1966.22
681.242	1990.8
681.432	1998.99
681.622	1867.92
681.813	1945.74
682.003	2005.13
682.193	2011.28
682.383	1886.35
682.573	1884.3
682.764	1972.36
682.954	1915.02
683.144	2009.23
683.334	2044.04
683.524	1972.36
683.714	1935.5
683.904	1925.26
684.094	2019.47
684.284	1865.87
684.474	1904.78
684.664	1861.77
684.854	1972.36
685.044	1902.73
685.234	1910.93
685.424	1898.64
685.614	1927.31
685.804	1931.41
685.994	1775.76
686.184	1904.78
686.374	1892.49
686.564	1818.77
686.753	1935.5
686.943	1814.67
687.133	1781.9
687.323	1792.14
687.513	1859.73
687.702	1880.21
687.892	1890.45
688.082	1853.58
688.272	1867.92
688.461	1861.77
688.651	1781.9
688.841	1822.86
689.03	1892.49
689.22	1841.29
689.41	1880.21
689.599	1790.1
689.789	1927.31
689.979	1710.22
690.168	1790.1
690.358	1753.23
690.547	1849.49
690.737	1769.62
690.926	1915.02
691.116	1906.83
691.305	1921.17
691.495	1912.97
691.684	1835.15
691.874	1857.68
692.063	1812.62
692.252	1759.38
692.442	1816.72
692.631	1804.43
692.82	1917.07
693.01	1751.18
693.199	1788.05
693.388	1757.33
693.578	1880.21
693.767	1810.58
693.956	1779.86
694.146	1804.43
694.335	1761.42
694.524	1869.97
694.713	1822.86
694.902	1777.81
695.092	1849.49
695.281	1730.7
695.47	1761.42
695.659	1841.29
695.848	1876.11
696.037	1841.29
696.226	1769.62
696.415	1822.86
696.604	1845.39
696.793	1812.62
696.982	1894.54
697.171	1822.86
697.36	1816.72
697.549	1910.93
697.738	1837.2
697.927	1869.97
698.116	1896.59
698.305	1800.34
698.494	1878.16
698.683	1931.41
698.872	1851.53
699.061	1933.45
699.25	1900.69
699.438	1861.77
699.627	1878.16
699.816	1826.96
700.005	1831.05
700.193	1769.62
700.382	1869.97
700.571	1849.49
700.76	1861.77
700.948	1855.63
701.137	1800.34
701.326	1855.63
701.514	1843.34
701.703	1865.87
701.892	1829.01
702.08	1847.44
702.269	1874.06
702.457	1900.69
702.646	1812.62
702.834	1859.73
703.023	1802.38
703.212	1857.68
703.4	1798.29
703.589	1718.42
703.777	1736.85
703.965	1884.3
704.154	1937.55
704.342	1783.95
704.531	1769.62
704.719	1800.34
704.907	1779.86
705.096	1861.77
705.284	1775.76
705.472	1878.16
705.661	1792.14
705.849	1802.38
706.037	1777.81
706.226	1841.29
706.414	1665.17
706.602	1775.76
706.79	1810.58
706.979	1845.39
707.167	1749.14
707.355	1601.68
707.543	1806.48
707.731	1767.57
707.919	1718.42
708.107	1765.52
708.296	1779.86
708.484	1749.14
708.672	1816.72
708.86	1636.5
709.048	1736.85
709.236	1671.31
709.424	1726.61
709.612	1755.28
709.8	1691.79
709.988	1720.46
710.176	1683.6
710.364	1659.03
710.551	1673.36
710.739	1663.12
710.927	1689.74
711.115	1681.55
711.303	1767.57
711.491	1648.79
711.679	1613.97
711.866	1548.44
712.054	1642.64
712.242	1618.07
712.43	1648.79
712.617	1626.26
712.805	1605.78
712.993	1652.88
713.181	1613.97
713.368	1613.97
713.556	1622.16
713.744	1607.83
713.931	1618.07
714.119	1562.77
714.306	1589.39
714.494	1530
714.682	1593.49
714.869	1552.53
715.057	1648.79
715.244	1671.31
715.432	1515.67
715.619	1566.87
715.807	1546.39
715.994	1685.65
716.182	1493.14
716.369	1566.87
716.556	1484.95
716.744	1538.2
716.931	1489.04
717.119	1556.63
717.306	1503.38
717.493	1431.7
717.681	1530
717.868	1472.66
718.055	1540.24
718.242	1491.09
718.43	1558.67
718.617	1437.84
718.804	1454.23
718.991	1509.52
719.179	1507.48
719.366	1392.79
719.553	1362.07
719.74	1452.18
719.927	1484.95
720.114	1452.18
720.301	1464.47
720.488	1439.89
720.676	1421.46
720.863	1450.13
721.05	1308.82
721.237	1439.89
721.424	1380.5
721.611	1415.32
721.798	1319.06
721.985	1392.79
722.172	1390.74
722.358	1376.41
722.545	1419.41
722.732	1351.83
722.919	1407.13
723.106	1329.3
723.293	1415.32
723.48	1360.02
723.667	1380.5
723.853	1366.17
724.04	1267.86
724.227	1388.69
724.414	1370.26
724.6	1353.88
724.787	1312.92
724.974	1376.41
725.161	1329.3
725.347	1349.78
725.534	1312.92
725.72	1372.31
725.907	1339.54
726.094	1321.11
726.28	1263.77
726.467	1214.62
726.653	1362.07
726.84	1300.63
727.027	1317.01
727.213	1257.62
727.4	1374.36
727.586	1335.45
727.773	1241.24
727.959	1261.72
728.145	1357.97
728.332	1126.55
728.518	1194.14
728.705	1228.95
728.891	1329.3
729.077	1271.96
729.264	1267.86
729.45	1212.57
729.636	1253.53
729.823	1212.57
730.009	1231
730.195	1126.55
730.382	1271.96
730.568	1255.58
730.754	1310.87
730.94	1212.57
731.126	1206.42
731.313	1183.9
731.499	1339.54
731.685	1136.79
731.871	1142.94
732.057	1226.9
732.243	1190.04
732.429	1144.99
732.615	1202.33
732.801	1220.76
732.987	1233.05
733.173	1286.3
733.359	1210.52
733.545	1314.97
733.731	1216.66
733.917	1163.42
734.103	1267.86
734.289	1183.9
734.475	1192.09
734.661	1241.24
734.847	1175.7
735.033	1081.5
735.219	1157.27
735.404	1136.79
735.59	1056.92
735.776	1134.75
735.962	1149.08
736.148	1210.52
736.333	1069.21
736.519	1124.51
736.705	1110.17
736.89	1134.75
737.076	1122.46
737.262	1206.42
737.447	1095.83
737.633	1020.06
737.819	1126.55
738.004	1179.8
738.19	1212.57
738.375	1079.45
738.561	1024.16
738.747	1097.88
738.932	1104.03
739.118	1085.59
739.303	1093.79
739.489	1108.12
739.674	909.47
739.859	1087.64
740.045	1124.51
740.23	1030.3
740.416	999.58
740.601	1028.25
740.786	1063.07
740.972	1089.69
741.157	1038.49
741.342	993.44
741.528	1048.73
741.713	1089.69
741.898	1087.64
742.084	1018.01
742.269	1005.72
742.454	1005.72
742.639	1003.68
742.824	1030.3
743.01	985.24
743.195	1003.68
743.38	1013.92
743.565	946.33
743.75	968.86
743.935	938.14
744.12	1018.01
744.305	952.48
744.49	975
744.675	970.91
744.86	1048.73
745.045	921.76
745.23	845.98
745.415	948.38
745.6	956.57
745.785	866.46
745.97	925.85
746.155	972.96
746.34	856.22
746.525	972.96
746.71	950.43
746.895	886.94
747.079	899.23
747.264	938.14
747.449	921.76
747.634	905.37
747.819	929.95
748.003	911.52
748.188	848.03
748.373	944.28
748.557	845.98
748.742	870.56
748.927	837.79
749.111	716.96
749.296	886.94
749.481	829.6
749.665	809.12
749.85	872.61
750.034	817.31
750.219	839.84
750.404	774.3
750.588	798.88
750.773	823.45
750.957	878.75
751.141	831.65
751.326	784.54
751.51	731.3
751.695	827.55
751.879	766.11
752.064	874.65
752.248	739.49
752.432	774.3
752.617	704.67
752.801	784.54
752.985	745.63
753.17	772.25
753.354	749.73
753.538	747.68
753.722	743.58
753.907	655.52
754.091	632.99
754.275	696.48
754.459	739.49
754.643	698.53
754.828	712.86
755.012	641.18
755.196	635.04
755.38	622.75
755.564	663.71
755.748	604.32
755.932	739.49
756.116	704.67
756.3	651.42
756.484	755.87
756.668	575.65
756.852	602.27
757.036	622.75
757.22	620.71
757.404	528.55
757.588	700.58
757.772	620.71
757.956	632.99
758.14	673.95
758.323	645.28
758.507	579.75
758.691	516.26
758.875	577.7
759.059	655.52
759.242	645.28
759.426	551.07
759.61	594.08
759.794	600.23
759.977	563.36
760.161	587.94
760.345	600.23
760.528	604.32
760.712	577.7
760.895	600.23
761.079	506.02
761.263	643.23
761.446	587.94
761.63	497.83
761.813	534.69
761.997	534.69
762.18	577.7
762.364	516.26
762.547	559.27
762.731	573.6
762.914	520.35
763.098	561.31
763.281	538.79
763.464	458.92
763.648	483.49
763.831	487.59
764.015	430.24
764.198	475.3
764.381	506.02
764.564	551.07
764.748	549.03
764.931	596.13
765.114	534.69
765.297	520.35
765.481	471.2
765.664	460.96
765.847	528.55
766.03	497.83
766.213	481.44
766.397	563.36
766.58	503.97
766.763	479.4
766.946	448.68
767.129	508.07
767.312	483.49
767.495	415.91
767.678	481.44
767.861	467.11
768.044	479.4
768.227	458.92
768.41	407.72
768.593	551.07
768.776	417.96
768.959	510.11
769.142	530.59
769.324	526.5
769.507	487.59
769.69	506.02
769.873	415.91
770.056	463.01
770.239	456.87
770.421	487.59
770.604	430.24
770.787	503.97
770.97	577.7
771.152	460.96
771.335	413.86
771.518	438.44
771.7	440.48
771.883	510.11
772.066	356.52
772.248	477.35
772.431	387.24
772.613	491.68
772.796	448.68
772.978	391.33
773.161	415.91
773.343	405.67
773.526	405.67
773.708	393.38
773.891	397.48
774.073	446.63
774.256	364.71
774.438	411.81
774.621	317.61
774.803	377
774.985	415.91
775.168	370.85
775.35	485.54
775.532	446.63
775.715	393.38
775.897	448.68
776.079	370.85
776.261	407.72
776.444	432.29
776.626	331.94
776.808	458.92
776.99	409.76
777.173	370.85
777.355	366.76
777.537	383.14
777.719	317.61
777.901	342.18
778.083	274.6
778.265	317.61
778.447	434.34
778.629	333.99
778.811	360.61
778.993	342.18
779.175	342.18
779.357	278.69
779.539	295.08
779.721	389.28
779.903	354.47
780.085	346.28
780.267	356.52
780.449	293.03
780.631	278.69
780.812	372.9
780.994	336.04
781.176	340.13
781.358	295.08
781.54	262.31
781.721	311.46
781.903	307.37
782.085	288.93
782.267	260.26
782.448	321.7
782.63	276.65
782.812	325.8
782.993	233.64
783.175	239.78
783.357	346.28
783.538	401.57
783.72	258.21
783.901	262.31
784.083	286.89
784.264	282.79
784.446	282.79
784.627	256.17
784.809	299.17
784.99	143.53
785.172	288.93
785.353	256.17
785.535	276.65
785.716	196.78
785.897	262.31
786.079	270.5
786.26	280.74
786.441	225.45
786.623	288.93
786.804	297.13
786.985	282.79
787.167	305.32
787.348	219.3
787.529	239.78
787.71	211.11
787.891	280.74
788.073	241.83
788.254	174.25
788.435	213.16
788.616	180.39
788.797	192.68
788.978	207.02
789.159	211.11
789.34	215.21
789.522	194.73
789.703	202.92
789.884	137.38
790.065	172.2
790.246	303.27
790.427	202.92
790.607	227.5
790.788	258.21
790.969	133.29
791.15	243.88
791.331	290.98
791.512	159.91
791.693	178.34
791.874	157.86
792.054	211.11
792.235	174.25
792.416	200.87
792.597	192.68
792.778	137.38
792.958	207.02
793.139	182.44
793.32	192.68
793.5	245.93
793.681	200.87
793.862	145.58
794.042	184.49
794.223	200.87
794.404	194.73
794.584	184.49
794.765	221.35
794.945	221.35
795.126	190.63
795.306	149.67
795.487	188.58
795.667	118.95
795.848	217.26
796.028	112.81
796.209	131.24
796.389	186.54
796.57	145.58
796.75	178.34
796.93	172.2
797.111	192.68
797.291	194.73
797.471	157.86
797.652	184.49
797.832	82.09
798.012	186.54
798.192	127.14
798.373	164.01
798.553	172.2
798.733	184.49
798.913	151.72
799.093	104.62
799.274	139.43
799.454	157.86
799.634	110.76
799.814	200.87
799.994	207.02
800.174	155.82
800.354	159.91
800.534	139.43
800.714	176.3
800.894	149.67
801.074	170.15
801.254	211.11
801.434	170.15
801.614	164.01
801.794	147.62
801.974	315.56
802.154	67.75
802.334	86.19
802.514	24.75
802.693	168.1
802.873	157.86
803.053	125.1
803.233	137.38
803.413	151.72
803.592	141.48
803.772	123.05
803.952	71.85
804.131	118.95
804.311	143.53
804.491	141.48
804.67	114.86
804.85	139.43
805.03	100.52
805.209	139.43
805.389	164.01
805.568	123.05
805.748	100.52
805.928	51.37
806.107	69.8
806.287	55.47
806.466	135.34
806.646	151.72
806.825	118.95
807.004	194.73
807.184	145.58
807.363	86.19
807.543	53.42
807.722	190.63
807.901	106.67
808.081	151.72
808.26	82.09
808.439	94.38
808.619	143.53
808.798	112.81
808.977	84.14
809.156	106.67
809.336	127.14
809.515	121
809.694	121
809.873	108.71
810.052	137.38
810.231	75.95
810.411	118.95
810.59	37.03
810.769	137.38
810.948	77.99
811.127	86.19
811.306	84.14
811.485	180.39
811.664	121
811.843	53.42
812.022	114.86
812.201	92.33
812.38	108.71
812.559	143.53
812.737	71.85
812.916	92.33
813.095	129.19
813.274	98.47
813.453	139.43
813.632	125.1
813.811	176.3
813.989	127.14
814.168	65.71
814.347	53.42
814.526	55.47
814.704	145.58
814.883	116.9
815.062	67.75
815.24	131.24
815.419	57.51
815.598	51.37
815.776	63.66
815.955	104.62
816.133	65.71
816.312	53.42
816.49	125.1
816.669	151.72
816.847	75.95
817.026	116.9
817.204	106.67
817.383	131.24
817.561	24.75
817.74	102.57
817.918	127.14
818.097	84.14
818.275	80.04
818.453	133.29
818.632	59.56
818.81	77.99
818.988	49.32
819.167	57.51
819.345	75.95
819.523	80.04
819.701	118.95
819.879	116.9
820.058	59.56
820.236	75.95
820.414	100.52
820.592	96.43
820.77	100.52
820.948	75.95
821.127	143.53
821.305	4.27
821.483	59.56
821.661	98.47
821.839	137.38
822.017	96.43
822.195	67.75
822.373	161.96
822.551	73.9
822.729	125.1
822.907	57.51
823.085	106.67
823.262	77.99
823.44	65.71
823.618	94.38
823.796	88.23
823.974	100.52
824.152	84.14
824.329	90.28
824.507	94.38
824.685	94.38
824.863	102.57
825.04	170.15
825.218	10.41
825.396	34.99
825.574	61.61
825.751	118.95
825.929	135.34
826.107	114.86
826.284	100.52
826.462	73.9
826.639	53.42
826.817	133.29
826.994	84.14
827.172	53.42
827.349	28.84
827.527	30.89
827.704	123.05
827.882	49.32
828.059	-30.55
828.237	28.84
828.414	161.96
828.591	37.03
828.769	39.08
828.946	75.95
829.124	145.58
829.301	30.89
829.478	69.8
829.655	37.03
829.833	82.09
830.01	129.19
830.187	77.99
830.364	75.95
830.542	53.42
830.719	73.9
830.896	57.51
831.073	57.51
831.25	82.09
831.427	102.57
831.604	22.7
831.782	80.04
831.959	90.28
832.136	102.57
832.313	4.27
832.49	67.75
832.667	82.09
832.844	65.71
833.021	39.08
833.198	90.28
833.374	53.42
833.551	57.51
833.728	104.62
833.905	57.51
834.082	61.61
834.259	80.04
834.436	92.33
834.612	12.46
834.789	86.19
834.966	88.23
835.143	41.13
835.319	12.46
835.496	28.84
835.673	47.27
835.85	37.03
836.026	28.84
836.203	65.71
836.38	73.9
836.556	82.09
836.733	51.37
836.909	59.56
837.086	45.23
837.262	-3.93
837.439	59.56
837.616	114.86
837.792	39.08
837.968	61.61
838.145	106.67
838.321	22.7
838.498	20.65
838.674	104.62
838.851	57.51
839.027	49.32
839.203	55.47
839.38	104.62
839.556	67.75
839.732	47.27
839.909	129.19
840.085	51.37
840.261	32.94
840.437	55.47
840.614	18.6
840.79	129.19
840.966	67.75
841.142	73.9
841.318	-18.26
841.494	49.32
841.671	22.7
841.847	121
842.023	51.37
842.199	30.89
842.375	67.75
842.551	-28.5
842.727	53.42
842.903	55.47
843.079	45.23
843.255	96.43
843.431	100.52
843.607	30.89
843.783	20.65
843.959	26.79
844.134	84.14
844.31	131.24
844.486	80.04
844.662	26.79
844.838	67.75
845.013	8.36
845.189	102.57
845.365	8.36
845.541	-20.31
845.716	-12.12
845.892	75.95
846.068	32.94
846.244	20.65
846.419	-10.07
846.595	88.23
846.77	16.55
846.946	22.7
847.122	51.37
847.297	94.38
847.473	12.46
847.648	47.27
847.824	73.9
847.999	-34.64
848.175	86.19
848.35	-8.02
848.526	34.99
848.701	71.85
848.876	47.27
849.052	65.71
849.227	59.56
849.403	32.94
849.578	61.61
849.753	20.65
849.929	71.85
850.104	63.66
850.279	37.03
850.454	43.18
850.63	-3.93
850.805	86.19
850.98	86.19
851.155	22.7
851.33	133.29
851.505	-32.6
851.681	10.41
851.856	8.36
852.031	90.28
852.206	67.75
852.381	90.28
852.556	55.47
852.731	129.19
852.906	-28.5
853.081	-42.84
853.256	41.13
853.431	32.94
853.606	71.85
853.781	16.55
853.956	-22.36
854.131	22.7
854.305	20.65
854.48	82.09
854.655	51.37
854.83	30.89
855.005	12.46
855.18	77.99
855.354	-20.31
855.529	49.32
855.704	37.03
855.879	96.43
856.053	-18.26
856.228	61.61
856.403	4.27
856.577	0.17
856.752	86.19
856.926	-1.88
857.101	45.23
857.276	77.99
857.45	24.75
857.625	37.03
857.799	-3.93
857.974	18.6
858.148	-28.5
858.323	-18.26
858.497	2.22
858.672	75.95
858.846	-14.17
859.02	53.42
859.195	69.8
859.369	10.41
859.543	10.41
859.718	41.13
859.892	-10.07
860.066	2.22
860.241	-16.21
860.415	67.75
860.589	-28.5
860.763	104.62
860.938	0.17
861.112	67.75
861.286	30.89
861.46	-36.69
861.634	67.75
861.808	77.99
861.982	43.18
862.157	16.55
862.331	41.13
862.505	-14.17
862.679	-10.07
862.853	63.66
863.027	-14.17
863.201	41.13
863.375	-1.88
863.549	39.08
863.722	8.36
863.896	26.79
864.07	4.27
864.244	37.03
864.418	22.7
864.592	51.37
864.766	84.14
864.939	39.08
865.113	57.51
865.287	86.19
865.461	8.36
865.634	96.43
865.808	55.47
865.982	0.17
866.156	-36.69
866.329	75.95
866.503	14.51
866.676	41.13
866.85	16.55
867.024	77.99
867.197	2.22
867.371	63.66
867.544	-36.69
867.718	65.71
867.891	12.46
868.065	51.37
868.238	-20.31
868.412	-8.02
868.585	2.22
868.759	77.99
868.932	24.75
869.105	55.47
869.279	28.84
869.452	24.75
869.625	-16.21
869.799	-5.97
869.972	53.42
870.145	-5.97
870.319	37.03
870.492	55.47
870.665	37.03
870.838	37.03
871.011	41.13
871.185	77.99
871.358	-16.21
871.531	12.46
871.704	88.23
871.877	22.7
872.05	-14.17
872.223	-16.21
872.396	30.89
872.569	47.27
872.742	37.03
872.915	-12.12
873.088	8.36
873.261	26.79
873.434	28.84
873.607	59.56
873.78	20.65
873.953	53.42
874.126	4.27
874.299	41.13
874.471	-10.07
874.644	75.95
874.817	10.41
874.99	-57.17
875.163	16.55
875.335	59.56
875.508	4.27
875.681	104.62
875.853	0.17
876.026	59.56
876.199	45.23
876.371	-32.6
876.544	0.17
876.717	12.46
876.889	-34.64
877.062	14.51
877.234	-28.5
877.407	26.79
877.579	-12.12
877.752	28.84
877.924	39.08
878.097	41.13
878.269	14.51
878.442	37.03
878.614	-79.7
878.786	94.38
878.959	14.51
879.131	100.52
879.303	-3.93
879.476	59.56
879.648	-5.97
879.82	43.18
879.993	57.51
880.165	30.89
880.337	6.31
880.509	-5.97
880.681	47.27
880.854	47.27
881.026	-59.22
881.198	59.56
881.37	-14.17
881.542	26.79
881.714	59.56
881.886	-32.6
882.058	10.41
882.23	32.94
882.402	49.32
882.574	22.7
882.746	-24.4
882.918	41.13
883.09	24.75
883.262	10.41
883.434	-14.17
883.606	-34.64
883.778	32.94
883.95	8.36
884.122	2.22
884.293	53.42
884.465	55.47
884.637	-30.55
884.809	0.17
884.98	88.23
885.152	20.65
885.324	49.32
885.496	14.51
885.667	26.79
885.839	-30.55
886.011	-46.93
886.182	-24.4
886.354	34.99
886.525	75.95
886.697	26.79
886.869	-30.55
887.04	22.7
887.212	2.22
887.383	12.46
887.555	26.79
887.726	6.31
887.897	43.18
888.069	30.89
888.24	18.6
888.412	37.03
888.583	-48.98
888.754	61.61
888.926	-3.93
889.097	69.8
889.268	-1.88
889.44	28.84
889.611	14.51
889.782	67.75
889.953	73.9
890.125	53.42
890.296	-77.65
890.467	37.03
890.638	28.84
890.809	47.27
890.98	-48.98
891.151	30.89
891.323	69.8
891.494	71.85
891.665	20.65
891.836	55.47
892.007	30.89
892.178	90.28
892.349	-32.6
892.52	-30.55
892.691	41.13
892.862	32.94
893.032	86.19
893.203	88.23
893.374	43.18
893.545	49.32
893.716	-30.55
893.887	41.13
894.057	-32.6
894.228	-20.31
894.399	-10.07
894.57	22.7
894.74	-14.17
894.911	37.03
895.082	28.84
895.253	45.23
895.423	-12.12
895.594	-16.21
895.764	45.23
895.935	6.31
896.106	16.55
896.276	28.84
896.447	-36.69
896.617	22.7
896.788	0.17
896.958	96.43
897.129	24.75
897.299	0.17
897.47	63.66
897.64	82.09
897.81	12.46
897.981	37.03
898.151	18.6
898.322	86.19
898.492	55.47
898.662	0.17
898.832	-24.4
899.003	102.57
899.173	4.27
899.343	47.27
899.513	57.51
