Data from USB4F104151__68__13-53-54-414.txt Node

Date: Thu Mar 13 13:53:54 EDT 2025
User: louis
Spectrometer: USB4F10415
Trigger mode: 4
Integration Time (sec): 1.000000E-2
Scans to average: 1
Electric dark correction enabled: true
Nonlinearity correction enabled: false
Boxcar width: 0
XAxis mode: Wavelengths
Number of Pixels in Spectrum: 3648
>>>>>Begin Spectral Data<<<<<
178.204	-32.6
178.424	-32.6
178.644	-32.6
178.864	-28.5
179.084	20.65
179.304	55.47
179.524	-20.31
179.744	-32.6
179.964	0.17
180.184	0.17
180.404	-16.21
180.624	47.27
180.844	-12.12
181.064	-77.65
181.283	-3.93
181.503	12.46
181.723	47.27
181.943	12.46
182.163	-24.4
182.383	8.36
182.602	59.56
182.822	4.27
183.042	16.55
183.262	6.31
183.482	80.04
183.701	8.36
183.921	32.94
184.141	-24.4
184.361	-16.21
184.58	-34.64
184.8	0.17
185.02	18.6
185.239	-12.12
185.459	8.36
185.679	-3.93
185.898	-48.98
186.118	47.27
186.338	47.27
186.557	-18.26
186.777	4.27
186.997	32.94
187.216	14.51
187.436	4.27
187.655	22.7
187.875	20.65
188.095	-8.02
188.314	24.75
188.534	28.84
188.753	39.08
188.973	-10.07
189.192	-38.74
189.412	75.95
189.631	34.99
189.851	63.66
190.07	45.23
190.29	4.27
190.509	-8.02
190.729	-16.21
190.948	41.13
191.168	69.8
191.387	71.85
191.607	-65.36
191.826	37.03
192.045	-5.97
192.265	-24.4
192.484	-30.55
192.704	39.08
192.923	-1.88
193.142	75.95
193.362	37.03
193.581	22.7
193.8	47.27
194.02	45.23
194.239	-3.93
194.458	4.27
194.678	-20.31
194.897	86.19
195.116	26.79
195.335	0.17
195.555	-1.88
195.774	-3.93
195.993	118.95
196.212	61.61
196.432	-44.88
196.651	24.75
196.87	-57.17
197.089	55.47
197.308	16.55
197.528	75.95
197.747	-67.41
197.966	57.51
198.185	16.55
198.404	-12.12
198.623	0.17
198.842	16.55
199.062	-28.5
199.281	16.55
199.5	-34.64
199.719	43.18
199.938	14.51
200.157	59.56
200.376	37.03
200.595	8.36
200.814	-22.36
201.033	24.75
201.252	-10.07
201.471	18.6
201.69	45.23
201.909	28.84
202.128	18.6
202.347	-42.84
202.566	67.75
202.785	57.51
203.004	-59.22
203.223	75.95
203.442	-10.07
203.661	-16.21
203.879	34.99
204.098	-26.45
204.317	4.27
204.536	47.27
204.755	-3.93
204.974	24.75
205.193	22.7
205.411	63.66
205.63	41.13
205.849	4.27
206.068	-42.84
206.287	-1.88
206.505	41.13
206.724	41.13
206.943	-55.12
207.162	-61.27
207.381	-8.02
207.599	41.13
207.818	20.65
208.037	30.89
208.255	34.99
208.474	-12.12
208.693	41.13
208.911	20.65
209.13	30.89
209.349	-10.07
209.567	51.37
209.786	12.46
210.005	96.43
210.223	37.03
210.442	26.79
210.661	-12.12
210.879	8.36
211.098	8.36
211.316	18.6
211.535	18.6
211.753	-8.02
211.972	12.46
212.191	41.13
212.409	12.46
212.628	28.84
212.846	18.6
213.065	32.94
213.283	-12.12
213.502	10.41
213.72	32.94
213.938	-24.4
214.157	34.99
214.375	10.41
214.594	30.89
214.812	18.6
215.031	96.43
215.249	4.27
215.467	-16.21
215.686	49.32
215.904	37.03
216.122	-34.64
216.341	-16.21
216.559	-10.07
216.778	0.17
216.996	-57.17
217.214	-20.31
217.432	0.17
217.651	-42.84
217.869	34.99
218.087	-12.12
218.306	-53.08
218.524	49.32
218.742	-48.98
218.96	-5.97
219.179	8.36
219.397	55.47
219.615	39.08
219.833	0.17
220.051	-24.4
220.27	-61.27
220.488	12.46
220.706	39.08
220.924	-16.21
221.142	88.23
221.36	49.32
221.578	-22.36
221.796	-38.74
222.015	43.18
222.233	102.57
222.451	22.7
222.669	-42.84
222.887	-40.79
223.105	73.9
223.323	51.37
223.541	20.65
223.759	-10.07
223.977	8.36
224.195	65.71
224.413	53.42
224.631	-16.21
224.849	8.36
225.067	59.56
225.285	39.08
225.503	14.51
225.721	71.85
225.939	26.79
226.157	28.84
226.375	20.65
226.592	20.65
226.81	-20.31
227.028	0.17
227.246	47.27
227.464	16.55
227.682	49.32
227.9	14.51
228.117	6.31
228.335	-14.17
228.553	-8.02
228.771	-14.17
228.989	2.22
229.206	2.22
229.424	-10.07
229.642	51.37
229.86	-20.31
230.077	26.79
230.295	39.08
230.513	6.31
230.731	18.6
230.948	67.75
231.166	63.66
231.384	16.55
231.601	-30.55
231.819	-12.12
232.037	47.27
232.254	24.75
232.472	-5.97
232.689	-28.5
232.907	57.51
233.125	-3.93
233.342	-8.02
233.56	61.61
233.777	12.46
233.995	69.8
234.213	26.79
234.43	34.99
234.648	55.47
234.865	49.32
235.083	28.84
235.3	77.99
235.518	14.51
235.735	14.51
235.953	16.55
236.17	47.27
236.388	-38.74
236.605	20.65
236.822	73.9
237.04	-32.6
237.257	-1.88
237.475	-8.02
237.692	24.75
237.909	4.27
238.127	-28.5
238.344	20.65
238.562	10.41
238.779	-8.02
238.996	-16.21
239.214	4.27
239.431	49.32
239.648	39.08
239.865	10.41
240.083	-67.41
240.3	6.31
240.517	-16.21
240.735	-18.26
240.952	-3.93
241.169	104.62
241.386	24.75
241.603	39.08
241.821	-10.07
242.038	-18.26
242.255	-20.31
242.472	18.6
242.689	96.43
242.907	26.79
243.124	0.17
243.341	-14.17
243.558	-30.55
243.775	32.94
243.992	-26.45
244.209	65.71
244.426	53.42
244.643	-18.26
244.86	8.36
245.078	-5.97
245.295	49.32
245.512	-16.21
245.729	-16.21
245.946	12.46
246.163	-28.5
246.38	-44.88
246.597	6.31
246.814	8.36
247.031	10.41
247.248	14.51
247.464	22.7
247.681	-12.12
247.898	-18.26
248.115	65.71
248.332	-20.31
248.549	-57.17
248.766	39.08
248.983	10.41
249.2	0.17
249.417	-16.21
249.633	6.31
249.85	-38.74
250.067	-32.6
250.284	59.56
250.501	-55.12
250.717	-14.17
250.934	16.55
251.151	-28.5
251.368	-30.55
251.585	-3.93
251.801	-46.93
252.018	-16.21
252.235	-12.12
252.451	-12.12
252.668	-16.21
252.885	26.79
253.102	45.23
253.318	-69.46
253.535	20.65
253.752	-22.36
253.968	-67.41
254.185	-53.08
254.401	69.8
254.618	28.84
254.835	-63.32
255.051	49.32
255.268	41.13
255.484	-12.12
255.701	2.22
255.917	75.95
256.134	82.09
256.351	22.7
256.567	14.51
256.784	4.27
257	39.08
257.217	108.71
257.433	-42.84
257.65	53.42
257.866	0.17
258.082	41.13
258.299	6.31
258.515	12.46
258.732	28.84
258.948	12.46
259.165	65.71
259.381	-1.88
259.597	-26.45
259.814	86.19
260.03	-26.45
260.246	-28.5
260.463	-46.93
260.679	47.27
260.895	-10.07
261.112	16.55
261.328	12.46
261.544	14.51
261.761	-26.45
261.977	98.47
262.193	-67.41
262.409	-28.5
262.626	80.04
262.842	20.65
263.058	-12.12
263.274	32.94
263.49	-16.21
263.707	69.8
263.923	8.36
264.139	-20.31
264.355	8.36
264.571	30.89
264.787	39.08
265.004	63.66
265.22	20.65
265.436	-8.02
265.652	-3.93
265.868	16.55
266.084	28.84
266.3	2.22
266.516	-40.79
266.732	14.51
266.948	24.75
267.164	45.23
267.38	49.32
267.596	65.71
267.812	102.57
268.028	24.75
268.244	-18.26
268.46	0.17
268.676	90.28
268.892	-28.5
269.108	-3.93
269.324	24.75
269.54	8.36
269.756	2.22
269.972	-24.4
270.188	-20.31
270.403	14.51
270.619	-32.6
270.835	-28.5
271.051	-3.93
271.267	18.6
271.483	-61.27
271.698	16.55
271.914	137.38
272.13	10.41
272.346	-3.93
272.562	47.27
272.777	-10.07
272.993	41.13
273.209	-14.17
273.425	-3.93
273.64	20.65
273.856	47.27
274.072	20.65
274.287	49.32
274.503	16.55
274.719	-5.97
274.934	-38.74
275.15	41.13
275.366	104.62
275.581	2.22
275.797	-20.31
276.012	10.41
276.228	-59.22
276.444	28.84
276.659	61.61
276.875	-12.12
277.09	-8.02
277.306	26.79
277.521	92.33
277.737	55.47
277.952	-24.4
278.168	18.6
278.383	20.65
278.599	20.65
278.814	-1.88
279.03	65.71
279.245	84.14
279.461	18.6
279.676	-26.45
279.892	37.03
280.107	37.03
280.322	-69.46
280.538	61.61
280.753	57.51
280.969	71.85
281.184	37.03
281.399	100.52
281.615	55.47
281.83	8.36
282.045	2.22
282.26	-42.84
282.476	14.51
282.691	51.37
282.906	-24.4
283.122	22.7
283.337	12.46
283.552	39.08
283.767	77.99
283.983	30.89
284.198	39.08
284.413	51.37
284.628	34.99
284.843	84.14
285.058	-57.17
285.274	2.22
285.489	-3.93
285.704	-16.21
285.919	6.31
286.134	39.08
286.349	30.89
286.564	24.75
286.779	-5.97
286.995	32.94
287.21	-71.51
287.425	49.32
287.64	69.8
287.855	24.75
288.07	2.22
288.285	67.75
288.5	86.19
288.715	-32.6
288.93	-83.8
289.145	49.32
289.36	22.7
289.575	14.51
289.79	20.65
290.004	0.17
290.219	45.23
290.434	-10.07
290.649	94.38
290.864	-32.6
291.079	-30.55
291.294	22.7
291.509	41.13
291.724	24.75
291.938	-8.02
292.153	82.09
292.368	55.47
292.583	12.46
292.798	-26.45
293.012	16.55
293.227	-44.88
293.442	0.17
293.657	53.42
293.871	47.27
294.086	41.13
294.301	63.66
294.516	2.22
294.73	10.41
294.945	16.55
295.16	41.13
295.374	14.51
295.589	-32.6
295.804	-14.17
296.018	-18.26
296.233	53.42
296.447	14.51
296.662	-16.21
296.877	30.89
297.091	-8.02
297.306	28.84
297.52	14.51
297.735	-42.84
297.949	14.51
298.164	28.84
298.378	77.99
298.593	28.84
298.807	10.41
299.022	6.31
299.236	37.03
299.451	-8.02
299.665	84.14
299.88	22.7
300.094	-14.17
300.309	10.41
300.523	14.51
300.737	6.31
300.952	-14.17
301.166	-8.02
301.381	37.03
301.595	28.84
301.809	10.41
302.024	16.55
302.238	34.99
302.452	2.22
302.667	14.51
302.881	4.27
303.095	30.89
303.309	55.47
303.524	-24.4
303.738	-32.6
303.952	-16.21
304.166	102.57
304.381	-5.97
304.595	30.89
304.809	22.7
305.023	22.7
305.237	-24.4
305.452	-10.07
305.666	16.55
305.88	32.94
306.094	22.7
306.308	39.08
306.522	-16.21
306.736	53.42
306.95	-69.46
307.164	102.57
307.379	34.99
307.593	53.42
307.807	92.33
308.021	49.32
308.235	-16.21
308.449	-57.17
308.663	-42.84
308.877	28.84
309.091	65.71
309.305	30.89
309.519	-53.08
309.733	-16.21
309.947	-65.36
310.161	49.32
310.374	30.89
310.588	26.79
310.802	51.37
311.016	4.27
311.23	92.33
311.444	16.55
311.658	18.6
311.872	63.66
312.085	41.13
312.299	10.41
312.513	73.9
312.727	84.14
312.941	0.17
313.154	47.27
313.368	43.18
313.582	37.03
313.796	59.56
314.009	-40.79
314.223	47.27
314.437	30.89
314.651	-98.13
314.864	22.7
315.078	-55.12
315.292	28.84
315.505	-28.5
315.719	47.27
315.933	18.6
316.146	-67.41
316.36	-20.31
316.573	34.99
316.787	8.36
317.001	-8.02
317.214	-28.5
317.428	-36.69
317.641	-16.21
317.855	37.03
318.068	59.56
318.282	65.71
318.495	18.6
318.709	80.04
318.922	80.04
319.136	18.6
319.349	18.6
319.563	53.42
319.776	26.79
319.99	-3.93
320.203	82.09
320.417	47.27
320.63	-32.6
320.843	71.85
321.057	67.75
321.27	16.55
321.483	47.27
321.697	114.86
321.91	22.7
322.124	-3.93
322.337	28.84
322.55	8.36
322.763	39.08
322.977	14.51
323.19	-12.12
323.403	41.13
323.617	14.51
323.83	57.51
324.043	59.56
324.256	-16.21
324.469	-42.84
324.683	77.99
324.896	61.61
325.109	24.75
325.322	30.89
325.535	-8.02
325.748	-1.88
325.962	-8.02
326.175	-10.07
326.388	-59.22
326.601	57.51
326.814	20.65
327.027	-14.17
327.24	37.03
327.453	18.6
327.666	-40.79
327.879	41.13
328.092	12.46
328.305	-38.74
328.518	39.08
328.731	12.46
328.944	32.94
329.157	32.94
329.37	49.32
329.583	-32.6
329.796	-8.02
330.009	53.42
330.222	6.31
330.435	34.99
330.648	28.84
330.861	22.7
331.073	69.8
331.286	39.08
331.499	-53.08
331.712	41.13
331.925	24.75
332.138	-16.21
332.35	22.7
332.563	2.22
332.776	34.99
332.989	6.31
333.202	14.51
333.414	14.51
333.627	-3.93
333.84	-5.97
334.053	73.9
334.265	-3.93
334.478	69.8
334.691	30.89
334.903	6.31
335.116	30.89
335.329	-40.79
335.541	28.84
335.754	26.79
335.966	-18.26
336.179	61.61
336.392	0.17
336.604	47.27
336.817	82.09
337.029	-8.02
337.242	-1.88
337.454	-32.6
337.667	20.65
337.88	14.51
338.092	-12.12
338.305	43.18
338.517	8.36
338.729	41.13
338.942	-12.12
339.154	110.76
339.367	32.94
339.579	-22.36
339.792	-5.97
340.004	45.23
340.217	6.31
340.429	92.33
340.641	12.46
340.854	-14.17
341.066	-8.02
341.278	39.08
341.491	49.32
341.703	53.42
341.915	-14.17
342.128	2.22
342.34	32.94
342.552	-24.4
342.764	16.55
342.977	59.56
343.189	4.27
343.401	24.75
343.613	6.31
343.826	77.99
344.038	106.67
344.25	73.9
344.462	10.41
344.674	49.32
344.886	110.76
345.099	-24.4
345.311	39.08
345.523	45.23
345.735	24.75
345.947	30.89
346.159	-10.07
346.371	-34.64
346.583	30.89
346.795	55.47
347.007	-3.93
347.219	-26.45
347.431	2.22
347.643	43.18
347.855	26.79
348.067	63.66
348.279	32.94
348.491	0.17
348.703	51.37
348.915	26.79
349.127	24.75
349.339	98.47
349.551	-10.07
349.763	28.84
349.975	-18.26
350.187	22.7
350.399	2.22
350.61	-10.07
350.822	51.37
351.034	32.94
351.246	51.37
351.458	20.65
351.669	-57.17
351.881	53.42
352.093	-12.12
352.305	14.51
352.517	20.65
352.728	73.9
352.94	6.31
353.152	24.75
353.363	-8.02
353.575	-8.02
353.787	43.18
353.999	32.94
354.21	67.75
354.422	63.66
354.633	-65.36
354.845	-30.55
355.057	26.79
355.268	12.46
355.48	45.23
355.692	6.31
355.903	-38.74
356.115	41.13
356.326	-16.21
356.538	67.75
356.749	39.08
356.961	73.9
357.172	20.65
357.384	41.13
357.595	86.19
357.807	59.56
358.018	55.47
358.23	14.51
358.441	73.9
358.653	34.99
358.864	22.7
359.075	39.08
359.287	28.84
359.498	55.47
359.709	14.51
359.921	49.32
360.132	18.6
360.344	-3.93
360.555	37.03
360.766	-85.84
360.977	-26.45
361.189	49.32
361.4	-8.02
361.611	-1.88
361.823	77.99
362.034	37.03
362.245	-8.02
362.456	26.79
362.667	92.33
362.879	86.19
363.09	43.18
363.301	6.31
363.512	-40.79
363.723	-55.12
363.935	41.13
364.146	16.55
364.357	61.61
364.568	-22.36
364.779	4.27
364.99	-12.12
365.201	-18.26
365.412	41.13
365.623	22.7
365.834	-102.23
366.045	34.99
366.256	16.55
366.467	39.08
366.678	65.71
366.889	-26.45
367.1	30.89
367.311	59.56
367.522	-24.4
367.733	37.03
367.944	47.27
368.155	37.03
368.366	-18.26
368.577	32.94
368.788	-12.12
368.999	-28.5
369.209	-42.84
369.42	88.23
369.631	4.27
369.842	28.84
370.053	69.8
370.264	4.27
370.474	-55.12
370.685	-12.12
370.896	-14.17
371.107	30.89
371.317	41.13
371.528	-44.88
371.739	47.27
371.95	16.55
372.16	22.7
372.371	82.09
372.582	108.71
372.792	0.17
373.003	-34.64
373.214	45.23
373.424	45.23
373.635	22.7
373.846	43.18
374.056	30.89
374.267	65.71
374.477	75.95
374.688	20.65
374.898	-12.12
375.109	0.17
375.319	-28.5
375.53	135.34
375.74	6.31
375.951	8.36
376.161	-22.36
376.372	49.32
376.582	28.84
376.793	39.08
377.003	8.36
377.214	-51.03
377.424	-28.5
377.635	0.17
377.845	43.18
378.055	153.77
378.266	-5.97
378.476	49.32
378.686	6.31
378.897	12.46
379.107	26.79
379.317	65.71
379.528	55.47
379.738	22.7
379.948	-3.93
380.158	71.85
380.369	-48.98
380.579	49.32
380.789	2.22
380.999	39.08
381.21	-18.26
381.42	14.51
381.63	-22.36
381.84	10.41
382.05	-10.07
382.261	32.94
382.471	57.51
382.681	-18.26
382.891	51.37
383.101	57.51
383.311	-3.93
383.521	49.32
383.731	45.23
383.941	20.65
384.151	-18.26
384.361	39.08
384.571	-44.88
384.781	63.66
384.991	-5.97
385.201	67.75
385.411	57.51
385.621	71.85
385.831	-5.97
386.041	22.7
386.251	-10.07
386.461	73.9
386.671	4.27
386.881	34.99
387.091	22.7
387.301	24.75
387.511	-53.08
387.72	-22.36
387.93	34.99
388.14	24.75
388.35	-77.65
388.56	49.32
388.769	24.75
388.979	37.03
389.189	30.89
389.399	41.13
389.609	34.99
389.818	106.67
390.028	-20.31
390.238	61.61
390.447	69.8
390.657	30.89
390.867	20.65
391.076	37.03
391.286	41.13
391.496	2.22
391.705	49.32
391.915	37.03
392.125	100.52
392.334	12.46
392.544	53.42
392.753	49.32
392.963	41.13
393.172	49.32
393.382	65.71
393.591	49.32
393.801	8.36
394.01	80.04
394.22	20.65
394.429	131.24
394.639	16.55
394.848	-1.88
395.058	-30.55
395.267	28.84
395.477	30.89
395.686	45.23
395.895	37.03
396.105	53.42
396.314	53.42
396.524	100.52
396.733	53.42
396.942	84.14
397.152	34.99
397.361	88.23
397.57	28.84
397.78	-20.31
397.989	69.8
398.198	47.27
398.407	34.99
398.617	121
398.826	8.36
399.035	39.08
399.244	65.71
399.453	71.85
399.663	55.47
399.872	131.24
400.081	-42.84
400.29	63.66
400.499	63.66
400.708	96.43
400.917	14.51
401.127	12.46
401.336	41.13
401.545	51.37
401.754	-16.21
401.963	51.37
402.172	67.75
402.381	8.36
402.59	14.51
402.799	51.37
403.008	69.8
403.217	75.95
403.426	88.23
403.635	14.51
403.844	92.33
404.053	37.03
404.262	55.47
404.471	30.89
404.68	26.79
404.888	118.95
405.097	41.13
405.306	-8.02
405.515	67.75
405.724	51.37
405.933	151.72
406.142	73.9
406.35	57.51
406.559	59.56
406.768	24.75
406.977	49.32
407.185	143.53
407.394	71.85
407.603	106.67
407.812	84.14
408.02	188.58
408.229	170.15
408.438	80.04
408.646	100.52
408.855	102.57
409.064	116.9
409.272	143.53
409.481	188.58
409.69	94.38
409.898	135.34
410.107	114.86
410.315	209.06
410.524	159.91
410.733	207.02
410.941	159.91
411.15	190.63
411.358	215.21
411.567	133.29
411.775	166.06
411.984	145.58
412.192	182.44
412.401	164.01
412.609	207.02
412.818	213.16
413.026	223.4
413.234	186.54
413.443	272.55
413.651	227.5
413.86	270.5
414.068	207.02
414.276	207.02
414.485	293.03
414.693	231.59
414.901	272.55
415.11	266.41
415.318	305.32
415.526	258.21
415.734	243.88
415.943	411.81
416.151	454.82
416.359	379.04
416.567	409.76
416.776	389.28
416.984	397.48
417.192	350.37
417.4	413.86
417.608	364.71
417.817	438.44
418.025	546.98
418.233	491.68
418.441	540.83
418.649	520.35
418.857	630.95
419.065	577.7
419.273	577.7
419.481	579.75
419.689	643.23
419.897	655.52
420.105	641.18
420.313	643.23
420.521	647.33
420.729	716.96
420.937	729.25
421.145	731.3
421.353	753.82
421.561	811.17
421.769	891.04
421.977	805.02
422.185	772.25
422.393	1024.16
422.601	907.42
422.809	1034.39
423.017	954.52
423.224	981.15
423.432	1054.87
423.64	1073.31
423.848	1159.32
424.056	1065.11
424.263	1231
424.471	1218.71
424.679	1337.49
424.887	1384.6
425.094	1245.34
425.302	1300.63
425.51	1288.34
425.718	1433.75
425.925	1429.65
426.133	1534.1
426.341	1527.96
426.548	1679.51
426.756	1622.16
426.964	1630.35
427.171	1712.27
427.379	1775.76
427.586	1822.86
427.794	1915.02
428.001	2027.66
428.209	1984.65
428.417	1990.8
428.624	2154.63
428.832	2177.16
429.039	2093.19
429.247	2158.73
429.454	2394.25
429.662	2537.6
429.869	2373.77
430.076	2545.8
430.284	2451.59
430.491	2576.52
430.699	2652.29
430.906	2703.49
431.114	2730.11
431.321	2826.37
431.528	3008.64
431.736	3070.08
431.943	3252.35
432.15	3055.74
432.358	3348.6
432.565	3293.3
432.772	3334.26
432.979	3514.49
433.187	3530.87
433.394	3563.64
433.601	3860.59
433.808	3829.87
434.016	3825.78
434.223	3799.15
434.43	4190.31
434.637	4126.83
434.844	4225.13
435.052	4339.82
435.259	4452.45
435.466	4565.09
435.673	4421.74
435.88	4683.88
436.087	4937.82
436.294	5042.27
436.501	4900.96
436.708	4911.2
436.915	5226.59
437.122	5371.99
437.329	5218.4
437.537	5566.55
437.743	5574.74
437.95	5582.93
438.157	5709.91
438.364	6045.77
438.571	6043.73
438.778	5957.71
438.985	6604.87
439.192	6475.85
439.399	6502.47
439.606	6453.32
439.813	6869.06
440.02	7127.1
440.227	7022.66
440.433	7006.27
440.64	7360.57
440.847	7149.63
441.054	7372.86
441.261	7876.66
441.467	7764.02
441.674	7835.7
441.881	8075.31
442.088	8290.35
442.294	8003.63
442.501	8357.93
442.708	8634.41
442.914	8804.39
443.121	9209.89
443.328	8863.78
443.534	9633.82
443.741	9388.06
443.948	9064.48
444.154	9758.74
444.361	9623.58
444.568	9656.34
444.774	9883.67
444.981	10063.89
445.187	10096.66
445.394	10588.17
445.6	10573.83
445.807	11470.84
446.013	11065.35
446.22	11403.26
446.426	11782.13
446.633	11935.73
446.839	12292.08
447.046	11628.54
447.252	12312.56
447.459	12173.3
447.665	12189.68
447.871	12869.61
448.078	13357.02
448.284	12783.59
448.491	12990.44
448.697	13633.5
448.903	13555.68
449.11	14016.47
449.316	13756.38
449.522	13678.55
449.728	14401.49
449.935	14299.09
450.141	14581.71
450.347	14555.08
450.553	14174.16
450.76	14481.36
450.966	14700.49
451.172	14491.6
451.378	15071.17
451.584	14792.65
451.791	15310.79
451.997	15138.76
452.203	15230.91
452.409	15153.09
452.615	15062.98
452.821	14579.66
453.027	14374.86
453.233	15122.37
453.44	14518.22
453.646	14743.5
453.852	14682.06
454.058	14925.77
454.264	14653.39
454.47	14829.51
454.676	14514.13
454.882	14944.2
455.088	13660.12
455.294	13952.98
455.5	13934.55
455.705	14084.05
455.911	13588.44
456.117	13191.14
456.323	13238.24
456.529	12328.94
456.735	13178.85
456.941	12586.99
457.147	12427.25
457.352	11862.01
457.558	11716.6
457.764	11853.81
457.97	11558.91
458.176	11448.32
458.381	11253.76
458.587	10831.88
458.793	10921.99
458.999	10399.76
459.204	11008
459.41	10678.28
459.616	9902.1
459.821	10080.27
460.027	9916.44
460.233	9855
460.438	9429.02
460.644	9224.22
460.85	8876.07
461.055	8953.89
461.261	8908.83
461.466	8247.34
461.672	7860.27
461.878	8417.32
462.083	8142.89
462.289	7718.96
462.494	7741.49
462.7	7268.41
462.905	7108.67
463.111	7381.05
463.316	7600.18
463.522	7397.43
463.727	7219.26
463.932	7284.8
464.138	7071.81
464.343	7272.51
464.549	7112.77
464.754	7172.16
464.959	7254.08
465.165	7176.25
465.37	6756.42
465.575	6848.58
465.781	7022.66
465.986	6975.55
466.191	6598.73
466.397	6613.06
466.602	6357.07
466.807	6531.14
467.012	6539.33
467.218	6633.54
467.423	6510.66
467.628	6484.04
467.833	6844.48
468.038	6447.18
468.244	6389.83
468.449	6488.14
468.654	6432.84
468.859	6398.03
469.064	6152.27
469.269	5898.32
469.474	6090.83
469.679	6154.32
469.885	6017.1
470.09	6226
470.295	6215.76
470.5	5941.33
470.705	6004.82
470.91	5769.3
471.115	5681.24
471.32	5935.18
471.525	5824.59
471.73	5490.77
471.935	5699.67
472.139	5535.83
472.344	5484.63
472.549	5560.41
472.754	5494.87
472.959	5281.88
473.164	5179.48
473.369	5116
473.574	5482.58
473.778	5113.95
473.983	5380.18
474.188	5142.62
474.393	5036.13
474.598	4995.17
474.802	4896.86
475.007	4931.68
475.212	4896.86
475.417	4919.39
475.621	4747.36
475.826	4661.35
476.031	4630.63
476.235	4536.42
476.44	4804.71
476.645	4610.15
476.849	4673.64
477.054	4460.65
477.259	4370.54
477.463	4589.67
477.668	4331.62
477.872	4393.06
478.077	4264.04
478.282	4180.07
478.486	4180.07
478.691	4194.41
478.895	4216.94
479.1	3977.33
479.304	4180.07
479.509	3993.71
479.713	3995.76
479.918	3977.33
480.122	3899.5
480.326	4071.53
480.531	4073.58
480.735	4049
480.94	3952.75
481.144	3973.23
481.348	3874.93
481.553	3926.13
481.757	3883.12
481.961	3838.06
482.166	3928.17
482.37	4022.38
482.574	3956.85
482.778	3895.41
482.983	3950.7
483.187	3983.47
483.391	3960.94
483.595	3852.4
483.8	3784.82
484.004	3838.06
484.208	3936.37
484.412	3864.69
484.616	3903.6
484.821	3840.11
485.025	3803.25
485.229	3991.66
485.433	3901.55
485.637	3897.46
485.841	3815.54
486.045	3919.98
486.249	3799.15
486.453	4008.05
486.657	3885.17
486.861	3858.54
487.065	3907.7
487.269	3983.47
487.473	3817.58
487.677	3864.69
487.881	3967.09
488.085	3917.93
488.289	3862.64
488.493	3942.51
488.697	3948.65
488.901	3958.89
489.105	3983.47
489.309	3854.45
489.512	3971.18
489.716	3924.08
489.92	3989.61
490.124	3942.51
490.328	4014.19
490.531	3926.13
490.735	3909.74
490.939	4008.05
491.143	4003.95
491.346	3905.65
491.55	4036.72
491.754	3854.45
491.958	4006
492.161	4003.95
492.365	4231.27
492.569	4167.79
492.772	4104.3
492.976	4270.19
493.18	3987.57
493.383	4333.67
493.587	4354.15
493.79	4194.41
493.994	4216.94
494.197	4266.09
494.401	4382.82
494.605	4376.68
494.808	4634.72
495.012	4507.75
495.215	4520.04
495.419	4647.01
495.622	4401.26
495.825	4704.35
496.029	4618.34
496.232	4905.06
496.436	4632.68
496.639	4909.15
496.843	4876.38
497.046	5001.31
497.249	5075.04
497.453	4927.58
497.656	5029.98
497.859	5009.5
498.063	5257.31
498.266	5081.18
498.469	5187.68
498.673	5204.06
498.876	5275.74
499.079	5455.96
499.282	5589.08
499.485	5613.65
499.689	5509.21
499.892	5867.6
500.095	5630.04
500.298	5980.24
500.501	5808.21
500.705	5873.75
500.908	6056.01
501.111	6080.59
501.314	6142.03
501.517	6043.73
501.72	6445.13
501.923	6160.46
502.126	6406.22
502.329	6379.59
502.532	6541.38
502.735	6711.36
502.938	6922.31
503.141	6750.28
503.344	6842.43
503.547	6930.5
503.75	7233.6
503.953	7202.88
504.156	7393.34
504.359	7286.84
504.562	7419.96
504.765	7657.53
504.968	7673.91
505.17	7733.3
505.373	7741.49
505.576	7864.37
505.779	8032.3
505.982	8040.5
506.185	8390.7
506.387	8149.04
506.59	8396.84
506.793	8575.02
506.996	8560.68
507.198	8949.79
507.401	8710.18
507.604	9099.3
507.807	9046.05
508.009	9209.89
508.212	9343
508.415	9388.06
508.617	9719.83
508.82	9601.05
509.022	9756.69
509.225	9904.15
509.428	9889.81
509.63	10055.7
509.833	10043.41
510.035	10244.11
510.238	10416.14
510.44	10543.11
510.643	10770.44
510.845	10645.51
511.048	10725.38
511.25	10962.95
511.453	11044.87
511.655	11302.91
511.858	11343.87
512.06	11440.12
512.262	11698.17
512.465	11698.17
512.667	12115.95
512.87	12052.47
513.072	12185.58
513.274	12380.14
513.477	12503.02
513.679	12543.98
513.881	12875.75
514.084	13191.14
514.286	13141.99
514.488	13058.02
514.69	13373.41
514.893	13514.72
515.095	13871.06
515.297	13838.3
515.499	13940.69
515.701	14155.73
515.904	14454.73
516.106	14483.41
516.308	14505.93
516.51	14952.39
516.712	14604.24
516.914	15083.46
517.116	15308.74
517.318	15331.26
517.52	15622.08
517.722	15742.91
517.925	15861.69
518.127	16031.67
518.329	16328.63
518.531	16191.41
518.733	16588.72
518.935	16670.64
519.136	16842.67
519.338	16986.02
519.54	17309.6
519.742	17276.84
519.944	17459.1
520.146	17801.12
520.348	17999.77
520.55	18087.83
520.752	18345.87
520.954	18388.88
521.155	18544.53
521.357	18636.69
521.559	19003.27
521.761	19093.38
521.963	19107.72
522.164	19474.31
522.366	19431.3
522.568	19742.59
522.77	19709.82
522.971	20156.28
523.173	20082.55
523.375	20139.9
523.576	20537.2
523.778	20545.39
523.98	20655.98
524.181	20567.92
524.383	21100.39
524.584	21049.19
524.786	21210.98
524.988	21100.39
525.189	21600.1
525.391	21768.03
525.592	21786.46
525.794	21917.53
525.995	21897.05
526.197	21856.09
526.398	21946.2
526.6	22173.53
526.801	22413.14
527.003	22423.38
527.204	22517.59
527.406	22800.21
527.607	22669.14
527.808	23179.08
528.01	22507.35
528.211	22818.64
528.412	23459.65
528.614	23228.23
528.815	23478.08
529.016	23261
529.218	23185.22
529.419	23385.93
529.62	23443.27
529.822	23502.66
530.023	23783.23
530.224	23713.6
530.425	23865.15
530.626	23727.94
530.828	23799.62
531.029	24186.68
531.23	23770.94
531.431	23816
531.632	24149.82
531.833	24061.76
532.035	23945.02
532.236	24301.37
532.437	24293.18
532.638	24213.31
532.839	24465.21
533.04	24334.14
533.241	24270.65
533.442	24528.69
533.643	24469.3
533.844	24106.81
534.045	24731.44
534.246	24203.07
534.447	24680.24
534.648	24549.17
534.849	24667.95
535.05	24512.31
535.251	24366.9
535.451	24559.41
535.652	24756.02
535.853	24524.6
536.054	24555.32
536.255	24700.72
536.456	24510.26
536.657	24942.38
536.857	24637.23
537.058	24696.63
537.259	24831.79
537.46	24811.31
537.66	24880.94
537.861	24743.73
538.062	24772.4
538.263	24760.11
538.463	24549.17
538.664	24731.44
538.865	24766.26
539.065	24788.78
539.266	24448.82
539.466	24887.09
539.667	24590.13
539.868	24604.47
540.068	24758.06
540.269	24665.91
540.469	24756.02
540.67	24674.1
540.87	24743.73
541.071	24657.71
541.271	24659.76
541.472	24942.38
541.672	24420.15
541.873	24475.45
542.073	24360.76
542.274	24792.88
542.474	24610.61
542.675	24569.65
542.875	24891.18
543.075	24989.49
543.276	24465.21
543.476	24641.33
543.676	24543.03
543.877	25055.02
544.077	24844.08
544.277	24809.26
544.478	24969.01
544.678	24827.7
544.878	24643.38
545.078	24928.05
545.279	24481.59
545.479	24743.73
545.679	24680.24
545.879	24659.76
546.079	24543.03
546.28	24647.47
546.48	24465.21
546.68	24659.76
546.88	24897.33
547.08	24979.25
547.28	24389.43
547.48	24661.81
547.68	25065.26
547.88	24561.46
548.081	24766.26
548.281	24401.72
548.481	24799.02
548.681	24817.46
548.881	24942.38
549.081	24885.04
549.28	24551.22
549.48	24833.84
549.68	24717.11
549.88	25048.88
550.08	24352.57
550.28	24792.88
550.48	24649.52
550.68	24694.58
550.88	24448.82
551.08	24917.81
551.279	24457.01
551.479	24377.14
551.679	24532.79
551.879	24768.3
552.079	24856.37
552.278	24407.86
552.478	24342.33
552.678	24538.93
552.878	24821.55
553.077	24454.97
553.277	24356.66
553.477	24954.67
553.676	24540.98
553.876	24528.69
554.076	24497.97
554.275	24751.92
554.475	24225.59
554.674	24504.12
554.874	24397.62
555.074	24528.69
555.273	24608.56
555.473	24432.44
555.672	24401.72
555.872	24176.44
556.071	24268.6
556.271	24334.14
556.47	24211.26
556.67	24115
556.869	24219.45
557.068	24006.46
557.268	24061.76
557.467	24045.37
557.667	23856.96
557.866	24045.37
558.065	24196.92
558.265	23672.64
558.464	23871.29
558.663	24000.32
558.863	23713.6
559.062	24123.19
559.261	23502.66
559.461	23641.92
559.66	23529.28
559.859	23607.11
560.058	23465.8
560.258	23463.75
560.457	23201.61
560.656	23746.37
560.855	23256.9
561.054	23244.62
561.253	23125.83
561.453	23283.53
561.652	23320.39
561.851	23390.02
562.05	23289.67
562.249	23281.48
562.448	23508.8
562.647	23265.1
562.846	23369.54
563.045	23138.12
563.244	22849.36
563.443	23138.12
563.642	22775.63
563.841	23287.62
564.04	22734.67
564.239	23070.54
564.438	22783.82
564.637	22890.32
564.836	22959.95
565.035	22323.03
565.234	22656.85
565.432	22243.16
565.631	22658.9
565.83	22716.24
566.029	22685.52
566.228	22525.78
566.427	22466.39
566.625	22179.67
566.824	21981.02
567.023	22282.07
567.222	21952.35
567.42	22011.74
567.619	21940.06
567.818	22177.62
568.016	21720.93
568.215	22130.52
568.414	21555.04
568.612	22071.13
568.811	21675.87
569.01	21647.2
569.208	21370.72
569.407	21587.81
569.605	21286.76
569.804	21360.48
570.002	21086.06
570.201	21657.44
570.4	21235.56
570.598	21208.94
570.797	21217.13
570.995	21155.69
571.193	20658.03
571.392	21315.43
571.59	21094.25
571.789	20846.44
571.987	20881.26
572.186	20533.11
572.384	20445.04
572.582	20447.09
572.781	20447.09
572.979	20076.41
573.177	20240.25
573.376	20430.71
573.574	20338.55
573.772	20072.31
573.971	20070.26
574.169	19888
574.367	19799.93
574.565	19945.34
574.763	19953.53
574.962	19961.72
575.16	19521.41
575.358	19601.28
575.556	19568.51
575.754	19689.34
575.952	19449.73
576.151	19824.51
576.349	19281.8
576.547	19122.05
576.745	19437.44
576.943	19376
577.141	19158.92
577.339	19031.94
577.537	18769.8
577.735	19011.46
577.933	18796.43
578.131	18900.87
578.329	18927.5
578.527	18526.1
578.725	18642.83
578.923	18773.9
579.121	18534.29
579.319	18501.52
579.516	18509.71
579.714	18489.23
579.912	18214.8
580.11	18204.56
580.308	18440.08
580.506	18206.61
580.704	17870.75
580.901	18419.6
581.099	18190.23
581.297	17979.29
581.495	17827.74
581.692	17768.35
581.89	17672.09
582.088	18030.49
582.285	17717.15
582.483	17803.16
582.681	17547.17
582.878	17414.05
583.076	17252.26
583.274	17719.2
583.471	17156
583.669	17459.1
583.866	17129.38
584.064	17139.62
584.262	16992.17
584.459	17254.31
584.657	17186.72
584.854	17125.29
585.052	16865.19
585.249	17194.92
585.447	16920.49
585.644	16451.5
585.841	16797.61
586.039	16865.19
586.236	16627.63
586.434	16480.18
586.631	16490.42
586.828	16670.64
587.026	16680.88
587.223	16271.28
587.42	16287.67
587.618	16480.18
587.815	16050.1
588.012	16086.97
588.21	16013.24
588.407	16316.34
588.604	16275.38
588.801	15620.03
588.999	16003
589.196	16074.68
589.393	15988.66
589.59	15747
589.787	15771.58
589.984	15689.66
590.182	15523.77
590.379	15876.02
590.576	15290.31
590.773	15667.13
590.97	15429.57
591.167	15525.82
591.364	15073.22
591.561	15194.05
591.758	14997.45
591.955	15415.23
592.152	15275.97
592.349	15183.81
592.546	15136.71
592.743	15179.72
592.94	14976.97
593.137	14907.34
593.334	15017.93
593.531	14673.87
593.727	14620.62
593.924	15030.21
594.121	14589.9
594.318	14905.29
594.515	14432.21
594.712	14788.55
594.908	14608.33
595.105	14731.21
595.302	14591.95
595.499	14649.29
595.696	14184.4
595.892	14505.93
596.089	14346.19
596.286	14141.39
596.482	14317.52
596.679	14340.05
596.876	14065.62
597.072	14086.1
597.269	14016.47
597.466	13987.8
597.662	13797.34
597.859	14129.11
598.055	14057.43
598.252	13635.55
598.448	13762.52
598.645	13582.3
598.841	13799.38
599.038	13807.58
599.234	13635.55
599.431	13531.1
599.627	13617.11
599.824	13402.08
600.02	13375.45
600.217	13357.02
600.413	13604.83
600.609	13602.78
600.806	13283.3
601.002	13307.87
601.198	13178.85
601.395	13234.14
601.591	13070.31
601.787	13236.19
601.984	13228
602.18	13082.6
602.376	13119.46
602.572	12986.34
602.769	12718.06
602.965	12652.52
603.161	12802.02
603.357	12660.71
603.553	12793.83
603.75	12699.62
603.946	12572.65
604.142	12580.84
604.338	12523.5
604.534	12816.36
604.73	12390.38
604.926	12380.14
605.122	12230.64
605.318	12285.94
605.514	12124.15
605.71	12330.99
605.906	12009.46
606.102	12007.41
606.298	12021.75
606.494	12136.43
606.69	11952.12
606.886	12226.54
607.082	11862.01
607.278	12064.75
607.474	11931.64
607.67	11978.74
607.866	11945.97
608.062	12005.36
608.257	11952.12
608.453	11542.52
608.649	11640.83
608.845	11587.58
609.041	11716.6
609.236	11476.99
609.432	11497.47
609.628	11417.6
609.824	11638.78
610.019	11661.3
610.215	11331.58
610.411	11487.23
610.606	11231.23
610.802	11499.52
610.998	11413.5
611.193	11298.81
611.389	11286.53
611.584	11292.67
611.78	11001.86
611.976	11145.22
612.171	11071.49
612.367	11071.49
612.562	11067.39
612.758	10862.6
612.953	10876.93
613.149	11003.91
613.344	10649.61
613.539	10993.67
613.735	11091.97
613.93	10997.76
614.126	10817.54
614.321	10868.74
614.517	10717.19
614.712	10858.5
614.907	10790.92
615.103	10463.24
615.298	10629.13
615.493	10772.49
615.688	10469.39
615.884	10711.05
616.079	10385.42
616.274	10450.96
616.47	10496.01
616.665	10457.1
616.86	10412.04
617.055	10463.24
617.25	10354.7
617.445	10366.99
617.641	10074.13
617.836	10244.11
618.031	10121.23
618.226	10383.37
618.421	10006.55
618.616	10395.66
618.811	9867.28
619.006	10326.03
619.201	9850.9
619.396	9926.68
619.591	9768.98
619.786	9834.52
619.981	9787.41
620.176	10022.93
620.371	9666.58
620.566	9852.95
620.761	9521.18
620.956	9611.29
621.151	9486.36
621.346	9207.84
621.541	9386.01
621.735	9576.47
621.93	9340.96
622.125	9291.8
622.32	9228.32
622.515	9220.13
622.709	9183.26
622.904	9302.04
623.099	9087.01
623.294	9080.86
623.488	8966.18
623.683	8937.51
623.878	8871.97
624.072	8837.16
624.267	8837.16
624.462	8679.46
624.656	8759.33
624.851	8689.7
625.046	8550.44
625.24	8816.68
625.435	8296.49
625.629	8544.3
625.824	8364.08
626.018	8273.96
626.213	8179.76
626.407	8310.83
626.602	8296.49
626.796	8183.85
626.991	8325.16
627.185	8101.94
627.38	8089.65
627.574	7966.77
627.768	7913.52
627.963	7868.47
628.157	7690.29
628.352	7862.32
628.546	7878.71
628.74	7835.7
628.935	7798.84
629.129	7899.19
629.323	7473.21
629.517	7649.33
629.712	7606.33
629.906	7567.42
630.1	7454.78
630.294	7493.69
630.489	7301.18
630.683	7473.21
630.877	7374.91
631.071	7231.55
631.265	7247.93
631.459	7204.92
631.653	7209.02
631.848	7376.95
632.042	7092.29
632.236	7166.01
632.43	7116.86
632.624	6983.74
632.818	6867.01
633.012	6858.82
633.206	6998.08
633.4	6977.6
633.594	6916.16
633.788	6940.74
633.982	6709.32
634.176	6787.14
634.369	6674.5
634.563	6635.59
634.757	6580.29
634.951	6619.21
635.145	6670.4
635.339	6469.7
635.533	6379.59
635.726	6226
635.92	6314.06
636.114	6330.44
636.308	6301.77
636.501	6219.85
636.695	6393.93
636.889	6056.01
637.083	6242.38
637.276	6269
637.47	6086.73
637.664	6013.01
637.857	6074.45
638.051	5951.57
638.244	5994.58
638.438	5853.27
638.632	6019.15
638.825	5802.07
639.019	5857.36
639.212	5836.88
639.406	5892.18
639.599	5730.39
639.793	5601.37
639.986	5619.8
640.18	5568.6
640.373	5742.68
640.567	5328.99
640.76	5701.72
640.954	5558.36
641.147	5445.72
641.34	5462.1
641.534	5429.34
641.727	5423.19
641.92	5417.05
642.114	5421.14
642.307	5202.01
642.5	5306.46
642.694	5353.56
642.887	4993.12
643.08	5005.41
643.273	5263.45
643.467	4976.73
643.66	5021.79
643.853	5013.6
644.046	4962.4
644.239	5040.22
644.432	4986.97
644.626	4911.2
644.819	4814.95
645.012	5066.85
645.205	4749.41
645.398	4788.32
645.591	4753.51
645.784	4780.13
645.977	4681.83
646.17	4671.59
646.363	4659.3
646.556	4489.32
646.749	4597.86
646.942	4640.87
647.135	4571.24
647.328	4554.85
647.521	4462.69
647.714	4583.52
647.907	4472.93
648.099	4386.92
648.292	4391.02
648.485	4405.35
648.678	4436.07
648.871	4261.99
649.064	4290.67
649.256	4247.66
649.449	4335.72
649.642	4264.04
649.835	4261.99
650.027	4057.2
650.22	4120.68
650.413	3895.41
650.605	4112.49
650.798	4061.29
650.991	3989.61
651.183	4003.95
651.376	4040.81
651.568	3870.83
651.761	3919.98
651.954	3960.94
652.146	3891.31
652.339	3919.98
652.531	3926.13
652.724	3706.99
652.916	3752.05
653.109	3737.71
653.301	3809.39
653.494	3706.99
653.686	3694.71
653.879	3760.24
654.071	3674.23
654.263	3688.56
654.456	3682.42
654.648	3618.93
654.84	3637.36
655.033	3520.63
655.225	3504.25
655.417	3565.68
655.61	3483.77
655.802	3393.65
655.994	3481.72
656.186	3422.33
656.379	3342.46
656.571	3321.98
656.763	3453.05
656.955	3332.22
657.148	3246.2
657.34	3240.06
657.532	3221.63
657.724	3256.44
657.916	3250.3
658.108	3207.29
658.3	3289.21
658.492	3213.43
658.684	3113.08
658.876	3082.36
659.068	3256.44
659.26	3008.64
659.452	3022.97
659.644	3268.73
659.836	3047.55
660.028	3065.98
660.22	3049.6
660.412	2986.11
660.604	3014.78
660.796	3012.73
660.988	2990.21
661.18	2779.26
661.372	2807.94
661.563	2961.53
661.755	2775.17
661.947	2832.51
662.139	2857.09
662.331	2844.8
662.522	2658.43
662.714	2812.03
662.906	2734.21
663.097	2769.02
663.289	2713.73
663.481	2660.48
663.673	2836.61
663.864	2736.26
664.056	2699.39
664.247	2627.71
664.439	2760.83
664.631	2658.43
664.822	2599.04
665.014	2656.39
665.205	2535.56
665.397	2547.84
665.588	2572.42
665.78	2529.41
665.971	2412.68
666.163	2400.39
666.354	2447.49
666.546	2545.8
666.737	2494.6
666.929	2447.49
667.12	2523.27
667.311	2384.01
667.503	2406.53
667.694	2418.82
667.885	2318.47
668.077	2490.5
668.268	2408.58
668.459	2291.85
668.651	2293.9
668.842	2357.38
669.033	2322.57
669.224	2355.33
669.416	2314.38
669.607	2361.48
669.798	2164.87
669.989	2343.05
670.18	2214.02
670.371	2273.42
670.563	2132.11
670.754	2232.46
670.945	2164.87
671.136	2121.87
671.327	2156.68
671.518	2246.79
671.709	2179.21
671.9	2279.56
672.091	2105.48
672.282	2111.63
672.473	2119.82
672.664	2158.73
672.855	2058.38
673.046	2035.85
673.237	2091.15
673.428	2166.92
673.619	2136.2
673.809	2082.95
674	2064.52
674.191	2087.05
674.382	2076.81
674.573	2099.34
674.764	2080.91
674.954	2054.28
675.145	1972.36
675.336	2109.58
675.527	2154.63
675.717	2013.32
675.908	2058.38
676.099	1970.32
676.289	1978.51
676.48	1955.98
676.671	1947.79
676.861	2064.52
677.052	1912.97
677.243	1917.07
677.433	1982.6
677.624	2056.33
677.814	1955.98
678.005	1998.99
678.195	1923.21
678.386	1927.31
678.576	1935.5
678.767	2009.23
678.957	1878.16
679.148	1972.36
679.338	1939.6
679.529	1906.83
679.719	1788.05
679.909	1890.45
680.1	1912.97
680.29	1917.07
680.481	1818.77
680.671	1835.15
680.861	1929.36
681.052	1951.88
681.242	1857.68
681.432	1906.83
681.622	1845.39
681.813	1788.05
682.003	1925.26
682.193	1867.92
682.383	1919.12
682.573	1853.58
682.764	1984.65
682.954	1906.83
683.144	1923.21
683.334	1783.95
683.524	1824.91
683.714	1802.38
683.904	1876.11
684.094	1888.4
684.284	1888.4
684.474	1851.53
684.664	1816.72
684.854	1767.57
685.044	1892.49
685.234	1765.52
685.424	1796.24
685.614	1937.55
685.804	1810.58
685.994	1814.67
686.184	1786
686.374	1777.81
686.564	1861.77
686.753	1800.34
686.943	1796.24
687.133	1841.29
687.323	1841.29
687.513	1732.75
687.702	1826.96
687.892	1779.86
688.082	1740.94
688.272	1687.7
688.461	1720.46
688.651	1808.53
688.841	1818.77
689.03	1679.51
689.22	1773.71
689.41	1765.52
689.599	1775.76
689.789	1712.27
689.979	1714.32
690.168	1681.55
690.358	1779.86
690.547	1724.56
690.737	1775.76
690.926	1753.23
691.116	1759.38
691.305	1831.05
691.495	1753.23
691.684	1687.7
691.874	1837.2
692.063	1720.46
692.252	1693.84
692.442	1775.76
692.631	1702.03
692.82	1839.25
693.01	1704.08
693.199	1718.42
693.388	1708.18
693.578	1669.27
693.767	1745.04
693.956	1822.86
694.146	1859.73
694.335	1769.62
694.524	1697.94
694.713	1812.62
694.902	1683.6
695.092	1802.38
695.281	1783.95
695.47	1730.7
695.659	1786
695.848	1767.57
696.037	1775.76
696.226	1798.29
696.415	1734.8
696.604	1718.42
696.793	1691.79
696.982	1593.49
697.171	1745.04
697.36	1751.18
697.549	1767.57
697.738	1882.25
697.927	1673.36
698.116	1761.42
698.305	1761.42
698.494	1783.95
698.683	1775.76
698.872	1794.19
699.061	1706.13
699.25	1798.29
699.438	1812.62
699.627	1732.75
699.816	1728.66
700.005	1699.98
700.193	1704.08
700.382	1740.94
700.571	1753.23
700.76	1740.94
700.948	1749.14
701.137	1738.9
701.326	1849.49
701.514	1800.34
701.703	1726.61
701.892	1786
702.08	1777.81
702.269	1771.66
702.457	1783.95
702.646	1755.28
702.834	1749.14
703.023	1648.79
703.212	1796.24
703.4	1742.99
703.589	1695.89
703.777	1728.66
703.965	1714.32
704.154	1704.08
704.342	1679.51
704.531	1697.94
704.719	1691.79
704.907	1730.7
705.096	1796.24
705.284	1665.17
705.472	1769.62
705.661	1669.27
705.849	1790.1
706.037	1679.51
706.226	1720.46
706.414	1609.87
706.602	1630.35
706.79	1708.18
706.979	1677.46
707.167	1740.94
707.355	1687.7
707.543	1609.87
707.731	1695.89
707.919	1661.07
708.107	1626.26
708.296	1620.11
708.484	1708.18
708.672	1616.02
708.86	1673.36
709.048	1726.61
709.236	1624.21
709.424	1624.21
709.612	1704.08
709.8	1536.15
709.988	1644.69
710.176	1665.17
710.364	1552.53
710.551	1599.63
710.739	1538.2
710.927	1611.92
711.115	1564.82
711.303	1673.36
711.491	1544.34
711.679	1577.11
711.866	1544.34
712.054	1634.45
712.242	1538.2
712.43	1622.16
712.617	1593.49
712.805	1525.91
712.993	1470.61
713.181	1577.11
713.368	1636.5
713.556	1575.06
713.744	1554.58
713.931	1544.34
714.119	1570.96
714.306	1435.8
714.494	1587.35
714.682	1556.63
714.869	1562.77
715.057	1542.29
715.244	1423.51
715.432	1503.38
715.619	1511.57
715.807	1435.8
715.994	1511.57
716.182	1474.71
716.369	1425.56
716.556	1458.32
716.744	1511.57
716.931	1482.9
717.119	1509.52
717.306	1450.13
717.493	1374.36
717.681	1482.9
717.868	1476.76
718.055	1484.95
718.242	1478.8
718.43	1456.28
718.617	1482.9
718.804	1384.6
718.991	1411.22
719.179	1368.21
719.366	1405.08
719.553	1345.69
719.74	1347.73
719.927	1372.31
720.114	1384.6
720.301	1417.37
720.488	1376.41
720.676	1388.69
720.863	1384.6
721.05	1419.41
721.237	1380.5
721.424	1362.07
721.611	1378.45
721.798	1331.35
721.985	1308.82
722.172	1360.02
722.358	1314.97
722.545	1378.45
722.732	1294.49
722.919	1288.34
723.106	1327.25
723.293	1370.26
723.48	1343.64
723.667	1333.4
723.853	1298.58
724.04	1300.63
724.227	1304.73
724.414	1241.24
724.6	1294.49
724.787	1308.82
724.974	1231
725.161	1179.8
725.347	1269.91
725.534	1333.4
725.72	1251.48
725.907	1292.44
726.094	1321.11
726.28	1216.66
726.467	1243.29
726.653	1271.96
726.84	1415.32
727.027	1347.73
727.213	1251.48
727.4	1269.91
727.586	1308.82
727.773	1392.79
727.959	1216.66
728.145	1267.86
728.332	1132.7
728.518	1185.94
728.705	1251.48
728.891	1169.56
729.077	1114.27
729.264	1231
729.45	1212.57
729.636	1200.28
729.823	1208.47
730.009	1136.79
730.195	1280.15
730.382	1333.4
730.568	1224.86
730.754	1171.61
730.94	1187.99
731.126	1212.57
731.313	1204.38
731.499	1226.9
731.685	1138.84
731.871	1253.53
732.057	1249.43
732.243	1118.36
732.429	1196.18
732.615	1126.55
732.801	1130.65
732.987	1128.6
733.173	983.2
733.359	1136.79
733.545	1114.27
733.731	1140.89
733.917	1116.31
734.103	1065.11
734.289	1142.94
734.475	1034.39
734.661	1114.27
734.847	1138.84
735.033	1140.89
735.219	1114.27
735.404	1081.5
735.59	1183.9
735.776	1126.55
735.962	1110.17
736.148	1110.17
736.333	1005.72
736.519	1114.27
736.705	1144.99
736.89	1104.03
737.076	1026.2
737.262	1114.27
737.447	1032.35
737.633	981.15
737.819	1030.3
738.004	1022.11
738.19	1099.93
738.375	1114.27
738.561	934.04
738.747	1042.59
738.932	1079.45
739.118	1077.4
739.303	1067.16
739.489	1071.26
739.674	1036.44
739.859	946.33
740.045	983.2
740.23	1089.69
740.416	923.8
740.601	999.58
740.786	1046.68
740.972	917.66
741.157	1003.68
741.342	966.81
741.528	1005.72
741.713	929.95
741.898	950.43
742.084	966.81
742.269	895.13
742.454	1024.16
742.639	950.43
742.824	956.57
743.01	997.53
743.195	1009.82
743.38	897.18
743.565	1013.92
743.75	966.81
743.935	1020.06
744.12	932
744.305	899.23
744.49	936.09
744.675	1005.72
744.86	876.7
745.045	880.8
745.23	817.31
745.415	856.22
745.6	901.28
745.785	868.51
745.97	884.89
746.155	927.9
746.34	833.69
746.525	882.85
746.71	936.09
746.895	805.02
747.079	868.51
747.264	929.95
747.449	905.37
747.634	845.98
747.819	807.07
748.003	903.32
748.188	825.5
748.373	796.83
748.557	809.12
748.742	802.97
748.927	784.54
749.111	829.6
749.296	800.93
749.481	784.54
749.665	805.02
749.85	776.35
750.034	733.34
750.219	757.92
750.404	735.39
750.588	862.37
750.773	792.73
750.957	735.39
751.141	671.9
751.326	817.31
751.51	809.12
751.695	696.48
751.879	706.72
752.064	700.58
752.248	643.23
752.432	729.25
752.617	678.05
752.801	714.91
752.985	669.86
753.17	583.84
753.354	737.44
753.538	737.44
753.722	661.66
753.907	719.01
754.091	647.33
754.275	643.23
754.459	649.38
754.643	594.08
754.828	612.51
755.012	702.62
755.196	577.7
755.38	665.76
755.564	649.38
755.748	653.47
755.932	684.19
756.116	618.66
756.3	624.8
756.484	706.72
756.668	626.85
756.852	585.89
757.036	651.42
757.22	583.84
757.404	606.37
757.588	659.62
757.772	596.13
757.956	641.18
758.14	546.98
758.323	600.23
758.507	540.83
758.691	561.31
758.875	551.07
759.059	643.23
759.242	549.03
759.426	506.02
759.61	598.18
759.794	561.31
759.977	579.75
760.161	481.44
760.345	559.27
760.528	489.64
760.712	579.75
760.895	522.4
761.079	606.37
761.263	536.74
761.446	526.5
761.63	493.73
761.813	579.75
761.997	481.44
762.18	485.54
762.364	495.78
762.547	473.25
762.731	522.4
762.914	473.25
763.098	520.35
763.281	477.35
763.464	532.64
763.648	479.4
763.831	546.98
764.015	555.17
764.198	499.88
764.381	483.49
764.564	487.59
764.748	581.79
764.931	479.4
765.114	428.2
765.297	442.53
765.481	460.96
765.664	420
765.847	508.07
766.03	473.25
766.213	465.06
766.397	522.4
766.58	563.36
766.763	446.63
766.946	405.67
767.129	469.16
767.312	477.35
767.495	430.24
767.678	413.86
767.861	528.55
768.044	387.24
768.227	485.54
768.41	473.25
768.593	336.04
768.776	360.61
768.959	463.01
769.142	524.45
769.324	450.72
769.507	387.24
769.69	473.25
769.873	411.81
770.056	489.64
770.239	424.1
770.421	473.25
770.604	469.16
770.787	377
770.97	358.57
771.152	463.01
771.335	471.2
771.518	407.72
771.7	438.44
771.883	426.15
772.066	422.05
772.248	385.19
772.431	397.48
772.613	389.28
772.796	315.56
772.978	409.76
773.161	374.95
773.343	491.68
773.526	395.43
773.708	405.67
773.891	354.47
774.073	356.52
774.256	358.57
774.438	381.09
774.621	368.81
774.803	422.05
774.985	440.48
775.168	393.38
775.35	387.24
775.532	352.42
775.715	364.71
775.897	381.09
776.079	317.61
776.261	391.33
776.444	356.52
776.626	413.86
776.808	368.81
776.99	331.94
777.173	415.91
777.355	329.89
777.537	290.98
777.719	411.81
777.901	364.71
778.083	323.75
778.265	340.13
778.447	352.42
778.629	321.7
778.811	362.66
778.993	301.22
779.175	321.7
779.357	252.07
779.539	295.08
779.721	331.94
779.903	278.69
780.085	303.27
780.267	338.09
780.449	295.08
780.631	301.22
780.812	295.08
780.994	333.99
781.176	280.74
781.358	342.18
781.54	295.08
781.721	288.93
781.903	293.03
782.085	274.6
782.267	303.27
782.448	239.78
782.63	250.02
782.812	344.23
782.993	315.56
783.175	299.17
783.357	313.51
783.538	303.27
783.72	196.78
783.901	262.31
784.083	288.93
784.264	297.13
784.446	211.11
784.627	221.35
784.809	286.89
784.99	164.01
785.172	260.26
785.353	221.35
785.535	301.22
785.716	200.87
785.897	215.21
786.079	180.39
786.26	237.74
786.441	164.01
786.623	153.77
786.804	280.74
786.985	184.49
787.167	157.86
787.348	202.92
787.529	213.16
787.71	166.06
787.891	184.49
788.073	164.01
788.254	217.26
788.435	274.6
788.616	239.78
788.797	235.69
788.978	266.41
789.159	98.47
789.34	264.36
789.522	155.82
789.703	237.74
789.884	184.49
790.065	219.3
790.246	200.87
790.427	180.39
790.607	186.54
790.788	229.54
790.969	217.26
791.15	184.49
791.331	211.11
791.512	168.1
791.693	190.63
791.874	104.62
792.054	166.06
792.235	237.74
792.416	164.01
792.597	143.53
792.778	164.01
792.958	180.39
793.139	192.68
793.32	227.5
793.5	188.58
793.681	215.21
793.862	135.34
794.042	178.34
794.223	155.82
794.404	123.05
794.584	159.91
794.765	184.49
794.945	147.62
795.126	147.62
795.306	178.34
795.487	182.44
795.667	178.34
795.848	184.49
796.028	118.95
796.209	176.3
796.389	182.44
796.57	116.9
796.75	186.54
796.93	116.9
797.111	137.38
797.291	176.3
797.471	161.96
797.652	229.54
797.832	55.47
798.012	125.1
798.192	161.96
798.373	49.32
798.553	114.86
798.733	127.14
798.913	43.18
799.093	178.34
799.274	127.14
799.454	102.57
799.634	143.53
799.814	82.09
799.994	141.48
800.174	108.71
800.354	129.19
800.534	135.34
800.714	102.57
800.894	123.05
801.074	88.23
801.254	147.62
801.434	153.77
801.614	184.49
801.794	121
801.974	288.93
802.154	106.67
802.334	145.58
802.514	112.81
802.693	161.96
802.873	45.23
803.053	102.57
803.233	112.81
803.413	67.75
803.592	129.19
803.772	108.71
803.952	49.32
804.131	145.58
804.311	80.04
804.491	147.62
804.67	100.52
804.85	116.9
805.03	88.23
805.209	67.75
805.389	98.47
805.568	90.28
805.748	123.05
805.928	104.62
806.107	125.1
806.287	139.43
806.466	170.15
806.646	96.43
806.825	75.95
807.004	92.33
807.184	114.86
807.363	92.33
807.543	82.09
807.722	159.91
807.901	170.15
808.081	51.37
808.26	67.75
808.439	114.86
808.619	112.81
808.798	67.75
808.977	28.84
809.156	98.47
809.336	94.38
809.515	129.19
809.694	14.51
809.873	104.62
810.052	16.55
810.231	102.57
810.411	55.47
810.59	94.38
810.769	149.67
810.948	139.43
811.127	69.8
811.306	59.56
811.485	71.85
811.664	106.67
811.843	80.04
812.022	121
812.201	86.19
812.38	90.28
812.559	84.14
812.737	90.28
812.916	106.67
813.095	159.91
813.274	73.9
813.453	30.89
813.632	55.47
813.811	59.56
813.989	104.62
814.168	69.8
814.347	51.37
814.526	55.47
814.704	16.55
814.883	147.62
815.062	102.57
815.24	104.62
815.419	92.33
815.598	45.23
815.776	75.95
815.955	67.75
816.133	149.67
816.312	73.9
816.49	98.47
816.669	53.42
816.847	55.47
817.026	186.54
817.204	45.23
817.383	71.85
817.561	118.95
817.74	86.19
817.918	121
818.097	88.23
818.275	-18.26
818.453	131.24
818.632	6.31
818.81	127.14
818.988	43.18
819.167	43.18
819.345	75.95
819.523	90.28
819.701	59.56
819.879	104.62
820.058	-12.12
820.236	141.48
820.414	-1.88
820.592	133.29
820.77	82.09
820.948	88.23
821.127	90.28
821.305	8.36
821.483	-12.12
821.661	108.71
821.839	-20.31
822.017	24.75
822.195	49.32
822.373	26.79
822.551	12.46
822.729	121
822.907	94.38
823.085	71.85
823.262	37.03
823.44	14.51
823.618	0.17
823.796	82.09
823.974	61.61
824.152	61.61
824.329	61.61
824.507	55.47
824.685	53.42
824.863	123.05
825.04	28.84
825.218	49.32
825.396	67.75
825.574	41.13
825.751	30.89
825.929	96.43
826.107	16.55
826.284	71.85
826.462	88.23
826.639	92.33
826.817	-16.21
826.994	43.18
827.172	-8.02
827.349	141.48
827.527	69.8
827.704	114.86
827.882	75.95
828.059	86.19
828.237	69.8
828.414	80.04
828.591	53.42
828.769	37.03
828.946	-34.64
829.124	82.09
829.301	45.23
829.478	8.36
829.655	-24.4
829.833	100.52
830.01	41.13
830.187	55.47
830.364	75.95
830.542	24.75
830.719	90.28
830.896	63.66
831.073	20.65
831.25	41.13
831.427	57.51
831.604	16.55
831.782	69.8
831.959	14.51
832.136	41.13
832.313	67.75
832.49	-28.5
832.667	39.08
832.844	61.61
833.021	22.7
833.198	-24.4
833.374	71.85
833.551	47.27
833.728	37.03
833.905	-22.36
834.082	10.41
834.259	-8.02
834.436	75.95
834.612	-16.21
834.789	16.55
834.966	37.03
835.143	88.23
835.319	28.84
835.496	39.08
835.673	143.53
835.85	106.67
836.026	6.31
836.203	98.47
836.38	22.7
836.556	61.61
836.733	18.6
836.909	90.28
837.086	26.79
837.262	-24.4
837.439	0.17
837.616	39.08
837.792	32.94
837.968	-40.79
838.145	69.8
838.321	26.79
838.498	26.79
838.674	0.17
838.851	61.61
839.027	-1.88
839.203	65.71
839.38	22.7
839.556	34.99
839.732	14.51
839.909	-3.93
840.085	12.46
840.261	77.99
840.437	-5.97
840.614	-24.4
840.79	55.47
840.966	45.23
841.142	22.7
841.318	28.84
841.494	80.04
841.671	4.27
841.847	32.94
842.023	57.51
842.199	49.32
842.375	34.99
842.551	49.32
842.727	45.23
842.903	20.65
843.079	-22.36
843.255	-20.31
843.431	53.42
843.607	88.23
843.783	-30.55
843.959	73.9
844.134	0.17
844.31	80.04
844.486	-40.79
844.662	28.84
844.838	26.79
845.013	37.03
845.189	12.46
845.365	67.75
845.541	34.99
845.716	-59.22
845.892	20.65
846.068	98.47
846.244	-44.88
846.419	37.03
846.595	-42.84
846.77	-30.55
846.946	12.46
847.122	34.99
847.297	47.27
847.473	24.75
847.648	67.75
847.824	4.27
847.999	61.61
848.175	47.27
848.35	41.13
848.526	90.28
848.701	18.6
848.876	57.51
849.052	22.7
849.227	73.9
849.403	22.7
849.578	47.27
849.753	41.13
849.929	30.89
850.104	12.46
850.279	37.03
850.454	-22.36
850.63	0.17
850.805	-44.88
850.98	47.27
851.155	51.37
851.33	24.75
851.505	-3.93
851.681	69.8
851.856	73.9
852.031	16.55
852.206	37.03
852.381	-10.07
852.556	16.55
852.731	-8.02
852.906	-57.17
853.081	18.6
853.256	49.32
853.431	8.36
853.606	18.6
853.781	32.94
853.956	-28.5
854.131	28.84
854.305	26.79
854.48	57.51
854.655	-1.88
854.83	-16.21
855.005	-18.26
855.18	-20.31
855.354	34.99
855.529	100.52
855.704	69.8
855.879	61.61
856.053	37.03
856.228	-16.21
856.403	-32.6
856.577	59.56
856.752	28.84
856.926	-1.88
857.101	34.99
857.276	-1.88
857.45	-12.12
857.625	51.37
857.799	69.8
857.974	61.61
858.148	-44.88
858.323	2.22
858.497	0.17
858.672	6.31
858.846	0.17
859.02	32.94
859.195	-16.21
859.369	80.04
859.543	-20.31
859.718	51.37
859.892	51.37
860.066	-3.93
860.241	0.17
860.415	-59.22
860.589	4.27
860.763	-34.64
860.938	20.65
861.112	-30.55
861.286	51.37
861.46	-10.07
861.634	-18.26
861.808	6.31
861.982	47.27
862.157	-32.6
862.331	-16.21
862.505	47.27
862.679	-57.17
862.853	57.51
863.027	-57.17
863.201	6.31
863.375	-3.93
863.549	49.32
863.722	-28.5
863.896	6.31
864.07	-53.08
864.244	0.17
864.418	-28.5
864.592	131.24
864.766	-26.45
864.939	-12.12
865.113	0.17
865.287	10.41
865.461	43.18
865.634	-36.69
865.808	-22.36
865.982	-1.88
866.156	-8.02
866.329	10.41
866.503	59.56
866.676	14.51
866.85	-48.98
867.024	-12.12
867.197	45.23
867.371	30.89
867.544	-55.12
867.718	12.46
867.891	22.7
868.065	-28.5
868.238	73.9
868.412	39.08
868.585	-34.64
868.759	102.57
868.932	4.27
869.105	14.51
869.279	43.18
869.452	26.79
869.625	-81.75
869.799	24.75
869.972	-40.79
870.145	-24.4
870.319	49.32
870.492	61.61
870.665	14.51
870.838	37.03
871.011	-10.07
871.185	92.33
871.358	16.55
871.531	16.55
871.704	49.32
871.877	-22.36
872.05	24.75
872.223	32.94
872.396	-8.02
872.569	28.84
872.742	20.65
872.915	32.94
873.088	51.37
873.261	-5.97
873.434	24.75
873.607	22.7
873.78	-8.02
873.953	32.94
874.126	-51.03
874.299	-10.07
874.471	18.6
874.644	16.55
874.817	-53.08
874.99	104.62
875.163	-3.93
875.335	28.84
875.508	22.7
875.681	-22.36
875.853	47.27
876.026	41.13
876.199	37.03
876.371	41.13
876.544	-77.65
876.717	18.6
876.889	-30.55
877.062	-16.21
877.234	-59.22
877.407	39.08
877.579	49.32
877.752	67.75
877.924	-14.17
878.097	8.36
878.269	-87.89
878.442	37.03
878.614	16.55
878.786	22.7
878.959	26.79
879.131	80.04
879.303	-30.55
879.476	18.6
879.648	28.84
879.82	-14.17
879.993	24.75
880.165	4.27
880.337	-14.17
880.509	0.17
880.681	2.22
880.854	34.99
881.026	49.32
881.198	37.03
881.37	10.41
881.542	-8.02
881.714	2.22
881.886	-26.45
882.058	12.46
882.23	28.84
882.402	-8.02
882.574	-1.88
882.746	37.03
882.918	-12.12
883.09	-20.31
883.262	55.47
883.434	59.56
883.606	71.85
883.778	26.79
883.95	26.79
884.122	16.55
884.293	88.23
884.465	10.41
884.637	8.36
884.809	14.51
884.98	-16.21
885.152	-14.17
885.324	18.6
885.496	30.89
885.667	-12.12
885.839	-36.69
886.011	6.31
886.182	-22.36
886.354	84.14
886.525	-1.88
886.697	-1.88
886.869	-14.17
887.04	39.08
887.212	63.66
887.383	67.75
887.555	4.27
887.726	-16.21
887.897	59.56
888.069	22.7
888.24	22.7
888.412	-26.45
888.583	8.36
888.754	20.65
888.926	63.66
889.097	16.55
889.268	-18.26
889.44	45.23
889.611	-32.6
889.782	34.99
889.953	-24.4
890.125	6.31
890.296	51.37
890.467	6.31
890.638	-81.75
890.809	-18.26
890.98	-24.4
891.151	12.46
891.323	71.85
891.494	16.55
891.665	26.79
891.836	86.19
892.007	16.55
892.178	63.66
892.349	-12.12
892.52	10.41
892.691	-34.64
892.862	-8.02
893.032	18.6
893.203	-83.8
893.374	22.7
893.545	-42.84
893.716	65.71
893.887	-14.17
894.057	18.6
894.228	-5.97
894.399	-18.26
894.57	30.89
894.74	-3.93
894.911	-18.26
895.082	28.84
895.253	49.32
895.423	65.71
895.594	-34.64
895.764	4.27
895.935	114.86
896.106	63.66
896.276	55.47
896.447	-24.4
896.617	-5.97
896.788	-14.17
896.958	-28.5
897.129	2.22
897.299	24.75
897.47	69.8
897.64	73.9
897.81	-5.97
897.981	41.13
898.151	-36.69
898.322	-63.32
898.492	-34.64
898.662	-5.97
898.832	-8.02
899.003	6.31
899.173	34.99
899.343	-8.02
899.513	6.31
