Data from USB4F104151__168__13-58-51-551.txt Node

Date: Thu Mar 13 13:58:51 EDT 2025
User: louis
Spectrometer: USB4F10415
Trigger mode: 4
Integration Time (sec): 1.000000E-2
Scans to average: 1
Electric dark correction enabled: true
Nonlinearity correction enabled: false
Boxcar width: 0
XAxis mode: Wavelengths
Number of Pixels in Spectrum: 3648
>>>>>Begin Spectral Data<<<<<
178.204	-23.72
178.424	-23.72
178.644	-23.72
178.864	-36.01
179.084	-60.59
179.304	19.29
179.524	4.95
179.744	23.38
179.964	29.52
180.184	-13.48
180.404	-9.39
180.624	-58.54
180.844	-19.63
181.064	13.14
181.283	-27.82
181.503	0.85
181.723	37.72
181.943	17.24
182.163	74.58
182.383	41.81
182.602	19.29
182.822	27.48
183.042	9.05
183.262	35.67
183.482	11.09
183.701	-46.25
183.921	43.86
184.141	11.09
184.361	27.48
184.58	52.05
184.8	-19.63
185.02	47.96
185.239	-7.34
185.459	39.76
185.679	-5.29
185.898	-52.39
186.118	54.1
186.338	15.19
186.557	43.86
186.777	-13.48
186.997	39.76
187.216	4.95
187.436	78.68
187.655	-23.72
187.875	-11.43
188.095	74.58
188.314	41.81
188.534	7
188.753	56.15
188.973	-7.34
189.192	66.39
189.412	60.24
189.631	23.38
189.851	43.86
190.07	-5.29
190.29	66.39
190.509	-5.29
190.729	64.34
190.948	35.67
191.168	9.05
191.387	35.67
191.607	35.67
191.826	-58.54
192.045	-27.82
192.265	33.62
192.484	76.63
192.704	4.95
192.923	-27.82
193.142	11.09
193.362	47.96
193.581	64.34
193.8	-36.01
194.02	109.4
194.239	-76.97
194.458	86.87
194.678	17.24
194.897	-23.72
195.116	-5.29
195.335	82.77
195.555	-5.29
195.774	52.05
195.993	7
196.212	31.57
196.432	58.2
196.651	76.63
196.87	31.57
197.089	31.57
197.308	-27.82
197.528	43.86
197.747	29.52
197.966	-29.87
198.185	-1.19
198.404	-31.91
198.623	50
198.842	-36.01
199.062	60.24
199.281	54.1
199.5	31.57
199.719	80.72
199.938	76.63
200.157	-11.43
200.376	-31.91
200.595	72.53
200.814	31.57
201.033	-29.87
201.252	15.19
201.471	-15.53
201.69	-83.11
201.909	-21.67
202.128	-3.24
202.347	4.95
202.566	0.85
202.785	58.2
203.004	11.09
203.223	93.01
203.442	19.29
203.661	35.67
203.879	-11.43
204.098	76.63
204.317	-36.01
204.536	17.24
204.755	-9.39
204.974	-7.34
205.193	41.81
205.411	50
205.63	84.82
205.849	-15.53
206.068	-48.3
206.287	107.35
206.505	0.85
206.724	74.58
206.943	-38.06
207.162	21.33
207.381	50
207.599	43.86
207.818	-13.48
208.037	17.24
208.255	-40.11
208.474	-1.19
208.693	56.15
208.911	-3.24
209.13	27.48
209.349	33.62
209.567	15.19
209.786	23.38
210.005	76.63
210.223	101.2
210.442	-5.29
210.661	35.67
210.879	-27.82
211.098	7
211.316	-31.91
211.535	23.38
211.753	-40.11
211.972	50
212.191	-29.87
212.409	25.43
212.628	4.95
212.846	9.05
213.065	-58.54
213.283	93.01
213.502	0.85
213.72	33.62
213.938	76.63
214.157	41.81
214.375	-13.48
214.594	35.67
214.812	37.72
215.031	47.96
215.249	17.24
215.467	58.2
215.686	125.78
215.904	-7.34
216.122	-42.15
216.341	47.96
216.559	17.24
216.778	-5.29
216.996	-9.39
217.214	11.09
217.432	-5.29
217.651	-7.34
217.869	-21.67
218.087	23.38
218.306	9.05
218.524	70.48
218.742	58.2
218.96	76.63
219.179	52.05
219.397	41.81
219.615	37.72
219.833	19.29
220.051	-36.01
220.27	43.86
220.488	11.09
220.706	0.85
220.924	60.24
221.142	37.72
221.36	62.29
221.578	74.58
221.796	25.43
222.015	35.67
222.233	84.82
222.451	50
222.669	0.85
222.887	56.15
223.105	27.48
223.323	-5.29
223.541	-7.34
223.759	41.81
223.977	-3.24
224.195	76.63
224.413	66.39
224.631	27.48
224.849	0.85
225.067	35.67
225.285	9.05
225.503	31.57
225.721	0.85
225.939	13.14
226.157	13.14
226.375	82.77
226.592	33.62
226.81	35.67
227.028	58.2
227.246	117.59
227.464	-27.82
227.682	74.58
227.9	54.1
228.117	-46.25
228.335	-3.24
228.553	17.24
228.771	33.62
228.989	54.1
229.206	7
229.424	-62.63
229.642	-38.06
229.86	4.95
230.077	9.05
230.295	-11.43
230.513	9.05
230.731	11.09
230.948	29.52
231.166	78.68
231.384	4.95
231.601	27.48
231.819	78.68
232.037	0.85
232.254	0.85
232.472	33.62
232.689	-27.82
232.907	74.58
233.125	15.19
233.342	7
233.56	-56.49
233.777	78.68
233.995	115.54
234.213	74.58
234.43	31.57
234.648	31.57
234.865	-25.77
235.083	58.2
235.3	-46.25
235.518	-15.53
235.735	-13.48
235.953	13.14
236.17	21.33
236.388	11.09
236.605	17.24
236.822	-7.34
237.04	33.62
237.257	66.39
237.475	70.48
237.692	11.09
237.909	70.48
238.127	70.48
238.344	52.05
238.562	31.57
238.779	76.63
238.996	33.62
239.214	13.14
239.431	43.86
239.648	62.29
239.865	13.14
240.083	-7.34
240.3	76.63
240.517	-31.91
240.735	35.67
240.952	109.4
241.169	90.96
241.386	-31.91
241.603	-29.87
241.821	-13.48
242.038	19.29
242.255	64.34
242.472	-19.63
242.689	45.91
242.907	86.87
243.124	37.72
243.341	-1.19
243.558	17.24
243.775	-31.91
243.992	7
244.209	37.72
244.426	82.77
244.643	64.34
244.86	-42.15
245.078	56.15
245.295	45.91
245.512	29.52
245.729	-29.87
245.946	56.15
246.163	-5.29
246.38	25.43
246.597	99.16
246.814	21.33
247.031	29.52
247.248	66.39
247.464	11.09
247.681	64.34
247.898	21.33
248.115	11.09
248.332	-40.11
248.549	52.05
248.766	33.62
248.983	50
249.2	21.33
249.417	15.19
249.633	47.96
249.85	80.72
250.067	17.24
250.284	25.43
250.501	25.43
250.717	19.29
250.934	23.38
251.151	80.72
251.368	29.52
251.585	84.82
251.801	39.76
252.018	31.57
252.235	23.38
252.451	-3.24
252.668	76.63
252.885	-1.19
253.102	72.53
253.318	101.2
253.535	35.67
253.752	45.91
253.968	31.57
254.185	39.76
254.401	-23.72
254.618	-29.87
254.835	70.48
255.051	56.15
255.268	21.33
255.484	13.14
255.701	-40.11
255.917	23.38
256.134	76.63
256.351	50
256.567	62.29
256.784	80.72
257	-13.48
257.217	21.33
257.433	-5.29
257.65	80.72
257.866	68.44
258.082	88.92
258.299	19.29
258.515	9.05
258.732	70.48
258.948	29.52
259.165	31.57
259.381	33.62
259.597	0.85
259.814	41.81
260.03	131.92
260.246	11.09
260.463	-42.15
260.679	52.05
260.895	25.43
261.112	45.91
261.328	76.63
261.544	74.58
261.761	56.15
261.977	33.62
262.193	9.05
262.409	64.34
262.626	58.2
262.842	-11.43
263.058	-3.24
263.274	27.48
263.49	-11.43
263.707	29.52
263.923	9.05
264.139	45.91
264.355	-29.87
264.571	29.52
264.787	54.1
265.004	17.24
265.22	58.2
265.436	19.29
265.652	54.1
265.868	68.44
266.084	9.05
266.3	-7.34
266.516	29.52
266.732	9.05
266.948	-11.43
267.164	37.72
267.38	74.58
267.596	-3.24
267.812	-15.53
268.028	-48.3
268.244	39.76
268.46	-38.06
268.676	60.24
268.892	31.57
269.108	-9.39
269.324	31.57
269.54	-9.39
269.756	-11.43
269.972	-11.43
270.188	33.62
270.403	70.48
270.619	-7.34
270.835	21.33
271.051	29.52
271.267	41.81
271.483	-17.58
271.698	33.62
271.914	29.52
272.13	25.43
272.346	21.33
272.562	45.91
272.777	66.39
272.993	39.76
273.209	-5.29
273.425	35.67
273.64	19.29
273.856	-1.19
274.072	-9.39
274.287	-40.11
274.503	-15.53
274.719	76.63
274.934	35.67
275.15	37.72
275.366	17.24
275.581	27.48
275.797	37.72
276.012	-19.63
276.228	33.62
276.444	97.11
276.659	29.52
276.875	-17.58
277.09	70.48
277.306	17.24
277.521	17.24
277.737	66.39
277.952	0.85
278.168	21.33
278.383	37.72
278.599	-25.77
278.814	23.38
279.03	50
279.245	41.81
279.461	-19.63
279.676	43.86
279.892	-11.43
280.107	41.81
280.322	82.77
280.538	39.76
280.753	17.24
280.969	27.48
281.184	0.85
281.399	101.2
281.615	-23.72
281.83	-17.58
282.045	23.38
282.26	17.24
282.476	37.72
282.691	31.57
282.906	88.92
283.122	76.63
283.337	4.95
283.552	15.19
283.767	29.52
283.983	64.34
284.198	66.39
284.413	27.48
284.628	54.1
284.843	-33.96
285.058	2.9
285.274	72.53
285.489	-50.35
285.704	-44.2
285.919	52.05
286.134	-31.91
286.349	60.24
286.564	-5.29
286.779	58.2
286.995	2.9
287.21	43.86
287.425	13.14
287.64	78.68
287.855	74.58
288.07	25.43
288.285	2.9
288.5	21.33
288.715	58.2
288.93	33.62
289.145	27.48
289.36	31.57
289.575	58.2
289.79	15.19
290.004	82.77
290.219	-48.3
290.434	17.24
290.649	17.24
290.864	39.76
291.079	39.76
291.294	7
291.509	29.52
291.724	62.29
291.938	-15.53
292.153	47.96
292.368	-11.43
292.583	52.05
292.798	25.43
293.012	70.48
293.227	197.46
293.442	70.48
293.657	17.24
293.871	25.43
294.086	56.15
294.301	56.15
294.516	11.09
294.73	76.63
294.945	70.48
295.16	93.01
295.374	47.96
295.589	47.96
295.804	19.29
296.018	-5.29
296.233	99.16
296.447	-5.29
296.662	90.96
296.877	31.57
297.091	52.05
297.306	54.1
297.52	-9.39
297.735	2.9
297.949	45.91
298.164	50
298.378	50
298.593	13.14
298.807	11.09
299.022	88.92
299.236	-21.67
299.451	2.9
299.665	-9.39
299.88	52.05
300.094	78.68
300.309	95.06
300.523	68.44
300.737	33.62
300.952	37.72
301.166	45.91
301.381	11.09
301.595	-21.67
301.809	-27.82
302.024	50
302.238	35.67
302.452	54.1
302.667	-23.72
302.881	50
303.095	-29.87
303.309	13.14
303.524	25.43
303.738	17.24
303.952	-5.29
304.166	-13.48
304.381	-25.77
304.595	27.48
304.809	-7.34
305.023	105.3
305.237	-3.24
305.452	68.44
305.666	9.05
305.88	37.72
306.094	27.48
306.308	43.86
306.522	47.96
306.736	41.81
306.95	78.68
307.164	21.33
307.379	-21.67
307.593	-7.34
307.807	45.91
308.021	-38.06
308.235	29.52
308.449	33.62
308.663	-31.91
308.877	50
309.091	70.48
309.305	17.24
309.519	45.91
309.733	68.44
309.947	17.24
310.161	82.77
310.374	64.34
310.588	72.53
310.802	23.38
311.016	27.48
311.23	-1.19
311.444	-7.34
311.658	7
311.872	72.53
312.085	11.09
312.299	58.2
312.513	4.95
312.727	58.2
312.941	-7.34
313.154	82.77
313.368	66.39
313.582	70.48
313.796	107.35
314.009	66.39
314.223	54.1
314.437	50
314.651	56.15
314.864	-38.06
315.078	64.34
315.292	35.67
315.505	-23.72
315.719	9.05
315.933	11.09
316.146	50
316.36	56.15
316.573	33.62
316.787	-29.87
317.001	15.19
317.214	-21.67
317.428	74.58
317.641	21.33
317.855	54.1
318.068	25.43
318.282	72.53
318.495	123.73
318.709	93.01
318.922	54.1
319.136	33.62
319.349	25.43
319.563	47.96
319.776	70.48
319.99	33.62
320.203	-58.54
320.417	60.24
320.63	58.2
320.843	47.96
321.057	4.95
321.27	19.29
321.483	-3.24
321.697	29.52
321.91	52.05
322.124	13.14
322.337	11.09
322.55	70.48
322.763	11.09
322.977	-79.02
323.19	-46.25
323.403	-29.87
323.617	41.81
323.83	97.11
324.043	56.15
324.256	62.29
324.469	54.1
324.683	86.87
324.896	41.81
325.109	60.24
325.322	27.48
325.535	23.38
325.748	58.2
325.962	45.91
326.175	13.14
326.388	58.2
326.601	50
326.814	27.48
327.027	62.29
327.24	27.48
327.453	27.48
327.666	60.24
327.879	15.19
328.092	45.91
328.305	-31.91
328.518	39.76
328.731	13.14
328.944	107.35
329.157	11.09
329.37	33.62
329.583	72.53
329.796	25.43
330.009	25.43
330.222	86.87
330.435	93.01
330.648	70.48
330.861	103.25
331.073	-29.87
331.286	29.52
331.499	76.63
331.712	-31.91
331.925	50
332.138	2.9
332.35	90.96
332.563	27.48
332.776	43.86
332.989	41.81
333.202	52.05
333.414	0.85
333.627	41.81
333.84	-38.06
334.053	97.11
334.265	21.33
334.478	-33.96
334.691	-9.39
334.903	45.91
335.116	50
335.329	35.67
335.541	17.24
335.754	105.3
335.966	23.38
336.179	47.96
336.392	-11.43
336.604	11.09
336.817	129.88
337.029	88.92
337.242	19.29
337.454	82.77
337.667	45.91
337.88	17.24
338.092	74.58
338.305	37.72
338.517	-44.2
338.729	97.11
338.942	58.2
339.154	15.19
339.367	11.09
339.579	86.87
339.792	47.96
340.004	74.58
340.217	35.67
340.429	33.62
340.641	-48.3
340.854	111.44
341.066	33.62
341.278	58.2
341.491	37.72
341.703	29.52
341.915	82.77
342.128	-5.29
342.34	9.05
342.552	62.29
342.764	33.62
342.977	11.09
343.189	74.58
343.401	115.54
343.613	23.38
343.826	-7.34
344.038	93.01
344.25	-3.24
344.462	62.29
344.674	9.05
344.886	29.52
345.099	58.2
345.311	56.15
345.523	82.77
345.735	60.24
345.947	45.91
346.159	-19.63
346.371	17.24
346.583	64.34
346.795	15.19
347.007	-23.72
347.219	21.33
347.431	-13.48
347.643	45.91
347.855	50
348.067	109.4
348.279	37.72
348.491	31.57
348.703	82.77
348.915	31.57
349.127	45.91
349.339	41.81
349.551	9.05
349.763	9.05
349.975	58.2
350.187	56.15
350.399	123.73
350.61	0.85
350.822	43.86
351.034	19.29
351.246	47.96
351.458	7
351.669	50
351.881	45.91
352.093	37.72
352.305	15.19
352.517	37.72
352.728	11.09
352.94	45.91
353.152	58.2
353.363	-7.34
353.575	7
353.787	19.29
353.999	41.81
354.21	56.15
354.422	-23.72
354.633	0.85
354.845	35.67
355.057	23.38
355.268	4.95
355.48	7
355.692	11.09
355.903	25.43
356.115	9.05
356.326	78.68
356.538	31.57
356.749	41.81
356.961	80.72
357.172	45.91
357.384	115.54
357.595	58.2
357.807	15.19
358.018	-19.63
358.23	142.16
358.441	70.48
358.653	80.72
358.864	-7.34
359.075	68.44
359.287	-15.53
359.498	25.43
359.709	99.16
359.921	-38.06
360.132	-1.19
360.344	-5.29
360.555	58.2
360.766	74.58
360.977	9.05
361.189	68.44
361.4	64.34
361.611	17.24
361.823	45.91
362.034	-15.53
362.245	-19.63
362.456	66.39
362.667	19.29
362.879	41.81
363.09	19.29
363.301	95.06
363.512	17.24
363.723	25.43
363.935	25.43
364.146	54.1
364.357	70.48
364.568	33.62
364.779	43.86
364.99	27.48
365.201	35.67
365.412	2.9
365.623	27.48
365.834	4.95
366.045	88.92
366.256	74.58
366.467	82.77
366.678	0.85
366.889	66.39
367.1	101.2
367.311	21.33
367.522	70.48
367.733	66.39
367.944	78.68
368.155	33.62
368.366	21.33
368.577	72.53
368.788	90.96
368.999	66.39
369.209	109.4
369.42	78.68
369.631	66.39
369.842	-21.67
370.053	125.78
370.264	43.86
370.474	39.76
370.685	88.92
370.896	50
371.107	35.67
371.317	74.58
371.528	37.72
371.739	74.58
371.95	-33.96
372.16	35.67
372.371	-9.39
372.582	25.43
372.792	37.72
373.003	60.24
373.214	33.62
373.424	54.1
373.635	19.29
373.846	90.96
374.056	56.15
374.267	60.24
374.477	33.62
374.688	11.09
374.898	-7.34
375.109	78.68
375.319	68.44
375.53	107.35
375.74	45.91
375.951	66.39
376.161	82.77
376.372	25.43
376.582	60.24
376.793	56.15
377.003	29.52
377.214	82.77
377.424	50
377.635	4.95
377.845	68.44
378.055	70.48
378.266	-21.67
378.476	17.24
378.686	23.38
378.897	95.06
379.107	37.72
379.317	62.29
379.528	7
379.738	88.92
379.948	74.58
380.158	68.44
380.369	179.03
380.579	11.09
380.789	66.39
380.999	50
381.21	119.64
381.42	131.92
381.63	21.33
381.84	62.29
382.05	80.72
382.261	7
382.471	-5.29
382.681	4.95
382.891	72.53
383.101	56.15
383.311	21.33
383.521	138.07
383.731	88.92
383.941	25.43
384.151	-7.34
384.361	95.06
384.571	35.67
384.781	35.67
384.991	13.14
385.201	90.96
385.411	80.72
385.621	64.34
385.831	45.91
386.041	80.72
386.251	64.34
386.461	119.64
386.671	68.44
386.881	84.82
387.091	76.63
387.301	82.77
387.511	13.14
387.72	131.92
387.93	17.24
388.14	80.72
388.35	37.72
388.56	35.67
388.769	58.2
388.979	-13.48
389.189	-17.58
389.399	-3.24
389.609	27.48
389.818	80.72
390.028	35.67
390.238	45.91
390.447	41.81
390.657	27.48
390.867	29.52
391.076	-11.43
391.286	17.24
391.496	80.72
391.705	74.58
391.915	52.05
392.125	37.72
392.334	25.43
392.544	27.48
392.753	37.72
392.963	74.58
393.172	62.29
393.382	43.86
393.591	109.4
393.801	-7.34
394.01	74.58
394.22	90.96
394.429	78.68
394.639	39.76
394.848	107.35
395.058	-3.24
395.267	56.15
395.477	25.43
395.686	56.15
395.895	90.96
396.105	125.78
396.314	27.48
396.524	107.35
396.733	58.2
396.942	103.25
397.152	107.35
397.361	27.48
397.57	43.86
397.78	39.76
397.989	84.82
398.198	47.96
398.407	127.83
398.617	115.54
398.826	60.24
399.035	70.48
399.244	107.35
399.453	121.68
399.663	-1.19
399.872	133.97
400.081	64.34
400.29	64.34
400.499	107.35
400.708	160.59
400.917	68.44
401.127	82.77
401.336	99.16
401.545	125.78
401.754	103.25
401.963	74.58
402.172	93.01
402.381	90.96
402.59	60.24
402.799	66.39
403.008	33.62
403.217	50
403.426	111.44
403.635	115.54
403.844	82.77
404.053	78.68
404.262	142.16
404.471	97.11
404.68	109.4
404.888	131.92
405.097	86.87
405.306	109.4
405.515	60.24
405.724	64.34
405.933	144.21
406.142	144.21
406.35	179.03
406.559	121.68
406.768	150.36
406.977	121.68
407.185	123.73
407.394	156.5
407.603	90.96
407.812	207.7
408.02	142.16
408.229	176.98
408.438	172.88
408.646	90.96
408.855	117.59
409.064	172.88
409.272	105.3
409.481	217.94
409.69	222.03
409.898	176.98
410.107	195.41
410.315	158.55
410.524	209.75
410.733	162.64
410.941	211.79
411.15	295.76
411.358	199.51
411.567	252.75
411.775	293.71
411.984	172.88
412.192	385.87
412.401	324.43
412.609	381.78
412.818	400.21
413.026	256.85
413.234	310.1
413.443	344.91
413.651	340.82
413.86	371.54
414.068	469.84
414.276	318.29
414.485	418.64
414.693	420.69
414.901	396.11
415.11	498.51
415.318	459.6
415.526	541.52
415.734	467.79
415.943	533.33
416.151	539.47
416.359	547.66
416.567	658.25
416.776	582.48
416.984	557.9
417.192	588.62
417.4	721.74
417.608	674.64
417.817	617.29
418.025	729.93
418.233	754.51
418.441	832.33
418.649	742.22
418.857	783.18
419.065	815.94
419.273	828.23
419.481	877.38
419.689	949.06
419.897	983.88
420.105	959.3
420.313	975.69
420.521	1016.65
420.729	969.54
420.937	1090.37
421.145	1069.89
421.353	1198.92
421.561	1272.64
421.769	1301.31
421.977	1336.13
422.185	1301.31
422.393	1354.56
422.601	1532.73
422.809	1401.66
423.017	1387.33
423.224	1497.92
423.432	1577.79
423.64	1573.69
423.848	1745.72
424.056	1755.96
424.263	1891.13
424.471	1721.15
424.679	1899.32
424.887	1905.46
425.094	1997.62
425.302	2036.53
425.51	2167.6
425.718	2108.21
425.925	2067.25
426.133	2274.1
426.341	2323.25
426.548	2491.18
426.756	2458.42
426.964	2491.18
427.171	2566.96
427.379	2743.08
427.586	2775.85
427.794	2829.1
428.001	2851.63
428.209	3105.57
428.417	2935.59
428.624	3351.33
428.832	3267.36
429.039	3281.7
429.247	3261.22
429.454	3599.13
429.662	3785.5
429.869	3570.46
430.076	3873.56
430.284	3748.64
430.491	3771.16
430.699	4096.79
430.906	4033.3
431.114	4240.15
431.321	4199.19
431.528	4281.11
431.736	4582.16
431.943	4780.81
432.15	4641.55
432.358	4936.46
432.565	5040.9
432.772	5069.58
432.979	5171.97
433.187	5354.24
433.394	5223.17
433.601	5788.41
433.808	5829.37
434.016	5651.2
434.223	6046.46
434.43	6304.5
434.637	6161.14
434.844	6707.95
435.052	6701.81
435.259	6621.94
435.466	6568.69
435.673	6578.93
435.88	7070.44
436.087	7453.41
436.294	7389.92
436.501	7207.66
436.708	7381.73
436.915	7768.8
437.122	8002.27
437.329	8006.36
437.537	8346.33
437.743	8350.42
437.95	8092.38
438.157	8696.53
438.364	8966.86
438.571	8993.48
438.778	9040.59
438.985	9816.77
439.192	9528
439.399	9814.72
439.606	9550.53
439.813	9945.79
440.02	10646.19
440.227	10558.13
440.433	10363.58
440.64	10850.99
440.847	10877.62
441.054	10990.25
441.261	11702.95
441.467	11623.08
441.674	11932.32
441.881	12083.87
442.088	12245.66
442.294	11989.66
442.501	12442.26
442.708	12743.31
442.914	12978.83
443.121	13640.33
443.328	13372.04
443.534	14103.17
443.741	13888.13
443.948	13759.11
444.154	14654.07
444.361	14566.01
444.568	14725.75
444.774	14744.18
444.981	15022.7
445.187	14942.83
445.394	15970.91
445.6	15714.92
445.807	17101.39
446.013	16331.36
446.22	16767.57
446.426	17584.71
446.633	17517.13
446.839	18043.46
447.046	17324.62
447.252	18250.3
447.459	18371.13
447.665	18377.28
447.871	19096.11
448.078	19993.12
448.284	18936.37
448.491	19806.76
448.697	20087.33
448.903	20689.43
449.11	20605.47
449.316	20335.14
449.522	20697.63
449.728	21217.81
449.935	21312.02
450.141	21312.02
450.347	21852.68
450.553	20978.2
450.76	21367.31
450.966	22045.19
451.172	21852.68
451.378	22671.87
451.584	22008.33
451.791	22604.28
451.997	22616.57
452.203	22639.1
452.409	23161.33
452.615	22997.49
452.821	21725.71
453.027	21781
453.233	22929.91
453.44	21754.38
453.646	22129.16
453.852	22024.71
454.058	22573.56
454.264	21910.02
454.47	22272.51
454.676	21670.41
454.882	22589.95
455.088	20804.12
455.294	20726.3
455.5	21060.12
455.705	21547.53
455.911	20621.85
456.117	20265.5
456.323	19925.54
456.529	18977.33
456.735	19708.46
456.941	19151.41
457.147	19024.44
457.352	18264.64
457.558	17977.92
457.764	17916.48
457.97	17762.89
458.176	17445.45
458.381	17424.97
458.587	16542.3
458.793	16441.95
458.999	15665.77
459.204	16970.32
459.41	16355.93
459.616	15344.24
459.821	15067.76
460.027	15329.9
460.233	15075.95
460.438	14121.6
460.644	14330.49
460.85	13605.51
461.055	13515.4
461.261	13494.92
461.466	12462.74
461.672	12102.3
461.878	12780.18
462.083	12219.03
462.289	12126.88
462.494	11719.33
462.7	11274.92
462.905	10873.52
463.111	11287.21
463.316	11354.79
463.522	11184.81
463.727	11438.76
463.932	11258.54
464.138	11055.79
464.343	11174.57
464.549	10842.8
464.754	11137.71
464.959	11195.05
465.165	10869.42
465.37	10410.68
465.575	10310.33
465.781	10750.64
465.986	10615.48
466.191	10549.94
466.397	10302.14
466.602	9636.55
466.807	9888.45
467.012	10273.46
467.218	9902.78
467.423	9996.99
467.628	9831.1
467.833	10218.17
468.038	10017.47
468.244	9593.54
468.449	9904.83
468.654	9644.74
468.859	9767.62
469.064	9798.34
469.269	9145.03
469.474	9421.51
469.679	9497.28
469.885	9325.26
470.09	9470.66
470.295	9177.8
470.5	8977.1
470.705	9200.33
470.91	8940.24
471.115	8891.09
471.32	9024.2
471.525	8948.43
471.73	8594.13
471.935	8415.96
472.139	8444.63
472.344	8557.27
472.549	8399.57
472.754	8532.69
472.959	7969.5
473.164	8028.89
473.369	7856.86
473.574	8159.96
473.778	8037.08
473.983	7922.4
474.188	8069.85
474.393	7570.15
474.598	7658.21
474.802	7586.53
475.007	7539.43
475.212	7582.43
475.417	7416.55
475.621	7308.01
475.826	7191.27
476.031	7166.7
476.235	7023.34
476.44	6955.76
476.645	6882.03
476.849	6996.71
477.054	6951.66
477.259	6935.28
477.463	6753.01
477.668	6650.61
477.872	6660.85
478.077	6689.52
478.282	6619.89
478.486	6349.56
478.691	6437.62
478.895	6454
479.1	6382.32
479.304	6349.56
479.509	6206.2
479.713	6363.89
479.918	6136.57
480.122	6216.44
480.326	6130.42
480.531	6181.62
480.735	6025.98
480.94	6030.07
481.144	6347.51
481.348	5946.11
481.553	5950.2
481.757	5870.33
481.961	5997.31
482.166	6111.99
482.37	6079.22
482.574	5874.43
482.778	5978.87
482.983	6157.05
483.187	6085.37
483.391	5925.63
483.595	5849.85
483.8	5942.01
484.004	6015.74
484.208	5923.58
484.412	5856
484.616	5853.95
484.821	5956.35
485.025	5772.03
485.229	5948.15
485.433	5899
485.637	5858.04
485.841	5856
486.045	5794.56
486.249	5688.06
486.453	5987.07
486.657	5907.2
486.861	5884.67
487.065	5712.64
487.269	5974.78
487.473	5917.44
487.677	6097.66
487.881	6009.59
488.085	6007.55
488.289	5946.11
488.493	6023.93
488.697	5939.96
488.901	5939.96
489.105	6017.79
489.309	5882.62
489.512	6068.98
489.716	6030.07
489.92	6175.48
490.124	6152.95
490.328	6181.62
490.531	6161.14
490.735	6142.71
490.939	6204.15
491.143	6130.42
491.346	6042.36
491.55	6193.91
491.754	6443.76
491.958	6300.41
492.161	6241.01
492.365	6259.45
492.569	6243.06
492.772	6347.51
492.976	6331.12
493.18	6531.83
493.383	6566.64
493.587	6515.44
493.79	6566.64
493.994	6628.08
494.197	6757.1
494.401	6632.18
494.605	6755.05
494.808	6750.96
495.012	6849.26
495.215	6757.1
495.419	6906.6
495.622	7019.24
495.825	7045.87
496.029	7135.98
496.232	7379.68
496.436	7191.27
496.639	7305.96
496.843	7447.27
497.046	7398.12
497.249	7742.18
497.453	7654.11
497.656	7736.03
497.859	7693.02
498.063	7989.98
498.266	7959.26
498.469	7854.81
498.673	7963.36
498.876	8245.98
499.079	8305.37
499.282	8592.08
499.485	8651.47
499.689	8606.42
499.892	8596.18
500.095	8729.3
500.298	9089.74
500.501	8932.05
500.705	9185.99
500.908	9351.88
501.111	9460.42
501.314	9697.99
501.517	9755.33
501.72	9777.86
501.923	9767.62
502.126	10109.63
502.329	9925.31
502.532	10142.39
502.735	10224.31
502.938	10429.11
503.141	10425.01
503.344	10844.85
503.547	10873.52
503.75	11059.88
503.953	11025.07
504.156	11053.74
504.359	11379.37
504.562	11444.9
504.765	11655.84
504.968	11545.25
505.17	11872.93
505.373	12135.07
505.576	12122.78
505.779	12550.81
505.982	12608.15
506.185	13021.84
506.387	12778.13
506.59	12819.09
506.793	13306.51
506.996	13148.81
507.198	13513.35
507.401	13615.75
507.604	13935.23
507.807	14217.85
508.009	14174.85
508.212	14242.43
508.415	14623.35
508.617	15000.18
508.82	15014.51
509.022	14977.65
509.225	15417.96
509.428	15274.6
509.63	15403.63
509.833	15518.31
510.035	16063.07
510.238	16069.22
510.44	16300.64
510.643	16624.22
510.845	16783.96
511.048	16661.08
511.25	17046.1
511.453	17259.09
511.655	17904.2
511.858	17621.58
512.06	17844.81
512.262	18311.74
512.465	18254.4
512.667	18530.87
512.87	18799.16
513.072	18836.02
513.274	19233.33
513.477	19644.97
513.679	19663.4
513.881	19868.2
514.084	20216.35
514.286	20204.07
514.488	20687.39
514.69	21221.91
514.893	20986.39
515.095	20916.76
515.297	21705.23
515.499	21410.32
515.701	22129.16
515.904	22264.32
516.106	22309.38
516.308	22589.95
516.51	22880.76
516.712	22870.52
516.914	23364.08
517.116	23751.15
517.318	23992.81
517.52	24191.46
517.722	24201.7
517.925	24607.2
518.127	25037.27
518.329	25108.95
518.531	25270.74
518.733	25938.38
518.935	25942.47
519.136	26075.59
519.338	26534.34
519.54	26829.24
519.742	26874.3
519.944	27126.2
520.146	27529.65
520.348	27853.23
520.55	27791.79
520.752	28228.01
520.954	28361.12
521.155	28522.91
521.357	29163.93
521.559	28969.37
521.761	29491.6
521.963	29653.39
522.164	29657.49
522.366	29993.36
522.568	30546.31
522.77	30605.7
522.971	30880.13
523.173	30878.08
523.375	30794.11
523.576	31136.12
523.778	31570.29
523.98	32045.42
524.181	31641.97
524.383	31777.14
524.584	32508.26
524.786	32495.97
524.988	32692.58
525.189	32956.77
525.391	33038.69
525.592	33433.94
525.794	33591.64
525.995	33655.12
526.197	33378.65
526.398	33667.41
526.6	33927.5
526.801	34363.72
527.003	34349.39
527.204	34210.12
527.406	34879.81
527.607	34675.01
527.808	35062.08
528.01	34322.76
528.211	35164.48
528.412	35756.34
528.614	35377.47
528.815	35703.09
529.016	35963.18
529.218	35531.06
529.419	35842.35
529.62	35842.35
529.822	35852.59
530.023	35834.16
530.224	36014.38
530.425	35907.89
530.626	35846.45
530.828	36118.83
531.029	36557.1
531.23	36317.48
531.431	36477.22
531.632	36063.54
531.833	36778.28
532.035	36239.66
532.236	36397.35
532.437	36802.85
532.638	36757.8
532.839	36731.17
533.04	36954.4
533.241	36616.49
533.442	37302.56
533.643	37191.97
533.844	36878.63
534.045	36833.57
534.246	36899.11
534.447	37464.35
534.648	37017.89
534.849	37060.9
535.05	36747.56
535.251	37212.45
535.451	37318.94
535.652	37599.51
535.853	37132.57
536.054	37652.76
536.255	37398.81
536.456	37568.79
536.657	37495.07
536.857	37093.66
537.058	36864.29
537.259	37869.84
537.46	37542.17
537.66	37105.95
537.861	37366.04
538.062	37337.37
538.263	37343.52
538.463	37351.71
538.664	36892.96
538.865	37581.08
539.065	37728.53
539.266	37245.21
539.466	37599.51
539.667	36921.63
539.868	37540.12
540.068	37146.91
540.269	37392.67
540.469	37738.77
540.67	37036.32
540.87	37568.79
541.071	37345.56
541.271	37394.71
541.472	37204.25
541.672	37531.93
541.873	37105.95
542.073	36944.16
542.274	37720.34
542.474	37249.31
542.675	37546.26
542.875	37673.24
543.075	37415.19
543.276	36698.41
543.476	37583.13
543.676	37024.03
543.877	37001.5
544.077	37718.29
544.277	36954.4
544.478	37140.77
544.678	37243.17
544.878	37552.41
545.078	37290.27
545.279	37300.51
545.479	37349.66
545.679	37562.65
545.879	37501.21
546.079	37323.04
546.28	37359.9
546.48	36909.35
546.68	37609.75
546.88	37511.45
547.08	37609.75
547.28	37052.7
547.48	36985.12
547.68	37450.01
547.88	36933.92
548.081	37585.18
548.281	37347.61
548.481	37323.04
548.681	37613.85
548.881	37452.06
549.081	37560.6
549.28	37194.01
549.48	37542.17
549.68	37323.04
549.88	37916.95
550.08	37638.42
550.28	37282.08
550.48	37472.54
550.68	37673.24
550.88	37019.94
551.08	37411.1
551.279	37427.48
551.479	36948.26
551.679	37257.5
551.879	37056.8
552.079	37077.28
552.278	36827.43
552.478	37265.69
552.678	37142.81
552.878	37419.29
553.077	37222.69
553.277	36800.8
553.477	37550.36
553.676	36778.28
553.876	37339.42
554.076	36858.15
554.275	36651.3
554.475	36538.66
554.674	37173.53
554.874	36911.39
555.074	36768.04
555.273	36811.04
555.473	36829.48
555.672	36710.69
555.872	36593.96
556.071	36688.17
556.271	37347.61
556.47	36512.04
556.67	36436.27
556.869	36555.05
557.068	36497.7
557.268	36432.17
557.467	36407.59
557.667	36651.3
557.866	36456.75
558.065	36516.14
558.265	36167.98
558.464	35950.9
558.663	36585.77
558.863	35856.69
559.062	36591.91
559.261	36043.06
559.461	36380.97
559.66	35580.21
559.859	36006.19
560.058	35574.07
560.258	35787.06
560.457	35672.37
560.656	35840.31
560.855	35928.37
561.054	35475.77
561.253	35557.69
561.453	35641.65
561.652	35705.14
561.851	35868.98
562.05	35391.8
562.249	35021.12
562.448	35492.15
562.647	35457.34
562.846	35260.73
563.045	35371.32
563.244	34849.09
563.443	35467.58
563.642	34795.84
563.841	34877.76
564.04	34947.39
564.239	35502.39
564.438	34709.83
564.637	35107.13
564.836	35105.09
565.035	34543.94
565.234	34695.49
565.432	34660.68
565.631	34281.8
565.83	34775.36
566.029	34240.84
566.228	34171.21
566.427	34365.77
566.625	34031.95
566.824	33653.08
567.023	34244.94
567.222	33853.78
567.42	34318.67
567.619	33800.53
567.818	33845.58
568.016	33841.49
568.215	34060.62
568.414	33472.85
568.612	33663.32
568.811	33839.44
569.01	33143.13
569.208	32903.52
569.407	33603.92
569.605	33040.73
569.804	33513.81
570.002	33175.9
570.201	33362.26
570.4	32588.13
570.598	32842.08
570.797	32883.04
570.995	32375.14
571.193	32680.29
571.392	32954.72
571.59	32647.52
571.789	32571.75
571.987	32012.65
572.186	31996.27
572.384	31904.11
572.582	32407.91
572.781	32004.46
572.979	31697.27
573.177	31633.78
573.376	31867.25
573.574	31529.33
573.772	31625.59
573.971	31410.55
574.169	31361.4
574.367	30955.9
574.565	31469.94
574.763	30916.99
574.962	30984.57
575.16	30865.79
575.358	31105.4
575.556	30400.9
575.754	30986.62
575.952	30396.81
576.151	30814.59
576.349	30392.71
576.547	30456.2
576.745	30110.09
576.943	30337.41
577.141	30116.23
577.339	29999.5
577.537	30013.84
577.735	29696.4
577.933	29610.39
578.131	30054.79
578.329	29868.43
578.527	29616.53
578.725	29514.13
578.923	29434.26
579.121	29516.18
579.319	28977.56
579.516	29335.96
579.714	29092.25
579.912	29137.3
580.11	28836.25
580.308	29082.01
580.506	28797.34
580.704	28352.93
580.901	28727.71
581.099	28676.51
581.297	28238.25
581.495	28101.03
581.692	28527.01
581.89	27914.67
582.088	28441
582.285	27847.08
582.483	28287.4
582.681	27892.14
582.878	28012.97
583.076	27646.38
583.274	27754.93
583.471	27388.34
583.669	27691.44
583.866	27009.47
584.064	27515.31
584.262	26872.25
584.459	27386.29
584.657	26919.35
584.854	27222.45
585.052	26804.67
585.249	26888.64
585.447	26661.31
585.644	26339.78
585.841	26735.04
586.039	26843.58
586.236	26380.74
586.434	26450.37
586.631	26323.4
586.828	26538.43
587.026	26249.67
587.223	25872.84
587.42	26042.82
587.618	26048.97
587.815	25672.14
588.012	25657.81
588.21	25827.79
588.407	25422.29
588.604	25657.81
588.801	25422.29
588.999	25313.75
589.196	25383.38
589.393	25160.15
589.59	25213.4
589.787	24932.82
589.984	25002.46
590.182	24652.25
590.379	25434.58
590.576	24529.38
590.773	25029.08
590.97	24560.09
591.167	24764.89
591.364	24504.8
591.561	24603.1
591.758	23982.57
591.955	24535.52
592.152	24437.22
592.349	23982.57
592.546	24406.5
592.743	24146.4
592.94	24125.93
593.137	23720.43
593.334	24007.14
593.531	23671.28
593.727	23814.63
593.924	23646.7
594.121	23628.27
594.318	23740.91
594.515	23228.91
594.712	23790.06
594.908	23460.34
595.105	23370.22
595.302	22813.18
595.499	23353.84
595.696	23087.61
595.892	23097.84
596.089	22948.34
596.286	22974.97
596.482	22471.17
596.679	22905.34
596.876	22925.82
597.072	22686.2
597.269	22618.62
597.466	22336
597.662	22426.11
597.859	22389.25
598.055	22704.63
598.252	22198.79
598.448	22262.27
598.645	22260.23
598.841	22049.28
599.038	22094.34
599.234	22086.15
599.431	21797.38
599.627	21625.36
599.824	22032.9
600.02	21656.07
600.217	21584.4
600.413	21748.23
600.609	21342.74
600.806	21269.01
601.002	21490.19
601.198	21174.8
601.395	21033.49
601.591	21215.76
601.787	21164.56
601.984	21002.77
602.18	20986.39
602.376	20781.59
602.572	20892.18
602.769	20912.66
602.965	20515.36
603.161	20668.95
603.357	20527.64
603.553	20607.51
603.75	20734.49
603.946	20267.55
604.142	20380.19
604.338	20300.32
604.534	20435.49
604.73	19819.05
604.926	19923.49
605.122	20142.63
605.318	19823.14
605.514	19819.05
605.71	19509.8
605.906	19614.25
606.102	19440.17
606.298	19708.46
606.494	19253.81
606.69	19319.34
606.886	19436.08
607.082	19118.64
607.278	19348.01
607.474	19040.82
607.67	19370.54
607.866	18948.66
608.062	19175.98
608.257	18973.24
608.453	18766.39
608.649	18848.31
608.845	18575.93
609.041	18692.66
609.236	18903.6
609.432	18651.7
609.628	18371.13
609.824	18289.21
610.019	18117.18
610.215	18375.23
610.411	18518.59
610.606	18252.35
610.802	18164.29
610.998	18348.61
611.193	18090.56
611.389	17932.87
611.584	18129.47
611.78	17783.37
611.976	18068.03
612.171	17943.11
612.367	17793.61
612.562	17418.83
612.758	17568.33
612.953	17558.09
613.149	17687.11
613.344	17177.17
613.539	17756.74
613.735	17642.06
613.93	17553.99
614.126	17173.07
614.321	17291.85
614.517	17322.57
614.712	17400.4
614.907	16945.75
615.103	17035.86
615.298	17031.76
615.493	17246.8
615.688	16810.58
615.884	17338.96
616.079	16702.04
616.274	17123.92
616.47	17007.19
616.665	16900.69
616.86	16591.45
617.055	16491.1
617.25	16364.12
617.445	16593.5
617.641	16183.9
617.836	16548.44
618.031	16130.66
618.226	16480.86
618.421	16224.86
618.616	16233.05
618.811	16292.44
619.006	16251.49
619.201	15739.49
619.396	15907.43
619.591	15598.18
619.786	15956.58
619.981	15575.66
620.176	15776.36
620.371	15303.28
620.566	15565.42
620.761	15444.59
620.956	15385.19
621.151	15131.25
621.346	15151.73
621.541	15030.9
621.735	15157.87
621.93	14961.27
622.125	14930.55
622.32	14641.78
622.515	14674.55
622.709	14566.01
622.904	14645.88
623.099	14629.49
623.294	14443.13
623.488	14342.78
623.683	14254.72
623.878	14029.44
624.072	14080.64
624.267	14187.13
624.462	14133.89
624.656	13875.84
624.851	14031.49
625.046	13771.4
625.24	13566.6
625.435	13638.28
625.629	13529.73
625.824	13486.73
626.018	13537.93
626.213	13097.61
626.407	13286.03
626.602	13124.24
626.796	13179.53
626.991	13050.51
627.185	13034.13
627.38	12993.17
627.574	12847.76
627.768	12692.12
627.963	12798.61
628.157	12667.54
628.352	12595.86
628.546	12513.94
628.74	12571.29
628.935	12219.03
629.129	12104.35
629.323	12169.88
629.517	11965.09
629.712	12110.49
629.906	12128.92
630.1	12112.54
630.294	11838.11
630.489	11766.43
630.683	11958.94
630.877	11602.6
631.071	11596.45
631.265	11739.81
631.459	11502.25
631.653	11780.77
631.848	11473.57
632.042	11461.29
632.236	11256.49
632.43	11383.46
632.624	11397.8
632.818	11367.08
633.012	11111.08
633.206	11078.32
633.4	11080.36
633.594	10973.87
633.788	10945.2
633.982	10664.63
634.176	10789.55
634.369	10685.11
634.563	10836.66
634.757	10750.64
634.951	10664.63
635.145	10498.74
635.339	10511.03
635.533	10316.47
635.726	10558.13
635.92	10314.42
636.114	10382.01
636.308	10113.72
636.501	10295.99
636.695	10218.17
636.889	9962.17
637.083	10003.13
637.276	9990.84
637.47	9818.82
637.664	9775.81
637.857	9986.75
638.051	9767.62
638.244	9781.95
638.438	9859.77
638.632	9579.2
638.825	9487.04
639.019	9308.87
639.212	9542.34
639.406	9507.52
639.599	9333.45
639.793	9480.9
639.986	9247.43
640.18	9218.76
640.373	9214.66
640.567	8946.38
640.76	9142.99
640.954	9007.82
641.147	8829.65
641.34	8934.09
641.534	8923.85
641.727	8645.33
641.92	8778.45
642.114	8727.25
642.307	8659.67
642.5	8553.17
642.694	8268.5
642.887	8389.33
643.08	8305.37
643.273	8590.03
643.467	8434.39
643.66	8192.73
643.853	8274.65
644.046	7961.31
644.239	8178.39
644.432	8069.85
644.626	7975.64
644.819	8047.32
645.012	8000.22
645.205	7828.19
645.398	7875.29
645.591	7789.28
645.784	7832.29
645.977	7680.74
646.17	7654.11
646.363	7508.71
646.556	7721.7
646.749	7545.57
646.942	7619.3
647.135	7449.32
647.328	7400.16
647.521	7260.9
647.714	7140.07
647.907	7193.32
648.099	7418.6
648.292	7211.75
648.485	7129.83
648.678	7006.95
648.871	6963.95
649.064	7041.77
649.256	7056.11
649.449	6877.93
649.642	6816.49
649.835	6701.81
650.027	6767.34
650.22	6728.43
650.413	6681.33
650.605	6892.27
650.798	6642.42
650.991	6456.05
651.183	6556.4
651.376	6394.61
651.568	6372.08
651.761	6337.27
651.954	6324.98
652.146	6277.88
652.339	6241.01
652.531	6200.05
652.724	6206.2
652.916	6079.22
653.109	6169.34
653.301	6050.55
653.494	6142.71
653.686	5927.67
653.879	6146.81
654.071	5845.76
654.263	5800.7
654.456	5886.72
654.648	5944.06
654.84	5819.13
655.033	5812.99
655.225	5735.17
655.417	5704.45
655.61	5575.42
655.802	5643.01
655.994	5450.5
656.186	5487.36
656.379	5473.03
656.571	5387.01
656.763	5423.87
656.955	5407.49
657.148	5301
657.34	5249.8
657.532	5210.89
657.724	5167.88
657.916	5245.7
658.108	4991.75
658.3	5079.82
658.492	4952.84
658.684	5069.58
658.876	5061.38
659.068	4838.16
659.26	5008.14
659.452	4727.57
659.644	4836.11
659.836	4860.68
660.028	4746
660.22	4768.52
660.412	4653.84
660.604	4612.88
660.796	4629.26
660.988	4694.8
661.18	4459.28
661.372	4612.88
661.563	4674.32
661.755	4594.45
661.947	4459.28
662.139	4547.34
662.331	4393.75
662.522	4346.64
662.714	4449.04
662.906	4301.59
663.097	4373.27
663.289	4293.4
663.481	4023.06
663.673	4307.73
663.864	4059.93
664.056	4115.22
664.247	4090.65
664.439	4041.5
664.631	4047.64
664.822	3984.15
665.014	3939.1
665.205	3961.62
665.397	3984.15
665.588	4004.63
665.78	3924.76
665.971	3879.71
666.163	3857.18
666.354	3865.37
666.546	3801.88
666.737	3752.73
666.929	3760.92
667.12	3572.51
667.311	3767.07
667.503	3638.05
667.694	3652.38
667.885	3490.59
668.077	3552.03
668.268	3586.85
668.459	3595.04
668.651	3605.28
668.842	3691.29
669.033	3592.99
669.224	3416.87
669.416	3494.69
669.607	3484.45
669.798	3492.64
669.989	3359.52
670.18	3441.44
670.371	3351.33
670.563	3289.89
670.754	3408.67
670.945	3277.6
671.136	3341.09
671.327	3281.7
671.518	3322.66
671.709	3242.79
671.9	3318.56
672.091	3269.41
672.282	3277.6
672.473	3097.38
672.664	3205.92
672.855	3302.18
673.046	3128.1
673.237	3191.59
673.428	3101.48
673.619	3085.09
673.809	3167.01
674	3185.44
674.191	3021.61
674.382	3001.13
674.573	3087.14
674.764	2992.94
674.954	2947.88
675.145	2898.73
675.336	2890.54
675.527	2954.02
675.717	3037.99
675.908	3099.43
676.099	2896.68
676.289	2921.26
676.48	2847.53
676.671	2900.78
676.861	2882.35
677.052	2900.78
677.243	2810.67
677.433	2829.1
677.624	2947.88
677.814	2988.84
678.005	2865.96
678.195	2784.04
678.386	2779.95
678.576	2687.79
678.767	2820.91
678.957	2657.07
679.148	2757.42
679.338	2763.56
679.529	2700.08
679.719	2732.84
679.909	2689.84
680.1	2781.99
680.29	2720.56
680.481	2687.79
680.671	2722.6
680.861	2695.98
681.052	2607.92
681.242	2726.7
681.432	2695.98
681.622	2648.88
681.813	2663.21
682.003	2683.69
682.193	2573.1
682.383	2569.01
682.573	2706.22
682.764	2616.11
682.954	2745.13
683.144	2757.42
683.334	2612.01
683.524	2581.29
683.714	2693.93
683.904	2720.56
684.094	2704.17
684.284	2544.43
684.474	2626.35
684.664	2566.96
684.854	2642.73
685.044	2605.87
685.234	2550.57
685.424	2548.53
685.614	2532.14
685.804	2605.87
685.994	2532.14
686.184	2659.12
686.374	2542.38
686.564	2530.09
686.753	2534.19
686.943	2534.19
687.133	2583.34
687.323	2581.29
687.513	2577.2
687.702	2495.28
687.892	2511.66
688.082	2544.43
688.272	2634.54
688.461	2493.23
688.651	2513.71
688.841	2503.47
689.03	2425.65
689.22	2526
689.41	2519.85
689.599	2458.42
689.789	2554.67
689.979	2462.51
690.168	2597.68
690.358	2509.62
690.547	2583.34
690.737	2554.67
690.926	2575.15
691.116	2472.75
691.305	2523.95
691.495	2540.33
691.684	2454.32
691.874	2462.51
692.063	2446.13
692.252	2452.27
692.442	2464.56
692.631	2491.18
692.82	2425.65
693.01	2419.5
693.199	2433.84
693.388	2403.12
693.578	2435.89
693.767	2534.19
693.956	2554.67
694.146	2470.7
694.335	2530.09
694.524	2491.18
694.713	2622.25
694.902	2437.94
695.092	2544.43
695.281	2550.57
695.47	2499.38
695.659	2478.9
695.848	2493.23
696.037	2378.55
696.226	2476.85
696.415	2515.76
696.604	2530.09
696.793	2394.93
696.982	2380.59
697.171	2466.61
697.36	2554.67
697.549	2485.04
697.738	2431.79
697.927	2366.26
698.116	2433.84
698.305	2544.43
698.494	2458.42
698.683	2380.59
698.872	2472.75
699.061	2407.22
699.25	2552.62
699.438	2583.34
699.627	2444.08
699.816	2376.5
700.005	2597.68
700.193	2368.31
700.382	2423.6
700.571	2386.74
700.76	2415.41
700.948	2468.66
701.137	2419.5
701.326	2433.84
701.514	2493.23
701.703	2482.99
701.892	2345.78
702.08	2450.22
702.269	2384.69
702.457	2337.59
702.646	2482.99
702.834	2313.01
703.023	2222.9
703.212	2384.69
703.4	2323.25
703.589	2427.7
703.777	2300.72
703.965	2315.06
704.154	2319.15
704.342	2280.24
704.531	2204.47
704.719	2261.81
704.907	2290.48
705.096	2177.84
705.284	2245.43
705.472	2298.67
705.661	2247.48
705.849	2224.95
706.037	2155.32
706.226	2315.06
706.414	2208.56
706.602	2196.28
706.79	2300.72
706.979	2251.57
707.167	2220.85
707.355	2198.32
707.543	2212.66
707.731	2089.78
707.919	2325.3
708.107	2157.36
708.296	2163.51
708.484	2157.36
708.672	2183.99
708.86	2104.12
709.048	2067.25
709.236	2097.97
709.424	2134.84
709.612	2079.54
709.8	2102.07
709.988	2011.96
710.176	2077.49
710.364	2014.01
710.551	2085.69
710.739	2059.06
710.927	2122.55
711.115	2016.05
711.303	2024.25
711.491	1999.67
711.679	2040.63
711.866	1987.38
712.054	1909.56
712.242	1975.1
712.43	1981.24
712.617	1989.43
712.805	1833.79
712.993	1921.85
713.181	1971
713.368	1884.98
713.556	1821.5
713.744	1923.9
713.931	1950.52
714.119	1938.23
714.306	1985.34
714.494	1774.39
714.682	1876.79
714.869	1766.2
715.057	1731.39
715.244	1764.15
715.432	1823.55
715.619	1796.92
715.807	1864.5
715.994	1796.92
716.182	1737.53
716.369	1684.28
716.556	1891.13
716.744	1798.97
716.931	1844.03
717.119	1796.92
717.306	1807.16
717.493	1778.49
717.681	1792.83
717.868	1696.57
718.055	1682.24
718.242	1745.72
718.43	1647.42
718.617	1776.44
718.804	1719.1
718.991	1637.18
719.179	1616.7
719.366	1575.74
719.553	1559.36
719.74	1635.13
719.927	1655.61
720.114	1649.47
720.301	1667.9
720.488	1688.38
720.676	1610.56
720.863	1669.95
721.05	1639.23
721.237	1559.36
721.424	1471.29
721.611	1684.28
721.798	1592.13
721.985	1612.6
722.172	1508.16
722.358	1510.21
722.545	1524.54
722.732	1549.12
722.919	1450.82
723.106	1571.65
723.293	1389.38
723.48	1547.07
723.667	1493.82
723.853	1516.35
724.04	1506.11
724.227	1477.44
724.414	1424.19
724.6	1430.34
724.787	1418.05
724.974	1430.34
725.161	1420.1
725.347	1391.42
725.534	1411.9
725.72	1354.56
725.907	1332.03
726.094	1387.33
726.28	1379.14
726.467	1389.38
726.653	1409.86
726.84	1504.06
727.027	1372.99
727.213	1323.84
727.4	1342.27
727.586	1325.89
727.773	1303.36
727.959	1289.03
728.145	1315.65
728.332	1416
728.518	1354.56
728.705	1299.27
728.891	1307.46
729.077	1286.98
729.264	1289.03
729.45	1297.22
729.636	1246.02
729.823	1254.21
730.009	1313.6
730.195	1352.51
730.382	1286.98
730.568	1284.93
730.754	1280.83
730.94	1200.96
731.126	1221.44
731.313	1274.69
731.499	1262.4
731.685	1266.5
731.871	1174.34
732.057	1344.32
732.243	1184.58
732.429	1246.02
732.615	1162.05
732.801	1246.02
732.987	1303.36
733.173	1106.76
733.359	1172.29
733.545	1162.05
733.731	1168.2
733.917	1190.72
734.103	1114.95
734.289	1213.25
734.475	1131.33
734.661	1147.72
734.847	1248.07
735.033	1119.04
735.219	1104.71
735.404	1231.68
735.59	1073.99
735.776	1180.48
735.962	1192.77
736.148	1196.87
736.333	1139.52
736.519	1053.51
736.705	1215.3
736.89	1108.8
737.076	1121.09
737.262	1063.75
737.447	1028.93
737.633	1090.37
737.819	1024.84
738.004	1065.8
738.19	1055.56
738.375	1061.7
738.561	1022.79
738.747	1137.48
738.932	1012.55
739.118	1059.65
739.303	1000.26
739.489	1106.76
739.674	987.97
739.859	1030.98
740.045	969.54
740.23	994.12
740.416	985.93
740.601	985.93
740.786	871.24
740.972	987.97
741.157	947.01
741.342	969.54
741.528	967.49
741.713	965.45
741.898	985.93
742.084	971.59
742.269	928.58
742.454	1045.32
742.639	932.68
742.824	895.82
743.01	908.1
743.195	959.3
743.38	1012.55
743.565	910.15
743.75	865.1
743.935	944.97
744.12	967.49
744.305	910.15
744.49	908.1
744.675	908.1
744.86	856.9
745.045	871.24
745.23	832.33
745.415	904.01
745.6	883.53
745.785	854.86
745.97	834.38
746.155	762.7
746.34	959.3
746.525	828.23
746.71	865.1
746.895	891.72
747.079	813.9
747.264	869.19
747.449	797.51
747.634	893.77
747.819	885.58
748.003	758.6
748.188	807.75
748.373	774.99
748.557	783.18
748.742	752.46
748.927	748.36
749.111	756.55
749.296	840.52
749.481	817.99
749.665	754.51
749.85	762.7
750.034	721.74
750.219	742.22
750.404	725.83
750.588	762.7
750.773	774.99
750.957	758.6
751.141	756.55
751.326	654.16
751.51	707.4
751.695	664.4
751.879	719.69
752.064	725.83
752.248	719.69
752.432	666.44
752.617	645.96
752.801	639.82
752.985	637.77
753.17	596.81
753.354	709.45
753.538	639.82
753.722	631.63
753.907	684.87
754.091	617.29
754.275	568.14
754.459	695.11
754.643	641.87
754.828	682.83
755.012	625.48
755.196	633.68
755.38	598.86
755.564	678.73
755.748	629.58
755.932	658.25
756.116	615.24
756.3	574.28
756.484	623.44
756.668	590.67
756.852	566.09
757.036	539.47
757.22	641.87
757.404	549.71
757.588	562
757.772	633.68
757.956	547.66
758.14	631.63
758.323	529.23
758.507	627.53
758.691	494.41
758.875	539.47
759.059	533.33
759.242	553.8
759.426	539.47
759.61	529.23
759.794	496.46
759.977	514.89
760.161	533.33
760.345	566.09
760.528	566.09
760.712	568.14
760.895	488.27
761.079	478.03
761.263	369.49
761.446	482.13
761.63	586.57
761.813	564.04
761.997	543.57
762.18	527.18
762.364	504.65
762.547	455.5
762.731	490.32
762.914	463.69
763.098	518.99
763.281	459.6
763.464	455.5
763.648	426.83
763.831	478.03
764.015	404.3
764.198	461.65
764.381	432.97
764.564	461.65
764.748	488.27
764.931	480.08
765.114	518.99
765.297	518.99
765.481	502.61
765.664	420.69
765.847	484.17
766.03	426.83
766.213	457.55
766.397	494.41
766.58	488.27
766.763	500.56
766.946	488.27
767.129	449.36
767.312	396.11
767.495	437.07
767.678	461.65
767.861	463.69
768.044	420.69
768.227	426.83
768.41	475.98
768.593	435.02
768.776	371.54
768.959	478.03
769.142	365.39
769.324	404.3
769.507	435.02
769.69	394.06
769.873	402.26
770.056	353.1
770.239	418.64
770.421	469.84
770.604	420.69
770.787	439.12
770.97	385.87
771.152	351.06
771.335	396.11
771.518	418.64
771.7	420.69
771.883	414.54
772.066	375.63
772.248	381.78
772.431	365.39
772.613	369.49
772.796	342.86
772.978	346.96
773.161	330.58
773.343	363.34
773.526	437.07
773.708	404.3
773.891	338.77
774.073	426.83
774.256	338.77
774.438	355.15
774.621	322.38
774.803	418.64
774.985	312.14
775.168	377.68
775.35	412.5
775.532	353.1
775.715	318.29
775.897	355.15
776.079	336.72
776.261	359.25
776.444	387.92
776.626	361.3
776.808	361.3
776.99	338.77
777.173	273.23
777.355	287.57
777.537	310.1
777.719	404.3
777.901	432.97
778.083	338.77
778.265	357.2
778.447	361.3
778.629	361.3
778.811	299.86
778.993	312.14
779.175	379.73
779.357	318.29
779.539	381.78
779.721	299.86
779.903	289.62
780.085	326.48
780.267	283.47
780.449	332.62
780.631	252.75
780.812	316.24
780.994	299.86
781.176	336.72
781.358	310.1
781.54	312.14
781.721	244.56
781.903	275.28
782.085	299.86
782.267	332.62
782.448	265.04
782.63	228.18
782.812	232.27
782.993	224.08
783.175	262.99
783.357	318.29
783.538	262.99
783.72	359.25
783.901	316.24
784.083	254.8
784.264	215.89
784.446	238.42
784.627	250.71
784.809	269.14
784.99	248.66
785.172	275.28
785.353	242.51
785.535	185.17
785.716	226.13
785.897	189.27
786.079	256.85
786.26	197.46
786.441	191.31
786.623	248.66
786.804	262.99
786.985	252.75
787.167	224.08
787.348	279.38
787.529	262.99
787.71	209.75
787.891	242.51
788.073	209.75
788.254	217.94
788.435	291.66
788.616	234.32
788.797	209.75
788.978	232.27
789.159	226.13
789.34	240.47
789.522	226.13
789.703	273.23
789.884	189.27
790.065	230.23
790.246	224.08
790.427	232.27
790.607	213.84
790.788	193.36
790.969	131.92
791.15	228.18
791.331	269.14
791.512	232.27
791.693	199.51
791.874	156.5
792.054	219.99
792.235	273.23
792.416	291.66
792.597	150.36
792.778	191.31
792.958	232.27
793.139	197.46
793.32	183.12
793.5	246.61
793.681	224.08
793.862	234.32
794.042	93.01
794.223	181.07
794.404	144.21
794.584	160.59
794.765	158.55
794.945	162.64
795.126	166.74
795.306	187.22
795.487	164.69
795.667	121.68
795.848	166.74
796.028	207.7
796.209	131.92
796.389	199.51
796.57	164.69
796.75	170.83
796.93	172.88
797.111	125.78
797.291	152.4
797.471	160.59
797.652	142.16
797.832	156.5
798.012	179.03
798.192	115.54
798.373	146.26
798.553	140.12
798.733	193.36
798.913	105.3
799.093	115.54
799.274	97.11
799.454	185.17
799.634	142.16
799.814	93.01
799.994	156.5
800.174	181.07
800.354	109.4
800.534	181.07
800.714	193.36
800.894	162.64
801.074	129.88
801.254	105.3
801.434	158.55
801.614	113.49
801.794	133.97
801.974	367.44
802.154	179.03
802.334	156.5
802.514	84.82
802.693	107.35
802.873	140.12
803.053	142.16
803.233	68.44
803.413	176.98
803.592	133.97
803.772	129.88
803.952	136.02
804.131	111.44
804.311	99.16
804.491	78.68
804.67	125.78
804.85	111.44
805.03	72.53
805.209	107.35
805.389	166.74
805.568	107.35
805.748	133.97
805.928	103.25
806.107	103.25
806.287	154.45
806.466	84.82
806.646	58.2
806.825	41.81
807.004	148.31
807.184	60.24
807.363	66.39
807.543	138.07
807.722	146.26
807.901	93.01
808.081	138.07
808.26	78.68
808.439	105.3
808.619	99.16
808.798	113.49
808.977	76.63
809.156	123.73
809.336	148.31
809.515	164.69
809.694	95.06
809.873	90.96
810.052	90.96
810.231	25.43
810.411	117.59
810.59	111.44
810.769	78.68
810.948	113.49
811.127	90.96
811.306	123.73
811.485	47.96
811.664	181.07
811.843	84.82
812.022	99.16
812.201	162.64
812.38	109.4
812.559	68.44
812.737	68.44
812.916	39.76
813.095	62.29
813.274	64.34
813.453	133.97
813.632	187.22
813.811	45.91
813.989	119.64
814.168	95.06
814.347	58.2
814.526	109.4
814.704	107.35
814.883	64.34
815.062	74.58
815.24	138.07
815.419	80.72
815.598	140.12
815.776	140.12
815.955	23.38
816.133	45.91
816.312	35.67
816.49	127.83
816.669	58.2
816.847	66.39
817.026	76.63
817.204	82.77
817.383	15.19
817.561	43.86
817.74	129.88
817.918	148.31
818.097	86.87
818.275	43.86
818.453	74.58
818.632	45.91
818.81	93.01
818.988	58.2
819.167	84.82
819.345	164.69
819.523	50
819.701	82.77
819.879	39.76
820.058	56.15
820.236	76.63
820.414	45.91
820.592	72.53
820.77	52.05
820.948	39.76
821.127	-23.72
821.305	99.16
821.483	33.62
821.661	58.2
821.839	62.29
822.017	47.96
822.195	35.67
822.373	78.68
822.551	17.24
822.729	23.38
822.907	37.72
823.085	101.2
823.262	33.62
823.44	119.64
823.618	21.33
823.796	90.96
823.974	84.82
824.152	15.19
824.329	172.88
824.507	58.2
824.685	88.92
824.863	74.58
825.04	80.72
825.218	56.15
825.396	19.29
825.574	136.02
825.751	54.1
825.929	136.02
826.107	43.86
826.284	23.38
826.462	113.49
826.639	90.96
826.817	25.43
826.994	35.67
827.172	72.53
827.349	50
827.527	70.48
827.704	13.14
827.882	2.9
828.059	113.49
828.237	64.34
828.414	101.2
828.591	13.14
828.769	64.34
828.946	88.92
829.124	66.39
829.301	95.06
829.478	76.63
829.655	9.05
829.833	115.54
830.01	33.62
830.187	17.24
830.364	33.62
830.542	78.68
830.719	82.77
830.896	109.4
831.073	27.48
831.25	123.73
831.427	41.81
831.604	58.2
831.782	11.09
831.959	37.72
832.136	82.77
832.313	47.96
832.49	64.34
832.667	52.05
832.844	-11.43
833.021	66.39
833.198	-13.48
833.374	82.77
833.551	62.29
833.728	13.14
833.905	101.2
834.082	33.62
834.259	142.16
834.436	29.52
834.612	54.1
834.789	35.67
834.966	45.91
835.143	68.44
835.319	45.91
835.496	97.11
835.673	111.44
835.85	66.39
836.026	2.9
836.203	27.48
836.38	68.44
836.556	27.48
836.733	93.01
836.909	-11.43
837.086	13.14
837.262	-13.48
837.439	-3.24
837.616	52.05
837.792	25.43
837.968	39.76
838.145	47.96
838.321	52.05
838.498	27.48
838.674	-21.67
838.851	-19.63
839.027	13.14
839.203	50
839.38	0.85
839.556	41.81
839.732	35.67
839.909	170.83
840.085	76.63
840.261	4.95
840.437	19.29
840.614	56.15
840.79	97.11
840.966	58.2
841.142	25.43
841.318	27.48
841.494	82.77
841.671	33.62
841.847	39.76
842.023	25.43
842.199	21.33
842.375	35.67
842.551	27.48
842.727	-31.91
842.903	107.35
843.079	-31.91
843.255	41.81
843.431	76.63
843.607	50
843.783	-1.19
843.959	41.81
844.134	19.29
844.31	-3.24
844.486	103.25
844.662	-5.29
844.838	45.91
845.013	27.48
845.189	-38.06
845.365	107.35
845.541	50
845.716	35.67
845.892	37.72
846.068	107.35
846.244	-23.72
846.419	45.91
846.595	78.68
846.77	4.95
846.946	39.76
847.122	43.86
847.297	47.96
847.473	82.77
847.648	56.15
847.824	80.72
847.999	-11.43
848.175	64.34
848.35	54.1
848.526	90.96
848.701	19.29
848.876	76.63
849.052	11.09
849.227	82.77
849.403	21.33
849.578	72.53
849.753	7
849.929	68.44
850.104	56.15
850.279	86.87
850.454	4.95
850.63	33.62
850.805	52.05
850.98	66.39
851.155	70.48
851.33	33.62
851.505	-5.29
851.681	84.82
851.856	-9.39
852.031	93.01
852.206	4.95
852.381	31.57
852.556	9.05
852.731	66.39
852.906	25.43
853.081	23.38
853.256	50
853.431	60.24
853.606	21.33
853.781	64.34
853.956	-36.01
854.131	68.44
854.305	21.33
854.48	-25.77
854.655	-17.58
854.83	60.24
855.005	35.67
855.18	78.68
855.354	64.34
855.529	52.05
855.704	19.29
855.879	-5.29
856.053	9.05
856.228	19.29
856.403	50
856.577	7
856.752	13.14
856.926	-42.15
857.101	-5.29
857.276	21.33
857.45	19.29
857.625	2.9
857.799	45.91
857.974	37.72
858.148	66.39
858.323	131.92
858.497	66.39
858.672	56.15
858.846	-27.82
859.02	-40.11
859.195	33.62
859.369	25.43
859.543	-40.11
859.718	7
859.892	109.4
860.066	33.62
860.241	4.95
860.415	-15.53
860.589	-1.19
860.763	25.43
860.938	99.16
861.112	27.48
861.286	-44.2
861.46	72.53
861.634	-5.29
861.808	9.05
861.982	-9.39
862.157	-19.63
862.331	-33.96
862.505	-15.53
862.679	-23.72
862.853	29.52
863.027	50
863.201	45.91
863.375	23.38
863.549	41.81
863.722	23.38
863.896	-5.29
864.07	37.72
864.244	74.58
864.418	54.1
864.592	-38.06
864.766	7
864.939	-7.34
865.113	-5.29
865.287	125.78
865.461	-40.11
865.634	80.72
865.808	0.85
865.982	39.76
866.156	80.72
866.329	-44.2
866.503	13.14
866.676	31.57
866.85	17.24
867.024	7
867.197	17.24
867.371	17.24
867.544	-33.96
867.718	37.72
867.891	-13.48
868.065	70.48
868.238	-1.19
868.412	13.14
868.585	-58.54
868.759	35.67
868.932	-11.43
869.105	29.52
869.279	47.96
869.452	74.58
869.625	9.05
869.799	90.96
869.972	4.95
870.145	2.9
870.319	39.76
870.492	21.33
870.665	31.57
870.838	68.44
871.011	11.09
871.185	25.43
871.358	103.25
871.531	41.81
871.704	-5.29
871.877	-5.29
872.05	13.14
872.223	21.33
872.396	-42.15
872.569	-1.19
872.742	-1.19
872.915	-48.3
873.088	31.57
873.261	82.77
873.434	58.2
873.607	15.19
873.78	50
873.953	-13.48
874.126	39.76
874.299	9.05
874.471	-1.19
874.644	66.39
874.817	52.05
874.99	2.9
875.163	70.48
875.335	60.24
875.508	-44.2
875.681	19.29
875.853	9.05
876.026	25.43
876.199	-7.34
876.371	41.81
876.544	25.43
876.717	31.57
876.889	41.81
877.062	-36.01
877.234	60.24
877.407	33.62
877.579	54.1
877.752	11.09
877.924	29.52
878.097	35.67
878.269	101.2
878.442	-29.87
878.614	-11.43
878.786	50
878.959	-9.39
879.131	-25.77
879.303	-11.43
879.476	88.92
879.648	70.48
879.82	-13.48
879.993	19.29
880.165	41.81
880.337	-19.63
880.509	74.58
880.681	-15.53
880.854	68.44
881.026	25.43
881.198	-3.24
881.37	37.72
881.542	-27.82
881.714	4.95
881.886	31.57
882.058	4.95
882.23	9.05
882.402	50
882.574	23.38
882.746	15.19
882.918	76.63
883.09	90.96
883.262	-9.39
883.434	17.24
883.606	45.91
883.778	15.19
883.95	17.24
884.122	47.96
884.293	64.34
884.465	11.09
884.637	27.48
884.809	-3.24
884.98	-23.72
885.152	13.14
885.324	35.67
885.496	-23.72
885.667	29.52
885.839	95.06
886.011	45.91
886.182	35.67
886.354	25.43
886.525	0.85
886.697	41.81
886.869	31.57
887.04	-3.24
887.212	-5.29
887.383	-11.43
887.555	-23.72
887.726	33.62
887.897	-9.39
888.069	64.34
888.24	41.81
888.412	31.57
888.583	43.86
888.754	-5.29
888.926	21.33
889.097	9.05
889.268	-19.63
889.44	-21.67
889.611	17.24
889.782	72.53
889.953	58.2
890.125	41.81
890.296	21.33
890.467	50
890.638	27.48
890.809	19.29
890.98	35.67
891.151	19.29
891.323	13.14
891.494	54.1
891.665	25.43
891.836	-1.19
892.007	-11.43
892.178	41.81
892.349	29.52
892.52	39.76
892.691	33.62
892.862	31.57
893.032	64.34
893.203	64.34
893.374	72.53
893.545	35.67
893.716	-64.68
893.887	60.24
894.057	0.85
894.228	25.43
894.399	37.72
894.57	37.72
894.74	-42.15
894.911	7
895.082	17.24
895.253	9.05
895.423	9.05
895.594	50
895.764	45.91
895.935	111.44
896.106	27.48
896.276	43.86
896.447	-56.49
896.617	115.54
896.788	-19.63
896.958	11.09
897.129	-83.11
897.299	15.19
897.47	13.14
897.64	33.62
897.81	-11.43
897.981	21.33
898.151	-36.01
898.322	0.85
898.492	2.9
898.662	33.62
898.832	-5.29
899.003	43.86
899.173	-36.01
899.343	19.29
899.513	-21.67
