Data from USB4F104151__227__14-00-22-325.txt Node

Date: Thu Mar 13 14:00:22 EDT 2025
User: louis
Spectrometer: USB4F10415
Trigger mode: 4
Integration Time (sec): 1.000000E-2
Scans to average: 1
Electric dark correction enabled: true
Nonlinearity correction enabled: false
Boxcar width: 0
XAxis mode: Wavelengths
Number of Pixels in Spectrum: 3648
>>>>>Begin Spectral Data<<<<<
178.204	-47.1
178.424	-47.1
178.644	-47.1
178.864	-30.72
179.084	-94.21
179.304	-6.14
179.524	40.96
179.744	26.62
179.964	-71.68
180.184	4.1
180.404	-8.19
180.624	-4.1
180.844	-4.1
181.064	-14.34
181.283	16.38
181.503	8.19
181.723	12.29
181.943	-43.01
182.163	55.3
182.383	6.14
182.602	-26.62
182.822	34.82
183.042	-51.2
183.262	4.1
183.482	49.15
183.701	57.34
183.921	43.01
184.141	10.24
184.361	57.34
184.58	8.19
184.8	-10.24
185.02	-55.3
185.239	47.1
185.459	43.01
185.679	61.44
185.898	2.05
186.118	34.82
186.338	-34.82
186.557	63.49
186.777	14.34
186.997	38.91
187.216	45.06
187.436	-10.24
187.655	-73.73
187.875	-24.58
188.095	14.34
188.314	71.68
188.534	24.58
188.753	71.68
188.973	53.25
189.192	75.77
189.412	86.01
189.631	81.92
189.851	-4.1
190.07	65.53
190.29	-12.29
190.509	2.05
190.729	36.86
190.948	12.29
191.168	79.87
191.387	-4.1
191.607	43.01
191.826	4.1
192.045	-38.91
192.265	16.38
192.484	2.05
192.704	30.72
192.923	-69.63
193.142	20.48
193.362	79.87
193.581	73.73
193.8	75.77
194.02	36.86
194.239	10.24
194.458	75.77
194.678	-4.1
194.897	36.86
195.116	26.62
195.335	135.17
195.555	67.58
195.774	63.49
195.993	10.24
196.212	26.62
196.432	-10.24
196.651	-8.19
196.87	-57.34
197.089	20.48
197.308	14.34
197.528	38.91
197.747	28.67
197.966	14.34
198.185	40.96
198.404	14.34
198.623	6.14
198.842	8.19
199.062	-8.19
199.281	10.24
199.5	10.24
199.719	-71.68
199.938	6.14
200.157	18.43
200.376	20.48
200.595	53.25
200.814	26.62
201.033	-22.53
201.252	51.2
201.471	4.1
201.69	38.91
201.909	28.67
202.128	-6.14
202.347	-55.3
202.566	45.06
202.785	22.53
203.004	47.1
203.223	-8.19
203.442	73.73
203.661	75.77
203.879	83.97
204.098	83.97
204.317	-18.43
204.536	32.77
204.755	26.62
204.974	38.91
205.193	6.14
205.411	-12.29
205.63	-36.86
205.849	-36.86
206.068	-4.1
206.287	-22.53
206.505	18.43
206.724	51.2
206.943	-32.77
207.162	-20.48
207.381	-26.62
207.599	43.01
207.818	-24.58
208.037	26.62
208.255	-20.48
208.474	6.14
208.693	-22.53
208.911	32.77
209.13	10.24
209.349	43.01
209.567	51.2
209.786	47.1
210.005	59.39
210.223	28.67
210.442	63.49
210.661	45.06
210.879	51.2
211.098	28.67
211.316	10.24
211.535	-45.06
211.753	10.24
211.972	-30.72
212.191	-6.14
212.409	-20.48
212.628	18.43
212.846	20.48
213.065	-26.62
213.283	16.38
213.502	12.29
213.72	61.44
213.938	26.62
214.157	53.25
214.375	0
214.594	61.44
214.812	-10.24
215.031	18.43
215.249	43.01
215.467	4.1
215.686	18.43
215.904	8.19
216.122	-6.14
216.341	10.24
216.559	-65.54
216.778	-30.72
216.996	36.86
217.214	-30.72
217.432	-30.72
217.651	20.48
217.869	100.35
218.087	18.43
218.306	28.67
218.524	-12.29
218.742	4.1
218.96	26.62
219.179	43.01
219.397	26.62
219.615	-4.1
219.833	4.1
220.051	-4.1
220.27	137.21
220.488	43.01
220.706	51.2
220.924	71.68
221.142	10.24
221.36	2.05
221.578	94.21
221.796	-4.1
222.015	10.24
222.233	-34.82
222.451	94.21
222.669	12.29
222.887	4.1
223.105	36.86
223.323	2.05
223.541	4.1
223.759	10.24
223.977	8.19
224.195	40.96
224.413	0
224.631	-38.91
224.849	26.62
225.067	79.87
225.285	10.24
225.503	63.49
225.721	10.24
225.939	28.67
226.157	10.24
226.375	32.77
226.592	-30.72
226.81	-4.1
227.028	2.05
227.246	45.06
227.464	-20.48
227.682	20.48
227.9	-14.34
228.117	38.91
228.335	45.06
228.553	-22.53
228.771	12.29
228.989	34.82
229.206	12.29
229.424	4.1
229.642	20.48
229.86	-14.34
230.077	14.34
230.295	-2.05
230.513	71.68
230.731	-4.1
230.948	47.1
231.166	-14.34
231.384	77.82
231.601	26.62
231.819	-32.77
232.037	-43.01
232.254	26.62
232.472	71.68
232.689	12.29
232.907	43.01
233.125	-10.24
233.342	61.44
233.56	20.48
233.777	-18.43
233.995	49.15
234.213	-6.14
234.43	43.01
234.648	-30.72
234.865	12.29
235.083	34.82
235.3	-22.53
235.518	-47.1
235.735	32.77
235.953	2.05
236.17	-2.05
236.388	47.1
236.605	-10.24
236.822	6.14
237.04	18.43
237.257	32.77
237.475	-14.34
237.692	0
237.909	-26.62
238.127	2.05
238.344	6.14
238.562	0
238.779	32.77
238.996	30.72
239.214	20.48
239.431	26.62
239.648	16.38
239.865	34.82
240.083	26.62
240.3	34.82
240.517	18.43
240.735	30.72
240.952	22.53
241.169	26.62
241.386	102.4
241.603	14.34
241.821	-4.1
242.038	12.29
242.255	-32.77
242.472	4.1
242.689	47.1
242.907	63.49
243.124	71.68
243.341	4.1
243.558	118.78
243.775	36.86
243.992	14.34
244.209	32.77
244.426	18.43
244.643	38.91
244.86	20.48
245.078	67.58
245.295	100.35
245.512	-8.19
245.729	6.14
245.946	-38.91
246.163	65.53
246.38	4.1
246.597	-2.05
246.814	20.48
247.031	28.67
247.248	55.3
247.464	20.48
247.681	2.05
247.898	-16.38
248.115	49.15
248.332	-43.01
248.549	53.25
248.766	-67.58
248.983	26.62
249.2	6.14
249.417	69.63
249.633	-4.1
249.85	108.54
250.067	2.05
250.284	71.68
250.501	-30.72
250.717	45.06
250.934	14.34
251.151	34.82
251.368	4.1
251.585	18.43
251.801	45.06
252.018	-51.2
252.235	77.82
252.451	-4.1
252.668	-36.86
252.885	-2.05
253.102	20.48
253.318	57.34
253.535	22.53
253.752	14.34
253.968	69.63
254.185	-51.2
254.401	8.19
254.618	6.14
254.835	-77.82
255.051	90.11
255.268	-6.14
255.484	34.82
255.701	-28.67
255.917	10.24
256.134	26.62
256.351	26.62
256.567	22.53
256.784	10.24
257	-4.1
257.217	96.25
257.433	2.05
257.65	24.58
257.866	26.62
258.082	-135.17
258.299	-55.3
258.515	2.05
258.732	26.62
258.948	12.29
259.165	53.25
259.381	45.06
259.597	38.91
259.814	18.43
260.03	30.72
260.246	59.39
260.463	38.91
260.679	34.82
260.895	83.97
261.112	47.1
261.328	-45.06
261.544	18.43
261.761	14.34
261.977	2.05
262.193	-34.82
262.409	77.82
262.626	47.1
262.842	61.44
263.058	36.86
263.274	-14.34
263.49	53.25
263.707	20.48
263.923	-22.53
264.139	-10.24
264.355	30.72
264.571	51.2
264.787	43.01
265.004	-55.3
265.22	43.01
265.436	18.43
265.652	51.2
265.868	67.58
266.084	-12.29
266.3	36.86
266.516	8.19
266.732	36.86
266.948	32.77
267.164	43.01
267.38	63.49
267.596	-10.24
267.812	26.62
268.028	-6.14
268.244	16.38
268.46	12.29
268.676	-6.14
268.892	40.96
269.108	18.43
269.324	10.24
269.54	14.34
269.756	38.91
269.972	-49.15
270.188	-28.67
270.403	22.53
270.619	22.53
270.835	59.39
271.051	-6.14
271.267	18.43
271.483	34.82
271.698	14.34
271.914	26.62
272.13	53.25
272.346	14.34
272.562	55.3
272.777	18.43
272.993	-22.53
273.209	-12.29
273.425	100.35
273.64	55.3
273.856	-6.14
274.072	-36.86
274.287	61.44
274.503	12.29
274.719	-36.86
274.934	24.58
275.15	10.24
275.366	81.92
275.581	-12.29
275.797	40.96
276.012	-6.14
276.228	47.1
276.444	38.91
276.659	36.86
276.875	10.24
277.09	-12.29
277.306	65.53
277.521	-14.34
277.737	4.1
277.952	18.43
278.168	2.05
278.383	-4.1
278.599	71.68
278.814	2.05
279.03	8.19
279.245	-2.05
279.461	40.96
279.676	43.01
279.892	16.38
280.107	47.1
280.322	14.34
280.538	-30.72
280.753	-34.82
280.969	59.39
281.184	100.35
281.399	120.83
281.615	2.05
281.83	8.19
282.045	36.86
282.26	34.82
282.476	38.91
282.691	12.29
282.906	104.45
283.122	73.73
283.337	10.24
283.552	65.53
283.767	112.64
283.983	4.1
284.198	18.43
284.413	98.3
284.628	-2.05
284.843	59.39
285.058	24.58
285.274	94.21
285.489	20.48
285.704	53.25
285.919	-67.58
286.134	40.96
286.349	-10.24
286.564	8.19
286.779	45.06
286.995	40.96
287.21	32.77
287.425	100.35
287.64	-38.91
287.855	40.96
288.07	-32.77
288.285	32.77
288.5	38.91
288.715	-10.24
288.93	-14.34
289.145	-53.25
289.36	16.38
289.575	86.01
289.79	16.38
290.004	75.77
290.219	49.15
290.434	10.24
290.649	-6.14
290.864	75.77
291.079	45.06
291.294	51.2
291.509	22.53
291.724	40.96
291.938	28.67
292.153	-4.1
292.368	-30.72
292.583	34.82
292.798	141.31
293.012	16.38
293.227	26.62
293.442	26.62
293.657	43.01
293.871	-8.19
294.086	18.43
294.301	83.97
294.516	57.34
294.73	-12.29
294.945	-10.24
295.16	88.06
295.374	22.53
295.589	30.72
295.804	65.53
296.018	12.29
296.233	6.14
296.447	40.96
296.662	28.67
296.877	94.21
297.091	-16.38
297.306	67.58
297.52	-6.14
297.735	36.86
297.949	-18.43
298.164	28.67
298.378	32.77
298.593	4.1
298.807	-12.29
299.022	55.3
299.236	94.21
299.451	10.24
299.665	63.49
299.88	100.35
300.094	20.48
300.309	10.24
300.523	86.01
300.737	36.86
300.952	-2.05
301.166	135.17
301.381	14.34
301.595	-12.29
301.809	20.48
302.024	67.58
302.238	-24.58
302.452	-14.34
302.667	24.58
302.881	-30.72
303.095	16.38
303.309	34.82
303.524	12.29
303.738	-36.86
303.952	16.38
304.166	-30.72
304.381	-2.05
304.595	43.01
304.809	36.86
305.023	59.39
305.237	26.62
305.452	49.15
305.666	-34.82
305.88	26.62
306.094	8.19
306.308	26.62
306.522	55.3
306.736	51.2
306.95	14.34
307.164	-2.05
307.379	16.38
307.593	32.77
307.807	75.77
308.021	69.63
308.235	-6.14
308.449	10.24
308.663	49.15
308.877	75.77
309.091	45.06
309.305	59.39
309.519	-26.62
309.733	67.58
309.947	-8.19
310.161	71.68
310.374	-18.43
310.588	34.82
310.802	63.49
311.016	63.49
311.23	-63.49
311.444	-12.29
311.658	4.1
311.872	20.48
312.085	32.77
312.299	53.25
312.513	28.67
312.727	34.82
312.941	-2.05
313.154	14.34
313.368	83.97
313.582	14.34
313.796	47.1
314.009	40.96
314.223	86.01
314.437	20.48
314.651	28.67
314.864	6.14
315.078	0
315.292	43.01
315.505	-20.48
315.719	49.15
315.933	47.1
316.146	59.39
316.36	-14.34
316.573	43.01
316.787	34.82
317.001	4.1
317.214	14.34
317.428	30.72
317.641	43.01
317.855	8.19
318.068	45.06
318.282	65.53
318.495	4.1
318.709	22.53
318.922	49.15
319.136	-30.72
319.349	92.16
319.563	-12.29
319.776	30.72
319.99	28.67
320.203	18.43
320.417	47.1
320.63	61.44
320.843	20.48
321.057	20.48
321.27	-47.1
321.483	-18.43
321.697	51.2
321.91	-6.14
322.124	16.38
322.337	16.38
322.55	20.48
322.763	-6.14
322.977	63.49
323.19	-2.05
323.403	45.06
323.617	10.24
323.83	12.29
324.043	-6.14
324.256	38.91
324.469	-40.96
324.683	26.62
324.896	-53.25
325.109	14.34
325.322	28.67
325.535	20.48
325.748	-49.15
325.962	-26.62
326.175	-12.29
326.388	59.39
326.601	-2.05
326.814	71.68
327.027	61.44
327.24	86.01
327.453	4.1
327.666	-10.24
327.879	102.4
328.092	83.97
328.305	-2.05
328.518	36.86
328.731	51.2
328.944	71.68
329.157	18.43
329.37	-4.1
329.583	53.25
329.796	34.82
330.009	14.34
330.222	24.58
330.435	47.1
330.648	108.54
330.861	57.34
331.073	4.1
331.286	0
331.499	49.15
331.712	18.43
331.925	40.96
332.138	18.43
332.35	67.58
332.563	83.97
332.776	18.43
332.989	-8.19
333.202	53.25
333.414	55.3
333.627	14.34
333.84	45.06
334.053	8.19
334.265	28.67
334.478	30.72
334.691	47.1
334.903	22.53
335.116	40.96
335.329	112.64
335.541	34.82
335.754	26.62
335.966	90.11
336.179	-14.34
336.392	-57.34
336.604	53.25
336.817	18.43
337.029	28.67
337.242	65.53
337.454	-30.72
337.667	30.72
337.88	12.29
338.092	49.15
338.305	57.34
338.517	20.48
338.729	26.62
338.942	28.67
339.154	28.67
339.367	18.43
339.579	18.43
339.792	20.48
340.004	30.72
340.217	67.58
340.429	63.49
340.641	-10.24
340.854	-28.67
341.066	-38.91
341.278	57.34
341.491	30.72
341.703	34.82
341.915	-14.34
342.128	40.96
342.34	-2.05
342.552	10.24
342.764	67.58
342.977	96.25
343.189	116.73
343.401	83.97
343.613	51.2
343.826	30.72
344.038	18.43
344.25	47.1
344.462	14.34
344.674	92.16
344.886	49.15
345.099	45.06
345.311	36.86
345.523	-2.05
345.735	30.72
345.947	-2.05
346.159	-22.53
346.371	-2.05
346.583	-20.48
346.795	88.06
347.007	40.96
347.219	30.72
347.431	20.48
347.643	49.15
347.855	0
348.067	71.68
348.279	6.14
348.491	43.01
348.703	28.67
348.915	43.01
349.127	40.96
349.339	67.58
349.551	45.06
349.763	-10.24
349.975	-18.43
350.187	75.77
350.399	-18.43
350.61	49.15
350.822	30.72
351.034	16.38
351.246	30.72
351.458	51.2
351.669	32.77
351.881	-45.06
352.093	110.59
352.305	75.77
352.517	-18.43
352.728	65.53
352.94	-2.05
353.152	28.67
353.363	6.14
353.575	22.53
353.787	22.53
353.999	40.96
354.21	36.86
354.422	38.91
354.633	86.01
354.845	43.01
355.057	-28.67
355.268	12.29
355.48	16.38
355.692	-14.34
355.903	61.44
356.115	-28.67
356.326	73.73
356.538	126.97
356.749	63.49
356.961	22.53
357.172	51.2
357.384	28.67
357.595	-12.29
357.807	114.69
358.018	0
358.23	96.25
358.441	75.77
358.653	94.21
358.864	2.05
359.075	-77.82
359.287	-38.91
359.498	61.44
359.709	20.48
359.921	38.91
360.132	-22.53
360.344	-6.14
360.555	79.87
360.766	18.43
360.977	6.14
361.189	-20.48
361.4	0
361.611	14.34
361.823	71.68
362.034	120.83
362.245	65.53
362.456	49.15
362.667	67.58
362.879	36.86
363.09	12.29
363.301	61.44
363.512	-22.53
363.723	-49.15
363.935	-32.77
364.146	57.34
364.357	-6.14
364.568	75.77
364.779	43.01
364.99	4.1
365.201	43.01
365.412	30.72
365.623	-6.14
365.834	77.82
366.045	69.63
366.256	4.1
366.467	20.48
366.678	-14.34
366.889	-43.01
367.1	30.72
367.311	14.34
367.522	34.82
367.733	49.15
367.944	-10.24
368.155	-71.68
368.366	51.2
368.577	10.24
368.788	34.82
368.999	-30.72
369.209	49.15
369.42	49.15
369.631	43.01
369.842	55.3
370.053	4.1
370.264	51.2
370.474	69.63
370.685	86.01
370.896	53.25
371.107	43.01
371.317	59.39
371.528	38.91
371.739	22.53
371.95	28.67
372.16	120.83
372.371	26.62
372.582	2.05
372.792	12.29
373.003	86.01
373.214	16.38
373.424	61.44
373.635	-36.86
373.846	43.01
374.056	-4.1
374.267	59.39
374.477	40.96
374.688	20.48
374.898	63.49
375.109	26.62
375.319	-36.86
375.53	77.82
375.74	28.67
375.951	14.34
376.161	28.67
376.372	92.16
376.582	32.77
376.793	34.82
377.003	-22.53
377.214	83.97
377.424	43.01
377.635	71.68
377.845	28.67
378.055	55.3
378.266	-47.1
378.476	55.3
378.686	18.43
378.897	-14.34
379.107	57.34
379.317	120.83
379.528	59.39
379.738	133.12
379.948	10.24
380.158	75.77
380.369	-8.19
380.579	12.29
380.789	75.77
380.999	75.77
381.21	75.77
381.42	43.01
381.63	49.15
381.84	36.86
382.05	32.77
382.261	45.06
382.471	59.39
382.681	6.14
382.891	38.91
383.101	38.91
383.311	-8.19
383.521	-43.01
383.731	92.16
383.941	24.58
384.151	65.53
384.361	30.72
384.571	43.01
384.781	75.77
384.991	14.34
385.201	12.29
385.411	-8.19
385.621	51.2
385.831	26.62
386.041	88.06
386.251	73.73
386.461	26.62
386.671	-22.53
386.881	14.34
387.091	122.88
387.301	18.43
387.511	81.92
387.72	45.06
387.93	26.62
388.14	69.63
388.35	38.91
388.56	69.63
388.769	65.53
388.979	45.06
389.189	133.12
389.399	73.73
389.609	73.73
389.818	116.73
390.028	69.63
390.238	67.58
390.447	65.53
390.657	116.73
390.867	-49.15
391.076	26.62
391.286	102.4
391.496	0
391.705	26.62
391.915	49.15
392.125	43.01
392.334	-18.43
392.544	73.73
392.753	61.44
392.963	63.49
393.172	20.48
393.382	108.54
393.591	59.39
393.801	-36.86
394.01	45.06
394.22	47.1
394.429	88.06
394.639	30.72
394.848	10.24
395.058	26.62
395.267	92.16
395.477	104.45
395.686	55.3
395.895	40.96
396.105	34.82
396.314	165.89
396.524	57.34
396.733	92.16
396.942	86.01
397.152	81.92
397.361	104.45
397.57	71.68
397.78	133.12
397.989	75.77
398.198	110.59
398.407	53.25
398.617	75.77
398.826	51.2
399.035	73.73
399.244	-2.05
399.453	104.45
399.663	53.25
399.872	83.97
400.081	24.58
400.29	79.87
400.499	36.86
400.708	88.06
400.917	-4.1
401.127	108.54
401.336	71.68
401.545	86.01
401.754	12.29
401.963	102.4
402.172	20.48
402.381	59.39
402.59	86.01
402.799	102.4
403.008	61.44
403.217	77.82
403.426	34.82
403.635	49.15
403.844	90.11
404.053	49.15
404.262	137.21
404.471	83.97
404.68	124.93
404.888	120.83
405.097	36.86
405.306	186.37
405.515	94.21
405.724	96.25
405.933	106.49
406.142	81.92
406.35	129.02
406.559	36.86
406.768	110.59
406.977	145.41
407.185	96.25
407.394	124.93
407.603	122.88
407.812	167.93
408.02	141.31
408.229	112.64
408.438	141.31
408.646	186.37
408.855	172.03
409.064	120.83
409.272	235.52
409.481	212.99
409.69	145.41
409.898	231.42
410.107	219.13
410.315	225.28
410.524	217.08
410.733	208.89
410.941	229.37
411.15	256
411.358	286.72
411.567	288.76
411.775	180.22
411.984	256
412.192	282.62
412.401	210.94
412.609	301.05
412.818	284.67
413.026	337.91
413.234	321.53
413.443	346.11
413.651	366.59
413.86	387.07
414.068	415.74
414.276	370.68
414.485	362.49
414.693	387.07
414.901	440.31
415.11	462.84
415.318	456.7
415.526	499.7
415.734	532.47
415.943	501.75
416.151	567.29
416.359	505.85
416.567	514.04
416.776	491.51
416.984	585.72
417.192	593.91
417.4	552.95
417.608	626.68
417.817	509.94
418.025	641.01
418.233	737.27
418.441	665.59
418.649	780.28
418.857	800.76
419.065	720.88
419.273	710.65
419.481	841.72
419.689	892.91
419.897	894.96
420.105	849.91
420.313	882.67
420.521	1060.85
420.729	995.31
420.937	1116.14
421.145	1087.47
421.353	1095.66
421.561	1202.16
421.769	1173.49
421.977	1179.63
422.185	1263.6
422.393	1343.47
422.601	1341.42
422.809	1419.24
423.017	1374.19
423.224	1415.15
423.432	1591.27
423.64	1558.5
423.848	1675.24
424.056	1607.66
424.263	1755.11
424.471	1767.4
424.679	1800.16
424.887	1906.66
425.094	1949.67
425.302	1888.23
425.51	2015.2
425.718	2131.94
425.925	1988.58
426.133	2181.09
426.341	2289.63
426.548	2389.98
426.756	2410.46
426.964	2500.57
427.171	2625.5
427.379	2609.11
427.586	2543.58
427.794	2734.04
428.001	3000.27
428.209	3037.14
428.417	2901.97
428.624	3071.95
428.832	3153.87
429.039	3172.3
429.247	3147.73
429.454	3389.39
429.662	3622.86
429.869	3352.52
430.076	3635.14
430.284	3467.21
430.491	3678.15
430.699	4011.97
430.906	3788.74
431.114	3983.3
431.321	4075.46
431.528	4206.53
431.736	4511.68
431.943	4550.59
432.15	4526.01
432.358	4558.78
432.565	4640.7
432.772	4769.72
432.979	5066.67
433.187	5136.31
433.394	5240.75
433.601	5466.03
433.808	5470.12
434.016	5392.3
434.223	5830.57
434.43	6027.17
434.637	5965.73
434.844	6328.22
435.052	6432.67
435.259	6317.98
435.466	6604.7
435.673	6434.72
435.88	6872.98
436.087	7112.6
436.294	7151.51
436.501	7024.53
436.708	7069.59
436.915	7186.32
437.122	7622.54
437.329	7790.47
437.537	7939.97
437.743	8015.75
437.95	7886.73
438.157	8368
438.364	8861.56
438.571	8771.45
438.778	8732.54
438.985	9676.65
439.192	9115.51
439.399	9543.53
439.606	9305.97
439.813	9793.39
440.02	10268.52
440.227	10321.76
440.433	10076.01
440.64	10389.35
440.847	10391.39
441.054	10526.56
441.261	11194.2
441.467	11106.13
441.674	11366.23
441.881	11722.57
442.088	11652.94
442.294	11732.81
442.501	11839.31
442.708	12189.51
442.914	12631.87
443.121	13031.23
443.328	12844.86
443.534	13725.49
443.741	13418.29
443.948	13248.31
444.154	14001.96
444.361	14083.88
444.568	14253.86
444.774	14225.19
444.981	14309.16
445.187	14698.27
445.394	15425.3
445.6	15208.22
445.807	16570.12
446.013	15914.77
446.22	16099.08
446.426	16606.98
446.633	16828.16
446.839	17424.12
447.046	16807.68
447.252	17700.59
447.459	17858.29
447.665	17555.19
447.871	18380.52
448.078	19160.8
448.284	18431.72
448.491	18603.75
448.697	19386.07
448.903	19848.91
449.11	19803.86
449.316	19408.6
449.522	19859.15
449.728	20500.17
449.935	20621
450.141	20680.39
450.347	21001.92
450.553	20346.57
450.76	20897.47
450.966	21407.42
451.172	20963.01
451.378	21608.12
451.584	21044.93
451.791	21622.45
451.997	21747.38
452.203	22197.93
452.409	22025.9
452.615	21935.79
452.821	21018.3
453.027	20891.33
453.233	22124.21
453.44	21137.09
453.646	21266.11
453.852	21485.24
454.058	21986.99
454.264	20915.9
454.47	21427.9
454.676	21100.22
454.882	21755.57
455.088	20031.18
455.294	20219.6
455.5	20317.9
455.705	20594.37
455.911	19726.03
456.117	19558.1
456.323	19173.08
456.529	18188.01
456.735	18900.7
456.941	18153.19
457.147	18302.7
457.352	17686.26
457.558	17669.87
457.764	17393.4
457.97	17116.92
458.176	16697.09
458.381	16930.56
458.587	15826.7
458.793	15894.29
458.999	15177.5
459.204	15976.2
459.41	15585.04
459.616	14659.36
459.821	14890.78
460.027	14733.09
460.233	14536.48
460.438	13623.09
460.644	13776.69
460.85	13051.7
461.055	12898.11
461.261	12773.18
461.466	11863.88
461.672	11611.98
461.878	12390.21
462.083	11741
462.289	11595.6
462.494	11296.6
462.7	10833.75
462.905	10520.42
463.111	10903.39
463.316	11136.85
463.522	10819.42
463.727	10733.4
463.932	10952.54
464.138	10655.58
464.343	10741.6
464.549	10387.3
464.754	10667.87
464.959	10561.37
465.165	10569.57
465.37	10237.8
465.575	9860.97
465.781	10207.08
465.986	10235.75
466.191	9916.26
466.397	9850.73
466.602	9252.72
466.807	9645.93
467.012	9742.19
467.218	9473.9
467.423	9510.77
467.628	9598.83
467.833	9811.82
468.038	9523.05
468.244	9308.02
468.449	9672.56
468.654	9275.25
468.859	9258.87
469.064	9303.92
469.269	8947.58
469.474	9056.12
469.679	9275.25
469.885	8865.66
470.09	8824.7
470.295	8968.06
470.5	8810.36
470.705	8730.49
470.91	8683.39
471.115	8363.9
471.32	8466.3
471.525	8587.13
471.73	8148.87
471.935	8349.57
472.139	8032.13
472.344	8116.1
472.549	8122.24
472.754	7841.67
472.959	8036.23
473.164	7655.31
473.369	7479.18
473.574	7868.3
473.778	7675.79
473.983	7677.83
474.188	7589.77
474.393	7258
474.598	7212.95
474.802	7153.55
475.007	7327.63
475.212	7155.6
475.417	6965.14
475.621	7067.54
475.826	7034.77
476.031	6834.07
476.235	6680.47
476.44	6778.78
476.645	6770.58
476.849	6848.41
477.054	6528.92
477.259	6510.49
477.463	6549.4
477.668	6418.33
477.872	6487.96
478.077	6471.58
478.282	6199.2
478.486	6244.26
478.691	6068.13
478.895	6088.61
479.1	6160.29
479.304	5916.58
479.509	5744.55
479.713	6084.52
479.918	5875.62
480.122	5746.6
480.326	5873.57
480.531	5834.66
480.735	5834.66
480.94	5744.55
481.144	5752.74
481.348	5722.02
481.553	5793.7
481.757	5541.8
481.961	5625.77
482.166	5646.25
482.37	5760.94
482.574	5455.79
482.778	5849
482.983	5705.64
483.187	5726.12
483.391	5771.18
483.595	5570.47
483.8	5580.71
484.004	5738.41
484.208	5711.78
484.412	5728.17
484.616	5629.87
484.821	5701.55
485.025	5650.35
485.229	5650.35
485.433	5545.9
485.637	5691.31
485.841	5529.52
486.045	5541.8
486.249	5597.1
486.453	5427.12
486.657	5627.82
486.861	5552.04
487.065	5494.7
487.269	5644.2
487.473	5478.32
487.677	5783.46
487.881	5640.11
488.085	5674.92
488.289	5658.54
488.493	5621.67
488.697	5574.57
488.901	5609.39
489.105	5681.07
489.309	5603.24
489.512	5748.65
489.716	5734.31
489.92	5771.18
490.124	5636.01
490.328	5703.59
490.531	5633.96
490.735	5752.74
490.939	6006.69
491.143	5910.44
491.346	5769.13
491.55	5861.29
491.754	5926.82
491.958	5928.87
492.161	5791.66
492.365	5875.62
492.569	6115.23
492.772	6047.65
492.976	6148
493.18	6158.24
493.383	6178.72
493.587	6055.84
493.79	6123.43
493.994	6256.54
494.197	6317.98
494.401	6485.92
494.605	6334.37
494.808	6363.04
495.012	6404
495.215	6444.96
495.419	6467.49
495.622	6473.63
495.825	6594.46
496.029	6682.52
496.232	6848.41
496.436	6803.35
496.639	7036.82
496.843	6762.39
497.046	7190.42
497.249	6989.72
497.453	7178.13
497.656	7325.58
497.859	7321.49
498.063	7419.79
498.266	7470.99
498.469	7739.27
498.673	7655.31
498.876	7776.14
499.079	7733.13
499.282	7755.66
499.485	7923.59
499.689	7976.84
499.892	8320.9
500.095	8062.85
500.298	8198.02
500.501	8417.15
500.705	8591.23
500.908	8607.61
501.111	8820.6
501.314	8996.73
501.517	8869.75
501.72	9111.41
501.923	8951.67
502.126	9344.88
502.329	9475.95
502.532	9660.27
502.735	9684.84
502.938	9793.39
503.141	9871.21
503.344	10057.57
503.547	9985.9
503.75	10499.94
503.953	10276.71
504.156	10350.43
504.359	10809.18
504.562	10639.2
504.765	10794.84
504.968	10958.68
505.17	11061.08
505.373	11183.96
505.576	11335.51
505.779	11710.29
505.982	11521.87
506.185	12078.92
506.387	11779.92
506.59	12201.8
506.793	12255.04
506.996	12422.98
507.198	12533.57
507.401	12562.24
507.604	12801.85
507.807	13020.99
508.009	13236.02
508.212	13215.54
508.415	13463.35
508.617	13739.82
508.82	13651.76
509.022	13588.27
509.225	13963.05
509.428	14219.05
509.63	14561.06
509.833	14573.35
510.035	14802.72
510.238	14819.1
510.44	15290.13
510.643	15148.82
510.845	15208.22
511.048	15345.43
511.25	15916.81
511.453	15681.3
511.655	16613.12
511.858	16144.14
512.06	16447.24
512.262	16723.71
512.465	16715.52
512.667	17039.1
512.87	17284.86
513.072	17352.44
513.274	17774.32
513.477	17970.93
513.679	17968.88
513.881	18321.13
514.084	18626.28
514.286	18634.47
514.488	18675.43
514.69	19179.23
514.893	19166.94
515.095	19453.66
515.297	19814.1
515.499	19855.06
515.701	20287.18
515.904	20375.24
516.106	20317.9
516.308	21100.22
516.51	21046.97
516.712	21137.09
516.914	21276.35
517.116	21821.11
517.318	21782.2
517.52	21943.99
517.722	21845.68
517.925	22650.53
518.127	22910.63
518.329	22970.02
518.531	22927.01
518.733	23678.61
518.935	23541.4
519.136	23572.12
519.338	24049.3
519.54	24258.19
519.742	24561.29
519.944	24721.03
520.146	25149.06
520.348	25302.65
520.55	25476.73
520.752	25808.5
520.954	26082.93
521.155	25906.8
521.357	26633.83
521.559	26363.5
521.761	27102.82
521.963	26869.35
522.164	27211.36
522.366	27127.39
522.568	27618.91
522.77	27512.41
522.971	28321.36
523.173	28188.24
523.375	28628.56
523.576	28796.49
523.778	28626.51
523.98	29271.62
524.181	29113.92
524.383	29226.56
524.584	29677.12
524.786	29582.91
524.988	29531.71
525.189	29726.27
525.391	30176.82
525.592	30512.69
525.794	30242.35
525.995	30711.34
526.197	30361.14
526.398	30678.57
526.6	31135.27
526.801	31135.27
527.003	31051.3
527.204	31417.89
527.406	31440.42
527.607	31542.81
527.808	31639.07
528.01	31360.55
528.211	31831.58
528.412	32759.31
528.614	32079.38
528.815	32146.97
529.016	32620.05
529.218	32292.37
529.419	32454.16
529.62	32839.18
529.822	32572.94
530.023	32462.35
530.224	32806.41
530.425	32974.34
530.626	32851.47
530.828	32767.5
531.029	33576.45
531.23	32986.63
531.431	33220.1
531.632	33332.74
531.833	33658.37
532.035	32992.78
532.236	33658.37
532.437	33738.24
532.638	33682.94
532.839	33525.25
533.04	33508.86
533.241	33359.36
533.442	33824.25
533.643	33500.67
533.844	33715.71
534.045	33922.55
534.246	33533.44
534.447	34141.69
534.648	33742.33
534.849	33832.44
535.05	33637.89
535.251	34137.59
535.451	33908.22
535.652	33928.7
535.853	34168.31
536.054	34092.54
536.255	34231.8
536.456	34121.21
536.657	34196.98
536.857	33762.81
537.058	33666.56
537.259	33975.8
537.46	33803.77
537.66	33830.4
537.861	33979.9
538.062	33963.51
538.263	34444.79
538.463	33943.03
538.664	33805.82
538.865	34233.85
539.065	34201.08
539.266	33453.57
539.466	34530.8
539.667	33752.57
539.868	34483.7
540.068	34237.94
540.269	33922.55
540.469	34526.71
540.67	33838.59
540.87	33881.59
541.071	33938.94
541.271	34182.65
541.472	34020.86
541.672	33768.96
541.873	33883.64
542.073	33699.33
542.274	34129.4
542.474	33885.69
542.675	33877.5
542.875	34629.1
543.075	33875.45
543.276	33537.54
543.476	34033.14
543.676	33957.37
543.877	34221.56
544.077	34033.14
544.277	33525.25
544.478	34024.95
544.678	34276.85
544.878	33928.7
545.078	33875.45
545.279	34051.58
545.479	33590.78
545.679	34121.21
545.879	33779.2
546.079	33906.17
546.28	33715.71
546.48	33797.63
546.68	34188.79
546.88	34063.86
547.08	33621.5
547.28	33918.46
547.48	33709.57
547.68	34029.05
547.88	33617.41
548.081	34283
548.281	34176.5
548.481	33707.52
548.681	33871.36
548.881	33719.81
549.081	33857.02
549.28	33732.09
549.48	33955.32
549.68	33760.76
549.88	34188.79
550.08	33627.65
550.28	33918.46
550.48	33326.6
550.68	34461.17
550.88	33932.79
551.08	33773.05
551.279	34100.73
551.479	33580.54
551.679	33854.97
551.879	33697.28
552.079	33789.44
552.278	33560.06
552.478	33801.72
552.678	33676.8
552.878	33924.6
553.077	33742.33
553.277	33428.99
553.477	33803.77
553.676	33910.27
553.876	33539.58
554.076	33463.81
554.275	33521.15
554.475	33545.73
554.674	33531.39
554.874	33502.72
555.074	33390.08
555.273	33379.84
555.473	33703.42
555.672	33170.95
555.872	33484.29
556.071	33646.08
556.271	33656.32
556.47	33365.51
556.67	33125.89
556.869	32919.05
557.068	33615.36
557.268	32771.6
557.467	32984.58
557.667	33005.06
557.866	33021.45
558.065	32978.44
558.265	32945.67
558.464	32622.09
558.663	32849.42
558.863	32638.48
559.062	32906.76
559.261	32437.78
559.461	32753.16
559.66	32904.71
559.859	32796.17
560.058	32534.03
560.258	32583.18
560.457	32083.48
560.656	32581.13
560.855	32128.53
561.054	32556.56
561.253	32376.34
561.453	32331.28
561.652	32314.9
561.851	32583.18
562.05	32071.19
562.249	32005.66
562.448	32314.9
562.647	32194.07
562.846	32015.9
563.045	31907.35
563.244	31538.72
563.443	32069.14
563.642	31743.52
563.841	31694.36
564.04	31403.55
564.239	32040.47
564.438	31475.23
564.637	31716.89
564.836	31604.25
565.035	31276.58
565.234	32177.68
565.432	31817.24
565.631	31028.77
565.83	31475.23
566.029	31018.53
566.228	31223.33
566.427	31045.16
566.625	30891.56
566.824	30441.01
567.023	31245.86
567.222	30559.79
567.42	30936.62
567.619	31032.87
567.818	31028.77
568.016	30748.2
568.215	30785.07
568.414	30543.41
568.612	30844.46
568.811	30205.49
569.01	30248.5
569.208	30101.04
569.407	30619.18
569.605	29689.4
569.804	30330.42
570.002	29869.62
570.201	30035.51
570.4	29814.33
570.598	29423.17
570.797	29505.09
570.995	29664.83
571.193	29326.91
571.392	29494.85
571.59	29466.17
571.789	29232.71
571.987	29337.15
572.186	28952.13
572.384	28978.76
572.582	29242.95
572.781	29013.57
572.979	28763.72
573.177	28898.89
573.376	29044.29
573.574	28489.29
573.772	28976.71
573.971	28345.94
574.169	28132.95
574.367	28386.89
574.565	28362.32
574.763	28169.81
574.962	27846.23
575.16	27868.76
575.358	28106.32
575.556	27555.42
575.754	28161.62
575.952	27917.91
576.151	28296.78
576.349	27450.97
576.547	27348.57
576.745	27817.56
576.943	27397.73
577.141	27160.16
577.339	27240.03
577.537	27225.7
577.735	27168.35
577.933	26758.76
578.131	26859.11
578.329	26818.15
578.527	26682.98
578.725	26508.91
578.923	26816.1
579.121	26627.69
579.319	26777.19
579.516	26513
579.714	26322.54
579.912	26441.32
580.11	26025.59
580.308	26445.42
580.506	25992.82
580.704	25894.52
580.901	26054.26
581.099	25974.39
581.297	25519.74
581.495	25648.76
581.692	26013.3
581.89	25724.54
582.088	25392.76
582.285	25169.54
582.483	25663.1
582.681	25241.21
582.878	24977.03
583.076	25013.89
583.274	25241.21
583.471	24684.17
583.669	24878.72
583.866	24817.29
584.064	24944.26
584.262	24772.23
584.459	24798.85
584.657	24559.24
584.854	24784.52
585.052	24256.14
585.249	24528.52
585.447	24282.77
585.644	24178.32
585.841	24280.72
586.039	24358.54
586.236	24063.63
586.434	23955.09
586.631	23547.54
586.828	23981.71
587.026	23934.61
587.223	23893.65
587.42	23768.73
587.618	23660.18
587.815	23334.56
588.012	23539.35
588.21	23400.09
588.407	23365.28
588.604	22927.01
588.801	22924.96
588.999	22869.67
589.196	22984.35
589.393	22959.78
589.59	23006.88
589.787	22740.64
589.984	22746.79
590.182	22482.6
590.379	22593.19
590.576	22689.45
590.773	22777.51
590.97	22390.44
591.167	22367.91
591.364	22165.17
591.561	22417.07
591.758	22060.72
591.955	21915.31
592.152	22228.65
592.349	21917.36
592.546	22056.62
592.743	21956.27
592.94	21458.62
593.137	21806.77
593.334	21804.72
593.531	21393.08
593.727	21497.53
593.924	21642.93
594.121	21286.59
594.318	21391.03
594.515	21036.73
594.712	21337.79
594.908	21026.5
595.105	21348.03
595.302	20903.62
595.499	20940.48
595.696	21098.17
595.892	21055.17
596.089	21198.52
596.286	20870.85
596.482	20956.86
596.679	20641.48
596.876	20727.49
597.072	20483.78
597.269	20600.52
597.466	20375.24
597.662	20514.5
597.859	20408.01
598.055	20309.71
598.252	20158.16
598.448	20004.56
598.645	19928.78
598.841	19810
599.038	19824.34
599.234	19949.26
599.431	19832.53
599.627	19697.36
599.824	19535.57
600.02	19623.64
600.217	20000.46
600.413	19427.03
600.609	19580.63
600.806	19439.32
601.002	19363.54
601.198	19062.49
601.395	19351.26
601.591	19259.1
601.787	19078.88
601.984	18933.47
602.18	19078.88
602.376	19062.49
602.572	18925.28
602.769	18947.81
602.965	18601.7
603.161	18798.31
603.357	18579.17
603.553	18540.26
603.75	18538.21
603.946	18304.74
604.142	18415.33
604.338	18188.01
604.534	18474.73
604.73	18073.32
604.926	18032.36
605.122	17999.6
605.318	17966.83
605.514	17807.09
605.71	17696.5
605.906	17790.7
606.102	17825.52
606.298	17843.95
606.494	17467.13
606.69	17479.41
606.886	17405.69
607.082	17127.16
607.278	17489.65
607.474	17032.96
607.67	17297.14
607.866	16944.89
608.062	17196.79
608.257	17028.86
608.453	17192.7
608.649	16975.61
608.845	16994.04
609.041	16746.24
609.236	16844.54
609.432	16963.33
609.628	16815.87
609.824	16688.9
610.019	16662.27
610.215	16744.19
610.411	16455.43
610.606	16600.83
610.802	16361.22
610.998	16207.62
611.193	16529.16
611.389	16348.93
611.584	16039.69
611.78	16262.92
611.976	16062.22
612.171	15980.3
612.367	15970.06
612.562	15890.19
612.758	15791.89
612.953	15933.2
613.149	16303.88
613.344	15775.5
613.539	16168.71
613.735	15675.15
613.93	15861.52
614.126	15593.23
614.321	15800.08
614.517	15640.34
614.712	15697.68
614.907	15683.34
615.103	15595.28
615.298	15582.99
615.493	15511.32
615.688	15191.83
615.884	15546.13
616.079	15451.92
616.274	15548.18
616.47	15144.73
616.665	15263.51
616.86	15101.72
617.055	15089.43
617.25	14941.98
617.445	15216.41
617.641	14599.97
617.836	14960.41
618.031	14653.22
618.226	14976.8
618.421	14913.31
618.616	15030.04
618.811	14753.57
619.006	14772
619.201	14370.6
619.396	14628.64
619.591	14384.93
619.786	14411.56
619.981	14180.14
620.176	14384.93
620.371	14026.54
620.566	14257.96
620.761	13801.26
620.956	14217
621.151	13956.91
621.346	14038.83
621.541	13610.8
621.735	13868.84
621.93	13631.28
622.125	13532.98
622.32	13240.12
622.515	13408.05
622.709	13369.14
622.904	13182.77
623.099	13188.92
623.294	13209.4
623.488	12998.46
623.683	13055.8
623.878	12973.88
624.072	12951.35
624.267	12881.72
624.462	13086.52
624.656	12461.89
624.851	12760.89
625.046	12506.95
625.24	12328.77
625.435	12107.59
625.629	12273.48
625.824	12150.6
626.018	12246.85
626.213	12007.24
626.407	12121.93
626.602	11937.61
626.796	11953.99
626.991	11896.65
627.185	11806.54
627.38	11638.61
627.574	11806.54
627.768	11538.26
627.963	11632.46
628.157	11460.43
628.352	11493.2
628.546	11202.39
628.74	11534.16
628.935	11294.55
629.129	11347.79
629.323	10964.82
629.517	11032.41
629.712	11067.22
629.906	11087.7
630.1	11093.85
630.294	11054.94
630.489	10727.26
630.683	10927.96
630.877	10528.61
631.071	10676.06
631.265	10585.95
631.459	10471.26
631.653	10528.61
631.848	10293.09
632.042	10321.76
632.236	10428.26
632.43	10174.31
632.624	10231.65
632.818	10278.76
633.012	10153.83
633.206	10092.39
633.4	10225.51
633.594	9936.74
633.788	9828.2
633.982	9856.87
634.176	10000.23
634.369	9578.35
634.563	9789.29
634.757	9506.67
634.951	9813.87
635.145	9625.45
635.339	9592.69
635.533	9402.22
635.726	9473.9
635.92	9305.97
636.114	9459.57
636.308	9299.83
636.501	9314.16
636.695	9250.67
636.889	9090.93
637.083	9043.83
637.276	8927.1
637.47	9025.4
637.664	9133.94
637.857	9062.26
638.051	8767.35
638.244	8767.35
638.438	8605.56
638.632	8558.46
638.825	8777.59
639.019	8736.63
639.212	8546.17
639.406	8564.61
639.599	8431.49
639.793	8490.88
639.986	8402.82
640.18	8365.95
640.373	8267.65
640.567	8083.33
640.76	8275.84
640.954	8220.55
641.147	8075.14
641.34	8075.14
641.534	8243.07
641.727	7987.08
641.92	7831.43
642.114	7921.54
642.307	7856.01
642.5	7819.14
642.694	7749.51
642.887	7782.28
643.08	7540.62
643.273	7780.23
643.467	7667.6
643.66	7540.62
643.853	7610.25
644.046	7327.63
644.239	7301.01
644.432	7190.42
644.626	7270.29
644.819	7395.22
645.012	7341.97
645.205	7210.9
645.398	7190.42
645.591	7116.69
645.784	7126.93
645.977	6926.23
646.17	6834.07
646.363	6909.85
646.556	6836.12
646.749	6856.6
646.942	6780.82
647.135	6664.09
647.328	6651.8
647.521	6616.99
647.714	6606.75
647.907	6518.68
648.099	6516.64
648.292	6483.87
648.485	6393.76
648.678	6367.13
648.871	6297.5
649.064	6377.37
649.256	6317.98
649.449	6178.72
649.642	6240.16
649.835	6236.06
650.027	6107.04
650.22	6186.91
650.413	6162.34
650.605	6002.6
650.798	5908.39
650.991	5984.16
651.183	6006.69
651.376	5892.01
651.568	5879.72
651.761	5892.01
651.954	5928.87
652.146	5697.45
652.339	5697.45
652.531	5519.28
652.724	5709.74
652.916	5586.86
653.109	5492.65
653.301	5642.15
653.494	5543.85
653.686	5429.17
653.879	5466.03
654.071	5509.04
654.263	5386.16
654.456	5377.97
654.648	5261.23
654.84	5136.31
655.033	5064.63
655.225	5195.7
655.417	5076.91
655.61	5191.6
655.802	5068.72
655.994	4970.42
656.186	5140.4
656.379	5142.45
656.571	5005.24
656.763	4927.41
656.955	4827.06
657.148	4833.21
657.34	4865.97
657.532	4923.32
657.724	4751.29
657.916	4808.63
658.108	4687.8
658.3	4599.74
658.492	4648.89
658.684	4745.14
658.876	4499.39
659.068	4714.42
659.26	4384.7
659.452	4384.7
659.644	4360.13
659.836	4261.82
660.028	4489.15
660.22	4259.77
660.412	4304.83
660.604	4216.77
660.796	4161.47
660.988	4173.76
661.18	4290.49
661.372	4059.07
661.563	4171.71
661.755	4083.65
661.947	4165.57
662.139	4030.4
662.331	4038.59
662.522	3991.49
662.714	3993.54
662.906	3997.63
663.097	3946.44
663.289	3858.37
663.481	3962.82
663.673	3723.21
663.864	3991.49
664.056	3784.65
664.247	3741.64
664.439	3803.08
664.631	3770.31
664.822	3663.82
665.014	3717.06
665.205	3629
665.397	3565.51
665.588	3676.1
665.78	3608.52
665.971	3547.08
666.163	3682.25
666.354	3487.69
666.546	3667.91
666.737	3526.6
666.929	3422.16
667.12	3594.19
667.311	3485.64
667.503	3436.49
667.694	3485.64
667.885	3299.28
668.077	3364.81
668.268	3323.85
668.459	3293.13
668.651	3293.13
668.842	3209.17
669.033	3317.71
669.224	3268.56
669.416	3237.84
669.607	3174.35
669.798	3114.96
669.989	3260.37
670.18	3186.64
670.371	3125.2
670.563	3074
670.754	3096.53
670.945	3127.25
671.136	3082.19
671.327	3082.19
671.518	3108.82
671.709	3094.48
671.9	2975.7
672.091	3071.95
672.282	2889.68
672.473	2959.31
672.664	2981.84
672.855	2975.7
673.046	2981.84
673.237	2918.36
673.428	2938.84
673.619	2910.16
673.809	2944.98
674	2887.64
674.191	2731.99
674.382	2881.49
674.573	2834.39
674.764	2871.25
674.954	2930.64
675.145	2838.48
675.336	2828.24
675.527	2789.33
675.717	2869.2
675.908	2738.13
676.099	2699.22
676.289	2697.17
676.48	2723.8
676.671	2701.27
676.861	2701.27
677.052	2617.3
677.243	2818.01
677.433	2738.13
677.624	2695.13
677.814	2678.74
678.005	2633.69
678.195	2478.04
678.386	2494.43
678.576	2465.75
678.767	2619.35
678.957	2590.68
679.148	2639.83
679.338	2598.87
679.529	2600.92
679.719	2566.1
679.909	2580.44
680.1	2543.58
680.29	2598.87
680.481	2525.15
680.671	2496.47
680.861	2488.28
681.052	2523.1
681.242	2527.19
681.432	2580.44
681.622	2527.19
681.813	2406.36
682.003	2516.95
682.193	2504.67
682.383	2588.63
682.573	2486.23
682.764	2361.31
682.954	2439.13
683.144	2410.46
683.334	2459.61
683.524	2469.85
683.714	2418.65
683.904	2465.75
684.094	2420.7
684.284	2426.84
684.474	2410.46
684.664	2414.56
684.854	2357.21
685.044	2494.43
685.234	2371.55
685.424	2418.65
685.614	2334.68
685.804	2387.93
685.994	2363.36
686.184	2496.47
686.374	2410.46
686.564	2449.37
686.753	2316.25
686.943	2285.53
687.133	2316.25
687.323	2353.12
687.513	2375.64
687.702	2445.27
687.892	2248.67
688.082	2271.2
688.272	2318.3
688.461	2377.69
688.651	2385.88
688.841	2275.29
689.03	2179.04
689.22	2273.25
689.41	2211.81
689.599	2338.78
689.789	2254.81
689.979	2273.25
690.168	2324.44
690.358	2346.97
690.547	2353.12
690.737	2365.4
690.926	2234.33
691.116	2254.81
691.305	2303.96
691.495	2275.29
691.684	2246.62
691.874	2281.44
692.063	2215.9
692.252	2199.52
692.442	2289.63
692.631	2297.82
692.82	2263.01
693.01	2197.47
693.199	2281.44
693.388	2191.33
693.578	2224.09
693.767	2355.16
693.956	2242.53
694.146	2176.99
694.335	2093.02
694.524	2222.05
694.713	2152.42
694.902	2258.91
695.092	2269.15
695.281	2279.39
695.47	2240.48
695.659	2271.2
695.848	2164.7
696.037	2242.53
696.226	2238.43
696.415	2377.69
696.604	2250.72
696.793	2199.52
696.982	2224.09
697.171	2224.09
697.36	2246.62
697.549	2336.73
697.738	2217.95
697.927	2217.95
698.116	2224.09
698.305	2303.96
698.494	2205.66
698.683	2199.52
698.872	2234.33
699.061	2240.48
699.25	2244.57
699.438	2248.67
699.627	2230.24
699.816	2125.79
700.005	2199.52
700.193	2189.28
700.382	2209.76
700.571	2183.13
700.76	2176.99
700.948	2150.37
701.137	2095.07
701.326	2136.03
701.514	2033.63
701.703	2287.58
701.892	2125.79
702.08	2140.13
702.269	2090.98
702.457	2222.05
702.646	2197.47
702.834	2099.17
703.023	2060.26
703.212	2156.51
703.4	2160.61
703.589	2078.69
703.777	2144.22
703.965	2181.09
704.154	2123.74
704.342	2009.06
704.531	2027.49
704.719	2025.44
704.907	2090.98
705.096	2011.11
705.284	2033.63
705.472	2060.26
705.661	2017.25
705.849	2066.4
706.037	2023.39
706.226	2072.54
706.414	2047.97
706.602	1953.76
706.79	2052.06
706.979	2064.35
707.167	2050.02
707.355	1982.43
707.543	1896.42
707.731	1955.81
707.919	1925.09
708.107	1935.33
708.296	1904.61
708.484	1951.71
708.672	2017.25
708.86	1927.14
709.048	1929.19
709.236	1990.63
709.424	1888.23
709.612	1873.89
709.8	1884.13
709.988	1802.21
710.176	1931.23
710.364	1996.77
710.551	1789.92
710.739	1812.45
710.927	1816.55
711.115	1898.47
711.303	1726.44
711.491	1748.97
711.679	1818.6
711.866	1771.49
712.054	1877.99
712.242	1828.84
712.43	1789.92
712.617	1660.9
712.805	1761.25
712.993	1832.93
713.181	1685.48
713.368	1730.53
713.556	1759.21
713.744	1726.44
713.931	1763.3
714.119	1720.29
714.306	1726.44
714.494	1667.05
714.682	1681.38
714.869	1669.09
715.057	1736.68
715.244	1705.96
715.432	1697.77
715.619	1662.95
715.807	1609.7
715.994	1683.43
716.182	1716.2
716.369	1677.29
716.556	1648.61
716.744	1646.57
716.931	1660.9
717.119	1662.95
717.306	1636.33
717.493	1533.93
717.681	1558.5
717.868	1607.66
718.055	1593.32
718.242	1566.7
718.43	1460.2
718.617	1513.45
718.804	1605.61
718.991	1538.02
719.179	1525.74
719.366	1533.93
719.553	1492.97
719.74	1531.88
719.927	1529.83
720.114	1492.97
720.301	1529.83
720.488	1464.3
720.676	1454.06
720.863	1409
721.05	1396.71
721.237	1456.11
721.424	1452.01
721.611	1468.39
721.798	1464.3
721.985	1357.8
722.172	1366
722.358	1341.42
722.545	1345.52
722.732	1339.37
722.919	1341.42
723.106	1361.9
723.293	1406.95
723.48	1402.86
723.667	1253.36
723.853	1279.98
724.04	1304.56
724.227	1247.21
724.414	1263.6
724.6	1427.43
724.787	1306.6
724.974	1322.99
725.161	1251.31
725.347	1277.93
725.534	1136.62
725.72	1212.4
725.907	1226.73
726.094	1279.98
726.28	1206.25
726.467	1191.92
726.653	1239.02
726.84	1263.6
727.027	1339.37
727.213	1243.12
727.4	1282.03
727.586	1204.21
727.773	1165.29
727.959	1167.34
728.145	1189.87
728.332	1230.83
728.518	1200.11
728.705	1138.67
728.891	1179.63
729.077	1175.53
729.264	1228.78
729.45	1175.53
729.636	1259.5
729.823	1212.4
730.009	1206.25
730.195	1077.23
730.382	1161.2
730.568	1126.38
730.754	1073.14
730.94	1136.62
731.126	1116.14
731.313	1177.58
731.499	1189.87
731.685	1075.18
731.871	1124.33
732.057	1122.29
732.243	1140.72
732.429	1095.66
732.615	1116.14
732.801	1099.76
732.987	1015.79
733.173	1081.33
733.359	1095.66
733.545	1060.85
733.731	1101.81
733.917	1114.09
734.103	1087.47
734.289	1052.66
734.475	954.35
734.661	1009.65
734.847	1042.42
735.033	1013.74
735.219	1038.32
735.404	1013.74
735.59	995.31
735.776	1075.18
735.962	1023.98
736.148	1023.98
736.333	993.26
736.519	1069.04
736.705	1085.42
736.89	952.31
737.076	985.07
737.262	940.02
737.447	1007.6
737.633	1032.18
737.819	837.62
738.004	964.59
738.19	937.97
738.375	966.64
738.561	958.45
738.747	931.83
738.932	944.11
739.118	862.19
739.303	903.15
739.489	970.74
739.674	911.35
739.859	913.39
740.045	921.59
740.23	915.44
740.416	843.76
740.601	921.59
740.786	892.91
740.972	866.29
741.157	929.78
741.342	880.63
741.528	794.61
741.713	944.11
741.898	915.44
742.084	856.05
742.269	870.39
742.454	907.25
742.639	882.67
742.824	854
743.01	829.43
743.195	870.39
743.38	780.28
743.565	798.71
743.75	856.05
743.935	710.65
744.12	798.71
744.305	813.04
744.49	831.48
744.675	718.84
744.86	841.72
745.045	761.84
745.23	790.52
745.415	743.41
745.6	761.84
745.785	739.32
745.97	782.32
746.155	800.76
746.34	692.21
746.525	821.24
746.71	641.01
746.895	774.13
747.079	712.69
747.264	684.02
747.449	757.75
747.634	690.17
747.819	681.97
748.003	694.26
748.188	716.79
748.373	702.45
748.557	743.41
748.742	749.56
748.927	708.6
749.111	729.08
749.296	759.8
749.481	643.06
749.665	724.98
749.85	743.41
750.034	722.93
750.219	649.21
750.404	587.77
750.588	724.98
750.773	632.82
750.957	657.4
751.141	659.45
751.326	591.86
751.51	618.49
751.695	698.36
751.879	632.82
752.064	641.01
752.248	681.97
752.432	659.45
752.617	614.39
752.801	673.78
752.985	608.25
753.17	602.1
753.354	602.1
753.538	616.44
753.722	618.49
753.907	536.57
754.091	604.15
754.275	581.62
754.459	550.9
754.643	573.43
754.828	456.7
755.012	567.29
755.196	552.95
755.38	526.33
755.564	587.77
755.748	546.81
755.932	477.18
756.116	505.85
756.3	544.76
756.484	536.57
756.668	532.47
756.852	540.66
757.036	528.38
757.22	509.94
757.404	456.7
757.588	555
757.772	462.84
757.956	530.42
758.14	491.51
758.323	509.94
758.507	526.33
758.691	538.62
758.875	528.38
759.059	530.42
759.242	466.94
759.426	526.33
759.61	483.32
759.794	430.07
759.977	479.22
760.161	524.28
760.345	446.46
760.528	528.38
760.712	497.66
760.895	528.38
761.079	507.9
761.263	511.99
761.446	364.54
761.63	454.65
761.813	448.51
761.997	485.37
762.18	425.98
762.364	374.78
762.547	393.21
762.731	528.38
762.914	534.52
763.098	442.36
763.281	389.11
763.464	446.46
763.648	428.03
763.831	440.31
764.015	446.46
764.198	532.47
764.381	415.74
764.564	342.01
764.748	391.16
764.931	313.34
765.114	385.02
765.297	434.17
765.481	456.7
765.664	413.69
765.847	423.93
766.03	395.26
766.213	446.46
766.397	430.07
766.58	321.53
766.763	423.93
766.946	430.07
767.129	397.31
767.312	366.59
767.495	438.27
767.678	378.87
767.861	399.35
768.044	468.98
768.227	413.69
768.41	313.34
768.593	399.35
768.776	323.58
768.959	399.35
769.142	436.22
769.324	380.92
769.507	337.91
769.69	391.16
769.873	323.58
770.056	372.73
770.239	413.69
770.421	372.73
770.604	395.26
770.787	296.96
770.97	401.4
771.152	335.87
771.335	346.11
771.518	415.74
771.7	307.2
771.883	354.3
772.066	307.2
772.248	333.82
772.431	294.91
772.613	395.26
772.796	399.35
772.978	307.2
773.161	296.96
773.343	354.3
773.526	444.41
773.708	354.3
773.891	288.76
774.073	436.22
774.256	262.14
774.438	331.77
774.621	350.2
774.803	333.82
774.985	342.01
775.168	290.81
775.35	346.11
775.532	323.58
775.715	301.05
775.897	325.63
776.079	276.48
776.261	307.2
776.444	356.35
776.626	342.01
776.808	299
776.99	397.31
777.173	307.2
777.355	280.57
777.537	278.52
777.719	315.39
777.901	266.24
778.083	239.61
778.265	305.15
778.447	286.72
778.629	286.72
778.811	280.57
778.993	260.09
779.175	212.99
779.357	268.28
779.539	210.94
779.721	274.43
779.903	288.76
780.085	315.39
780.267	256
780.449	270.33
780.631	346.11
780.812	249.85
780.994	270.33
781.176	264.19
781.358	239.61
781.54	280.57
781.721	315.39
781.903	256
782.085	266.24
782.267	174.08
782.448	260.09
782.63	276.48
782.812	280.57
782.993	210.94
783.175	206.84
783.357	174.08
783.538	303.1
783.72	237.56
783.901	243.71
784.083	303.1
784.264	247.8
784.446	184.32
784.627	196.61
784.809	186.37
784.99	192.51
785.172	143.36
785.353	229.37
785.535	256
785.716	225.28
785.897	208.89
786.079	208.89
786.26	165.89
786.441	292.86
786.623	217.08
786.804	206.84
786.985	129.02
787.167	129.02
787.348	200.7
787.529	245.76
787.71	178.17
787.891	231.42
788.073	155.65
788.254	202.75
788.435	190.46
788.616	143.36
788.797	157.69
788.978	235.52
789.159	227.32
789.34	165.89
789.522	188.41
789.703	163.84
789.884	198.65
790.065	247.8
790.246	215.04
790.427	176.13
790.607	120.83
790.788	190.46
790.969	100.35
791.15	188.41
791.331	200.7
791.512	198.65
791.693	202.75
791.874	133.12
792.054	233.47
792.235	135.17
792.416	100.35
792.597	190.46
792.778	145.41
792.958	145.41
793.139	149.5
793.32	210.94
793.5	182.27
793.681	165.89
793.862	165.89
794.042	133.12
794.223	249.85
794.404	141.31
794.584	174.08
794.765	198.65
794.945	133.12
795.126	133.12
795.306	108.54
795.487	153.6
795.667	180.22
795.848	165.89
796.028	157.69
796.209	116.73
796.389	83.97
796.57	169.98
796.75	100.35
796.93	174.08
797.111	139.26
797.291	114.69
797.471	163.84
797.652	172.03
797.832	153.6
798.012	157.69
798.192	67.58
798.373	69.63
798.553	133.12
798.733	151.55
798.913	198.65
799.093	172.03
799.274	118.78
799.454	110.59
799.634	129.02
799.814	106.49
799.994	163.84
800.174	165.89
800.354	16.38
800.534	151.55
800.714	186.37
800.894	165.89
801.074	157.69
801.254	145.41
801.434	141.31
801.614	149.5
801.794	137.21
801.974	348.15
802.154	124.93
802.334	180.22
802.514	112.64
802.693	86.01
802.873	55.3
803.053	34.82
803.233	147.45
803.413	124.93
803.592	63.49
803.772	81.92
803.952	38.91
804.131	129.02
804.311	116.73
804.491	124.93
804.67	131.07
804.85	79.87
805.03	92.16
805.209	157.69
805.389	153.6
805.568	75.77
805.748	79.87
805.928	18.43
806.107	38.91
806.287	102.4
806.466	145.41
806.646	110.59
806.825	61.44
807.004	38.91
807.184	110.59
807.363	124.93
807.543	106.49
807.722	124.93
807.901	59.39
808.081	118.78
808.26	169.98
808.439	118.78
808.619	45.06
808.798	151.55
808.977	75.77
809.156	77.82
809.336	133.12
809.515	94.21
809.694	61.44
809.873	145.41
810.052	81.92
810.231	36.86
810.411	116.73
810.59	131.07
810.769	-6.14
810.948	174.08
811.127	120.83
811.306	114.69
811.485	141.31
811.664	86.01
811.843	133.12
812.022	133.12
812.201	55.3
812.38	69.63
812.559	51.2
812.737	147.45
812.916	118.78
813.095	124.93
813.274	30.72
813.453	69.63
813.632	83.97
813.811	141.31
813.989	36.86
814.168	69.63
814.347	55.3
814.526	104.45
814.704	51.2
814.883	147.45
815.062	94.21
815.24	102.4
815.419	51.2
815.598	75.77
815.776	14.34
815.955	26.62
816.133	53.25
816.312	116.73
816.49	-32.77
816.669	90.11
816.847	129.02
817.026	149.5
817.204	73.73
817.383	86.01
817.561	-2.05
817.74	38.91
817.918	43.01
818.097	75.77
818.275	108.54
818.453	10.24
818.632	51.2
818.81	94.21
818.988	71.68
819.167	30.72
819.345	55.3
819.523	86.01
819.701	2.05
819.879	20.48
820.058	90.11
820.236	-34.82
820.414	38.91
820.592	81.92
820.77	71.68
820.948	59.39
821.127	-2.05
821.305	67.58
821.483	2.05
821.661	36.86
821.839	92.16
822.017	20.48
822.195	2.05
822.373	86.01
822.551	-18.43
822.729	55.3
822.907	75.77
823.085	43.01
823.262	94.21
823.44	73.73
823.618	0
823.796	2.05
823.974	104.45
824.152	4.1
824.329	118.78
824.507	114.69
824.685	-4.1
824.863	71.68
825.04	43.01
825.218	43.01
825.396	43.01
825.574	12.29
825.751	-34.82
825.929	59.39
826.107	75.77
826.284	43.01
826.462	43.01
826.639	43.01
826.817	12.29
826.994	16.38
827.172	79.87
827.349	59.39
827.527	71.68
827.704	73.73
827.882	28.67
828.059	67.58
828.237	-22.53
828.414	57.34
828.591	36.86
828.769	32.77
828.946	26.62
829.124	16.38
829.301	22.53
829.478	47.1
829.655	-14.34
829.833	88.06
830.01	-28.67
830.187	67.58
830.364	102.4
830.542	20.48
830.719	63.49
830.896	112.64
831.073	20.48
831.25	75.77
831.427	63.49
831.604	-10.24
831.782	26.62
831.959	53.25
832.136	90.11
832.313	30.72
832.49	20.48
832.667	-4.1
832.844	-10.24
833.021	-6.14
833.198	88.06
833.374	61.44
833.551	34.82
833.728	36.86
833.905	0
834.082	69.63
834.259	-22.53
834.436	12.29
834.612	43.01
834.789	43.01
834.966	-79.87
835.143	51.2
835.319	-43.01
835.496	38.91
835.673	36.86
835.85	135.17
836.026	34.82
836.203	67.58
836.38	75.77
836.556	47.1
836.733	34.82
836.909	-2.05
837.086	-20.48
837.262	67.58
837.439	10.24
837.616	22.53
837.792	-6.14
837.968	-12.29
838.145	-6.14
838.321	14.34
838.498	40.96
838.674	43.01
838.851	-59.39
839.027	-45.06
839.203	-34.82
839.38	43.01
839.556	0
839.732	10.24
839.909	16.38
840.085	43.01
840.261	-4.1
840.437	14.34
840.614	104.45
840.79	94.21
840.966	16.38
841.142	8.19
841.318	-8.19
841.494	36.86
841.671	-6.14
841.847	6.14
842.023	45.06
842.199	-6.14
842.375	126.97
842.551	67.58
842.727	12.29
842.903	67.58
843.079	-2.05
843.255	14.34
843.431	40.96
843.607	40.96
843.783	38.91
843.959	110.59
844.134	20.48
844.31	63.49
844.486	8.19
844.662	4.1
844.838	65.53
845.013	49.15
845.189	36.86
845.365	36.86
845.541	-18.43
845.716	36.86
845.892	49.15
846.068	0
846.244	34.82
846.419	-12.29
846.595	2.05
846.77	-4.1
846.946	43.01
847.122	53.25
847.297	20.48
847.473	114.69
847.648	12.29
847.824	43.01
847.999	-2.05
848.175	30.72
848.35	71.68
848.526	77.82
848.701	24.58
848.876	77.82
849.052	20.48
849.227	16.38
849.403	12.29
849.578	-2.05
849.753	63.49
849.929	18.43
850.104	2.05
850.279	67.58
850.454	-75.77
850.63	-12.29
850.805	-22.53
850.98	-67.58
851.155	81.92
851.33	57.34
851.505	-14.34
851.681	53.25
851.856	36.86
852.031	18.43
852.206	-10.24
852.381	49.15
852.556	26.62
852.731	86.01
852.906	86.01
853.081	26.62
853.256	4.1
853.431	51.2
853.606	26.62
853.781	26.62
853.956	-4.1
854.131	92.16
854.305	49.15
854.48	20.48
854.655	67.58
854.83	65.53
855.005	34.82
855.18	75.77
855.354	10.24
855.529	55.3
855.704	30.72
855.879	12.29
856.053	22.53
856.228	34.82
856.403	-2.05
856.577	20.48
856.752	-20.48
856.926	34.82
857.101	57.34
857.276	2.05
857.45	-16.38
857.625	-20.48
857.799	47.1
857.974	32.77
858.148	-57.34
858.323	-2.05
858.497	32.77
858.672	36.86
858.846	20.48
859.02	71.68
859.195	75.77
859.369	38.91
859.543	-22.53
859.718	100.35
859.892	51.2
860.066	45.06
860.241	6.14
860.415	-22.53
860.589	38.91
860.763	-28.67
860.938	67.58
861.112	-53.25
861.286	30.72
861.46	79.87
861.634	57.34
861.808	-10.24
861.982	-18.43
862.157	-8.19
862.331	32.77
862.505	36.86
862.679	14.34
862.853	-20.48
863.027	-30.72
863.201	-4.1
863.375	-36.86
863.549	88.06
863.722	71.68
863.896	26.62
864.07	8.19
864.244	2.05
864.418	22.53
864.592	-51.2
864.766	6.14
864.939	28.67
865.113	0
865.287	-10.24
865.461	34.82
865.634	-14.34
865.808	-12.29
865.982	59.39
866.156	-12.29
866.329	10.24
866.503	36.86
866.676	6.14
866.85	16.38
867.024	40.96
867.197	-2.05
867.371	-77.82
867.544	-6.14
867.718	-49.15
867.891	14.34
868.065	-6.14
868.238	18.43
868.412	53.25
868.585	-49.15
868.759	34.82
868.932	-40.96
869.105	-2.05
869.279	18.43
869.452	59.39
869.625	-34.82
869.799	10.24
869.972	-61.44
870.145	75.77
870.319	4.1
870.492	-77.82
870.665	20.48
870.838	28.67
871.011	-28.67
871.185	-28.67
871.358	18.43
871.531	18.43
871.704	-2.05
871.877	81.92
872.05	26.62
872.223	-45.06
872.396	16.38
872.569	24.58
872.742	34.82
872.915	-14.34
873.088	28.67
873.261	-16.38
873.434	26.62
873.607	-14.34
873.78	57.34
873.953	-16.38
874.126	6.14
874.299	-20.48
874.471	-20.48
874.644	0
874.817	30.72
874.99	45.06
875.163	-18.43
875.335	67.58
875.508	-2.05
875.681	63.49
875.853	-14.34
876.026	43.01
876.199	10.24
876.371	18.43
876.544	34.82
876.717	2.05
876.889	-63.49
877.062	-2.05
877.234	43.01
877.407	-45.06
877.579	20.48
877.752	49.15
877.924	-28.67
878.097	34.82
878.269	30.72
878.442	26.62
878.614	-55.3
878.786	-26.62
878.959	73.73
879.131	34.82
879.303	-4.1
879.476	32.77
879.648	14.34
879.82	10.24
879.993	14.34
880.165	16.38
880.337	-30.72
880.509	79.87
880.681	22.53
880.854	2.05
881.026	75.77
881.198	53.25
881.37	20.48
881.542	-55.3
881.714	16.38
881.886	-28.67
882.058	-12.29
882.23	24.58
882.402	38.91
882.574	51.2
882.746	14.34
882.918	65.53
883.09	20.48
883.262	-16.38
883.434	51.2
883.606	16.38
883.778	-34.82
883.95	-2.05
884.122	-51.2
884.293	-12.29
884.465	38.91
884.637	55.3
884.809	36.86
884.98	51.2
885.152	63.49
885.324	32.77
885.496	-38.91
885.667	4.1
885.839	-20.48
886.011	10.24
886.182	-59.39
886.354	-47.1
886.525	26.62
886.697	104.45
886.869	-18.43
887.04	81.92
887.212	-12.29
887.383	30.72
887.555	43.01
887.726	-2.05
887.897	14.34
888.069	34.82
888.24	-36.86
888.412	26.62
888.583	-10.24
888.754	43.01
888.926	-22.53
889.097	-38.91
889.268	69.63
889.44	-40.96
889.611	36.86
889.782	20.48
889.953	-10.24
890.125	36.86
890.296	-14.34
890.467	-57.34
890.638	63.49
890.809	53.25
890.98	2.05
891.151	-8.19
891.323	38.91
891.494	83.97
891.665	-71.68
891.836	2.05
892.007	20.48
892.178	81.92
892.349	-6.14
892.52	-14.34
892.691	-2.05
892.862	75.77
893.032	-34.82
893.203	-36.86
893.374	10.24
893.545	-10.24
893.716	-16.38
893.887	-18.43
894.057	-2.05
894.228	69.63
894.399	18.43
894.57	-4.1
894.74	92.16
894.911	-4.1
895.082	-30.72
895.253	-6.14
895.423	24.58
895.594	-14.34
895.764	-2.05
895.935	69.63
896.106	-71.68
896.276	40.96
896.447	63.49
896.617	43.01
896.788	-34.82
896.958	-20.48
897.129	6.14
897.299	16.38
897.47	-28.67
897.64	40.96
897.81	0
897.981	-10.24
898.151	-43.01
898.322	-77.82
898.492	20.48
898.662	-47.1
898.832	-8.19
899.003	-45.06
899.173	12.29
899.343	73.73
899.513	26.62
