Data from USB4F104151__131__13-58-01-637.txt Node

Date: Thu Mar 13 13:58:01 EDT 2025
User: louis
Spectrometer: USB4F10415
Trigger mode: 4
Integration Time (sec): 1.000000E-2
Scans to average: 1
Electric dark correction enabled: true
Nonlinearity correction enabled: false
Boxcar width: 0
XAxis mode: Wavelengths
Number of Pixels in Spectrum: 3648
>>>>>Begin Spectral Data<<<<<
178.204	-71.85
178.424	-71.85
178.644	-71.85
178.864	-47.27
179.084	-20.65
179.304	-22.7
179.524	26.45
179.744	5.97
179.964	-4.27
180.184	-16.55
180.404	-4.27
180.624	-4.27
180.844	32.6
181.064	22.36
181.283	-2.22
181.503	1.88
181.723	-34.99
181.943	3.93
182.163	32.6
182.383	48.98
182.602	36.69
182.822	-28.84
183.042	24.4
183.262	22.36
183.482	26.45
183.701	-0.17
183.921	-53.42
184.141	-10.41
184.361	51.03
184.58	-69.8
184.8	-8.36
185.02	-14.51
185.239	69.46
185.459	-14.51
185.679	16.21
185.898	-10.41
186.118	-43.18
186.338	36.69
186.557	67.41
186.777	10.07
186.997	65.36
187.216	-2.22
187.436	36.69
187.655	65.36
187.875	69.46
188.095	16.21
188.314	48.98
188.534	22.36
188.753	40.79
188.973	-53.42
189.192	-0.17
189.412	-47.27
189.631	-4.27
189.851	-12.46
190.07	5.97
190.29	77.65
190.509	-14.51
190.729	71.51
190.948	-10.41
191.168	67.41
191.387	18.26
191.607	20.31
191.826	-43.18
192.045	-45.23
192.265	-12.46
192.484	65.36
192.704	1.88
192.923	-4.27
193.142	36.69
193.362	32.6
193.581	-34.99
193.8	14.17
194.02	-8.36
194.239	-4.27
194.458	34.64
194.678	-82.09
194.897	22.36
195.116	-6.31
195.335	100.18
195.555	-26.79
195.774	-51.37
195.993	40.79
196.212	36.69
196.432	-41.13
196.651	-18.6
196.87	-4.27
197.089	55.12
197.308	-26.79
197.528	-2.22
197.747	24.4
197.966	44.88
198.185	1.88
198.404	-16.55
198.623	42.84
198.842	55.12
199.062	-57.51
199.281	48.98
199.5	69.46
199.719	12.12
199.938	16.21
200.157	-18.6
200.376	38.74
200.595	44.88
200.814	38.74
201.033	18.26
201.252	-0.17
201.471	44.88
201.69	36.69
201.909	69.46
202.128	5.97
202.347	69.46
202.566	-24.75
202.785	-4.27
203.004	-28.84
203.223	18.26
203.442	-0.17
203.661	-20.65
203.879	-43.18
204.098	44.88
204.317	28.5
204.536	3.93
204.755	73.56
204.974	22.36
205.193	-18.6
205.411	69.46
205.63	-30.89
205.849	-12.46
206.068	53.08
206.287	12.12
206.505	-28.84
206.724	16.21
206.943	-18.6
207.162	-16.55
207.381	-45.23
207.599	-45.23
207.818	42.84
208.037	51.03
208.255	3.93
208.474	5.97
208.693	8.02
208.911	32.6
209.13	53.08
209.349	36.69
209.567	20.31
209.786	46.93
210.005	-0.17
210.223	-32.94
210.442	46.93
210.661	-2.22
210.879	1.88
211.098	-18.6
211.316	-10.41
211.535	59.22
211.753	12.12
211.972	-14.51
212.191	59.22
212.409	55.12
212.628	42.84
212.846	-10.41
213.065	-24.75
213.283	24.4
213.502	30.55
213.72	8.02
213.938	8.02
214.157	-14.51
214.375	26.45
214.594	38.74
214.812	16.21
215.031	-61.61
215.249	14.17
215.467	-18.6
215.686	-28.84
215.904	79.7
216.122	36.69
216.341	8.02
216.559	14.17
216.778	-51.37
216.996	16.21
217.214	-4.27
217.432	-26.79
217.651	-10.41
217.869	-10.41
218.087	-32.94
218.306	14.17
218.524	55.12
218.742	-39.08
218.96	59.22
219.179	14.17
219.397	79.7
219.615	12.12
219.833	77.65
220.051	32.6
220.27	16.21
220.488	-4.27
220.706	-43.18
220.924	-32.94
221.142	-26.79
221.36	-34.99
221.578	12.12
221.796	22.36
222.015	-26.79
222.233	-43.18
222.451	83.8
222.669	-53.42
222.887	36.69
223.105	61.27
223.323	40.79
223.541	-26.79
223.759	1.88
223.977	40.79
224.195	55.12
224.413	22.36
224.631	-14.51
224.849	-10.41
225.067	-18.6
225.285	-20.65
225.503	85.84
225.721	-37.03
225.939	3.93
226.157	5.97
226.375	3.93
226.592	1.88
226.81	-28.84
227.028	40.79
227.246	12.12
227.464	14.17
227.682	55.12
227.9	-63.66
228.117	73.56
228.335	85.84
228.553	30.55
228.771	30.55
228.989	98.13
229.206	1.88
229.424	-2.22
229.642	18.26
229.86	12.12
230.077	40.79
230.295	-26.79
230.513	34.64
230.731	-47.27
230.948	40.79
231.166	59.22
231.384	53.08
231.601	12.12
231.819	30.55
232.037	-16.55
232.254	-28.84
232.472	3.93
232.689	16.21
232.907	-59.56
233.125	14.17
233.342	3.93
233.56	-18.6
233.777	1.88
233.995	-53.42
234.213	-67.75
234.43	36.69
234.648	10.07
234.865	1.88
235.083	42.84
235.3	-12.46
235.518	-8.36
235.735	59.22
235.953	22.36
236.17	-0.17
236.388	36.69
236.605	5.97
236.822	24.4
237.04	26.45
237.257	65.36
237.475	8.02
237.692	73.56
237.909	48.98
238.127	48.98
238.344	-51.37
238.562	-61.61
238.779	-12.46
238.996	-4.27
239.214	1.88
239.431	59.22
239.648	36.69
239.865	-4.27
240.083	12.12
240.3	-55.47
240.517	-8.36
240.735	36.69
240.952	12.12
241.169	36.69
241.386	5.97
241.603	71.51
241.821	-10.41
242.038	-4.27
242.255	-16.55
242.472	36.69
242.689	-57.51
242.907	-32.94
243.124	65.36
243.341	38.74
243.558	-41.13
243.775	-34.99
243.992	10.07
244.209	5.97
244.426	-30.89
244.643	-16.55
244.86	-47.27
245.078	120.66
245.295	-14.51
245.512	22.36
245.729	-37.03
245.946	20.31
246.163	59.22
246.38	139.09
246.597	79.7
246.814	48.98
247.031	-28.84
247.248	-10.41
247.464	63.32
247.681	16.21
247.898	-14.51
248.115	-2.22
248.332	55.12
248.549	-0.17
248.766	40.79
248.983	-10.41
249.2	28.5
249.417	20.31
249.633	-18.6
249.85	16.21
250.067	-26.79
250.284	16.21
250.501	79.7
250.717	71.51
250.934	-49.32
251.151	5.97
251.368	-4.27
251.585	-10.41
251.801	77.65
252.018	-26.79
252.235	24.4
252.451	-32.94
252.668	-24.75
252.885	46.93
253.102	20.31
253.318	-73.9
253.535	40.79
253.752	-34.99
253.968	-20.65
254.185	-8.36
254.401	-2.22
254.618	-26.79
254.835	3.93
255.051	65.36
255.268	-6.31
255.484	12.12
255.701	8.02
255.917	-16.55
256.134	48.98
256.351	20.31
256.567	12.12
256.784	94.04
257	32.6
257.217	38.74
257.433	-8.36
257.65	14.17
257.866	26.45
258.082	-28.84
258.299	32.6
258.515	100.18
258.732	-24.75
258.948	-51.37
259.165	57.17
259.381	-12.46
259.597	-4.27
259.814	5.97
260.03	55.12
260.246	-28.84
260.463	-18.6
260.679	36.69
260.895	-34.99
261.112	32.6
261.328	-4.27
261.544	-84.14
261.761	34.64
261.977	34.64
262.193	-8.36
262.409	-16.55
262.626	22.36
262.842	-0.17
263.058	20.31
263.274	-26.79
263.49	-18.6
263.707	30.55
263.923	8.02
264.139	51.03
264.355	-47.27
264.571	55.12
264.787	30.55
265.004	-63.66
265.22	26.45
265.436	22.36
265.652	8.02
265.868	12.12
266.084	-4.27
266.3	3.93
266.516	28.5
266.732	83.8
266.948	-8.36
267.164	-41.13
267.38	22.36
267.596	-2.22
267.812	-8.36
268.028	53.08
268.244	-0.17
268.46	-4.27
268.676	32.6
268.892	-0.17
269.108	-69.8
269.324	-28.84
269.54	44.88
269.756	30.55
269.972	-39.08
270.188	-4.27
270.403	-18.6
270.619	30.55
270.835	57.17
271.051	85.84
271.267	-41.13
271.483	57.17
271.698	-12.46
271.914	38.74
272.13	36.69
272.346	24.4
272.562	30.55
272.777	-10.41
272.993	51.03
273.209	24.4
273.425	-10.41
273.64	-8.36
273.856	18.26
274.072	12.12
274.287	48.98
274.503	44.88
274.719	1.88
274.934	12.12
275.15	8.02
275.366	57.17
275.581	65.36
275.797	77.65
276.012	24.4
276.228	-41.13
276.444	18.26
276.659	-10.41
276.875	-55.47
277.09	-12.46
277.306	-26.79
277.521	10.07
277.737	48.98
277.952	-39.08
278.168	20.31
278.383	55.12
278.599	8.02
278.814	32.6
279.03	-61.61
279.245	3.93
279.461	-41.13
279.676	65.36
279.892	-14.51
280.107	-0.17
280.322	-10.41
280.538	38.74
280.753	-12.46
280.969	51.03
281.184	40.79
281.399	-26.79
281.615	10.07
281.83	1.88
282.045	-16.55
282.26	16.21
282.476	16.21
282.691	96.08
282.906	28.5
283.122	48.98
283.337	3.93
283.552	-20.65
283.767	-32.94
283.983	12.12
284.198	24.4
284.413	24.4
284.628	22.36
284.843	-41.13
285.058	59.22
285.274	57.17
285.489	36.69
285.704	32.6
285.919	30.55
286.134	79.7
286.349	-57.51
286.564	67.41
286.779	36.69
286.995	26.45
287.21	-63.66
287.425	22.36
287.64	-18.6
287.855	-4.27
288.07	-43.18
288.285	20.31
288.5	22.36
288.715	44.88
288.93	36.69
289.145	-20.65
289.36	-4.27
289.575	-61.61
289.79	28.5
290.004	79.7
290.219	87.89
290.434	79.7
290.649	-12.46
290.864	-0.17
291.079	42.84
291.294	53.08
291.509	85.84
291.724	28.5
291.938	12.12
292.153	32.6
292.368	-22.7
292.583	-49.32
292.798	61.27
293.012	-10.41
293.227	28.5
293.442	-37.03
293.657	69.46
293.871	-53.42
294.086	48.98
294.301	51.03
294.516	-12.46
294.73	40.79
294.945	8.02
295.16	57.17
295.374	20.31
295.589	24.4
295.804	77.65
296.018	24.4
296.233	26.45
296.447	18.26
296.662	79.7
296.877	10.07
297.091	63.32
297.306	67.41
297.52	-18.6
297.735	20.31
297.949	20.31
298.164	48.98
298.378	16.21
298.593	12.12
298.807	55.12
299.022	28.5
299.236	-39.08
299.451	46.93
299.665	42.84
299.88	-4.27
300.094	22.36
300.309	46.93
300.523	3.93
300.737	-2.22
300.952	-14.51
301.166	16.21
301.381	-100.52
301.595	26.45
301.809	38.74
302.024	-12.46
302.238	48.98
302.452	61.27
302.667	-14.51
302.881	28.5
303.095	36.69
303.309	65.36
303.524	3.93
303.738	-37.03
303.952	-16.55
304.166	-10.41
304.381	-39.08
304.595	44.88
304.809	-16.55
305.023	44.88
305.237	32.6
305.452	-20.65
305.666	14.17
305.88	-39.08
306.094	44.88
306.308	24.4
306.522	22.36
306.736	71.51
306.95	-37.03
307.164	-10.41
307.379	-6.31
307.593	-24.75
307.807	-4.27
308.021	16.21
308.235	85.84
308.449	-2.22
308.663	34.64
308.877	94.04
309.091	34.64
309.305	44.88
309.519	-20.65
309.733	-45.23
309.947	-45.23
310.161	81.75
310.374	-61.61
310.588	57.17
310.802	5.97
311.016	-12.46
311.23	18.26
311.444	14.17
311.658	20.31
311.872	83.8
312.085	-0.17
312.299	87.89
312.513	51.03
312.727	55.12
312.941	-6.31
313.154	-20.65
313.368	-12.46
313.582	28.5
313.796	-8.36
314.009	8.02
314.223	-41.13
314.437	22.36
314.651	-10.41
314.864	-8.36
315.078	24.4
315.292	26.45
315.505	20.31
315.719	91.99
315.933	-18.6
316.146	-34.99
316.36	75.6
316.573	-0.17
316.787	71.51
317.001	48.98
317.214	-88.23
317.428	8.02
317.641	53.08
317.855	53.08
318.068	89.94
318.282	20.31
318.495	51.03
318.709	61.27
318.922	-20.65
319.136	77.65
319.349	51.03
319.563	65.36
319.776	-6.31
319.99	3.93
320.203	34.64
320.417	-6.31
320.63	8.02
320.843	63.32
321.057	20.31
321.27	26.45
321.483	8.02
321.697	10.07
321.91	73.56
322.124	71.51
322.337	73.56
322.55	12.12
322.763	30.55
322.977	59.22
323.19	75.6
323.403	42.84
323.617	18.26
323.83	44.88
324.043	94.04
324.256	26.45
324.469	-45.23
324.683	94.04
324.896	-12.46
325.109	44.88
325.322	-32.94
325.535	8.02
325.748	-51.37
325.962	-2.22
326.175	-14.51
326.388	61.27
326.601	-0.17
326.814	-59.56
327.027	-28.84
327.24	106.32
327.453	-41.13
327.666	3.93
327.879	-34.99
328.092	-30.89
328.305	30.55
328.518	57.17
328.731	3.93
328.944	-12.46
329.157	55.12
329.37	3.93
329.583	100.18
329.796	51.03
330.009	28.5
330.222	44.88
330.435	1.88
330.648	20.31
330.861	-22.7
331.073	61.27
331.286	-14.51
331.499	-28.84
331.712	-22.7
331.925	63.32
332.138	-71.85
332.35	-8.36
332.563	-24.75
332.776	61.27
332.989	-57.51
333.202	-37.03
333.414	-24.75
333.627	1.88
333.84	5.97
334.053	91.99
334.265	-65.71
334.478	5.97
334.691	10.07
334.903	-16.55
335.116	5.97
335.329	42.84
335.541	-18.6
335.754	32.6
335.966	75.6
336.179	-18.6
336.392	55.12
336.604	24.4
336.817	65.36
337.029	53.08
337.242	3.93
337.454	32.6
337.667	-4.27
337.88	12.12
338.092	3.93
338.305	71.51
338.517	8.02
338.729	51.03
338.942	85.84
339.154	-63.66
339.367	8.02
339.579	28.5
339.792	-4.27
340.004	20.31
340.217	24.4
340.429	22.36
340.641	5.97
340.854	3.93
341.066	51.03
341.278	-20.65
341.491	48.98
341.703	36.69
341.915	-0.17
342.128	44.88
342.34	-34.99
342.552	-10.41
342.764	28.5
342.977	-4.27
343.189	22.36
343.401	42.84
343.613	-61.61
343.826	22.36
344.038	-30.89
344.25	18.26
344.462	44.88
344.674	81.75
344.886	-4.27
345.099	-26.79
345.311	40.79
345.523	-4.27
345.735	44.88
345.947	40.79
346.159	-39.08
346.371	26.45
346.583	22.36
346.795	-32.94
347.007	-12.46
347.219	-12.46
347.431	8.02
347.643	14.17
347.855	53.08
348.067	20.31
348.279	10.07
348.491	30.55
348.703	-28.84
348.915	-18.6
349.127	85.84
349.339	102.23
349.551	40.79
349.763	71.51
349.975	-55.47
350.187	135
350.399	67.41
350.61	-16.55
350.822	10.07
351.034	48.98
351.246	63.32
351.458	124.76
351.669	12.12
351.881	61.27
352.093	-4.27
352.305	40.79
352.517	34.64
352.728	-6.31
352.94	48.98
353.152	69.46
353.363	14.17
353.575	18.26
353.787	53.08
353.999	-12.46
354.21	-2.22
354.422	-0.17
354.633	-2.22
354.845	104.28
355.057	14.17
355.268	59.22
355.48	-8.36
355.692	28.5
355.903	-51.37
356.115	30.55
356.326	-69.8
356.538	61.27
356.749	18.26
356.961	42.84
357.172	22.36
357.384	85.84
357.595	116.56
357.807	53.08
358.018	-0.17
358.23	44.88
358.441	18.26
358.653	108.37
358.864	46.93
359.075	-4.27
359.287	18.26
359.498	42.84
359.709	8.02
359.921	81.75
360.132	-4.27
360.344	46.93
360.555	53.08
360.766	71.51
360.977	22.36
361.189	48.98
361.4	3.93
361.611	3.93
361.823	61.27
362.034	79.7
362.245	26.45
362.456	42.84
362.667	22.36
362.879	73.56
363.09	34.64
363.301	44.88
363.512	-28.84
363.723	51.03
363.935	18.26
364.146	-14.51
364.357	5.97
364.568	20.31
364.779	122.71
364.99	65.36
365.201	16.21
365.412	1.88
365.623	5.97
365.834	122.71
366.045	59.22
366.256	126.8
366.467	38.74
366.678	59.22
366.889	14.17
367.1	53.08
367.311	26.45
367.522	26.45
367.733	14.17
367.944	79.7
368.155	12.12
368.366	22.36
368.577	71.51
368.788	61.27
368.999	-12.46
369.209	-20.65
369.42	12.12
369.631	55.12
369.842	40.79
370.053	24.4
370.264	18.26
370.474	55.12
370.685	34.64
370.896	38.74
371.107	5.97
371.317	71.51
371.528	65.36
371.739	24.4
371.95	-45.23
372.16	110.42
372.371	-10.41
372.582	-26.79
372.792	14.17
373.003	-45.23
373.214	-94.38
373.424	38.74
373.635	-2.22
373.846	-20.65
374.056	36.69
374.267	116.56
374.477	48.98
374.688	30.55
374.898	38.74
375.109	22.36
375.319	28.5
375.53	20.31
375.74	-26.79
375.951	32.6
376.161	30.55
376.372	55.12
376.582	38.74
376.793	-4.27
377.003	22.36
377.214	10.07
377.424	96.08
377.635	44.88
377.845	-6.31
378.055	104.28
378.266	-0.17
378.476	42.84
378.686	67.41
378.897	94.04
379.107	28.5
379.317	28.5
379.528	104.28
379.738	34.64
379.948	-8.36
380.158	51.03
380.369	55.12
380.579	-18.6
380.789	34.64
380.999	28.5
381.21	42.84
381.42	46.93
381.63	1.88
381.84	3.93
382.05	20.31
382.261	94.04
382.471	69.46
382.681	48.98
382.891	85.84
383.101	61.27
383.311	5.97
383.521	38.74
383.731	34.64
383.941	30.55
384.151	57.17
384.361	-0.17
384.571	87.89
384.781	55.12
384.991	-14.51
385.201	63.32
385.411	63.32
385.621	28.5
385.831	10.07
386.041	36.69
386.251	55.12
386.461	40.79
386.671	38.74
386.881	85.84
387.091	14.17
387.301	83.8
387.511	-16.55
387.72	-26.79
387.93	55.12
388.14	40.79
388.35	71.51
388.56	32.6
388.769	48.98
388.979	-32.94
389.189	24.4
389.399	38.74
389.609	120.66
389.818	38.74
390.028	65.36
390.238	3.93
390.447	-22.7
390.657	48.98
390.867	-0.17
391.076	24.4
391.286	26.45
391.496	53.08
391.705	18.26
391.915	73.56
392.125	36.69
392.334	28.5
392.544	-32.94
392.753	57.17
392.963	-28.84
393.172	32.6
393.382	85.84
393.591	79.7
393.801	57.17
394.01	85.84
394.22	44.88
394.429	85.84
394.639	-2.22
394.848	32.6
395.058	71.51
395.267	40.79
395.477	26.45
395.686	71.51
395.895	-8.36
396.105	77.65
396.314	36.69
396.524	65.36
396.733	5.97
396.942	147.28
397.152	81.75
397.361	-12.46
397.57	48.98
397.78	83.8
397.989	30.55
398.198	30.55
398.407	110.42
398.617	85.84
398.826	79.7
399.035	16.21
399.244	51.03
399.453	104.28
399.663	46.93
399.872	28.5
400.081	46.93
400.29	63.32
400.499	61.27
400.708	104.28
400.917	8.02
401.127	57.17
401.336	14.17
401.545	42.84
401.754	71.51
401.963	69.46
402.172	44.88
402.381	104.28
402.59	71.51
402.799	22.36
403.008	71.51
403.217	91.99
403.426	85.84
403.635	98.13
403.844	-0.17
404.053	77.65
404.262	85.84
404.471	124.76
404.68	24.4
404.888	61.27
405.097	24.4
405.306	69.46
405.515	85.84
405.724	75.6
405.933	46.93
406.142	132.95
406.35	139.09
406.559	128.85
406.768	118.61
406.977	118.61
407.185	141.14
407.394	130.9
407.603	188.24
407.812	120.66
408.02	169.81
408.229	116.56
408.438	241.49
408.646	182.1
408.855	212.82
409.064	186.19
409.272	206.67
409.481	249.68
409.69	153.43
409.898	257.87
410.107	249.68
410.315	143.19
410.524	159.57
410.733	208.72
410.941	204.63
411.15	284.5
411.358	169.81
411.567	319.31
411.775	247.63
411.984	243.54
412.192	343.89
412.401	280.4
412.609	276.31
412.818	274.26
413.026	302.93
413.234	319.31
413.443	427.85
413.651	425.81
413.86	370.51
414.068	429.9
414.276	319.31
414.485	337.74
414.693	397.14
414.901	442.19
415.11	421.71
415.318	464.72
415.526	448.33
415.734	526.16
415.943	528.21
416.151	597.84
416.359	556.88
416.567	538.45
416.776	593.74
416.984	581.45
417.192	657.23
417.4	620.36
417.608	675.66
417.817	634.7
418.025	692.04
418.233	759.63
418.441	718.67
418.649	741.19
418.857	806.73
419.065	849.74
419.273	798.54
419.481	816.97
419.689	982.85
419.897	962.37
420.105	933.7
420.313	954.18
420.521	1130.31
420.729	1023.81
420.937	1150.79
421.145	1095.49
421.353	1171.27
421.561	1222.47
421.769	1269.57
421.977	1273.67
422.185	1333.06
422.393	1425.22
422.601	1425.22
422.809	1449.79
423.017	1419.07
423.224	1527.61
423.432	1591.1
423.64	1533.76
423.848	1775.42
424.056	1703.74
424.263	1849.15
424.471	1799.99
424.679	1802.04
424.887	1879.86
425.094	2008.89
425.302	2035.51
425.51	2080.57
425.718	2148.15
425.925	2117.43
426.133	2244.4
426.341	2275.12
426.548	2467.63
426.756	2498.35
426.964	2512.69
427.171	2658.09
427.379	2707.24
427.586	2748.2
427.794	2852.65
428.001	3059.49
428.209	3075.88
428.417	3077.93
428.624	3196.71
428.832	3284.77
429.039	3211.04
429.247	3297.06
429.454	3612.45
429.662	3823.39
429.869	3551.01
430.076	3880.73
430.284	3741.47
430.491	3833.63
430.699	4120.34
430.906	3942.17
431.114	4058.9
431.321	4192.02
431.528	4275.99
431.736	4704.01
431.943	4816.65
432.15	4685.58
432.358	4665.1
432.565	4925.19
432.772	4990.73
432.979	5320.45
433.187	5271.3
433.394	5383.94
433.601	5754.62
433.808	5746.43
434.016	5533.44
434.223	5873.4
434.43	6102.78
434.637	6199.03
434.844	6682.35
435.052	6612.72
435.259	6743.79
435.466	6674.16
435.673	6567.67
435.88	7175.91
436.087	7499.49
436.294	7491.3
436.501	7294.69
436.708	7503.59
436.915	7833.31
437.122	8056.54
437.329	8060.63
437.537	8226.52
437.743	8435.41
437.95	8304.34
438.157	8758.99
438.364	9187.02
438.571	8974.03
438.778	9205.45
438.985	10018.49
439.192	9410.25
439.399	9877.18
439.606	9524.93
439.813	10204.86
440.02	10899.12
440.227	10649.27
440.433	10608.31
440.64	10997.42
440.847	11030.19
441.054	11112.11
441.261	11810.47
441.467	11673.25
441.674	11908.77
441.881	12179.1
442.088	12383.9
442.294	12177.05
442.501	12510.87
442.708	12535.45
442.914	13354.63
443.121	13678.21
443.328	13393.54
443.534	14481.02
443.741	13840
443.948	13665.92
444.154	14767.73
444.361	14614.13
444.568	14853.75
444.774	14931.57
444.981	15101.55
445.187	15404.65
445.394	16041.57
445.6	15949.41
445.807	17612.36
446.013	16727.64
446.22	16868.95
446.426	17628.74
446.633	17735.24
446.839	18140.74
447.046	17632.84
447.252	18460.22
447.459	18841.14
447.665	18579
447.871	19566.12
448.078	20004.39
448.284	18988.6
448.491	19834.41
448.697	20704.79
448.903	20704.79
449.11	20942.36
449.316	20739.61
449.522	21132.82
449.728	21677.58
449.935	21562.89
450.141	21898.76
450.347	22148.61
450.553	21755.4
450.76	22113.8
450.966	22730.23
451.172	22277.63
451.378	22877.69
451.584	22367.74
451.791	22889.98
451.997	22926.84
452.203	23578.09
452.409	23318
452.615	22955.51
452.821	22326.78
453.027	22130.18
453.233	23107.06
453.44	22271.49
453.646	22695.42
453.852	22691.32
454.058	23158.26
454.264	22394.37
454.47	22980.09
454.676	22334.98
454.882	23178.74
455.088	20999.7
455.294	21478.93
455.5	22027.78
455.705	21992.97
455.911	21061.14
456.117	20852.25
456.323	20344.35
456.529	19430.96
456.735	20348.45
456.941	19680.81
457.147	19617.32
457.352	18875.96
457.558	18581.05
457.764	18632.25
457.97	18107.97
458.176	17765.96
458.381	18001.47
458.587	17301.07
458.793	16879.19
458.999	16264.8
459.204	17620.55
459.41	16871
459.616	15795.81
459.821	15976.03
460.027	15715.94
460.233	15482.47
460.438	14528.12
460.644	14739.06
460.85	14182.01
461.055	14110.33
461.261	13977.22
461.466	13037.2
461.672	12664.47
461.878	13301.39
462.083	12615.32
462.289	12312.22
462.494	12267.16
462.7	11701.92
462.905	11511.46
463.111	11687.59
463.316	11695.78
463.522	11517.61
463.727	11427.49
463.932	11642.53
464.138	11312.81
464.343	11441.83
464.549	11290.28
464.754	11574.95
464.959	11548.33
465.165	11351.72
465.37	11013.81
465.575	10645.17
465.781	11179.69
465.986	11124.4
466.191	10669.75
466.397	10393.27
466.602	9889.47
466.807	10215.1
467.012	10516.15
467.218	10276.54
467.423	10036.92
467.628	10192.57
467.833	10555.06
468.038	10428.09
468.244	9858.75
468.449	10327.74
468.654	9868.99
468.859	9885.37
469.064	9676.48
469.269	9803.46
469.474	9617.09
469.679	9813.7
469.885	9443.01
470.09	9651.91
470.295	9455.3
470.5	9311.94
470.705	9453.25
470.91	8945.36
471.115	9060.04
471.32	9158.35
471.525	9283.27
471.73	8795.86
471.935	8892.11
472.139	8646.35
472.344	8920.78
472.549	8834.77
472.754	8476.37
472.959	8261.34
473.164	8199.9
473.369	7857.89
473.574	8394.45
473.778	8287.96
473.983	8187.61
474.188	8210.14
474.393	7894.75
474.598	7888.6
474.802	7741.15
475.007	7818.97
475.212	7681.76
475.417	7476.96
475.621	7567.07
475.826	7538.4
476.031	7405.28
476.235	7237.35
476.44	7362.28
476.645	7190.25
476.849	7296.74
477.054	7227.11
477.259	6977.26
477.463	6887.15
477.668	6639.34
477.872	6887.15
478.077	6825.71
478.282	6502.13
478.486	6547.19
478.691	6432.5
478.895	6582
479.1	6588.14
479.304	6551.28
479.509	6299.38
479.713	6354.68
479.918	6078.2
480.122	6385.4
480.326	6360.82
480.531	6276.85
480.735	6293.24
480.94	6153.98
481.144	6375.16
481.348	6086.39
481.553	5902.08
481.757	5930.75
481.961	6178.55
482.166	6223.61
482.37	6225.65
482.574	6006.52
482.778	6133.5
482.983	6156.02
483.187	5934.84
483.391	6199.03
483.595	6027
483.8	5885.69
484.004	5992.19
484.208	6086.39
484.412	5934.84
484.616	6078.2
484.821	6016.76
485.025	5879.55
485.229	5928.7
485.433	5983.99
485.637	5904.12
485.841	6055.67
486.045	5799.68
486.249	6012.67
486.453	6051.58
486.657	6041.34
486.861	5959.42
487.065	6063.86
487.269	6059.77
487.473	5859.07
487.677	5934.84
487.881	5846.78
488.085	5912.32
488.289	6098.68
488.493	6092.54
488.697	6113.02
488.901	6121.21
489.105	6106.87
489.309	6121.21
489.512	6196.98
489.716	6233.85
489.92	6133.5
490.124	6131.45
490.328	6309.62
490.531	6094.58
490.735	6262.52
490.939	6133.5
491.143	6166.26
491.346	6303.48
491.55	6358.77
491.754	6500.08
491.958	6412.02
492.161	6362.87
492.365	6477.55
492.569	6424.31
492.772	6438.64
492.976	6643.44
493.18	6475.51
493.383	6577.9
493.587	6657.78
493.79	6641.39
493.994	6706.93
494.197	6848.24
494.401	6838
494.605	6948.59
494.808	7046.89
495.012	6948.59
495.215	6899.44
495.419	7075.56
495.622	7036.65
495.825	7157.48
496.029	7180.01
496.232	7302.89
496.436	7198.44
496.639	7257.83
496.843	7554.79
497.046	7550.69
497.249	7685.86
497.453	7722.72
497.656	7964.38
497.859	7782.11
498.063	7952.09
498.266	7827.17
498.469	7964.38
498.673	8212.18
498.876	8154.84
499.079	8376.02
499.282	8412.88
499.485	8453.84
499.689	8775.38
499.892	8777.42
500.095	8765.14
500.298	8781.52
500.501	8920.78
500.705	9131.72
500.908	9223.88
501.111	9412.29
501.314	9500.36
501.517	9422.53
501.72	9699.01
501.923	9606.85
502.126	10006.2
502.329	10161.85
502.532	10067.64
502.735	10012.35
502.938	10366.65
503.141	10507.96
503.344	10688.18
503.547	10706.61
503.75	11044.52
503.953	11005.61
504.156	11132.59
504.359	11511.46
504.562	11452.07
504.765	11837.09
504.968	11843.23
505.17	11908.77
505.373	11806.37
505.576	12140.19
505.779	12230.3
505.982	12433.05
506.185	12510.87
506.387	12797.59
506.59	12893.84
506.793	13000.33
506.996	13221.52
507.198	13680.26
507.401	13627.01
507.604	13698.69
507.807	14194.3
508.009	13878.91
508.212	14177.92
508.415	14583.41
508.617	14560.89
508.82	14923.38
509.022	14438.01
509.225	15345.26
509.428	14980.72
509.63	15212.14
509.833	15638.12
510.035	15664.74
510.238	15873.64
510.44	15969.89
510.643	16299.61
510.845	16447.07
511.048	16506.46
511.25	16989.78
511.453	16957.01
511.655	17565.26
511.858	17487.43
512.06	17403.47
512.262	17731.14
512.465	17862.21
512.667	18155.07
512.87	18361.92
513.072	18456.12
513.274	18796.09
513.477	19066.42
513.679	19185.2
513.881	19437.1
514.084	19549.74
514.286	19732.01
514.488	20053.54
514.69	20516.38
514.893	20721.18
515.095	20813.34
515.297	21057.04
515.499	21325.33
515.701	21571.08
515.904	21474.83
516.106	21964.29
516.308	22191.62
516.51	22334.98
516.712	22257.15
516.914	22965.75
517.116	23447.02
517.318	23207.41
517.52	23336.43
517.722	23487.98
517.925	24071.65
518.127	24309.22
518.329	24415.71
518.531	24464.86
518.733	24896.99
518.935	25449.94
519.136	25249.24
519.338	25630.16
519.54	25755.08
519.742	26117.57
519.944	26179.01
520.146	26602.94
520.348	26836.41
520.55	27209.14
520.752	27061.69
520.954	27829.68
521.155	27731.37
521.357	28208.55
521.559	28517.79
521.761	28652.96
521.963	28380.58
522.164	28853.66
522.366	29019.55
522.568	29554.07
522.77	29595.03
522.971	30088.59
523.173	29765.01
523.375	30129.55
523.576	30158.22
523.778	30186.89
523.98	30500.23
524.181	31059.32
524.383	31071.61
524.584	31217.02
524.786	31479.16
524.988	31364.47
525.189	31772.02
525.391	31655.28
525.592	32425.32
525.794	32306.54
525.995	32322.92
526.197	32509.29
526.398	32877.92
526.6	32769.38
526.801	33072.48
527.003	33295.71
527.204	33027.42
527.406	33709.39
527.607	33791.31
527.808	33889.62
528.01	33467.73
528.211	33836.37
528.412	34264.39
528.614	34438.47
528.815	34544.97
529.016	34714.95
529.218	34504.01
529.419	34577.73
529.62	34751.81
529.822	34565.45
530.023	34864.45
530.224	34770.24
530.425	34909.5
530.626	34766.15
530.828	34624.84
531.029	35667.25
531.23	35282.23
531.431	35050.81
531.632	35355.96
531.833	35507.51
532.035	35597.62
532.236	35636.53
532.437	35607.86
532.638	35820.85
532.839	35609.91
533.04	35794.23
533.241	35429.69
533.442	36425
533.643	35884.34
533.844	36001.07
534.045	36326.7
534.246	35681.59
534.447	36205.87
534.648	35700.02
534.849	36009.26
535.05	36162.86
535.251	36330.79
535.451	35820.85
535.652	36484.39
535.853	36062.51
536.054	36166.96
536.255	36422.95
536.456	35951.92
536.657	36799.78
536.857	36011.31
537.058	36138.29
537.259	36521.26
537.46	35956.02
537.66	36441.39
537.861	36752.68
538.062	36119.85
538.263	36410.67
538.463	36224.3
538.664	36171.05
538.865	36568.36
539.065	36699.43
539.266	36226.35
539.466	36748.58
539.667	36033.84
539.868	36556.07
540.068	36359.47
540.269	36080.94
540.469	36721.96
540.67	36478.25
540.87	36238.64
541.071	36384.04
541.271	36384.04
541.472	36381.99
541.672	36306.22
541.873	36085.04
542.073	35964.21
542.274	36361.51
542.474	35986.74
542.675	36322.6
542.875	36724
543.075	36478.25
543.276	36054.32
543.476	36433.19
543.676	36164.91
543.877	36533.54
544.077	36713.77
544.277	36435.24
544.478	36322.6
544.678	36465.96
544.878	36398.38
545.078	36500.78
545.279	36541.74
545.479	36181.29
545.679	36363.56
545.879	36318.51
546.079	36726.05
546.28	36502.82
546.48	36052.27
546.68	36597.03
546.88	36580.65
547.08	36248.88
547.28	36044.08
547.48	36126
547.68	36521.26
547.88	36066.61
548.081	36396.33
548.281	36531.5
548.481	36580.65
548.681	36525.35
548.881	36304.17
549.081	36279.6
549.28	36246.83
549.48	36394.28
549.68	36414.76
549.88	36564.26
550.08	36330.79
550.28	36451.63
550.48	36295.98
550.68	36910.37
550.88	36572.46
551.08	36640.04
551.279	36304.17
551.479	36316.46
551.679	36363.56
551.879	36187.44
552.079	36461.86
552.278	36318.51
552.478	36064.56
552.678	36531.5
552.878	36543.78
553.077	36425
553.277	36201.77
553.477	36508.97
553.676	36027.7
553.876	36056.37
554.076	35740.98
554.275	35925.3
554.475	35554.61
554.674	36261.16
554.874	36189.49
555.074	36027.7
555.273	36166.96
555.473	36203.82
555.672	35937.58
555.872	35728.69
556.071	35786.04
556.271	36212.01
556.47	35595.57
556.67	35327.29
556.869	35904.82
557.068	35695.92
557.268	35585.33
557.467	35798.32
557.667	35482.94
557.866	35640.63
558.065	35470.65
558.265	35425.59
558.464	35171.64
558.663	35581.24
558.863	35243.32
559.062	35855.67
559.261	34950.46
559.461	35605.81
559.66	34936.13
559.859	35312.95
560.058	34854.21
560.258	35128.64
560.457	35163.45
560.656	35147.07
560.855	34796.87
561.054	34841.92
561.253	34739.52
561.453	34917.7
561.652	34489.67
561.851	34964.8
562.05	34874.69
562.249	34405.7
562.448	34915.65
562.647	34803.01
562.846	34590.02
563.045	34461
563.244	34317.64
563.443	34587.97
563.642	34282.83
563.841	34282.83
564.04	34016.59
564.239	34596.17
564.438	34354.51
564.637	34090.32
564.836	34014.54
565.035	33785.17
565.234	34004.3
565.432	34080.08
565.631	33830.23
565.83	33668.44
566.029	33619.28
566.228	33701.2
566.427	33498.45
566.625	33525.08
566.824	33344.86
567.023	33811.79
567.222	33015.13
567.42	33285.47
567.619	33080.67
567.818	33344.86
568.016	32988.51
568.215	33322.33
568.414	33242.46
568.612	33303.9
568.811	33039.71
569.01	32832.86
569.208	32738.66
569.407	32920.93
569.605	32351.59
569.804	32652.64
570.002	32636.26
570.201	32722.27
570.4	32427.37
570.598	32003.44
570.797	31954.29
570.995	32275.82
571.193	31903.09
571.392	31815.02
571.59	31821.17
571.789	31722.87
571.987	31731.06
572.186	31800.69
572.384	31282.55
572.582	31692.15
572.781	31550.84
572.979	31233.4
573.177	31329.66
573.376	31446.39
573.574	31303.03
573.772	31137.15
573.971	30745.98
574.169	30836.09
574.367	30510.47
574.565	30788.99
574.763	30508.42
574.962	30363.01
575.16	30397.83
575.358	30233.99
575.556	30104.97
575.754	30420.36
575.952	29662.61
576.151	30188.94
576.349	29666.7
576.547	29711.76
576.745	30047.63
576.943	29681.04
577.141	29400.47
577.339	29584.79
577.537	29371.8
577.735	29513.11
577.933	29177.24
578.131	29347.22
578.329	29046.17
578.527	29103.51
578.725	28781.98
578.923	28833.18
579.121	29037.98
579.319	28749.21
579.516	28757.41
579.714	28779.93
579.912	28216.74
580.11	28460.45
580.308	28417.44
580.506	28442.02
580.704	27708.85
580.901	27921.84
581.099	28208.55
581.297	27901.36
581.495	27825.58
581.692	27946.41
581.89	27565.49
582.088	27835.82
582.285	27497.91
582.483	27956.65
582.681	27332.02
582.878	27065.78
583.076	27211.19
583.274	27768.24
583.471	26983.87
583.669	27071.93
583.866	26910.14
584.064	26910.14
584.262	26631.61
584.459	27129.27
584.657	26701.25
584.854	26564.03
585.052	26502.59
585.249	26463.68
585.447	26291.65
585.644	26045.9
585.841	26453.44
586.039	26054.09
586.236	26039.75
586.434	25869.77
586.631	25968.07
586.828	25861.58
587.026	25794
587.223	25798.09
587.42	25515.47
587.618	25736.65
587.815	25480.66
588.012	25816.52
588.21	25337.3
588.407	25562.58
588.604	25161.17
588.801	24702.43
588.999	25157.08
589.196	25101.78
589.393	24772.06
589.59	24950.23
589.787	24669.66
589.984	24526.3
590.182	24368.61
590.379	24724.96
590.576	24651.23
590.773	24649.18
590.97	24362.47
591.167	24147.43
591.364	24055.27
591.561	24258.02
591.758	23784.94
591.955	23913.96
592.152	24124.9
592.349	23760.36
592.546	23879.14
592.743	24024.55
592.94	23563.76
593.137	23768.55
593.334	23786.99
593.531	23143.92
593.727	23528.94
593.924	23223.79
594.121	23283.19
594.318	23225.84
594.515	23242.23
594.712	23109.11
594.908	23006.71
595.105	22930.94
595.302	22740.47
595.499	22625.79
595.696	22836.73
595.892	22783.48
596.089	22652.41
596.286	22883.83
596.482	22441.47
596.679	22787.58
596.876	22359.55
597.072	22574.59
597.269	22517.25
597.466	22078.98
597.662	22154.76
597.859	22113.8
598.055	22394.37
598.252	21810.7
598.448	22005.25
598.645	21693.96
598.841	21616.14
599.038	21618.19
599.234	21483.02
599.431	21730.83
599.627	21493.26
599.824	21624.33
600.02	21278.22
600.217	21495.31
600.413	21265.94
600.609	21102.1
600.806	21188.11
601.002	21085.72
601.198	20813.34
601.395	20786.71
601.591	20751.9
601.787	20923.93
601.984	20524.57
602.18	20805.14
602.376	20436.51
602.572	20526.62
602.769	20573.72
602.965	20147.75
603.161	20639.26
603.357	19965.48
603.553	20262.43
603.75	19897.89
603.946	19934.76
604.142	20133.41
604.338	19729.96
604.534	19865.13
604.73	19664.43
604.926	19693.1
605.122	19656.23
605.318	19402.29
605.514	19463.72
605.71	19312.17
605.906	19289.65
606.102	19217.97
606.298	19410.48
606.494	19211.82
606.69	19318.32
606.886	19228.21
607.082	18935.35
607.278	19199.54
607.474	18816.57
607.67	18982.45
607.866	18748.98
608.062	19033.65
608.257	18855.48
608.453	18906.68
608.649	18468.41
608.845	18513.47
609.041	18613.82
609.236	18415.16
609.432	18605.63
609.628	18388.54
609.824	18126.4
610.019	18110.02
610.215	18140.74
610.411	17991.23
610.606	18110.02
610.802	18077.25
610.998	18294.33
611.193	18181.7
611.389	17972.8
611.584	17839.69
611.78	17471.05
611.976	17837.64
612.171	17790.53
612.367	17595.98
612.562	17526.35
612.758	17266.25
612.953	17366.6
613.149	17593.93
613.344	17163.86
613.539	17473.1
613.735	17274.45
613.93	17514.06
614.126	17213.01
614.321	17258.06
614.517	17382.99
614.712	17266.25
614.907	17108.56
615.103	16967.25
615.298	16895.57
615.493	16979.54
615.688	16615
615.884	16971.35
616.079	16629.34
616.274	16791.13
616.47	16848.47
616.665	16635.48
616.86	16606.81
617.055	16725.59
617.25	16600.66
617.445	16598.62
617.641	16154.21
617.836	16373.34
618.031	16189.02
618.226	16389.72
618.421	16162.4
618.616	16277.08
618.811	15935.07
619.006	16459.35
619.201	15875.68
619.396	15849.06
619.591	15586.92
619.786	16092.77
619.981	15697.51
620.176	15410.79
620.371	15459.95
620.566	15695.46
620.761	15353.45
620.956	15642.21
621.151	14927.47
621.346	15281.77
621.541	14927.47
621.735	15271.53
621.93	14726.77
622.125	14741.11
622.32	14530.17
622.515	14980.72
622.709	14780.02
622.904	14655.09
623.099	14532.22
623.294	14808.69
623.488	14308.99
623.683	14173.82
623.878	14186.11
624.072	14300.8
624.267	14077.57
624.462	14083.71
624.656	13932.16
624.851	13913.73
625.046	13653.64
625.24	13633.16
625.435	13643.4
625.629	13379.21
625.824	13348.49
626.018	13336.2
626.213	13096.59
626.407	13162.12
626.602	12902.03
626.796	13221.52
626.991	13176.46
627.185	13061.77
627.38	12918.42
627.574	13198.99
627.768	12512.92
627.963	12902.03
628.157	12584.6
628.352	12517.01
628.546	12162.72
628.74	12592.79
628.935	12441.24
629.129	12394.14
629.323	12002.97
629.517	12086.94
629.712	11994.78
629.906	12150.43
630.1	11849.38
630.294	11947.68
630.489	11716.26
630.683	11986.59
630.877	11626.15
631.071	11615.91
631.265	11742.88
631.459	11531.94
631.653	11568.8
631.848	11402.92
632.042	11151.02
632.236	11447.97
632.43	11321
632.624	11323.05
632.818	11400.87
633.012	11124.4
633.206	11079.34
633.4	11181.74
633.594	10964.65
633.788	10978.99
633.982	10870.45
634.176	10821.3
634.369	10876.59
634.563	10815.15
634.757	10630.84
634.951	10473.14
635.145	10469.05
635.339	10624.69
635.533	10407.61
635.726	10325.69
635.92	10350.26
636.114	10221.24
636.308	10225.34
636.501	10073.79
636.695	10053.31
636.889	9875.13
637.083	9682.63
637.276	9860.8
637.47	9834.18
637.664	9621.19
637.857	9752.26
638.051	9701.06
638.244	9606.85
638.438	9711.3
638.632	9492.16
638.825	9434.82
639.019	9334.47
639.212	9320.14
639.406	9494.21
639.599	9424.58
639.793	9236.17
639.986	8980.17
640.18	9223.88
640.373	9209.54
640.567	9096.91
640.76	8740.56
640.954	8785.62
641.147	8787.66
641.34	8648.4
641.534	8691.41
641.727	8785.62
641.92	8758.99
642.114	8550.1
642.307	8431.32
642.5	8599.25
642.694	8271.58
642.887	8519.38
643.08	8232.66
643.273	8392.41
643.467	8171.22
643.66	8046.3
643.853	8208.09
644.046	8122.07
644.239	8042.2
644.432	7911.13
644.626	7866.08
644.819	7886.56
645.012	7896.8
645.205	7849.69
645.398	7761.63
645.591	7671.52
645.784	7589.6
645.977	7593.7
646.17	7716.58
646.363	7474.92
646.556	7562.98
646.749	7380.71
646.942	7360.23
647.135	7343.85
647.328	7329.51
647.521	7393
647.714	7112.42
647.907	7102.18
648.099	7188.2
648.292	7245.54
648.485	6981.35
648.678	6887.15
648.871	6907.63
649.064	6938.35
649.256	6952.68
649.449	6811.37
649.642	6508.27
649.835	6565.62
650.027	6809.33
650.22	6692.59
650.413	6690.54
650.605	6602.48
650.798	6446.83
650.991	6280.95
651.183	6446.83
651.376	6553.33
651.568	6403.83
651.761	6385.4
651.954	6276.85
652.146	6158.07
652.339	6217.46
652.531	6131.45
652.724	6119.16
652.916	6106.87
653.109	6002.43
653.301	5957.37
653.494	5900.03
653.686	5947.13
653.879	6086.39
654.071	5940.99
654.263	5840.64
654.456	5881.6
654.648	5897.98
654.84	5760.77
655.033	5797.63
655.225	5641.98
655.417	5584.64
655.61	5754.62
655.802	5492.48
655.994	5576.45
656.186	5373.7
656.379	5619.46
656.571	5435.14
656.763	5361.41
656.955	5279.49
657.148	5355.27
657.34	5435.14
657.532	5252.87
657.724	5277.44
657.916	5267.2
658.108	5127.94
658.3	5146.37
658.492	4947.72
658.684	4982.54
658.876	4960.01
659.068	5064.46
659.26	4898.57
659.452	4906.76
659.644	4957.96
659.836	4773.64
660.028	5017.35
660.22	4697.87
660.412	4820.75
660.604	4730.64
660.796	4761.36
660.988	4595.47
661.18	4589.33
661.372	4548.37
661.563	4558.61
661.755	4564.75
661.947	4609.81
662.139	4507.41
662.331	4431.63
662.522	4409.11
662.714	4278.04
662.906	4372.24
663.097	4376.34
663.289	4216.6
663.481	4192.02
663.673	4296.47
663.864	4212.5
664.056	4192.02
664.247	4177.69
664.439	4110.1
664.631	4202.26
664.822	4052.76
665.014	4110.1
665.205	4142.87
665.397	3993.37
665.588	4103.96
665.78	3878.68
665.971	3917.59
666.163	4024.09
666.354	3933.98
666.546	3874.59
666.737	3942.17
666.929	3700.51
667.12	3827.48
667.311	3753.76
667.503	3718.94
667.694	3714.84
667.885	3569.44
668.077	3729.18
668.268	3614.49
668.459	3520.29
668.651	3551.01
668.842	3555.1
669.033	3581.73
669.224	3561.25
669.416	3503.9
669.607	3522.34
669.798	3579.68
669.989	3454.75
670.18	3450.66
670.371	3426.08
670.563	3471.14
670.754	3432.22
670.945	3440.42
671.136	3481.38
671.327	3317.54
671.518	3276.58
671.709	3295.01
671.9	3297.06
672.091	3276.58
672.282	3360.55
672.473	3319.59
672.664	3290.92
672.855	3215.14
673.046	3221.28
673.237	3223.33
673.428	3256.1
673.619	3151.65
673.809	3270.44
674	3315.49
674.191	3276.58
674.382	3163.94
674.573	2973.48
674.764	3047.21
674.954	3223.33
675.145	3219.24
675.336	3254.05
675.527	3182.37
675.717	3018.54
675.908	2977.58
676.099	2901.8
676.289	3096.36
676.48	2879.27
676.671	3067.69
676.861	3041.06
677.052	2924.33
677.243	2924.33
677.433	3141.41
677.624	2993.96
677.814	2985.77
678.005	2850.6
678.195	3020.58
678.386	2756.4
678.576	2832.17
678.767	2842.41
678.957	2809.64
679.148	2854.7
679.338	2912.04
679.529	2772.78
679.719	2842.41
679.909	2885.42
680.1	2899.75
680.29	2836.27
680.481	2838.31
680.671	2889.51
680.861	2817.83
681.052	2799.4
681.242	2873.13
681.432	2821.93
681.622	2666.28
681.813	2791.21
682.003	2803.5
682.193	2727.72
682.383	2766.64
682.573	2762.54
682.764	2725.68
682.954	2688.81
683.144	2740.01
683.334	2692.91
683.524	2752.3
683.714	2727.72
683.904	2707.24
684.094	2699.05
684.284	2744.11
684.474	2768.68
684.664	2684.72
684.854	2680.62
685.044	2570.03
685.234	2522.93
685.424	2703.15
685.614	2596.65
685.804	2711.34
685.994	2602.8
686.184	2615.09
686.374	2658.09
686.564	2590.51
686.753	2701.1
686.943	2594.61
687.133	2672.43
687.323	2647.85
687.513	2484.02
687.702	2445.1
687.892	2567.98
688.082	2633.52
688.272	2610.99
688.461	2621.23
688.651	2690.86
688.841	2543.41
689.03	2565.93
689.22	2561.84
689.41	2518.83
689.599	2658.09
689.789	2639.66
689.979	2352.95
690.168	2592.56
690.358	2486.06
690.547	2567.98
690.737	2502.45
690.926	2629.42
691.116	2348.85
691.305	2533.17
691.495	2502.45
691.684	2590.51
691.874	2506.54
692.063	2551.6
692.252	2494.26
692.442	2500.4
692.631	2547.5
692.82	2578.22
693.01	2533.17
693.199	2488.11
693.388	2387.76
693.578	2518.83
693.767	2430.77
693.956	2610.99
694.146	2395.95
694.335	2354.99
694.524	2395.95
694.713	2539.31
694.902	2475.82
695.092	2506.54
695.281	2408.24
695.47	2494.26
695.659	2498.35
695.848	2457.39
696.037	2545.45
696.226	2434.86
696.415	2596.65
696.604	2436.91
696.793	2461.49
696.982	2481.97
697.171	2488.11
697.36	2420.53
697.549	2346.8
697.738	2496.3
697.927	2441.01
698.116	2414.38
698.305	2357.04
698.494	2467.63
698.683	2426.67
698.872	2416.43
699.061	2375.47
699.25	2531.12
699.438	2455.34
699.627	2381.62
699.816	2461.49
700.005	2453.3
700.193	2320.18
700.382	2445.1
700.571	2412.34
700.76	2434.86
700.948	2447.15
701.137	2391.86
701.326	2459.44
701.514	2416.43
701.703	2318.13
701.892	2318.13
702.08	2314.03
702.269	2445.1
702.457	2316.08
702.646	2350.9
702.834	2369.33
703.023	2307.89
703.212	2346.8
703.4	2311.99
703.589	2338.61
703.777	2352.95
703.965	2402.1
704.154	2287.41
704.342	2266.93
704.531	2297.65
704.719	2328.37
704.907	2260.79
705.096	2266.93
705.284	2250.55
705.472	2260.79
705.661	2182.96
705.849	2195.25
706.037	2250.55
706.226	2139.96
706.414	2311.99
706.602	2144.05
706.79	2105.14
706.979	2264.88
707.167	2223.92
707.355	2258.74
707.543	2127.67
707.731	2103.09
707.919	2144.05
708.107	2219.83
708.296	2146.1
708.484	2148.15
708.672	2135.86
708.86	2099
709.048	2066.23
709.236	2043.7
709.424	2119.48
709.612	2152.24
709.8	1996.6
709.988	2086.71
710.176	2033.46
710.364	2035.51
710.551	2070.33
710.739	2064.18
710.927	2074.42
711.115	2043.7
711.303	2033.46
711.491	2064.18
711.679	1947.45
711.866	2019.13
712.054	2023.22
712.242	2027.32
712.43	1951.54
712.617	1984.31
712.805	1879.86
712.993	1957.69
713.181	2072.37
713.368	2051.89
713.556	1855.29
713.744	1920.82
713.931	1931.06
714.119	1888.06
714.306	1943.35
714.494	1816.38
714.682	1957.69
714.869	1826.62
715.057	1957.69
715.244	1744.7
715.432	1836.86
715.619	1879.86
715.807	1904.44
715.994	1910.58
716.182	1773.37
716.369	1756.99
716.556	1738.55
716.744	1793.85
716.931	1709.88
717.119	1871.67
717.306	1775.42
717.493	1732.41
717.681	1693.5
717.868	1822.52
718.055	1779.51
718.242	1709.88
718.43	1701.69
718.617	1761.08
718.804	1646.4
718.991	1666.88
719.179	1699.64
719.366	1662.78
719.553	1779.51
719.74	1644.35
719.927	1681.21
720.114	1746.75
720.301	1634.11
720.488	1634.11
720.676	1627.96
720.863	1687.36
721.05	1660.73
721.237	1627.96
721.424	1535.81
721.611	1611.58
721.798	1646.4
721.985	1601.34
722.172	1552.19
722.358	1609.53
722.545	1650.49
722.732	1566.53
722.919	1556.29
723.106	1535.81
723.293	1562.43
723.48	1507.13
723.667	1486.65
723.853	1468.22
724.04	1582.91
724.227	1601.34
724.414	1474.37
724.6	1384.26
724.787	1417.02
724.974	1503.04
725.161	1496.89
725.347	1462.08
725.534	1412.93
725.72	1396.54
725.907	1478.46
726.094	1396.54
726.28	1466.17
726.467	1472.32
726.653	1386.3
726.84	1384.26
727.027	1421.12
727.213	1382.21
727.4	1380.16
727.586	1316.67
727.773	1443.65
727.959	1374.02
728.145	1421.12
728.332	1527.61
728.518	1333.06
728.705	1390.4
728.891	1335.1
729.077	1324.87
729.264	1433.41
729.45	1349.44
729.636	1357.63
729.823	1378.11
730.009	1339.2
730.195	1365.82
730.382	1288
730.568	1453.89
730.754	1234.75
730.94	1220.42
731.126	1306.43
731.313	1347.39
731.499	1234.75
731.685	1322.82
731.871	1357.63
732.057	1228.61
732.243	1208.13
732.429	1292.1
732.615	1247.04
732.801	1341.25
732.987	1232.71
733.173	1165.12
733.359	1169.22
733.545	1144.64
733.731	1271.62
733.917	1167.17
734.103	1138.5
734.289	1316.67
734.475	1181.51
734.661	1341.25
734.847	1187.65
735.033	1167.17
735.219	1193.8
735.404	1208.13
735.59	1212.23
735.776	1306.43
735.962	1226.56
736.148	1036.1
736.333	1187.65
736.519	1128.26
736.705	1165.12
736.89	1101.64
737.076	1136.45
737.262	1124.16
737.447	1175.36
737.633	1236.8
737.819	1089.35
738.004	1097.54
738.19	1036.1
738.375	1120.07
738.561	1083.2
738.747	1156.93
738.932	1095.49
739.118	1128.26
739.303	1079.11
739.489	1126.21
739.674	1001.29
739.859	1099.59
740.045	1042.25
740.23	1075.01
740.416	1007.43
740.601	1009.48
740.786	1034.05
740.972	1027.91
741.157	1013.57
741.342	991.05
741.528	1009.48
741.713	1058.63
741.898	1050.44
742.084	1021.77
742.269	1062.73
742.454	991.05
742.639	1060.68
742.824	984.9
743.01	1011.53
743.195	1027.91
743.38	991.05
743.565	972.61
743.75	909.13
743.935	970.57
744.12	968.52
744.305	1036.1
744.49	939.85
744.675	945.99
744.86	989
745.045	919.37
745.23	866.12
745.415	1015.62
745.6	890.7
745.785	1007.43
745.97	907.08
746.155	864.07
746.34	870.22
746.525	937.8
746.71	937.8
746.895	894.79
747.079	798.54
747.264	847.69
747.449	954.18
747.634	872.26
747.819	831.3
748.003	831.3
748.188	761.67
748.373	765.77
748.557	773.96
748.742	733
748.927	747.34
749.111	855.88
749.296	823.11
749.481	784.2
749.665	769.87
749.85	823.11
750.034	806.73
750.219	692.04
750.404	708.43
750.588	898.89
750.773	747.34
750.957	606.03
751.141	724.81
751.326	806.73
751.51	767.82
751.695	786.25
751.879	735.05
752.064	628.56
752.248	733
752.432	685.9
752.617	757.58
752.801	739.15
752.985	739.15
753.17	726.86
753.354	655.18
753.538	737.1
753.722	624.46
753.907	667.47
754.091	687.95
754.275	745.29
754.459	589.64
754.643	655.18
754.828	655.18
755.012	634.7
755.196	657.23
755.38	622.41
755.564	655.18
755.748	538.45
755.932	591.69
756.116	653.13
756.3	667.47
756.484	661.32
756.668	636.75
756.852	626.51
757.036	618.32
757.22	626.51
757.404	569.16
757.588	554.83
757.772	667.47
757.956	595.79
758.14	567.12
758.323	493.39
758.507	587.6
758.691	612.17
758.875	626.51
759.059	577.36
759.242	515.92
759.426	638.8
759.61	520.01
759.794	644.94
759.977	593.74
760.161	515.92
760.345	526.16
760.528	595.79
760.712	610.12
760.895	642.89
761.079	552.78
761.263	536.4
761.446	534.35
761.63	577.36
761.813	526.16
761.997	505.68
762.18	466.77
762.364	569.16
762.547	524.11
762.731	538.45
762.914	425.81
763.098	511.82
763.281	493.39
763.464	460.62
763.648	522.06
763.831	532.3
764.015	499.53
764.198	503.63
764.381	507.73
764.564	423.76
764.748	397.14
764.931	520.01
765.114	499.53
765.297	499.53
765.481	485.2
765.664	485.2
765.847	468.81
766.03	442.19
766.213	427.85
766.397	448.33
766.58	454.48
766.763	440.14
766.946	522.06
767.129	429.9
767.312	438.09
767.495	528.21
767.678	415.57
767.861	505.68
768.044	501.58
768.227	511.82
768.41	452.43
768.593	487.25
768.776	397.14
768.959	421.71
769.142	440.14
769.324	438.09
769.507	466.77
769.69	370.51
769.873	425.81
770.056	477.01
770.239	388.94
770.421	444.24
770.604	401.23
770.787	409.42
770.97	384.85
771.152	524.11
771.335	513.87
771.518	497.49
771.7	368.46
771.883	472.91
772.066	370.51
772.248	460.62
772.431	386.9
772.613	399.18
772.796	446.29
772.978	460.62
773.161	304.98
773.343	366.42
773.526	395.09
773.708	356.18
773.891	388.94
774.073	376.66
774.256	393.04
774.438	364.37
774.621	366.42
774.803	300.88
774.985	395.09
775.168	339.79
775.35	390.99
775.532	327.5
775.715	374.61
775.897	380.75
776.079	390.99
776.261	417.61
776.444	276.31
776.626	315.22
776.808	325.46
776.99	364.37
777.173	427.85
777.355	255.83
777.537	378.7
777.719	311.12
777.901	313.17
778.083	345.94
778.265	360.27
778.447	419.66
778.629	350.03
778.811	405.33
778.993	284.5
779.175	431.95
779.357	315.22
779.539	266.07
779.721	343.89
779.903	284.5
780.085	307.02
780.267	290.64
780.449	286.54
780.631	337.74
780.812	309.07
780.994	309.07
781.176	354.13
781.358	278.35
781.54	376.66
781.721	264.02
781.903	284.5
782.085	235.35
782.267	327.5
782.448	233.3
782.63	333.65
782.812	266.07
782.993	280.4
783.175	259.92
783.357	286.54
783.538	284.5
783.72	278.35
783.901	206.67
784.083	243.54
784.264	229.2
784.446	227.15
784.627	261.97
784.809	227.15
784.99	255.83
785.172	264.02
785.353	292.69
785.535	227.15
785.716	317.26
785.897	167.76
786.079	229.2
786.26	167.76
786.441	241.49
786.623	231.25
786.804	296.78
786.985	190.29
787.167	243.54
787.348	194.39
787.529	347.98
787.71	284.5
787.891	190.29
788.073	184.15
788.254	212.82
788.435	259.92
788.616	210.77
788.797	243.54
788.978	157.52
789.159	251.73
789.34	206.67
789.522	180.05
789.703	108.37
789.884	171.86
790.065	167.76
790.246	225.11
790.427	196.43
790.607	253.78
790.788	231.25
790.969	163.67
791.15	212.82
791.331	151.38
791.512	227.15
791.693	149.33
791.874	171.86
792.054	173.91
792.235	233.3
792.416	206.67
792.597	216.91
792.778	182.1
792.958	200.53
793.139	120.66
793.32	157.52
793.5	145.24
793.681	280.4
793.862	143.19
794.042	221.01
794.223	110.42
794.404	157.52
794.584	167.76
794.765	149.33
794.945	163.67
795.126	135
795.306	178
795.487	104.28
795.667	130.9
795.848	208.72
796.028	149.33
796.209	161.62
796.389	104.28
796.57	161.62
796.75	100.18
796.93	116.56
797.111	132.95
797.291	120.66
797.471	178
797.652	87.89
797.832	104.28
798.012	186.19
798.192	155.47
798.373	48.98
798.553	178
798.733	118.61
798.913	98.13
799.093	167.76
799.274	77.65
799.454	135
799.634	116.56
799.814	145.24
799.994	106.32
800.174	130.9
800.354	106.32
800.534	61.27
800.714	120.66
800.894	200.53
801.074	147.28
801.254	135
801.434	126.8
801.614	110.42
801.794	71.51
801.974	436.05
802.154	137.04
802.334	51.03
802.514	159.57
802.693	106.32
802.873	153.43
803.053	145.24
803.233	71.51
803.413	139.09
803.592	126.8
803.772	91.99
803.952	116.56
804.131	126.8
804.311	118.61
804.491	167.76
804.67	163.67
804.85	165.71
805.03	79.7
805.209	118.61
805.389	126.8
805.568	106.32
805.748	32.6
805.928	163.67
806.107	128.85
806.287	169.81
806.466	59.22
806.646	63.32
806.825	63.32
807.004	71.51
807.184	137.04
807.363	83.8
807.543	110.42
807.722	75.6
807.901	44.88
808.081	165.71
808.26	122.71
808.439	100.18
808.619	120.66
808.798	126.8
808.977	40.79
809.156	104.28
809.336	100.18
809.515	32.6
809.694	98.13
809.873	94.04
810.052	96.08
810.231	104.28
810.411	91.99
810.59	94.04
810.769	38.74
810.948	102.23
811.127	46.93
811.306	79.7
811.485	75.6
811.664	22.36
811.843	141.14
812.022	108.37
812.201	143.19
812.38	89.94
812.559	30.55
812.737	87.89
812.916	57.17
813.095	110.42
813.274	73.56
813.453	87.89
813.632	53.08
813.811	26.45
813.989	3.93
814.168	116.56
814.347	118.61
814.526	32.6
814.704	96.08
814.883	122.71
815.062	51.03
815.24	110.42
815.419	38.74
815.598	104.28
815.776	104.28
815.955	135
816.133	20.31
816.312	36.69
816.49	38.74
816.669	48.98
816.847	61.27
817.026	38.74
817.204	104.28
817.383	96.08
817.561	102.23
817.74	137.04
817.918	89.94
818.097	40.79
818.275	79.7
818.453	120.66
818.632	22.36
818.81	20.31
818.988	135
819.167	77.65
819.345	104.28
819.523	38.74
819.701	120.66
819.879	40.79
820.058	85.84
820.236	42.84
820.414	1.88
820.592	32.6
820.77	98.13
820.948	75.6
821.127	53.08
821.305	77.65
821.483	46.93
821.661	114.52
821.839	73.56
822.017	57.17
822.195	28.5
822.373	20.31
822.551	59.22
822.729	46.93
822.907	61.27
823.085	85.84
823.262	104.28
823.44	122.71
823.618	38.74
823.796	96.08
823.974	110.42
824.152	100.18
824.329	34.64
824.507	73.56
824.685	-12.46
824.863	42.84
825.04	28.5
825.218	65.36
825.396	28.5
825.574	53.08
825.751	46.93
825.929	36.69
826.107	38.74
826.284	65.36
826.462	159.57
826.639	46.93
826.817	48.98
826.994	106.32
827.172	85.84
827.349	-2.22
827.527	46.93
827.704	87.89
827.882	59.22
828.059	36.69
828.237	59.22
828.414	38.74
828.591	20.31
828.769	94.04
828.946	22.36
829.124	63.32
829.301	12.12
829.478	102.23
829.655	34.64
829.833	14.17
830.01	110.42
830.187	-0.17
830.364	36.69
830.542	-6.31
830.719	63.32
830.896	-2.22
831.073	-16.55
831.25	26.45
831.427	16.21
831.604	16.21
831.782	55.12
831.959	59.22
832.136	34.64
832.313	3.93
832.49	67.41
832.667	94.04
832.844	26.45
833.021	38.74
833.198	87.89
833.374	51.03
833.551	14.17
833.728	85.84
833.905	75.6
834.082	75.6
834.259	-77.99
834.436	3.93
834.612	32.6
834.789	-0.17
834.966	26.45
835.143	22.36
835.319	-34.99
835.496	32.6
835.673	28.5
835.85	30.55
836.026	100.18
836.203	-2.22
836.38	16.21
836.556	85.84
836.733	40.79
836.909	28.5
837.086	51.03
837.262	30.55
837.439	-45.23
837.616	12.12
837.792	94.04
837.968	63.32
838.145	-16.55
838.321	26.45
838.498	-2.22
838.674	85.84
838.851	1.88
839.027	34.64
839.203	44.88
839.38	-0.17
839.556	26.45
839.732	22.36
839.909	-30.89
840.085	102.23
840.261	-0.17
840.437	106.32
840.614	16.21
840.79	73.56
840.966	53.08
841.142	34.64
841.318	3.93
841.494	61.27
841.671	12.12
841.847	-16.55
842.023	5.97
842.199	100.18
842.375	57.17
842.551	-8.36
842.727	-45.23
842.903	96.08
843.079	-41.13
843.255	44.88
843.431	48.98
843.607	5.97
843.783	3.93
843.959	98.13
844.134	-41.13
844.31	-28.84
844.486	122.71
844.662	-8.36
844.838	63.32
845.013	94.04
845.189	-4.27
845.365	91.99
845.541	102.23
845.716	10.07
845.892	44.88
846.068	-24.75
846.244	-18.6
846.419	46.93
846.595	36.69
846.77	94.04
846.946	-63.66
847.122	22.36
847.297	-37.03
847.473	79.7
847.648	73.56
847.824	89.94
847.999	61.27
848.175	-4.27
848.35	44.88
848.526	104.28
848.701	28.5
848.876	57.17
849.052	-4.27
849.227	28.5
849.403	48.98
849.578	-26.79
849.753	20.31
849.929	40.79
850.104	-106.67
850.279	48.98
850.454	36.69
850.63	22.36
850.805	102.23
850.98	67.41
851.155	-4.27
851.33	16.21
851.505	20.31
851.681	79.7
851.856	104.28
852.031	-26.79
852.206	55.12
852.381	-24.75
852.556	-10.41
852.731	24.4
852.906	-14.51
853.081	38.74
853.256	12.12
853.431	-16.55
853.606	-37.03
853.781	-6.31
853.956	-26.79
854.131	48.98
854.305	-28.84
854.48	-41.13
854.655	-10.41
854.83	-49.32
855.005	36.69
855.18	59.22
855.354	-2.22
855.529	-2.22
855.704	-28.84
855.879	16.21
856.053	14.17
856.228	16.21
856.403	28.5
856.577	55.12
856.752	1.88
856.926	-24.75
857.101	-22.7
857.276	28.5
857.45	10.07
857.625	3.93
857.799	14.17
857.974	10.07
858.148	42.84
858.323	10.07
858.497	-47.27
858.672	-32.94
858.846	18.26
859.02	48.98
859.195	8.02
859.369	-41.13
859.543	36.69
859.718	-4.27
859.892	59.22
860.066	81.75
860.241	-28.84
860.415	40.79
860.589	-16.55
860.763	28.5
860.938	18.26
861.112	12.12
861.286	48.98
861.46	38.74
861.634	34.64
861.808	77.65
861.982	22.36
862.157	-12.46
862.331	-20.65
862.505	44.88
862.679	-30.89
862.853	-2.22
863.027	-4.27
863.201	30.55
863.375	-30.89
863.549	16.21
863.722	24.4
863.896	94.04
864.07	24.4
864.244	44.88
864.418	77.65
864.592	5.97
864.766	38.74
864.939	36.69
865.113	-4.27
865.287	30.55
865.461	46.93
865.634	69.46
865.808	-55.47
865.982	-2.22
866.156	40.79
866.329	24.4
866.503	-2.22
866.676	22.36
866.85	79.7
867.024	38.74
867.197	22.36
867.371	67.41
867.544	-14.51
867.718	-37.03
867.891	20.31
868.065	-80.04
868.238	85.84
868.412	-34.99
868.585	32.6
868.759	30.55
868.932	-20.65
869.105	-61.61
869.279	28.5
869.452	12.12
869.625	-28.84
869.799	1.88
869.972	-77.99
870.145	-18.6
870.319	5.97
870.492	-28.84
870.665	36.69
870.838	-41.13
871.011	34.64
871.185	36.69
871.358	67.41
871.531	-14.51
871.704	-34.99
871.877	-22.7
872.05	-41.13
872.223	94.04
872.396	12.12
872.569	55.12
872.742	-28.84
872.915	51.03
873.088	-49.32
873.261	22.36
873.434	-10.41
873.607	-37.03
873.78	-45.23
873.953	-6.31
874.126	8.02
874.299	-10.41
874.471	14.17
874.644	59.22
874.817	114.52
874.99	-37.03
875.163	-57.51
875.335	77.65
875.508	10.07
875.681	81.75
875.853	5.97
876.026	5.97
876.199	5.97
876.371	16.21
876.544	1.88
876.717	-12.46
876.889	59.22
877.062	10.07
877.234	-73.9
877.407	-14.51
877.579	53.08
877.752	24.4
877.924	-49.32
878.097	26.45
878.269	12.12
878.442	24.4
878.614	-86.19
878.786	16.21
878.959	-0.17
879.131	24.4
879.303	-47.27
879.476	42.84
879.648	42.84
879.82	42.84
879.993	-61.61
880.165	-18.6
880.337	-14.51
880.509	14.17
880.681	16.21
880.854	-28.84
881.026	10.07
881.198	-45.23
881.37	10.07
881.542	5.97
881.714	44.88
881.886	-2.22
882.058	-24.75
882.23	-8.36
882.402	8.02
882.574	-34.99
882.746	53.08
882.918	-18.6
883.09	16.21
883.262	55.12
883.434	-16.55
883.606	-75.95
883.778	-12.46
883.95	10.07
884.122	3.93
884.293	77.65
884.465	-28.84
884.637	34.64
884.809	40.79
884.98	3.93
885.152	-2.22
885.324	42.84
885.496	-4.27
885.667	-26.79
885.839	-22.7
886.011	75.6
886.182	-18.6
886.354	38.74
886.525	-22.7
886.697	20.31
886.869	14.17
887.04	-2.22
887.212	38.74
887.383	26.45
887.555	28.5
887.726	89.94
887.897	-53.42
888.069	51.03
888.24	16.21
888.412	12.12
888.583	48.98
888.754	1.88
888.926	-77.99
889.097	44.88
889.268	-28.84
889.44	-4.27
889.611	-2.22
889.782	3.93
889.953	-41.13
890.125	57.17
890.296	48.98
890.467	-53.42
890.638	-20.65
890.809	-6.31
890.98	40.79
891.151	69.46
891.323	20.31
891.494	53.08
891.665	38.74
891.836	-30.89
892.007	-0.17
892.178	16.21
892.349	-39.08
892.52	32.6
892.691	-20.65
892.862	-43.18
893.032	22.36
893.203	14.17
893.374	81.75
893.545	-34.99
893.716	8.02
893.887	28.5
894.057	8.02
894.228	5.97
894.399	20.31
894.57	40.79
894.74	-14.51
894.911	79.7
895.082	30.55
895.253	59.22
895.423	3.93
895.594	-2.22
895.764	51.03
895.935	-12.46
896.106	-26.79
896.276	-26.79
896.447	14.17
896.617	24.4
896.788	3.93
896.958	1.88
897.129	-18.6
897.299	-28.84
897.47	8.02
897.64	14.17
897.81	59.22
897.981	48.98
898.151	-32.94
898.322	-10.41
898.492	-20.65
898.662	-37.03
898.832	3.93
899.003	-28.84
899.173	30.55
899.343	-32.94
899.513	65.36
