Data from USB4F104151__141__13-58-14-716.txt Node

Date: Thu Mar 13 13:58:14 EDT 2025
User: louis
Spectrometer: USB4F10415
Trigger mode: 4
Integration Time (sec): 1.000000E-2
Scans to average: 1
Electric dark correction enabled: true
Nonlinearity correction enabled: false
Boxcar width: 0
XAxis mode: Wavelengths
Number of Pixels in Spectrum: 3648
>>>>>Begin Spectral Data<<<<<
178.204	-71.85
178.424	-71.85
178.644	-71.85
178.864	-100.52
179.084	-110.76
179.304	-20.65
179.524	5.97
179.744	-8.36
179.964	-30.89
180.184	-2.22
180.404	-26.79
180.624	-41.13
180.844	-8.36
181.064	75.6
181.283	51.03
181.503	-32.94
181.723	38.74
181.943	-39.08
182.163	44.88
182.383	-37.03
182.602	12.12
182.822	-2.22
183.042	44.88
183.262	34.64
183.482	-2.22
183.701	124.76
183.921	40.79
184.141	20.31
184.361	36.69
184.58	22.36
184.8	-51.37
185.02	-16.55
185.239	-10.41
185.459	32.6
185.679	5.97
185.898	-47.27
186.118	-0.17
186.338	55.12
186.557	26.45
186.777	61.27
186.997	38.74
187.216	-20.65
187.436	61.27
187.655	36.69
187.875	26.45
188.095	-0.17
188.314	30.55
188.534	-18.6
188.753	44.88
188.973	22.36
189.192	-10.41
189.412	26.45
189.631	-6.31
189.851	28.5
190.07	24.4
190.29	28.5
190.509	30.55
190.729	63.32
190.948	89.94
191.168	18.26
191.387	14.17
191.607	-22.7
191.826	-14.51
192.045	51.03
192.265	65.36
192.484	12.12
192.704	12.12
192.923	12.12
193.142	30.55
193.362	38.74
193.581	65.36
193.8	12.12
194.02	44.88
194.239	20.31
194.458	69.46
194.678	-4.27
194.897	16.21
195.116	46.93
195.335	20.31
195.555	-14.51
195.774	67.41
195.993	10.07
196.212	34.64
196.432	44.88
196.651	42.84
196.87	48.98
197.089	67.41
197.308	38.74
197.528	14.17
197.747	24.4
197.966	44.88
198.185	44.88
198.404	8.02
198.623	12.12
198.842	91.99
199.062	108.37
199.281	104.28
199.5	-20.65
199.719	10.07
199.938	28.5
200.157	59.22
200.376	8.02
200.595	34.64
200.814	10.07
201.033	38.74
201.252	-14.51
201.471	57.17
201.69	-47.27
201.909	-4.27
202.128	30.55
202.347	20.31
202.566	-20.65
202.785	12.12
203.004	18.26
203.223	32.6
203.442	20.31
203.661	-6.31
203.879	16.21
204.098	1.88
204.317	-37.03
204.536	30.55
204.755	71.51
204.974	61.27
205.193	20.31
205.411	51.03
205.63	51.03
205.849	5.97
206.068	44.88
206.287	1.88
206.505	32.6
206.724	30.55
206.943	-14.51
207.162	96.08
207.381	63.32
207.599	34.64
207.818	69.46
208.037	30.55
208.255	36.69
208.474	-14.51
208.693	-12.46
208.911	40.79
209.13	30.55
209.349	87.89
209.567	-24.75
209.786	59.22
210.005	89.94
210.223	-4.27
210.442	67.41
210.661	42.84
210.879	14.17
211.098	-16.55
211.316	18.26
211.535	42.84
211.753	-2.22
211.972	-43.18
212.191	1.88
212.409	28.5
212.628	-37.03
212.846	5.97
213.065	18.26
213.283	36.69
213.502	14.17
213.72	12.12
213.938	14.17
214.157	44.88
214.375	-10.41
214.594	46.93
214.812	24.4
215.031	38.74
215.249	1.88
215.467	-6.31
215.686	44.88
215.904	-32.94
216.122	24.4
216.341	42.84
216.559	48.98
216.778	-10.41
216.996	16.21
217.214	-10.41
217.432	12.12
217.651	-12.46
217.869	-16.55
218.087	24.4
218.306	-18.6
218.524	-24.75
218.742	28.5
218.96	73.56
219.179	22.36
219.397	57.17
219.615	-0.17
219.833	-8.36
220.051	65.36
220.27	12.12
220.488	10.07
220.706	61.27
220.924	16.21
221.142	22.36
221.36	44.88
221.578	85.84
221.796	55.12
222.015	-2.22
222.233	-14.51
222.451	85.84
222.669	14.17
222.887	59.22
223.105	18.26
223.323	-28.84
223.541	18.26
223.759	51.03
223.977	28.5
224.195	61.27
224.413	-18.6
224.631	28.5
224.849	85.84
225.067	12.12
225.285	73.56
225.503	48.98
225.721	14.17
225.939	-34.99
226.157	1.88
226.375	61.27
226.592	94.04
226.81	61.27
227.028	53.08
227.246	57.17
227.464	1.88
227.682	59.22
227.9	1.88
228.117	18.26
228.335	32.6
228.553	48.98
228.771	30.55
228.989	30.55
229.206	48.98
229.424	20.31
229.642	32.6
229.86	-16.55
230.077	-0.17
230.295	1.88
230.513	42.84
230.731	8.02
230.948	16.21
231.166	106.32
231.384	-20.65
231.601	34.64
231.819	-55.47
232.037	79.7
232.254	-34.99
232.472	98.13
232.689	30.55
232.907	18.26
233.125	65.36
233.342	12.12
233.56	34.64
233.777	-14.51
233.995	10.07
234.213	30.55
234.43	34.64
234.648	22.36
234.865	-6.31
235.083	16.21
235.3	-20.65
235.518	67.41
235.735	1.88
235.953	14.17
236.17	10.07
236.388	14.17
236.605	28.5
236.822	3.93
237.04	-12.46
237.257	73.56
237.475	24.4
237.692	65.36
237.909	-16.55
238.127	32.6
238.344	5.97
238.562	5.97
238.779	28.5
238.996	34.64
239.214	16.21
239.431	22.36
239.648	-4.27
239.865	61.27
240.083	71.51
240.3	96.08
240.517	102.23
240.735	22.36
240.952	-30.89
241.169	75.6
241.386	51.03
241.603	16.21
241.821	-6.31
242.038	57.17
242.255	-2.22
242.472	71.51
242.689	53.08
242.907	38.74
243.124	85.84
243.341	20.31
243.558	67.41
243.775	38.74
243.992	-12.46
244.209	65.36
244.426	73.56
244.643	73.56
244.86	-47.27
245.078	34.64
245.295	-20.65
245.512	-8.36
245.729	20.31
245.946	14.17
246.163	22.36
246.38	67.41
246.597	-12.46
246.814	-18.6
247.031	32.6
247.248	16.21
247.464	104.28
247.681	34.64
247.898	38.74
248.115	-45.23
248.332	30.55
248.549	36.69
248.766	18.26
248.983	-4.27
249.2	34.64
249.417	24.4
249.633	44.88
249.85	46.93
250.067	55.12
250.284	57.17
250.501	28.5
250.717	61.27
250.934	-20.65
251.151	1.88
251.368	1.88
251.585	87.89
251.801	40.79
252.018	46.93
252.235	59.22
252.451	-59.56
252.668	-28.84
252.885	34.64
253.102	57.17
253.318	34.64
253.535	83.8
253.752	40.79
253.968	-24.75
254.185	24.4
254.401	-14.51
254.618	46.93
254.835	-22.7
255.051	51.03
255.268	22.36
255.484	44.88
255.701	14.17
255.917	36.69
256.134	65.36
256.351	34.64
256.567	14.17
256.784	65.36
257	-37.03
257.217	53.08
257.433	-30.89
257.65	26.45
257.866	-4.27
258.082	-51.37
258.299	-34.99
258.515	5.97
258.732	34.64
258.948	94.04
259.165	26.45
259.381	22.36
259.597	-6.31
259.814	69.46
260.03	30.55
260.246	77.65
260.463	5.97
260.679	-24.75
260.895	38.74
261.112	63.32
261.328	3.93
261.544	65.36
261.761	26.45
261.977	30.55
262.193	-37.03
262.409	-63.66
262.626	18.26
262.842	69.46
263.058	-4.27
263.274	42.84
263.49	42.84
263.707	55.12
263.923	44.88
264.139	1.88
264.355	71.51
264.571	112.47
264.787	73.56
265.004	30.55
265.22	-18.6
265.436	-10.41
265.652	-20.65
265.868	67.41
266.084	-0.17
266.3	63.32
266.516	34.64
266.732	-4.27
266.948	67.41
267.164	67.41
267.38	71.51
267.596	-22.7
267.812	106.32
268.028	48.98
268.244	26.45
268.46	89.94
268.676	20.31
268.892	3.93
269.108	-18.6
269.324	22.36
269.54	1.88
269.756	67.41
269.972	34.64
270.188	16.21
270.403	-20.65
270.619	8.02
270.835	-37.03
271.051	16.21
271.267	57.17
271.483	100.18
271.698	12.12
271.914	44.88
272.13	20.31
272.346	26.45
272.562	-16.55
272.777	36.69
272.993	-26.79
273.209	18.26
273.425	44.88
273.64	53.08
273.856	28.5
274.072	20.31
274.287	28.5
274.503	46.93
274.719	46.93
274.934	32.6
275.15	69.46
275.366	59.22
275.581	24.4
275.797	77.65
276.012	30.55
276.228	1.88
276.444	106.32
276.659	16.21
276.875	-10.41
277.09	-90.28
277.306	8.02
277.521	42.84
277.737	51.03
277.952	-10.41
278.168	59.22
278.383	38.74
278.599	55.12
278.814	26.45
279.03	46.93
279.245	59.22
279.461	12.12
279.676	51.03
279.892	53.08
280.107	-16.55
280.322	18.26
280.538	59.22
280.753	44.88
280.969	-26.79
281.184	65.36
281.399	67.41
281.615	10.07
281.83	89.94
282.045	57.17
282.26	8.02
282.476	57.17
282.691	67.41
282.906	34.64
283.122	42.84
283.337	-14.51
283.552	10.07
283.767	-37.03
283.983	55.12
284.198	55.12
284.413	34.64
284.628	22.36
284.843	38.74
285.058	20.31
285.274	24.4
285.489	55.12
285.704	22.36
285.919	16.21
286.134	81.75
286.349	-28.84
286.564	59.22
286.779	53.08
286.995	46.93
287.21	-30.89
287.425	69.46
287.64	-4.27
287.855	63.32
288.07	26.45
288.285	51.03
288.5	22.36
288.715	18.26
288.93	-10.41
289.145	55.12
289.36	-32.94
289.575	-12.46
289.79	-4.27
290.004	44.88
290.219	-14.51
290.434	51.03
290.649	-4.27
290.864	-0.17
291.079	55.12
291.294	87.89
291.509	-2.22
291.724	34.64
291.938	-0.17
292.153	12.12
292.368	63.32
292.583	34.64
292.798	81.75
293.012	-28.84
293.227	-26.79
293.442	38.74
293.657	30.55
293.871	69.46
294.086	69.46
294.301	22.36
294.516	34.64
294.73	12.12
294.945	51.03
295.16	-2.22
295.374	55.12
295.589	67.41
295.804	77.65
296.018	14.17
296.233	-30.89
296.447	40.79
296.662	20.31
296.877	20.31
297.091	10.07
297.306	48.98
297.52	3.93
297.735	51.03
297.949	71.51
298.164	-4.27
298.378	5.97
298.593	8.02
298.807	-22.7
299.022	18.26
299.236	-37.03
299.451	67.41
299.665	22.36
299.88	30.55
300.094	-24.75
300.309	34.64
300.523	36.69
300.737	51.03
300.952	-4.27
301.166	38.74
301.381	5.97
301.595	5.97
301.809	-12.46
302.024	40.79
302.238	18.26
302.452	65.36
302.667	28.5
302.881	42.84
303.095	81.75
303.309	-2.22
303.524	71.51
303.738	-16.55
303.952	38.74
304.166	132.95
304.381	-12.46
304.595	81.75
304.809	28.5
305.023	75.6
305.237	-71.85
305.452	83.8
305.666	44.88
305.88	57.17
306.094	14.17
306.308	-24.75
306.522	-16.55
306.736	38.74
306.95	3.93
307.164	112.47
307.379	75.6
307.593	116.56
307.807	126.8
308.021	36.69
308.235	-37.03
308.449	26.45
308.663	46.93
308.877	22.36
309.091	77.65
309.305	83.8
309.519	51.03
309.733	67.41
309.947	10.07
310.161	59.22
310.374	-43.18
310.588	42.84
310.802	55.12
311.016	44.88
311.23	135
311.444	73.56
311.658	-12.46
311.872	34.64
312.085	-4.27
312.299	8.02
312.513	12.12
312.727	48.98
312.941	48.98
313.154	26.45
313.368	96.08
313.582	-0.17
313.796	40.79
314.009	10.07
314.223	-14.51
314.437	63.32
314.651	63.32
314.864	42.84
315.078	32.6
315.292	67.41
315.505	81.75
315.719	10.07
315.933	57.17
316.146	-22.7
316.36	3.93
316.573	89.94
316.787	40.79
317.001	5.97
317.214	42.84
317.428	53.08
317.641	42.84
317.855	12.12
318.068	5.97
318.282	51.03
318.495	42.84
318.709	-8.36
318.922	26.45
319.136	118.61
319.349	59.22
319.563	36.69
319.776	42.84
319.99	40.79
320.203	14.17
320.417	55.12
320.63	59.22
320.843	75.6
321.057	3.93
321.27	14.17
321.483	61.27
321.697	46.93
321.91	67.41
322.124	59.22
322.337	-57.51
322.55	14.17
322.763	18.26
322.977	22.36
323.19	112.47
323.403	-14.51
323.617	71.51
323.83	51.03
324.043	75.6
324.256	44.88
324.469	53.08
324.683	110.42
324.896	28.5
325.109	48.98
325.322	-8.36
325.535	91.99
325.748	18.26
325.962	57.17
326.175	-12.46
326.388	-4.27
326.601	55.12
326.814	24.4
327.027	20.31
327.24	22.36
327.453	10.07
327.666	46.93
327.879	53.08
328.092	51.03
328.305	36.69
328.518	91.99
328.731	20.31
328.944	40.79
329.157	22.36
329.37	14.17
329.583	34.64
329.796	63.32
330.009	-4.27
330.222	48.98
330.435	44.88
330.648	63.32
330.861	10.07
331.073	48.98
331.286	114.52
331.499	5.97
331.712	10.07
331.925	83.8
332.138	22.36
332.35	114.52
332.563	-24.75
332.776	-28.84
332.989	-2.22
333.202	-28.84
333.414	46.93
333.627	77.65
333.84	20.31
334.053	3.93
334.265	20.31
334.478	51.03
334.691	65.36
334.903	30.55
335.116	-32.94
335.329	-2.22
335.541	63.32
335.754	75.6
335.966	-43.18
336.179	-51.37
336.392	73.56
336.604	65.36
336.817	34.64
337.029	42.84
337.242	18.26
337.454	100.18
337.667	-32.94
337.88	-24.75
338.092	46.93
338.305	75.6
338.517	8.02
338.729	8.02
338.942	-16.55
339.154	-30.89
339.367	-41.13
339.579	-0.17
339.792	26.45
340.004	40.79
340.217	-8.36
340.429	65.36
340.641	12.12
340.854	26.45
341.066	-0.17
341.278	69.46
341.491	55.12
341.703	34.64
341.915	-18.6
342.128	40.79
342.34	46.93
342.552	51.03
342.764	69.46
342.977	28.5
343.189	42.84
343.401	46.93
343.613	44.88
343.826	20.31
344.038	18.26
344.25	87.89
344.462	36.69
344.674	69.46
344.886	-12.46
345.099	53.08
345.311	38.74
345.523	79.7
345.735	36.69
345.947	18.26
346.159	-51.37
346.371	83.8
346.583	16.21
346.795	85.84
347.007	10.07
347.219	34.64
347.431	55.12
347.643	65.36
347.855	63.32
348.067	42.84
348.279	8.02
348.491	71.51
348.703	16.21
348.915	36.69
349.127	44.88
349.339	34.64
349.551	38.74
349.763	44.88
349.975	48.98
350.187	26.45
350.399	18.26
350.61	46.93
350.822	42.84
351.034	24.4
351.246	48.98
351.458	36.69
351.669	69.46
351.881	53.08
352.093	-28.84
352.305	83.8
352.517	10.07
352.728	85.84
352.94	-73.9
353.152	36.69
353.363	42.84
353.575	73.56
353.787	98.13
353.999	42.84
354.21	34.64
354.422	18.26
354.633	28.5
354.845	53.08
355.057	22.36
355.268	116.56
355.48	91.99
355.692	10.07
355.903	-8.36
356.115	-8.36
356.326	8.02
356.538	91.99
356.749	-30.89
356.961	22.36
357.172	10.07
357.384	-8.36
357.595	48.98
357.807	89.94
358.018	12.12
358.23	22.36
358.441	53.08
358.653	61.27
358.864	71.51
359.075	1.88
359.287	42.84
359.498	85.84
359.709	1.88
359.921	18.26
360.132	57.17
360.344	32.6
360.555	1.88
360.766	81.75
360.977	14.17
361.189	34.64
361.4	53.08
361.611	1.88
361.823	8.02
362.034	-37.03
362.245	-8.36
362.456	34.64
362.667	38.74
362.879	38.74
363.09	3.93
363.301	40.79
363.512	20.31
363.723	42.84
363.935	57.17
364.146	51.03
364.357	59.22
364.568	26.45
364.779	1.88
364.99	71.51
365.201	-6.31
365.412	53.08
365.623	42.84
365.834	-6.31
366.045	73.56
366.256	53.08
366.467	-34.99
366.678	71.51
366.889	-24.75
367.1	22.36
367.311	30.55
367.522	69.46
367.733	18.26
367.944	57.17
368.155	20.31
368.366	34.64
368.577	67.41
368.788	108.37
368.999	-8.36
369.209	38.74
369.42	-28.84
369.631	59.22
369.842	85.84
370.053	34.64
370.264	36.69
370.474	-12.46
370.685	16.21
370.896	-18.6
371.107	46.93
371.317	46.93
371.528	12.12
371.739	73.56
371.95	24.4
372.16	51.03
372.371	63.32
372.582	18.26
372.792	-47.27
373.003	22.36
373.214	14.17
373.424	30.55
373.635	22.36
373.846	22.36
374.056	61.27
374.267	32.6
374.477	10.07
374.688	94.04
374.898	28.5
375.109	-20.65
375.319	48.98
375.53	91.99
375.74	34.64
375.951	-32.94
376.161	112.47
376.372	22.36
376.582	20.31
376.793	48.98
377.003	65.36
377.214	-4.27
377.424	-4.27
377.635	137.04
377.845	59.22
378.055	-18.6
378.266	-32.94
378.476	94.04
378.686	-2.22
378.897	59.22
379.107	46.93
379.317	42.84
379.528	40.79
379.738	16.21
379.948	61.27
380.158	32.6
380.369	42.84
380.579	83.8
380.789	34.64
380.999	118.61
381.21	-51.37
381.42	63.32
381.63	85.84
381.84	44.88
382.05	67.41
382.261	124.76
382.471	69.46
382.681	-6.31
382.891	71.51
383.101	53.08
383.311	-12.46
383.521	77.65
383.731	100.18
383.941	36.69
384.151	38.74
384.361	-4.27
384.571	85.84
384.781	38.74
384.991	71.51
385.201	63.32
385.411	32.6
385.621	73.56
385.831	51.03
386.041	42.84
386.251	-12.46
386.461	12.12
386.671	71.51
386.881	69.46
387.091	18.26
387.301	26.45
387.511	59.22
387.72	91.99
387.93	28.5
388.14	51.03
388.35	53.08
388.56	94.04
388.769	67.41
388.979	48.98
389.189	8.02
389.399	34.64
389.609	-28.84
389.818	89.94
390.028	18.26
390.238	89.94
390.447	20.31
390.657	26.45
390.867	46.93
391.076	32.6
391.286	-26.79
391.496	34.64
391.705	81.75
391.915	59.22
392.125	71.51
392.334	94.04
392.544	51.03
392.753	51.03
392.963	30.55
393.172	71.51
393.382	108.37
393.591	38.74
393.801	-6.31
394.01	141.14
394.22	67.41
394.429	112.47
394.639	30.55
394.848	67.41
395.058	46.93
395.267	161.62
395.477	28.5
395.686	85.84
395.895	20.31
396.105	59.22
396.314	16.21
396.524	61.27
396.733	89.94
396.942	108.37
397.152	112.47
397.361	59.22
397.57	73.56
397.78	22.36
397.989	51.03
398.198	94.04
398.407	124.76
398.617	104.28
398.826	55.12
399.035	28.5
399.244	141.14
399.453	48.98
399.663	42.84
399.872	182.1
400.081	79.7
400.29	77.65
400.499	100.18
400.708	91.99
400.917	91.99
401.127	89.94
401.336	81.75
401.545	108.37
401.754	67.41
401.963	102.23
402.172	55.12
402.381	120.66
402.59	102.23
402.799	69.46
403.008	108.37
403.217	132.95
403.426	91.99
403.635	124.76
403.844	81.75
404.053	81.75
404.262	128.85
404.471	155.47
404.68	28.5
404.888	139.09
405.097	63.32
405.306	180.05
405.515	42.84
405.724	75.6
405.933	145.24
406.142	173.91
406.35	169.81
406.559	223.06
406.768	132.95
406.977	208.72
407.185	151.38
407.394	120.66
407.603	143.19
407.812	173.91
408.02	132.95
408.229	85.84
408.438	130.9
408.646	173.91
408.855	149.33
409.064	192.34
409.272	132.95
409.481	200.53
409.69	225.11
409.898	202.58
410.107	227.15
410.315	280.4
410.524	186.19
410.733	204.63
410.941	274.26
411.15	274.26
411.358	249.68
411.567	309.07
411.775	268.11
411.984	317.26
412.192	300.88
412.401	341.84
412.609	329.55
412.818	339.79
413.026	403.28
413.234	331.6
413.443	395.09
413.651	374.61
413.86	395.09
414.068	354.13
414.276	333.65
414.485	362.32
414.693	495.44
414.901	384.85
415.11	505.68
415.318	477.01
415.526	485.2
415.734	552.78
415.943	501.58
416.151	575.31
416.359	493.39
416.567	544.59
416.776	673.61
416.984	653.13
417.192	669.52
417.4	689.99
417.608	659.28
417.817	673.61
418.025	698.19
418.233	765.77
418.441	782.15
418.649	724.81
418.857	804.68
419.065	917.32
419.273	878.41
419.481	874.31
419.689	956.23
419.897	986.95
420.105	1050.44
420.313	1081.16
420.521	1015.62
420.729	1118.02
420.937	1138.5
421.145	1072.96
421.353	1152.84
421.561	1238.85
421.769	1261.38
421.977	1388.35
422.185	1398.59
422.393	1417.02
422.601	1527.61
422.809	1521.47
423.017	1517.37
423.224	1439.55
423.432	1498.94
423.64	1681.21
423.848	1845.05
424.056	1746.75
424.263	1859.38
424.471	1871.67
424.679	1863.48
424.887	2123.57
425.094	2111.29
425.302	2119.48
425.51	2246.45
425.718	2213.68
425.925	2135.86
426.133	2189.11
426.341	2428.72
426.548	2518.83
426.756	2574.13
426.964	2555.69
427.171	2682.67
427.379	2797.35
427.586	2842.41
427.794	2877.23
428.001	3108.65
428.209	3186.47
428.417	3176.23
428.624	3419.94
428.832	3303.2
429.039	3319.59
429.247	3358.5
429.454	3632.93
429.662	3872.54
429.869	3673.89
430.076	3852.06
430.284	3774.24
430.491	4089.62
430.699	4230.93
430.906	4161.3
431.114	4132.63
431.321	4294.42
431.528	4540.18
431.736	4769.55
431.943	4818.7
432.15	4751.12
432.358	4843.28
432.565	5136.13
432.772	5263.11
432.979	5502.72
433.187	5402.37
433.394	5457.67
433.601	5912.32
433.808	5889.79
434.016	5832.44
434.223	6006.52
434.43	6491.89
434.637	6178.55
434.844	6635.25
435.052	6866.67
435.259	6876.91
435.466	7106.28
435.673	6700.78
435.88	7278.31
436.087	7452.39
436.294	7745.25
436.501	7462.63
436.708	7540.45
436.915	8048.35
437.122	8259.29
437.329	8464.08
437.537	8427.22
437.743	8464.08
437.95	8556.24
438.157	8908.49
438.364	9176.78
438.571	9254.6
438.778	9334.47
438.985	10274.49
439.192	9653.95
439.399	9856.7
439.606	9760.45
439.813	10299.06
440.02	10788.53
440.227	11013.81
440.433	10755.76
440.64	11232.94
440.847	10933.93
441.054	11394.73
441.261	12013.21
441.467	11775.65
441.674	12099.23
441.881	12543.64
442.088	12734.1
442.294	12406.42
442.501	12865.17
442.708	13010.57
442.914	13454.98
443.121	14102.14
443.328	13786.75
443.534	14603.89
443.741	14192.25
443.948	13950.59
444.154	15230.57
444.361	14917.23
444.568	15234.67
444.774	15206
444.981	15238.76
445.187	15672.93
445.394	16361.05
445.6	16125.54
445.807	17704.52
446.013	16961.11
446.22	17104.46
446.426	17868.36
446.633	18101.83
446.839	18806.33
447.046	18021.95
447.252	18830.9
447.459	18904.63
447.665	18824.76
447.871	19383.85
448.078	20370.97
448.284	19414.57
448.491	20172.32
448.697	20704.79
448.903	21163.54
449.11	21214.74
449.316	20837.91
449.522	21470.73
449.728	21970.44
449.935	22035.97
450.141	21669.39
450.347	22732.28
450.553	21831.18
450.76	21675.53
450.966	22990.33
451.172	22615.55
451.378	23223.79
451.584	22730.23
451.791	23199.22
451.997	23270.9
452.203	23660.01
452.409	23496.17
452.615	23301.62
452.821	22631.93
453.027	22439.42
453.233	23338.48
453.44	22324.74
453.646	22926.84
453.852	23264.75
454.058	23234.03
454.264	22480.38
454.47	23062.01
454.676	22390.27
454.882	23109.11
455.088	21689.87
455.294	21759.5
455.5	21554.7
455.705	22089.22
455.911	21388.81
456.117	20917.78
456.323	20567.58
456.529	19375.66
456.735	20532.76
456.941	19641.9
457.147	19574.31
457.352	19105.33
457.558	18986.55
457.764	18916.92
457.97	18378.3
458.176	17956.42
458.381	18013.76
458.587	17305.17
458.793	17462.86
458.999	16213.6
459.204	17264.21
459.41	16866.9
459.616	15986.27
459.821	16010.85
460.027	15988.32
460.233	15273.58
460.438	14605.94
460.644	15013.49
460.85	14257.79
461.055	14141.05
461.261	13962.88
461.466	13041.29
461.672	12527.25
461.878	13399.69
462.083	12648.08
462.289	12355.22
462.494	12220.06
462.7	11697.83
462.905	11439.78
463.111	11990.69
463.316	11773.6
463.522	11654.82
463.727	11652.77
463.932	11505.32
464.138	11333.29
464.343	11552.42
464.549	11046.57
464.754	11538.09
464.959	11400.87
465.165	11118.25
465.37	10905.26
465.575	10444.47
465.781	11022
465.986	11091.63
466.191	10528.44
466.397	10348.22
466.602	9912
466.807	10229.43
467.012	10288.82
467.218	10311.35
467.423	10057.4
467.628	10178.23
467.833	10606.26
468.038	10202.81
468.244	10036.92
468.449	10360.5
468.654	9899.71
468.859	9860.8
469.064	9664.19
469.269	9424.58
469.474	9600.71
469.679	9604.8
469.885	9424.58
470.09	9424.58
470.295	9500.36
470.5	9203.4
470.705	9395.91
470.91	9072.33
471.115	9039.56
471.32	9227.98
471.525	8980.17
471.73	8853.2
471.935	8822.48
472.139	8652.5
472.344	8709.84
472.549	8419.03
472.754	8552.15
472.959	8249.05
473.164	8126.17
473.369	7870.17
473.574	8253.14
473.778	8210.14
473.983	8144.6
474.188	8171.22
474.393	7743.2
474.598	7952.09
474.802	7589.6
475.007	7689.95
475.212	7743.2
475.417	7347.94
475.621	7419.62
475.826	7397.09
476.031	7223.02
476.235	7126.76
476.44	7245.54
476.645	7100.14
476.849	6991.59
477.054	6985.45
477.259	6930.16
477.463	7024.36
477.668	6723.31
477.872	6862.57
478.077	6895.34
478.282	6592.24
478.486	6631.15
478.691	6436.6
478.895	6412.02
479.1	6430.45
479.304	6387.44
479.509	6094.58
479.713	6315.76
479.918	6164.22
480.122	5998.33
480.326	6362.87
480.531	6086.39
480.735	6330.1
480.94	6162.17
481.144	6366.96
481.348	6160.12
481.553	6162.17
481.757	5949.18
481.961	6094.58
482.166	6098.68
482.37	6242.04
482.574	5897.98
482.778	5924.6
482.983	6031.1
483.187	6045.43
483.391	6098.68
483.595	5914.36
483.8	5836.54
484.004	5914.36
484.208	5975.8
484.412	5973.75
484.616	5957.37
484.821	5992.19
485.025	5857.02
485.229	6024.95
485.433	5924.6
485.637	5869.31
485.841	6131.45
486.045	6014.71
486.249	5875.45
486.453	5908.22
486.657	6051.58
486.861	5943.03
487.065	5779.2
487.269	5981.95
487.473	5861.12
487.677	6031.1
487.881	5916.41
488.085	6045.43
488.289	6088.44
488.493	5959.42
488.697	5959.42
488.901	6125.3
489.105	5881.6
489.309	6033.15
489.512	6174.46
489.716	6004.47
489.92	6141.69
490.124	5936.89
490.328	6098.68
490.531	5945.08
490.735	6133.5
490.939	6239.99
491.143	6301.43
491.346	5986.04
491.55	6207.22
491.754	6117.11
491.958	6178.55
492.161	6326
492.365	6194.93
492.569	6348.53
492.772	6338.29
492.976	6309.62
493.18	6315.76
493.383	6672.11
493.587	6557.43
493.79	6598.38
493.994	6534.9
494.197	6448.88
494.401	6688.5
494.605	6600.43
494.808	6827.76
495.012	6792.94
495.215	6776.56
495.419	6821.61
495.622	6790.89
495.825	7091.95
496.029	6989.55
496.232	7249.64
496.436	7087.85
496.639	7372.52
496.843	7452.39
497.046	7487.2
497.249	7390.95
497.453	7648.99
497.656	7517.92
497.859	7571.17
498.063	7771.87
498.266	7761.63
498.469	7911.13
498.673	7921.37
498.876	7939.8
499.079	8242.9
499.282	7995.1
499.485	8230.62
499.689	8287.96
499.892	8490.71
500.095	8548.05
500.298	8777.42
500.501	8769.23
500.705	8793.81
500.908	9129.67
501.111	8965.84
501.314	9158.35
501.517	9389.77
501.72	9438.92
501.923	9506.5
502.126	9758.4
502.329	10002.11
502.532	9885.37
502.735	9918.14
502.938	10116.79
503.141	10022.59
503.344	10340.02
503.547	10405.56
503.75	10550.96
503.953	10583.73
504.156	10733.23
504.359	10901.17
504.562	10909.36
504.765	11234.99
504.968	11101.87
505.17	11402.92
505.373	11394.73
505.576	11685.54
505.779	11759.27
505.982	11634.34
506.185	12150.43
506.387	12185.24
506.59	12449.43
506.793	12691.09
506.996	12394.14
507.198	12848.79
507.401	12816.02
507.604	12945.04
507.807	13325.96
508.009	13452.94
508.212	13559.43
508.415	13784.71
508.617	13973.12
508.82	14091.9
509.022	14030.46
509.225	14409.34
509.428	14517.88
509.63	14616.18
509.833	14675.57
510.035	15122.03
510.238	15144.56
510.44	15195.76
510.643	15631.97
510.845	15812.2
511.048	15531.62
511.25	16064.1
511.453	16283.23
511.655	17018.45
511.858	16569.94
512.06	16508.51
512.262	16893.52
512.465	16838.23
512.667	17448.52
512.87	17421.9
513.072	17352.27
513.274	18075.2
513.477	18024
513.679	18290.24
513.881	18554.43
514.084	18673.21
514.286	18515.51
514.488	19031.6
514.69	19265.07
514.893	19555.88
515.095	19680.81
515.297	20160.03
515.499	19899.94
515.701	20268.58
515.904	20735.51
516.106	20614.68
516.308	20852.25
516.51	21210.64
516.712	21339.66
516.914	21523.98
517.116	22324.74
517.318	22005.25
517.52	22144.52
517.722	22142.47
517.925	22654.46
518.127	22816.25
518.329	22967.8
518.531	22924.79
518.733	23465.46
518.935	23522.8
519.136	23913.96
519.338	24202.72
519.54	24333.79
519.742	24505.82
519.944	24913.37
520.146	25513.42
520.348	25630.16
520.55	25296.34
520.752	25763.28
520.954	26340.8
521.155	26002.89
521.357	26346.95
521.559	26217.93
521.761	27131.32
521.963	26998.2
522.164	27147.7
522.366	27162.04
522.568	27606.45
522.77	27958.7
522.971	28093.86
523.173	28179.88
523.375	28095.91
523.576	28599.71
523.778	28587.43
523.98	28763.55
524.181	28853.66
524.383	29113.75
524.584	29670.8
524.786	29810.06
524.988	29316.5
525.189	30262.66
525.391	30209.42
525.592	30080.39
525.794	30633.35
525.995	31028.6
526.197	30614.91
526.398	31092.09
526.6	31126.91
526.801	31411.57
527.003	31532.4
527.204	31640.95
527.406	31896.94
527.607	31880.56
527.808	31950.19
528.01	31774.06
528.211	32019.82
528.412	32265.58
528.614	32351.59
528.815	32447.85
529.016	33021.28
529.218	32509.29
529.419	32777.57
529.62	32927.07
529.822	32828.77
530.023	32916.83
530.224	33389.91
530.425	33338.71
530.626	32871.78
530.828	32609.64
531.029	33578.32
531.23	33062.24
531.431	33621.33
531.632	33477.97
531.833	33211.74
532.035	33330.52
532.236	33758.55
532.437	33783.12
532.638	33693.01
532.839	33836.37
533.04	33783.12
533.241	33707.35
533.442	34313.55
533.643	33987.92
533.844	33883.47
534.045	34286.92
534.246	33932.62
534.447	33973.58
534.648	34041.17
534.849	34385.22
535.05	33969.49
535.251	33893.71
535.451	33727.83
535.652	34542.92
535.853	34530.63
536.054	34344.27
536.255	34282.83
536.456	33881.42
536.657	34725.19
536.857	33879.38
537.058	34360.65
537.259	34712.9
537.46	34700.61
537.66	34088.27
537.861	34590.02
538.062	34606.41
538.263	34430.28
538.463	34022.73
538.664	34553.16
538.865	34565.45
539.065	34616.65
539.266	34213.2
539.466	34704.71
539.667	34159.95
539.868	34463.05
540.068	34612.55
540.269	34135.37
540.469	34307.4
540.67	33899.86
540.87	34268.49
541.071	34413.9
541.271	34569.54
541.472	34352.46
541.672	34049.36
541.873	34190.67
542.073	34297.16
542.274	34635.08
542.474	34067.79
542.675	34114.89
542.875	34735.43
543.075	34346.31
543.276	33865.04
543.476	34616.65
543.676	34319.69
543.877	34639.17
544.077	34512.2
544.277	34153.8
544.478	34553.16
544.678	34532.68
544.878	34491.72
545.078	34358.6
545.279	34305.35
545.479	34250.06
545.679	34256.2
545.879	34436.42
546.079	34440.52
546.28	34303.31
546.48	33885.52
546.68	34278.73
546.88	34262.35
547.08	34039.12
547.28	34129.23
547.48	33967.44
547.68	34473.29
547.88	33963.34
548.081	34479.43
548.281	34415.94
548.481	34321.74
548.681	34700.61
548.881	34086.22
549.081	34250.06
549.28	33996.11
549.48	34655.56
549.68	33961.3
549.88	34553.16
550.08	34114.89
550.28	34014.54
550.48	34151.76
550.68	34385.22
550.88	33955.15
551.08	34022.73
551.279	34409.8
551.479	33973.58
551.679	34102.6
551.879	34055.5
552.079	34454.86
552.278	34135.37
552.478	34143.56
552.678	34145.61
552.878	33930.58
553.077	33791.31
553.277	33721.68
553.477	34366.79
553.676	33981.77
553.876	33795.41
554.076	34022.73
554.275	33744.21
554.475	33563.99
554.674	33949.01
554.874	33967.44
555.074	33750.35
555.273	33955.15
555.473	33852.75
555.672	33846.61
555.872	33668.44
556.071	34178.38
556.271	34059.6
556.47	33523.03
556.67	33082.72
556.869	33518.93
557.068	33453.4
557.268	33170.78
557.467	33338.71
557.667	33207.64
557.866	33402.2
558.065	33410.39
558.265	32933.21
558.464	32937.31
558.663	32939.36
558.863	32824.67
559.062	33543.51
559.261	32558.44
559.461	33240.41
559.66	32910.69
559.859	33002.85
560.058	32646.5
560.258	32673.12
560.457	32572.77
560.656	32996.7
560.855	32290.15
561.054	32511.33
561.253	32064.88
561.453	32570.72
561.652	32417.13
561.851	32351.59
562.05	32261.48
562.249	32279.91
562.448	32546.15
562.647	32052.59
562.846	32380.26
563.045	32449.89
563.244	32236.91
563.443	32372.07
563.642	31722.87
563.841	32079.21
564.04	31640.95
564.239	32093.55
564.438	31630.71
564.637	31898.99
564.836	31774.06
565.035	31741.3
565.234	31661.43
565.432	31128.95
565.631	31427.96
565.83	31606.13
566.029	31253.88
566.228	31120.76
566.427	31468.92
566.625	31087.99
566.824	30924.16
567.023	31165.82
567.222	30158.22
567.42	31239.54
567.619	31051.13
567.818	30782.85
568.016	30569.86
568.215	30942.59
568.414	30385.54
568.612	30936.45
568.811	30442.88
569.01	30414.21
569.208	29980.04
569.407	30440.84
569.605	29953.42
569.804	30627.2
570.002	30088.59
570.201	30223.75
570.4	29560.21
570.598	29613.46
570.797	29699.47
570.995	29992.33
571.193	29339.03
571.392	29861.26
571.59	29502.87
571.789	29402.52
571.987	29431.19
572.186	29277.59
572.384	29040.03
572.582	29334.93
572.781	29384.08
572.979	28546.47
573.177	28599.71
573.376	29289.88
573.574	28849.57
573.772	28859.8
573.971	28632.48
574.169	28411.3
574.367	27991.47
574.565	28597.66
574.763	28278.18
574.962	28280.23
575.16	28003.75
575.358	27887.02
575.556	27639.22
575.754	27962.79
575.952	27778.48
576.151	27618.74
576.349	27418.03
576.547	27487.67
576.745	28030.38
576.943	27252.15
577.141	27190.71
577.339	27272.63
577.537	27325.88
577.735	27110.84
577.933	26580.42
578.131	27057.59
578.329	26701.25
578.527	26359.24
578.725	26801.6
578.923	26840.51
579.121	26402.24
579.319	26267.08
579.516	26568.13
579.714	26488.26
579.912	26000.84
580.11	26398.15
580.308	26088.9
580.506	25828.81
580.704	25763.28
580.901	25892.3
581.099	26152.39
581.297	25249.24
581.495	25595.34
581.692	25445.84
581.89	25365.97
582.088	25382.35
582.285	25198.04
582.483	25378.26
582.681	25150.93
582.878	25095.64
583.076	24864.22
583.274	25054.68
583.471	24661.47
583.669	24884.7
583.866	24772.06
584.064	24770.01
584.262	24423.9
584.459	24810.97
584.657	24319.46
584.854	24935.9
585.052	24061.41
585.249	24577.5
585.447	24294.88
585.644	23924.2
585.841	23977.45
586.039	24004.07
586.236	23692.78
586.434	23561.71
586.631	23537.13
586.828	23633.39
587.026	23514.61
587.223	23561.71
587.42	23725.55
587.618	23457.26
587.815	23391.73
588.012	23080.44
588.21	23174.64
588.407	23299.57
588.604	23289.33
588.801	23012.85
588.999	22623.74
589.196	22613.5
589.393	23102.96
589.59	22820.35
589.787	22842.87
589.984	22750.71
590.182	22509.05
590.379	22789.63
590.576	22330.88
590.773	22365.7
590.97	22146.56
591.167	22488.57
591.364	21777.93
591.561	21992.97
591.758	21693.96
591.955	21894.66
592.152	21933.57
592.349	21753.35
592.546	21749.26
592.743	21734.92
592.94	21685.77
593.137	21618.19
593.334	21601.8
593.531	21050.9
593.727	21544.46
593.924	21610
594.121	21304.85
594.318	21267.98
594.515	20776.47
594.712	21263.89
594.908	21114.39
595.105	21308.94
595.302	20733.46
595.499	20872.73
595.696	20778.52
595.892	20690.46
596.089	20719.13
596.286	20620.83
596.482	20379.17
596.679	20317.73
596.876	20606.49
597.072	20203.04
597.269	20166.18
597.466	20035.11
597.662	20246.05
597.859	19947.04
598.055	20071.97
598.252	19930.66
598.448	19977.76
598.645	19858.98
598.841	19516.97
599.038	19768.87
599.234	19752.49
599.431	19648.04
599.627	19568.17
599.824	19983.91
600.02	19359.28
600.217	19433
600.413	19469.87
600.609	19256.88
600.806	18818.61
601.002	19023.41
601.198	19095.09
601.395	19011.12
601.591	18916.92
601.787	18796.09
601.984	18646.58
602.18	19027.51
602.376	18626.11
602.572	18708.02
602.769	18601.53
602.965	18527.8
603.161	18366.01
603.357	18599.48
603.553	18323.01
603.75	18257.47
603.946	17940.04
604.142	18103.87
604.338	17976.9
604.534	18193.98
604.73	17704.52
604.926	17976.9
605.122	17948.23
605.318	17716.81
605.514	17657.42
605.71	17669.7
605.906	17460.81
606.102	17434.19
606.298	17831.49
606.494	17489.48
606.69	17231.44
606.886	17491.53
607.082	17284.69
607.278	17266.25
607.474	16901.72
607.67	17360.46
607.866	16864.85
608.062	16909.91
608.257	16979.54
608.453	16713.3
608.649	17188.43
608.845	16645.72
609.041	16914
609.236	16690.77
609.432	16508.51
609.628	16649.82
609.824	16430.68
610.019	16488.03
610.215	16434.78
610.411	16369.24
610.606	16567.9
610.802	16305.76
610.998	16375.39
611.193	16201.31
611.389	16064.1
611.584	16164.45
611.78	16139.87
611.976	16338.52
612.171	15943.27
612.367	15726.18
612.562	16076.38
612.758	15717.99
612.953	15670.89
613.149	16094.82
613.344	15564.39
613.539	15908.45
613.735	15566.44
613.93	15836.77
614.126	15705.7
614.321	15769.19
614.517	15519.34
614.712	15435.37
614.907	15423.08
615.103	15556.2
615.298	15355.5
615.493	15666.79
615.688	15148.65
615.884	15593.06
616.079	15197.81
616.274	15400.55
616.47	14972.53
616.665	14915.19
616.86	14773.88
617.055	15093.36
617.25	14708.34
617.445	14999.15
617.641	14990.96
617.836	14933.62
618.031	14429.82
618.226	14923.38
618.421	14704.24
618.616	14771.83
618.811	14452.34
619.006	14802.55
619.201	14288.51
619.396	14229.12
619.591	14333.56
619.786	14345.85
619.981	14179.96
620.176	14378.62
620.371	13874.82
620.566	14130.81
620.761	13969.02
620.956	14007.94
621.151	13612.68
621.346	13788.8
621.541	13571.72
621.735	13811.33
621.93	13434.5
622.125	13428.36
622.32	13139.6
622.515	13147.79
622.709	13086.35
622.904	13338.25
623.099	13198.99
623.294	12994.19
623.488	12783.25
623.683	12979.86
623.878	12566.17
624.072	12684.95
624.267	12752.53
624.462	12502.68
624.656	12639.89
624.851	12537.49
625.046	12539.54
625.24	12328.6
625.435	12351.13
625.629	12357.27
625.824	12250.78
626.018	12052.13
626.213	12062.37
626.407	12084.89
626.602	11880.1
626.796	12093.08
626.991	11658.92
627.185	11867.81
627.38	11714.21
627.574	11660.96
627.768	11706.02
627.963	11364.01
628.157	11480.74
628.352	11527.85
628.546	11282.09
628.74	11302.57
628.935	11085.48
629.129	11087.53
629.323	10966.7
629.517	10981.04
629.712	11071.15
629.906	10755.76
630.1	10632.88
630.294	10868.4
630.489	10585.78
630.683	10815.15
630.877	10745.52
631.071	10518.2
631.265	10645.17
631.459	10616.5
631.653	10647.22
631.848	10227.39
632.042	10315.45
632.236	10342.07
632.43	10088.12
632.624	10241.72
632.818	9940.67
633.012	9842.37
633.206	9883.33
633.4	10198.71
633.594	9899.71
633.788	9887.42
633.982	9768.64
634.176	9701.06
634.369	9752.26
634.563	9545.41
634.757	9756.35
634.951	9666.24
635.145	9553.6
635.339	9586.37
635.533	9488.07
635.726	9258.7
635.92	9121.48
636.114	9311.94
636.308	9148.11
636.501	9238.22
636.695	9113.29
636.889	8992.46
637.083	9041.61
637.276	8863.44
637.47	8877.77
637.664	8804.05
637.857	8943.31
638.051	8804.05
638.244	8748.75
638.438	8478.42
638.632	8595.15
638.825	8357.59
639.019	8337.11
639.212	8339.16
639.406	8529.62
639.599	8421.08
639.793	8355.54
639.986	8201.94
640.18	8163.03
640.373	8224.47
640.567	8031.96
640.76	8152.79
640.954	7962.33
641.147	7931.61
641.34	7939.8
641.534	8120.03
641.727	7880.41
641.92	8003.29
642.114	7806.69
642.307	7821.02
642.5	7735.01
642.694	7644.9
642.887	7628.51
643.08	7513.83
643.273	7431.91
643.467	7261.93
643.66	7421.67
643.853	7356.13
644.046	7341.8
644.239	7186.15
644.432	7270.12
644.626	7106.28
644.819	7038.7
645.012	7028.46
645.205	7065.32
645.398	7130.86
645.591	6887.15
645.784	6930.16
645.977	6819.57
646.17	6823.66
646.363	6690.54
646.556	6790.89
646.749	6784.75
646.942	6794.99
647.135	6590.19
647.328	6557.43
647.521	6606.58
647.714	6452.98
647.907	6483.7
648.099	6366.96
648.292	6455.03
648.485	6432.5
648.678	6385.4
648.871	6270.71
649.064	6131.45
649.256	6299.38
649.449	6094.58
649.642	6108.92
649.835	6207.22
650.027	6108.92
650.22	5949.18
650.413	5981.95
650.605	6108.92
650.798	5926.65
650.991	5906.17
651.183	5897.98
651.376	5760.77
651.568	5760.77
651.761	5611.26
651.954	5781.25
652.146	5684.99
652.339	5627.65
652.531	5617.41
652.724	5400.32
652.916	5474.05
653.109	5398.27
653.301	5490.43
653.494	5347.08
653.686	5228.29
653.879	5383.94
654.071	5328.64
654.263	5361.41
654.456	5351.17
654.648	5338.88
654.84	5179.14
655.033	5164.81
655.225	5142.28
655.417	5113.61
655.61	5084.94
655.802	4931.34
655.994	5105.42
656.186	5064.46
656.379	5052.17
656.571	4941.58
656.763	5025.54
656.955	4886.28
657.148	4970.25
657.34	4843.28
657.532	4704.01
657.724	4736.78
657.916	4736.78
658.108	4749.07
658.3	4591.38
658.492	4630.29
658.684	4495.12
658.876	4587.28
659.068	4609.81
659.26	4386.58
659.452	4581.14
659.644	4366.1
659.836	4466.45
660.028	4562.7
660.22	4402.96
660.412	4425.49
660.604	4286.23
660.796	4359.95
660.988	4351.76
661.18	4120.34
661.372	4179.73
661.563	4101.91
661.755	4024.09
661.947	4165.4
662.139	4110.1
662.331	4126.49
662.522	4085.53
662.714	4024.09
662.906	3925.79
663.097	4089.62
663.289	3958.55
663.481	3841.82
663.673	3936.03
663.864	4024.09
664.056	3835.67
664.247	3890.97
664.439	3811.1
664.631	3807
664.822	3780.38
665.014	3772.19
665.205	3682.08
665.397	3829.53
665.588	3802.91
665.78	3720.99
665.971	3581.73
666.163	3573.53
666.354	3481.38
666.546	3516.19
666.737	3467.04
666.929	3454.75
667.12	3542.82
667.311	3510.05
667.503	3518.24
667.694	3426.08
667.885	3487.52
668.077	3364.64
668.268	3450.66
668.459	3397.41
668.651	3411.75
668.842	3315.49
669.033	3284.77
669.224	3354.4
669.416	3243.81
669.607	3464.99
669.798	3360.55
669.989	3233.57
670.18	3122.98
670.371	3176.23
670.563	3065.64
670.754	3247.91
670.945	3110.69
671.136	3106.6
671.327	3135.27
671.518	3227.43
671.709	3108.65
671.9	3075.88
672.091	2930.47
672.282	3168.04
672.473	2996.01
672.664	3030.82
672.855	2979.62
673.046	3041.06
673.237	3122.98
673.428	2981.67
673.619	2914.09
673.809	2977.58
674	2967.34
674.191	3012.39
674.382	2961.19
674.573	2987.82
674.764	2873.13
674.954	2934.57
675.145	2772.78
675.336	2856.75
675.527	2889.51
675.717	2873.13
675.908	2807.59
676.099	2838.31
676.289	2793.26
676.48	2783.02
676.671	2750.25
676.861	2758.44
677.052	2694.96
677.243	2678.57
677.433	2598.7
677.624	2821.93
677.814	2729.77
678.005	2715.44
678.195	2672.43
678.386	2600.75
678.576	2619.18
678.767	2641.71
678.957	2529.07
679.148	2610.99
679.338	2742.06
679.529	2610.99
679.719	2662.19
679.909	2635.57
680.1	2637.61
680.29	2600.75
680.481	2555.69
680.671	2504.5
680.861	2524.97
681.052	2537.26
681.242	2574.13
681.432	2451.25
681.622	2502.45
681.813	2518.83
682.003	2473.78
682.193	2479.92
682.383	2490.16
682.573	2567.98
682.764	2486.06
682.954	2410.29
683.144	2463.54
683.334	2395.95
683.524	2531.12
683.714	2535.21
683.904	2455.34
684.094	2445.1
684.284	2441.01
684.474	2398
684.664	2539.31
684.854	2402.1
685.044	2484.02
685.234	2400.05
685.424	2402.1
685.614	2383.66
685.804	2502.45
685.994	2453.3
686.184	2271.03
686.374	2412.34
686.564	2441.01
686.753	2408.24
686.943	2344.75
687.133	2332.47
687.323	2330.42
687.513	2459.44
687.702	2344.75
687.892	2393.9
688.082	2299.7
688.272	2328.37
688.461	2240.31
688.651	2334.51
688.841	2215.73
689.03	2348.85
689.22	2275.12
689.41	2180.92
689.599	2344.75
689.789	2328.37
689.979	2373.43
690.168	2303.79
690.358	2164.53
690.547	2254.64
690.737	2215.73
690.926	2365.23
691.116	2123.57
691.305	2221.88
691.495	2234.16
691.684	2205.49
691.874	2236.21
692.063	2135.86
692.252	2197.3
692.442	2164.53
692.631	2221.88
692.82	2250.55
693.01	2211.64
693.199	2187.06
693.388	2168.63
693.578	2191.16
693.767	2185.01
693.956	2223.92
694.146	2197.3
694.335	2111.29
694.524	2191.16
694.713	2215.73
694.902	2244.4
695.092	2080.57
695.281	2197.3
695.47	2268.98
695.659	2187.06
695.848	2084.66
696.037	2217.78
696.226	2123.57
696.415	2213.68
696.604	2209.59
696.793	2223.92
696.982	2377.52
697.171	2266.93
697.36	2303.79
697.549	2223.92
697.738	2096.95
697.927	2178.87
698.116	2252.59
698.305	2213.68
698.494	2142
698.683	2115.38
698.872	2334.51
699.061	2125.62
699.25	2172.72
699.438	2080.57
699.627	2254.64
699.816	2201.4
700.005	2113.33
700.193	2209.59
700.382	2203.44
700.571	2191.16
700.76	2088.76
700.948	2121.52
701.137	2142
701.326	2160.44
701.514	2166.58
701.703	2144.05
701.892	2182.96
702.08	2115.38
702.269	2088.76
702.457	2137.91
702.646	2055.99
702.834	2084.66
703.023	2080.57
703.212	2152.24
703.4	2027.32
703.589	2197.3
703.777	2058.04
703.965	1988.41
704.154	2148.15
704.342	2074.42
704.531	2033.46
704.719	2125.62
704.907	2006.84
705.096	1978.17
705.284	2004.79
705.472	2049.85
705.661	1976.12
705.849	2025.27
706.037	2058.04
706.226	1963.83
706.414	1920.82
706.602	2109.24
706.79	2049.85
706.979	1926.97
707.167	2062.13
707.355	1961.78
707.543	1929.02
707.731	2058.04
707.919	1959.74
708.107	1945.4
708.296	1953.59
708.484	1926.97
708.672	1959.74
708.86	1926.97
709.048	1888.06
709.236	1914.68
709.424	1820.47
709.612	1957.69
709.8	1883.96
709.988	1832.76
710.176	1902.39
710.364	1931.06
710.551	1994.55
710.739	1869.62
710.927	1818.43
711.115	1787.71
711.303	1857.34
711.491	1806.14
711.679	1933.11
711.866	1785.66
712.054	1845.05
712.242	1869.62
712.43	1828.67
712.617	1908.54
712.805	1789.75
712.993	1781.56
713.181	1855.29
713.368	1701.69
713.556	1779.51
713.744	1894.2
713.931	1906.49
714.119	1730.36
714.306	1775.42
714.494	1701.69
714.682	1693.5
714.869	1701.69
715.057	1705.79
715.244	1740.6
715.432	1687.36
715.619	1722.17
715.807	1683.26
715.994	1771.32
716.182	1574.72
716.369	1609.53
716.556	1697.6
716.744	1644.35
716.931	1664.83
717.119	1734.46
717.306	1691.45
717.493	1662.78
717.681	1646.4
717.868	1664.83
718.055	1689.4
718.242	1648.44
718.43	1595.2
718.617	1537.85
718.804	1558.33
718.991	1650.49
719.179	1560.38
719.366	1576.77
719.553	1589.05
719.74	1619.77
719.927	1537.85
720.114	1472.32
720.301	1591.1
720.488	1457.98
720.676	1556.29
720.863	1523.52
721.05	1519.42
721.237	1488.7
721.424	1523.52
721.611	1449.79
721.798	1539.9
721.985	1500.99
722.172	1531.71
722.358	1402.69
722.545	1443.65
722.732	1492.8
722.919	1439.55
723.106	1474.37
723.293	1439.55
723.48	1412.93
723.667	1351.49
723.853	1406.78
724.04	1353.54
724.227	1419.07
724.414	1318.72
724.6	1347.39
724.787	1365.82
724.974	1455.94
725.161	1384.26
725.347	1386.3
725.534	1365.82
725.72	1374.02
725.907	1394.5
726.094	1347.39
726.28	1351.49
726.467	1443.65
726.653	1361.73
726.84	1251.14
727.027	1386.3
727.213	1369.92
727.4	1251.14
727.586	1331.01
727.773	1337.15
727.959	1306.43
728.145	1353.54
728.332	1224.51
728.518	1206.08
728.705	1349.44
728.891	1195.84
729.077	1261.38
729.264	1173.32
729.45	1283.91
729.636	1226.56
729.823	1279.81
730.009	1249.09
730.195	1226.56
730.382	1298.24
730.568	1165.12
730.754	1206.08
730.94	1251.14
731.126	1126.21
731.313	1183.56
731.499	1189.7
731.685	1177.41
731.871	1181.51
732.057	1249.09
732.243	1314.63
732.429	1165.12
732.615	1144.64
732.801	1128.26
732.987	1122.12
733.173	1181.51
733.359	1206.08
733.545	1158.98
733.731	1115.97
733.917	1189.7
734.103	1156.93
734.289	1169.22
734.475	1089.35
734.661	1234.75
734.847	1099.59
735.033	1142.6
735.219	1175.36
735.404	1142.6
735.59	1181.51
735.776	1089.35
735.962	1064.77
736.148	1165.12
736.333	1093.44
736.519	1075.01
736.705	1134.4
736.89	1046.34
737.076	1077.06
737.262	1050.44
737.447	1107.78
737.633	1038.15
737.819	1079.11
738.004	1036.1
738.19	1064.77
738.375	1064.77
738.561	976.71
738.747	1025.86
738.932	1081.16
739.118	1081.16
739.303	1027.91
739.489	1113.92
739.674	1017.67
739.859	1060.68
740.045	982.85
740.23	964.42
740.416	978.76
740.601	1120.07
740.786	1029.96
740.972	935.75
741.157	1070.92
741.342	962.37
741.528	923.46
741.713	943.94
741.898	896.84
742.084	927.56
742.269	1066.82
742.454	851.78
742.639	900.94
742.824	902.98
743.01	964.42
743.195	933.7
743.38	880.46
743.565	991.05
743.75	978.76
743.935	923.46
744.12	851.78
744.305	872.26
744.49	968.52
744.675	929.61
744.86	874.31
745.045	900.94
745.23	866.12
745.415	833.35
745.6	874.31
745.785	862.02
745.97	886.6
746.155	874.31
746.34	886.6
746.525	821.06
746.71	898.89
746.895	847.69
747.079	812.87
747.264	872.26
747.449	831.3
747.634	837.45
747.819	819.02
748.003	771.91
748.188	816.97
748.373	845.64
748.557	776.01
748.742	747.34
748.927	829.26
749.111	765.77
749.296	814.92
749.481	853.83
749.665	747.34
749.85	784.2
750.034	778.06
750.219	710.47
750.404	765.77
750.588	755.53
750.773	661.32
750.957	769.87
751.141	706.38
751.326	720.71
751.51	753.48
751.695	765.77
751.879	657.23
752.064	757.58
752.248	661.32
752.432	696.14
752.617	696.14
752.801	712.52
752.985	700.23
753.17	640.84
753.354	587.6
753.538	628.56
753.722	610.12
753.907	673.61
754.091	583.5
754.275	722.76
754.459	681.8
754.643	636.75
754.828	710.47
755.012	624.46
755.196	624.46
755.38	610.12
755.564	614.22
755.748	546.64
755.932	589.64
756.116	665.42
756.3	577.36
756.484	556.88
756.668	657.23
756.852	585.55
757.036	610.12
757.22	634.7
757.404	491.34
757.588	583.5
757.772	649.04
757.956	520.01
758.14	571.21
758.323	554.83
758.507	636.75
758.691	536.4
758.875	503.63
759.059	618.32
759.242	560.97
759.426	509.77
759.61	513.87
759.794	544.59
759.977	606.03
760.161	577.36
760.345	567.12
760.528	548.68
760.712	468.81
760.895	491.34
761.079	532.3
761.263	485.2
761.446	487.25
761.63	532.3
761.813	540.49
761.997	425.81
762.18	423.76
762.364	536.4
762.547	423.76
762.731	485.2
762.914	474.96
763.098	423.76
763.281	434
763.464	589.64
763.648	454.48
763.831	485.2
764.015	501.58
764.198	507.73
764.381	442.19
764.564	483.15
764.748	448.33
764.931	405.33
765.114	503.63
765.297	462.67
765.481	419.66
765.664	450.38
765.847	388.94
766.03	452.43
766.213	452.43
766.397	489.29
766.58	530.25
766.763	470.86
766.946	470.86
767.129	474.96
767.312	458.57
767.495	425.81
767.678	452.43
767.861	386.9
768.044	380.75
768.227	487.25
768.41	454.48
768.593	388.94
768.776	501.58
768.959	411.47
769.142	436.05
769.324	434
769.507	487.25
769.69	395.09
769.873	372.56
770.056	493.39
770.239	448.33
770.421	407.38
770.604	386.9
770.787	429.9
770.97	372.56
771.152	401.23
771.335	454.48
771.518	354.13
771.7	350.03
771.883	380.75
772.066	374.61
772.248	415.57
772.431	470.86
772.613	409.42
772.796	368.46
772.978	374.61
773.161	397.14
773.343	401.23
773.526	411.47
773.708	436.05
773.891	327.5
774.073	438.09
774.256	356.18
774.438	436.05
774.621	405.33
774.803	438.09
774.985	354.13
775.168	341.84
775.35	278.35
775.532	360.27
775.715	304.98
775.897	395.09
776.079	329.55
776.261	405.33
776.444	276.31
776.626	386.9
776.808	304.98
776.99	382.8
777.173	409.42
777.355	288.59
777.537	345.94
777.719	321.36
777.901	321.36
778.083	370.51
778.265	231.25
778.447	249.68
778.629	325.46
778.811	319.31
778.993	309.07
779.175	300.88
779.357	300.88
779.539	343.89
779.721	294.74
779.903	409.42
780.085	288.59
780.267	354.13
780.449	284.5
780.631	321.36
780.812	302.93
780.994	284.5
781.176	292.69
781.358	249.68
781.54	266.07
781.721	327.5
781.903	339.79
782.085	276.31
782.267	247.63
782.448	249.68
782.63	237.39
782.812	298.83
782.993	231.25
783.175	257.87
783.357	239.44
783.538	251.73
783.72	335.7
783.901	239.44
784.083	296.78
784.264	182.1
784.446	257.87
784.627	190.29
784.809	235.35
784.99	243.54
785.172	227.15
785.353	257.87
785.535	206.67
785.716	259.92
785.897	202.58
786.079	257.87
786.26	190.29
786.441	268.11
786.623	171.86
786.804	206.67
786.985	161.62
787.167	198.48
787.348	235.35
787.529	198.48
787.71	255.83
787.891	221.01
788.073	161.62
788.254	218.96
788.435	112.47
788.616	233.3
788.797	180.05
788.978	167.76
789.159	204.63
789.34	272.21
789.522	161.62
789.703	180.05
789.884	167.76
790.065	259.92
790.246	202.58
790.427	157.52
790.607	196.43
790.788	237.39
790.969	218.96
791.15	235.35
791.331	218.96
791.512	149.33
791.693	202.58
791.874	212.82
792.054	186.19
792.235	192.34
792.416	77.65
792.597	214.87
792.778	208.72
792.958	175.95
793.139	233.3
793.32	147.28
793.5	114.52
793.681	48.98
793.862	173.91
794.042	235.35
794.223	137.04
794.404	235.35
794.584	118.61
794.765	163.67
794.945	159.57
795.126	161.62
795.306	128.85
795.487	147.28
795.667	214.87
795.848	196.43
796.028	139.09
796.209	135
796.389	141.14
796.57	192.34
796.75	141.14
796.93	126.8
797.111	145.24
797.291	83.8
797.471	169.81
797.652	137.04
797.832	147.28
798.012	212.82
798.192	141.14
798.373	151.38
798.553	106.32
798.733	202.58
798.913	128.85
799.093	112.47
799.274	204.63
799.454	229.2
799.634	69.46
799.814	155.47
799.994	104.28
800.174	77.65
800.354	165.71
800.534	135
800.714	151.38
800.894	130.9
801.074	85.84
801.254	132.95
801.434	104.28
801.614	130.9
801.794	63.32
801.974	296.78
802.154	85.84
802.334	145.24
802.514	110.42
802.693	77.65
802.873	85.84
803.053	196.43
803.233	126.8
803.413	198.48
803.592	112.47
803.772	96.08
803.952	65.36
804.131	175.95
804.311	124.76
804.491	139.09
804.67	16.21
804.85	124.76
805.03	104.28
805.209	151.38
805.389	128.85
805.568	190.29
805.748	155.47
805.928	139.09
806.107	182.1
806.287	163.67
806.466	114.52
806.646	106.32
806.825	122.71
807.004	106.32
807.184	151.38
807.363	108.37
807.543	91.99
807.722	40.79
807.901	110.42
808.081	26.45
808.26	65.36
808.439	77.65
808.619	120.66
808.798	38.74
808.977	63.32
809.156	114.52
809.336	114.52
809.515	114.52
809.694	153.43
809.873	114.52
810.052	151.38
810.231	102.23
810.411	83.8
810.59	126.8
810.769	118.61
810.948	83.8
811.127	51.03
811.306	63.32
811.485	22.36
811.664	79.7
811.843	57.17
812.022	108.37
812.201	165.71
812.38	137.04
812.559	75.6
812.737	83.8
812.916	122.71
813.095	73.56
813.274	112.47
813.453	126.8
813.632	96.08
813.811	145.24
813.989	57.17
814.168	116.56
814.347	46.93
814.526	79.7
814.704	186.19
814.883	104.28
815.062	122.71
815.24	135
815.419	55.12
815.598	100.18
815.776	36.69
815.955	75.6
816.133	30.55
816.312	59.22
816.49	26.45
816.669	51.03
816.847	85.84
817.026	55.12
817.204	-6.31
817.383	124.76
817.561	48.98
817.74	67.41
817.918	44.88
818.097	59.22
818.275	44.88
818.453	79.7
818.632	104.28
818.81	102.23
818.988	79.7
819.167	67.41
819.345	91.99
819.523	89.94
819.701	63.32
819.879	42.84
820.058	104.28
820.236	14.17
820.414	96.08
820.592	59.22
820.77	42.84
820.948	24.4
821.127	5.97
821.305	42.84
821.483	1.88
821.661	26.45
821.839	104.28
822.017	42.84
822.195	102.23
822.373	110.42
822.551	53.08
822.729	83.8
822.907	69.46
823.085	10.07
823.262	32.6
823.44	-57.51
823.618	14.17
823.796	77.65
823.974	32.6
824.152	91.99
824.329	145.24
824.507	87.89
824.685	30.55
824.863	75.6
825.04	79.7
825.218	118.61
825.396	67.41
825.574	91.99
825.751	12.12
825.929	85.84
826.107	10.07
826.284	87.89
826.462	10.07
826.639	75.6
826.817	26.45
826.994	112.47
827.172	26.45
827.349	75.6
827.527	51.03
827.704	32.6
827.882	44.88
828.059	53.08
828.237	104.28
828.414	38.74
828.591	18.26
828.769	91.99
828.946	3.93
829.124	128.85
829.301	71.51
829.478	34.64
829.655	51.03
829.833	94.04
830.01	69.46
830.187	48.98
830.364	-26.79
830.542	102.23
830.719	44.88
830.896	40.79
831.073	46.93
831.25	89.94
831.427	89.94
831.604	77.65
831.782	18.26
831.959	51.03
832.136	83.8
832.313	20.31
832.49	38.74
832.667	79.7
832.844	63.32
833.021	69.46
833.198	8.02
833.374	73.56
833.551	57.17
833.728	-6.31
833.905	12.12
834.082	-28.84
834.259	-0.17
834.436	-30.89
834.612	75.6
834.789	120.66
834.966	22.36
835.143	44.88
835.319	87.89
835.496	59.22
835.673	8.02
835.85	-0.17
836.026	16.21
836.203	81.75
836.38	-14.51
836.556	5.97
836.733	40.79
836.909	79.7
837.086	12.12
837.262	71.51
837.439	20.31
837.616	16.21
837.792	57.17
837.968	51.03
838.145	5.97
838.321	65.36
838.498	24.4
838.674	38.74
838.851	-14.51
839.027	137.04
839.203	40.79
839.38	51.03
839.556	102.23
839.732	28.5
839.909	69.46
840.085	71.51
840.261	51.03
840.437	44.88
840.614	-12.46
840.79	102.23
840.966	-14.51
841.142	75.6
841.318	22.36
841.494	44.88
841.671	61.27
841.847	18.26
842.023	22.36
842.199	38.74
842.375	55.12
842.551	18.26
842.727	59.22
842.903	120.66
843.079	-0.17
843.255	48.98
843.431	-14.51
843.607	8.02
843.783	-73.9
843.959	18.26
844.134	65.36
844.31	63.32
844.486	-18.6
844.662	63.32
844.838	-20.65
845.013	65.36
845.189	38.74
845.365	69.46
845.541	-12.46
845.716	26.45
845.892	116.56
846.068	10.07
846.244	-22.7
846.419	79.7
846.595	-30.89
846.77	3.93
846.946	48.98
847.122	1.88
847.297	48.98
847.473	94.04
847.648	-32.94
847.824	38.74
847.999	5.97
848.175	135
848.35	61.27
848.526	85.84
848.701	135
848.876	69.46
849.052	5.97
849.227	-2.22
849.403	65.36
849.578	16.21
849.753	20.31
849.929	14.17
850.104	8.02
850.279	14.17
850.454	16.21
850.63	118.61
850.805	22.36
850.98	3.93
851.155	51.03
851.33	36.69
851.505	14.17
851.681	55.12
851.856	96.08
852.031	22.36
852.206	1.88
852.381	61.27
852.556	-20.65
852.731	1.88
852.906	-20.65
853.081	81.75
853.256	30.55
853.431	8.02
853.606	-12.46
853.781	48.98
853.956	26.45
854.131	-30.89
854.305	-12.46
854.48	12.12
854.655	44.88
854.83	85.84
855.005	5.97
855.18	130.9
855.354	34.64
855.529	18.26
855.704	5.97
855.879	51.03
856.053	71.51
856.228	55.12
856.403	-8.36
856.577	91.99
856.752	1.88
856.926	36.69
857.101	77.65
857.276	-4.27
857.45	26.45
857.625	34.64
857.799	-63.66
857.974	67.41
858.148	-14.51
858.323	-12.46
858.497	51.03
858.672	5.97
858.846	-22.7
859.02	55.12
859.195	-12.46
859.369	14.17
859.543	46.93
859.718	55.12
859.892	-8.36
860.066	51.03
860.241	32.6
860.415	34.64
860.589	34.64
860.763	-10.41
860.938	-53.42
861.112	77.65
861.286	-8.36
861.46	-4.27
861.634	89.94
861.808	53.08
861.982	65.36
862.157	1.88
862.331	-2.22
862.505	1.88
862.679	-22.7
862.853	75.6
863.027	14.17
863.201	46.93
863.375	-37.03
863.549	44.88
863.722	10.07
863.896	53.08
864.07	110.42
864.244	-6.31
864.418	5.97
864.592	10.07
864.766	12.12
864.939	59.22
865.113	-4.27
865.287	5.97
865.461	-49.32
865.634	-18.6
865.808	32.6
865.982	-4.27
866.156	-47.27
866.329	59.22
866.503	16.21
866.676	48.98
866.85	5.97
867.024	34.64
867.197	26.45
867.371	26.45
867.544	61.27
867.718	18.26
867.891	67.41
868.065	-32.94
868.238	42.84
868.412	57.17
868.585	1.88
868.759	-22.7
868.932	-8.36
869.105	3.93
869.279	-22.7
869.452	-32.94
869.625	-0.17
869.799	-8.36
869.972	16.21
870.145	100.18
870.319	1.88
870.492	40.79
870.665	5.97
870.838	28.5
871.011	26.45
871.185	42.84
871.358	91.99
871.531	61.27
871.704	-26.79
871.877	87.89
872.05	28.5
872.223	36.69
872.396	22.36
872.569	3.93
872.742	34.64
872.915	34.64
873.088	51.03
873.261	-22.7
873.434	28.5
873.607	-34.99
873.78	-14.51
873.953	-47.27
874.126	1.88
874.299	5.97
874.471	-37.03
874.644	36.69
874.817	91.99
874.99	-20.65
875.163	28.5
875.335	-2.22
875.508	-71.85
875.681	100.18
875.853	14.17
876.026	-2.22
876.199	-6.31
876.371	-94.38
876.544	26.45
876.717	26.45
876.889	-39.08
877.062	-22.7
877.234	42.84
877.407	67.41
877.579	18.26
877.752	-30.89
877.924	71.51
878.097	-47.27
878.269	67.41
878.442	-18.6
878.614	-8.36
878.786	16.21
878.959	-57.51
879.131	-10.41
879.303	-39.08
879.476	-32.94
879.648	36.69
879.82	38.74
879.993	46.93
880.165	-55.47
880.337	46.93
880.509	48.98
880.681	-2.22
880.854	22.36
881.026	89.94
881.198	-10.41
881.37	77.65
881.542	10.07
881.714	46.93
881.886	83.8
882.058	-20.65
882.23	-51.37
882.402	-0.17
882.574	10.07
882.746	-14.51
882.918	34.64
883.09	10.07
883.262	-12.46
883.434	28.5
883.606	89.94
883.778	-26.79
883.95	132.95
884.122	12.12
884.293	-2.22
884.465	18.26
884.637	46.93
884.809	-65.71
884.98	32.6
885.152	20.31
885.324	8.02
885.496	26.45
885.667	44.88
885.839	42.84
886.011	28.5
886.182	36.69
886.354	63.32
886.525	-59.56
886.697	87.89
886.869	-0.17
887.04	-16.55
887.212	40.79
887.383	61.27
887.555	-0.17
887.726	30.55
887.897	1.88
888.069	8.02
888.24	-43.18
888.412	3.93
888.583	-24.75
888.754	46.93
888.926	-39.08
889.097	42.84
889.268	-51.37
889.44	-2.22
889.611	-8.36
889.782	53.08
889.953	10.07
890.125	1.88
890.296	-16.55
890.467	85.84
890.638	-32.94
890.809	-22.7
890.98	-47.27
891.151	14.17
891.323	8.02
891.494	-41.13
891.665	16.21
891.836	8.02
892.007	44.88
892.178	40.79
892.349	-55.47
892.52	53.08
892.691	5.97
892.862	69.46
893.032	3.93
893.203	-12.46
893.374	-47.27
893.545	34.64
893.716	-18.6
893.887	28.5
894.057	-55.47
894.228	-18.6
894.399	12.12
894.57	8.02
894.74	-18.6
894.911	38.74
895.082	48.98
895.253	-2.22
895.423	-39.08
895.594	42.84
895.764	-57.51
895.935	12.12
896.106	-2.22
896.276	1.88
896.447	22.36
896.617	-30.89
896.788	-51.37
896.958	59.22
897.129	-41.13
897.299	-0.17
897.47	10.07
897.64	30.55
897.81	-12.46
897.981	32.6
898.151	-39.08
898.322	-2.22
898.492	38.74
898.662	36.69
898.832	38.74
899.003	55.12
899.173	-20.65
899.343	-6.31
899.513	-41.13
