Data from USB4F104151__19__13-52-32-223.txt Node

Date: Thu Mar 13 13:52:32 EDT 2025
User: louis
Spectrometer: USB4F10415
Trigger mode: 4
Integration Time (sec): 1.000000E-2
Scans to average: 1
Electric dark correction enabled: true
Nonlinearity correction enabled: false
Boxcar width: 0
XAxis mode: Wavelengths
Number of Pixels in Spectrum: 3648
>>>>>Begin Spectral Data<<<<<
178.204	-4.78
178.424	-4.78
178.644	-4.78
178.864	-117.42
179.084	-17.07
179.304	34.13
179.524	13.65
179.744	-33.45
179.964	-53.93
180.184	-43.69
180.404	34.13
180.624	-33.45
180.844	-17.07
181.064	101.72
181.283	58.71
181.503	-27.31
181.723	-33.45
181.943	-8.87
182.163	-10.92
182.383	-37.55
182.602	40.28
182.822	23.89
183.042	38.23
183.262	-2.73
183.482	19.8
183.701	-12.97
183.921	-29.35
184.141	-39.59
184.361	21.85
184.58	68.95
184.8	-17.07
185.02	17.75
185.239	56.66
185.459	40.28
185.679	13.65
185.898	50.52
186.118	23.89
186.338	13.65
186.557	15.7
186.777	13.65
186.997	32.08
187.216	1.37
187.436	-43.69
187.655	-31.4
187.875	15.7
188.095	-25.26
188.314	9.56
188.534	13.65
188.753	71
188.973	50.52
189.192	34.13
189.412	-0.68
189.631	40.28
189.851	-47.79
190.07	40.28
190.29	27.99
190.509	15.7
190.729	38.23
190.948	13.65
191.168	62.8
191.387	48.47
191.607	-47.79
191.826	87.38
192.045	3.41
192.265	-60.07
192.484	48.47
192.704	1.37
192.923	11.61
193.142	34.13
193.362	19.8
193.581	50.52
193.8	-8.87
194.02	54.61
194.239	17.75
194.458	17.75
194.678	50.52
194.897	-35.5
195.116	73.04
195.335	-2.73
195.555	-43.69
195.774	27.99
195.993	17.75
196.212	-25.26
196.432	-10.92
196.651	36.18
196.87	85.33
197.089	48.47
197.308	48.47
197.528	30.04
197.747	9.56
197.966	17.75
198.185	30.04
198.404	-31.4
198.623	42.32
198.842	-15.02
199.062	50.52
199.281	44.37
199.5	114
199.719	101.72
199.938	68.95
200.157	17.75
200.376	36.18
200.595	3.41
200.814	-12.97
201.033	68.95
201.252	-8.87
201.471	-4.78
201.69	-23.21
201.909	-12.97
202.128	-4.78
202.347	25.94
202.566	9.56
202.785	11.61
203.004	-25.26
203.223	5.46
203.442	-37.55
203.661	21.85
203.879	27.99
204.098	-31.4
204.317	54.61
204.536	30.04
204.755	62.8
204.974	60.76
205.193	-15.02
205.411	44.37
205.63	-4.78
205.849	17.75
206.068	97.62
206.287	-80.55
206.505	-47.79
206.724	66.9
206.943	40.28
207.162	-21.16
207.381	-6.83
207.599	15.7
207.818	40.28
208.037	-62.12
208.255	7.51
208.474	68.95
208.693	58.71
208.911	52.56
209.13	27.99
209.349	46.42
209.567	81.24
209.786	-35.5
210.005	101.72
210.223	103.76
210.442	-23.21
210.661	19.8
210.879	30.04
211.098	144.72
211.316	7.51
211.535	46.42
211.753	60.76
211.972	38.23
212.191	-0.68
212.409	-70.31
212.628	1.37
212.846	7.51
213.065	13.65
213.283	50.52
213.502	32.08
213.72	21.85
213.938	40.28
214.157	1.37
214.375	50.52
214.594	73.04
214.812	79.19
215.031	48.47
215.249	15.7
215.467	25.94
215.686	-10.92
215.904	75.09
216.122	50.52
216.341	-10.92
216.559	40.28
216.778	-21.16
216.996	23.89
217.214	36.18
217.432	-15.02
217.651	-43.69
217.869	101.72
218.087	11.61
218.306	87.38
218.524	25.94
218.742	-12.97
218.96	93.52
219.179	-17.07
219.397	46.42
219.615	68.95
219.833	36.18
220.051	-10.92
220.27	56.66
220.488	48.47
220.706	64.85
220.924	3.41
221.142	30.04
221.36	-8.87
221.578	34.13
221.796	-6.83
222.015	85.33
222.233	-4.78
222.451	56.66
222.669	-31.4
222.887	3.41
223.105	5.46
223.323	9.56
223.541	-4.78
223.759	73.04
223.977	50.52
224.195	58.71
224.413	15.7
224.631	-35.5
224.849	7.51
225.067	-10.92
225.285	-15.02
225.503	5.46
225.721	-0.68
225.939	77.14
226.157	21.85
226.375	89.43
226.592	21.85
226.81	89.43
227.028	-21.16
227.246	19.8
227.464	66.9
227.682	64.85
227.9	128.34
228.117	64.85
228.335	40.28
228.553	34.13
228.771	44.37
228.989	25.94
229.206	-0.68
229.424	15.7
229.642	15.7
229.86	1.37
230.077	30.04
230.295	5.46
230.513	38.23
230.731	1.37
230.948	60.76
231.166	42.32
231.384	1.37
231.601	-43.69
231.819	25.94
232.037	-0.68
232.254	-29.35
232.472	27.99
232.689	42.32
232.907	101.72
233.125	-35.5
233.342	-4.78
233.56	21.85
233.777	79.19
233.995	46.42
234.213	-6.83
234.43	-51.88
234.648	-17.07
234.865	21.85
235.083	54.61
235.3	19.8
235.518	42.32
235.735	66.9
235.953	48.47
236.17	-15.02
236.388	17.75
236.605	17.75
236.822	36.18
237.04	36.18
237.257	-25.26
237.475	-55.98
237.692	81.24
237.909	-6.83
238.127	23.89
238.344	50.52
238.562	5.46
238.779	-66.22
238.996	17.75
239.214	36.18
239.431	34.13
239.648	54.61
239.865	38.23
240.083	32.08
240.3	58.71
240.517	85.33
240.735	27.99
240.952	17.75
241.169	87.38
241.386	75.09
241.603	73.04
241.821	-4.78
242.038	85.33
242.255	13.65
242.472	91.48
242.689	40.28
242.907	-25.26
243.124	-10.92
243.341	44.37
243.558	-12.97
243.775	46.42
243.992	15.7
244.209	23.89
244.426	21.85
244.643	71
244.86	38.23
245.078	-21.16
245.295	36.18
245.512	56.66
245.729	48.47
245.946	42.32
246.163	-12.97
246.38	27.99
246.597	27.99
246.814	93.52
247.031	11.61
247.248	36.18
247.464	42.32
247.681	23.89
247.898	44.37
248.115	77.14
248.332	34.13
248.549	56.66
248.766	68.95
248.983	1.37
249.2	-47.79
249.417	-10.92
249.633	48.47
249.85	48.47
250.067	34.13
250.284	-4.78
250.501	34.13
250.717	44.37
250.934	83.28
251.151	-37.55
251.368	1.37
251.585	15.7
251.801	-8.87
252.018	46.42
252.235	13.65
252.451	23.89
252.668	-15.02
252.885	44.37
253.102	15.7
253.318	1.37
253.535	75.09
253.752	-8.87
253.968	-33.45
254.185	-8.87
254.401	-19.11
254.618	13.65
254.835	-10.92
255.051	36.18
255.268	34.13
255.484	40.28
255.701	42.32
255.917	13.65
256.134	36.18
256.351	60.76
256.567	-6.83
256.784	5.46
257	87.38
257.217	89.43
257.433	13.65
257.65	23.89
257.866	73.04
258.082	62.8
258.299	-25.26
258.515	36.18
258.732	68.95
258.948	64.85
259.165	-21.16
259.381	-0.68
259.597	62.8
259.814	56.66
260.03	3.41
260.246	66.9
260.463	30.04
260.679	58.71
260.895	-17.07
261.112	40.28
261.328	-6.83
261.544	-10.92
261.761	83.28
261.977	-27.31
262.193	3.41
262.409	-92.84
262.626	75.09
262.842	1.37
263.058	46.42
263.274	68.95
263.49	46.42
263.707	83.28
263.923	25.94
264.139	-29.35
264.355	19.8
264.571	30.04
264.787	87.38
265.004	64.85
265.22	-49.83
265.436	50.52
265.652	36.18
265.868	89.43
266.084	19.8
266.3	52.56
266.516	-62.12
266.732	36.18
266.948	-2.73
267.164	52.56
267.38	-29.35
267.596	105.81
267.812	23.89
268.028	46.42
268.244	85.33
268.46	-12.97
268.676	30.04
268.892	21.85
269.108	30.04
269.324	32.08
269.54	23.89
269.756	19.8
269.972	62.8
270.188	48.47
270.403	-4.78
270.619	30.04
270.835	44.37
271.051	40.28
271.267	42.32
271.483	83.28
271.698	99.67
271.914	-4.78
272.13	52.56
272.346	1.37
272.562	93.52
272.777	15.7
272.993	-29.35
273.209	68.95
273.425	36.18
273.64	75.09
273.856	50.52
274.072	60.76
274.287	89.43
274.503	-12.97
274.719	23.89
274.934	71
275.15	-17.07
275.366	3.41
275.581	-17.07
275.797	15.7
276.012	38.23
276.228	56.66
276.444	42.32
276.659	81.24
276.875	58.71
277.09	62.8
277.306	17.75
277.521	19.8
277.737	-0.68
277.952	-31.4
278.168	44.37
278.383	19.8
278.599	66.9
278.814	48.47
279.03	-21.16
279.245	97.62
279.461	23.89
279.676	32.08
279.892	19.8
280.107	75.09
280.322	17.75
280.538	-2.73
280.753	23.89
280.969	21.85
281.184	19.8
281.399	17.75
281.615	-15.02
281.83	30.04
282.045	-33.45
282.26	21.85
282.476	19.8
282.691	44.37
282.906	-0.68
283.122	-4.78
283.337	-23.21
283.552	68.95
283.767	3.41
283.983	-8.87
284.198	52.56
284.413	11.61
284.628	54.61
284.843	38.23
285.058	75.09
285.274	34.13
285.489	56.66
285.704	97.62
285.919	15.7
286.134	25.94
286.349	50.52
286.564	11.61
286.779	62.8
286.995	64.85
287.21	23.89
287.425	21.85
287.64	44.37
287.855	66.9
288.07	32.08
288.285	58.71
288.5	30.04
288.715	-12.97
288.93	-15.02
289.145	89.43
289.36	93.52
289.575	3.41
289.79	30.04
290.004	79.19
290.219	64.85
290.434	60.76
290.649	1.37
290.864	48.47
291.079	19.8
291.294	124.24
291.509	56.66
291.724	17.75
291.938	42.32
292.153	-0.68
292.368	-8.87
292.583	11.61
292.798	11.61
293.012	48.47
293.227	87.38
293.442	44.37
293.657	7.51
293.871	9.56
294.086	56.66
294.301	-8.87
294.516	19.8
294.73	38.23
294.945	-49.83
295.16	42.32
295.374	15.7
295.589	79.19
295.804	-4.78
296.018	52.56
296.233	36.18
296.447	40.28
296.662	64.85
296.877	36.18
297.091	52.56
297.306	13.65
297.52	-10.92
297.735	93.52
297.949	25.94
298.164	5.46
298.378	1.37
298.593	21.85
298.807	60.76
299.022	52.56
299.236	13.65
299.451	-4.78
299.665	25.94
299.88	-29.35
300.094	58.71
300.309	48.47
300.523	21.85
300.737	42.32
300.952	-33.45
301.166	-17.07
301.381	-8.87
301.595	79.19
301.809	9.56
302.024	21.85
302.238	42.32
302.452	68.95
302.667	-4.78
302.881	60.76
303.095	-21.16
303.309	-37.55
303.524	54.61
303.738	19.8
303.952	-33.45
304.166	-12.97
304.381	52.56
304.595	60.76
304.809	5.46
305.023	73.04
305.237	40.28
305.452	-23.21
305.666	32.08
305.88	93.52
306.094	48.47
306.308	68.95
306.522	77.14
306.736	58.71
306.95	-2.73
307.164	30.04
307.379	54.61
307.593	46.42
307.807	77.14
308.021	101.72
308.235	44.37
308.449	15.7
308.663	-47.79
308.877	54.61
309.091	54.61
309.305	71
309.519	-8.87
309.733	73.04
309.947	-12.97
310.161	46.42
310.374	-15.02
310.588	75.09
310.802	68.95
311.016	23.89
311.23	9.56
311.444	75.09
311.658	91.48
311.872	11.61
312.085	54.61
312.299	34.13
312.513	95.57
312.727	44.37
312.941	60.76
313.154	-17.07
313.368	9.56
313.582	32.08
313.796	25.94
314.009	-19.11
314.223	19.8
314.437	34.13
314.651	27.99
314.864	79.19
315.078	91.48
315.292	62.8
315.505	62.8
315.719	52.56
315.933	68.95
316.146	-23.21
316.36	11.61
316.573	34.13
316.787	-19.11
317.001	19.8
317.214	50.52
317.428	-19.11
317.641	114
317.855	103.76
318.068	48.47
318.282	36.18
318.495	36.18
318.709	44.37
318.922	58.71
319.136	73.04
319.349	36.18
319.563	58.71
319.776	23.89
319.99	66.9
320.203	60.76
320.417	58.71
320.63	17.75
320.843	32.08
321.057	11.61
321.27	32.08
321.483	66.9
321.697	27.99
321.91	-15.02
322.124	105.81
322.337	38.23
322.55	19.8
322.763	77.14
322.977	11.61
323.19	60.76
323.403	7.51
323.617	62.8
323.83	68.95
324.043	46.42
324.256	21.85
324.469	-19.11
324.683	46.42
324.896	46.42
325.109	87.38
325.322	85.33
325.535	27.99
325.748	-25.26
325.962	54.61
326.175	11.61
326.388	58.71
326.601	105.81
326.814	38.23
327.027	40.28
327.24	44.37
327.453	38.23
327.666	52.56
327.879	77.14
328.092	32.08
328.305	-45.74
328.518	93.52
328.731	5.46
328.944	56.66
329.157	56.66
329.37	87.38
329.583	62.8
329.796	103.76
330.009	-23.21
330.222	101.72
330.435	93.52
330.648	60.76
330.861	44.37
331.073	54.61
331.286	91.48
331.499	89.43
331.712	25.94
331.925	46.42
332.138	21.85
332.35	68.95
332.563	60.76
332.776	95.57
332.989	-2.73
333.202	38.23
333.414	54.61
333.627	15.7
333.84	15.7
334.053	134.48
334.265	30.04
334.478	32.08
334.691	73.04
334.903	1.37
335.116	13.65
335.329	52.56
335.541	91.48
335.754	46.42
335.966	64.85
336.179	-6.83
336.392	50.52
336.604	21.85
336.817	75.09
337.029	9.56
337.242	-70.31
337.454	42.32
337.667	99.67
337.88	60.76
338.092	93.52
338.305	-10.92
338.517	79.19
338.729	56.66
338.942	73.04
339.154	44.37
339.367	56.66
339.579	62.8
339.792	21.85
340.004	36.18
340.217	52.56
340.429	25.94
340.641	44.37
340.854	81.24
341.066	15.7
341.278	71
341.491	91.48
341.703	97.62
341.915	56.66
342.128	44.37
342.34	13.65
342.552	46.42
342.764	38.23
342.977	99.67
343.189	83.28
343.401	62.8
343.613	25.94
343.826	-0.68
344.038	34.13
344.25	27.99
344.462	116.05
344.674	87.38
344.886	-6.83
345.099	-2.73
345.311	116.05
345.523	-31.4
345.735	36.18
345.947	52.56
346.159	36.18
346.371	68.95
346.583	21.85
346.795	75.09
347.007	19.8
347.219	-8.87
347.431	91.48
347.643	81.24
347.855	-6.83
348.067	116.05
348.279	23.89
348.491	52.56
348.703	7.51
348.915	42.32
349.127	-0.68
349.339	101.72
349.551	54.61
349.763	71
349.975	58.71
350.187	17.75
350.399	-2.73
350.61	13.65
350.822	27.99
351.034	62.8
351.246	-25.26
351.458	101.72
351.669	-21.16
351.881	77.14
352.093	111.96
352.305	79.19
352.517	44.37
352.728	95.57
352.94	-27.31
353.152	-25.26
353.363	-12.97
353.575	95.57
353.787	56.66
353.999	114
354.21	30.04
354.422	25.94
354.633	48.47
354.845	140.63
355.057	52.56
355.268	5.46
355.48	68.95
355.692	-19.11
355.903	46.42
356.115	62.8
356.326	60.76
356.538	71
356.749	38.23
356.961	54.61
357.172	-8.87
357.384	64.85
357.595	95.57
357.807	81.24
358.018	17.75
358.23	27.99
358.441	95.57
358.653	50.52
358.864	42.32
359.075	64.85
359.287	68.95
359.498	-41.64
359.709	27.99
359.921	34.13
360.132	79.19
360.344	1.37
360.555	-2.73
360.766	32.08
360.977	97.62
361.189	114
361.4	77.14
361.611	23.89
361.823	-6.83
362.034	1.37
362.245	34.13
362.456	68.95
362.667	32.08
362.879	11.61
363.09	118.1
363.301	1.37
363.512	5.46
363.723	7.51
363.935	60.76
364.146	13.65
364.357	-58.03
364.568	93.52
364.779	34.13
364.99	48.47
365.201	30.04
365.412	52.56
365.623	-27.31
365.834	40.28
366.045	66.9
366.256	42.32
366.467	99.67
366.678	-41.64
366.889	-17.07
367.1	91.48
367.311	-47.79
367.522	89.43
367.733	83.28
367.944	54.61
368.155	48.47
368.366	11.61
368.577	17.75
368.788	97.62
368.999	15.7
369.209	21.85
369.42	30.04
369.631	40.28
369.842	46.42
370.053	42.32
370.264	42.32
370.474	9.56
370.685	52.56
370.896	23.89
371.107	17.75
371.317	71
371.528	27.99
371.739	95.57
371.95	-10.92
372.16	52.56
372.371	9.56
372.582	85.33
372.792	34.13
373.003	40.28
373.214	56.66
373.424	56.66
373.635	1.37
373.846	77.14
374.056	30.04
374.267	68.95
374.477	23.89
374.688	40.28
374.898	68.95
375.109	68.95
375.319	11.61
375.53	85.33
375.74	17.75
375.951	71
376.161	11.61
376.372	77.14
376.582	27.99
376.793	48.47
377.003	40.28
377.214	36.18
377.424	91.48
377.635	11.61
377.845	36.18
378.055	52.56
378.266	79.19
378.476	38.23
378.686	109.91
378.897	50.52
379.107	-4.78
379.317	34.13
379.528	30.04
379.738	91.48
379.948	9.56
380.158	62.8
380.369	42.32
380.579	105.81
380.789	75.09
380.999	101.72
381.21	62.8
381.42	114
381.63	79.19
381.84	21.85
382.05	81.24
382.261	97.62
382.471	75.09
382.681	3.41
382.891	52.56
383.101	27.99
383.311	-6.83
383.521	99.67
383.731	40.28
383.941	48.47
384.151	116.05
384.361	34.13
384.571	52.56
384.781	75.09
384.991	25.94
385.201	128.34
385.411	81.24
385.621	-21.16
385.831	54.61
386.041	111.96
386.251	5.46
386.461	-0.68
386.671	60.76
386.881	54.61
387.091	83.28
387.301	66.9
387.511	87.38
387.72	38.23
387.93	52.56
388.14	71
388.35	103.76
388.56	101.72
388.769	103.76
388.979	56.66
389.189	38.23
389.399	111.96
389.609	19.8
389.818	21.85
390.028	9.56
390.238	46.42
390.447	-8.87
390.657	87.38
390.867	7.51
391.076	66.9
391.286	3.41
391.496	25.94
391.705	13.65
391.915	103.76
392.125	50.52
392.334	13.65
392.544	116.05
392.753	114
392.963	77.14
393.172	68.95
393.382	58.71
393.591	81.24
393.801	11.61
394.01	60.76
394.22	85.33
394.429	62.8
394.639	-10.92
394.848	120.15
395.058	44.37
395.267	48.47
395.477	109.91
395.686	101.72
395.895	120.15
396.105	138.58
396.314	130.39
396.524	91.48
396.733	132.44
396.942	130.39
397.152	36.18
397.361	73.04
397.57	138.58
397.78	89.43
397.989	154.96
398.198	91.48
398.407	144.72
398.617	204.11
398.826	136.53
399.035	93.52
399.244	128.34
399.453	120.15
399.663	150.87
399.872	73.04
400.081	56.66
400.29	197.97
400.499	95.57
400.708	177.49
400.917	79.19
401.127	130.39
401.336	91.48
401.545	154.96
401.754	144.72
401.963	54.61
402.172	148.82
402.381	81.24
402.59	167.25
402.799	93.52
403.008	99.67
403.217	140.63
403.426	126.29
403.635	173.39
403.844	75.09
404.053	138.58
404.262	134.48
404.471	187.73
404.68	140.63
404.888	171.35
405.097	148.82
405.306	230.74
405.515	146.77
405.724	159.06
405.933	126.29
406.142	171.35
406.35	187.73
406.559	206.16
406.768	134.48
406.977	232.79
407.185	202.07
407.394	245.07
407.603	259.41
407.812	245.07
408.02	243.03
408.229	138.58
408.438	292.18
408.646	255.31
408.855	341.33
409.064	298.32
409.272	279.89
409.481	220.5
409.69	232.79
409.898	277.84
410.107	316.75
410.315	316.75
410.524	361.81
410.733	388.43
410.941	408.91
411.15	376.14
411.358	341.33
411.567	382.29
411.775	392.53
411.984	331.09
412.192	542.03
412.401	433.49
412.609	585.04
412.818	566.6
413.026	626
413.234	513.36
413.443	640.33
413.651	486.73
413.86	535.89
414.068	607.56
414.276	576.84
414.485	601.42
414.693	673.1
414.901	681.29
415.11	808.26
415.318	798.03
415.526	662.86
415.734	793.93
415.943	832.84
416.151	853.32
416.359	945.48
416.567	888.14
416.776	988.49
416.984	972.1
417.192	970.05
417.4	1043.78
417.608	1088.84
417.817	1131.84
418.025	1123.65
418.233	1262.91
418.441	1207.62
418.649	1281.35
418.857	1238.34
419.065	1359.17
419.273	1307.97
419.481	1412.42
419.689	1449.28
419.897	1557.82
420.105	1682.75
420.313	1594.68
420.521	1674.56
420.729	1701.18
420.937	1740.09
421.145	1938.74
421.353	1899.83
421.561	1998.13
421.769	2075.96
421.977	2174.26
422.185	2170.16
422.393	2282.8
422.601	2381.11
422.809	2401.58
423.017	2385.2
423.224	2573.61
423.432	2573.61
423.64	2676.01
423.848	2925.86
424.056	2766.12
424.263	2938.15
424.471	3030.31
424.679	2954.54
424.887	3251.49
425.094	3134.76
425.302	3257.64
425.51	3437.86
425.718	3566.88
425.925	3706.14
426.133	3800.35
426.341	3925.27
426.548	4142.36
426.756	4142.36
426.964	4119.83
427.171	4519.18
427.379	4597.01
427.586	4605.2
427.794	4664.59
428.001	4990.22
428.209	5242.12
428.417	5045.51
428.624	5393.67
428.832	5434.63
429.039	5453.06
429.247	5471.49
429.454	5940.47
429.662	6386.93
429.869	6020.35
430.076	6454.51
430.284	6204.66
430.491	6399.22
430.699	6780.14
430.906	6790.38
431.114	6778.09
431.321	7142.63
431.528	7394.53
431.736	7675.1
431.943	8162.52
432.15	7793.89
432.358	7797.98
432.565	8436.95
432.772	8412.37
432.979	8760.53
433.187	8989.9
433.394	8948.94
433.601	9592
433.808	9635.01
434.016	9829.57
434.223	9893.05
434.43	10544.31
434.637	10446.01
434.844	10939.57
435.052	11089.07
435.259	11228.33
435.466	11248.81
435.673	11232.43
435.88	11725.99
436.087	12477.59
436.294	12561.56
436.501	12264.6
436.708	12250.27
436.915	13083.79
437.122	13522.05
437.329	13270.15
437.537	13751.43
437.743	13980.8
437.95	14122.11
438.157	14646.39
438.364	15248.49
438.571	15236.2
438.778	15262.83
438.985	16700.5
439.192	16206.94
439.399	16495.71
439.606	16084.06
439.813	17267.79
440.02	18175.04
440.227	17757.25
440.433	17677.38
440.64	18132.03
440.847	17980.48
441.054	18795.57
441.261	19852.33
441.467	19403.82
441.674	19868.71
441.881	20878.36
442.088	20640.79
442.294	20268.06
442.501	21046.29
442.708	21548.04
442.914	22281.22
443.121	23108.6
443.328	22596.6
443.534	24296.42
443.741	23389.17
443.948	23294.96
444.154	24902.62
444.361	24753.12
444.568	24933.34
444.774	24886.23
444.981	25396.18
445.187	26174.41
445.394	26948.54
445.6	26373.06
445.807	28900.25
446.013	28240.81
446.22	28418.98
446.426	29483.92
446.633	29662.1
446.839	30858.11
447.046	29563.79
447.252	31296.38
447.459	31384.44
447.665	30899.07
447.871	32301.93
448.078	33979.21
448.284	32404.33
448.491	32869.22
448.697	34190.16
448.903	35042.11
449.11	35111.74
449.316	34493.25
449.522	34968.38
449.728	35978.03
449.935	35973.94
450.141	36113.2
450.347	36641.57
450.553	35808.05
450.76	36623.14
450.966	37557.02
451.172	36707.11
451.378	37864.21
451.584	37264.16
451.791	37919.51
451.997	37935.89
452.203	37999.38
452.409	38581
452.615	38095.63
452.821	36829.99
453.027	36432.68
453.233	38392.59
453.44	36805.41
453.646	37155.61
453.852	37374.75
454.058	37819.16
454.264	36776.74
454.47	37167.9
454.676	36408.11
454.882	37499.67
455.088	34440.01
455.294	34908.99
455.5	35709.75
455.705	35865.39
455.911	34181.96
456.117	33194.84
456.323	32953.18
456.529	31388.53
456.735	32336.74
456.941	31515.51
457.147	31226.74
457.352	30479.24
457.558	30069.64
457.764	30364.55
457.97	29227.93
458.176	28986.27
458.381	28838.81
458.587	27333.56
458.793	27417.52
458.999	25922.51
459.204	27972.52
459.41	27050.94
459.616	25263.06
459.821	25564.11
460.027	25465.81
460.233	24714.2
460.438	23614.44
460.644	23815.15
460.85	22744.06
461.055	22502.4
461.261	22092.8
461.466	20614.17
461.672	20089.89
461.878	21511.18
462.083	20120.61
462.289	19727.4
462.494	19741.74
462.7	18756.66
462.905	18256.96
463.111	18988.08
463.316	18924.6
463.522	18375.74
463.727	18623.55
463.932	18500.67
464.138	18396.22
464.343	18371.65
464.549	18021.44
464.754	18404.41
464.959	18201.66
465.165	18285.63
465.37	17130.58
465.575	16809.04
465.781	17611.85
465.986	17886.28
466.191	16979.03
466.397	16802.9
466.602	15860.84
466.807	16442.46
467.012	16507.99
467.218	16315.48
467.423	16245.85
467.628	16499.8
467.833	17216.59
468.038	16464.99
468.244	15807.59
468.449	16622.68
468.654	16079.97
468.859	16036.96
469.064	15758.44
469.269	15178.86
469.474	15242.35
469.679	15940.71
469.885	15137.9
470.09	15508.58
470.295	15430.76
470.5	14859.38
470.705	15219.82
470.91	14881.91
471.115	14615.67
471.32	14754.93
471.525	14484.6
471.73	14156.93
471.935	14193.79
472.139	13892.74
472.344	14066.81
472.549	14089.34
472.754	13624.45
472.959	13343.88
473.164	13085.84
473.369	12655.76
473.574	13292.68
473.778	13413.51
473.983	13089.93
474.188	13063.31
474.393	12506.26
474.598	12491.93
474.802	12377.24
475.007	12401.82
475.212	12285.08
475.417	11795.62
475.621	12113.05
475.826	11795.62
476.031	11672.74
476.235	11672.74
476.44	11685.03
476.645	11285.67
476.849	11574.44
477.054	11162.8
477.259	11054.25
477.463	11160.75
477.668	10794.16
477.872	11017.39
478.077	10945.71
478.282	10464.44
478.486	10441.91
478.691	10464.44
478.895	10566.84
479.1	10411.19
479.304	10302.65
479.509	10015.93
479.713	10284.22
479.918	10249.4
480.122	9829.57
480.326	9893.05
480.531	10052.8
480.735	9921.73
480.94	9761.98
481.144	10312.89
481.348	9604.29
481.553	9780.42
481.757	9514.18
481.961	9768.13
482.166	10005.69
482.37	9866.43
482.574	9477.32
482.778	9651.39
482.983	9794.75
483.187	9653.44
483.391	9862.33
483.595	9575.62
483.8	9325.77
484.004	9608.39
484.208	9647.3
484.412	9682.11
484.616	9811.14
484.821	9485.51
485.025	9477.32
485.229	9673.92
485.433	9632.96
485.637	9661.63
485.841	9462.98
486.045	9460.93
486.249	9628.87
486.453	9727.17
486.657	9630.91
486.861	9624.77
487.065	9426.12
487.269	9575.62
487.473	9391.3
487.677	9614.53
487.881	9753.79
488.085	9536.71
488.289	9657.54
488.493	9596.1
488.697	9620.67
488.901	9678.02
489.105	9577.67
489.309	9721.02
489.512	9743.55
489.716	9522.37
489.92	9671.87
490.124	9696.45
490.328	9911.49
490.531	9718.98
490.735	9772.22
490.939	9813.18
491.143	9804.99
491.346	9790.66
491.55	10097.85
491.754	9960.64
491.958	10155.19
492.161	10075.32
492.365	10343.61
492.569	9981.12
492.772	10312.89
492.976	10233.02
493.18	10319.03
493.383	10478.77
493.587	10415.29
493.79	10532.02
493.994	10249.4
494.197	10636.47
494.401	10636.47
494.605	10843.31
494.808	10687.67
495.012	10992.81
495.215	10929.33
495.419	11115.69
495.622	10880.18
495.825	11187.37
496.029	11318.44
496.232	11574.44
496.436	11439.27
496.639	11578.53
496.843	11762.85
497.046	11932.83
497.249	12057.76
497.453	12117.15
497.656	12158.11
497.859	12336.28
498.063	12393.62
498.266	12749.97
498.469	12709.01
498.673	12643.48
498.876	13003.92
499.079	12917.9
499.282	13102.22
499.485	13393.03
499.689	13524.1
499.892	13675.65
500.095	13739.14
500.298	14150.78
500.501	13935.74
500.705	14496.89
500.908	14554.23
501.111	14783.6
501.314	14759.03
501.517	15090.8
501.72	15430.76
501.923	15234.16
502.126	15604.84
502.329	15895.65
502.532	15809.64
502.735	16032.86
502.938	16387.16
503.141	16532.57
503.344	16559.19
503.547	16903.25
503.75	16882.77
503.953	17255.5
504.156	17497.16
504.359	17423.44
504.562	17878.08
504.765	18125.89
504.968	17966.15
505.17	18553.91
505.373	18287.68
505.576	19162.16
505.779	19233.84
505.982	19137.59
506.185	19770.41
506.387	19571.75
506.59	19887.14
506.793	20182.05
506.996	20235.3
507.198	20747.29
507.401	20577.31
507.604	21044.24
507.807	21427.21
508.009	21883.91
508.212	21738.51
508.415	22119.43
508.617	22402.05
508.82	22471.68
509.022	22678.52
509.225	22795.26
509.428	23450.61
509.63	23630.83
509.833	23761.9
510.035	24495.07
510.238	24028.13
510.44	24724.44
510.643	25164.76
510.845	25226.2
511.048	25013.21
511.25	25588.69
511.453	25883.59
511.655	26708.93
511.858	26194.89
512.06	26725.31
512.262	26979.26
512.465	26895.29
512.667	27440.05
512.87	27997.1
513.072	27995.05
513.274	28558.24
513.477	29203.35
513.679	29307.8
513.881	29379.48
514.084	29680.53
514.286	29623.19
514.488	30018.44
514.69	31234.94
514.893	30993.28
515.095	30976.89
515.297	31603.57
515.499	31734.64
515.701	32248.68
515.904	32760.67
516.106	32795.49
516.308	33200.99
516.51	33577.81
516.712	33794.9
516.914	34132.81
517.116	34687.81
517.318	34935.62
517.52	34970.43
517.722	35289.91
517.925	35533.62
518.127	36217.64
518.329	36475.69
518.531	36475.69
518.733	37432.09
518.935	37499.67
519.136	37501.72
519.338	38173.45
519.54	38689.54
519.742	38568.71
519.944	38832.9
520.146	39594.75
520.348	39686.9
520.55	39402.24
520.752	40360.69
520.954	41190.11
521.155	40626.92
521.357	41267.94
521.559	41710.3
521.761	42070.74
521.963	42132.18
522.164	42308.3
522.366	42891.97
522.568	42709.71
522.77	43492.03
522.971	43975.35
523.173	43643.58
523.375	44069.56
523.576	44096.18
523.778	44368.56
523.98	45023.91
524.181	45034.15
524.383	45320.87
524.584	45998.74
524.786	45474.46
524.988	45986.46
525.189	46408.34
525.391	46748.3
525.592	46713.48
525.794	47239.81
525.995	47051.4
526.197	47395.46
526.398	47772.28
526.6	47839.87
526.801	48081.53
527.003	48140.92
527.204	47893.11
527.406	48939.63
527.607	48708.21
527.808	49222.25
528.01	48067.19
528.211	49068.65
528.412	49879.64
528.614	49232.49
528.815	49250.92
529.016	50045.53
529.218	49470.05
529.419	50154.07
529.62	49795.68
529.822	50315.86
530.023	50322.01
530.224	50393.68
530.425	50240.09
530.626	50238.04
530.828	49986.14
531.029	50766.41
531.23	49998.43
531.431	50166.36
531.632	50838.09
531.833	51149.38
532.035	50598.48
532.236	51257.93
532.437	51376.71
532.638	50655.82
532.839	51262.02
533.04	51208.78
533.241	50604.63
533.442	51434.05
533.643	51259.98
533.844	51491.4
534.045	51239.5
534.246	50926.16
534.447	52052.54
534.648	50860.62
534.849	51542.59
535.05	51352.13
535.251	51518.02
535.451	51294.79
535.652	51511.88
535.853	51649.09
536.054	51503.68
536.255	51399.24
536.456	51198.54
536.657	51860.03
536.857	51589.7
537.058	51272.26
537.259	51796.54
537.46	51769.92
537.66	51595.84
537.861	51761.73
538.062	51714.62
538.263	51601.99
538.463	51176.01
538.664	51245.64
538.865	51776.06
539.065	51984.96
539.266	51487.3
539.466	51900.99
539.667	50827.85
539.868	51868.22
540.068	51214.92
540.269	51374.66
540.469	51804.73
540.67	51069.51
540.87	51288.65
541.071	51307.08
541.271	51442.24
541.472	51401.28
541.672	51112.52
541.873	51071.56
542.073	50752.08
542.274	52228.66
542.474	51321.41
542.675	51006.03
542.875	51827.26
543.075	51141.19
543.276	50725.46
543.476	51745.34
543.676	50713.17
543.877	51278.41
544.077	51364.42
544.277	51264.07
544.478	50874.96
544.678	51458.63
544.878	51360.33
545.078	51442.24
545.279	50840.14
545.479	50960.97
545.679	51397.19
545.879	51108.43
546.079	51378.76
546.28	51331.65
546.48	50893.39
546.68	51401.28
546.88	51489.35
547.08	51157.58
547.28	51350.09
547.48	50936.4
547.68	51190.34
547.88	50778.7
548.081	51286.6
548.281	50922.06
548.481	50934.35
548.681	51229.26
548.881	50893.39
549.081	50827.85
549.28	50911.82
549.48	51573.31
549.68	51276.36
549.88	51761.73
550.08	51065.42
550.28	50872.91
550.48	50864.72
550.68	51147.34
550.88	50588.24
551.08	50813.52
551.279	51128.91
551.479	50649.68
551.679	51419.72
551.879	50772.56
552.079	51274.31
552.278	50958.92
552.478	50504.27
552.678	50895.44
552.878	51239.5
553.077	50836.05
553.277	50334.29
553.477	51317.32
553.676	50451.03
553.876	50520.66
554.076	50283.09
554.275	50352.72
554.475	50068.06
554.674	50491.99
554.874	50614.86
555.074	50027.1
555.273	50666.06
555.473	50586.19
555.672	49912.41
555.872	50594.39
556.071	50072.15
556.271	50420.31
556.47	50090.58
556.67	49656.42
556.869	50246.23
557.068	50422.36
557.268	49924.7
557.467	49764.96
557.667	49734.24
557.866	49316.45
558.065	50008.67
558.265	49549.92
558.464	49513.06
558.663	49306.21
558.863	48714.35
559.062	49650.27
559.261	48607.86
559.461	49599.07
559.66	48851.56
559.859	49691.23
560.058	48753.26
560.258	49455.71
560.457	48904.81
560.656	49394.28
560.855	48867.95
561.054	48960.11
561.253	48542.32
561.453	48861.8
561.652	48777.84
561.851	48820.84
562.05	48341.62
562.249	48583.28
562.448	48491.12
562.647	48487.03
562.846	48374.39
563.045	48517.74
563.244	47970.94
563.443	48585.33
563.642	48063.1
563.841	47952.51
564.04	47561.34
564.239	48327.28
564.438	47805.05
564.637	47915.64
564.836	47714.94
565.035	47471.23
565.234	47600.25
565.432	47424.13
565.631	47624.83
565.83	47723.13
566.029	47196.81
566.228	47350.4
566.427	47141.51
566.625	46928.52
566.824	46363.28
567.023	47125.13
567.222	45996.7
567.42	47383.17
567.619	46817.93
567.818	46830.22
568.016	46547.6
568.215	46754.44
568.414	46350.99
568.612	46897.8
568.811	45890.2
569.01	46402.19
569.208	45818.52
569.407	46037.65
569.605	45607.58
569.804	46310.03
570.002	45550.24
570.201	45910.68
570.4	45216.42
570.598	44950.18
570.797	44968.62
570.995	45382.3
571.193	45079.21
571.392	45402.78
571.59	44792.49
571.789	44909.22
571.987	44159.67
572.186	44511.92
572.384	44221.11
572.582	44528.3
572.781	44135.09
572.979	43797.18
573.177	43899.58
573.376	44083.89
573.574	43776.7
573.772	43834.04
573.971	43512.51
574.169	43356.86
574.367	43178.69
574.565	43440.83
574.763	43229.89
574.962	43348.67
575.16	42556.11
575.358	43078.34
575.556	42398.41
575.754	43147.97
575.952	42357.45
576.151	42705.61
576.349	42062.55
576.547	42169.04
576.745	42535.63
576.943	42259.15
577.141	41755.35
577.339	42146.51
577.537	41601.75
577.735	41636.57
577.933	41648.86
578.131	41399.01
578.329	41065.19
578.527	41208.54
578.725	41347.81
578.923	41075.43
579.121	40860.39
579.319	40927.97
579.516	41159.39
579.714	40643.31
579.912	40428.27
580.11	40063.73
580.308	40250.1
580.506	40202.99
580.704	39887.6
580.901	40063.73
581.099	40022.77
581.297	39736.06
581.495	39535.35
581.692	39672.57
581.89	39283.45
582.088	39613.18
582.285	39344.89
582.483	39473.92
582.681	39113.47
582.878	38972.16
583.076	38456.07
583.274	38875.91
583.471	38247.18
583.669	38603.53
583.866	38433.55
584.064	39052.03
584.262	38273.81
584.459	38212.37
584.657	38007.57
584.854	38238.99
585.052	37325.6
585.249	37446.43
585.447	37800.72
585.644	37438.23
585.841	37559.06
586.039	37753.62
586.236	36979.49
586.434	36877.09
586.631	36694.82
586.828	37114.65
587.026	37346.08
587.223	36625.19
587.42	36047.66
587.618	36573.99
587.815	35992.37
588.012	36408.11
588.21	36199.21
588.407	36180.78
588.604	35705.65
588.801	35754.8
588.999	35863.35
589.196	35775.28
589.393	35746.61
589.59	35570.49
589.787	35324.73
589.984	35228.48
590.182	34958.14
590.379	35435.32
590.576	35025.73
590.773	35214.14
590.97	34767.68
591.167	34773.83
591.364	34722.63
591.561	34544.45
591.758	34247.5
591.955	34491.21
592.152	34601.8
592.349	34261.83
592.546	34263.88
592.743	34394.95
592.94	33467.22
593.137	33968.97
593.334	34489.16
593.531	33219.42
593.727	33790.8
593.924	33579.86
594.121	33366.87
594.318	33502.04
594.515	32885.6
594.712	33008.48
594.908	32803.68
595.105	33125.21
595.302	32564.07
595.499	32901.98
595.696	32572.26
595.892	32715.62
596.089	32412.52
596.286	32719.71
596.482	32404.33
596.679	32357.22
596.876	31865.71
597.072	31908.72
597.269	32121.71
597.466	31728.5
597.662	31695.73
597.859	31804.27
598.055	31697.78
598.252	31261.56
598.448	31464.31
598.645	31437.69
598.841	30892.93
599.038	31048.57
599.234	31347.57
599.431	31060.86
599.627	30729.09
599.824	31236.98
600.02	30559.11
600.217	30770.05
600.413	30374.79
600.609	30356.36
600.806	30274.44
601.002	30409.61
601.198	30165.9
601.395	29756.3
601.591	29735.82
601.787	30364.55
601.984	29557.65
602.18	30002.06
602.376	29440.92
602.572	29424.53
602.769	29703.06
602.965	29193.11
603.161	29072.28
603.357	29201.3
603.553	28674.98
603.75	28853.15
603.946	28634.02
604.142	28816.29
604.338	28279.72
604.534	28943.26
604.73	28203.94
604.926	28138.41
605.122	28449.7
605.318	28003.24
605.514	27868.08
605.71	27843.5
605.906	27894.7
606.102	27802.54
606.298	27718.57
606.494	28062.63
606.69	27454.39
606.886	27341.75
607.082	27155.38
607.278	27585.46
607.474	27018.17
607.67	27388.85
607.866	26991.55
608.062	27384.76
608.257	26725.31
608.453	26883
608.649	27003.83
608.845	26825.66
609.041	26559.42
609.236	26663.87
609.432	26547.14
609.628	26471.36
609.824	26627.01
610.019	26252.23
610.215	26188.74
610.411	26627.01
610.606	26092.49
610.802	26233.8
610.998	25977.8
611.193	26166.21
611.389	25734.09
611.584	25586.64
611.78	25631.69
611.976	25762.76
612.171	25623.5
612.367	25418.71
612.562	25478.1
612.758	25203.67
612.953	25189.33
613.149	25650.13
613.344	24884.19
613.539	25416.66
613.735	25023.45
613.93	25281.49
614.126	25263.06
614.321	25123.8
614.517	24746.97
614.712	24904.67
614.907	24683.48
615.103	24646.62
615.298	24726.49
615.493	24794.07
615.688	24286.18
615.884	25050.07
616.079	24099.81
616.274	24527.84
616.47	24294.37
616.665	24441.82
616.86	24331.23
617.055	24200.16
617.25	23929.83
617.445	24105.96
617.641	23673.84
617.836	23974.89
618.031	23516.14
618.226	23940.07
618.421	23626.73
618.616	23813.1
618.811	23616.49
619.006	23729.13
619.201	22924.28
619.396	23307.25
619.591	23051.25
619.786	23303.15
619.981	22549.5
620.176	23000.05
620.371	22567.93
620.566	22828.02
620.761	22498.3
620.956	22662.14
621.151	22184.96
621.346	22416.38
621.541	22041.6
621.735	22262.79
621.93	21933.06
622.125	21984.26
622.32	21320.72
622.515	21789.7
622.709	21242.9
622.904	21502.99
623.099	21392.4
623.294	21101.59
623.488	21101.59
623.683	20915.22
623.878	20687.9
624.072	20700.19
624.267	20640.79
624.462	20552.73
624.656	20370.46
624.851	20204.58
625.046	20360.22
625.24	19977.25
625.435	20050.98
625.629	20016.16
625.824	19663.91
626.018	19635.24
626.213	18996.28
626.407	19426.35
626.602	19229.74
626.796	19207.22
626.991	19102.77
627.185	19002.42
627.38	18854.97
627.574	18742.33
627.768	18512.95
627.963	18416.7
628.157	18177.09
628.352	18431.04
628.546	18187.33
628.74	18129.98
628.935	17931.33
629.129	18062.4
629.323	17892.42
629.517	17757.25
629.712	17595.46
629.906	17638.47
630.1	17255.5
630.294	17466.44
630.489	17364.04
630.683	17550.41
630.877	17108.05
631.071	16897.11
631.265	16933.97
631.459	16731.22
631.653	16852.05
631.848	16811.09
632.042	16395.36
632.236	16720.98
632.43	16360.54
632.624	16368.73
632.818	16338.01
633.012	15924.32
633.206	16030.82
633.4	16231.52
633.594	15981.67
633.788	16049.25
633.982	15932.51
634.176	15615.08
634.369	15432.81
634.563	15760.48
634.757	15502.44
634.951	15285.36
635.145	15461.48
635.339	15336.56
635.533	15213.68
635.726	15193.2
635.92	14769.27
636.114	15215.73
636.308	15023.22
636.501	14937.2
636.695	14939.25
636.889	14730.36
637.083	14589.05
637.276	14591.09
637.47	14365.82
637.664	14359.67
637.857	14228.6
638.051	14378.11
638.244	14011.52
638.438	14152.83
638.632	13945.98
638.825	13855.87
639.019	13722.76
639.212	13646.98
639.406	13679.75
639.599	13689.99
639.793	13616.26
639.986	13298.83
640.18	13354.12
640.373	13497.48
640.567	13251.72
640.76	13423.75
640.954	13104.27
641.147	12866.7
641.34	13038.73
641.534	13071.5
641.727	12758.16
641.92	12645.52
642.114	12541.08
642.307	12459.16
642.5	12639.38
642.694	12371.1
642.887	12154.01
643.08	12436.63
643.273	12338.33
643.467	12364.95
643.66	12178.59
643.853	11986.08
644.046	11871.39
644.239	12072.09
644.432	11949.22
644.626	11732.13
644.819	11670.69
645.012	11748.51
645.205	11670.69
645.398	11566.24
645.591	11556
645.784	11263.15
645.977	11226.28
646.17	11300.01
646.363	11242.67
646.556	10964.14
646.749	11007.15
646.942	10812.59
647.135	10824.88
647.328	10718.39
647.521	10888.37
647.714	10611.89
647.907	10628.28
648.099	10495.16
648.292	10658.99
648.485	10357.94
648.678	10446.01
648.871	10380.47
649.064	10022.08
649.256	10187.96
649.449	10149.05
649.642	10253.5
649.835	9880.77
650.027	9964.73
650.22	9884.86
650.413	9897.15
650.605	9827.52
650.798	9751.74
650.991	9794.75
651.183	9520.32
651.376	9688.26
651.568	9675.97
651.761	9559.24
651.954	9446.6
652.146	9489.6
652.339	9137.35
652.531	9364.68
652.724	9211.08
652.916	9010.38
653.109	9137.35
653.301	9071.82
653.494	9084.11
653.686	8742.1
653.879	8932.56
654.071	8678.61
654.263	8639.7
654.456	8824.01
654.648	8709.33
654.84	8484.05
655.033	8549.59
655.225	8682.7
655.417	8682.7
655.61	8518.87
655.802	8293.59
655.994	8432.85
656.186	8391.89
656.379	8230.1
656.571	7984.35
656.763	8019.16
656.955	8062.17
657.148	8070.36
657.34	8029.4
657.532	7773.41
657.724	7967.96
657.916	7902.43
658.108	7922.91
658.3	7601.38
658.492	7744.74
658.684	7654.62
658.876	7466.21
659.068	7562.47
659.26	7435.49
659.452	7623.9
659.644	7240.93
659.836	7228.65
660.028	7337.19
660.22	7177.45
660.412	7236.84
660.604	7275.75
660.796	7079.15
660.988	7073
661.18	6943.98
661.372	7001.32
661.563	6911.21
661.755	7060.71
661.947	6769.9
662.139	6741.23
662.331	6753.52
662.522	6769.9
662.714	6663.41
662.906	6526.19
663.097	6505.71
663.289	6507.76
663.481	6442.23
663.673	6479.09
663.864	6356.21
664.056	6276.34
664.247	6440.18
664.439	6135.03
664.631	6360.31
664.822	6300.92
665.014	6356.21
665.205	6120.7
665.397	6055.16
665.588	6010.11
665.78	5881.08
665.971	6114.55
666.163	6175.99
666.354	5963
666.546	5883.13
666.737	5784.83
666.929	5766.4
667.12	5915.9
667.311	5655.81
667.503	5704.96
667.694	5858.56
667.885	5541.12
668.077	5676.29
668.268	5506.31
668.459	5631.23
668.651	5618.94
668.842	5547.26
669.033	5532.93
669.224	5590.27
669.416	5461.25
669.607	5326.08
669.798	5389.57
669.989	5313.8
670.18	5268.74
670.371	5223.69
670.563	5270.79
670.754	5371.14
670.945	5287.17
671.136	5059.85
671.327	5166.34
671.518	5016.84
671.709	5283.08
671.9	5197.06
672.091	5172.49
672.282	5037.32
672.473	5168.39
672.664	5088.52
672.855	5088.52
673.046	4943.11
673.237	5037.32
673.428	5012.74
673.619	4857.1
673.809	4812.04
674	4863.24
674.191	4730.13
674.382	4803.85
674.573	4687.12
674.764	4672.78
674.954	4648.21
675.145	4572.43
675.336	4683.02
675.527	4533.52
675.717	4635.92
675.908	4558.1
676.099	4635.92
676.289	4531.47
676.48	4560.14
676.671	4568.34
676.861	4492.56
677.052	4488.46
677.243	4508.94
677.433	4392.21
677.624	4400.4
677.814	4365.59
678.005	4519.18
678.195	4410.64
678.386	4390.16
678.576	4371.73
678.767	4343.06
678.957	4424.98
679.148	4375.83
679.338	4320.53
679.529	4224.28
679.719	4195.61
679.909	4271.38
680.1	4230.42
680.29	4328.72
680.481	4347.15
680.671	4226.32
680.861	4037.91
681.052	4148.5
681.242	4099.35
681.432	4224.28
681.622	4042.01
681.813	4117.78
682.003	4072.73
682.193	3947.8
682.383	3962.14
682.573	3962.14
682.764	4080.92
682.954	4074.78
683.144	4054.3
683.334	4031.77
683.524	3886.36
683.714	3978.52
683.904	3849.5
684.094	4019.48
684.284	3984.66
684.474	3955.99
684.664	3966.23
684.854	3964.18
685.044	3839.26
685.234	3902.75
685.424	3915.03
685.614	3796.25
685.804	3923.23
685.994	3872.03
686.184	3943.71
686.374	3839.26
686.564	3915.03
686.753	3845.4
686.943	3743
687.133	3777.82
687.323	3667.23
687.513	3767.58
687.702	3763.48
687.892	3724.57
688.082	3743
688.272	3671.33
688.461	3673.37
688.651	3751.2
688.841	3659.04
689.03	3644.7
689.22	3626.27
689.41	3724.57
689.599	3833.11
689.789	3487.01
689.979	3618.08
690.168	3616.03
690.358	3771.68
690.547	3710.24
690.737	3562.78
690.926	3642.65
691.116	3564.83
691.305	3656.99
691.495	3593.5
691.684	3515.68
691.874	3607.84
692.063	3595.55
692.252	3626.27
692.442	3523.87
692.631	3507.49
692.82	3581.21
693.01	3673.37
693.199	3650.85
693.388	3532.06
693.578	3562.78
693.767	3556.64
693.956	3472.67
694.146	3505.44
694.335	3259.68
694.524	3562.78
694.713	3704.09
694.902	3704.09
695.092	3599.65
695.281	3433.76
695.47	3446.05
695.659	3368.23
695.848	3474.72
696.037	3575.07
696.226	3507.49
696.415	3507.49
696.604	3263.78
696.793	3448.1
696.982	3368.23
697.171	3495.2
697.36	3357.99
697.549	3429.66
697.738	3407.14
697.927	3409.19
698.116	3355.94
698.305	3491.1
698.494	3276.07
698.683	3474.72
698.872	3433.76
699.061	3235.11
699.25	3317.03
699.438	3331.36
699.627	3329.31
699.816	3310.88
700.005	3446.05
700.193	3343.65
700.382	3347.75
700.571	3333.41
700.76	3257.64
700.948	3343.65
701.137	3271.97
701.326	3276.07
701.514	3175.72
701.703	3310.88
701.892	3249.44
702.08	3251.49
702.269	3171.62
702.457	3259.68
702.646	3280.16
702.834	3306.79
703.023	3210.53
703.212	3233.06
703.4	3093.8
703.589	3050.79
703.777	3204.39
703.965	3151.14
704.154	3161.38
704.342	3024.17
704.531	3089.7
704.719	2960.68
704.907	3018.02
705.096	3095.85
705.284	3065.13
705.472	3058.98
705.661	2946.34
705.849	3075.37
706.037	2962.73
706.226	3044.65
706.414	3058.98
706.602	3116.33
706.79	2942.25
706.979	2897.19
707.167	2944.3
707.355	3032.36
707.543	2868.52
707.731	2919.72
707.919	2962.73
708.107	2829.61
708.296	2792.75
708.484	2817.32
708.672	2790.7
708.86	2845.99
709.048	2909.48
709.236	2919.72
709.424	2866.47
709.612	2837.8
709.8	2876.71
709.988	2794.79
710.176	2835.75
710.364	2915.62
710.551	2739.5
710.739	2647.34
710.927	2737.45
711.115	2669.87
711.303	2813.23
711.491	2669.87
711.679	2796.84
711.866	2698.54
712.054	2628.91
712.242	2602.29
712.43	2622.77
712.617	2612.53
712.805	2536.75
712.993	2575.66
713.181	2534.7
713.368	2628.91
713.556	2661.68
713.744	2612.53
713.931	2577.71
714.119	2377.01
714.306	2549.04
714.494	2608.43
714.682	2444.59
714.869	2467.12
715.057	2485.55
715.244	2436.4
715.432	2549.04
715.619	2463.02
715.807	2542.89
715.994	2432.3
716.182	2366.77
716.369	2350.39
716.556	2465.07
716.744	2336.05
716.931	2299.19
717.119	2352.43
717.306	2415.92
717.493	2295.09
717.681	2389.3
717.868	2266.42
718.055	2280.75
718.242	2252.08
718.43	2243.89
718.617	2331.95
718.804	2303.28
718.991	2262.32
719.179	2239.8
719.366	2243.89
719.553	2270.51
719.74	2250.03
719.927	2219.32
720.114	2303.28
720.301	2194.74
720.488	2211.12
720.676	2166.07
720.863	2086.2
721.05	2114.87
721.237	2096.44
721.424	2075.96
721.611	2055.48
721.798	2084.15
721.985	2067.77
722.172	2035
722.358	1967.42
722.545	2090.29
722.732	2002.23
722.919	2063.67
723.106	2037.05
723.293	2049.33
723.48	2002.23
723.667	1965.37
723.853	1934.65
724.04	1946.94
724.227	1873.21
724.414	1912.12
724.6	1961.27
724.787	1922.36
724.974	1965.37
725.161	2039.09
725.347	1830.2
725.534	1893.69
725.72	1756.47
725.907	1881.4
726.094	1895.74
726.28	1846.59
726.467	1912.12
726.653	1811.77
726.84	1867.06
727.027	1754.43
727.213	1858.87
727.4	1811.77
727.586	1897.78
727.773	1701.18
727.959	1862.97
728.145	1701.18
728.332	1805.63
728.518	1772.86
728.705	1766.71
728.891	1709.37
729.077	1809.72
729.264	1713.47
729.45	1656.12
729.636	1707.32
729.823	1787.19
730.009	1789.24
730.195	1774.91
730.382	1733.95
730.568	1674.56
730.754	1805.63
730.94	1756.47
731.126	1582.4
731.313	1764.67
731.499	1688.89
731.685	1621.31
731.871	1678.65
732.057	1660.22
732.243	1711.42
732.429	1678.65
732.615	1592.64
732.801	1639.74
732.987	1600.83
733.173	1594.68
733.359	1615.16
733.545	1615.16
733.731	1631.55
733.917	1508.67
734.103	1535.29
734.289	1639.74
734.475	1525.05
734.661	1619.26
734.847	1490.24
735.033	1488.19
735.219	1537.34
735.404	1430.85
735.59	1537.34
735.776	1582.4
735.962	1477.95
736.148	1490.24
736.333	1570.11
736.519	1500.48
736.705	1486.14
736.89	1457.47
737.076	1514.81
737.262	1473.85
737.447	1557.82
737.633	1443.14
737.819	1453.38
738.004	1459.52
738.19	1367.36
738.375	1439.04
738.561	1578.3
738.747	1371.46
738.932	1480
739.118	1363.26
739.303	1527.1
739.489	1260.87
739.674	1355.07
739.859	1404.22
740.045	1371.46
740.23	1363.26
740.416	1273.15
740.601	1363.26
740.786	1301.83
740.972	1307.97
741.157	1232.19
741.342	1314.11
741.528	1314.11
741.713	1369.41
741.898	1224
742.084	1357.12
742.269	1211.71
742.454	1305.92
742.639	1350.98
742.824	1305.92
743.01	1221.95
743.195	1189.19
743.38	1262.91
743.565	1269.06
743.75	1256.77
743.935	1269.06
744.12	1238.34
744.305	1262.91
744.49	1191.24
744.675	1135.94
744.86	1117.51
745.045	1224
745.23	1127.75
745.415	1148.23
745.6	1178.95
745.785	1111.36
745.97	1162.56
746.155	1238.34
746.34	1219.91
746.525	1084.74
746.71	1197.38
746.895	1181
747.079	1033.54
747.264	1123.65
747.449	1097.03
747.634	1056.07
747.819	1097.03
748.003	984.39
748.188	968.01
748.373	1064.26
748.557	1090.88
748.742	943.43
748.927	1107.27
749.111	1035.59
749.296	988.49
749.481	1062.21
749.665	1049.93
749.85	1058.12
750.034	996.68
750.219	976.2
750.404	1023.3
750.588	935.24
750.773	914.76
750.957	1072.45
751.141	918.86
751.326	912.71
751.51	998.73
751.695	912.71
751.879	863.56
752.064	1066.31
752.248	879.94
752.432	931.14
752.617	910.66
752.801	896.33
752.985	963.91
753.17	937.29
753.354	957.77
753.538	855.37
753.722	789.83
753.907	861.51
754.091	877.9
754.275	898.38
754.459	873.8
754.643	925
754.828	808.26
755.012	873.8
755.196	869.7
755.38	769.35
755.564	816.46
755.748	845.13
755.932	898.38
756.116	824.65
756.3	679.24
756.484	834.89
756.668	859.46
756.852	853.32
757.036	804.17
757.22	748.87
757.404	732.49
757.588	728.39
757.772	646.48
757.956	656.72
758.14	748.87
758.323	791.88
758.507	802.12
758.691	759.11
758.875	712.01
759.059	730.44
759.242	752.97
759.426	689.48
759.61	722.25
759.794	707.91
759.977	617.8
760.161	642.38
760.345	687.43
760.528	697.67
760.712	699.72
760.895	664.91
761.079	675.15
761.263	642.38
761.446	683.34
761.63	662.86
761.813	638.28
761.997	748.87
762.18	716.11
762.364	642.38
762.547	716.11
762.731	623.95
762.914	660.81
763.098	636.24
763.281	570.7
763.464	652.62
763.648	652.62
763.831	605.52
764.015	615.76
764.198	642.38
764.381	632.14
764.564	619.85
764.748	730.44
764.931	693.58
765.114	605.52
765.297	662.86
765.481	628.04
765.664	607.56
765.847	576.84
766.03	679.24
766.213	636.24
766.397	671.05
766.58	621.9
766.763	671.05
766.946	626
767.129	632.14
767.312	630.09
767.495	589.13
767.678	525.65
767.861	634.19
768.044	511.31
768.227	636.24
768.41	546.12
768.593	589.13
768.776	574.8
768.959	611.66
769.142	576.84
769.324	636.24
769.507	537.93
769.69	562.51
769.873	593.23
770.056	650.57
770.239	611.66
770.421	544.08
770.604	572.75
770.787	560.46
770.97	593.23
771.152	537.93
771.335	552.27
771.518	548.17
771.7	601.42
771.883	640.33
772.066	533.84
772.248	519.5
772.431	544.08
772.613	564.56
772.796	496.97
772.978	525.65
773.161	503.12
773.343	562.51
773.526	494.93
773.708	511.31
773.891	611.66
774.073	529.74
774.256	554.32
774.438	523.6
774.621	535.89
774.803	501.07
774.985	488.78
775.168	400.72
775.35	564.56
775.532	425.29
775.715	558.41
775.897	490.83
776.079	410.96
776.261	413.01
776.444	560.46
776.626	492.88
776.808	566.6
776.99	478.54
777.173	513.36
777.355	415.05
777.537	478.54
777.719	435.53
777.901	458.06
778.083	382.29
778.265	474.45
778.447	466.25
778.629	507.21
778.811	425.29
778.993	445.77
779.175	296.27
779.357	392.53
779.539	349.52
779.721	427.34
779.903	370
780.085	410.96
780.267	427.34
780.449	464.21
780.631	374.1
780.812	335.18
780.994	439.63
781.176	425.29
781.358	351.57
781.54	300.37
781.721	378.19
781.903	339.28
782.085	392.53
782.267	388.43
782.448	347.47
782.63	365.9
782.812	339.28
782.993	331.09
783.175	365.9
783.357	326.99
783.538	279.89
783.72	361.81
783.901	335.18
784.083	306.51
784.264	423.25
784.446	382.29
784.627	296.27
784.809	320.85
784.99	392.53
785.172	361.81
785.353	402.77
785.535	300.37
785.716	343.38
785.897	261.46
786.079	355.66
786.26	308.56
786.441	363.86
786.623	370
786.804	353.62
786.985	310.61
787.167	326.99
787.348	302.42
787.529	322.9
787.71	312.66
787.891	331.09
788.073	331.09
788.254	269.65
788.435	322.9
788.616	337.23
788.797	318.8
788.978	322.9
789.159	333.14
789.34	245.07
789.522	326.99
789.703	245.07
789.884	275.79
790.065	251.22
790.246	206.16
790.427	228.69
790.607	318.8
790.788	263.51
790.969	161.11
791.15	300.37
791.331	228.69
791.512	257.36
791.693	212.31
791.874	265.55
792.054	310.61
792.235	265.55
792.416	202.07
792.597	257.36
792.778	226.64
792.958	206.16
793.139	251.22
793.32	253.27
793.5	296.27
793.681	230.74
793.862	226.64
794.042	247.12
794.223	150.87
794.404	255.31
794.584	279.89
794.765	173.39
794.945	226.64
795.126	261.46
795.306	308.56
795.487	200.02
795.667	296.27
795.848	277.84
796.028	224.59
796.209	189.78
796.389	228.69
796.57	222.55
796.75	204.11
796.93	185.68
797.111	191.83
797.291	251.22
797.471	206.16
797.652	130.39
797.832	232.79
798.012	218.45
798.192	210.26
798.373	220.5
798.553	204.11
798.733	230.74
798.913	261.46
799.093	175.44
799.274	163.15
799.454	208.21
799.634	197.97
799.814	165.2
799.994	167.25
800.174	204.11
800.354	175.44
800.534	128.34
800.714	218.45
800.894	169.3
801.074	197.97
801.254	138.58
801.434	148.82
801.614	173.39
801.794	109.91
801.974	374.1
802.154	187.73
802.334	191.83
802.514	179.54
802.693	161.11
802.873	187.73
803.053	142.68
803.233	163.15
803.413	152.91
803.592	130.39
803.772	128.34
803.952	146.77
804.131	187.73
804.311	128.34
804.491	138.58
804.67	120.15
804.85	146.77
805.03	79.19
805.209	154.96
805.389	157.01
805.568	71
805.748	138.58
805.928	126.29
806.107	146.77
806.287	159.06
806.466	124.24
806.646	148.82
806.825	68.95
807.004	146.77
807.184	34.13
807.363	109.91
807.543	17.75
807.722	148.82
807.901	152.91
808.081	216.4
808.26	144.72
808.439	52.56
808.619	165.2
808.798	122.2
808.977	89.43
809.156	142.68
809.336	118.1
809.515	177.49
809.694	89.43
809.873	193.87
810.052	118.1
810.231	234.83
810.411	114
810.59	185.68
810.769	142.68
810.948	97.62
811.127	122.2
811.306	144.72
811.485	116.05
811.664	171.35
811.843	120.15
812.022	150.87
812.201	73.04
812.38	95.57
812.559	77.14
812.737	52.56
812.916	62.8
813.095	152.91
813.274	64.85
813.453	71
813.632	152.91
813.811	83.28
813.989	103.76
814.168	58.71
814.347	68.95
814.526	132.44
814.704	111.96
814.883	46.42
815.062	52.56
815.24	91.48
815.419	83.28
815.598	122.2
815.776	89.43
815.955	91.48
816.133	89.43
816.312	114
816.49	107.86
816.669	159.06
816.847	136.53
817.026	179.54
817.204	87.38
817.383	116.05
817.561	17.75
817.74	148.82
817.918	159.06
818.097	132.44
818.275	130.39
818.453	56.66
818.632	11.61
818.81	68.95
818.988	60.76
819.167	36.18
819.345	52.56
819.523	134.48
819.701	144.72
819.879	116.05
820.058	103.76
820.236	79.19
820.414	93.52
820.592	85.33
820.77	50.52
820.948	40.28
821.127	48.47
821.305	83.28
821.483	46.42
821.661	71
821.839	66.9
822.017	107.86
822.195	36.18
822.373	73.04
822.551	23.89
822.729	116.05
822.907	93.52
823.085	109.91
823.262	87.38
823.44	48.47
823.618	97.62
823.796	81.24
823.974	85.33
824.152	23.89
824.329	71
824.507	50.52
824.685	148.82
824.863	114
825.04	66.9
825.218	161.11
825.396	44.37
825.574	52.56
825.751	44.37
825.929	89.43
826.107	116.05
826.284	97.62
826.462	32.08
826.639	107.86
826.817	19.8
826.994	58.71
827.172	71
827.349	130.39
827.527	42.32
827.704	83.28
827.882	62.8
828.059	126.29
828.237	66.9
828.414	54.61
828.591	48.47
828.769	27.99
828.946	81.24
829.124	56.66
829.301	52.56
829.478	38.23
829.655	50.52
829.833	126.29
830.01	36.18
830.187	19.8
830.364	114
830.542	73.04
830.719	83.28
830.896	95.57
831.073	124.24
831.25	85.33
831.427	17.75
831.604	81.24
831.782	91.48
831.959	107.86
832.136	40.28
832.313	34.13
832.49	54.61
832.667	17.75
832.844	66.9
833.021	120.15
833.198	89.43
833.374	48.47
833.551	42.32
833.728	38.23
833.905	19.8
834.082	-10.92
834.259	56.66
834.436	71
834.612	21.85
834.789	122.2
834.966	19.8
835.143	103.76
835.319	42.32
835.496	-10.92
835.673	32.08
835.85	32.08
836.026	30.04
836.203	83.28
836.38	73.04
836.556	17.75
836.733	13.65
836.909	107.86
837.086	32.08
837.262	-31.4
837.439	5.46
837.616	93.52
837.792	38.23
837.968	75.09
838.145	79.19
838.321	36.18
838.498	9.56
838.674	83.28
838.851	130.39
839.027	68.95
839.203	30.04
839.38	34.13
839.556	5.46
839.732	87.38
839.909	48.47
840.085	46.42
840.261	32.08
840.437	27.99
840.614	134.48
840.79	56.66
840.966	75.09
841.142	62.8
841.318	23.89
841.494	15.7
841.671	64.85
841.847	68.95
842.023	1.37
842.199	30.04
842.375	122.2
842.551	23.89
842.727	-45.74
842.903	42.32
843.079	5.46
843.255	15.7
843.431	83.28
843.607	58.71
843.783	-21.16
843.959	1.37
844.134	19.8
844.31	109.91
844.486	-4.78
844.662	44.37
844.838	50.52
845.013	27.99
845.189	50.52
845.365	5.46
845.541	52.56
845.716	9.56
845.892	56.66
846.068	-2.73
846.244	54.61
846.419	134.48
846.595	15.7
846.77	54.61
846.946	27.99
847.122	73.04
847.297	-2.73
847.473	95.57
847.648	5.46
847.824	19.8
847.999	5.46
848.175	97.62
848.35	3.41
848.526	23.89
848.701	66.9
848.876	52.56
849.052	40.28
849.227	-0.68
849.403	1.37
849.578	11.61
849.753	-17.07
849.929	-2.73
850.104	11.61
850.279	73.04
850.454	48.47
850.63	77.14
850.805	25.94
850.98	23.89
851.155	-17.07
851.33	50.52
851.505	44.37
851.681	120.15
851.856	60.76
852.031	-10.92
852.206	38.23
852.381	-10.92
852.556	-15.02
852.731	7.51
852.906	-4.78
853.081	66.9
853.256	75.09
853.431	9.56
853.606	-0.68
853.781	42.32
853.956	-23.21
854.131	87.38
854.305	-6.83
854.48	25.94
854.655	25.94
854.83	34.13
855.005	17.75
855.18	60.76
855.354	-45.74
855.529	15.7
855.704	34.13
855.879	27.99
856.053	58.71
856.228	32.08
856.403	32.08
856.577	87.38
856.752	-15.02
856.926	116.05
857.101	1.37
857.276	-15.02
857.45	23.89
857.625	-31.4
857.799	-25.26
857.974	85.33
858.148	25.94
858.323	54.61
858.497	34.13
858.672	30.04
858.846	-10.92
859.02	97.62
859.195	-60.07
859.369	30.04
859.543	-66.22
859.718	124.24
859.892	68.95
860.066	-0.68
860.241	60.76
860.415	83.28
860.589	58.71
860.763	105.81
860.938	-51.88
861.112	46.42
861.286	-43.69
861.46	13.65
861.634	5.46
861.808	73.04
861.982	3.41
862.157	27.99
862.331	-111.27
862.505	32.08
862.679	89.43
862.853	34.13
863.027	27.99
863.201	46.42
863.375	-8.87
863.549	58.71
863.722	40.28
863.896	36.18
864.07	-19.11
864.244	11.61
864.418	48.47
864.592	46.42
864.766	-21.16
864.939	-10.92
865.113	36.18
865.287	32.08
865.461	40.28
865.634	13.65
865.808	-8.87
865.982	-4.78
866.156	-21.16
866.329	27.99
866.503	32.08
866.676	46.42
866.85	-0.68
867.024	15.7
867.197	36.18
867.371	30.04
867.544	-15.02
867.718	5.46
867.891	44.37
868.065	-27.31
868.238	42.32
868.412	-25.26
868.585	38.23
868.759	-0.68
868.932	13.65
869.105	-0.68
869.279	-35.5
869.452	21.85
869.625	11.61
869.799	1.37
869.972	60.76
870.145	34.13
870.319	5.46
870.492	44.37
870.665	27.99
870.838	7.51
871.011	17.75
871.185	34.13
871.358	-62.12
871.531	19.8
871.704	56.66
871.877	87.38
872.05	-4.78
872.223	13.65
872.396	-6.83
872.569	34.13
872.742	68.95
872.915	17.75
873.088	19.8
873.261	50.52
873.434	19.8
873.607	23.89
873.78	-58.03
873.953	-4.78
874.126	21.85
874.299	13.65
874.471	32.08
874.644	87.38
874.817	-55.98
874.99	73.04
875.163	30.04
875.335	-35.5
875.508	5.46
875.681	81.24
875.853	-33.45
876.026	40.28
876.199	-129.7
876.371	62.8
876.544	-10.92
876.717	17.75
876.889	19.8
877.062	3.41
877.234	-25.26
877.407	-33.45
877.579	52.56
877.752	89.43
877.924	44.37
878.097	73.04
878.269	21.85
878.442	11.61
878.614	-31.4
878.786	23.89
878.959	-15.02
879.131	-45.74
879.303	-10.92
879.476	79.19
879.648	71
879.82	48.47
879.993	-0.68
880.165	7.51
880.337	-53.93
880.509	38.23
880.681	30.04
880.854	93.52
881.026	27.99
881.198	34.13
881.37	-35.5
881.542	30.04
881.714	9.56
881.886	-2.73
882.058	-15.02
882.23	46.42
882.402	40.28
882.574	19.8
882.746	56.66
882.918	30.04
883.09	19.8
883.262	9.56
883.434	-2.73
883.606	13.65
883.778	50.52
883.95	50.52
884.122	-74.41
884.293	25.94
884.465	-12.97
884.637	60.76
884.809	64.85
884.98	-8.87
885.152	73.04
885.324	1.37
885.496	-4.78
885.667	36.18
885.839	21.85
886.011	3.41
886.182	19.8
886.354	93.52
886.525	13.65
886.697	34.13
886.869	50.52
887.04	-17.07
887.212	-8.87
887.383	21.85
887.555	-17.07
887.726	23.89
887.897	-33.45
888.069	44.37
888.24	50.52
888.412	66.9
888.583	25.94
888.754	-4.78
888.926	-41.64
889.097	85.33
889.268	32.08
889.44	40.28
889.611	36.18
889.782	-6.83
889.953	1.37
890.125	34.13
890.296	48.47
890.467	-21.16
890.638	62.8
890.809	25.94
890.98	15.7
891.151	19.8
891.323	32.08
891.494	-4.78
891.665	11.61
891.836	73.04
892.007	3.41
892.178	32.08
892.349	52.56
892.52	-10.92
892.691	-0.68
892.862	-12.97
893.032	-43.69
893.203	34.13
893.374	5.46
893.545	79.19
893.716	-17.07
893.887	-2.73
894.057	38.23
894.228	-27.31
894.399	3.41
894.57	71
894.74	-15.02
894.911	52.56
895.082	58.71
895.253	23.89
895.423	-33.45
895.594	52.56
895.764	-49.83
895.935	-0.68
896.106	36.18
896.276	3.41
896.447	48.47
896.617	42.32
896.788	-23.21
896.958	46.42
897.129	-41.64
897.299	23.89
897.47	-41.64
897.64	25.94
897.81	48.47
897.981	44.37
898.151	1.37
898.322	52.56
898.492	99.67
898.662	36.18
898.832	-41.64
899.003	64.85
899.173	-10.92
899.343	-0.68
899.513	-37.55
