Data from USB4F104151__273__14-02-20-639.txt Node

Date: Thu Mar 13 14:02:20 EDT 2025
User: louis
Spectrometer: USB4F10415
Trigger mode: 4
Integration Time (sec): 1.000000E-2
Scans to average: 1
Electric dark correction enabled: true
Nonlinearity correction enabled: false
Boxcar width: 0
XAxis mode: Wavelengths
Number of Pixels in Spectrum: 3648
>>>>>Begin Spectral Data<<<<<
178.204	-93.52
178.424	-93.52
178.644	-93.52
178.864	-103.76
179.084	2.73
179.304	33.45
179.524	23.21
179.744	47.79
179.964	-38.23
180.184	-60.76
180.404	47.79
180.624	0.68
180.844	-19.8
181.064	-52.56
181.283	2.73
181.503	31.4
181.723	-15.7
181.943	23.21
182.163	29.35
182.383	23.21
182.602	27.31
182.822	6.83
183.042	84.65
183.262	35.5
183.482	33.45
183.701	2.73
183.921	43.69
184.141	37.55
184.361	10.92
184.58	51.88
184.8	27.31
185.02	-38.23
185.239	31.4
185.459	33.45
185.679	37.55
185.898	-9.56
186.118	53.93
186.338	-54.61
186.557	80.55
186.777	-34.13
186.997	-17.75
187.216	12.97
187.436	-21.85
187.655	39.59
187.875	60.07
188.095	39.59
188.314	64.17
188.534	33.45
188.753	-42.32
188.973	35.5
189.192	4.78
189.412	31.4
189.631	-5.46
189.851	-21.85
190.07	27.31
190.29	17.07
190.509	-21.85
190.729	25.26
190.948	-44.37
191.168	49.83
191.387	103.08
191.607	-13.65
191.826	35.5
192.045	43.69
192.265	49.83
192.484	39.59
192.704	-5.46
192.923	-7.51
193.142	64.17
193.362	-11.61
193.581	35.5
193.8	-19.8
194.02	-1.37
194.239	60.07
194.458	62.12
194.678	-21.85
194.897	29.35
195.116	37.55
195.335	68.27
195.555	-13.65
195.774	23.21
195.993	-58.71
196.212	19.11
196.432	15.02
196.651	39.59
196.87	-11.61
197.089	49.83
197.308	55.98
197.528	-5.46
197.747	-44.37
197.966	68.27
198.185	31.4
198.404	19.11
198.623	96.94
198.842	64.17
199.062	-19.8
199.281	70.31
199.5	-36.18
199.719	-42.32
199.938	-17.75
200.157	4.78
200.376	-83.28
200.595	2.73
200.814	58.03
201.033	-3.41
201.252	23.21
201.471	-27.99
201.69	64.17
201.909	19.11
202.128	21.16
202.347	-7.51
202.566	68.27
202.785	45.74
203.004	-11.61
203.223	19.11
203.442	37.55
203.661	-54.61
203.879	0.68
204.098	19.11
204.317	17.07
204.536	-3.41
204.755	-23.89
204.974	-3.41
205.193	35.5
205.411	47.79
205.63	10.92
205.849	103.08
206.068	-38.23
206.287	-11.61
206.505	80.55
206.724	-30.04
206.943	49.83
207.162	21.16
207.381	2.73
207.599	49.83
207.818	39.59
208.037	47.79
208.255	-34.13
208.474	33.45
208.693	-5.46
208.911	-15.7
209.13	10.92
209.349	64.17
209.567	15.02
209.786	2.73
210.005	53.93
210.223	-56.66
210.442	-9.56
210.661	-19.8
210.879	39.59
211.098	8.87
211.316	8.87
211.535	60.07
211.753	53.93
211.972	-23.89
212.191	12.97
212.409	31.4
212.628	-19.8
212.846	47.79
213.065	-11.61
213.283	70.31
213.502	17.07
213.72	21.16
213.938	2.73
214.157	25.26
214.375	29.35
214.594	125.61
214.812	43.69
215.031	-9.56
215.249	-83.28
215.467	60.07
215.686	15.02
215.904	39.59
216.122	-3.41
216.341	70.31
216.559	19.11
216.778	31.4
216.996	35.5
217.214	47.79
217.432	12.97
217.651	21.16
217.869	45.74
218.087	-7.51
218.306	-15.7
218.524	55.98
218.742	10.92
218.96	4.78
219.179	-38.23
219.397	-5.46
219.615	12.97
219.833	37.55
220.051	31.4
220.27	70.31
220.488	27.31
220.706	-27.99
220.924	27.31
221.142	21.16
221.36	39.59
221.578	74.41
221.796	47.79
222.015	51.88
222.233	19.11
222.451	72.36
222.669	35.5
222.887	68.27
223.105	4.78
223.323	19.11
223.541	33.45
223.759	-11.61
223.977	-25.94
224.195	29.35
224.413	-56.66
224.631	-50.52
224.849	2.73
225.067	4.78
225.285	29.35
225.503	25.26
225.721	23.21
225.939	23.21
226.157	-3.41
226.375	103.08
226.592	-27.99
226.81	37.55
227.028	76.46
227.246	51.88
227.464	43.69
227.682	27.31
227.9	45.74
228.117	43.69
228.335	58.03
228.553	41.64
228.771	74.41
228.989	41.64
229.206	-85.33
229.424	19.11
229.642	103.08
229.86	-38.23
230.077	21.16
230.295	47.79
230.513	-60.76
230.731	64.17
230.948	15.02
231.166	21.16
231.384	33.45
231.601	76.46
231.819	21.16
232.037	53.93
232.254	62.12
232.472	51.88
232.689	4.78
232.907	86.7
233.125	10.92
233.342	37.55
233.56	-13.65
233.777	62.12
233.995	4.78
234.213	35.5
234.43	47.79
234.648	76.46
234.865	-17.75
235.083	19.11
235.3	35.5
235.518	43.69
235.735	53.93
235.953	55.98
236.17	58.03
236.388	70.31
236.605	-58.71
236.822	15.02
237.04	49.83
237.257	0.68
237.475	49.83
237.692	33.45
237.909	92.84
238.127	68.27
238.344	-7.51
238.562	31.4
238.779	72.36
238.996	76.46
239.214	-1.37
239.431	101.03
239.648	-23.89
239.865	111.27
240.083	62.12
240.3	-21.85
240.517	35.5
240.735	103.08
240.952	27.31
241.169	109.23
241.386	58.03
241.603	-11.61
241.821	47.79
242.038	62.12
242.255	47.79
242.472	51.88
242.689	41.64
242.907	27.31
243.124	39.59
243.341	-13.65
243.558	41.64
243.775	41.64
243.992	-50.52
244.209	19.11
244.426	-34.13
244.643	72.36
244.86	2.73
245.078	88.75
245.295	-1.37
245.512	35.5
245.729	21.16
245.946	8.87
246.163	41.64
246.38	47.79
246.597	4.78
246.814	49.83
247.031	-3.41
247.248	84.65
247.464	33.45
247.681	15.02
247.898	94.89
248.115	64.17
248.332	10.92
248.549	55.98
248.766	39.59
248.983	35.5
249.2	45.74
249.417	58.03
249.633	-30.04
249.85	19.11
250.067	68.27
250.284	17.07
250.501	29.35
250.717	78.51
250.934	64.17
251.151	33.45
251.368	49.83
251.585	68.27
251.801	31.4
252.018	17.07
252.235	-3.41
252.451	51.88
252.668	33.45
252.885	-56.66
253.102	35.5
253.318	53.93
253.535	43.69
253.752	74.41
253.968	8.87
254.185	49.83
254.401	-11.61
254.618	31.4
254.835	8.87
255.051	53.93
255.268	47.79
255.484	31.4
255.701	47.79
255.917	60.07
256.134	51.88
256.351	4.78
256.567	17.07
256.784	84.65
257	-9.56
257.217	84.65
257.433	-13.65
257.65	88.75
257.866	84.65
258.082	-21.85
258.299	-27.99
258.515	66.22
258.732	-32.08
258.948	-7.51
259.165	-13.65
259.381	-83.28
259.597	6.83
259.814	49.83
260.03	19.11
260.246	72.36
260.463	60.07
260.679	68.27
260.895	-48.47
261.112	15.02
261.328	101.03
261.544	45.74
261.761	55.98
261.977	0.68
262.193	58.03
262.409	6.83
262.626	23.21
262.842	-11.61
263.058	23.21
263.274	66.22
263.49	51.88
263.707	51.88
263.923	45.74
264.139	6.83
264.355	-13.65
264.571	-13.65
264.787	41.64
265.004	94.89
265.22	-11.61
265.436	21.16
265.652	27.31
265.868	23.21
266.084	4.78
266.3	31.4
266.516	58.03
266.732	27.31
266.948	74.41
267.164	2.73
267.38	82.6
267.596	35.5
267.812	25.26
268.028	10.92
268.244	51.88
268.46	68.27
268.676	60.07
268.892	66.22
269.108	45.74
269.324	12.97
269.54	62.12
269.756	21.16
269.972	27.31
270.188	41.64
270.403	35.5
270.619	-9.56
270.835	-3.41
271.051	111.27
271.267	66.22
271.483	47.79
271.698	-5.46
271.914	64.17
272.13	27.31
272.346	-27.99
272.562	21.16
272.777	12.97
272.993	76.46
273.209	27.31
273.425	8.87
273.64	60.07
273.856	19.11
274.072	51.88
274.287	62.12
274.503	-21.85
274.719	10.92
274.934	68.27
275.15	51.88
275.366	-56.66
275.581	43.69
275.797	25.26
276.012	72.36
276.228	-36.18
276.444	8.87
276.659	94.89
276.875	8.87
277.09	78.51
277.306	27.31
277.521	43.69
277.737	90.79
277.952	78.51
278.168	66.22
278.383	-1.37
278.599	-3.41
278.814	74.41
279.03	107.18
279.245	6.83
279.461	41.64
279.676	15.02
279.892	25.26
280.107	43.69
280.322	10.92
280.538	10.92
280.753	29.35
280.969	-3.41
281.184	-5.46
281.399	62.12
281.615	27.31
281.83	68.27
282.045	68.27
282.26	45.74
282.476	35.5
282.691	-5.46
282.906	-3.41
283.122	-17.75
283.337	8.87
283.552	19.11
283.767	84.65
283.983	55.98
284.198	-21.85
284.413	123.56
284.628	27.31
284.843	64.17
285.058	29.35
285.274	21.16
285.489	21.16
285.704	88.75
285.919	47.79
286.134	-27.99
286.349	31.4
286.564	45.74
286.779	39.59
286.995	94.89
287.21	2.73
287.425	19.11
287.64	135.85
287.855	10.92
288.07	-1.37
288.285	55.98
288.5	10.92
288.715	60.07
288.93	35.5
289.145	8.87
289.36	37.55
289.575	-13.65
289.79	101.03
290.004	51.88
290.219	62.12
290.434	15.02
290.649	10.92
290.864	72.36
291.079	47.79
291.294	25.26
291.509	31.4
291.724	31.4
291.938	43.69
292.153	45.74
292.368	101.03
292.583	31.4
292.798	55.98
293.012	88.75
293.227	41.64
293.442	12.97
293.657	51.88
293.871	58.03
294.086	4.78
294.301	2.73
294.516	64.17
294.73	37.55
294.945	-83.28
295.16	90.79
295.374	64.17
295.589	82.6
295.804	39.59
296.018	2.73
296.233	64.17
296.447	-44.37
296.662	39.59
296.877	21.16
297.091	15.02
297.306	76.46
297.52	58.03
297.735	27.31
297.949	-50.52
298.164	31.4
298.378	27.31
298.593	39.59
298.807	-11.61
299.022	64.17
299.236	76.46
299.451	62.12
299.665	51.88
299.88	19.11
300.094	6.83
300.309	23.21
300.523	47.79
300.737	101.03
300.952	78.51
301.166	25.26
301.381	58.03
301.595	62.12
301.809	-32.08
302.024	94.89
302.238	6.83
302.452	84.65
302.667	86.7
302.881	6.83
303.095	-13.65
303.309	2.73
303.524	144.04
303.738	37.55
303.952	45.74
304.166	135.85
304.381	-15.7
304.595	58.03
304.809	17.07
305.023	-3.41
305.237	21.16
305.452	51.88
305.666	15.02
305.88	-3.41
306.094	12.97
306.308	17.07
306.522	84.65
306.736	55.98
306.95	78.51
307.164	4.78
307.379	49.83
307.593	113.32
307.807	74.41
308.021	82.6
308.235	62.12
308.449	31.4
308.663	37.55
308.877	55.98
309.091	27.31
309.305	45.74
309.519	0.68
309.733	105.13
309.947	23.21
310.161	31.4
310.374	51.88
310.588	39.59
310.802	2.73
311.016	25.26
311.23	-21.85
311.444	39.59
311.658	-38.23
311.872	88.75
312.085	96.94
312.299	45.74
312.513	35.5
312.727	15.02
312.941	68.27
313.154	21.16
313.368	31.4
313.582	55.98
313.796	-1.37
314.009	10.92
314.223	60.07
314.437	31.4
314.651	-13.65
314.864	47.79
315.078	12.97
315.292	58.03
315.505	-1.37
315.719	33.45
315.933	-17.75
316.146	60.07
316.36	88.75
316.573	39.59
316.787	35.5
317.001	15.02
317.214	43.69
317.428	49.83
317.641	68.27
317.855	10.92
318.068	43.69
318.282	62.12
318.495	62.12
318.709	35.5
318.922	78.51
319.136	49.83
319.349	-30.04
319.563	45.74
319.776	-3.41
319.99	70.31
320.203	19.11
320.417	68.27
320.63	19.11
320.843	45.74
321.057	92.84
321.27	27.31
321.483	58.03
321.697	62.12
321.91	-58.71
322.124	23.21
322.337	60.07
322.55	37.55
322.763	23.21
322.977	103.08
323.19	-13.65
323.403	39.59
323.617	98.99
323.83	12.97
324.043	47.79
324.256	96.94
324.469	12.97
324.683	-40.28
324.896	-11.61
325.109	96.94
325.322	47.79
325.535	45.74
325.748	88.75
325.962	-62.8
326.175	62.12
326.388	84.65
326.601	43.69
326.814	141.99
327.027	49.83
327.24	78.51
327.453	43.69
327.666	19.11
327.879	74.41
328.092	53.93
328.305	53.93
328.518	-58.71
328.731	45.74
328.944	0.68
329.157	64.17
329.37	31.4
329.583	121.51
329.796	105.13
330.009	37.55
330.222	86.7
330.435	17.07
330.648	15.02
330.861	-17.75
331.073	41.64
331.286	76.46
331.499	19.11
331.712	8.87
331.925	64.17
332.138	113.32
332.35	35.5
332.563	25.26
332.776	-17.75
332.989	43.69
333.202	23.21
333.414	39.59
333.627	84.65
333.84	-5.46
334.053	12.97
334.265	23.21
334.478	23.21
334.691	66.22
334.903	45.74
335.116	-19.8
335.329	58.03
335.541	43.69
335.754	60.07
335.966	-3.41
336.179	66.22
336.392	0.68
336.604	-34.13
336.817	17.07
337.029	47.79
337.242	-5.46
337.454	125.61
337.667	33.45
337.88	62.12
338.092	-42.32
338.305	21.16
338.517	53.93
338.729	51.88
338.942	55.98
339.154	39.59
339.367	-30.04
339.579	10.92
339.792	80.55
340.004	19.11
340.217	35.5
340.429	49.83
340.641	12.97
340.854	111.27
341.066	49.83
341.278	33.45
341.491	60.07
341.703	88.75
341.915	64.17
342.128	-9.56
342.34	-21.85
342.552	23.21
342.764	109.23
342.977	8.87
343.189	27.31
343.401	8.87
343.613	-9.56
343.826	-19.8
344.038	-11.61
344.25	101.03
344.462	43.69
344.674	111.27
344.886	41.64
345.099	125.61
345.311	74.41
345.523	-60.76
345.735	17.07
345.947	70.31
346.159	55.98
346.371	105.13
346.583	68.27
346.795	33.45
347.007	88.75
347.219	88.75
347.431	23.21
347.643	43.69
347.855	-32.08
348.067	31.4
348.279	39.59
348.491	45.74
348.703	17.07
348.915	27.31
349.127	58.03
349.339	78.51
349.551	45.74
349.763	92.84
349.975	70.31
350.187	47.79
350.399	125.61
350.61	82.6
350.822	62.12
351.034	82.6
351.246	47.79
351.458	101.03
351.669	10.92
351.881	55.98
352.093	-3.41
352.305	90.79
352.517	148.14
352.728	68.27
352.94	35.5
353.152	92.84
353.363	72.36
353.575	39.59
353.787	49.83
353.999	115.37
354.21	64.17
354.422	96.94
354.633	90.79
354.845	82.6
355.057	80.55
355.268	78.51
355.48	-17.75
355.692	23.21
355.903	-5.46
356.115	80.55
356.326	33.45
356.538	94.89
356.749	39.59
356.961	96.94
357.172	78.51
357.384	27.31
357.595	51.88
357.807	62.12
358.018	45.74
358.23	-13.65
358.441	0.68
358.653	84.65
358.864	70.31
359.075	43.69
359.287	72.36
359.498	103.08
359.709	74.41
359.921	60.07
360.132	39.59
360.344	70.31
360.555	90.79
360.766	84.65
360.977	86.7
361.189	19.11
361.4	19.11
361.611	96.94
361.823	64.17
362.034	70.31
362.245	43.69
362.456	109.23
362.667	12.97
362.879	64.17
363.09	25.26
363.301	55.98
363.512	10.92
363.723	94.89
363.935	82.6
364.146	37.55
364.357	8.87
364.568	51.88
364.779	31.4
364.99	51.88
365.201	94.89
365.412	84.65
365.623	-15.7
365.834	92.84
366.045	-11.61
366.256	74.41
366.467	90.79
366.678	103.08
366.889	70.31
367.1	70.31
367.311	66.22
367.522	23.21
367.733	111.27
367.944	84.65
368.155	90.79
368.366	70.31
368.577	19.11
368.788	96.94
368.999	39.59
369.209	68.27
369.42	88.75
369.631	84.65
369.842	31.4
370.053	88.75
370.264	105.13
370.474	35.5
370.685	62.12
370.896	53.93
371.107	25.26
371.317	94.89
371.528	53.93
371.739	80.55
371.95	60.07
372.16	47.79
372.371	43.69
372.582	62.12
372.792	117.42
373.003	113.32
373.214	31.4
373.424	66.22
373.635	47.79
373.846	111.27
374.056	41.64
374.267	43.69
374.477	84.65
374.688	72.36
374.898	23.21
375.109	19.11
375.319	17.07
375.53	12.97
375.74	35.5
375.951	53.93
376.161	107.18
376.372	39.59
376.582	53.93
376.793	92.84
377.003	84.65
377.214	105.13
377.424	88.75
377.635	27.31
377.845	78.51
378.055	121.51
378.266	12.97
378.476	27.31
378.686	109.23
378.897	25.26
379.107	72.36
379.317	8.87
379.528	103.08
379.738	47.79
379.948	129.7
380.158	2.73
380.369	76.46
380.579	60.07
380.789	135.85
380.999	10.92
381.21	70.31
381.42	35.5
381.63	10.92
381.84	88.75
382.05	39.59
382.261	80.55
382.471	68.27
382.681	27.31
382.891	92.84
383.101	92.84
383.311	31.4
383.521	84.65
383.731	17.07
383.941	86.7
384.151	68.27
384.361	94.89
384.571	51.88
384.781	2.73
384.991	105.13
385.201	72.36
385.411	105.13
385.621	37.55
385.831	-34.13
386.041	43.69
386.251	60.07
386.461	64.17
386.671	103.08
386.881	78.51
387.091	84.65
387.301	117.42
387.511	80.55
387.72	49.83
387.93	0.68
388.14	74.41
388.35	60.07
388.56	111.27
388.769	70.31
388.979	45.74
389.189	-17.75
389.399	146.09
389.609	70.31
389.818	90.79
390.028	66.22
390.238	66.22
390.447	55.98
390.657	115.37
390.867	43.69
391.076	92.84
391.286	68.27
391.496	98.99
391.705	2.73
391.915	82.6
392.125	117.42
392.334	141.99
392.544	62.12
392.753	29.35
392.963	60.07
393.172	92.84
393.382	21.16
393.591	162.47
393.801	12.97
394.01	105.13
394.22	58.03
394.429	68.27
394.639	111.27
394.848	86.7
395.058	123.56
395.267	117.42
395.477	78.51
395.686	119.46
395.895	76.46
396.105	78.51
396.314	88.75
396.524	92.84
396.733	101.03
396.942	70.31
397.152	127.66
397.361	195.24
397.57	66.22
397.78	68.27
397.989	105.13
398.198	72.36
398.407	113.32
398.617	160.42
398.826	90.79
399.035	92.84
399.244	139.94
399.453	105.13
399.663	201.38
399.872	156.33
400.081	168.62
400.29	125.61
400.499	105.13
400.708	129.7
400.917	60.07
401.127	160.42
401.336	131.75
401.545	125.61
401.754	144.04
401.963	168.62
402.172	172.71
402.381	185
402.59	141.99
402.799	101.03
403.008	127.66
403.217	141.99
403.426	162.47
403.635	133.8
403.844	117.42
404.053	195.24
404.262	129.7
404.471	230.06
404.68	105.13
404.888	209.58
405.097	180.9
405.306	217.77
405.515	185
405.724	166.57
405.933	152.23
406.142	264.87
406.35	164.52
406.559	236.2
406.768	170.66
406.977	211.62
407.185	264.87
407.394	273.06
407.603	228.01
407.812	225.96
408.02	211.62
408.229	238.25
408.438	281.25
408.646	289.45
408.855	273.06
409.064	336.55
409.272	328.36
409.481	330.41
409.69	357.03
409.898	389.8
410.107	297.64
410.315	391.84
410.524	375.46
410.733	367.27
410.941	404.13
411.15	385.7
411.358	385.7
411.567	451.24
411.775	486.05
411.984	498.34
412.192	484
412.401	508.58
412.609	547.49
412.818	527.01
413.026	557.73
413.234	606.88
413.443	592.55
413.651	527.01
413.86	625.31
414.068	723.62
414.276	688.8
414.485	643.74
414.693	733.86
414.901	783.01
415.11	826.01
415.318	764.57
415.526	905.88
415.734	930.46
415.943	858.78
416.151	1004.19
416.359	952.99
416.567	961.18
416.776	973.47
416.984	1102.49
417.192	1102.49
417.4	1125.02
417.608	1034.91
417.817	1192.6
418.025	1190.55
418.233	1329.81
418.441	1323.67
418.649	1338.01
418.857	1518.23
419.065	1432.21
419.273	1456.79
419.481	1555.09
419.689	1669.78
419.897	1616.53
420.105	1757.84
420.313	1708.69
420.521	1843.85
420.729	1839.76
420.937	1899.15
421.145	1987.21
421.353	2142.86
421.561	2192.01
421.769	2329.22
421.977	2392.71
422.185	2353.8
422.393	2480.77
422.601	2515.59
422.809	2607.75
423.017	2517.64
423.224	2597.51
423.432	2833.02
423.64	2867.84
423.848	2990.72
424.056	3000.96
424.263	3140.22
424.471	3213.95
424.679	3136.12
424.887	3576.44
425.094	3609.2
425.302	3541.62
425.51	3654.26
425.718	3809.9
425.925	3889.78
426.133	3959.41
426.341	4160.11
426.548	4489.83
426.756	4409.96
426.964	4405.86
427.171	4737.63
427.379	4835.94
427.586	5032.54
427.794	5057.12
428.001	5161.56
428.209	5474.9
428.417	5354.07
428.624	5765.71
428.832	5870.16
429.039	5835.35
429.247	5814.87
429.454	6382.15
429.662	6707.78
429.869	6298.19
430.076	6824.51
430.284	6545.99
430.491	6861.38
430.699	7391.8
430.906	7383.61
431.114	7453.24
431.321	7690.81
431.528	7797.3
431.736	8266.28
431.943	8557.1
432.15	8632.87
432.358	8587.82
432.565	8958.5
432.772	9132.58
432.979	9380.38
433.187	9775.64
433.394	9591.32
433.601	10349.07
433.808	10205.71
434.016	10330.64
434.223	10797.57
434.43	11188.74
434.637	10902.02
434.844	11758.07
435.052	11864.57
435.259	11950.58
435.466	11977.2
435.673	11895.29
435.88	12765.67
436.087	13322.72
436.294	13285.86
436.501	12980.71
436.708	13105.63
436.915	13840.86
437.122	14528.97
437.329	14195.15
437.537	14801.35
437.743	14823.88
437.95	14838.22
438.157	15618.49
438.364	16263.6
438.571	16036.28
438.778	16445.87
438.985	17652.13
439.192	17101.22
439.399	17566.11
439.606	17263.01
439.813	18184.6
440.02	19399.04
440.227	18719.12
440.433	18917.77
440.64	19435.91
440.847	19233.16
441.054	19659.13
441.261	21041.51
441.467	20855.15
441.674	21469.54
441.881	21858.65
442.088	21893.47
442.294	21711.2
442.501	22165.85
442.708	22751.57
442.914	23722.3
443.121	24518.96
443.328	24062.27
443.534	25588
443.741	24762.67
443.948	24310.07
444.154	26284.31
444.361	25909.54
444.568	26722.58
444.774	26333.46
444.981	26509.59
445.187	27433.22
445.394	28479.74
445.6	28303.61
445.807	30922.96
446.013	29313.26
446.22	30025.95
446.426	31262.93
446.633	31596.74
446.839	32420.03
447.046	31193.29
447.252	32647.35
447.459	33077.43
447.665	32735.42
447.871	34551.96
448.078	35311.76
448.284	34234.53
448.491	35254.42
448.697	35942.53
448.903	36810.87
449.11	37011.57
449.316	36374.66
449.522	36823.16
449.728	37720.17
449.935	38662.24
450.141	38361.19
450.347	38994.01
450.553	38205.54
450.76	38371.43
450.966	39536.72
451.172	39225.43
451.378	40149.06
451.584	39030.87
451.791	40183.88
451.997	40136.77
452.203	40931.39
452.409	40409.15
452.615	40562.75
452.821	38520.93
453.027	38705.24
453.233	40159.3
453.44	38701.15
453.646	39186.52
453.852	39295.06
454.058	39882.83
454.264	39080.02
454.47	39866.44
454.676	38756.44
454.882	40429.63
455.088	36413.57
455.294	37539.95
455.5	37691.5
455.705	37904.49
455.911	36495.49
456.117	35954.82
456.323	35489.93
456.529	33282.22
456.735	35188.88
456.941	33820.84
457.147	33908.9
457.352	32886.96
457.558	32063.68
457.764	32329.92
457.97	31418.57
458.176	31150.29
458.381	30779.6
458.587	29489.38
458.793	29534.44
458.999	28190.97
459.204	30091.49
459.41	29042.93
459.616	27363.59
459.821	27195.66
460.027	27134.22
460.233	26618.13
460.438	25303.34
460.644	25454.89
460.85	24396.09
461.055	24066.36
461.261	24219.96
461.466	22409.56
461.672	21444.96
461.878	23064.91
462.083	21614.94
462.289	21272.93
462.494	21078.38
462.7	19904.89
462.905	19663.23
463.111	20201.85
463.316	20216.18
463.522	19992.95
463.727	19958.14
463.932	19712.38
464.138	19696
464.343	19808.64
464.549	19016.07
464.754	19765.63
464.959	19517.82
465.165	19452.29
465.37	18510.22
465.575	18229.65
465.781	18923.91
465.986	18973.07
466.191	18139.54
466.397	18008.47
466.602	17002.92
466.807	17836.44
467.012	17736.09
467.218	17725.85
467.423	17519.01
467.628	17697.18
467.833	18229.65
468.038	17535.39
468.244	17156.52
468.449	17658.27
468.654	16855.47
468.859	17021.35
469.064	16968.1
469.269	16443.82
469.474	16386.48
469.679	16613.81
469.885	16327.09
470.09	16644.52
470.295	16445.87
470.5	16007.61
470.705	15911.35
470.91	15696.32
471.115	15577.53
471.32	15849.91
471.525	15485.37
471.73	15423.94
471.935	15299.01
472.139	14803.4
472.344	14981.57
472.549	14795.21
472.754	14551.5
472.959	14334.42
473.164	13890.01
473.369	14006.74
473.574	14297.55
473.778	14064.08
473.983	13976.02
474.188	14016.98
474.393	13369.82
474.598	13578.72
474.802	13394.4
475.007	13341.15
475.212	13337.06
475.417	12710.38
475.621	12763.62
475.826	12810.73
476.031	12472.81
476.235	12347.89
476.44	12550.64
476.645	12196.34
476.849	12274.16
477.054	12124.66
477.259	11868.66
477.463	12071.41
477.668	11520.51
477.872	11682.3
478.077	11473.4
478.282	11432.44
478.486	11239.94
478.691	11309.57
478.895	11225.6
479.1	11166.21
479.304	11133.44
479.509	10654.22
479.713	11184.64
479.918	10729.99
480.122	10490.38
480.326	10740.23
480.531	10674.7
480.735	10611.21
480.94	10336.78
481.144	10789.38
481.348	10473.99
481.553	10463.76
481.757	10316.3
481.961	10439.18
482.166	10467.85
482.37	10430.99
482.574	10111.5
482.778	10246.67
482.983	10551.82
483.187	10400.27
483.391	10283.53
483.595	10494.47
483.8	10064.4
484.004	10279.44
484.208	10361.36
484.412	10195.47
484.616	10129.94
484.821	10232.33
485.025	10113.55
485.229	10422.8
485.433	10177.04
485.637	10226.19
485.841	10193.42
486.045	10142.22
486.249	10162.7
486.453	10250.77
486.657	10265.1
486.861	10172.94
487.065	10054.16
487.269	10213.9
487.473	10050.07
487.677	10009.11
487.881	10269.2
488.085	10275.34
488.289	10287.63
488.493	10037.78
488.697	10261.01
488.901	10252.81
489.105	10320.4
489.309	10281.49
489.512	10363.4
489.716	10312.21
489.92	10252.81
490.124	10170.9
490.328	10529.29
490.531	10437.13
490.735	10496.52
490.939	10531.34
491.143	10578.44
491.346	10471.95
491.55	10529.29
491.754	10560.01
491.958	10658.31
492.161	10543.63
492.365	10703.37
492.569	10824.2
492.772	10707.46
492.976	10742.28
493.18	10885.64
493.383	10840.58
493.587	11022.85
493.79	11143.68
493.994	11211.26
494.197	11377.15
494.401	11502.08
494.605	11174.4
494.808	11586.04
495.012	11471.36
495.215	11454.97
495.419	11549.18
495.622	11620.86
495.825	11745.78
496.029	11809.27
496.232	12012.02
496.436	11989.49
496.639	12411.37
496.843	12306.93
497.046	12728.81
497.249	12720.62
497.453	12741.1
497.656	13007.33
497.859	12831.21
498.063	13015.52
498.266	13375.97
498.469	13220.32
498.673	13550.04
498.876	13638.11
499.079	13631.96
499.282	13773.27
499.485	14092.76
499.689	14180.82
499.892	14428.62
500.095	14559.69
500.298	14772.68
500.501	14766.54
500.705	15108.55
500.908	15061.44
501.111	15378.88
501.314	15364.54
501.517	15473.09
501.72	15864.25
501.923	15763.9
502.126	16282.03
502.329	16257.46
502.532	16665
502.735	16724.4
502.938	16748.97
503.141	16972.2
503.344	17316.26
503.547	17527.2
503.75	17760.67
503.953	17645.98
504.156	18006.42
504.359	17998.23
504.562	18389.39
504.765	18696.59
504.968	18874.76
505.17	18911.63
505.373	19061.13
505.576	19407.23
505.779	19790.2
505.982	19788.16
506.185	20242.81
506.387	20214.13
506.59	20480.37
506.793	20894.06
506.996	20844.91
507.198	21436.77
507.401	21350.76
507.604	21295.46
507.807	21920.09
508.009	22509.91
508.212	22442.32
508.415	22794.57
508.617	22821.2
508.82	23255.37
509.022	22976.84
509.225	23355.72
509.428	23636.29
509.63	24215.87
509.833	23953.73
510.035	24617.27
510.238	24678.71
510.44	24959.28
510.643	25282.86
510.845	25551.14
511.048	25397.54
511.25	26013.98
511.453	26343.7
511.655	27259.15
511.858	26992.91
512.06	26923.28
512.262	27552.01
512.465	27275.53
512.667	27660.55
512.87	28356.86
513.072	28088.57
513.274	28754.16
513.477	29010.16
513.679	29577.45
513.881	29417.71
514.084	30021.86
514.286	30142.69
514.488	30374.11
514.69	30759.13
514.893	31307.98
515.095	31174.86
515.297	31445.19
515.499	31602.89
515.701	32442.56
515.904	32448.7
516.106	32692.41
516.308	32809.14
516.51	33429.68
516.712	33458.35
516.914	33663.14
517.116	34400.41
517.318	34668.7
517.52	34709.66
517.722	34988.18
517.925	35475.6
518.127	35836.04
518.329	36300.93
518.531	35739.79
518.733	36839.54
518.935	36999.29
519.136	36907.13
519.338	37593.2
519.54	37748.84
519.742	38008.93
519.944	38449.25
520.146	38959.19
520.348	39143.51
520.55	39290.96
520.752	38967.38
520.954	40187.97
521.155	39731.28
521.357	40714.3
521.559	41072.7
521.761	41578.54
521.963	41826.35
522.164	41386.04
522.366	41871.4
522.568	42397.73
522.77	42258.47
522.971	43356.18
523.173	42856.48
523.375	42862.62
523.576	43040.79
523.778	43221.02
523.98	43851.79
524.181	44625.92
524.383	44339.21
524.584	44881.92
524.786	45062.14
524.988	44578.82
525.189	45398.01
525.391	45559.8
525.592	45465.59
525.794	45692.91
525.995	46116.84
526.197	45983.72
526.398	46034.92
526.6	46880.74
526.801	46776.29
527.003	46856.16
527.204	47079.39
527.406	47585.24
527.607	47474.65
527.808	47863.76
528.01	47232.99
528.211	47896.53
528.412	48654.28
528.614	47972.3
528.815	48050.13
529.016	48697.28
529.218	48789.44
529.419	48603.08
529.62	48687.04
529.822	48277.45
530.023	48498.63
530.224	48953.28
530.425	48891.84
530.626	48357.32
530.828	48781.25
531.029	49418.17
531.23	48822.21
531.431	49289.15
531.632	49428.41
531.833	49493.94
532.035	49196.99
532.236	49272.76
532.437	49393.59
532.638	49536.95
532.839	49696.69
533.04	50030.51
533.241	49516.47
533.442	50216.88
533.643	50173.87
533.844	49725.36
534.045	49586.1
534.246	49846.19
534.447	49809.33
534.648	49768.37
534.849	49960.88
535.05	49706.93
535.251	49946.54
535.451	49924.02
535.652	50229.16
535.853	49856.43
536.054	49751.99
536.255	50317.23
536.456	49895.35
536.657	50401.19
536.857	49588.15
537.058	49838
537.259	50315.18
537.46	50114.48
537.66	49938.35
537.861	50272.17
538.062	49962.93
538.263	50304.94
538.463	49604.53
538.664	49911.73
538.865	49889.2
539.065	50061.23
539.266	49774.52
539.466	50436.01
539.667	49108.93
539.868	50329.51
540.068	50067.37
540.269	49600.44
540.469	50237.36
540.67	49735.6
540.87	49803.19
541.071	49725.36
541.271	50194.35
541.472	49807.28
541.672	49579.96
541.873	49635.25
542.073	48932.8
542.274	50061.23
542.474	49067.97
542.675	49541.05
542.875	50022.32
543.075	49952.69
543.276	49686.45
543.476	49637.3
543.676	49614.77
543.877	50177.96
544.077	49495.99
544.277	49829.81
544.478	49534.9
544.678	49756.08
544.878	49315.77
545.078	49620.92
545.279	49201.08
545.479	49057.73
545.679	49674.16
545.879	49665.97
546.079	49178.56
546.28	49438.65
546.48	49127.36
546.68	49379.26
546.88	49416.12
547.08	49291.19
547.28	49682.36
547.48	49147.84
547.68	49506.23
547.88	49549.24
548.081	49690.55
548.281	49383.35
548.481	49223.61
548.681	49751.99
548.881	49473.46
549.081	49151.93
549.28	48920.51
549.48	49690.55
549.68	49227.71
549.88	49774.52
550.08	49184.7
550.28	49416.12
550.48	49067.97
550.68	49526.71
550.88	48986.05
551.08	49340.35
551.279	49657.78
551.479	49067.97
551.679	48990.14
551.879	48951.23
552.079	49463.22
552.278	49305.53
552.478	49018.81
552.678	49092.54
552.878	49145.79
553.077	49219.52
553.277	48623.56
553.477	49393.59
553.676	48619.46
553.876	48803.78
554.076	48734.15
554.275	48635.84
554.475	48181.2
554.674	49102.78
554.874	48582.6
555.074	48564.17
555.273	48932.8
555.473	49020.86
555.672	48449.48
555.872	48732.1
556.071	48801.73
556.271	49133.5
556.47	48037.84
556.67	48123.85
556.869	48095.18
557.068	48345.03
557.268	47833.04
557.467	47898.58
557.667	47996.88
557.866	47720.4
558.065	47898.58
558.265	47742.93
558.464	47568.85
558.663	47994.83
558.863	47259.61
559.062	48273.35
559.261	47726.55
559.461	47904.72
559.66	47294.42
559.859	47701.97
560.058	47259.61
560.258	47888.34
560.457	47075.29
560.656	47353.82
560.855	47232.99
561.054	47048.67
561.253	47136.73
561.453	46964.7
561.652	47206.36
561.851	47665.11
562.05	47138.78
562.249	46931.93
562.448	47073.24
562.647	47140.83
562.846	46667.75
563.045	46729.19
563.244	46450.66
563.443	46815.2
563.642	46397.41
563.841	46501.86
564.04	45912.05
564.239	46557.16
564.438	45942.77
564.637	46348.26
564.836	46104.56
565.035	45551.6
565.234	46153.71
565.432	45594.61
565.631	45180.92
565.83	46061.55
566.029	45717.49
566.228	45160.44
566.427	45559.8
566.625	45051.9
566.824	44969.98
567.023	45248.5
567.222	44529.67
567.42	45463.54
567.619	45162.49
567.818	44810.24
568.016	44875.77
568.215	44855.29
568.414	44877.82
568.612	44750.85
568.811	44490.76
569.01	44742.66
569.208	44175.37
569.407	44609.54
569.605	44142.6
569.804	44572.67
570.002	43679.76
570.201	43911.18
570.4	43542.55
570.598	43419.67
570.797	43139.1
570.995	43317.27
571.193	43200.54
571.392	43505.68
571.59	43155.48
571.789	42893.34
571.987	42788.89
572.186	42948.64
572.384	42758.17
572.582	42940.44
572.781	42801.18
572.979	42235.94
573.177	42266.66
573.376	42627.1
573.574	42262.57
573.772	42219.56
573.971	42207.27
574.169	41736.24
574.367	41662.51
574.565	42086.44
574.763	41658.41
574.962	41320.5
575.16	41193.53
575.358	41543.73
575.556	40912.95
575.754	41502.77
575.952	40982.59
576.151	41187.38
576.349	40669.25
576.547	40945.72
576.745	40747.07
576.943	40613.95
577.141	40448.07
577.339	40491.07
577.537	39987.27
577.735	40173.64
577.933	39802.96
578.131	39907.4
578.329	39528.53
578.527	39565.39
578.725	39733.32
578.923	39866.44
579.121	39133.27
579.319	39176.28
579.516	39778.38
579.714	39293.01
579.912	39125.08
580.11	38951
580.308	38867.03
580.506	38709.34
580.704	38000.74
580.901	38658.14
581.099	38635.61
581.297	38330.47
581.495	38250.59
581.692	38404.19
581.89	37906.54
582.088	38379.62
582.285	37724.27
582.483	38156.39
582.681	37763.18
582.878	37863.53
583.076	37144.69
583.274	37621.87
583.471	36976.76
583.669	37390.45
583.866	36866.17
584.064	37181.56
584.262	36651.13
584.459	36941.94
584.657	36583.55
584.854	37140.6
585.052	36214.91
585.249	36243.59
585.447	36702.33
585.644	35889.29
585.841	36329.6
586.039	36477.05
586.236	35692.68
586.434	36034.69
586.631	35745.93
586.828	36178.05
587.026	35836.04
587.223	35512.46
587.42	35586.19
587.618	35199.12
587.815	35338.38
588.012	34859.16
588.21	34658.46
588.407	35119.25
588.604	34640.03
588.801	34549.92
588.999	34416.8
589.196	34488.48
589.393	34539.68
589.59	34381.98
589.787	34209.95
589.984	34048.16
590.182	34033.83
590.379	33947.81
590.576	33829.03
590.773	33712.3
590.97	33489.07
591.167	33761.45
591.364	33341.61
591.561	33685.67
591.758	33097.91
591.955	33173.68
592.152	33132.72
592.349	32907.44
592.546	33259.7
592.743	32975.03
592.94	32614.59
593.137	32598.2
593.334	32530.62
593.531	32434.36
593.727	32567.48
593.924	32329.92
594.121	31766.73
594.318	32487.61
594.515	31815.88
594.712	31639.75
594.908	31805.64
595.105	31942.85
595.302	31854.79
595.499	31615.18
595.696	31539.4
595.892	31320.27
596.089	31652.04
596.286	31148.24
596.482	30800.08
596.679	30943.44
596.876	30953.68
597.072	30609.62
597.269	31082.7
597.466	30240.99
597.662	30245.09
597.859	30654.68
598.055	30791.89
598.252	30167.26
598.448	30431.45
598.645	30040.29
598.841	29720.81
599.038	30324.96
599.234	30234.85
599.431	29477.1
599.627	29556.97
599.824	29634.79
600.02	29368.55
600.217	29409.51
600.413	29079.79
600.609	29296.88
600.806	29296.88
601.002	29141.23
601.198	29260.01
601.395	29149.42
601.591	28987.63
601.787	28492.02
601.984	28463.35
602.18	28834.03
602.376	28338.43
602.572	28418.3
602.769	28670.2
602.965	28141.82
603.161	28326.14
603.357	27756.8
603.553	27861.25
603.75	27746.56
603.946	27861.25
604.142	28029.18
604.338	27509
604.534	27742.47
604.73	27451.66
604.926	27386.12
605.122	27377.93
605.318	27087.12
605.514	27298.06
605.71	27189.52
605.906	27126.03
606.102	26915.09
606.298	26571.03
606.494	26493.21
606.69	26386.71
606.886	26681.62
607.082	26171.68
607.278	26528.02
607.474	26425.62
607.67	25932.06
607.866	25864.48
608.062	26208.54
608.257	25977.12
608.453	26136.86
608.649	25915.68
608.845	25577.76
609.041	25790.75
609.236	26059.04
609.432	25676.07
609.628	25686.31
609.824	25643.3
610.019	25325.86
610.215	25454.89
610.411	25450.79
610.606	25448.74
610.802	25028.91
610.998	25420.07
611.193	25114.92
611.389	24709.43
611.584	24844.59
611.78	25024.81
611.976	25022.76
612.171	25008.43
612.367	24879.41
612.562	24807.73
612.758	24473.91
612.953	24391.99
613.149	24846.64
613.344	24176.95
613.539	24625.46
613.735	24250.68
613.93	24305.98
614.126	24385.85
614.321	24539.44
614.517	24080.7
614.712	24002.88
614.907	23892.29
615.103	23902.53
615.298	24017.21
615.493	24004.92
615.688	23777.6
615.884	24068.41
616.079	23699.78
616.274	23791.94
616.47	23492.93
616.665	23624
616.86	23378.25
617.055	23255.37
617.25	23431.49
617.445	23572.8
617.641	23474.5
617.836	23300.42
618.031	22847.82
618.226	23028.04
618.421	23036.24
618.616	23148.87
618.811	22569.3
619.006	23034.19
619.201	22194.52
619.396	22415.7
619.591	22462.8
619.786	22575.44
619.981	22069.59
620.176	22413.65
620.371	22180.18
620.566	22063.45
620.761	21731.68
620.956	22071.64
621.151	21477.73
621.346	21889.37
621.541	21399.91
621.735	21971.29
621.93	21326.18
622.125	21244.26
622.32	20846.96
622.515	20926.83
622.709	20732.27
622.904	20697.45
623.099	20631.92
623.294	20799.85
623.488	20369.78
623.683	20439.41
623.878	20093.3
624.072	19988.86
624.267	20128.12
624.462	20001.15
624.656	19741.05
624.851	19917.18
625.046	19423.62
625.24	19327.36
625.435	19466.63
625.629	19431.81
625.824	19186.05
626.018	19186.05
626.213	18682.25
626.407	19040.65
626.602	18573.71
626.796	18672.01
626.991	18622.86
627.185	18319.76
627.38	18512.27
627.574	18424.21
627.768	18225.56
627.963	18051.48
628.157	17947.03
628.352	18143.64
628.546	17523.1
628.74	17772.96
628.935	17652.13
629.129	17478.05
629.323	17199.52
629.517	17453.47
629.712	17213.86
629.906	17469.86
630.1	16921
630.294	17140.13
630.489	17158.56
630.683	17011.11
630.877	16554.41
631.071	16546.22
631.265	16634.28
631.459	16652.72
631.653	16370.1
631.848	16153.01
632.042	16216.5
632.236	16187.83
632.43	15970.74
632.624	15946.17
632.818	15927.74
633.012	15718.84
633.206	15759.8
633.4	15905.21
633.594	15368.64
633.788	15735.23
633.982	15460.8
634.176	15286.72
634.369	15124.93
634.563	15010.25
634.757	15159.75
634.951	15008.2
635.145	14825.93
635.339	14977.48
635.533	14764.49
635.726	14881.22
635.92	14561.74
636.114	14524.88
636.308	14453.2
636.501	14322.13
636.695	14383.57
636.889	14420.43
637.083	14291.41
637.276	14182.87
637.47	14031.32
637.664	13789.66
637.857	13849.05
638.051	13742.55
638.244	13724.12
638.438	13847
638.632	13449.69
638.825	13586.91
639.019	13451.74
639.212	13548
639.406	13277.66
639.599	13253.09
639.793	13046.24
639.986	13105.63
640.18	13060.58
640.373	12888.55
640.567	12685.8
640.76	12882.41
640.954	12509.68
641.147	12581.35
641.34	12528.11
641.534	12548.59
641.727	12524.01
641.92	12507.63
642.114	12524.01
642.307	12259.82
642.5	12089.84
642.694	12048.88
642.887	12022.26
643.08	12235.25
643.273	11919.86
643.467	11741.69
643.66	11684.34
643.853	11489.79
644.046	11442.68
644.239	11557.37
644.432	11622.91
644.626	11616.76
644.819	11330.05
645.012	11340.29
645.205	11391.48
645.398	11274.75
645.591	11162.11
645.784	10973.7
645.977	11008.51
646.17	10936.84
646.363	10693.13
646.556	10750.47
646.749	10686.98
646.942	11006.47
647.135	10598.92
647.328	10447.37
647.521	10279.44
647.714	10174.99
647.907	10449.42
648.099	10267.15
648.292	10385.93
648.485	10254.86
648.678	10115.6
648.871	10007.06
649.064	10179.09
649.256	10148.37
649.449	9871.89
649.642	9839.12
649.835	9765.4
650.027	9658.9
650.22	9540.12
650.413	9701.91
650.605	9695.77
650.798	9619.99
650.991	9589.27
651.183	9507.35
651.376	9288.22
651.568	9191.97
651.761	9327.13
651.954	9325.08
652.146	9323.04
652.339	9259.55
652.531	9013.79
652.724	9021.99
652.916	8866.34
653.109	9038.37
653.301	8917.54
653.494	8841.76
653.686	8784.42
653.879	8741.41
654.071	8616.49
654.263	8471.08
654.456	8710.69
654.648	8659.49
654.84	8340.01
655.033	8432.17
655.225	8391.21
655.417	8229.42
655.61	8387.11
655.802	8299.05
655.994	8186.41
656.186	8311.34
656.379	8116.78
656.571	8047.15
656.763	8008.24
656.955	8006.19
657.148	7914.03
657.34	7864.88
657.532	7774.77
657.724	7856.69
657.916	7756.34
658.108	7752.24
658.3	7760.44
658.492	7479.86
658.684	7496.25
658.876	7508.54
659.068	7531.06
659.26	7449.14
659.452	7526.97
659.644	7559.74
659.836	7262.78
660.028	7074.37
660.22	7205.44
660.412	7279.16
660.604	7227.96
660.796	6951.49
660.988	7041.6
661.18	6842.95
661.372	6908.48
661.563	6806.08
661.755	6691.4
661.947	6986.3
662.139	6951.49
662.331	6754.88
662.522	6722.12
662.714	6779.46
662.906	6720.07
663.097	6572.61
663.289	6568.52
663.481	6511.18
663.673	6429.26
663.864	6416.97
664.056	6398.54
664.247	6396.49
664.439	6183.5
664.631	6306.38
664.822	6310.47
665.014	6220.36
665.205	6187.6
665.397	6158.92
665.588	6154.83
665.78	6244.94
665.971	6216.27
666.163	6099.53
666.354	5923.41
666.546	5929.55
666.737	5788.24
666.929	5689.94
667.12	5859.92
667.311	5921.36
667.503	5704.28
667.694	5769.81
667.885	5671.51
668.077	5665.36
668.268	5696.08
668.459	5704.28
668.651	5667.41
668.842	5612.12
669.033	5515.86
669.224	5313.11
669.416	5378.65
669.607	5374.55
669.798	5495.38
669.989	5415.51
670.18	5423.7
670.371	5247.58
670.563	5399.13
670.754	5376.6
670.945	5120.6
671.136	5347.93
671.327	5010.01
671.518	5091.93
671.709	5180
671.9	5204.57
672.091	5247.58
672.282	5190.24
672.473	5134.94
672.664	5112.41
672.855	5050.97
673.046	4895.33
673.237	5118.56
673.428	4977.25
673.619	4930.14
673.809	4897.38
674	4897.38
674.191	4905.57
674.382	4921.95
674.573	4782.69
674.764	4868.7
674.954	4805.22
675.145	4852.32
675.336	4768.35
675.527	4850.27
675.717	4737.63
675.908	4739.68
676.099	4809.31
676.289	4610.66
676.48	4596.32
676.671	4455.01
676.861	4549.22
677.052	4491.88
677.243	4577.89
677.433	4473.45
677.624	4553.32
677.814	4479.59
678.005	4584.04
678.195	4303.47
678.386	4491.88
678.576	4399.72
678.767	4500.07
678.957	4330.09
679.148	4430.44
679.338	4295.27
679.529	4373.1
679.719	4242.03
679.909	4455.01
680.1	4274.79
680.29	4256.36
680.481	4166.25
680.671	4125.29
680.861	4188.78
681.052	4199.02
681.242	4274.79
681.432	4164.2
681.622	4092.52
681.813	4061.8
682.003	4024.94
682.193	4127.34
682.383	4168.3
682.573	4131.44
682.764	4131.44
682.954	3924.59
683.144	3998.32
683.334	3846.77
683.524	4008.56
683.714	3891.82
683.904	3873.39
684.094	3930.73
684.284	3957.36
684.474	3908.21
684.664	3859.06
684.854	3926.64
685.044	3809.9
685.234	3783.28
685.424	3920.49
685.614	3740.27
685.804	3854.96
685.994	3777.14
686.184	3928.69
686.374	3625.59
686.564	3723.89
686.753	3691.12
686.943	3824.24
687.133	3691.12
687.323	3680.88
687.513	3625.59
687.702	3644.02
687.892	3582.58
688.082	3746.42
688.272	3664.5
688.461	3781.23
688.651	3652.21
688.841	3791.47
689.03	3648.11
689.22	3525.24
689.41	3574.39
689.599	3519.09
689.789	3455.61
689.979	3574.39
690.168	3646.07
690.358	3578.48
690.547	3480.18
690.737	3381.88
690.926	3598.96
691.116	3431.03
691.305	3467.89
691.495	3449.46
691.684	3328.63
691.874	3484.28
692.063	3431.03
692.252	3353.21
692.442	3345.02
692.631	3426.93
692.82	3388.02
693.01	3424.89
693.199	3498.61
693.388	3234.43
693.578	3400.31
693.767	3392.12
693.956	3359.35
694.146	3345.02
694.335	3334.78
694.524	3390.07
694.713	3312.25
694.902	3320.44
695.092	3328.63
695.281	3314.3
695.47	3363.45
695.659	3379.83
695.848	3256.95
696.037	3205.75
696.226	3267.19
696.415	3261.05
696.604	3281.53
696.793	3205.75
696.982	3263.1
697.171	3318.39
697.36	3328.63
697.549	3271.29
697.738	3322.49
697.927	3205.75
698.116	3324.54
698.305	3238.52
698.494	3195.51
698.683	3250.81
698.872	3123.84
699.061	3191.42
699.25	3201.66
699.438	3013.24
699.627	3068.54
699.816	3111.55
700.005	3181.18
700.193	2945.66
700.382	3181.18
700.571	3189.37
700.76	3109.5
700.948	3156.6
701.137	3156.6
701.326	3068.54
701.514	2998.91
701.703	3076.73
701.892	3025.53
702.08	3056.25
702.269	3119.74
702.457	3132.03
702.646	3043.96
702.834	3091.07
703.023	3068.54
703.212	3009.15
703.4	3031.68
703.589	2960
703.777	3009.15
703.965	2919.04
704.154	3013.24
704.342	3017.34
704.531	2933.37
704.719	3021.44
704.907	2896.51
705.096	3017.34
705.284	2968.19
705.472	2904.7
705.661	2988.67
705.849	2945.66
706.037	2845.31
706.226	2814.59
706.414	2822.78
706.602	2747.01
706.79	2833.02
706.979	2888.32
707.167	2771.58
707.355	2730.62
707.543	2792.06
707.731	2787.97
707.919	2597.51
708.107	2833.02
708.296	2755.2
708.484	2757.25
708.672	2607.75
708.86	2656.9
709.048	2732.67
709.236	2708.1
709.424	2560.64
709.612	2660.99
709.8	2560.64
709.988	2695.81
710.176	2660.99
710.364	2540.16
710.551	2638.47
710.739	2566.79
710.927	2599.56
711.115	2624.13
711.303	2611.84
711.491	2683.52
711.679	2515.59
711.866	2636.42
712.054	2613.89
712.242	2562.69
712.43	2550.4
712.617	2417.29
712.805	2536.07
712.993	2572.93
713.181	2458.25
713.368	2407.05
713.556	2396.81
713.744	2361.99
713.931	2501.25
714.119	2488.96
714.306	2370.18
714.494	2458.25
714.682	2388.61
714.869	2374.28
715.057	2423.43
715.244	2345.61
715.432	2325.13
715.619	2347.65
715.807	2286.22
715.994	2300.55
716.182	2218.63
716.369	2290.31
716.556	2290.31
716.744	2228.87
716.931	2214.54
717.119	2345.61
717.306	2228.87
717.493	2259.59
717.681	2179.72
717.868	2273.93
718.055	2261.64
718.242	2257.54
718.43	2163.34
718.617	2134.67
718.804	2136.71
718.991	2222.73
719.179	2194.06
719.366	2220.68
719.553	2192.01
719.74	2099.85
719.927	1974.92
720.114	2110.09
720.301	2103.95
720.488	2159.24
720.676	2079.37
720.863	2118.28
721.05	2140.81
721.237	2026.12
721.424	2151.05
721.611	2077.32
721.798	1942.16
721.985	1966.73
722.172	2054.8
722.358	1952.4
722.545	2022.03
722.732	1956.49
722.919	2026.12
723.106	1972.88
723.293	2009.74
723.48	1993.36
723.667	2054.8
723.853	1970.83
724.04	1897.1
724.227	1884.81
724.414	1923.73
724.6	1819.28
724.787	1938.06
724.974	1938.06
725.161	1917.58
725.347	1845.9
725.534	1929.87
725.72	1940.11
725.907	1874.57
726.094	1774.22
726.28	1860.24
726.467	1768.08
726.653	1725.07
726.84	1854.09
727.027	1835.66
727.213	1716.88
727.4	1835.66
727.586	1804.94
727.773	1729.17
727.959	1813.13
728.145	1645.2
728.332	1700.5
728.518	1747.6
728.705	1761.94
728.891	1739.41
729.077	1813.13
729.264	1731.22
729.45	1610.39
729.636	1696.4
729.823	1743.5
730.009	1704.59
730.195	1690.26
730.382	1669.78
730.568	1665.68
730.754	1749.65
730.94	1669.78
731.126	1544.85
731.313	1614.48
731.499	1632.91
731.685	1610.39
731.871	1608.34
732.057	1645.2
732.243	1698.45
732.429	1630.87
732.615	1596.05
732.801	1616.53
732.987	1610.39
733.173	1653.39
733.359	1612.43
733.545	1594
733.731	1589.91
733.917	1528.47
734.103	1645.2
734.289	1510.04
734.475	1450.64
734.661	1632.91
734.847	1512.08
735.033	1569.43
735.219	1546.9
735.404	1512.08
735.59	1497.75
735.776	1548.95
735.962	1481.36
736.148	1524.37
736.333	1395.35
736.519	1557.14
736.705	1428.12
736.89	1520.28
737.076	1389.21
737.262	1405.59
737.447	1479.32
737.633	1503.89
737.819	1510.04
738.004	1430.16
738.19	1542.8
738.375	1524.37
738.561	1346.2
738.747	1421.97
738.932	1462.93
739.118	1421.97
739.303	1346.2
739.489	1430.16
739.674	1385.11
739.859	1368.73
740.045	1256.09
740.23	1307.29
740.416	1440.4
740.601	1403.54
740.786	1376.92
740.972	1391.25
741.157	1305.24
741.342	1391.25
741.528	1286.81
741.713	1397.4
741.898	1305.24
742.084	1368.73
742.269	1323.67
742.454	1354.39
742.639	1233.56
742.824	1202.84
743.01	1288.86
743.195	1241.75
743.38	1280.66
743.565	1354.39
743.75	1165.98
743.935	1198.74
744.12	1221.27
744.305	1200.79
744.49	1241.75
744.675	1215.13
744.86	1208.98
745.045	1178.26
745.23	1120.92
745.415	1176.22
745.6	1178.26
745.785	1141.4
745.97	1208.98
746.155	1196.7
746.34	1127.07
746.525	1118.87
746.71	1172.12
746.895	1079.96
747.079	1149.59
747.264	1049.24
747.449	1073.82
747.634	1118.87
747.819	1082.01
748.003	1092.25
748.188	1110.68
748.373	1012.38
748.557	1067.67
748.742	1028.76
748.927	1051.29
749.111	1028.76
749.296	1051.29
749.481	1020.57
749.665	973.47
749.85	987.8
750.034	977.56
750.219	1110.68
750.404	1000.09
750.588	977.56
750.773	955.04
750.957	1020.57
751.141	932.51
751.326	1014.43
751.51	948.89
751.695	983.71
751.879	862.88
752.064	985.76
752.248	928.41
752.432	918.17
752.617	940.7
752.801	961.18
752.985	948.89
753.17	934.56
753.354	871.07
753.538	948.89
753.722	879.26
753.907	893.6
754.091	832.16
754.275	909.98
754.459	862.88
754.643	864.93
754.828	866.97
755.012	787.1
755.196	889.5
755.38	830.11
755.564	869.02
755.748	887.45
755.932	918.17
756.116	791.2
756.3	811.68
756.484	758.43
756.668	842.4
756.852	805.53
757.036	774.81
757.22	742.05
757.404	760.48
757.588	813.73
757.772	797.34
757.956	830.11
758.14	842.4
758.323	690.85
758.507	766.62
758.691	760.48
758.875	713.38
759.059	737.95
759.242	787.1
759.426	772.77
759.61	756.38
759.794	799.39
759.977	772.77
760.161	768.67
760.345	701.09
760.528	664.22
760.712	672.42
760.895	715.42
761.079	686.75
761.263	721.57
761.446	752.29
761.63	674.46
761.813	750.24
761.997	699.04
762.18	651.94
762.364	676.51
762.547	651.94
762.731	696.99
762.914	617.12
763.098	635.55
763.281	653.98
763.464	664.22
763.648	658.08
763.831	567.97
764.015	658.08
764.198	670.37
764.381	686.75
764.564	584.35
764.748	613.03
764.931	711.33
765.114	647.84
765.297	625.31
765.481	508.58
765.664	717.47
765.847	574.11
766.03	631.46
766.213	600.74
766.397	608.93
766.58	602.79
766.763	635.55
766.946	570.02
767.129	584.35
767.312	574.11
767.495	602.79
767.678	545.44
767.861	621.22
768.044	588.45
768.227	629.41
768.41	570.02
768.593	666.27
768.776	508.58
768.959	639.65
769.142	553.63
769.324	576.16
769.507	610.98
769.69	467.62
769.873	584.35
770.056	625.31
770.239	545.44
770.421	531.11
770.604	576.16
770.787	531.11
770.97	584.35
771.152	619.17
771.335	608.93
771.518	551.59
771.7	527.01
771.883	541.35
772.066	506.53
772.248	578.21
772.431	512.67
772.613	576.16
772.796	529.06
772.978	453.28
773.161	522.91
773.343	570.02
773.526	522.91
773.708	479.91
773.891	481.96
774.073	486.05
774.256	414.37
774.438	586.4
774.621	512.67
774.803	506.53
774.985	494.24
775.168	557.73
775.35	510.63
775.532	551.59
775.715	506.53
775.897	500.39
776.079	477.86
776.261	492.2
776.444	496.29
776.626	527.01
776.808	451.24
776.99	441
777.173	481.96
777.355	529.06
777.537	473.76
777.719	479.91
777.901	426.66
778.083	406.18
778.265	494.24
778.447	436.9
778.629	359.08
778.811	379.56
778.993	391.84
779.175	395.94
779.357	434.85
779.539	492.2
779.721	467.62
779.903	436.9
780.085	387.75
780.267	340.65
780.449	451.24
780.631	408.23
780.812	486.05
780.994	467.62
781.176	375.46
781.358	481.96
781.54	354.98
781.721	412.32
781.903	402.08
782.085	340.65
782.267	402.08
782.448	397.99
782.63	414.37
782.812	342.69
782.993	340.65
783.175	363.17
783.357	334.5
783.538	324.26
783.72	373.41
783.901	322.21
784.083	342.69
784.264	350.89
784.446	381.6
784.627	363.17
784.809	402.08
784.99	363.17
785.172	281.25
785.353	338.6
785.535	371.37
785.716	314.02
785.897	217.77
786.079	383.65
786.26	318.12
786.441	289.45
786.623	258.73
786.804	293.54
786.985	236.2
787.167	359.08
787.348	285.35
787.529	289.45
787.71	334.5
787.891	283.3
788.073	307.88
788.254	244.39
788.435	395.94
788.616	303.78
788.797	252.58
788.978	314.02
789.159	307.88
789.34	260.77
789.522	240.3
789.703	316.07
789.884	295.59
790.065	268.97
790.246	238.25
790.427	305.83
790.607	244.39
790.788	387.75
790.969	225.96
791.15	303.78
791.331	217.77
791.512	213.67
791.693	320.17
791.874	266.92
792.054	291.49
792.235	264.87
792.416	217.77
792.597	266.92
792.778	195.24
792.958	340.65
793.139	215.72
793.32	242.34
793.5	221.86
793.681	211.62
793.862	248.49
794.042	191.14
794.223	207.53
794.404	256.68
794.584	191.14
794.765	189.1
794.945	205.48
795.126	299.69
795.306	279.21
795.487	152.23
795.667	185
795.848	217.77
796.028	193.19
796.209	256.68
796.389	133.8
796.57	133.8
796.75	170.66
796.93	264.87
797.111	180.9
797.291	170.66
797.471	275.11
797.652	205.48
797.832	185
798.012	248.49
798.192	150.18
798.373	166.57
798.553	152.23
798.733	162.47
798.913	119.46
799.093	176.81
799.274	133.8
799.454	154.28
799.634	217.77
799.814	185
799.994	205.48
800.174	109.23
800.354	264.87
800.534	176.81
800.714	156.33
800.894	170.66
801.074	203.43
801.254	207.53
801.434	162.47
801.614	164.52
801.794	213.67
801.974	445.09
802.154	133.8
802.334	152.23
802.514	217.77
802.693	109.23
802.873	144.04
803.053	168.62
803.233	154.28
803.413	150.18
803.592	109.23
803.772	225.96
803.952	213.67
804.131	80.55
804.311	219.82
804.491	174.76
804.67	101.03
804.85	152.23
805.03	162.47
805.209	152.23
805.389	101.03
805.568	232.1
805.748	154.28
805.928	174.76
806.107	94.89
806.287	109.23
806.466	103.08
806.646	191.14
806.825	144.04
807.004	144.04
807.184	170.66
807.363	158.38
807.543	51.88
807.722	96.94
807.901	178.86
808.081	199.34
808.26	150.18
808.439	133.8
808.619	43.69
808.798	113.32
808.977	98.99
809.156	80.55
809.336	146.09
809.515	133.8
809.694	119.46
809.873	150.18
810.052	76.46
810.231	185
810.411	162.47
810.59	101.03
810.769	166.57
810.948	148.14
811.127	53.93
811.306	92.84
811.485	64.17
811.664	80.55
811.843	27.31
812.022	98.99
812.201	98.99
812.38	92.84
812.559	152.23
812.737	160.42
812.916	164.52
813.095	187.05
813.274	84.65
813.453	139.94
813.632	123.56
813.811	131.75
813.989	84.65
814.168	101.03
814.347	141.99
814.526	103.08
814.704	150.18
814.883	53.93
815.062	51.88
815.24	127.66
815.419	109.23
815.598	146.09
815.776	53.93
815.955	53.93
816.133	129.7
816.312	55.98
816.49	103.08
816.669	113.32
816.847	121.51
817.026	103.08
817.204	82.6
817.383	82.6
817.561	101.03
817.74	139.94
817.918	103.08
818.097	150.18
818.275	94.89
818.453	23.21
818.632	84.65
818.81	86.7
818.988	6.83
819.167	111.27
819.345	121.51
819.523	72.36
819.701	127.66
819.879	49.83
820.058	88.75
820.236	137.9
820.414	72.36
820.592	109.23
820.77	43.69
820.948	45.74
821.127	135.85
821.305	170.66
821.483	84.65
821.661	76.46
821.839	51.88
822.017	144.04
822.195	78.51
822.373	80.55
822.551	64.17
822.729	115.37
822.907	94.89
823.085	105.13
823.262	84.65
823.44	90.79
823.618	101.03
823.796	23.21
823.974	82.6
824.152	86.7
824.329	105.13
824.507	19.11
824.685	90.79
824.863	96.94
825.04	41.64
825.218	92.84
825.396	12.97
825.574	107.18
825.751	10.92
825.929	88.75
826.107	150.18
826.284	21.16
826.462	74.41
826.639	144.04
826.817	-9.56
826.994	17.07
827.172	80.55
827.349	113.32
827.527	62.12
827.704	92.84
827.882	2.73
828.059	72.36
828.237	103.08
828.414	98.99
828.591	2.73
828.769	27.31
828.946	158.38
829.124	29.35
829.301	70.31
829.478	101.03
829.655	58.03
829.833	-7.51
830.01	27.31
830.187	94.89
830.364	8.87
830.542	47.79
830.719	96.94
830.896	84.65
831.073	105.13
831.25	31.4
831.427	25.26
831.604	121.51
831.782	21.16
831.959	43.69
832.136	4.78
832.313	78.51
832.49	21.16
832.667	19.11
832.844	51.88
833.021	84.65
833.198	49.83
833.374	43.69
833.551	39.59
833.728	66.22
833.905	64.17
834.082	27.31
834.259	21.16
834.436	94.89
834.612	117.42
834.789	68.27
834.966	29.35
835.143	60.07
835.319	94.89
835.496	6.83
835.673	37.55
835.85	60.07
836.026	6.83
836.203	70.31
836.38	125.61
836.556	66.22
836.733	15.02
836.909	64.17
837.086	10.92
837.262	68.27
837.439	-15.7
837.616	96.94
837.792	21.16
837.968	0.68
838.145	47.79
838.321	15.02
838.498	6.83
838.674	35.5
838.851	88.75
839.027	43.69
839.203	29.35
839.38	-21.85
839.556	15.02
839.732	66.22
839.909	31.4
840.085	29.35
840.261	17.07
840.437	33.45
840.614	96.94
840.79	123.56
840.966	96.94
841.142	2.73
841.318	21.16
841.494	19.11
841.671	60.07
841.847	76.46
842.023	-1.37
842.199	10.92
842.375	37.55
842.551	60.07
842.727	39.59
842.903	31.4
843.079	31.4
843.255	115.37
843.431	107.18
843.607	47.79
843.783	-19.8
843.959	62.12
844.134	53.93
844.31	2.73
844.486	51.88
844.662	2.73
844.838	76.46
845.013	25.26
845.189	2.73
845.365	27.31
845.541	10.92
845.716	-36.18
845.892	84.65
846.068	125.61
846.244	21.16
846.419	53.93
846.595	8.87
846.77	64.17
846.946	64.17
847.122	25.26
847.297	27.31
847.473	74.41
847.648	-21.85
847.824	6.83
847.999	-36.18
848.175	121.51
848.35	29.35
848.526	66.22
848.701	8.87
848.876	31.4
849.052	64.17
849.227	-30.04
849.403	88.75
849.578	62.12
849.753	43.69
849.929	158.38
850.104	94.89
850.279	76.46
850.454	115.37
850.63	43.69
850.805	19.11
850.98	74.41
851.155	80.55
851.33	-9.56
851.505	35.5
851.681	117.42
851.856	-25.94
852.031	12.97
852.206	-3.41
852.381	17.07
852.556	15.02
852.731	43.69
852.906	51.88
853.081	55.98
853.256	76.46
853.431	35.5
853.606	76.46
853.781	45.74
853.956	29.35
854.131	43.69
854.305	84.65
854.48	86.7
854.655	17.07
854.83	-3.41
855.005	55.98
855.18	19.11
855.354	25.26
855.529	10.92
855.704	101.03
855.879	103.08
856.053	39.59
856.228	-13.65
856.403	35.5
856.577	80.55
856.752	-19.8
856.926	27.31
857.101	-19.8
857.276	6.83
857.45	21.16
857.625	15.02
857.799	-68.95
857.974	10.92
858.148	-5.46
858.323	21.16
858.497	-1.37
858.672	25.26
858.846	-3.41
859.02	43.69
859.195	-7.51
859.369	29.35
859.543	94.89
859.718	19.11
859.892	17.07
860.066	4.78
860.241	-11.61
860.415	51.88
860.589	43.69
860.763	-17.75
860.938	29.35
861.112	12.97
861.286	10.92
861.46	45.74
861.634	-30.04
861.808	103.08
861.982	37.55
862.157	-11.61
862.331	-17.75
862.505	76.46
862.679	31.4
862.853	39.59
863.027	-1.37
863.201	23.21
863.375	80.55
863.549	19.11
863.722	94.89
863.896	10.92
864.07	70.31
864.244	96.94
864.418	-5.46
864.592	-38.23
864.766	-44.37
864.939	60.07
865.113	-25.94
865.287	25.26
865.461	21.16
865.634	43.69
865.808	-46.42
865.982	72.36
866.156	0.68
866.329	47.79
866.503	31.4
866.676	8.87
866.85	-54.61
867.024	68.27
867.197	4.78
867.371	10.92
867.544	53.93
867.718	119.46
867.891	2.73
868.065	-38.23
868.238	-66.9
868.412	-17.75
868.585	33.45
868.759	51.88
868.932	-25.94
869.105	-36.18
869.279	-27.99
869.452	90.79
869.625	27.31
869.799	72.36
869.972	43.69
870.145	21.16
870.319	17.07
870.492	96.94
870.665	33.45
870.838	27.31
871.011	84.65
871.185	35.5
871.358	-34.13
871.531	4.78
871.704	60.07
871.877	-15.7
872.05	-9.56
872.223	-3.41
872.396	53.93
872.569	37.55
872.742	-34.13
872.915	6.83
873.088	-21.85
873.261	68.27
873.434	19.11
873.607	2.73
873.78	2.73
873.953	45.74
874.126	60.07
874.299	31.4
874.471	19.11
874.644	29.35
874.817	-17.75
874.99	-38.23
875.163	35.5
875.335	58.03
875.508	-5.46
875.681	76.46
875.853	-66.9
876.026	43.69
876.199	0.68
876.371	29.35
876.544	6.83
876.717	8.87
876.889	-1.37
877.062	-25.94
877.234	10.92
877.407	37.55
877.579	37.55
877.752	62.12
877.924	49.83
878.097	90.79
878.269	49.83
878.442	43.69
878.614	39.59
878.786	35.5
878.959	-5.46
879.131	-19.8
879.303	25.26
879.476	8.87
879.648	-9.56
879.82	-40.28
879.993	-3.41
880.165	33.45
880.337	-52.56
880.509	15.02
880.681	-58.71
880.854	-9.56
881.026	45.74
881.198	-27.99
881.37	8.87
881.542	60.07
881.714	64.17
881.886	-7.51
882.058	-30.04
882.23	-32.08
882.402	53.93
882.574	31.4
882.746	92.84
882.918	43.69
883.09	19.11
883.262	-27.99
883.434	8.87
883.606	10.92
883.778	53.93
883.95	8.87
884.122	62.12
884.293	21.16
884.465	29.35
884.637	27.31
884.809	101.03
884.98	60.07
885.152	10.92
885.324	10.92
885.496	-5.46
885.667	31.4
885.839	-1.37
886.011	21.16
886.182	19.11
886.354	-19.8
886.525	31.4
886.697	53.93
886.869	-3.41
887.04	86.7
887.212	10.92
887.383	60.07
887.555	39.59
887.726	27.31
887.897	105.13
888.069	-87.38
888.24	-23.89
888.412	39.59
888.583	31.4
888.754	-23.89
888.926	-7.51
889.097	51.88
889.268	27.31
889.44	25.26
889.611	2.73
889.782	27.31
889.953	6.83
890.125	31.4
890.296	-1.37
890.467	47.79
890.638	-15.7
890.809	2.73
890.98	10.92
891.151	64.17
891.323	96.94
891.494	-58.71
891.665	10.92
891.836	0.68
892.007	98.99
892.178	-30.04
892.349	17.07
892.52	49.83
892.691	51.88
892.862	-11.61
893.032	-38.23
893.203	64.17
893.374	-17.75
893.545	58.03
893.716	19.11
893.887	-25.94
894.057	25.26
894.228	43.69
894.399	-25.94
894.57	-21.85
894.74	39.59
894.911	4.78
895.082	60.07
895.253	35.5
895.423	-15.7
895.594	-36.18
895.764	72.36
895.935	-21.85
896.106	-52.56
896.276	45.74
896.447	45.74
896.617	-17.75
896.788	4.78
896.958	-11.61
897.129	4.78
897.299	-48.47
897.47	72.36
897.64	45.74
897.81	-17.75
897.981	51.88
898.151	19.11
898.322	109.23
898.492	12.97
898.662	23.21
898.832	39.59
899.003	6.83
899.173	10.92
899.343	-5.46
899.513	33.45
