Data from USB4F104151__252__14-01-34-544.txt Node

Date: Thu Mar 13 14:01:34 EDT 2025
User: louis
Spectrometer: USB4F10415
Trigger mode: 4
Integration Time (sec): 1.000000E-2
Scans to average: 1
Electric dark correction enabled: true
Nonlinearity correction enabled: false
Boxcar width: 0
XAxis mode: Wavelengths
Number of Pixels in Spectrum: 3648
>>>>>Begin Spectral Data<<<<<
178.204	-10.07
178.424	-10.07
178.644	-10.07
178.864	10.41
179.084	-83.8
179.304	-5.97
179.524	32.94
179.744	-40.79
179.964	-34.64
180.184	24.75
180.404	2.22
180.624	22.7
180.844	-55.12
181.064	-26.45
181.283	20.65
181.503	4.27
181.723	55.47
181.943	53.42
182.163	-12.12
182.383	57.51
182.602	-28.5
182.822	61.61
183.042	12.46
183.262	-26.45
183.482	-38.74
183.701	-16.21
183.921	41.13
184.141	-63.32
184.361	45.23
184.58	-36.69
184.8	49.32
185.02	-22.36
185.239	20.65
185.459	-87.89
185.679	45.23
185.898	-3.93
186.118	2.22
186.338	20.65
186.557	30.89
186.777	-10.07
186.997	-71.51
187.216	0.17
187.436	-20.31
187.655	-10.07
187.875	32.94
188.095	-16.21
188.314	-3.93
188.534	-3.93
188.753	-16.21
188.973	-73.56
189.192	-18.26
189.412	73.9
189.631	6.31
189.851	-40.79
190.07	10.41
190.29	10.41
190.509	49.32
190.729	22.7
190.948	86.19
191.168	77.99
191.387	10.41
191.607	-61.27
191.826	-1.88
192.045	6.31
192.265	-22.36
192.484	41.13
192.704	-28.5
192.923	-40.79
193.142	-8.02
193.362	4.27
193.581	-28.5
193.8	20.65
194.02	-1.88
194.239	43.18
194.458	37.03
194.678	-36.69
194.897	4.27
195.116	41.13
195.335	-57.17
195.555	-14.17
195.774	-1.88
195.993	69.8
196.212	16.55
196.432	2.22
196.651	12.46
196.87	37.03
197.089	28.84
197.308	104.62
197.528	6.31
197.747	-46.93
197.966	14.51
198.185	24.75
198.404	53.42
198.623	59.56
198.842	-10.07
199.062	55.47
199.281	-18.26
199.5	100.52
199.719	-12.12
199.938	-20.31
200.157	71.85
200.376	53.42
200.595	77.99
200.814	8.36
201.033	-18.26
201.252	61.61
201.471	-24.4
201.69	16.55
201.909	55.47
202.128	-8.02
202.347	61.61
202.566	6.31
202.785	28.84
203.004	32.94
203.223	63.66
203.442	47.27
203.661	-12.12
203.879	82.09
204.098	61.61
204.317	-24.4
204.536	4.27
204.755	-1.88
204.974	69.8
205.193	20.65
205.411	45.23
205.63	22.7
205.849	4.27
206.068	69.8
206.287	14.51
206.505	65.71
206.724	8.36
206.943	-42.84
207.162	32.94
207.381	16.55
207.599	49.32
207.818	24.75
208.037	12.46
208.255	-75.6
208.474	41.13
208.693	-3.93
208.911	39.08
209.13	49.32
209.349	51.37
209.567	4.27
209.786	28.84
210.005	16.55
210.223	0.17
210.442	6.31
210.661	-16.21
210.879	-63.32
211.098	63.66
211.316	18.6
211.535	0.17
211.753	-28.5
211.972	26.79
212.191	-12.12
212.409	39.08
212.628	-16.21
212.846	-36.69
213.065	28.84
213.283	39.08
213.502	18.6
213.72	-18.26
213.938	71.85
214.157	4.27
214.375	-73.56
214.594	-3.93
214.812	90.28
215.031	2.22
215.249	-3.93
215.467	30.89
215.686	4.27
215.904	-18.26
216.122	53.42
216.341	32.94
216.559	45.23
216.778	-44.88
216.996	-51.03
217.214	24.75
217.432	-69.46
217.651	-40.79
217.869	-67.41
218.087	-46.93
218.306	-8.02
218.524	-1.88
218.742	0.17
218.96	-26.45
219.179	-85.84
219.397	-42.84
219.615	-1.88
219.833	4.27
220.051	26.79
220.27	45.23
220.488	18.6
220.706	-26.45
220.924	-1.88
221.142	-36.69
221.36	63.66
221.578	28.84
221.796	-14.17
222.015	-44.88
222.233	-16.21
222.451	-24.4
222.669	-38.74
222.887	69.8
223.105	32.94
223.323	16.55
223.541	-26.45
223.759	-24.4
223.977	-61.27
224.195	69.8
224.413	-10.07
224.631	45.23
224.849	16.55
225.067	41.13
225.285	-63.32
225.503	-10.07
225.721	32.94
225.939	98.47
226.157	32.94
226.375	10.41
226.592	-3.93
226.81	-18.26
227.028	-3.93
227.246	55.47
227.464	-30.55
227.682	43.18
227.9	57.51
228.117	-32.6
228.335	16.55
228.553	-28.5
228.771	63.66
228.989	43.18
229.206	37.03
229.424	28.84
229.642	6.31
229.86	-1.88
230.077	-57.17
230.295	22.7
230.513	8.36
230.731	49.32
230.948	24.75
231.166	41.13
231.384	49.32
231.601	20.65
231.819	37.03
232.037	-87.89
232.254	45.23
232.472	-42.84
232.689	-1.88
232.907	-1.88
233.125	41.13
233.342	-53.08
233.56	14.51
233.777	-51.03
233.995	14.51
234.213	28.84
234.43	-12.12
234.648	26.79
234.865	-8.02
235.083	-30.55
235.3	-20.31
235.518	-3.93
235.735	71.85
235.953	18.6
236.17	-1.88
236.388	20.65
236.605	90.28
236.822	-18.26
237.04	61.61
237.257	30.89
237.475	49.32
237.692	-44.88
237.909	10.41
238.127	14.51
238.344	8.36
238.562	34.99
238.779	47.27
238.996	-18.26
239.214	2.22
239.431	53.42
239.648	-44.88
239.865	77.99
240.083	43.18
240.3	71.85
240.517	22.7
240.735	-22.36
240.952	28.84
241.169	43.18
241.386	-34.64
241.603	-40.79
241.821	47.27
242.038	-18.26
242.255	-24.4
242.472	49.32
242.689	30.89
242.907	77.99
243.124	82.09
243.341	-1.88
243.558	30.89
243.775	18.6
243.992	-5.97
244.209	43.18
244.426	-34.64
244.643	55.47
244.86	-14.17
245.078	-42.84
245.295	37.03
245.512	18.6
245.729	0.17
245.946	-1.88
246.163	80.04
246.38	51.37
246.597	32.94
246.814	43.18
247.031	32.94
247.248	75.95
247.464	12.46
247.681	12.46
247.898	34.99
248.115	-83.8
248.332	61.61
248.549	28.84
248.766	57.51
248.983	98.47
249.2	-48.98
249.417	45.23
249.633	6.31
249.85	41.13
250.067	-34.64
250.284	-18.26
250.501	34.99
250.717	22.7
250.934	-30.55
251.151	57.51
251.368	-53.08
251.585	-12.12
251.801	-24.4
252.018	8.36
252.235	8.36
252.451	39.08
252.668	-8.02
252.885	16.55
253.102	2.22
253.318	55.47
253.535	-3.93
253.752	49.32
253.968	32.94
254.185	4.27
254.401	-51.03
254.618	63.66
254.835	0.17
255.051	55.47
255.268	6.31
255.484	-1.88
255.701	2.22
255.917	-10.07
256.134	32.94
256.351	4.27
256.567	22.7
256.784	47.27
257	14.51
257.217	-1.88
257.433	59.56
257.65	39.08
257.866	41.13
258.082	55.47
258.299	-36.69
258.515	30.89
258.732	-20.31
258.948	22.7
259.165	34.99
259.381	32.94
259.597	-53.08
259.814	39.08
260.03	-14.17
260.246	43.18
260.463	-61.27
260.679	20.65
260.895	-51.03
261.112	4.27
261.328	-1.88
261.544	59.56
261.761	82.09
261.977	-24.4
262.193	28.84
262.409	4.27
262.626	-51.03
262.842	-26.45
263.058	-44.88
263.274	61.61
263.49	-14.17
263.707	14.51
263.923	-28.5
264.139	-10.07
264.355	41.13
264.571	22.7
264.787	-3.93
265.004	102.57
265.22	63.66
265.436	-10.07
265.652	-20.31
265.868	63.66
266.084	-18.26
266.3	71.85
266.516	6.31
266.732	-51.03
266.948	-28.5
267.164	53.42
267.38	16.55
267.596	-12.12
267.812	39.08
268.028	18.6
268.244	16.55
268.46	14.51
268.676	16.55
268.892	45.23
269.108	-16.21
269.324	14.51
269.54	12.46
269.756	43.18
269.972	0.17
270.188	-20.31
270.403	-1.88
270.619	67.75
270.835	-98.13
271.051	41.13
271.267	53.42
271.483	34.99
271.698	-10.07
271.914	-38.74
272.13	77.99
272.346	8.36
272.562	-8.02
272.777	-61.27
272.993	0.17
273.209	86.19
273.425	26.79
273.64	12.46
273.856	12.46
274.072	-24.4
274.287	20.65
274.503	-8.02
274.719	59.56
274.934	20.65
275.15	-34.64
275.366	45.23
275.581	55.47
275.797	6.31
276.012	18.6
276.228	14.51
276.444	-10.07
276.659	102.57
276.875	12.46
277.09	4.27
277.306	-10.07
277.521	28.84
277.737	49.32
277.952	-18.26
278.168	-10.07
278.383	39.08
278.599	22.7
278.814	14.51
279.03	-5.97
279.245	67.75
279.461	-46.93
279.676	22.7
279.892	26.79
280.107	-18.26
280.322	6.31
280.538	63.66
280.753	-20.31
280.969	24.75
281.184	-16.21
281.399	53.42
281.615	45.23
281.83	-22.36
282.045	-65.36
282.26	32.94
282.476	-106.32
282.691	45.23
282.906	-3.93
283.122	20.65
283.337	37.03
283.552	20.65
283.767	-24.4
283.983	71.85
284.198	49.32
284.413	24.75
284.628	-12.12
284.843	-44.88
285.058	-16.21
285.274	6.31
285.489	-5.97
285.704	-53.08
285.919	57.51
286.134	-28.5
286.349	65.71
286.564	-20.31
286.779	-63.32
286.995	6.31
287.21	20.65
287.425	32.94
287.64	-48.98
287.855	6.31
288.07	49.32
288.285	2.22
288.5	-44.88
288.715	-8.02
288.93	18.6
289.145	0.17
289.36	-5.97
289.575	4.27
289.79	-8.02
290.004	12.46
290.219	32.94
290.434	-28.5
290.649	-71.51
290.864	22.7
291.079	28.84
291.294	-8.02
291.509	10.41
291.724	20.65
291.938	-10.07
292.153	37.03
292.368	8.36
292.583	24.75
292.798	-44.88
293.012	94.38
293.227	39.08
293.442	-24.4
293.657	16.55
293.871	6.31
294.086	75.95
294.301	41.13
294.516	67.75
294.73	-12.12
294.945	20.65
295.16	63.66
295.374	-12.12
295.589	8.36
295.804	28.84
296.018	16.55
296.233	37.03
296.447	22.7
296.662	-1.88
296.877	37.03
297.091	12.46
297.306	-3.93
297.52	39.08
297.735	-77.65
297.949	24.75
298.164	-28.5
298.378	6.31
298.593	-8.02
298.807	-3.93
299.022	80.04
299.236	-16.21
299.451	4.27
299.665	57.51
299.88	-32.6
300.094	22.7
300.309	-34.64
300.523	14.51
300.737	47.27
300.952	32.94
301.166	-30.55
301.381	-42.84
301.595	-67.41
301.809	65.71
302.024	-26.45
302.238	-65.36
302.452	-8.02
302.667	61.61
302.881	16.55
303.095	34.99
303.309	-24.4
303.524	-1.88
303.738	24.75
303.952	-30.55
304.166	8.36
304.381	0.17
304.595	32.94
304.809	22.7
305.023	14.51
305.237	69.8
305.452	26.79
305.666	20.65
305.88	-3.93
306.094	-34.64
306.308	84.14
306.522	51.37
306.736	4.27
306.95	14.51
307.164	32.94
307.379	16.55
307.593	67.75
307.807	69.8
308.021	16.55
308.235	45.23
308.449	-14.17
308.663	12.46
308.877	26.79
309.091	90.28
309.305	92.33
309.519	-12.12
309.733	0.17
309.947	61.61
310.161	-3.93
310.374	41.13
310.588	53.42
310.802	47.27
311.016	-53.08
311.23	37.03
311.444	55.47
311.658	12.46
311.872	94.38
312.085	-12.12
312.299	96.43
312.513	10.41
312.727	22.7
312.941	-118.61
313.154	41.13
313.368	61.61
313.582	-10.07
313.796	43.18
314.009	43.18
314.223	37.03
314.437	-12.12
314.651	10.41
314.864	-22.36
315.078	-8.02
315.292	-8.02
315.505	73.9
315.719	-24.4
315.933	77.99
316.146	12.46
316.36	-3.93
316.573	6.31
316.787	12.46
317.001	51.37
317.214	-3.93
317.428	32.94
317.641	4.27
317.855	77.99
318.068	92.33
318.282	73.9
318.495	20.65
318.709	32.94
318.922	61.61
319.136	20.65
319.349	0.17
319.563	-1.88
319.776	4.27
319.99	-3.93
320.203	16.55
320.417	14.51
320.63	-14.17
320.843	71.85
321.057	32.94
321.27	-59.22
321.483	24.75
321.697	45.23
321.91	22.7
322.124	26.79
322.337	86.19
322.55	-22.36
322.763	4.27
322.977	55.47
323.19	37.03
323.403	-22.36
323.617	-1.88
323.83	49.32
324.043	90.28
324.256	14.51
324.469	-55.12
324.683	22.7
324.896	39.08
325.109	-10.07
325.322	0.17
325.535	59.56
325.748	14.51
325.962	-8.02
326.175	43.18
326.388	-57.17
326.601	-44.88
326.814	0.17
327.027	24.75
327.24	80.04
327.453	-26.45
327.666	-12.12
327.879	-32.6
328.092	53.42
328.305	-10.07
328.518	-18.26
328.731	26.79
328.944	-8.02
329.157	49.32
329.37	16.55
329.583	106.67
329.796	-10.07
330.009	-26.45
330.222	45.23
330.435	12.46
330.648	53.42
330.861	28.84
331.073	-12.12
331.286	-20.31
331.499	69.8
331.712	-18.26
331.925	14.51
332.138	63.66
332.35	-8.02
332.563	-89.94
332.776	106.67
332.989	14.51
333.202	-12.12
333.414	-8.02
333.627	53.42
333.84	14.51
334.053	47.27
334.265	-3.93
334.478	45.23
334.691	10.41
334.903	30.89
335.116	39.08
335.329	-59.22
335.541	-20.31
335.754	20.65
335.966	-26.45
336.179	-20.31
336.392	-34.64
336.604	-38.74
336.817	-12.12
337.029	69.8
337.242	10.41
337.454	-26.45
337.667	-67.41
337.88	-5.97
338.092	39.08
338.305	30.89
338.517	-44.88
338.729	12.46
338.942	-38.74
339.154	-8.02
339.367	-16.21
339.579	14.51
339.792	43.18
340.004	20.65
340.217	61.61
340.429	14.51
340.641	10.41
340.854	12.46
341.066	4.27
341.278	12.46
341.491	55.47
341.703	12.46
341.915	-22.36
342.128	10.41
342.34	14.51
342.552	-26.45
342.764	26.79
342.977	53.42
343.189	6.31
343.401	14.51
343.613	24.75
343.826	4.27
344.038	0.17
344.25	53.42
344.462	-3.93
344.674	12.46
344.886	-10.07
345.099	-18.26
345.311	39.08
345.523	-18.26
345.735	-3.93
345.947	71.85
346.159	4.27
346.371	102.57
346.583	53.42
346.795	71.85
347.007	61.61
347.219	121
347.431	-32.6
347.643	2.22
347.855	22.7
348.067	4.27
348.279	-40.79
348.491	-65.36
348.703	6.31
348.915	-3.93
349.127	30.89
349.339	63.66
349.551	8.36
349.763	73.9
349.975	-22.36
350.187	-3.93
350.399	-53.08
350.61	75.95
350.822	14.51
351.034	-3.93
351.246	86.19
351.458	47.27
351.669	16.55
351.881	-20.31
352.093	-14.17
352.305	59.56
352.517	-3.93
352.728	6.31
352.94	69.8
353.152	-53.08
353.363	-32.6
353.575	26.79
353.787	-3.93
353.999	37.03
354.21	67.75
354.422	18.6
354.633	-5.97
354.845	-18.26
355.057	14.51
355.268	47.27
355.48	-12.12
355.692	2.22
355.903	-22.36
356.115	26.79
356.326	43.18
356.538	-48.98
356.749	45.23
356.961	30.89
357.172	37.03
357.384	18.6
357.595	47.27
357.807	-30.55
358.018	45.23
358.23	6.31
358.441	-22.36
358.653	73.9
358.864	20.65
359.075	26.79
359.287	4.27
359.498	26.79
359.709	26.79
359.921	-12.12
360.132	12.46
360.344	0.17
360.555	-34.64
360.766	32.94
360.977	65.71
361.189	-12.12
361.4	16.55
361.611	112.81
361.823	49.32
362.034	14.51
362.245	-28.5
362.456	47.27
362.667	-18.26
362.879	20.65
363.09	4.27
363.301	-10.07
363.512	37.03
363.723	4.27
363.935	104.62
364.146	28.84
364.357	-30.55
364.568	94.38
364.779	12.46
364.99	75.95
365.201	47.27
365.412	6.31
365.623	28.84
365.834	67.75
366.045	-18.26
366.256	4.27
366.467	51.37
366.678	8.36
366.889	32.94
367.1	61.61
367.311	-26.45
367.522	0.17
367.733	-20.31
367.944	22.7
368.155	-14.17
368.366	32.94
368.577	-26.45
368.788	-73.56
368.999	49.32
369.209	71.85
369.42	73.9
369.631	77.99
369.842	4.27
370.053	32.94
370.264	47.27
370.474	39.08
370.685	-38.74
370.896	55.47
371.107	18.6
371.317	45.23
371.528	-34.64
371.739	149.67
371.95	63.66
372.16	34.99
372.371	53.42
372.582	12.46
372.792	18.6
373.003	63.66
373.214	49.32
373.424	26.79
373.635	47.27
373.846	49.32
374.056	-32.6
374.267	53.42
374.477	-8.02
374.688	77.99
374.898	-8.02
375.109	26.79
375.319	-3.93
375.53	28.84
375.74	26.79
375.951	43.18
376.161	-24.4
376.372	-44.88
376.582	69.8
376.793	14.51
377.003	-42.84
377.214	45.23
377.424	-3.93
377.635	22.7
377.845	39.08
378.055	43.18
378.266	12.46
378.476	28.84
378.686	12.46
378.897	34.99
379.107	61.61
379.317	51.37
379.528	26.79
379.738	10.41
379.948	-40.79
380.158	32.94
380.369	-8.02
380.579	20.65
380.789	20.65
380.999	69.8
381.21	-3.93
381.42	-42.84
381.63	24.75
381.84	-14.17
382.05	0.17
382.261	28.84
382.471	63.66
382.681	100.52
382.891	45.23
383.101	-1.88
383.311	32.94
383.521	-1.88
383.731	-32.6
383.941	45.23
384.151	-20.31
384.361	20.65
384.571	114.86
384.781	0.17
384.991	28.84
385.201	28.84
385.411	43.18
385.621	53.42
385.831	51.37
386.041	34.99
386.251	-34.64
386.461	43.18
386.671	-20.31
386.881	28.84
387.091	-34.64
387.301	4.27
387.511	26.79
387.72	71.85
387.93	61.61
388.14	2.22
388.35	69.8
388.56	-14.17
388.769	94.38
388.979	-22.36
389.189	22.7
389.399	37.03
389.609	30.89
389.818	16.55
390.028	26.79
390.238	28.84
390.447	-34.64
390.657	61.61
390.867	18.6
391.076	12.46
391.286	94.38
391.496	53.42
391.705	-3.93
391.915	2.22
392.125	20.65
392.334	16.55
392.544	16.55
392.753	73.9
392.963	-32.6
393.172	65.71
393.382	-10.07
393.591	73.9
393.801	24.75
394.01	16.55
394.22	67.75
394.429	73.9
394.639	-10.07
394.848	57.51
395.058	-8.02
395.267	14.51
395.477	49.32
395.686	71.85
395.895	71.85
396.105	49.32
396.314	53.42
396.524	-12.12
396.733	28.84
396.942	71.85
397.152	94.38
397.361	80.04
397.57	-3.93
397.78	71.85
397.989	14.51
398.198	90.28
398.407	4.27
398.617	32.94
398.826	20.65
399.035	-20.31
399.244	30.89
399.453	39.08
399.663	18.6
399.872	174.25
400.081	14.51
400.29	12.46
400.499	-28.5
400.708	10.41
400.917	88.23
401.127	22.7
401.336	47.27
401.545	39.08
401.754	26.79
401.963	86.19
402.172	80.04
402.381	59.56
402.59	0.17
402.799	4.27
403.008	28.84
403.217	51.37
403.426	37.03
403.635	80.04
403.844	84.14
404.053	37.03
404.262	45.23
404.471	61.61
404.68	63.66
404.888	28.84
405.097	75.95
405.306	53.42
405.515	30.89
405.724	47.27
405.933	94.38
406.142	24.75
406.35	28.84
406.559	102.57
406.768	-3.93
406.977	98.47
407.185	73.9
407.394	37.03
407.603	47.27
407.812	90.28
408.02	88.23
408.229	65.71
408.438	149.67
408.646	12.46
408.855	69.8
409.064	37.03
409.272	63.66
409.481	94.38
409.69	123.05
409.898	127.14
410.107	131.24
410.315	118.95
410.524	137.38
410.733	121
410.941	112.81
411.15	164.01
411.358	98.47
411.567	141.48
411.775	125.1
411.984	164.01
412.192	182.44
412.401	200.87
412.609	141.48
412.818	219.3
413.026	125.1
413.234	200.87
413.443	254.12
413.651	221.35
413.86	159.91
414.068	209.06
414.276	276.65
414.485	266.41
414.693	274.6
414.901	278.69
415.11	274.6
415.318	174.25
415.526	264.36
415.734	297.13
415.943	290.98
416.151	340.13
416.359	325.8
416.567	348.33
416.776	331.94
416.984	405.67
417.192	407.72
417.4	381.09
417.608	389.28
417.817	342.18
418.025	385.19
418.233	503.97
418.441	542.88
418.649	438.44
418.857	473.25
419.065	508.07
419.273	534.69
419.481	536.74
419.689	561.31
419.897	610.47
420.105	524.45
420.313	628.9
420.521	626.85
420.729	643.23
420.937	686.24
421.145	721.06
421.353	688.29
421.561	727.2
421.769	759.97
421.977	745.63
422.185	768.16
422.393	897.18
422.601	809.12
422.809	880.8
423.017	817.31
423.224	907.42
423.432	944.28
423.64	1015.96
423.848	1061.02
424.056	960.67
424.263	1079.45
424.471	1087.64
424.679	1022.11
424.887	1081.5
425.094	1153.18
425.302	1155.23
425.51	1257.62
425.718	1339.54
425.925	1323.16
426.133	1357.97
426.341	1372.31
426.548	1427.6
426.756	1439.89
426.964	1601.68
427.171	1620.11
427.379	1585.3
427.586	1652.88
427.794	1652.88
428.001	1790.1
428.209	1933.45
428.417	1759.38
428.624	1872.01
428.832	1929.36
429.039	1982.6
429.247	1900.69
429.454	2177.16
429.662	2259.08
429.869	2146.44
430.076	2254.98
430.284	2300.04
430.491	2349.19
430.699	2386.05
430.906	2459.78
431.114	2478.21
431.321	2543.75
431.528	2498.69
431.736	2828.42
431.943	2846.85
432.15	2846.85
432.358	2760.83
432.565	2900.09
432.772	3000.44
432.979	3072.12
433.187	3223.67
433.394	3182.71
433.601	3412.09
433.808	3479.67
434.016	3393.65
434.223	3477.62
434.43	3784.82
434.637	3629.17
434.844	3891.31
435.052	3915.89
435.259	3901.55
435.466	3938.41
435.673	3962.99
435.88	4264.04
436.087	4403.3
436.294	4382.82
436.501	4202.6
436.708	4495.46
436.915	4526.18
437.122	4644.96
437.329	4692.07
437.537	4968.54
437.743	5017.69
437.95	5036.13
438.157	5283.93
438.364	5455.96
438.571	5320.79
438.778	5361.75
438.985	5785.68
439.192	5564.5
439.399	5996.62
439.606	5814.35
439.813	6076.49
440.02	6348.87
440.227	6232.14
440.433	6246.48
440.64	6402.12
440.847	6326.35
441.054	6602.82
441.261	7135.29
441.467	6846.53
441.674	7002.18
441.881	7319.61
442.088	7186.49
442.294	7286.84
442.501	7262.27
442.708	7620.66
442.914	7913.52
443.121	8122.41
443.328	7919.67
443.534	8431.66
443.741	8192.05
443.948	7952.43
444.154	8665.13
444.361	8675.37
444.568	8863.78
444.774	8644.65
444.981	8740.9
445.187	8935.46
445.394	9488.41
445.6	9269.28
445.807	10235.92
446.013	9834.52
446.22	10039.31
446.426	10242.06
446.633	10457.1
446.839	10704.9
447.046	10516.49
447.252	11096.07
447.459	10852.36
447.665	10600.46
447.871	11532.28
448.078	11853.81
448.284	11200.51
448.491	11509.76
448.697	11968.5
448.903	12257.26
449.11	12148.72
449.316	11958.26
449.522	12257.26
449.728	12445.68
449.935	12617.71
450.141	12916.71
450.347	12951.53
450.553	12519.4
450.76	12787.69
450.966	13064.16
451.172	12857.32
451.378	13391.84
451.584	12898.28
451.791	13105.12
451.997	13457.37
452.203	13733.85
452.409	13447.13
452.615	13318.11
452.821	12998.63
453.027	12795.88
453.233	13301.73
453.44	12777.45
453.646	13117.41
453.852	13084.64
454.058	13324.26
454.264	13023.2
454.47	13207.52
454.676	12822.5
454.882	13406.17
455.088	12095.47
455.294	12386.29
455.5	12498.92
455.705	12650.47
455.911	12097.52
456.117	11857.91
456.323	11808.76
456.529	11128.83
456.735	11442.17
456.941	11319.29
457.147	10913.8
457.352	10702.86
457.558	10442.76
457.764	10434.57
457.97	10391.56
458.176	10244.11
458.381	10229.77
458.587	9642.01
458.793	9768.98
458.999	9252.89
459.204	9832.47
459.41	9379.87
459.616	9023.52
459.821	8978.47
460.027	8921.12
460.233	8648.74
460.438	8251.44
460.644	8599.59
460.85	8202.29
461.055	8120.37
461.261	8058.93
461.466	7307.32
461.672	7063.61
461.878	7551.03
462.083	7010.37
462.289	7034.94
462.494	6899.78
462.7	6604.87
462.905	6502.47
463.111	6733.89
463.316	6731.84
463.522	6553.67
463.727	6461.51
463.932	6520.9
464.138	6576.2
464.343	6525
464.549	6373.45
464.754	6443.08
464.959	6479.94
465.165	6426.7
465.37	6127.69
465.575	6068.3
465.781	6285.39
465.986	6234.19
466.191	6131.79
466.397	6021.2
466.602	5861.46
466.807	5847.12
467.012	5754.96
467.218	5847.12
467.423	5787.73
467.628	5818.45
467.833	6017.1
468.038	5830.74
468.244	5658.71
468.449	5863.51
468.654	5609.56
468.859	5611.61
469.064	5675.09
469.269	5345.37
469.474	5439.58
469.679	5527.64
469.885	5384.28
470.09	5498.97
470.295	5408.86
470.5	5279.83
470.705	5371.99
470.91	5107.8
471.115	5224.54
471.32	5232.73
471.525	5154.91
471.73	5083.23
471.935	5118.04
472.139	4837.47
472.344	4894.82
472.549	4868.19
472.754	4780.13
472.959	4577.38
473.164	4776.03
473.369	4569.19
473.574	4800.61
473.778	4503.65
473.983	4628.58
474.188	4722.79
474.393	4337.77
474.598	4339.82
474.802	4489.32
475.007	4360.3
475.212	4354.15
475.417	4173.93
475.621	4276.33
475.826	4155.5
476.031	4300.91
476.235	4012.14
476.44	4194.41
476.645	4083.82
476.849	4089.96
477.054	3911.79
477.259	3987.57
477.463	3997.81
477.668	3870.83
477.872	3944.56
478.077	3938.41
478.282	3731.57
478.486	3745.91
478.691	3719.28
478.895	3645.56
479.1	3754.1
479.304	3596.4
479.509	3596.4
479.713	3711.09
479.918	3553.4
480.122	3510.39
480.326	3739.76
480.531	3524.72
480.735	3561.59
480.94	3477.62
481.144	3588.21
481.348	3485.81
481.553	3569.78
481.757	3481.72
481.961	3371.13
482.166	3637.36
482.37	3537.01
482.574	3328.12
482.778	3321.98
482.983	3379.32
483.187	3387.51
483.391	3489.91
483.595	3461.24
483.8	3342.46
484.004	3455.09
484.208	3397.75
484.412	3362.94
484.616	3514.49
484.821	3440.76
485.025	3479.67
485.229	3518.58
485.433	3438.71
485.637	3451
485.841	3518.58
486.045	3459.19
486.249	3485.81
486.453	3229.82
486.657	3332.22
486.861	3305.59
487.065	3297.4
487.269	3446.9
487.473	3403.89
487.677	3397.75
487.881	3362.94
488.085	3455.09
488.289	3346.55
488.493	3258.49
488.697	3377.27
488.901	3381.37
489.105	3321.98
489.309	3547.25
489.512	3491.96
489.716	3459.19
489.92	3512.44
490.124	3571.83
490.328	3520.63
490.531	3526.77
490.735	3618.93
490.939	3530.87
491.143	3547.25
491.346	3594.36
491.55	3620.98
491.754	3641.46
491.958	3610.74
492.161	3522.68
492.365	3590.26
492.569	3731.57
492.772	3600.5
492.976	3723.38
493.18	3641.46
493.383	3840.11
493.587	3741.81
493.79	3909.74
493.994	3750
494.197	3692.66
494.401	3870.83
494.605	3799.15
494.808	3870.83
495.012	3983.47
495.215	3962.99
495.419	3772.53
495.622	3936.37
495.825	4044.91
496.029	4085.87
496.232	4186.22
496.436	4233.32
496.639	4143.21
496.843	4149.36
497.046	4212.84
497.249	4264.04
497.453	4204.65
497.656	4374.63
497.859	4456.55
498.063	4399.21
498.266	4561
498.469	4395.11
498.673	4663.4
498.876	4649.06
499.079	4773.99
499.282	4751.46
499.485	4788.32
499.689	4773.99
499.892	4874.34
500.095	5001.31
500.298	5079.13
500.501	5124.19
500.705	5220.44
500.908	5314.65
501.111	5210.2
501.314	5337.18
501.517	5376.09
501.72	5415
501.923	5341.27
502.126	5570.65
502.329	5668.95
502.532	5714
502.735	5605.46
502.938	5871.7
503.141	5849.17
503.344	5910.61
503.547	6035.53
503.75	6088.78
503.953	6223.95
504.156	6303.82
504.359	6307.91
504.562	6330.44
504.765	6414.41
504.968	6629.45
505.17	6688.84
505.373	6668.36
505.576	6914.11
505.779	6735.94
505.982	6910.02
506.185	7094.33
506.387	7192.64
506.59	7036.99
506.793	7180.35
506.996	7268.41
507.198	7530.55
507.401	7536.7
507.604	7649.33
507.807	7829.56
508.009	7985.2
508.212	7993.39
508.415	8153.13
508.617	8120.37
508.82	8073.26
509.022	8030.26
509.225	8349.74
509.428	8542.25
509.63	8521.77
509.833	8753.19
510.035	8910.88
510.238	8837.16
510.44	9025.57
510.643	9087.01
510.845	9238.56
511.048	9179.17
511.25	9271.33
511.453	9469.98
511.655	9736.21
511.858	9576.47
512.06	9691.16
512.262	9961.49
512.465	9844.76
512.667	10117.14
512.87	10039.31
513.072	10330.13
513.274	10510.35
513.477	10571.79
513.679	10625.03
513.881	11057.15
514.084	10919.94
514.286	11089.92
514.488	11452.41
514.69	11472.89
514.893	11483.13
515.095	11618.3
515.297	11683.83
515.499	11909.11
515.701	12025.84
515.904	12095.47
516.106	12253.17
516.308	12554.22
516.51	12513.26
516.712	12568.55
516.914	12834.79
517.116	13029.35
517.318	13109.22
517.52	13234.14
517.722	13359.07
517.925	13529.05
518.127	13690.84
518.329	13760.47
518.531	13979.61
518.733	14376.91
518.935	14161.87
519.136	14270.42
519.338	14487.5
519.54	14659.53
519.742	14847.94
519.944	14776.27
520.146	15140.8
520.348	14800.84
520.55	15366.08
520.752	15583.16
520.954	15630.27
521.155	15677.37
521.357	15851.45
521.559	16164.79
521.761	16381.87
521.963	16400.3
522.164	16281.52
522.366	16844.71
522.568	16625.58
522.77	16760.75
522.971	17106.85
523.173	17237.92
523.375	17135.53
523.576	17168.29
523.778	17215.4
523.98	17612.7
524.181	17866.65
524.383	17926.04
524.584	17784.73
524.786	18157.46
524.988	18012.06
525.189	18331.54
525.391	18300.82
525.592	18366.35
525.794	18626.45
525.995	18730.89
526.197	18790.28
526.398	18845.58
526.6	18929.55
526.801	19046.28
527.003	19562.37
527.204	19228.55
527.406	19349.38
527.607	19271.56
527.808	19584.9
528.01	19365.76
528.211	19478.4
528.412	19812.22
528.614	19953.53
528.815	19808.12
529.016	19992.44
529.218	20027.26
529.419	20072.31
529.62	20051.83
529.822	20105.08
530.023	20395.89
530.224	20256.63
530.425	20103.03
530.626	20107.13
530.828	20275.06
531.029	20768.62
531.23	20496.24
531.431	20479.86
531.632	20596.59
531.833	20647.79
532.035	20750.19
532.236	20725.61
532.437	20635.5
532.638	20727.66
532.839	20877.16
533.04	21034.86
533.241	20760.43
533.442	21086.06
533.643	20909.93
533.844	20725.61
534.045	20737.9
534.246	20557.68
534.447	21098.34
534.648	20952.94
534.849	20809.58
535.05	20993.9
535.251	21155.69
535.451	20903.79
535.652	20989.8
535.853	21038.95
536.054	21151.59
536.255	21174.12
536.456	20508.53
536.657	21419.88
536.857	21210.98
537.058	20938.6
537.259	21000.04
537.46	21170.02
537.66	20950.89
537.861	21100.39
538.062	21340.01
538.263	21096.3
538.463	20977.51
538.664	21079.91
538.865	21155.69
539.065	21253.99
539.266	21098.34
539.466	21417.83
539.667	21088.1
539.868	21335.91
540.068	21084.01
540.269	21151.59
540.469	21331.81
540.67	21059.43
540.87	21155.69
541.071	21102.44
541.271	21454.69
541.472	21213.03
541.672	20997.99
541.873	21245.8
542.073	20891.5
542.274	21129.06
542.474	21143.4
542.675	21247.85
542.875	21229.41
543.075	21340.01
543.276	21094.25
543.476	21493.6
543.676	21118.82
543.877	21258.09
544.077	21116.78
544.277	21290.85
544.478	20973.42
544.678	21522.27
544.878	20936.56
545.078	21124.97
545.279	21272.42
545.479	20977.51
545.679	21589.86
545.879	21426.02
546.079	21139.3
546.28	21098.34
546.48	20893.55
546.68	21204.84
546.88	21223.27
547.08	21325.67
547.28	21061.48
547.48	21036.91
547.68	21243.75
547.88	20942.7
548.081	21407.59
548.281	20981.61
548.481	21172.07
548.681	21151.59
548.881	21311.33
549.081	21270.37
549.28	21120.87
549.48	21493.6
549.68	21106.54
549.88	21137.26
550.08	20985.71
550.28	21215.08
550.48	21100.39
550.68	21294.95
550.88	21196.65
551.08	21294.95
551.279	21333.86
551.479	20936.56
551.679	21098.34
551.879	21106.54
552.079	21344.1
552.278	21020.52
552.478	21309.29
552.678	20989.8
552.878	21061.48
553.077	21202.79
553.277	20963.18
553.477	21385.06
553.676	20995.95
553.876	20928.36
554.076	20911.98
554.275	21127.02
554.475	20664.18
554.674	21065.58
554.874	21036.91
555.074	20789.1
555.273	20967.27
555.473	21303.14
555.672	20647.79
555.872	20905.84
556.071	20877.16
556.271	20930.41
556.47	20496.24
556.67	20764.53
556.869	20760.43
557.068	20830.06
557.268	20842.35
557.467	20852.59
557.667	20246.39
557.866	20768.62
558.065	20342.64
558.265	20424.56
558.464	20303.73
558.663	20563.82
558.863	20555.63
559.062	20375.41
559.261	20109.18
559.461	20782.96
559.66	20156.28
559.859	20324.21
560.058	19955.58
560.258	20305.78
560.457	20070.26
560.656	20455.28
560.855	20107.13
561.054	20346.74
561.253	19888
561.453	20035.45
561.652	20107.13
561.851	20223.86
562.05	20156.28
562.249	19820.41
562.448	19791.74
562.647	19670.91
562.846	19605.38
563.045	19732.35
563.244	19361.67
563.443	19836.8
563.642	19505.03
563.841	19566.46
564.04	19650.43
564.239	19572.61
564.438	19361.67
564.637	19648.38
564.836	19472.26
565.035	18974.6
565.234	19529.6
565.432	19322.76
565.631	19152.77
565.83	19556.22
566.029	19267.46
566.228	19072.9
566.427	19232.65
566.625	18694.03
566.824	18689.93
567.023	19027.85
567.222	18657.17
567.42	18931.59
567.619	18849.68
567.818	18919.31
568.016	18591.63
568.215	18821
568.414	18642.83
568.612	18681.74
568.811	18483.09
569.01	18655.12
569.208	18605.97
569.407	18382.74
569.605	18220.95
569.804	18460.56
570.002	17993.62
570.201	18124.69
570.4	18077.59
570.598	18192.28
570.797	18026.39
570.995	17926.04
571.193	17840.03
571.392	17817.5
571.59	17715.1
571.789	17717.15
571.987	17706.91
572.186	17885.08
572.384	17614.75
572.582	17495.97
572.781	17624.99
572.979	17043.37
573.177	17643.42
573.376	17438.62
573.574	17221.54
573.772	17510.3
573.971	17104.81
574.169	16918.44
574.367	16912.3
574.565	16885.67
574.763	17176.48
574.962	16730.03
575.16	16793.51
575.358	16906.15
575.556	16586.67
575.754	16717.74
575.952	16320.43
576.151	16676.78
576.349	16023.48
576.547	16615.34
576.745	16558
576.943	16445.36
577.141	16607.15
577.339	16291.76
577.537	16074.68
577.735	16236.47
577.933	16000.95
578.131	16093.11
578.329	15757.24
578.527	15753.15
578.725	15947.7
578.923	16091.06
579.121	15634.36
579.319	15742.91
579.516	15734.71
579.714	15732.67
579.912	15351.74
580.11	15542.21
580.308	15540.16
580.506	15474.62
580.704	15288.26
580.901	15458.24
581.099	15345.6
581.297	15206.34
581.495	15185.86
581.692	15298.5
581.89	15015.88
582.088	15169.48
582.285	15058.88
582.483	14970.82
582.681	14886.86
582.878	14874.57
583.076	14960.58
583.274	14895.05
583.471	14522.32
583.669	14718.92
583.866	14645.2
584.064	14884.81
584.262	14567.37
584.459	14553.04
584.657	14567.37
584.854	14524.37
585.052	14235.6
585.249	14503.89
585.447	14479.31
585.644	14155.73
585.841	14055.38
586.039	14309.33
586.236	14125.01
586.434	14016.47
586.631	14213.07
586.828	13938.65
587.026	13815.77
587.223	13848.54
587.42	14008.28
587.618	13901.78
587.815	13653.98
588.012	13627.35
588.21	13744.09
588.407	13789.14
588.604	13600.73
588.801	13522.91
588.999	13703.13
589.196	13561.82
589.393	13287.39
589.59	13613.02
589.787	13426.65
589.984	13275.1
590.182	13314.02
590.379	13193.19
590.576	12994.53
590.773	13129.7
590.97	13051.88
591.167	13350.88
591.364	12691.43
591.561	13137.89
591.758	12945.38
591.955	12810.22
592.152	12900.33
592.349	12720.1
592.546	12812.26
592.743	12738.54
592.94	12689.39
593.137	12707.82
593.334	12847.08
593.531	12683.24
593.727	12775.4
593.924	12578.79
594.121	12566.51
594.318	12644.33
594.515	12521.45
594.712	12330.99
594.908	12218.35
595.105	12285.94
595.302	12238.83
595.499	12316.65
595.696	12453.87
595.892	12009.46
596.089	12171.25
596.286	12163.06
596.482	12218.35
596.679	12048.37
596.876	12179.44
597.072	11923.44
597.269	12013.56
597.466	11606.01
597.662	11843.57
597.859	11935.73
598.055	11884.53
598.252	11825.14
598.448	11905.01
598.645	11661.3
598.841	11749.37
599.038	11669.5
599.234	11550.71
599.431	11575.29
599.627	11579.39
599.824	11444.22
600.02	11573.24
600.217	11497.47
600.413	11495.42
600.609	11331.58
600.806	11335.68
601.002	11470.84
601.198	11120.64
601.395	11134.98
601.591	11151.36
601.787	11124.74
601.984	11175.94
602.18	11284.48
602.376	11366.4
602.572	10915.84
602.769	11010.05
602.965	10840.07
603.161	10801.16
603.357	10854.41
603.553	10721.29
603.75	10872.84
603.946	10803.21
604.142	10797.06
604.338	10602.5
604.534	10569.74
604.73	10715.14
604.926	10326.03
605.122	10645.51
605.318	10612.74
605.514	10528.78
605.71	10461.2
605.906	10174.48
606.102	10485.77
606.298	10326.03
606.494	10448.91
606.69	10272.78
606.886	10313.74
607.082	10252.3
607.278	10137.62
607.474	10053.65
607.67	10280.97
607.866	9750.55
608.062	10176.53
608.257	10004.5
608.453	9953.3
608.649	9955.35
608.845	9867.28
609.041	9891.86
609.236	9811.99
609.432	9814.04
609.628	9930.77
609.824	9693.21
610.019	9543.71
610.215	9781.27
610.411	9801.75
610.606	9537.56
610.802	9709.59
610.998	9670.68
611.193	9699.35
611.389	9637.91
611.584	9625.62
611.78	9588.76
611.976	9476.12
612.171	9080.86
612.367	9383.96
612.562	9390.11
612.758	9412.64
612.953	9320.48
613.149	9379.87
613.344	9132.06
613.539	9459.74
613.735	9285.66
613.93	9265.18
614.126	9103.39
614.321	9252.89
614.517	9097.25
614.712	9142.3
614.907	9197.6
615.103	9070.62
615.298	8982.56
615.493	8957.99
615.688	8845.35
615.884	9019.43
616.079	8818.72
616.274	8902.69
616.47	8843.3
616.665	8929.31
616.86	8716.33
617.055	8757.29
617.25	8745
617.445	8599.59
617.641	8716.33
617.836	8833.06
618.031	8611.88
618.226	8613.93
618.421	8609.83
618.616	8699.94
618.811	8558.63
619.006	8597.54
619.201	8413.23
619.396	8493.1
619.591	8179.76
619.786	8423.47
619.981	8321.07
620.176	8319.02
620.371	8165.42
620.566	8345.64
620.761	8124.46
620.956	8298.54
621.151	8011.82
621.346	7907.38
621.541	8060.98
621.735	8155.18
621.93	7870.51
622.125	7778.36
622.32	7790.64
622.515	7901.23
622.709	7788.6
622.904	7784.5
623.099	7757.88
623.294	7729.2
623.488	7606.33
623.683	7542.84
623.878	7522.36
624.072	7483.45
624.267	7497.78
624.462	7237.69
624.656	7460.92
624.851	7335.99
625.046	7239.74
625.24	7409.72
625.435	7051.33
625.629	7120.96
625.824	7153.73
626.018	7151.68
626.213	7034.94
626.407	7024.7
626.602	6836.29
626.796	7069.76
626.991	6967.36
627.185	7024.7
627.38	6783.04
627.574	7020.61
627.768	6922.31
627.963	6830.15
628.157	6627.4
628.352	6611.01
628.546	6551.62
628.74	6750.28
628.935	6570.05
629.129	6508.62
629.323	6475.85
629.517	6498.38
629.712	6426.7
629.906	6406.22
630.1	6330.44
630.294	6223.95
630.489	6174.8
630.683	6258.76
630.877	6283.34
631.071	6045.77
631.265	6277.19
631.459	6033.49
631.653	6103.12
631.848	5998.67
632.042	5963.86
632.236	6074.45
632.43	5863.51
632.624	5943.38
632.818	5840.98
633.012	6017.1
633.206	5931.09
633.4	5720.15
633.594	5914.7
633.788	5748.82
633.982	5668.95
634.176	5894.22
634.369	5580.89
634.563	5550.17
634.757	5591.13
634.951	5505.11
635.145	5486.68
635.339	5605.46
635.533	5509.21
635.726	5544.02
635.92	5513.3
636.114	5275.74
636.308	5443.67
636.501	5453.91
636.695	5494.87
636.889	5378.14
637.083	5152.86
637.276	5019.74
637.47	5328.99
637.664	5175.39
637.857	5142.62
638.051	5206.11
638.244	5081.18
638.438	5040.22
638.632	5056.61
638.825	4948.06
639.019	4948.06
639.212	4972.64
639.406	5029.98
639.599	4870.24
639.793	5081.18
639.986	4825.19
640.18	4911.2
640.373	4792.42
640.567	4786.27
640.76	4771.94
640.954	4749.41
641.147	4575.33
641.34	4567.14
641.534	4520.04
641.727	4675.68
641.92	4513.89
642.114	4436.07
642.307	4397.16
642.5	4554.85
642.694	4331.62
642.887	4509.8
643.08	4513.89
643.273	4382.82
643.467	4468.84
643.66	4178.03
643.853	4198.51
644.046	4266.09
644.239	4335.72
644.432	4130.92
644.626	4141.16
644.819	4143.21
645.012	4204.65
645.205	4278.38
645.398	4073.58
645.591	4065.39
645.784	4214.89
645.977	4061.29
646.17	4018.29
646.363	4085.87
646.556	3965.04
646.749	3895.41
646.942	4001.9
647.135	3901.55
647.328	3889.26
647.521	3846.26
647.714	3883.12
647.907	3680.37
648.099	3864.69
648.292	3895.41
648.485	3780.72
648.678	3780.72
648.871	3782.77
649.064	3776.63
649.256	3696.75
649.449	3602.55
649.642	3598.45
649.835	3608.69
650.027	3588.21
650.22	3584.12
650.413	3440.76
650.605	3438.71
650.798	3547.25
650.991	3346.55
651.183	3395.7
651.376	3274.87
651.568	3360.89
651.761	3424.37
651.954	3338.36
652.146	3225.72
652.339	3354.74
652.531	3352.7
652.724	3172.47
652.916	3125.37
653.109	3252.35
653.301	3266.68
653.494	3045.5
653.686	3190.91
653.879	3002.49
654.071	3117.18
654.263	3139.71
654.456	3102.84
654.648	3014.78
654.84	3104.89
655.033	2986.11
655.225	3018.88
655.417	2986.11
655.61	3020.92
655.802	2936.96
655.994	2842.75
656.186	2932.86
656.379	2959.49
656.571	2951.29
656.763	2818.18
656.955	2928.77
657.148	2877.57
657.34	2822.27
657.532	2797.7
657.724	2756.74
657.916	2805.89
658.108	2691.2
658.3	2803.84
658.492	2705.54
658.684	2683.01
658.876	2775.17
659.068	2787.46
659.26	2797.7
659.452	2635.91
659.644	2746.5
659.836	2588.8
660.028	2642.05
660.22	2496.64
660.412	2478.21
660.604	2523.27
660.796	2535.56
660.988	2619.52
661.18	2521.22
661.372	2439.3
661.563	2480.26
661.755	2492.55
661.947	2486.4
662.139	2435.21
662.331	2416.77
662.522	2451.59
662.714	2422.92
662.906	2330.76
663.097	2287.75
663.289	2455.69
663.481	2326.66
663.673	2310.28
663.864	2316.42
664.056	2271.37
664.247	2257.03
664.439	2312.33
664.631	2154.63
664.822	2193.55
665.014	2166.92
665.205	2201.74
665.397	2150.54
665.588	2150.54
665.78	2156.68
665.971	2187.4
666.163	2027.66
666.354	2150.54
666.546	2121.87
666.737	2128.01
666.929	2154.63
667.12	2125.96
667.311	2105.48
667.503	2039.95
667.694	2173.07
667.885	2042
668.077	2044.04
668.268	2103.43
668.459	2054.28
668.651	2054.28
668.842	1953.93
669.033	2025.61
669.224	2062.48
669.416	1980.56
669.607	1947.79
669.798	1978.51
669.989	1966.22
670.18	2015.37
670.371	1941.65
670.563	1998.99
670.754	1958.03
670.945	1931.41
671.136	2023.56
671.327	1900.69
671.518	1804.43
671.709	1857.68
671.9	1974.41
672.091	1761.42
672.282	1947.79
672.473	1812.62
672.664	1890.45
672.855	1892.49
673.046	1951.88
673.237	1931.41
673.428	1820.81
673.619	1833.1
673.809	1753.23
674	1814.67
674.191	1816.72
674.382	1773.71
674.573	1794.19
674.764	1804.43
674.954	1790.1
675.145	1675.41
675.336	1765.52
675.527	1783.95
675.717	1775.76
675.908	1753.23
676.099	1726.61
676.289	1642.64
676.48	1751.18
676.671	1720.46
676.861	1697.94
677.052	1749.14
677.243	1685.65
677.433	1714.32
677.624	1747.09
677.814	1689.74
678.005	1652.88
678.195	1634.45
678.386	1650.83
678.576	1642.64
678.767	1642.64
678.957	1687.7
679.148	1640.59
679.338	1659.03
679.529	1570.96
679.719	1691.79
679.909	1786
680.1	1691.79
680.29	1648.79
680.481	1609.87
680.671	1669.27
680.861	1593.49
681.052	1704.08
681.242	1603.73
681.432	1634.45
681.622	1638.55
681.813	1521.81
682.003	1650.83
682.193	1550.48
682.383	1642.64
682.573	1591.44
682.764	1593.49
682.954	1587.35
683.144	1620.11
683.334	1564.82
683.524	1702.03
683.714	1622.16
683.904	1558.67
684.094	1628.31
684.284	1638.55
684.474	1546.39
684.664	1687.7
684.854	1497.24
685.044	1478.8
685.234	1562.77
685.424	1530
685.614	1583.25
685.804	1593.49
685.994	1568.91
686.184	1646.74
686.374	1429.65
686.564	1470.61
686.753	1581.2
686.943	1546.39
687.133	1515.67
687.323	1509.52
687.513	1562.77
687.702	1519.76
687.892	1509.52
688.082	1495.19
688.272	1505.43
688.461	1581.2
688.651	1534.1
688.841	1501.33
689.03	1517.72
689.22	1593.49
689.41	1482.9
689.599	1487
689.789	1519.76
689.979	1581.2
690.168	1491.09
690.358	1521.81
690.547	1460.37
690.737	1579.15
690.926	1552.53
691.116	1400.98
691.305	1532.05
691.495	1437.84
691.684	1446.04
691.874	1527.96
692.063	1534.1
692.252	1525.91
692.442	1495.19
692.631	1413.27
692.82	1437.84
693.01	1487
693.199	1532.05
693.388	1544.34
693.578	1423.51
693.767	1552.53
693.956	1521.81
694.146	1429.65
694.335	1525.91
694.524	1376.41
694.713	1501.33
694.902	1441.94
695.092	1527.96
695.281	1484.95
695.47	1431.7
695.659	1560.72
695.848	1523.86
696.037	1530
696.226	1495.19
696.415	1491.09
696.604	1509.52
696.793	1581.2
696.982	1587.35
697.171	1476.76
697.36	1554.58
697.549	1534.1
697.738	1364.12
697.927	1480.85
698.116	1454.23
698.305	1478.8
698.494	1495.19
698.683	1513.62
698.872	1448.08
699.061	1530
699.25	1550.48
699.438	1462.42
699.627	1552.53
699.816	1519.76
700.005	1519.76
700.193	1556.63
700.382	1446.04
700.571	1554.58
700.76	1538.2
700.948	1595.54
701.137	1525.91
701.326	1443.99
701.514	1464.47
701.703	1472.66
701.892	1513.62
702.08	1570.96
702.269	1552.53
702.457	1570.96
702.646	1509.52
702.834	1519.76
703.023	1509.52
703.212	1476.76
703.4	1513.62
703.589	1513.62
703.777	1523.86
703.965	1472.66
704.154	1487
704.342	1431.7
704.531	1409.17
704.719	1558.67
704.907	1413.27
705.096	1456.28
705.284	1517.72
705.472	1458.32
705.661	1355.93
705.849	1429.65
706.037	1509.52
706.226	1556.63
706.414	1429.65
706.602	1425.56
706.79	1446.04
706.979	1417.37
707.167	1456.28
707.355	1417.37
707.543	1427.6
707.731	1431.7
707.919	1349.78
708.107	1388.69
708.296	1446.04
708.484	1349.78
708.672	1425.56
708.86	1396.89
709.048	1466.52
709.236	1308.82
709.424	1360.02
709.612	1360.02
709.8	1454.23
709.988	1394.84
710.176	1405.08
710.364	1390.74
710.551	1308.82
710.739	1433.75
710.927	1298.58
711.115	1423.51
711.303	1345.69
711.491	1374.36
711.679	1278.1
711.866	1405.08
712.054	1286.3
712.242	1261.72
712.43	1292.44
712.617	1292.44
712.805	1351.83
712.993	1267.86
713.181	1323.16
713.368	1226.9
713.556	1284.25
713.744	1253.53
713.931	1366.17
714.119	1257.62
714.306	1335.45
714.494	1280.15
714.682	1206.42
714.869	1333.4
715.057	1233.05
715.244	1310.87
715.432	1253.53
715.619	1355.93
715.807	1357.97
715.994	1290.39
716.182	1274.01
716.369	1319.06
716.556	1294.49
716.744	1175.7
716.931	1247.38
717.119	1237.14
717.306	1284.25
717.493	1134.75
717.681	1187.99
717.868	1222.81
718.055	1218.71
718.242	1192.09
718.43	1255.58
718.617	1276.06
718.804	1194.14
718.991	1237.14
719.179	1153.18
719.366	1202.33
719.553	1280.15
719.74	1187.99
719.927	1175.7
720.114	1163.42
720.301	1142.94
720.488	1147.03
720.676	1235.1
720.863	1161.37
721.05	1114.27
721.237	1110.17
721.424	1163.42
721.611	1185.94
721.798	1130.65
721.985	1128.6
722.172	1149.08
722.358	1093.79
722.545	1132.7
722.732	1093.79
722.919	1116.31
723.106	1163.42
723.293	1061.02
723.48	1093.79
723.667	1081.5
723.853	1165.46
724.04	1093.79
724.227	1063.07
724.414	1101.98
724.6	1128.6
724.787	1061.02
724.974	1073.31
725.161	1065.11
725.347	1052.83
725.534	1044.63
725.72	1093.79
725.907	1028.25
726.094	1136.79
726.28	987.29
726.467	1142.94
726.653	1052.83
726.84	1144.99
727.027	989.34
727.213	1071.26
727.4	1007.77
727.586	1042.59
727.773	1058.97
727.959	1040.54
728.145	977.05
728.332	1011.87
728.518	1067.16
728.705	985.24
728.891	987.29
729.077	1034.39
729.264	997.53
729.45	1003.68
729.636	1087.64
729.823	985.24
730.009	1048.73
730.195	932
730.382	1028.25
730.568	907.42
730.754	987.29
730.94	888.99
731.126	987.29
731.313	999.58
731.499	977.05
731.685	956.57
731.871	901.28
732.057	946.33
732.243	987.29
732.429	979.1
732.615	905.37
732.801	964.76
732.987	938.14
733.173	979.1
733.359	907.42
733.545	948.38
733.731	962.72
733.917	979.1
734.103	884.89
734.289	868.51
734.475	977.05
734.661	886.94
734.847	985.24
735.033	858.27
735.219	864.41
735.404	932
735.59	790.69
735.776	874.65
735.962	852.13
736.148	872.61
736.333	940.19
736.519	1024.16
736.705	946.33
736.89	905.37
737.076	909.47
737.262	872.61
737.447	876.7
737.633	946.33
737.819	862.37
738.004	868.51
738.19	860.32
738.375	831.65
738.561	852.13
738.747	868.51
738.932	942.24
739.118	897.18
739.303	876.7
739.489	946.33
739.674	825.5
739.859	792.73
740.045	827.55
740.23	897.18
740.416	823.45
740.601	817.31
740.786	800.93
740.972	805.02
741.157	786.59
741.342	798.88
741.528	780.45
741.713	835.74
741.898	841.89
742.084	845.98
742.269	848.03
742.454	774.3
742.639	870.56
742.824	843.93
743.01	845.98
743.195	757.92
743.38	737.44
743.565	759.97
743.75	747.68
743.935	682.14
744.12	788.64
744.305	825.5
744.49	782.49
744.675	764.06
744.86	733.34
745.045	737.44
745.23	762.02
745.415	678.05
745.6	714.91
745.785	704.67
745.97	772.25
746.155	794.78
746.34	723.1
746.525	733.34
746.71	735.39
746.895	678.05
747.079	706.72
747.264	686.24
747.449	716.96
747.634	673.95
747.819	725.15
748.003	684.19
748.188	694.43
748.373	676
748.557	600.23
748.742	669.86
748.927	696.48
749.111	659.62
749.296	587.94
749.481	594.08
749.665	598.18
749.85	557.22
750.034	596.13
750.219	639.14
750.404	610.47
750.588	721.06
750.773	565.41
750.957	649.38
751.141	630.95
751.326	544.93
751.51	571.55
751.695	630.95
751.879	692.38
752.064	639.14
752.248	557.22
752.432	549.03
752.617	536.74
752.801	577.7
752.985	475.3
753.17	549.03
753.354	587.94
753.538	538.79
753.722	575.65
753.907	538.79
754.091	520.35
754.275	587.94
754.459	608.42
754.643	465.06
754.828	606.37
755.012	569.51
755.196	608.42
755.38	544.93
755.564	499.88
755.748	503.97
755.932	417.96
756.116	526.5
756.3	514.21
756.484	493.73
756.668	489.64
756.852	479.4
757.036	469.16
757.22	506.02
757.404	489.64
757.588	436.39
757.772	473.25
757.956	391.33
758.14	432.29
758.323	483.49
758.507	469.16
758.691	493.73
758.875	495.78
759.059	450.72
759.242	405.67
759.426	456.87
759.61	454.82
759.794	420
759.977	442.53
760.161	460.96
760.345	403.62
760.528	456.87
760.712	381.09
760.895	465.06
761.079	372.9
761.263	417.96
761.446	440.48
761.63	407.72
761.813	405.67
761.997	438.44
762.18	422.05
762.364	381.09
762.547	325.8
762.731	446.63
762.914	444.58
763.098	344.23
763.281	483.49
763.464	456.87
763.648	377
763.831	415.91
764.015	319.65
764.198	377
764.381	327.85
764.564	362.66
764.748	344.23
764.931	379.04
765.114	377
765.297	381.09
765.481	331.94
765.664	393.38
765.847	387.24
766.03	377
766.213	393.38
766.397	331.94
766.58	366.76
766.763	340.13
766.946	401.57
767.129	368.81
767.312	399.52
767.495	438.44
767.678	336.04
767.861	368.81
768.044	366.76
768.227	358.57
768.41	336.04
768.593	319.65
768.776	340.13
768.959	397.48
769.142	309.41
769.324	395.43
769.507	413.86
769.69	432.29
769.873	364.71
770.056	372.9
770.239	338.09
770.421	385.19
770.604	415.91
770.787	350.37
770.97	329.89
771.152	329.89
771.335	352.42
771.518	368.81
771.7	381.09
771.883	413.86
772.066	301.22
772.248	299.17
772.431	333.99
772.613	276.65
772.796	348.33
772.978	276.65
773.161	329.89
773.343	293.03
773.526	241.83
773.708	293.03
773.891	309.41
774.073	338.09
774.256	430.24
774.438	377
774.621	311.46
774.803	358.57
774.985	309.41
775.168	299.17
775.35	245.93
775.532	276.65
775.715	317.61
775.897	278.69
776.079	217.26
776.261	319.65
776.444	280.74
776.626	311.46
776.808	190.63
776.99	252.07
777.173	268.45
777.355	323.75
777.537	301.22
777.719	221.35
777.901	272.55
778.083	303.27
778.265	223.4
778.447	188.58
778.629	286.89
778.811	266.41
778.993	188.58
779.175	235.69
779.357	178.34
779.539	153.77
779.721	315.56
779.903	284.84
780.085	288.93
780.267	192.68
780.449	227.5
780.631	219.3
780.812	264.36
780.994	225.45
781.176	243.88
781.358	256.17
781.54	217.26
781.721	211.11
781.903	247.97
782.085	250.02
782.267	137.38
782.448	241.83
782.63	272.55
782.812	231.59
782.993	217.26
783.175	282.79
783.357	159.91
783.538	223.4
783.72	209.06
783.901	178.34
784.083	182.44
784.264	202.92
784.446	178.34
784.627	266.41
784.809	194.73
784.99	200.87
785.172	217.26
785.353	88.23
785.535	164.01
785.716	147.62
785.897	149.67
786.079	159.91
786.26	170.15
786.441	188.58
786.623	168.1
786.804	180.39
786.985	196.78
787.167	225.45
787.348	151.72
787.529	196.78
787.71	200.87
787.891	186.54
788.073	96.43
788.254	63.66
788.435	110.76
788.616	123.05
788.797	159.91
788.978	178.34
789.159	131.24
789.34	180.39
789.522	141.48
789.703	170.15
789.884	202.92
790.065	184.49
790.246	196.78
790.427	155.82
790.607	118.95
790.788	233.64
790.969	127.14
791.15	196.78
791.331	164.01
791.512	217.26
791.693	127.14
791.874	147.62
792.054	219.3
792.235	176.3
792.416	190.63
792.597	129.19
792.778	149.67
792.958	127.14
793.139	184.49
793.32	75.95
793.5	116.9
793.681	135.34
793.862	118.95
794.042	98.47
794.223	86.19
794.404	143.53
794.584	123.05
794.765	71.85
794.945	75.95
795.126	184.49
795.306	114.86
795.487	121
795.667	94.38
795.848	159.91
796.028	161.96
796.209	98.47
796.389	147.62
796.57	131.24
796.75	98.47
796.93	67.75
797.111	82.09
797.291	75.95
797.471	114.86
797.652	139.43
797.832	170.15
798.012	143.53
798.192	164.01
798.373	90.28
798.553	75.95
798.733	164.01
798.913	102.57
799.093	69.8
799.274	90.28
799.454	161.96
799.634	135.34
799.814	92.33
799.994	121
800.174	96.43
800.354	141.48
800.534	90.28
800.714	112.81
800.894	77.99
801.074	80.04
801.254	84.14
801.434	86.19
801.614	73.9
801.794	86.19
801.974	274.6
802.154	94.38
802.334	88.23
802.514	143.53
802.693	135.34
802.873	106.67
803.053	45.23
803.233	129.19
803.413	96.43
803.592	-28.5
803.772	86.19
803.952	53.42
804.131	55.47
804.311	65.71
804.491	110.76
804.67	18.6
804.85	63.66
805.03	75.95
805.209	98.47
805.389	90.28
805.568	30.89
805.748	-81.75
805.928	114.86
806.107	90.28
806.287	86.19
806.466	121
806.646	4.27
806.825	123.05
807.004	69.8
807.184	73.9
807.363	-1.88
807.543	90.28
807.722	69.8
807.901	4.27
808.081	102.57
808.26	137.38
808.439	73.9
808.619	106.67
808.798	127.14
808.977	20.65
809.156	57.51
809.336	47.27
809.515	77.99
809.694	49.32
809.873	20.65
810.052	53.42
810.231	77.99
810.411	47.27
810.59	77.99
810.769	53.42
810.948	86.19
811.127	86.19
811.306	77.99
811.485	49.32
811.664	65.71
811.843	24.75
812.022	53.42
812.201	59.56
812.38	104.62
812.559	18.6
812.737	55.47
812.916	4.27
813.095	43.18
813.274	94.38
813.453	86.19
813.632	61.61
813.811	67.75
813.989	69.8
814.168	37.03
814.347	57.51
814.526	86.19
814.704	49.32
814.883	30.89
815.062	110.76
815.24	82.09
815.419	61.61
815.598	2.22
815.776	53.42
815.955	47.27
816.133	39.08
816.312	86.19
816.49	57.51
816.669	55.47
816.847	34.99
817.026	49.32
817.204	34.99
817.383	88.23
817.561	22.7
817.74	121
817.918	84.14
818.097	69.8
818.275	65.71
818.453	20.65
818.632	-3.93
818.81	84.14
818.988	6.31
819.167	32.94
819.345	94.38
819.523	22.7
819.701	121
819.879	100.52
820.058	55.47
820.236	90.28
820.414	32.94
820.592	16.55
820.77	141.48
820.948	32.94
821.127	86.19
821.305	59.56
821.483	14.51
821.661	22.7
821.839	20.65
822.017	112.81
822.195	47.27
822.373	53.42
822.551	8.36
822.729	39.08
822.907	55.47
823.085	30.89
823.262	20.65
823.44	51.37
823.618	45.23
823.796	47.27
823.974	41.13
824.152	96.43
824.329	-22.36
824.507	20.65
824.685	49.32
824.863	0.17
825.04	-24.4
825.218	98.47
825.396	39.08
825.574	0.17
825.751	26.79
825.929	98.47
826.107	-12.12
826.284	16.55
826.462	24.75
826.639	37.03
826.817	-44.88
826.994	14.51
827.172	61.61
827.349	80.04
827.527	57.51
827.704	32.94
827.882	37.03
828.059	102.57
828.237	16.55
828.414	53.42
828.591	22.7
828.769	14.51
828.946	-34.64
829.124	118.95
829.301	49.32
829.478	37.03
829.655	10.41
829.833	-10.07
830.01	71.85
830.187	53.42
830.364	39.08
830.542	53.42
830.719	77.99
830.896	108.71
831.073	57.51
831.25	51.37
831.427	41.13
831.604	-5.97
831.782	-12.12
831.959	49.32
832.136	12.46
832.313	4.27
832.49	4.27
832.667	0.17
832.844	67.75
833.021	45.23
833.198	-85.84
833.374	71.85
833.551	86.19
833.728	-8.02
833.905	49.32
834.082	28.84
834.259	67.75
834.436	20.65
834.612	98.47
834.789	0.17
834.966	-46.93
835.143	94.38
835.319	32.94
835.496	14.51
835.673	37.03
835.85	28.84
836.026	6.31
836.203	-61.27
836.38	-20.31
836.556	61.61
836.733	12.46
836.909	39.08
837.086	41.13
837.262	61.61
837.439	69.8
837.616	80.04
837.792	110.76
837.968	37.03
838.145	4.27
838.321	22.7
838.498	55.47
838.674	32.94
838.851	-16.21
839.027	-12.12
839.203	4.27
839.38	90.28
839.556	-48.98
839.732	12.46
839.909	-34.64
840.085	2.22
840.261	26.79
840.437	-42.84
840.614	45.23
840.79	-32.6
840.966	22.7
841.142	37.03
841.318	-26.45
841.494	-26.45
841.671	43.18
841.847	34.99
842.023	-51.03
842.199	47.27
842.375	39.08
842.551	16.55
842.727	10.41
842.903	71.85
843.079	12.46
843.255	4.27
843.431	-3.93
843.607	-14.17
843.783	-30.55
843.959	67.75
844.134	0.17
844.31	39.08
844.486	49.32
844.662	4.27
844.838	-22.36
845.013	-16.21
845.189	49.32
845.365	30.89
845.541	-22.36
845.716	-12.12
845.892	47.27
846.068	75.95
846.244	-26.45
846.419	-30.55
846.595	73.9
846.77	75.95
846.946	26.79
847.122	32.94
847.297	45.23
847.473	106.67
847.648	-10.07
847.824	65.71
847.999	53.42
848.175	49.32
848.35	45.23
848.526	102.57
848.701	45.23
848.876	-16.21
849.052	34.99
849.227	22.7
849.403	-30.55
849.578	12.46
849.753	6.31
849.929	8.36
850.104	-26.45
850.279	-8.02
850.454	4.27
850.63	0.17
850.805	-16.21
850.98	104.62
851.155	26.79
851.33	26.79
851.505	41.13
851.681	43.18
851.856	71.85
852.031	39.08
852.206	22.7
852.381	45.23
852.556	16.55
852.731	32.94
852.906	0.17
853.081	6.31
853.256	47.27
853.431	30.89
853.606	12.46
853.781	4.27
853.956	-3.93
854.131	-28.5
854.305	57.51
854.48	65.71
854.655	4.27
854.83	-42.84
855.005	12.46
855.18	6.31
855.354	-44.88
855.529	-3.93
855.704	59.56
855.879	-1.88
856.053	-8.02
856.228	30.89
856.403	-42.84
856.577	-3.93
856.752	4.27
856.926	61.61
857.101	-18.26
857.276	26.79
857.45	-10.07
857.625	82.09
857.799	37.03
857.974	47.27
858.148	0.17
858.323	-3.93
858.497	-36.69
858.672	37.03
858.846	-3.93
859.02	-5.97
859.195	-32.6
859.369	39.08
859.543	127.14
859.718	8.36
859.892	-40.79
860.066	45.23
860.241	45.23
860.415	-10.07
860.589	28.84
860.763	34.99
860.938	10.41
861.112	16.55
861.286	45.23
861.46	-24.4
861.634	-18.26
861.808	37.03
861.982	-46.93
862.157	-8.02
862.331	22.7
862.505	47.27
862.679	-8.02
862.853	34.99
863.027	-18.26
863.201	-81.75
863.375	37.03
863.549	-44.88
863.722	86.19
863.896	20.65
864.07	0.17
864.244	0.17
864.418	12.46
864.592	20.65
864.766	12.46
864.939	32.94
865.113	-28.5
865.287	65.71
865.461	-48.98
865.634	26.79
865.808	16.55
865.982	-3.93
866.156	-10.07
866.329	-59.22
866.503	12.46
866.676	-10.07
866.85	-89.94
867.024	-48.98
867.197	14.51
867.371	-22.36
867.544	34.99
867.718	41.13
867.891	22.7
868.065	16.55
868.238	-40.79
868.412	-10.07
868.585	-36.69
868.759	-57.17
868.932	12.46
869.105	-53.08
869.279	0.17
869.452	39.08
869.625	0.17
869.799	-67.41
869.972	28.84
870.145	-42.84
870.319	65.71
870.492	-53.08
870.665	-36.69
870.838	0.17
871.011	-48.98
871.185	43.18
871.358	-71.51
871.531	-10.07
871.704	-24.4
871.877	-53.08
872.05	-14.17
872.223	-3.93
872.396	8.36
872.569	71.85
872.742	14.51
872.915	41.13
873.088	-3.93
873.261	84.14
873.434	-40.79
873.607	-48.98
873.78	28.84
873.953	32.94
874.126	-10.07
874.299	24.75
874.471	-8.02
874.644	-40.79
874.817	8.36
874.99	34.99
875.163	-20.31
875.335	63.66
875.508	-28.5
875.681	-8.02
875.853	-14.17
876.026	30.89
876.199	61.61
876.371	47.27
876.544	-22.36
876.717	43.18
876.889	20.65
877.062	30.89
877.234	-44.88
877.407	16.55
877.579	-30.55
877.752	-3.93
877.924	2.22
878.097	-5.97
878.269	-77.65
878.442	28.84
878.614	-53.08
878.786	-8.02
878.959	12.46
879.131	32.94
879.303	16.55
879.476	-18.26
879.648	18.6
879.82	16.55
879.993	37.03
880.165	-16.21
880.337	-12.12
880.509	34.99
880.681	-24.4
880.854	28.84
881.026	14.51
881.198	-28.5
881.37	-20.31
881.542	-8.02
881.714	-30.55
881.886	-12.12
882.058	-16.21
882.23	37.03
882.402	55.47
882.574	-18.26
882.746	14.51
882.918	-26.45
883.09	71.85
883.262	-40.79
883.434	53.42
883.606	2.22
883.778	69.8
883.95	-3.93
884.122	-28.5
884.293	2.22
884.465	-16.21
884.637	-8.02
884.809	-28.5
884.98	-1.88
885.152	2.22
885.324	2.22
885.496	10.41
885.667	8.36
885.839	-8.02
886.011	-22.36
886.182	6.31
886.354	18.6
886.525	-28.5
886.697	-44.88
886.869	-16.21
887.04	-12.12
887.212	47.27
887.383	77.99
887.555	16.55
887.726	26.79
887.897	26.79
888.069	47.27
888.24	-18.26
888.412	16.55
888.583	-14.17
888.754	-30.55
888.926	75.95
889.097	-20.31
889.268	-3.93
889.44	16.55
889.611	-65.36
889.782	-12.12
889.953	-28.5
890.125	-20.31
890.296	28.84
890.467	-26.45
890.638	-22.36
890.809	-16.21
890.98	-34.64
891.151	-61.27
891.323	4.27
891.494	37.03
891.665	-24.4
891.836	-14.17
892.007	-36.69
892.178	32.94
892.349	63.66
892.52	77.99
892.691	-59.22
892.862	14.51
893.032	-18.26
893.203	-10.07
893.374	63.66
893.545	22.7
893.716	-71.51
893.887	104.62
894.057	-26.45
894.228	30.89
894.399	-16.21
894.57	28.84
894.74	-63.32
894.911	57.51
895.082	22.7
895.253	-1.88
895.423	20.65
895.594	-30.55
895.764	-12.12
895.935	12.46
896.106	16.55
896.276	-28.5
896.447	-24.4
896.617	0.17
896.788	-28.5
896.958	86.19
897.129	49.32
897.299	-18.26
897.47	18.6
897.64	-20.31
897.81	67.75
897.981	26.79
898.151	53.42
898.322	55.47
898.492	4.27
898.662	-8.02
898.832	39.08
899.003	-20.31
899.173	24.75
899.343	-42.84
899.513	-12.12
