Data from USB4F104151__155__13-58-36-413.txt Node

Date: Thu Mar 13 13:58:36 EDT 2025
User: louis
Spectrometer: USB4F10415
Trigger mode: 4
Integration Time (sec): 1.000000E-2
Scans to average: 1
Electric dark correction enabled: true
Nonlinearity correction enabled: false
Boxcar width: 0
XAxis mode: Wavelengths
Number of Pixels in Spectrum: 3648
>>>>>Begin Spectral Data<<<<<
178.204	-37.89
178.424	-37.89
178.644	-37.89
178.864	-23.55
179.084	11.26
179.304	33.79
179.524	-3.07
179.744	-25.6
179.964	56.32
180.184	19.46
180.404	-37.89
180.624	-13.31
180.844	-25.6
181.064	-7.17
181.283	-9.22
181.503	7.17
181.723	5.12
181.943	-11.26
182.163	21.5
182.383	3.07
182.602	52.22
182.822	13.31
183.042	48.13
183.262	19.46
183.482	56.32
183.701	11.26
183.921	66.56
184.141	-13.31
184.361	31.74
184.58	9.22
184.8	-5.12
185.02	54.27
185.239	-15.36
185.459	-5.12
185.679	128
185.898	9.22
186.118	1.02
186.338	-19.46
186.557	50.18
186.777	25.6
186.997	99.33
187.216	11.26
187.436	50.18
187.655	78.85
187.875	37.89
188.095	19.46
188.314	50.18
188.534	13.31
188.753	27.65
188.973	60.42
189.192	58.37
189.412	17.41
189.631	82.94
189.851	3.07
190.07	-1.02
190.29	7.17
190.509	-7.17
190.729	-17.41
190.948	13.31
191.168	62.46
191.387	29.7
191.607	-5.12
191.826	33.79
192.045	-13.31
192.265	68.61
192.484	44.03
192.704	41.98
192.923	64.51
193.142	70.65
193.362	25.6
193.581	23.55
193.8	-3.07
194.02	-74.75
194.239	76.8
194.458	56.32
194.678	1.02
194.897	33.79
195.116	44.03
195.335	-23.55
195.555	-46.08
195.774	101.37
195.993	-39.94
196.212	33.79
196.432	1.02
196.651	95.23
196.87	39.94
197.089	58.37
197.308	72.7
197.528	52.22
197.747	-13.31
197.966	27.65
198.185	27.65
198.404	29.7
198.623	56.32
198.842	46.08
199.062	66.56
199.281	44.03
199.5	52.22
199.719	44.03
199.938	33.79
200.157	115.71
200.376	-5.12
200.595	7.17
200.814	82.94
201.033	-5.12
201.252	15.36
201.471	70.65
201.69	125.95
201.909	21.5
202.128	-11.26
202.347	72.7
202.566	19.46
202.785	21.5
203.004	41.98
203.223	62.46
203.442	23.55
203.661	109.57
203.879	-17.41
204.098	84.99
204.317	19.46
204.536	76.8
204.755	19.46
204.974	5.12
205.193	70.65
205.411	64.51
205.63	72.7
205.849	41.98
206.068	31.74
206.287	-31.74
206.505	41.98
206.724	52.22
206.943	13.31
207.162	68.61
207.381	15.36
207.599	29.7
207.818	-19.46
208.037	29.7
208.255	37.89
208.474	-1.02
208.693	60.42
208.911	52.22
209.13	44.03
209.349	37.89
209.567	7.17
209.786	48.13
210.005	60.42
210.223	15.36
210.442	-60.42
210.661	5.12
210.879	66.56
211.098	66.56
211.316	1.02
211.535	76.8
211.753	3.07
211.972	3.07
212.191	-44.03
212.409	44.03
212.628	29.7
212.846	23.55
213.065	-52.22
213.283	93.18
213.502	9.22
213.72	-37.89
213.938	33.79
214.157	60.42
214.375	1.02
214.594	-23.55
214.812	37.89
215.031	50.18
215.249	44.03
215.467	111.61
215.686	-23.55
215.904	-7.17
216.122	-3.07
216.341	-5.12
216.559	82.94
216.778	35.84
216.996	46.08
217.214	99.33
217.432	3.07
217.651	25.6
217.869	58.37
218.087	48.13
218.306	7.17
218.524	-7.17
218.742	27.65
218.96	21.5
219.179	31.74
219.397	21.5
219.615	87.04
219.833	33.79
220.051	23.55
220.27	66.56
220.488	89.09
220.706	-3.07
220.924	54.27
221.142	35.84
221.36	72.7
221.578	50.18
221.796	-21.5
222.015	39.94
222.233	58.37
222.451	62.46
222.669	46.08
222.887	41.98
223.105	23.55
223.323	1.02
223.541	-29.7
223.759	66.56
223.977	44.03
224.195	60.42
224.413	58.37
224.631	29.7
224.849	23.55
225.067	68.61
225.285	27.65
225.503	54.27
225.721	54.27
225.939	-11.26
226.157	33.79
226.375	64.51
226.592	15.36
226.81	9.22
227.028	13.31
227.246	64.51
227.464	-7.17
227.682	87.04
227.9	91.13
228.117	99.33
228.335	54.27
228.553	-50.18
228.771	70.65
228.989	72.7
229.206	46.08
229.424	89.09
229.642	3.07
229.86	15.36
230.077	48.13
230.295	58.37
230.513	19.46
230.731	-7.17
230.948	33.79
231.166	52.22
231.384	37.89
231.601	33.79
231.819	13.31
232.037	3.07
232.254	29.7
232.472	66.56
232.689	50.18
232.907	29.7
233.125	68.61
233.342	68.61
233.56	-19.46
233.777	-31.74
233.995	11.26
234.213	68.61
234.43	25.6
234.648	58.37
234.865	-23.55
235.083	25.6
235.3	33.79
235.518	3.07
235.735	21.5
235.953	41.98
236.17	-31.74
236.388	54.27
236.605	44.03
236.822	-17.41
237.04	17.41
237.257	11.26
237.475	21.5
237.692	58.37
237.909	-19.46
238.127	74.75
238.344	-7.17
238.562	62.46
238.779	64.51
238.996	11.26
239.214	19.46
239.431	37.89
239.648	31.74
239.865	115.71
240.083	46.08
240.3	33.79
240.517	44.03
240.735	27.65
240.952	52.22
241.169	-27.65
241.386	119.81
241.603	35.84
241.821	29.7
242.038	134.14
242.255	87.04
242.472	21.5
242.689	15.36
242.907	105.47
243.124	52.22
243.341	3.07
243.558	15.36
243.775	44.03
243.992	-5.12
244.209	56.32
244.426	58.37
244.643	21.5
244.86	46.08
245.078	48.13
245.295	23.55
245.512	52.22
245.729	72.7
245.946	46.08
246.163	-9.22
246.38	78.85
246.597	46.08
246.814	58.37
247.031	7.17
247.248	35.84
247.464	78.85
247.681	66.56
247.898	-25.6
248.115	101.37
248.332	54.27
248.549	80.89
248.766	87.04
248.983	37.89
249.2	68.61
249.417	78.85
249.633	11.26
249.85	5.12
250.067	-41.98
250.284	72.7
250.501	11.26
250.717	-46.08
250.934	29.7
251.151	23.55
251.368	23.55
251.585	35.84
251.801	13.31
252.018	50.18
252.235	-11.26
252.451	11.26
252.668	-7.17
252.885	66.56
253.102	13.31
253.318	1.02
253.535	41.98
253.752	17.41
253.968	56.32
254.185	101.37
254.401	23.55
254.618	39.94
254.835	-23.55
255.051	103.42
255.268	23.55
255.484	54.27
255.701	-1.02
255.917	103.42
256.134	9.22
256.351	7.17
256.567	46.08
256.784	35.84
257	48.13
257.217	52.22
257.433	21.5
257.65	72.7
257.866	41.98
258.082	35.84
258.299	60.42
258.515	7.17
258.732	23.55
258.948	19.46
259.165	-29.7
259.381	-33.79
259.597	25.6
259.814	3.07
260.03	64.51
260.246	29.7
260.463	15.36
260.679	-46.08
260.895	82.94
261.112	68.61
261.328	54.27
261.544	35.84
261.761	33.79
261.977	-41.98
262.193	78.85
262.409	82.94
262.626	39.94
262.842	52.22
263.058	-7.17
263.274	27.65
263.49	-7.17
263.707	60.42
263.923	5.12
264.139	62.46
264.355	23.55
264.571	115.71
264.787	39.94
265.004	-39.94
265.22	52.22
265.436	9.22
265.652	13.31
265.868	87.04
266.084	-21.5
266.3	93.18
266.516	-66.56
266.732	-15.36
266.948	62.46
267.164	35.84
267.38	41.98
267.596	52.22
267.812	52.22
268.028	-35.84
268.244	-7.17
268.46	41.98
268.676	58.37
268.892	44.03
269.108	93.18
269.324	99.33
269.54	-9.22
269.756	66.56
269.972	74.75
270.188	-9.22
270.403	-7.17
270.619	-66.56
270.835	41.98
271.051	91.13
271.267	17.41
271.483	11.26
271.698	-3.07
271.914	62.46
272.13	64.51
272.346	35.84
272.562	23.55
272.777	99.33
272.993	-1.02
273.209	58.37
273.425	21.5
273.64	13.31
273.856	-25.6
274.072	91.13
274.287	-17.41
274.503	35.84
274.719	76.8
274.934	23.55
275.15	23.55
275.366	7.17
275.581	44.03
275.797	9.22
276.012	33.79
276.228	62.46
276.444	31.74
276.659	-7.17
276.875	41.98
277.09	87.04
277.306	-7.17
277.521	64.51
277.737	13.31
277.952	25.6
278.168	60.42
278.383	136.19
278.599	76.8
278.814	13.31
279.03	-58.37
279.245	113.66
279.461	31.74
279.676	-21.5
279.892	-29.7
280.107	-15.36
280.322	-9.22
280.538	19.46
280.753	25.6
280.969	-70.65
281.184	99.33
281.399	-5.12
281.615	7.17
281.83	25.6
282.045	29.7
282.26	-33.79
282.476	62.46
282.691	13.31
282.906	1.02
283.122	25.6
283.337	-13.31
283.552	33.79
283.767	39.94
283.983	64.51
284.198	25.6
284.413	41.98
284.628	1.02
284.843	21.5
285.058	-37.89
285.274	91.13
285.489	23.55
285.704	64.51
285.919	5.12
286.134	54.27
286.349	29.7
286.564	68.61
286.779	95.23
286.995	-7.17
287.21	1.02
287.425	64.51
287.64	9.22
287.855	7.17
288.07	31.74
288.285	64.51
288.5	25.6
288.715	52.22
288.93	95.23
289.145	56.32
289.36	35.84
289.575	-5.12
289.79	68.61
290.004	52.22
290.219	48.13
290.434	87.04
290.649	44.03
290.864	103.42
291.079	19.46
291.294	-23.55
291.509	56.32
291.724	62.46
291.938	44.03
292.153	62.46
292.368	56.32
292.583	50.18
292.798	17.41
293.012	9.22
293.227	27.65
293.442	5.12
293.657	48.13
293.871	9.22
294.086	7.17
294.301	82.94
294.516	27.65
294.73	95.23
294.945	17.41
295.16	93.18
295.374	50.18
295.589	17.41
295.804	-54.27
296.018	68.61
296.233	5.12
296.447	52.22
296.662	-7.17
296.877	11.26
297.091	15.36
297.306	1.02
297.52	23.55
297.735	29.7
297.949	76.8
298.164	46.08
298.378	-37.89
298.593	15.36
298.807	-11.26
299.022	25.6
299.236	111.61
299.451	84.99
299.665	3.07
299.88	66.56
300.094	11.26
300.309	54.27
300.523	91.13
300.737	11.26
300.952	41.98
301.166	33.79
301.381	-54.27
301.595	33.79
301.809	93.18
302.024	78.85
302.238	66.56
302.452	62.46
302.667	78.85
302.881	128
303.095	-13.31
303.309	19.46
303.524	-46.08
303.738	23.55
303.952	72.7
304.166	101.37
304.381	46.08
304.595	33.79
304.809	72.7
305.023	7.17
305.237	66.56
305.452	17.41
305.666	33.79
305.88	68.61
306.094	35.84
306.308	125.95
306.522	44.03
306.736	52.22
306.95	72.7
307.164	33.79
307.379	-11.26
307.593	44.03
307.807	1.02
308.021	17.41
308.235	13.31
308.449	21.5
308.663	46.08
308.877	41.98
309.091	105.47
309.305	95.23
309.519	-3.07
309.733	82.94
309.947	62.46
310.161	68.61
310.374	50.18
310.588	37.89
310.802	39.94
311.016	78.85
311.23	46.08
311.444	1.02
311.658	1.02
311.872	76.8
312.085	-11.26
312.299	101.37
312.513	39.94
312.727	134.14
312.941	44.03
313.154	95.23
313.368	33.79
313.582	52.22
313.796	60.42
314.009	66.56
314.223	33.79
314.437	80.89
314.651	25.6
314.864	9.22
315.078	80.89
315.292	48.13
315.505	9.22
315.719	60.42
315.933	107.52
316.146	117.76
316.36	-5.12
316.573	52.22
316.787	41.98
317.001	58.37
317.214	66.56
317.428	21.5
317.641	-25.6
317.855	17.41
318.068	19.46
318.282	35.84
318.495	46.08
318.709	72.7
318.922	78.85
319.136	17.41
319.349	54.27
319.563	64.51
319.776	33.79
319.99	48.13
320.203	70.65
320.417	11.26
320.63	148.48
320.843	48.13
321.057	1.02
321.27	29.7
321.483	35.84
321.697	31.74
321.91	5.12
322.124	64.51
322.337	13.31
322.55	68.61
322.763	27.65
322.977	25.6
323.19	29.7
323.403	41.98
323.617	33.79
323.83	107.52
324.043	54.27
324.256	13.31
324.469	33.79
324.683	64.51
324.896	9.22
325.109	31.74
325.322	13.31
325.535	5.12
325.748	19.46
325.962	-1.02
326.175	78.85
326.388	84.99
326.601	3.07
326.814	35.84
327.027	37.89
327.24	9.22
327.453	1.02
327.666	3.07
327.879	52.22
328.092	9.22
328.305	33.79
328.518	54.27
328.731	27.65
328.944	-3.07
329.157	50.18
329.37	-17.41
329.583	41.98
329.796	107.52
330.009	52.22
330.222	9.22
330.435	27.65
330.648	105.47
330.861	7.17
331.073	111.61
331.286	119.81
331.499	115.71
331.712	44.03
331.925	58.37
332.138	13.31
332.35	64.51
332.563	-50.18
332.776	64.51
332.989	-23.55
333.202	123.9
333.414	21.5
333.627	52.22
333.84	7.17
334.053	58.37
334.265	1.02
334.478	37.89
334.691	62.46
334.903	54.27
335.116	17.41
335.329	21.5
335.541	41.98
335.754	101.37
335.966	11.26
336.179	-7.17
336.392	-7.17
336.604	76.8
336.817	13.31
337.029	46.08
337.242	-27.65
337.454	80.89
337.667	78.85
337.88	23.55
338.092	72.7
338.305	62.46
338.517	97.28
338.729	56.32
338.942	48.13
339.154	1.02
339.367	82.94
339.579	82.94
339.792	9.22
340.004	70.65
340.217	66.56
340.429	21.5
340.641	19.46
340.854	74.75
341.066	7.17
341.278	29.7
341.491	64.51
341.703	82.94
341.915	-11.26
342.128	17.41
342.34	33.79
342.552	66.56
342.764	60.42
342.977	3.07
343.189	3.07
343.401	-15.36
343.613	7.17
343.826	-39.94
344.038	107.52
344.25	19.46
344.462	25.6
344.674	-31.74
344.886	44.03
345.099	60.42
345.311	91.13
345.523	105.47
345.735	140.29
345.947	46.08
346.159	23.55
346.371	44.03
346.583	1.02
346.795	66.56
347.007	52.22
347.219	46.08
347.431	21.5
347.643	33.79
347.855	70.65
348.067	31.74
348.279	72.7
348.491	19.46
348.703	39.94
348.915	91.13
349.127	74.75
349.339	103.42
349.551	9.22
349.763	50.18
349.975	62.46
350.187	33.79
350.399	15.36
350.61	25.6
350.822	21.5
351.034	52.22
351.246	39.94
351.458	31.74
351.669	15.36
351.881	58.37
352.093	39.94
352.305	48.13
352.517	70.65
352.728	76.8
352.94	35.84
353.152	84.99
353.363	17.41
353.575	31.74
353.787	9.22
353.999	-5.12
354.21	13.31
354.422	-21.5
354.633	31.74
354.845	29.7
355.057	13.31
355.268	41.98
355.48	89.09
355.692	50.18
355.903	25.6
356.115	17.41
356.326	52.22
356.538	50.18
356.749	27.65
356.961	107.52
357.172	107.52
357.384	74.75
357.595	140.29
357.807	25.6
358.018	25.6
358.23	3.07
358.441	-11.26
358.653	9.22
358.864	29.7
359.075	64.51
359.287	1.02
359.498	68.61
359.709	50.18
359.921	15.36
360.132	68.61
360.344	48.13
360.555	-27.65
360.766	107.52
360.977	46.08
361.189	60.42
361.4	23.55
361.611	87.04
361.823	21.5
362.034	115.71
362.245	68.61
362.456	66.56
362.667	54.27
362.879	-1.02
363.09	82.94
363.301	119.81
363.512	87.04
363.723	35.84
363.935	50.18
364.146	54.27
364.357	91.13
364.568	138.24
364.779	3.07
364.99	70.65
365.201	-19.46
365.412	56.32
365.623	-7.17
365.834	60.42
366.045	1.02
366.256	80.89
366.467	33.79
366.678	111.61
366.889	15.36
367.1	62.46
367.311	105.47
367.522	76.8
367.733	72.7
367.944	115.71
368.155	62.46
368.366	11.26
368.577	125.95
368.788	66.56
368.999	52.22
369.209	107.52
369.42	78.85
369.631	97.28
369.842	54.27
370.053	113.66
370.264	148.48
370.474	23.55
370.685	21.5
370.896	29.7
371.107	-19.46
371.317	44.03
371.528	-13.31
371.739	1.02
371.95	93.18
372.16	54.27
372.371	27.65
372.582	66.56
372.792	60.42
373.003	52.22
373.214	33.79
373.424	27.65
373.635	44.03
373.846	68.61
374.056	60.42
374.267	11.26
374.477	11.26
374.688	70.65
374.898	56.32
375.109	74.75
375.319	31.74
375.53	76.8
375.74	123.9
375.951	52.22
376.161	125.95
376.372	29.7
376.582	21.5
376.793	93.18
377.003	84.99
377.214	91.13
377.424	52.22
377.635	66.56
377.845	101.37
378.055	66.56
378.266	72.7
378.476	46.08
378.686	74.75
378.897	107.52
379.107	35.84
379.317	3.07
379.528	15.36
379.738	148.48
379.948	82.94
380.158	99.33
380.369	50.18
380.579	13.31
380.789	80.89
380.999	66.56
381.21	3.07
381.42	82.94
381.63	1.02
381.84	78.85
382.05	58.37
382.261	64.51
382.471	68.61
382.681	58.37
382.891	29.7
383.101	50.18
383.311	-5.12
383.521	17.41
383.731	29.7
383.941	64.51
384.151	54.27
384.361	44.03
384.571	9.22
384.781	76.8
384.991	58.37
385.201	78.85
385.411	52.22
385.621	84.99
385.831	29.7
386.041	7.17
386.251	23.55
386.461	91.13
386.671	97.28
386.881	29.7
387.091	17.41
387.301	68.61
387.511	44.03
387.72	62.46
387.93	35.84
388.14	9.22
388.35	23.55
388.56	97.28
388.769	5.12
388.979	64.51
389.189	121.85
389.399	111.61
389.609	46.08
389.818	29.7
390.028	27.65
390.238	50.18
390.447	25.6
390.657	95.23
390.867	15.36
391.076	76.8
391.286	31.74
391.496	105.47
391.705	82.94
391.915	148.48
392.125	97.28
392.334	87.04
392.544	37.89
392.753	78.85
392.963	1.02
393.172	9.22
393.382	33.79
393.591	74.75
393.801	64.51
394.01	107.52
394.22	84.99
394.429	103.42
394.639	3.07
394.848	70.65
395.058	74.75
395.267	99.33
395.477	103.42
395.686	134.14
395.895	21.5
396.105	128
396.314	25.6
396.524	99.33
396.733	123.9
396.942	44.03
397.152	78.85
397.361	39.94
397.57	72.7
397.78	33.79
397.989	84.99
398.198	164.86
398.407	91.13
398.617	123.9
398.826	93.18
399.035	91.13
399.244	130.05
399.453	109.57
399.663	140.29
399.872	78.85
400.081	66.56
400.29	148.48
400.499	103.42
400.708	52.22
400.917	117.76
401.127	66.56
401.336	17.41
401.545	66.56
401.754	99.33
401.963	97.28
402.172	111.61
402.381	95.23
402.59	103.42
402.799	78.85
403.008	29.7
403.217	177.15
403.426	62.46
403.635	115.71
403.844	189.44
404.053	134.14
404.262	164.86
404.471	191.49
404.68	70.65
404.888	115.71
405.097	125.95
405.306	150.53
405.515	164.86
405.724	95.23
405.933	199.68
406.142	134.14
406.35	146.43
406.559	107.52
406.768	138.24
406.977	238.59
407.185	177.15
407.394	164.86
407.603	111.61
407.812	152.57
408.02	160.77
408.229	209.92
408.438	123.9
408.646	156.67
408.855	197.63
409.064	230.4
409.272	128
409.481	240.64
409.69	183.29
409.898	183.29
410.107	248.83
410.315	189.44
410.524	201.72
410.733	271.36
410.941	357.37
411.15	289.79
411.358	279.55
411.567	302.08
411.775	365.56
411.984	361.47
412.192	386.04
412.401	222.2
412.609	295.93
412.818	324.6
413.026	359.42
413.234	369.66
413.443	402.43
413.651	371.71
413.86	394.23
414.068	383.99
414.276	437.24
414.485	453.63
414.693	500.73
414.901	400.38
415.11	515.06
415.318	564.22
415.526	633.85
415.734	556.02
415.943	492.54
416.151	633.85
416.359	547.83
416.567	635.89
416.776	562.17
416.984	726
417.192	654.33
417.4	705.53
417.608	662.52
417.817	805.88
418.025	715.77
418.233	867.31
418.441	820.21
418.649	846.84
418.857	930.8
419.065	916.47
419.273	959.47
419.481	932.85
419.689	992.24
419.897	1149.93
420.105	1145.84
420.313	1125.36
420.521	1094.64
420.729	1188.85
420.937	1025.01
421.145	1303.53
421.353	1238
421.561	1418.22
421.769	1418.22
421.977	1459.18
422.185	1397.74
422.393	1446.89
422.601	1629.16
422.809	1592.3
423.017	1586.15
423.224	1627.11
423.432	1815.52
423.64	1864.68
423.848	1911.78
424.056	1913.83
424.263	1985.51
424.471	1975.27
424.679	2005.99
424.887	2208.73
425.094	2163.68
425.302	2247.65
425.51	2216.93
425.718	2468.83
425.925	2440.15
426.133	2603.99
426.341	2644.95
426.548	2786.26
426.756	2569.18
426.964	2679.77
427.171	2794.45
427.379	2982.87
427.586	3083.22
427.794	3140.56
428.001	3202
428.209	3298.25
428.417	3320.78
428.624	3503.05
428.832	3679.18
429.039	3527.63
429.247	3519.43
429.454	3990.47
429.662	4060.1
429.869	3871.68
430.076	4058.05
430.284	4064.19
430.491	4094.91
430.699	4385.73
430.906	4467.64
431.114	4637.63
431.321	4604.86
431.528	4867
431.736	5231.54
431.943	5370.8
432.15	5233.58
432.358	5219.25
432.565	5487.53
432.772	5497.77
432.979	5874.6
433.187	5893.03
433.394	5946.28
433.601	6343.58
433.808	6405.02
434.016	6202.27
434.223	6654.87
434.43	6982.55
434.637	6847.38
434.844	7191.44
435.052	7256.98
435.259	7353.23
435.466	7308.18
435.673	7347.09
435.88	7736.2
436.087	8104.84
436.294	8219.52
436.501	7932.81
436.708	8090.5
436.915	8555.39
437.122	8596.35
437.329	8762.23
437.537	9061.24
437.743	9253.75
437.95	8946.55
438.157	9577.33
438.364	9808.75
438.571	9966.44
438.778	10007.4
438.985	10922.84
439.192	10328.93
439.399	10836.83
439.606	10546.02
439.813	11221.84
440.02	11674.45
440.227	11567.95
440.433	11467.6
440.64	11838.28
440.847	11821.9
441.054	12135.24
441.261	12774.21
441.467	12651.33
441.674	13046.58
441.881	13316.92
442.088	13542.19
442.294	13179.7
442.501	13814.57
442.708	14027.56
442.914	14617.38
443.121	14760.73
443.328	14619.42
443.534	15760.14
443.741	15293.21
443.948	15096.6
444.154	16259.85
444.361	15731.47
444.568	16053
444.774	16157.45
444.981	16319.24
445.187	16775.94
445.394	17478.39
445.6	17310.46
445.807	19131.1
446.013	18066.16
446.22	18428.65
446.426	19018.46
446.633	19178.2
446.839	19831.51
447.046	19020.51
447.252	20169.42
447.459	20282.06
447.665	20372.17
447.871	21091.01
448.078	22028.98
448.284	20656.84
448.491	21273.28
448.697	22035.12
448.903	22590.12
449.11	22796.96
449.316	22287.02
449.522	22647.46
449.728	23501.47
449.935	23749.27
450.141	23364.25
450.347	23923.35
450.553	23055.01
450.76	23556.76
450.966	24273.55
451.172	23771.8
451.378	24730.25
451.584	24289.93
451.791	24609.42
451.997	24631.94
452.203	24982.15
452.409	25121.41
452.615	24939.14
452.821	23876.24
453.027	23575.19
453.233	24994.43
453.44	23911.06
453.646	23904.92
453.852	24289.93
454.058	24584.84
454.264	23825.04
454.47	24318.6
454.676	23779.99
454.882	24584.84
455.088	22397.61
455.294	22696.61
455.5	23155.36
455.705	23149.21
455.911	22338.22
456.117	21893.81
456.323	21674.68
456.529	20464.33
456.735	21377.72
456.941	20984.51
457.147	20581.06
457.352	19624.66
457.558	19845.84
457.764	19606.23
457.97	19067.61
458.176	18776.8
458.381	18905.82
458.587	18008.81
458.793	18014.96
458.999	17079.04
459.204	18369.26
459.41	17650.42
459.616	16528.13
459.821	16466.69
460.027	16605.95
460.233	16106.25
460.438	15303.45
460.644	15493.91
460.85	14879.52
461.055	14482.21
461.261	14390.05
461.466	13677.36
461.672	12944.19
461.878	14027.56
462.083	13075.26
462.289	12786.49
462.494	12895.04
462.7	12215.11
462.905	11703.12
463.111	12383.04
463.316	12389.19
463.522	12077.9
463.727	12102.47
463.932	12155.72
464.138	12190.53
464.343	12018.5
464.549	11799.37
464.754	12016.46
464.959	11930.44
465.165	11782.99
465.37	11330.39
465.575	11203.41
465.781	11631.44
465.986	11735.88
466.191	11457.36
466.397	11025.24
466.602	10584.93
466.807	10881.88
467.012	11000.66
467.218	10791.77
467.423	10802.01
467.628	10795.87
467.833	11227.99
468.038	10679.13
468.244	10529.63
468.449	11002.71
468.654	10650.46
468.859	10525.54
469.064	10687.32
469.269	9984.87
469.474	10191.72
469.679	10267.49
469.885	10120.04
470.09	10138.47
470.295	10064.74
470.5	9960.3
470.705	9825.13
470.91	9880.43
471.115	9632.62
471.32	9790.31
471.525	9669.48
471.73	9448.3
471.935	9442.16
472.139	9163.64
472.344	9321.33
472.549	9022.33
472.754	9059.19
472.959	8833.91
473.164	8584.06
473.369	8577.92
473.574	8751.99
473.778	8938.36
473.983	8577.92
474.188	8661.88
474.393	8502.14
474.598	8446.85
474.802	8139.65
475.007	8403.84
475.212	8123.27
475.417	7830.41
475.621	7807.88
475.826	7814.02
476.031	7697.29
476.235	7627.66
476.44	7750.54
476.645	7742.35
476.849	7824.26
477.054	7617.42
477.259	7484.3
477.463	7377.81
477.668	7130
477.872	7488.4
478.077	7168.91
478.282	6988.69
478.486	7076.76
478.691	7033.75
478.895	7000.98
479.1	6994.84
479.304	6802.33
479.509	6566.81
479.713	7041.94
479.918	6624.15
480.122	6474.65
480.326	6757.27
480.531	6630.3
480.735	6796.18
480.94	6708.12
481.144	6769.56
481.348	6499.23
481.553	6525.85
481.757	6198.18
481.961	6286.24
482.166	6640.54
482.37	6560.67
482.574	6437.79
482.778	6448.03
482.983	6484.89
483.187	6646.68
483.391	6509.47
483.595	6286.24
483.8	6343.58
484.004	6497.18
484.208	6357.92
484.412	6372.25
484.616	6542.24
484.821	6441.89
485.025	6577.05
485.229	6392.73
485.433	6308.77
485.637	6552.48
485.841	6484.89
486.045	6310.82
486.249	6538.14
486.453	6480.8
486.657	6488.99
486.861	6456.22
487.065	6183.84
487.269	6325.15
487.473	6372.25
487.677	6267.81
487.881	6329.25
488.085	6357.92
488.289	6532
488.493	6407.07
488.697	6413.21
488.901	6390.69
489.105	6282.14
489.309	6423.45
489.512	6415.26
489.716	6648.73
489.92	6605.72
490.124	6515.61
490.328	6654.87
490.531	6652.83
490.735	6693.79
490.939	6691.74
491.143	6556.57
491.346	6710.17
491.55	6751.13
491.754	6706.07
491.958	6869.91
492.161	6816.66
492.365	6800.28
492.569	6851.48
492.772	6917.01
492.976	6816.66
493.18	6988.69
493.383	7033.75
493.587	7097.24
493.79	6968.21
493.994	7148.43
494.197	7166.87
494.401	7447.44
494.605	7408.53
494.808	7443.34
495.012	7447.44
495.215	7463.82
495.419	7469.97
495.622	7461.77
495.825	7568.27
496.029	7635.85
496.232	7685
496.436	7711.63
496.639	7945.09
496.843	7807.88
497.046	8235.91
497.249	8223.62
497.453	8258.43
497.656	8280.96
497.859	8272.77
498.063	8346.5
498.266	8629.12
498.469	8682.36
498.673	8967.03
498.876	8825.72
499.079	8813.43
499.282	8969.08
499.485	9261.94
499.689	9378.67
499.892	9450.35
500.095	9436.02
500.298	9685.87
500.501	9425.78
500.705	9775.98
500.908	9931.62
501.111	10029.93
501.314	10173.28
501.517	10226.53
501.72	10468.19
501.923	10380.13
502.126	10517.34
502.329	10820.44
502.532	10998.62
502.735	10933.08
502.938	11182.93
503.141	11383.63
503.344	11481.94
503.547	11438.93
503.75	11692.88
503.953	11703.12
504.156	11905.87
504.359	12057.42
504.562	12086.09
504.765	12571.46
504.968	12706.62
505.17	12823.36
505.373	12645.18
505.576	13060.92
505.779	13083.45
505.982	13480.75
506.185	13611.82
506.387	13644.59
506.59	14005.03
506.793	13910.83
506.996	14117.67
507.198	14471.97
507.401	14537.51
507.604	14750.49
507.807	15133.47
508.009	14902.04
508.212	15106.84
508.415	15534.87
508.617	15788.82
508.82	15966.99
509.022	15762.19
509.225	16194.31
509.428	16268.04
509.63	16302.86
509.833	16526.08
510.035	16825.09
510.238	16784.13
510.44	17384.18
510.643	17595.12
510.845	17799.92
511.048	17586.93
511.25	18197.23
511.453	18180.84
511.655	19094.24
511.858	18735.84
512.06	18895.58
512.262	19462.87
512.465	19270.36
512.667	19446.49
512.87	19745.49
513.072	19825.36
513.274	20368.07
513.477	20560.58
513.679	20572.87
513.881	20994.75
514.084	21328.57
514.286	21066.43
514.488	21365.43
514.69	22051.5
514.893	22143.66
515.095	22262.44
515.297	22586.02
515.499	22860.45
515.701	23032.48
515.904	23550.62
516.106	23618.2
516.308	23861.91
516.51	24169.1
516.712	24322.7
516.914	24459.91
517.116	25019.01
517.318	25051.78
517.52	25512.57
517.722	25606.78
517.925	25946.74
518.127	26268.27
518.329	26253.94
518.531	26063.47
518.733	26903.14
518.935	27058.79
519.136	27189.86
519.338	27886.17
519.54	28029.52
519.742	28306
519.944	28172.88
520.146	28953.16
520.348	28875.34
520.55	29370.94
520.752	29393.47
520.954	29583.93
521.155	29846.07
521.357	30048.82
521.559	30431.79
521.761	30868.01
521.963	30972.46
522.164	30994.98
522.366	31081
522.568	31355.43
522.77	31904.28
522.971	32139.8
523.173	32070.17
523.375	32479.76
523.576	32526.86
523.778	32299.54
523.98	32952.84
524.181	33337.86
524.383	33575.42
524.584	33417.73
524.786	33755.64
524.988	33581.57
525.189	34437.62
525.391	34275.83
525.592	34638.32
525.794	34712.05
525.995	34904.56
526.197	34869.74
526.398	35193.32
526.6	35559.91
526.801	35289.57
527.003	35437.03
527.204	35656.16
527.406	35815.9
527.607	36336.09
527.808	36336.09
528.01	35543.52
528.211	36348.37
528.412	36829.65
528.614	36725.2
528.815	36624.85
529.016	37212.62
529.218	36778.45
529.419	37079.5
529.62	36954.57
529.822	36835.79
530.023	37302.73
530.224	37485
530.425	37048.78
530.626	37566.91
530.828	37167.56
531.029	38105.53
531.23	37519.81
531.431	37697.98
531.632	38070.72
531.833	37792.19
532.035	37777.86
532.236	38003.13
532.437	38173.11
532.638	37794.24
532.839	38083
533.04	38136.25
533.241	38191.55
533.442	38748.59
533.643	38396.34
533.844	38085.05
534.045	38472.12
534.246	37994.94
534.447	38535.6
534.648	38175.16
534.849	38275.51
535.05	38613.43
535.251	38468.02
535.451	37886.4
535.652	38881.71
535.853	38470.07
536.054	38412.73
536.255	38715.83
536.456	38277.56
536.657	38719.92
536.857	38562.23
537.058	38326.71
537.259	38916.53
537.46	38433.21
537.66	38533.56
537.861	38756.78
538.062	38494.64
538.263	38588.85
538.463	38771.12
538.664	38078.91
538.865	38699.44
539.065	38787.5
539.266	38191.55
539.466	38863.28
539.667	38183.35
539.868	39238.06
540.068	39035.31
540.269	38480.31
540.469	38775.22
540.67	38486.45
540.87	38556.08
541.071	38334.9
541.271	38818.22
541.472	38730.16
541.672	38189.5
541.873	38455.73
542.073	37972.41
542.274	38818.22
542.474	38711.73
542.675	38422.97
542.875	38803.89
543.075	38425.01
543.276	38437.3
543.476	38848.94
543.676	38273.46
543.877	38734.26
544.077	38631.86
544.277	38654.39
544.478	38560.18
544.678	38668.72
544.878	38640.05
545.078	38572.47
545.279	38220.22
545.479	38330.81
545.679	38650.29
545.879	38412.73
546.079	38289.85
546.28	38298.04
546.48	38238.65
546.68	38347.19
546.88	38767.02
547.08	38633.91
547.28	38042.04
547.48	38367.67
547.68	38560.18
547.88	38429.11
548.081	38609.33
548.281	38613.43
548.481	38361.53
548.681	38683.06
548.881	38726.07
549.081	38412.73
549.28	38166.97
549.48	38648.24
549.68	38474.16
549.88	38590.9
550.08	38121.91
550.28	38885.81
550.48	38093.24
550.68	38513.08
550.88	37988.8
551.08	38339
551.279	38543.8
551.479	38140.35
551.679	38261.18
551.879	38488.5
552.079	38674.87
552.278	38228.41
552.478	38259.13
552.678	38490.55
552.878	38549.94
553.077	38158.78
553.277	37779.9
553.477	38717.87
553.676	37704.13
553.876	38214.07
554.076	37659.07
554.275	38318.52
554.475	37757.38
554.674	37890.49
554.874	37939.65
555.074	37673.41
555.273	38181.31
555.473	37921.21
555.672	38111.67
555.872	38115.77
556.071	37833.15
556.271	38240.7
556.47	37773.76
556.67	37411.27
556.869	37333.45
557.068	38134.2
557.268	37456.32
557.467	37597.63
557.667	37456.32
557.866	37218.76
558.065	37614.02
558.265	37204.42
558.464	37247.43
558.663	37564.87
558.863	36714.96
559.062	37718.46
559.261	36989.39
559.461	37525.96
559.66	36651.47
559.859	37241.29
560.058	36782.54
560.258	37218.76
560.457	36461.01
560.656	37155.27
560.855	36385.24
561.054	36684.24
561.253	36331.99
561.453	36796.88
561.652	37284.3
561.851	36663.76
562.05	36454.87
562.249	36350.42
562.448	36723.15
562.647	36692.43
562.846	36403.67
563.045	36663.76
563.244	35989.98
563.443	36487.64
563.642	35946.97
563.841	36229.59
564.04	35996.12
564.239	36377.04
564.438	35580.39
564.637	35899.87
564.836	35967.45
565.035	35760.61
565.234	35486.18
565.432	35187.18
565.631	35254.76
565.83	35854.81
566.029	35316.2
566.228	35520.99
566.427	35162.6
566.625	35074.54
566.824	34857.45
567.023	34861.55
567.222	34748.91
567.42	35217.89
567.619	34873.84
567.818	34847.21
568.016	34605.55
568.215	34873.84
568.414	34761.2
568.612	35273.19
568.811	34107.9
569.01	34484.72
569.208	34136.57
569.407	34400.76
569.605	33989.11
569.804	34341.36
570.002	33821.18
570.201	34161.14
570.4	33901.05
570.598	33749.5
570.797	33550.85
570.995	33892.86
571.193	33268.23
571.392	33737.21
571.59	33237.51
571.789	33235.46
571.987	33305.09
572.186	32844.3
572.384	33237.51
572.582	33313.28
572.781	32875.02
572.979	32604.69
573.177	32825.87
573.376	32866.83
573.574	32434.71
573.772	33008.14
573.971	32381.46
574.169	32272.92
574.367	31734.3
574.565	32358.93
574.763	31953.43
574.962	31857.18
575.16	31697.44
575.358	31797.79
575.556	31312.42
575.754	31797.79
575.952	31429.15
576.151	31660.57
576.349	30933.54
576.547	31298.08
576.745	31214.12
576.943	31201.83
577.141	30951.98
577.339	30915.11
577.537	30956.07
577.735	30655.02
577.933	30603.82
578.131	30921.26
578.329	30624.3
578.527	30200.37
578.725	30278.19
578.923	30274.1
579.121	30282.29
579.319	29895.22
579.516	30282.29
579.714	30263.86
579.912	29807.16
580.11	29567.55
580.308	30097.97
580.506	29534.78
580.704	29160
580.901	29463.1
581.099	29708.86
581.297	29002.31
581.495	29372.99
581.692	29389.38
581.89	28979.78
582.088	29215.3
582.285	28684.87
582.483	28760.65
582.681	28615.24
582.878	28645.96
583.076	28641.87
583.274	28447.31
583.471	28375.63
583.669	28420.69
583.866	28043.86
584.064	28768.84
584.262	28072.53
584.459	28209.75
584.657	27777.62
584.854	28129.87
585.052	27325.02
585.249	27763.29
585.447	27843.16
585.644	27703.9
585.841	27474.52
586.039	27732.57
586.236	27056.74
586.434	27134.56
586.631	27077.22
586.828	27071.07
587.026	26761.83
587.223	27155.04
587.42	26978.92
587.618	26913.38
587.815	26557.03
588.012	26675.82
588.21	26692.2
588.407	26819.17
588.604	26206.83
588.801	26129.01
588.999	26020.47
589.196	26176.11
589.393	26200.69
589.59	26096.24
589.787	25985.65
589.984	25834.1
590.182	25696.89
590.379	25834.1
590.576	25428.6
590.773	25684.6
590.97	25309.82
591.167	25735.8
591.364	25318.01
591.561	25205.38
591.758	24801.93
591.955	24875.65
592.152	25092.74
592.349	24783.49
592.546	24988.29
592.743	24892.04
592.94	24584.84
593.137	24887.94
593.334	24697.48
593.531	24330.89
593.727	24502.92
593.924	24355.47
594.121	24093.33
594.318	24531.59
594.515	23767.7
594.712	24107.66
594.908	23919.25
595.105	24081.04
595.302	23749.27
595.499	24189.58
595.696	23702.17
595.892	23384.73
596.089	23704.21
596.286	23722.65
596.482	23478.94
596.679	23405.21
596.876	23243.42
597.072	23173.79
597.269	23290.52
597.466	23247.52
597.662	23098.02
597.859	23175.84
598.055	23098.02
598.252	22938.27
598.448	22813.35
598.645	22737.57
598.841	22764.2
599.038	22887.07
599.234	22452.91
599.431	22317.74
599.627	22348.46
599.824	22680.23
600.02	22235.82
600.217	22299.31
600.413	22076.08
600.609	22090.41
600.806	22069.94
601.002	22098.61
601.198	21908.15
601.395	21953.2
601.591	21809.84
601.787	21506.74
601.984	21494.46
602.18	21547.7
602.376	21316.28
602.572	21164.73
602.769	21394.11
602.965	21283.52
603.161	21443.26
603.357	21060.29
603.553	20853.44
603.75	21146.3
603.946	20716.23
604.142	20753.09
604.338	20425.42
604.534	20501.19
604.73	20681.41
604.926	20392.65
605.122	20712.13
605.318	20437.7
605.514	20148.94
605.71	20173.52
605.906	20396.74
606.102	20116.17
606.298	19976.91
606.494	19911.38
606.69	20120.27
606.886	20183.76
607.082	19546.84
607.278	19673.81
607.474	19761.87
607.67	19827.41
607.866	19344.09
608.062	19743.44
608.257	19507.93
608.453	19503.83
608.649	19460.82
608.845	19391.19
609.041	19434.2
609.236	19448.54
609.432	19309.27
609.628	19149.53
609.824	19167.96
610.019	18871.01
610.215	19081.95
610.411	19190.49
610.606	18793.19
610.802	18727.65
610.998	18799.33
611.193	18666.21
611.389	18672.36
611.584	18373.35
611.78	18442.98
611.976	18438.89
612.171	18504.42
612.367	18301.67
612.562	18387.69
612.758	17957.61
612.953	18203.37
613.149	18336.49
613.344	17740.53
613.539	18232.04
613.735	18250.47
613.93	18033.39
614.126	17963.76
614.321	17795.82
614.517	17953.52
614.712	17914.61
614.907	17842.93
615.103	18045.68
615.298	17525.49
615.493	17646.32
615.688	17275.64
615.884	17480.44
616.079	17292.02
616.274	17621.75
616.47	17441.53
616.665	17285.88
616.86	17273.59
617.055	17134.33
617.25	17308.41
617.445	17081.08
617.641	16978.68
617.836	17070.84
618.031	16730.88
618.226	16978.68
618.421	16849.66
618.616	16966.4
618.811	16577.28
619.006	16798.46
619.201	16220.94
619.396	16730.88
619.591	16317.19
619.786	16403.21
619.981	16417.54
620.176	16509.7
620.371	15995.66
620.566	16059.15
620.761	15897.36
620.956	16222.98
621.151	15698.7
621.346	15971.08
621.541	15674.13
621.735	16077.58
621.93	15510.29
622.125	15643.41
622.32	15282.97
622.515	15442.71
622.709	15328.02
622.904	15000.35
623.099	15084.31
623.294	15022.87
623.488	14928.67
623.683	15117.08
623.878	14666.53
624.072	14779.17
624.267	14738.21
624.462	14656.29
624.656	14338.85
624.851	14312.23
625.046	14244.65
625.24	14287.65
625.435	13904.68
625.629	14062.38
625.824	14060.33
626.018	14318.37
626.213	13755.18
626.407	13785.9
626.602	13572.91
626.796	13824.81
626.991	13474.61
627.185	13435.7
627.38	13402.93
627.574	13294.39
627.768	13122.36
627.963	13312.82
628.157	12874.56
628.352	13085.5
628.546	12731.2
628.74	12991.29
628.935	13003.58
629.129	13024.06
629.323	12788.54
629.517	12669.76
629.712	12610.37
629.906	12546.88
630.1	12454.72
630.294	12309.32
630.489	12368.71
630.683	12219.21
630.877	12026.7
631.071	12059.46
631.265	12192.58
631.459	11836.24
631.653	11879.24
631.848	11973.45
632.042	11699.02
632.236	11686.73
632.43	11789.13
632.624	11750.22
632.818	11684.69
633.012	11332.44
633.206	11514.7
633.4	11541.33
633.594	11240.28
633.788	11357.01
633.982	11227.99
634.176	11094.87
634.369	11107.16
634.563	11105.11
634.757	11230.04
634.951	10877.79
635.145	11201.37
635.339	10918.75
635.533	10888.03
635.726	10818.39
635.92	10517.34
636.114	10527.58
636.308	10713.95
636.501	10568.54
636.695	10470.24
636.889	10517.34
637.083	10359.65
637.276	10257.25
637.47	10251.11
637.664	10230.63
637.857	10201.96
638.051	10087.27
638.244	10181.48
638.438	10058.6
638.632	9999.21
638.825	9886.57
639.019	9974.63
639.212	9649
639.406	9644.91
639.599	9714.54
639.793	9708.4
639.986	9513.84
640.18	9503.6
640.373	9509.74
640.567	9321.33
640.76	9315.19
640.954	9302.9
641.147	9229.17
641.34	9384.82
641.534	9036.66
641.727	9388.91
641.92	8938.36
642.114	8774.52
642.307	9034.61
642.5	8987.51
642.694	8780.67
642.887	8811.39
643.08	8815.48
643.273	8602.49
643.467	8723.32
643.66	8573.82
643.853	8696.7
644.046	8461.18
644.239	8524.67
644.432	8414.08
644.626	8348.54
644.819	8043.4
645.012	8219.52
645.205	8125.32
645.398	8162.18
645.591	8235.91
645.784	7910.28
645.977	7998.34
646.17	7783.31
646.363	7893.9
646.556	7625.61
646.749	7717.77
646.942	7666.57
647.135	7500.69
647.328	7771.02
647.521	7642
647.714	7429.01
647.907	7547.79
648.099	7543.69
648.292	7261.07
648.485	7478.16
648.678	7207.83
648.871	7308.18
649.064	7050.13
649.256	7269.27
649.449	7177.11
649.642	7060.37
649.835	6900.63
650.027	6955.93
650.22	6867.86
650.413	6980.5
650.605	6910.87
650.798	6890.39
650.991	6783.9
651.183	6812.57
651.376	6747.03
651.568	6611.87
651.761	6869.91
651.954	6628.25
652.146	6536.09
652.339	6538.14
652.531	6441.89
652.724	6411.17
652.916	6261.66
653.109	6423.45
653.301	6235.04
653.494	6212.51
653.686	6378.4
653.879	6232.99
654.071	6036.39
654.263	6202.27
654.456	6001.57
654.648	6124.45
654.84	5954.47
655.033	5956.52
655.225	5907.37
655.417	5880.74
655.61	5872.55
655.802	5743.53
655.994	5804.97
656.186	5757.86
656.379	5800.87
656.571	5649.32
656.763	5714.86
656.955	5483.44
657.148	5548.97
657.34	5391.28
657.532	5632.94
657.724	5411.76
657.916	5409.71
658.108	5456.81
658.3	5342.13
658.492	5223.34
658.684	5153.71
658.876	5149.62
659.068	5297.07
659.26	5196.72
659.452	5254.06
659.644	5194.67
659.836	5227.44
660.028	4996.02
660.22	4907.96
660.412	5014.45
660.604	4928.44
660.796	4817.85
660.988	4879.29
661.18	4756.41
661.372	4840.37
661.563	4776.89
661.755	4891.57
661.947	4613.05
662.139	4604.86
662.331	4619.19
662.522	4625.34
662.714	4633.53
662.906	4588.47
663.097	4615.1
663.289	4502.46
663.481	4494.27
663.673	4541.37
663.864	4408.25
664.056	4334.53
664.247	4475.84
664.439	4389.82
664.631	4348.86
664.822	4352.96
665.014	4434.88
665.205	4332.48
665.397	4109.25
665.588	4228.03
665.78	4201.41
665.971	4103.11
666.163	3976.13
666.354	3976.13
666.546	3969.99
666.737	4019.14
666.929	4084.67
667.12	4015.04
667.311	3851.21
667.503	3945.41
667.694	3924.93
667.885	3851.21
668.077	3826.63
668.268	3949.51
668.459	3840.97
668.651	3761.09
668.842	3795.91
669.033	3804.1
669.224	3769.29
669.416	3640.26
669.607	3703.75
669.798	3642.31
669.989	3664.84
670.18	3589.07
670.371	3658.7
670.563	3621.83
670.754	3679.18
670.945	3398.6
671.136	3480.52
671.327	3564.49
671.518	3441.61
671.709	3458
671.9	3533.77
672.091	3482.57
672.282	3509.19
672.473	3496.91
672.664	3294.16
672.855	3468.24
673.046	3537.87
673.237	3492.81
673.428	3341.26
673.619	3408.84
673.809	3308.49
674	3296.21
674.191	3314.64
674.382	3197.9
674.573	3353.55
674.764	3150.8
674.954	3288.01
675.145	3232.72
675.336	3197.9
675.527	3288.01
675.717	3234.77
675.908	3109.84
676.099	3304.4
676.289	3189.71
676.48	3285.97
676.671	3181.52
676.861	3199.95
677.052	3148.75
677.243	3021.78
677.433	3007.44
677.624	3150.8
677.814	3032.02
678.005	3079.12
678.195	3089.36
678.386	2933.72
678.576	3015.63
678.767	2870.23
678.957	2978.77
679.148	3003.35
679.338	3025.87
679.529	2946
679.719	2886.61
679.909	3118.03
680.1	2903
680.29	3044.31
680.481	2909.14
680.671	2849.75
680.861	2995.15
681.052	2900.95
681.242	2753.49
681.432	2991.06
681.622	2946
681.813	2876.37
682.003	2941.91
682.193	2839.51
682.383	3007.44
682.573	2933.72
682.764	2950.1
682.954	2921.43
683.144	2933.72
683.334	2913.24
683.524	2886.61
683.714	2827.22
683.904	2788.31
684.094	2792.41
684.284	2851.8
684.474	2864.08
684.664	2896.85
684.854	2661.34
685.044	2847.7
685.234	2796.5
685.424	2755.54
685.614	2694.1
685.804	2810.84
685.994	2845.65
686.184	2765.78
686.374	2812.89
686.564	2827.22
686.753	2823.12
686.943	2747.35
687.133	2692.05
687.323	2716.63
687.513	2798.55
687.702	2810.84
687.892	2706.39
688.082	2804.69
688.272	2773.97
688.461	2630.62
688.651	2685.91
688.841	2712.53
689.03	2690.01
689.22	2692.05
689.41	2767.83
689.599	2681.82
689.789	2812.89
689.979	2552.79
690.168	2661.34
690.358	2741.21
690.547	2651.1
690.737	2712.53
690.926	2708.44
691.116	2702.29
691.305	2687.96
691.495	2690.01
691.684	2593.75
691.874	2712.53
692.063	2720.73
692.252	2649.05
692.442	2773.97
692.631	2647
692.82	2599.9
693.01	2659.29
693.199	2733.01
693.388	2690.01
693.578	2757.59
693.767	2679.77
693.956	2499.55
694.146	2694.1
694.335	2655.19
694.524	2655.19
694.713	2638.81
694.902	2601.94
695.092	2739.16
695.281	2620.38
695.47	2786.26
695.659	2634.71
695.848	2612.18
696.037	2558.94
696.226	2618.33
696.415	2550.75
696.604	2647
696.793	2632.66
696.982	2454.49
697.171	2669.53
697.36	2550.75
697.549	2679.77
697.738	2595.8
697.927	2640.86
698.116	2593.75
698.305	2524.12
698.494	2472.92
698.683	2663.38
698.872	2577.37
699.061	2626.52
699.25	2565.08
699.438	2655.19
699.627	2417.63
699.816	2632.66
700.005	2515.93
700.193	2565.08
700.382	2544.6
700.571	2434.01
700.76	2591.7
700.948	2610.14
701.137	2593.75
701.326	2470.87
701.514	2487.26
701.703	2577.37
701.892	2520.03
702.08	2560.98
702.269	2558.94
702.457	2477.02
702.646	2470.87
702.834	2489.31
703.023	2474.97
703.212	2511.83
703.4	2583.51
703.589	2438.11
703.777	2493.4
703.965	2528.22
704.154	2415.58
704.342	2438.11
704.531	2522.07
704.719	2362.33
704.907	2304.99
705.096	2329.56
705.284	2329.56
705.472	2317.28
705.661	2360.28
705.849	2272.22
706.037	2341.85
706.226	2380.76
706.414	2386.91
706.602	2272.22
706.79	2331.61
706.979	2440.15
707.167	2364.38
707.355	2370.52
707.543	2360.28
707.731	2253.79
707.919	2335.71
708.107	2427.87
708.296	2257.89
708.484	2286.56
708.672	2229.21
708.86	2366.43
709.048	2216.93
709.236	2110.43
709.424	2089.95
709.612	2188.25
709.8	2231.26
709.988	2126.82
710.176	2200.54
710.364	2159.58
710.551	2208.73
710.739	2143.2
710.927	2116.58
711.115	2071.52
711.303	2143.2
711.491	2116.58
711.679	2083.81
711.866	2067.42
712.054	2089.95
712.242	2022.37
712.43	2067.42
712.617	2071.52
712.805	1999.84
712.993	2065.38
713.181	1962.98
713.368	1977.31
713.556	2022.37
713.744	2022.37
713.931	2067.42
714.119	1975.27
714.306	2048.99
714.494	2055.14
714.682	2016.23
714.869	1868.77
715.057	1940.45
715.244	1999.84
715.432	1883.11
715.619	2046.94
715.807	1946.59
715.994	1879.01
716.182	1854.44
716.369	1903.59
716.556	1856.48
716.744	1846.24
716.931	1907.68
717.119	1874.92
717.306	1889.25
717.493	1782.76
717.681	1819.62
717.868	1786.85
718.055	1745.89
718.242	1778.66
718.43	1733.61
718.617	1741.8
718.804	1774.56
718.991	1764.33
719.179	1762.28
719.366	1848.29
719.553	1721.32
719.74	1823.72
719.927	1639.4
720.114	1676.26
720.301	1780.71
720.488	1657.83
720.676	1688.55
720.863	1819.62
721.05	1588.2
721.237	1575.91
721.424	1539.05
721.611	1741.8
721.798	1698.79
721.985	1623.02
722.172	1594.34
722.358	1698.79
722.545	1563.62
722.732	1620.97
722.919	1729.51
723.106	1651.69
723.293	1573.86
723.48	1612.78
723.667	1547.24
723.853	1582.06
724.04	1594.34
724.227	1475.56
724.414	1489.9
724.6	1549.29
724.787	1534.95
724.974	1620.97
725.161	1604.58
725.347	1448.94
725.534	1498.09
725.72	1559.53
725.907	1600.49
726.094	1412.07
726.28	1526.76
726.467	1397.74
726.653	1508.33
726.84	1500.14
727.027	1455.08
727.213	1487.85
727.4	1491.95
727.586	1481.71
727.773	1430.51
727.959	1539.05
728.145	1444.84
728.332	1434.6
728.518	1375.21
728.705	1356.78
728.891	1467.37
729.077	1371.12
729.264	1477.61
729.45	1403.88
729.636	1276.91
729.823	1397.74
730.009	1393.64
730.195	1395.69
730.382	1352.68
730.568	1264.62
730.754	1342.44
730.94	1344.49
731.126	1412.07
731.313	1360.88
731.499	1328.11
731.685	1264.62
731.871	1291.24
732.057	1371.12
732.243	1330.16
732.429	1252.33
732.615	1344.49
732.801	1299.44
732.987	1426.41
733.173	1266.67
733.359	1299.44
733.545	1297.39
733.731	1213.42
733.917	1285.1
734.103	1266.67
734.289	1201.13
734.475	1254.38
734.661	1311.72
734.847	1252.33
735.033	1268.72
735.219	1180.65
735.404	1166.32
735.59	1258.48
735.776	1135.6
735.962	1281
736.148	1147.89
736.333	1291.24
736.519	1244.14
736.705	1133.55
736.89	1151.98
737.076	1174.51
737.262	1131.5
737.447	1143.79
737.633	1100.78
737.819	1188.85
738.004	1055.73
738.19	1129.45
738.375	1172.46
738.561	1121.26
738.747	1133.55
738.932	1149.93
739.118	1180.65
739.303	1111.02
739.489	1041.39
739.674	1043.44
739.859	1117.17
740.045	1123.31
740.23	1119.21
740.416	1113.07
740.601	1127.41
740.786	1135.6
740.972	1025.01
741.157	1016.82
741.342	1088.5
741.528	967.67
741.713	1094.64
741.898	1041.39
742.084	1043.44
742.269	1086.45
742.454	1074.16
742.639	1078.26
742.824	1090.54
743.01	1022.96
743.195	990.19
743.38	1055.73
743.565	1008.62
743.75	990.19
743.935	1000.43
744.12	1037.3
744.305	994.29
744.49	975.86
744.675	969.71
744.86	926.71
745.045	904.18
745.23	957.43
745.415	881.65
745.6	1025.01
745.785	963.57
745.97	902.13
746.155	988.14
746.34	996.34
746.525	930.8
746.71	994.29
746.895	943.09
747.079	877.55
747.264	912.37
747.449	848.88
747.634	887.79
747.819	859.12
748.003	779.25
748.188	863.22
748.373	924.66
748.557	875.51
748.742	963.57
748.927	889.84
749.111	855.03
749.296	844.79
749.481	891.89
749.665	838.64
749.85	736.24
750.034	803.83
750.219	787.44
750.404	766.96
750.588	824.31
750.773	742.39
750.957	750.58
751.141	752.63
751.326	769.01
751.51	750.58
751.695	674.81
751.879	832.5
752.064	816.12
752.248	762.87
752.432	828.4
752.617	822.26
752.801	777.2
752.985	713.72
753.17	713.72
753.354	723.96
753.538	777.2
753.722	744.44
753.907	711.67
754.091	723.96
754.275	736.24
754.459	711.67
754.643	713.72
754.828	695.29
755.012	701.43
755.196	683
755.38	658.42
755.564	707.57
755.748	689.14
755.932	723.96
756.116	635.89
756.3	693.24
756.484	568.31
756.668	658.42
756.852	656.37
757.036	584.7
757.22	615.41
757.404	617.46
757.588	668.66
757.772	683
757.956	738.29
758.14	572.41
758.323	607.22
758.507	623.61
758.691	648.18
758.875	605.17
759.059	592.89
759.242	553.98
759.426	611.32
759.61	562.17
759.794	551.93
759.977	570.36
760.161	623.61
760.345	635.89
760.528	502.78
760.712	568.31
760.895	570.36
761.079	572.41
761.263	576.5
761.446	594.93
761.63	541.69
761.813	529.4
761.997	478.2
762.18	461.82
762.364	527.35
762.547	527.35
762.731	576.5
762.914	500.73
763.098	580.6
763.281	465.91
763.464	547.83
763.648	508.92
763.831	525.3
764.015	572.41
764.198	490.49
764.381	517.11
764.564	584.7
764.748	515.06
764.931	496.63
765.114	496.63
765.297	513.02
765.481	418.81
765.664	488.44
765.847	455.67
766.03	457.72
766.213	515.06
766.397	527.35
766.58	541.69
766.763	500.73
766.946	506.87
767.129	488.44
767.312	494.58
767.495	470.01
767.678	492.54
767.861	420.86
768.044	455.67
768.227	517.11
768.41	502.78
768.593	529.4
768.776	504.82
768.959	527.35
769.142	431.1
769.324	427
769.507	496.63
769.69	435.19
769.873	449.53
770.056	488.44
770.239	445.43
770.421	420.86
770.604	461.82
770.787	404.47
770.97	441.34
771.152	410.62
771.335	515.06
771.518	443.39
771.7	410.62
771.883	510.97
772.066	451.58
772.248	379.9
772.431	433.15
772.613	420.86
772.796	420.86
772.978	420.86
773.161	459.77
773.343	470.01
773.526	465.91
773.708	369.66
773.891	398.33
774.073	470.01
774.256	398.33
774.438	396.28
774.621	324.6
774.803	451.58
774.985	386.04
775.168	408.57
775.35	369.66
775.532	390.14
775.715	410.62
775.897	394.23
776.079	443.39
776.261	412.67
776.444	365.56
776.626	357.37
776.808	371.71
776.99	320.51
777.173	449.53
777.355	373.75
777.537	363.51
777.719	326.65
777.901	394.23
778.083	379.9
778.265	369.66
778.447	427
778.629	406.52
778.811	338.94
778.993	377.85
779.175	336.89
779.357	340.99
779.539	377.85
779.721	343.03
779.903	357.37
780.085	293.88
780.267	361.47
780.449	322.56
780.631	336.89
780.812	279.55
780.994	289.79
781.176	306.17
781.358	361.47
781.54	381.95
781.721	361.47
781.903	320.51
782.085	304.12
782.267	353.27
782.448	314.36
782.63	281.6
782.812	248.83
782.993	326.65
783.175	326.65
783.357	338.94
783.538	234.49
783.72	281.6
783.901	347.13
784.083	308.22
784.264	287.74
784.446	273.4
784.627	234.49
784.809	289.79
784.99	254.97
785.172	277.5
785.353	269.31
785.535	312.32
785.716	279.55
785.897	336.89
786.079	265.21
786.26	185.34
786.441	216.06
786.623	189.44
786.804	242.68
786.985	267.26
787.167	302.08
787.348	314.36
787.529	267.26
787.71	195.58
787.891	244.73
788.073	275.45
788.254	265.21
788.435	308.22
788.616	261.12
788.797	240.64
788.978	232.44
789.159	203.77
789.34	263.16
789.522	189.44
789.703	230.4
789.884	287.74
790.065	248.83
790.246	324.6
790.427	193.53
790.607	228.35
790.788	158.72
790.969	187.39
791.15	146.43
791.331	152.57
791.512	275.45
791.693	252.92
791.874	254.97
792.054	150.53
792.235	183.29
792.416	187.39
792.597	183.29
792.778	193.53
792.958	234.49
793.139	152.57
793.32	240.64
793.5	162.81
793.681	156.67
793.862	191.49
794.042	166.91
794.223	154.62
794.404	236.54
794.584	130.05
794.765	203.77
794.945	211.96
795.126	234.49
795.306	164.86
795.487	189.44
795.667	150.53
795.848	158.72
796.028	158.72
796.209	168.96
796.389	199.68
796.57	130.05
796.75	140.29
796.93	171.01
797.111	148.48
797.291	191.49
797.471	132.09
797.652	140.29
797.832	117.76
798.012	152.57
798.192	144.38
798.373	125.95
798.553	130.05
798.733	144.38
798.913	121.85
799.093	142.33
799.274	211.96
799.454	189.44
799.634	160.77
799.814	218.11
799.994	144.38
800.174	76.8
800.354	164.86
800.534	130.05
800.714	148.48
800.894	95.23
801.074	134.14
801.254	101.37
801.434	91.13
801.614	168.96
801.794	111.61
801.974	447.48
802.154	150.53
802.334	164.86
802.514	109.57
802.693	119.81
802.873	97.28
803.053	103.42
803.233	105.47
803.413	107.52
803.592	177.15
803.772	93.18
803.952	72.7
804.131	132.09
804.311	181.25
804.491	125.95
804.67	97.28
804.85	177.15
805.03	193.53
805.209	132.09
805.389	197.63
805.568	211.96
805.748	115.71
805.928	87.04
806.107	121.85
806.287	107.52
806.466	138.24
806.646	189.44
806.825	134.14
807.004	107.52
807.184	144.38
807.363	130.05
807.543	103.42
807.722	37.89
807.901	187.39
808.081	189.44
808.26	60.42
808.439	99.33
808.619	101.37
808.798	156.67
808.977	154.62
809.156	191.49
809.336	183.29
809.515	111.61
809.694	70.65
809.873	150.53
810.052	44.03
810.231	123.9
810.411	121.85
810.59	105.47
810.769	117.76
810.948	58.37
811.127	140.29
811.306	123.9
811.485	91.13
811.664	150.53
811.843	48.13
812.022	87.04
812.201	87.04
812.38	154.62
812.559	68.61
812.737	111.61
812.916	82.94
813.095	82.94
813.274	62.46
813.453	68.61
813.632	76.8
813.811	117.76
813.989	109.57
814.168	101.37
814.347	39.94
814.526	87.04
814.704	99.33
814.883	171.01
815.062	99.33
815.24	105.47
815.419	33.79
815.598	97.28
815.776	125.95
815.955	27.65
816.133	58.37
816.312	72.7
816.49	115.71
816.669	121.85
816.847	87.04
817.026	99.33
817.204	54.27
817.383	93.18
817.561	134.14
817.74	84.99
817.918	50.18
818.097	25.6
818.275	99.33
818.453	121.85
818.632	68.61
818.81	76.8
818.988	89.09
819.167	50.18
819.345	76.8
819.523	25.6
819.701	60.42
819.879	156.67
820.058	87.04
820.236	64.51
820.414	97.28
820.592	99.33
820.77	121.85
820.948	136.19
821.127	41.98
821.305	35.84
821.483	130.05
821.661	56.32
821.839	158.72
822.017	99.33
822.195	17.41
822.373	123.9
822.551	9.22
822.729	37.89
822.907	46.08
823.085	41.98
823.262	76.8
823.44	109.57
823.618	107.52
823.796	103.42
823.974	56.32
824.152	123.9
824.329	41.98
824.507	119.81
824.685	46.08
824.863	60.42
825.04	132.09
825.218	70.65
825.396	87.04
825.574	68.61
825.751	58.37
825.929	21.5
826.107	101.37
826.284	31.74
826.462	54.27
826.639	60.42
826.817	91.13
826.994	37.89
827.172	107.52
827.349	107.52
827.527	74.75
827.704	121.85
827.882	-11.26
828.059	68.61
828.237	-5.12
828.414	78.85
828.591	11.26
828.769	50.18
828.946	5.12
829.124	74.75
829.301	156.67
829.478	66.56
829.655	97.28
829.833	82.94
830.01	9.22
830.187	87.04
830.364	50.18
830.542	93.18
830.719	107.52
830.896	48.13
831.073	31.74
831.25	91.13
831.427	58.37
831.604	13.31
831.782	68.61
831.959	23.55
832.136	-5.12
832.313	58.37
832.49	25.6
832.667	68.61
832.844	68.61
833.021	41.98
833.198	50.18
833.374	76.8
833.551	37.89
833.728	50.18
833.905	25.6
834.082	62.46
834.259	111.61
834.436	93.18
834.612	44.03
834.789	54.27
834.966	-23.55
835.143	48.13
835.319	46.08
835.496	44.03
835.673	48.13
835.85	68.61
836.026	50.18
836.203	11.26
836.38	52.22
836.556	82.94
836.733	62.46
836.909	103.42
837.086	5.12
837.262	9.22
837.439	7.17
837.616	19.46
837.792	70.65
837.968	54.27
838.145	11.26
838.321	25.6
838.498	99.33
838.674	66.56
838.851	52.22
839.027	80.89
839.203	50.18
839.38	41.98
839.556	111.61
839.732	117.76
839.909	25.6
840.085	58.37
840.261	87.04
840.437	99.33
840.614	58.37
840.79	68.61
840.966	21.5
841.142	99.33
841.318	74.75
841.494	21.5
841.671	15.36
841.847	60.42
842.023	66.56
842.199	13.31
842.375	25.6
842.551	52.22
842.727	25.6
842.903	76.8
843.079	52.22
843.255	41.98
843.431	-3.07
843.607	56.32
843.783	13.31
843.959	76.8
844.134	9.22
844.31	74.75
844.486	66.56
844.662	-9.22
844.838	-46.08
845.013	58.37
845.189	44.03
845.365	29.7
845.541	-27.65
845.716	62.46
845.892	15.36
846.068	39.94
846.244	103.42
846.419	41.98
846.595	44.03
846.77	101.37
846.946	1.02
847.122	101.37
847.297	80.89
847.473	41.98
847.648	-23.55
847.824	82.94
847.999	84.99
848.175	74.75
848.35	27.65
848.526	39.94
848.701	37.89
848.876	11.26
849.052	99.33
849.227	60.42
849.403	58.37
849.578	-31.74
849.753	-11.26
849.929	-46.08
850.104	15.36
850.279	33.79
850.454	-19.46
850.63	121.85
850.805	-23.55
850.98	62.46
851.155	97.28
851.33	91.13
851.505	-3.07
851.681	29.7
851.856	58.37
852.031	52.22
852.206	-23.55
852.381	64.51
852.556	62.46
852.731	3.07
852.906	60.42
853.081	58.37
853.256	37.89
853.431	1.02
853.606	29.7
853.781	-58.37
853.956	19.46
854.131	74.75
854.305	19.46
854.48	19.46
854.655	-11.26
854.83	-52.22
855.005	-1.02
855.18	82.94
855.354	89.09
855.529	109.57
855.704	3.07
855.879	27.65
856.053	-15.36
856.228	17.41
856.403	27.65
856.577	3.07
856.752	21.5
856.926	-13.31
857.101	89.09
857.276	11.26
857.45	25.6
857.625	74.75
857.799	25.6
857.974	19.46
858.148	93.18
858.323	50.18
858.497	-35.84
858.672	64.51
858.846	56.32
859.02	9.22
859.195	46.08
859.369	52.22
859.543	50.18
859.718	11.26
859.892	13.31
860.066	82.94
860.241	58.37
860.415	58.37
860.589	11.26
860.763	58.37
860.938	23.55
861.112	89.09
861.286	78.85
861.46	35.84
861.634	-17.41
861.808	117.76
861.982	84.99
862.157	-13.31
862.331	29.7
862.505	31.74
862.679	-48.13
862.853	62.46
863.027	60.42
863.201	97.28
863.375	3.07
863.549	48.13
863.722	56.32
863.896	-35.84
864.07	27.65
864.244	19.46
864.418	3.07
864.592	95.23
864.766	31.74
864.939	37.89
865.113	74.75
865.287	13.31
865.461	29.7
865.634	33.79
865.808	31.74
865.982	121.85
866.156	-46.08
866.329	50.18
866.503	21.5
866.676	52.22
866.85	-29.7
867.024	9.22
867.197	78.85
867.371	97.28
867.544	3.07
867.718	41.98
867.891	58.37
868.065	41.98
868.238	-1.02
868.412	-9.22
868.585	19.46
868.759	41.98
868.932	54.27
869.105	13.31
869.279	-5.12
869.452	35.84
869.625	5.12
869.799	48.13
869.972	58.37
870.145	68.61
870.319	-23.55
870.492	76.8
870.665	-3.07
870.838	-54.27
871.011	-31.74
871.185	33.79
871.358	11.26
871.531	35.84
871.704	58.37
871.877	1.02
872.05	-19.46
872.223	44.03
872.396	-48.13
872.569	3.07
872.742	25.6
872.915	-33.79
873.088	33.79
873.261	3.07
873.434	31.74
873.607	33.79
873.78	44.03
873.953	21.5
874.126	23.55
874.299	37.89
874.471	13.31
874.644	48.13
874.817	-76.8
874.99	80.89
875.163	19.46
875.335	58.37
875.508	-17.41
875.681	1.02
875.853	68.61
876.026	64.51
876.199	9.22
876.371	-25.6
876.544	25.6
876.717	-23.55
876.889	56.32
877.062	-5.12
877.234	9.22
877.407	-11.26
877.579	-33.79
877.752	78.85
877.924	54.27
878.097	-15.36
878.269	-31.74
878.442	9.22
878.614	31.74
878.786	-41.98
878.959	21.5
879.131	15.36
879.303	52.22
879.476	27.65
879.648	48.13
879.82	13.31
879.993	54.27
880.165	35.84
880.337	-13.31
880.509	-15.36
880.681	19.46
880.854	13.31
881.026	-41.98
881.198	46.08
881.37	33.79
881.542	41.98
881.714	21.5
881.886	56.32
882.058	41.98
882.23	33.79
882.402	44.03
882.574	5.12
882.746	-23.55
882.918	82.94
883.09	-41.98
883.262	44.03
883.434	-46.08
883.606	1.02
883.778	27.65
883.95	29.7
884.122	-60.42
884.293	-23.55
884.465	33.79
884.637	46.08
884.809	-13.31
884.98	21.5
885.152	19.46
885.324	-15.36
885.496	-15.36
885.667	-11.26
885.839	-31.74
886.011	17.41
886.182	-70.65
886.354	23.55
886.525	-9.22
886.697	35.84
886.869	1.02
887.04	41.98
887.212	56.32
887.383	-3.07
887.555	23.55
887.726	29.7
887.897	31.74
888.069	27.65
888.24	68.61
888.412	70.65
888.583	5.12
888.754	68.61
888.926	68.61
889.097	39.94
889.268	-11.26
889.44	9.22
889.611	44.03
889.782	-44.03
889.953	-29.7
890.125	91.13
890.296	48.13
890.467	-11.26
890.638	3.07
890.809	11.26
890.98	-7.17
891.151	23.55
891.323	31.74
891.494	-1.02
891.665	54.27
891.836	41.98
892.007	-31.74
892.178	-54.27
892.349	-37.89
892.52	41.98
892.691	-37.89
892.862	56.32
893.032	41.98
893.203	52.22
893.374	-17.41
893.545	29.7
893.716	31.74
893.887	44.03
894.057	56.32
894.228	37.89
894.399	52.22
894.57	-39.94
894.74	-21.5
894.911	21.5
895.082	66.56
895.253	-3.07
895.423	1.02
895.594	21.5
895.764	31.74
895.935	-19.46
896.106	58.37
896.276	46.08
896.447	23.55
896.617	1.02
896.788	-11.26
896.958	39.94
897.129	-19.46
897.299	60.42
897.47	50.18
897.64	-19.46
897.81	19.46
897.981	31.74
898.151	44.03
898.322	37.89
898.492	19.46
898.662	41.98
898.832	23.55
899.003	-15.36
899.173	11.26
899.343	78.85
899.513	15.36
