Data from USB4F104151__4__13-52-06-586.txt Node

Date: Thu Mar 13 13:52:06 EDT 2025
User: louis
Spectrometer: USB4F10415
Trigger mode: 4
Integration Time (sec): 1.000000E-2
Scans to average: 1
Electric dark correction enabled: true
Nonlinearity correction enabled: false
Boxcar width: 0
XAxis mode: Wavelengths
Number of Pixels in Spectrum: 3648
>>>>>Begin Spectral Data<<<<<
178.204	-57.34
178.424	-57.34
178.644	-57.34
178.864	-10.24
179.084	-32.77
179.304	26.62
179.524	26.62
179.744	12.29
179.964	-26.62
180.184	-28.67
180.404	10.24
180.624	-26.62
180.844	-6.14
181.064	12.29
181.283	28.67
181.503	-4.1
181.723	-24.58
181.943	-24.58
182.163	-8.19
182.383	-32.77
182.602	20.48
182.822	-20.48
183.042	22.53
183.262	-14.34
183.482	98.3
183.701	-18.43
183.921	32.77
184.141	-18.43
184.361	61.44
184.58	49.15
184.8	26.62
185.02	43.01
185.239	63.49
185.459	14.34
185.679	45.06
185.898	-61.44
186.118	-43.01
186.338	59.39
186.557	4.1
186.777	34.82
186.997	-43.01
187.216	30.72
187.436	43.01
187.655	-38.91
187.875	-40.96
188.095	-8.19
188.314	114.69
188.534	20.48
188.753	4.1
188.973	100.35
189.192	8.19
189.412	38.91
189.631	14.34
189.851	71.68
190.07	43.01
190.29	12.29
190.509	69.63
190.729	26.62
190.948	49.15
191.168	122.88
191.387	10.24
191.607	4.1
191.826	22.53
192.045	2.05
192.265	-45.06
192.484	-14.34
192.704	12.29
192.923	32.77
193.142	45.06
193.362	30.72
193.581	-4.1
193.8	69.63
194.02	36.86
194.239	26.62
194.458	79.87
194.678	14.34
194.897	47.1
195.116	12.29
195.335	26.62
195.555	83.97
195.774	26.62
195.993	49.15
196.212	51.2
196.432	92.16
196.651	-26.62
196.87	14.34
197.089	43.01
197.308	6.14
197.528	81.92
197.747	73.73
197.966	-2.05
198.185	18.43
198.404	26.62
198.623	49.15
198.842	65.53
199.062	6.14
199.281	43.01
199.5	16.38
199.719	28.67
199.938	57.34
200.157	20.48
200.376	24.58
200.595	45.06
200.814	43.01
201.033	-8.19
201.252	53.25
201.471	-8.19
201.69	118.78
201.909	104.45
202.128	-20.48
202.347	53.25
202.566	4.1
202.785	0
203.004	32.77
203.223	49.15
203.442	30.72
203.661	-26.62
203.879	6.14
204.098	86.01
204.317	73.73
204.536	20.48
204.755	14.34
204.974	26.62
205.193	-10.24
205.411	32.77
205.63	65.53
205.849	102.4
206.068	34.82
206.287	24.58
206.505	0
206.724	16.38
206.943	-14.34
207.162	-8.19
207.381	65.53
207.599	28.67
207.818	45.06
208.037	-2.05
208.255	59.39
208.474	106.49
208.693	16.38
208.911	-8.19
209.13	36.86
209.349	53.25
209.567	22.53
209.786	71.68
210.005	-12.29
210.223	-2.05
210.442	0
210.661	133.12
210.879	-6.14
211.098	-36.86
211.316	57.34
211.535	12.29
211.753	43.01
211.972	20.48
212.191	-69.63
212.409	59.39
212.628	63.49
212.846	32.77
213.065	65.53
213.283	28.67
213.502	-34.82
213.72	2.05
213.938	34.82
214.157	43.01
214.375	28.67
214.594	81.92
214.812	12.29
215.031	51.2
215.249	32.77
215.467	18.43
215.686	49.15
215.904	-47.1
216.122	18.43
216.341	32.77
216.559	65.53
216.778	104.45
216.996	86.01
217.214	51.2
217.432	18.43
217.651	45.06
217.869	28.67
218.087	-40.96
218.306	24.58
218.524	-12.29
218.742	2.05
218.96	34.82
219.179	-30.72
219.397	38.91
219.615	16.38
219.833	75.77
220.051	69.63
220.27	43.01
220.488	24.58
220.706	20.48
220.924	30.72
221.142	45.06
221.36	20.48
221.578	8.19
221.796	34.82
222.015	24.58
222.233	75.77
222.451	38.91
222.669	32.77
222.887	38.91
223.105	18.43
223.323	49.15
223.541	6.14
223.759	57.34
223.977	16.38
224.195	129.02
224.413	51.2
224.631	10.24
224.849	61.44
225.067	40.96
225.285	61.44
225.503	65.53
225.721	-81.92
225.939	14.34
226.157	59.39
226.375	40.96
226.592	-12.29
226.81	83.97
227.028	2.05
227.246	34.82
227.464	24.58
227.682	36.86
227.9	26.62
228.117	6.14
228.335	-6.14
228.553	34.82
228.771	20.48
228.989	20.48
229.206	45.06
229.424	16.38
229.642	34.82
229.86	-16.38
230.077	12.29
230.295	96.25
230.513	36.86
230.731	47.1
230.948	120.83
231.166	124.93
231.384	34.82
231.601	18.43
231.819	-63.49
232.037	34.82
232.254	45.06
232.472	-4.1
232.689	4.1
232.907	2.05
233.125	22.53
233.342	-10.24
233.56	45.06
233.777	73.73
233.995	26.62
234.213	30.72
234.43	8.19
234.648	32.77
234.865	8.19
235.083	-55.3
235.3	73.73
235.518	65.53
235.735	81.92
235.953	30.72
236.17	40.96
236.388	69.63
236.605	12.29
236.822	12.29
237.04	-26.62
237.257	57.34
237.475	47.1
237.692	14.34
237.909	18.43
238.127	71.68
238.344	98.3
238.562	73.73
238.779	26.62
238.996	26.62
239.214	71.68
239.431	10.24
239.648	16.38
239.865	47.1
240.083	69.63
240.3	57.34
240.517	28.67
240.735	32.77
240.952	90.11
241.169	114.69
241.386	18.43
241.603	-4.1
241.821	-53.25
242.038	30.72
242.255	-30.72
242.472	49.15
242.689	61.44
242.907	79.87
243.124	45.06
243.341	65.53
243.558	-10.24
243.775	10.24
243.992	34.82
244.209	86.01
244.426	71.68
244.643	20.48
244.86	18.43
245.078	59.39
245.295	34.82
245.512	59.39
245.729	26.62
245.946	43.01
246.163	14.34
246.38	59.39
246.597	51.2
246.814	30.72
247.031	43.01
247.248	106.49
247.464	8.19
247.681	-6.14
247.898	38.91
248.115	45.06
248.332	65.53
248.549	-6.14
248.766	40.96
248.983	32.77
249.2	10.24
249.417	94.21
249.633	-10.24
249.85	71.68
250.067	22.53
250.284	22.53
250.501	30.72
250.717	102.4
250.934	38.91
251.151	94.21
251.368	110.59
251.585	79.87
251.801	2.05
252.018	88.06
252.235	16.38
252.451	-16.38
252.668	22.53
252.885	88.06
253.102	6.14
253.318	-4.1
253.535	12.29
253.752	32.77
253.968	-88.06
254.185	40.96
254.401	-2.05
254.618	8.19
254.835	24.58
255.051	30.72
255.268	75.77
255.484	79.87
255.701	14.34
255.917	34.82
256.134	55.3
256.351	40.96
256.567	69.63
256.784	-2.05
257	-8.19
257.217	38.91
257.433	51.2
257.65	18.43
257.866	71.68
258.082	77.82
258.299	-12.29
258.515	81.92
258.732	-34.82
258.948	71.68
259.165	8.19
259.381	51.2
259.597	28.67
259.814	12.29
260.03	49.15
260.246	8.19
260.463	77.82
260.679	51.2
260.895	53.25
261.112	10.24
261.328	-10.24
261.544	51.2
261.761	36.86
261.977	-2.05
262.193	-6.14
262.409	36.86
262.626	108.54
262.842	55.3
263.058	-2.05
263.274	67.58
263.49	-12.29
263.707	81.92
263.923	61.44
264.139	55.3
264.355	26.62
264.571	40.96
264.787	45.06
265.004	51.2
265.22	55.3
265.436	88.06
265.652	8.19
265.868	106.49
266.084	18.43
266.3	20.48
266.516	71.68
266.732	32.77
266.948	43.01
267.164	118.78
267.38	30.72
267.596	22.53
267.812	63.49
268.028	36.86
268.244	20.48
268.46	10.24
268.676	94.21
268.892	18.43
269.108	-12.29
269.324	22.53
269.54	16.38
269.756	-20.48
269.972	40.96
270.188	122.88
270.403	73.73
270.619	28.67
270.835	69.63
271.051	4.1
271.267	71.68
271.483	34.82
271.698	4.1
271.914	24.58
272.13	51.2
272.346	10.24
272.562	81.92
272.777	43.01
272.993	79.87
273.209	73.73
273.425	-32.77
273.64	20.48
273.856	-34.82
274.072	61.44
274.287	2.05
274.503	90.11
274.719	69.63
274.934	49.15
275.15	10.24
275.366	12.29
275.581	-34.82
275.797	-4.1
276.012	53.25
276.228	53.25
276.444	12.29
276.659	141.31
276.875	65.53
277.09	55.3
277.306	-10.24
277.521	18.43
277.737	24.58
277.952	16.38
278.168	47.1
278.383	69.63
278.599	45.06
278.814	49.15
279.03	65.53
279.245	51.2
279.461	14.34
279.676	30.72
279.892	-32.77
280.107	26.62
280.322	34.82
280.538	38.91
280.753	-65.54
280.969	98.3
281.184	26.62
281.399	49.15
281.615	43.01
281.83	61.44
282.045	-4.1
282.26	110.59
282.476	43.01
282.691	61.44
282.906	-10.24
283.122	36.86
283.337	104.45
283.552	116.73
283.767	-88.06
283.983	4.1
284.198	6.14
284.413	14.34
284.628	32.77
284.843	53.25
285.058	36.86
285.274	22.53
285.489	24.58
285.704	16.38
285.919	59.39
286.134	40.96
286.349	-51.2
286.564	59.39
286.779	36.86
286.995	47.1
287.21	30.72
287.425	0
287.64	67.58
287.855	26.62
288.07	57.34
288.285	43.01
288.5	59.39
288.715	94.21
288.93	28.67
289.145	-32.77
289.36	67.58
289.575	47.1
289.79	20.48
290.004	36.86
290.219	61.44
290.434	36.86
290.649	67.58
290.864	75.77
291.079	10.24
291.294	75.77
291.509	26.62
291.724	45.06
291.938	8.19
292.153	-16.38
292.368	49.15
292.583	4.1
292.798	36.86
293.012	63.49
293.227	12.29
293.442	61.44
293.657	94.21
293.871	63.49
294.086	79.87
294.301	2.05
294.516	43.01
294.73	34.82
294.945	57.34
295.16	-2.05
295.374	71.68
295.589	63.49
295.804	30.72
296.018	22.53
296.233	34.82
296.447	108.54
296.662	55.3
296.877	-32.77
297.091	47.1
297.306	30.72
297.52	45.06
297.735	57.34
297.949	-12.29
298.164	-38.91
298.378	63.49
298.593	2.05
298.807	-2.05
299.022	69.63
299.236	2.05
299.451	122.88
299.665	49.15
299.88	45.06
300.094	4.1
300.309	22.53
300.523	-34.82
300.737	83.97
300.952	77.82
301.166	55.3
301.381	61.44
301.595	43.01
301.809	40.96
302.024	81.92
302.238	8.19
302.452	24.58
302.667	75.77
302.881	57.34
303.095	6.14
303.309	-10.24
303.524	69.63
303.738	73.73
303.952	65.53
304.166	36.86
304.381	57.34
304.595	-16.38
304.809	24.58
305.023	12.29
305.237	2.05
305.452	-4.1
305.666	-14.34
305.88	40.96
306.094	61.44
306.308	79.87
306.522	-16.38
306.736	-14.34
306.95	16.38
307.164	-16.38
307.379	51.2
307.593	28.67
307.807	94.21
308.021	63.49
308.235	-12.29
308.449	40.96
308.663	-16.38
308.877	20.48
309.091	-4.1
309.305	65.53
309.519	-14.34
309.733	14.34
309.947	43.01
310.161	24.58
310.374	59.39
310.588	57.34
310.802	26.62
311.016	26.62
311.23	12.29
311.444	63.49
311.658	40.96
311.872	104.45
312.085	75.77
312.299	59.39
312.513	-8.19
312.727	26.62
312.941	51.2
313.154	20.48
313.368	28.67
313.582	59.39
313.796	28.67
314.009	100.35
314.223	28.67
314.437	51.2
314.651	18.43
314.864	-12.29
315.078	73.73
315.292	114.69
315.505	18.43
315.719	43.01
315.933	4.1
316.146	83.97
316.36	57.34
316.573	71.68
316.787	32.77
317.001	43.01
317.214	-55.3
317.428	67.58
317.641	51.2
317.855	108.54
318.068	36.86
318.282	67.58
318.495	112.64
318.709	8.19
318.922	-45.06
319.136	69.63
319.349	16.38
319.563	38.91
319.776	20.48
319.99	28.67
320.203	145.41
320.417	102.4
320.63	-28.67
320.843	51.2
321.057	65.53
321.27	71.68
321.483	79.87
321.697	40.96
321.91	20.48
322.124	34.82
322.337	53.25
322.55	-43.01
322.763	-20.48
322.977	34.82
323.19	-8.19
323.403	-20.48
323.617	16.38
323.83	45.06
324.043	38.91
324.256	4.1
324.469	43.01
324.683	51.2
324.896	26.62
325.109	65.53
325.322	96.25
325.535	83.97
325.748	77.82
325.962	71.68
326.175	126.97
326.388	92.16
326.601	83.97
326.814	28.67
327.027	-4.1
327.24	45.06
327.453	-45.06
327.666	38.91
327.879	4.1
328.092	57.34
328.305	73.73
328.518	57.34
328.731	14.34
328.944	30.72
329.157	22.53
329.37	57.34
329.583	61.44
329.796	49.15
330.009	51.2
330.222	110.59
330.435	40.96
330.648	45.06
330.861	26.62
331.073	108.54
331.286	-14.34
331.499	30.72
331.712	28.67
331.925	67.58
332.138	73.73
332.35	32.77
332.563	108.54
332.776	20.48
332.989	4.1
333.202	12.29
333.414	83.97
333.627	47.1
333.84	141.31
334.053	53.25
334.265	75.77
334.478	28.67
334.691	28.67
334.903	51.2
335.116	-14.34
335.329	12.29
335.541	32.77
335.754	14.34
335.966	6.14
336.179	43.01
336.392	96.25
336.604	28.67
336.817	53.25
337.029	104.45
337.242	8.19
337.454	40.96
337.667	102.4
337.88	-8.19
338.092	116.73
338.305	90.11
338.517	67.58
338.729	61.44
338.942	-24.58
339.154	55.3
339.367	-22.53
339.579	69.63
339.792	71.68
340.004	67.58
340.217	86.01
340.429	94.21
340.641	86.01
340.854	6.14
341.066	40.96
341.278	71.68
341.491	45.06
341.703	20.48
341.915	-12.29
342.128	45.06
342.34	43.01
342.552	-8.19
342.764	-2.05
342.977	57.34
343.189	0
343.401	63.49
343.613	32.77
343.826	28.67
344.038	0
344.25	22.53
344.462	51.2
344.674	40.96
344.886	106.49
345.099	57.34
345.311	67.58
345.523	47.1
345.735	-16.38
345.947	28.67
346.159	53.25
346.371	53.25
346.583	61.44
346.795	40.96
347.007	96.25
347.219	65.53
347.431	-38.91
347.643	73.73
347.855	61.44
348.067	-8.19
348.279	71.68
348.491	4.1
348.703	45.06
348.915	114.69
349.127	32.77
349.339	28.67
349.551	34.82
349.763	-55.3
349.975	14.34
350.187	49.15
350.399	38.91
350.61	12.29
350.822	12.29
351.034	16.38
351.246	40.96
351.458	32.77
351.669	75.77
351.881	51.2
352.093	96.25
352.305	51.2
352.517	49.15
352.728	61.44
352.94	45.06
353.152	59.39
353.363	-45.06
353.575	49.15
353.787	90.11
353.999	51.2
354.21	51.2
354.422	18.43
354.633	8.19
354.845	69.63
355.057	51.2
355.268	32.77
355.48	34.82
355.692	-10.24
355.903	36.86
356.115	120.83
356.326	26.62
356.538	102.4
356.749	32.77
356.961	53.25
357.172	57.34
357.384	71.68
357.595	18.43
357.807	53.25
358.018	-43.01
358.23	88.06
358.441	40.96
358.653	59.39
358.864	26.62
359.075	-45.06
359.287	22.53
359.498	88.06
359.709	67.58
359.921	24.58
360.132	83.97
360.344	59.39
360.555	81.92
360.766	59.39
360.977	-32.77
361.189	126.97
361.4	57.34
361.611	57.34
361.823	49.15
362.034	22.53
362.245	40.96
362.456	2.05
362.667	96.25
362.879	12.29
363.09	65.53
363.301	28.67
363.512	40.96
363.723	69.63
363.935	0
364.146	55.3
364.357	-2.05
364.568	30.72
364.779	28.67
364.99	20.48
365.201	61.44
365.412	73.73
365.623	14.34
365.834	133.12
366.045	4.1
366.256	96.25
366.467	30.72
366.678	77.82
366.889	81.92
367.1	79.87
367.311	12.29
367.522	-22.53
367.733	61.44
367.944	-30.72
368.155	43.01
368.366	36.86
368.577	-34.82
368.788	16.38
368.999	69.63
369.209	36.86
369.42	65.53
369.631	77.82
369.842	43.01
370.053	55.3
370.264	-12.29
370.474	155.65
370.685	47.1
370.896	47.1
371.107	86.01
371.317	-2.05
371.528	-63.49
371.739	104.45
371.95	18.43
372.16	40.96
372.371	-12.29
372.582	86.01
372.792	34.82
373.003	26.62
373.214	126.97
373.424	59.39
373.635	49.15
373.846	45.06
374.056	-73.73
374.267	36.86
374.477	88.06
374.688	-61.44
374.898	75.77
375.109	57.34
375.319	57.34
375.53	104.45
375.74	26.62
375.951	36.86
376.161	88.06
376.372	79.87
376.582	12.29
376.793	86.01
377.003	61.44
377.214	59.39
377.424	8.19
377.635	-8.19
377.845	79.87
378.055	24.58
378.266	49.15
378.476	59.39
378.686	69.63
378.897	57.34
379.107	-34.82
379.317	92.16
379.528	36.86
379.738	67.58
379.948	51.2
380.158	51.2
380.369	86.01
380.579	79.87
380.789	14.34
380.999	122.88
381.21	47.1
381.42	22.53
381.63	73.73
381.84	69.63
382.05	18.43
382.261	49.15
382.471	61.44
382.681	12.29
382.891	79.87
383.101	86.01
383.311	4.1
383.521	32.77
383.731	8.19
383.941	51.2
384.151	40.96
384.361	40.96
384.571	36.86
384.781	4.1
384.991	65.53
385.201	57.34
385.411	63.49
385.621	40.96
385.831	45.06
386.041	30.72
386.251	12.29
386.461	59.39
386.671	116.73
386.881	20.48
387.091	38.91
387.301	59.39
387.511	53.25
387.72	167.93
387.93	94.21
388.14	45.06
388.35	51.2
388.56	38.91
388.769	90.11
388.979	86.01
389.189	92.16
389.399	-6.14
389.609	61.44
389.818	8.19
390.028	32.77
390.238	59.39
390.447	40.96
390.657	36.86
390.867	86.01
391.076	61.44
391.286	67.58
391.496	-4.1
391.705	59.39
391.915	81.92
392.125	71.68
392.334	88.06
392.544	73.73
392.753	100.35
392.963	88.06
393.172	151.55
393.382	65.53
393.591	135.17
393.801	4.1
394.01	129.02
394.22	47.1
394.429	79.87
394.639	45.06
394.848	69.63
395.058	10.24
395.267	4.1
395.477	65.53
395.686	79.87
395.895	38.91
396.105	112.64
396.314	45.06
396.524	12.29
396.733	110.59
396.942	86.01
397.152	81.92
397.361	71.68
397.57	167.93
397.78	38.91
397.989	90.11
398.198	67.58
398.407	88.06
398.617	38.91
398.826	71.68
399.035	102.4
399.244	102.4
399.453	120.83
399.663	61.44
399.872	116.73
400.081	40.96
400.29	108.54
400.499	155.65
400.708	167.93
400.917	106.49
401.127	167.93
401.336	86.01
401.545	124.93
401.754	118.78
401.963	79.87
402.172	163.84
402.381	96.25
402.59	24.58
402.799	133.12
403.008	112.64
403.217	98.3
403.426	71.68
403.635	83.97
403.844	182.27
404.053	106.49
404.262	53.25
404.471	169.98
404.68	96.25
404.888	83.97
405.097	192.51
405.306	141.31
405.515	188.41
405.724	112.64
405.933	253.95
406.142	190.46
406.35	124.93
406.559	188.41
406.768	145.41
406.977	174.08
407.185	167.93
407.394	172.03
407.603	208.89
407.812	157.69
408.02	169.98
408.229	204.8
408.438	184.32
408.646	133.12
408.855	210.94
409.064	274.43
409.272	176.13
409.481	262.14
409.69	223.23
409.898	290.81
410.107	243.71
410.315	321.53
410.524	272.38
410.733	305.15
410.941	251.9
411.15	299
411.358	301.05
411.567	333.82
411.775	329.72
411.984	352.25
412.192	378.87
412.401	380.92
412.609	440.31
412.818	489.46
413.026	370.68
413.234	428.03
413.443	434.17
413.651	458.74
413.86	536.57
414.068	509.94
414.276	561.14
414.485	608.25
414.693	485.37
414.901	618.49
415.11	479.22
415.318	669.69
415.526	585.72
415.734	667.64
415.943	649.21
416.151	628.73
416.359	659.45
416.567	681.97
416.776	851.95
416.984	788.47
417.192	753.65
417.4	751.6
417.608	856.05
417.817	915.44
418.025	970.74
418.233	925.68
418.441	946.16
418.649	940.02
418.857	1110
419.065	1032.18
419.273	1001.46
419.481	1179.63
419.689	1218.54
419.897	1179.63
420.105	1357.8
420.313	1347.56
420.521	1462.25
420.729	1265.64
420.937	1411.05
421.145	1570.79
421.353	1486.83
421.561	1660.9
421.769	1490.92
421.977	1691.62
422.185	1638.38
422.393	1732.58
422.601	1941.47
422.809	1869.8
423.017	1935.33
423.224	1972.19
423.432	1890.28
423.64	1925.09
423.848	2213.85
424.056	2179.04
424.263	2318.3
424.471	2340.83
424.679	2469.85
424.887	2559.96
425.094	2545.63
425.302	2535.39
425.51	2660.31
425.718	2830.29
425.925	2832.34
426.133	2922.45
426.341	3082.19
426.548	3198.93
426.756	3217.36
426.964	3291.09
427.171	3424.2
427.379	3491.79
427.586	3661.77
427.794	3641.29
428.001	3809.22
428.209	4042.69
428.417	4100.03
428.624	4270.01
428.832	4241.34
429.039	4415.42
429.247	4110.27
429.454	4667.32
429.662	4863.93
429.869	4681.66
430.076	4988.85
430.284	4792.25
430.491	4972.47
430.699	5384.11
430.906	5377.97
431.114	5359.53
431.321	5519.28
431.528	5593
431.736	6029.22
431.943	6354.85
432.15	6139.81
432.358	6320.03
432.565	6442.91
432.772	6463.39
432.979	6881.17
433.187	6913.94
433.394	6903.7
433.601	7466.89
433.808	7387.02
434.016	7315.34
434.223	7786.38
434.43	8155.01
434.637	7978.89
434.844	8644.48
435.052	8687.48
435.259	8585.08
435.466	8572.8
435.673	8736.63
435.88	9381.74
436.087	9772.91
436.294	9701.23
436.501	9545.58
436.708	9748.33
436.915	9996.14
437.122	10458.98
437.329	10317.67
437.537	10706.78
437.743	11112.28
437.95	10860.38
438.157	11458.39
438.364	11847.5
438.571	11663.18
438.778	11902.79
438.985	13078.33
439.192	12474.18
439.399	12703.55
439.606	12474.18
439.813	13061.94
440.02	14163.75
440.227	13997.87
440.433	13575.98
440.64	14049.07
440.847	14079.79
441.054	14456.61
441.261	15195.93
441.467	15077.15
441.674	15320.85
441.881	15703.82
442.088	16105.23
442.294	16064.27
442.501	16576.26
442.708	16342.79
442.914	17327.86
443.121	18038.51
443.328	17424.12
443.534	18677.47
443.741	18093.8
443.948	17948.4
444.154	19150.56
444.361	19130.08
444.568	19164.89
444.774	19371.74
444.981	19547.86
445.187	20018.89
445.394	20795.07
445.6	20594.37
445.807	22601.38
446.013	21704.37
446.22	22253.23
446.426	23056.03
446.633	22933.15
446.839	23801.49
447.046	22748.84
447.252	24102.54
447.459	24045.2
447.665	24172.18
447.871	25147.01
448.078	26060.4
448.284	24608.39
448.491	25675.38
448.697	26668.65
448.903	26992.23
449.11	27037.28
449.316	26545.77
449.522	27305.57
449.728	27709.02
449.935	28411.47
450.141	28139.09
450.347	28405.33
450.553	27928.15
450.76	28128.85
450.966	28972.61
451.172	28366.42
451.378	29228.61
451.584	28325.46
451.791	29365.82
451.997	29142.6
452.203	29826.62
452.409	29605.44
452.615	29249.09
452.821	28235.35
453.027	27973.21
453.233	29324.86
453.44	28298.83
453.646	28268.11
453.852	28724.81
454.058	28993.09
454.264	27952.73
454.47	28620.36
454.676	28171.86
454.882	28665.42
455.088	26394.22
455.294	27299.42
455.5	26969.7
455.705	27151.97
455.911	26257.01
456.117	25843.32
456.323	25540.22
456.529	23889.56
456.735	25114.24
456.941	24495.75
457.147	23946.9
457.352	23334.56
457.558	22980.26
457.764	22849.19
457.97	22300.33
458.176	22050.48
458.381	22005.42
458.587	21055.17
458.793	20883.14
458.999	19777.23
459.204	21141.18
459.41	20580.04
459.616	19121.88
459.821	19551.96
460.027	19322.59
460.233	19013.34
460.438	18075.37
460.644	18028.27
460.85	17395.45
461.055	17131.26
461.261	17090.3
461.466	15619.86
461.672	15269.65
461.878	16328.45
462.083	15116.06
462.289	15060.76
462.494	14747.42
462.7	14257.96
462.905	13797.17
463.111	14264.1
463.316	14192.42
463.522	14161.7
463.727	14239.53
463.932	14128.94
464.138	13924.14
464.343	14077.74
464.549	13451.06
464.754	13907.76
464.959	13856.56
465.165	13803.31
465.37	13344.56
465.575	13010.75
465.781	13401.91
465.986	13514.55
466.191	13070.14
466.397	12752.7
466.602	12279.62
466.807	12683.07
467.012	12283.72
467.218	12625.73
467.423	12140.36
467.628	12592.96
467.833	12957.5
468.038	12521.28
468.244	12298.05
468.449	12533.57
468.654	12359.49
468.859	12218.18
469.064	11986.76
469.269	11644.75
469.474	11769.68
469.679	11960.14
469.885	11730.76
470.09	11626.32
470.295	11720.53
470.5	11493.2
470.705	11401.04
470.91	11259.73
471.115	11112.28
471.32	11259.73
471.525	11083.61
471.73	10880.86
471.935	10887
472.139	10622.81
472.344	10690.4
472.549	10590.05
472.754	10409.83
472.959	10217.32
473.164	9959.27
473.369	10067.81
473.574	10327.91
473.778	10090.34
473.983	9985.9
474.188	10078.05
474.393	9543.53
474.598	9541.49
474.802	9434.99
475.007	9379.7
475.212	9238.39
475.417	9049.97
475.621	8974.2
475.826	9101.17
476.031	8943.48
476.235	8720.25
476.44	8935.29
476.645	8634.24
476.849	8822.65
477.054	8712.06
477.259	8302.47
477.463	8396.67
477.668	8312.71
477.872	8316.8
478.077	8327.04
478.282	8003.46
478.486	8019.85
478.691	7733.13
478.895	8062.85
479.1	8124.29
479.304	7903.11
479.509	7741.32
479.713	7944.07
479.918	7548.81
480.122	7464.85
480.326	7606.16
480.531	7614.35
480.735	7626.64
480.94	7536.52
481.144	7714.7
481.348	7405.45
481.553	7389.07
481.757	7303.06
481.961	7479.18
482.166	7458.7
482.37	7423.89
482.574	7217.04
482.778	7341.97
482.983	7346.06
483.187	7274.39
483.391	7522.19
483.595	7407.5
483.8	7161.75
484.004	7354.26
484.208	7360.4
484.412	7225.23
484.616	7163.79
484.821	7358.35
485.025	7272.34
485.229	7389.07
485.433	7292.82
485.637	7356.3
485.841	7268.24
486.045	7210.9
486.249	7374.74
486.453	7155.6
486.657	7221.14
486.861	7284.62
487.065	7071.64
487.269	7350.16
487.473	7235.47
487.677	7350.16
487.881	7208.85
488.085	7337.87
488.289	7382.93
488.493	7116.69
488.697	7229.33
488.901	7462.8
489.105	7382.93
489.309	7364.5
489.512	7434.13
489.716	7401.36
489.92	7374.74
490.124	7393.17
490.328	7657.36
490.531	7550.86
490.735	7481.23
490.939	7557
491.143	7436.17
491.346	7417.74
491.55	7477.13
491.754	7577.48
491.958	7610.25
492.161	7622.54
492.365	7636.88
492.569	7540.62
492.772	7696.27
492.976	7827.34
493.18	7937.93
493.383	7702.41
493.587	7907.21
493.79	7935.88
493.994	7894.92
494.197	8105.86
494.401	8247.17
494.605	8175.49
494.808	8304.51
495.012	8374.14
495.215	8255.36
495.419	8249.22
495.622	8234.88
495.825	8662.91
496.029	8484.73
496.232	8789.88
496.436	8744.83
496.639	8916.86
496.843	8742.78
497.046	9090.93
497.249	9254.77
497.453	9101.17
497.656	9394.03
497.859	9363.31
498.063	9295.73
498.266	9746.28
498.469	9504.62
498.673	9865.07
498.876	9867.11
499.079	9946.98
499.282	9985.9
499.485	10213.22
499.689	10338.15
499.892	10508.13
500.095	10622.81
500.298	10643.29
500.501	10450.78
500.705	10893.15
500.908	11071.32
501.111	11190.1
501.314	11210.58
501.517	11564.88
501.72	11487.06
501.923	11376.47
502.126	11880.27
502.329	11929.42
502.532	11880.27
502.735	12123.97
502.938	12429.12
503.141	12328.77
503.344	12810.04
503.547	12726.08
503.75	12920.63
503.953	13084.47
504.156	13203.25
504.359	13276.98
504.562	13307.7
504.765	13637.42
504.968	13803.31
505.17	14024.49
505.373	13860.65
505.576	14233.38
505.779	14602.02
505.982	14634.78
506.185	14872.35
506.387	14907.16
506.59	15218.46
506.793	15404.82
506.996	15230.74
507.198	15941.39
507.401	15795.98
507.604	16105.23
507.807	16477.96
508.009	16426.76
508.212	16588.55
508.415	16719.62
508.617	16811.78
508.82	17147.64
509.022	16854.78
509.225	17624.82
509.428	17571.57
509.63	18118.38
509.833	17774.32
510.035	18294.5
510.238	18589.41
510.44	18677.47
510.643	18706.15
510.845	19023.58
511.048	18988.77
511.25	19418.84
511.453	19625.68
511.655	20467.4
511.858	20006.61
512.06	20434.63
512.262	20594.37
512.465	20444.87
512.667	20960.96
512.87	21270.2
513.072	21194.43
513.274	21571.25
513.477	22130.35
513.679	22066.86
513.881	22408.87
514.084	22775.46
514.286	22402.73
514.488	22646.44
514.69	23449.24
514.893	23725.72
515.095	23797.4
515.297	23979.67
515.499	24116.88
515.701	24452.75
515.904	25013.89
516.106	24960.64
516.308	25222.78
516.51	25482.88
516.712	25587.32
516.914	25894.52
517.116	26318.45
517.318	26525.29
517.52	26883.69
517.722	26697.32
517.925	27504.22
518.127	27698.78
518.329	27973.21
518.531	27891.29
518.733	28417.61
518.935	28558.92
519.136	28431.95
519.338	28999.24
519.54	28974.66
519.742	29441.6
519.944	29826.62
520.146	30320.18
520.348	30531.12
520.55	30602.8
520.752	30826.03
520.954	31434.27
521.155	31139.36
521.357	31657.5
521.559	32015.9
521.761	32761.36
521.963	32314.9
522.164	32806.41
522.366	32677.39
522.568	33291.78
522.77	33398.27
522.971	33689.09
523.173	33715.71
523.375	33871.36
523.576	34172.41
523.778	34106.87
523.98	34780.65
524.181	35050.99
524.383	34899.44
524.584	35419.62
524.786	35636.7
524.988	35118.57
525.189	35843.55
525.391	36308.44
525.592	36343.25
525.794	36466.13
525.995	36480.47
526.197	36922.83
526.398	36756.94
526.6	37166.54
526.801	37316.04
527.003	37139.91
527.204	37516.74
527.406	37701.06
527.607	37596.61
527.808	38137.27
528.01	37299.65
528.211	37813.69
528.412	38688.18
528.614	38108.6
528.815	38342.07
529.016	39001.52
529.218	38337.97
529.419	38917.55
529.62	38866.35
529.822	38923.69
530.023	38927.79
530.224	39065
530.425	38956.46
530.626	38536.63
530.828	38942.13
531.029	39835.04
531.23	39308.71
531.431	39247.27
531.632	39830.94
531.833	39499.17
532.035	39404.97
532.236	39710.11
532.437	40050.08
532.638	39478.69
532.839	39634.34
533.04	39667.11
533.241	39720.35
533.442	40508.82
533.643	39812.51
533.844	39953.82
534.045	40158.62
534.246	39746.98
534.447	40062.36
534.648	40359.32
534.849	40220.06
535.05	39806.37
535.251	40324.5
535.451	39941.53
535.652	40355.22
535.853	40213.91
536.054	40320.41
536.255	40451.48
536.456	39865.76
536.657	40336.79
536.857	40461.72
537.058	39978.4
537.259	40609.17
537.46	40117.66
537.66	40269.21
537.861	40715.67
538.062	40218.01
538.263	40574.36
538.463	40119.71
538.664	40068.51
538.865	40136.09
539.065	40494.49
539.266	40240.54
539.466	40453.53
539.667	39792.03
539.868	40383.9
540.068	40273.31
540.269	40330.65
540.469	40312.22
540.67	40041.88
540.87	40236.44
541.071	40375.7
541.271	40459.67
541.472	40230.3
541.672	39984.54
541.873	40062.36
542.073	40025.5
542.274	40164.76
542.474	40199.58
542.675	39886.24
542.875	40498.58
543.075	40205.72
543.276	39886.24
543.476	40684.95
543.676	39785.89
543.877	40160.67
544.077	40256.92
544.277	40453.53
544.478	40101.28
544.678	40394.14
544.878	39998.88
545.078	40076.7
545.279	39712.16
545.479	39593.38
545.679	39984.54
545.879	39687.59
546.079	40322.46
546.28	40295.83
546.48	39671.2
546.68	39808.42
546.88	40037.79
547.08	39908.77
547.28	39968.16
547.48	39714.21
547.68	39998.88
547.88	39620
548.081	40349.08
548.281	40002.97
548.481	39900.58
548.681	40060.32
548.881	39773.6
549.081	39605.67
549.28	40037.79
549.48	39794.08
549.68	40189.34
549.88	40301.98
550.08	39740.83
550.28	39968.16
550.48	39585.19
550.68	40222.11
550.88	39935.39
551.08	39804.32
551.279	39749.03
551.479	39736.74
551.679	39832.99
551.879	39648.67
552.079	40113.56
552.278	39648.67
552.478	39466.41
552.678	39724.45
552.878	39638.44
553.077	39734.69
553.277	39310.76
553.477	39978.4
553.676	39832.99
553.876	39665.06
554.076	39712.16
554.275	39464.36
554.475	39181.74
554.674	39277.99
554.874	39667.11
555.074	39574.95
555.273	39245.23
555.473	39777.7
555.672	39392.68
555.872	39241.13
556.071	39550.37
556.271	39548.32
556.47	38972.85
556.67	38921.65
556.869	38950.32
557.068	39722.4
557.268	38706.61
557.467	39060.91
557.667	38946.22
557.866	39019.95
558.065	38919.6
558.265	38598.07
558.464	38514.1
558.663	38786.48
558.863	38587.83
559.062	38864.3
559.261	38442.42
559.461	38819.25
559.66	38286.78
559.859	38475.19
560.058	38317.5
560.258	38411.7
560.457	37666.24
560.656	38077.88
560.855	37754.3
561.054	38008.25
561.253	37668.29
561.453	37832.13
561.652	37973.44
561.851	38348.21
562.05	37926.33
562.249	37791.17
562.448	37901.76
562.647	37475.78
562.846	37463.49
563.045	37397.96
563.244	37363.14
563.443	37559.75
563.642	37260.74
563.841	37467.59
564.04	37039.56
564.239	37318.09
564.438	37139.91
564.637	37004.75
564.836	36959.69
565.035	37197.26
565.234	37246.41
565.432	36472.28
565.631	36568.53
565.83	36593.11
566.029	36447.7
566.228	36294.1
566.427	36789.71
566.625	36468.18
566.824	35722.72
567.023	36459.99
567.222	35907.04
567.42	36439.51
567.619	36156.89
567.818	36126.17
568.016	36138.46
568.215	35939.8
568.414	35872.22
568.612	35749.34
568.811	35939.8
569.01	35753.44
569.208	35046.89
569.407	35610.08
569.605	34825.71
569.804	35358.18
570.002	34971.11
570.201	35055.08
570.4	34962.92
570.598	34838
570.797	34915.82
570.995	34538.99
571.193	34414.07
571.392	34577.9
571.59	34262.52
571.789	34401.78
571.987	34233.85
572.186	34078.2
572.384	33940.99
572.582	33965.56
572.781	33990.14
572.979	33179.14
573.177	33566.21
573.376	33476.1
573.574	33222.15
573.772	33474.05
573.971	33318.4
574.169	33197.57
574.367	33009.16
574.565	33175.05
574.763	32960.01
574.962	32966.15
575.16	32382.48
575.358	32841.23
575.556	32450.06
575.754	32849.42
575.952	32183.83
576.151	32628.24
576.349	32085.53
576.547	32048.66
576.745	32116.25
576.943	32093.72
577.141	32237.08
577.339	31872.54
577.537	31624.73
577.735	31657.5
577.933	31409.7
578.131	31604.25
578.329	31321.63
578.527	31055.4
578.725	31145.51
578.923	31241.76
579.121	30987.82
579.319	30760.49
579.516	30844.46
579.714	30768.68
579.912	30570.03
580.11	30584.37
580.308	30565.93
580.506	30354.99
580.704	30105.14
580.901	30359.09
581.099	30445.1
581.297	29673.02
581.495	29832.76
581.692	29922.87
581.89	29875.77
582.088	29789.75
582.285	29799.99
582.483	29513.28
582.681	29421.12
582.878	29128.26
583.076	29212.23
583.274	29486.65
583.471	29195.84
583.669	28919.37
583.866	28911.17
584.064	28925.51
584.262	28698.19
584.459	29177.41
584.657	28694.09
584.854	28945.99
585.052	28233.3
585.249	28522.06
585.447	28427.85
585.644	28264.02
585.841	28390.99
586.039	28188.24
586.236	27950.68
586.434	27663.96
586.631	27862.61
586.828	28102.23
587.026	27752.02
587.223	27801.18
587.42	27954.77
587.618	27418.21
587.815	27186.79
588.012	27309.66
588.21	27430.49
588.407	27119.2
588.604	26705.51
588.801	26816.1
588.999	27053.67
589.196	26730.09
589.393	26732.14
589.59	26662.51
589.787	26695.27
589.984	26601.07
590.182	26234.48
590.379	26383.98
590.576	26236.53
590.773	26515.05
590.97	26099.31
591.167	26046.07
591.364	25566.84
591.561	25859.7
591.758	25757.3
591.955	25499.26
592.152	26072.69
592.349	25409.15
592.546	25411.2
592.743	25611.9
592.94	25034.37
593.137	25362.04
593.334	25241.21
593.531	24870.53
593.727	25067.14
593.924	25022.08
594.121	24815.24
594.318	25142.91
594.515	24342.16
594.712	25087.62
594.908	24858.24
595.105	24557.19
595.302	24094.35
595.499	24397.45
595.696	24325.77
595.892	24071.82
596.089	24424.08
596.286	24372.88
596.482	24233.61
596.679	24094.35
596.876	24010.39
597.072	23889.56
597.269	23979.67
597.466	23541.4
597.662	23717.53
597.859	23735.96
598.055	23551.64
598.252	23553.69
598.448	23553.69
598.645	23424.67
598.841	23092.9
599.038	23400.09
599.234	23355.04
599.431	22802.08
599.627	22832.8
599.824	23150.24
600.02	22830.76
600.217	23164.57
600.413	22656.68
600.609	22558.38
600.806	22427.31
601.002	22578.86
601.198	22423.21
601.395	22185.65
601.591	22464.17
601.787	22263.47
601.984	22195.89
602.18	22406.83
602.376	22062.77
602.572	21927.6
602.769	21780.15
602.965	21567.16
603.161	21847.73
603.357	21669.56
603.553	21917.36
603.75	21485.24
603.946	21284.54
604.142	21468.86
604.338	21354.17
604.534	21241.53
604.73	21270.2
604.926	21214.91
605.122	21083.84
605.318	20944.58
605.514	20598.47
605.71	20731.59
605.906	20958.91
606.102	20469.45
606.298	20786.88
606.494	20481.74
606.69	20330.19
606.886	20477.64
607.082	20209.36
607.278	20657.86
607.474	19977.94
607.67	20338.38
607.866	19857.1
608.062	20133.58
608.257	19971.79
608.453	19967.7
608.649	20033.23
608.845	19869.39
609.041	19631.83
609.236	19746.51
609.432	19818.19
609.628	19834.58
609.824	19662.55
610.019	19230.43
610.215	19498.71
610.411	19701.46
610.606	19207.9
610.802	19150.56
610.998	19146.46
611.193	19373.78
611.389	18779.87
611.584	19062.49
611.78	19007.2
611.976	19101.4
612.171	18943.71
612.367	19035.87
612.562	18624.23
612.758	18691.81
612.953	18597.6
613.149	18767.59
613.344	18525.93
613.539	18718.43
613.735	18781.92
613.93	18861.79
614.126	18296.55
614.321	18712.29
614.517	18444.01
614.712	18380.52
614.907	18312.94
615.103	18568.93
615.298	18405.1
615.493	18433.77
615.688	18050.8
615.884	18425.57
616.079	18102
616.274	17905.39
616.47	17919.73
616.665	18077.42
616.86	17882.86
617.055	17755.89
617.25	17878.77
617.445	17694.45
617.641	17401.59
617.836	17852.14
618.031	17311.48
618.226	17729.27
618.421	17590
618.616	17665.78
618.811	17164.03
619.006	17536.76
619.201	16930.56
619.396	17299.19
619.591	16918.27
619.786	17055.48
619.981	16803.58
620.176	17102.59
620.371	16600.83
620.566	16719.62
620.761	16566.02
620.956	16621.31
621.151	16398.09
621.346	16535.3
621.541	16090.89
621.735	16445.19
621.93	15910.67
622.125	16041.74
622.32	15759.12
622.515	16133.9
622.709	15556.37
622.904	15595.28
623.099	15621.91
623.294	15474.45
623.488	15318.81
623.683	15437.59
623.878	15216.41
624.072	15099.67
624.267	15400.72
624.462	15048.47
624.656	14581.54
624.851	14968.6
625.046	14696.22
625.24	14688.03
625.435	14739.23
625.629	14581.54
625.824	14491.43
626.018	14534.43
626.213	13999.91
626.407	14251.81
626.602	13963.05
626.796	14243.62
626.991	14106.41
627.185	13934.38
627.38	13801.26
627.574	13954.86
627.768	13735.73
627.963	13600.56
628.157	13289.27
628.352	13489.97
628.546	13367.09
628.74	13455.15
628.935	13295.41
629.129	13309.75
629.323	12824.38
629.517	13078.33
629.712	13092.66
629.906	12977.98
630.1	12771.13
630.294	12961.59
630.489	12674.88
630.683	12689.21
630.877	12427.07
631.071	12414.79
631.265	12668.73
631.459	12273.48
631.653	12216.13
631.848	12273.48
632.042	12193.61
632.236	12220.23
632.43	12140.36
632.624	12289.86
632.818	11984.71
633.012	11884.36
633.206	11892.55
633.4	11790.16
633.594	11493.2
633.788	11583.31
633.982	11800.4
634.176	11355.99
634.369	11444.05
634.563	11429.71
634.757	11269.97
634.951	11341.65
635.145	11065.18
635.339	11358.03
635.533	11278.16
635.726	11216.72
635.92	11050.84
636.114	11077.46
636.308	10688.35
636.501	11079.51
636.695	10747.74
636.889	10628.96
637.083	10723.16
637.276	10456.93
637.47	10731.36
637.664	10540.9
637.857	10313.57
638.051	10348.39
638.244	10141.54
638.438	10311.52
638.632	10227.56
638.825	10190.69
639.019	10090.34
639.212	10047.33
639.406	9918.31
639.599	10002.28
639.793	9918.31
639.986	9641.84
640.18	9713.52
640.373	9770.86
640.567	9627.5
640.76	9580.4
640.954	9582.45
641.147	9701.23
641.34	9426.8
641.534	9424.75
641.727	9396.08
641.92	9359.22
642.114	9199.48
642.307	9105.27
642.5	9246.58
642.694	8966.01
642.887	8937.34
643.08	8759.16
643.273	8845.18
643.467	8966.01
643.66	8781.69
643.853	8757.11
644.046	8546.17
644.239	8664.96
644.432	8705.92
644.626	8630.14
644.819	8339.33
645.012	8439.68
645.205	8499.07
645.398	8335.23
645.591	8169.35
645.784	8181.64
645.977	8136.58
646.17	7972.74
646.363	8208.26
646.556	8116.1
646.749	7915.4
646.942	8075.14
647.135	7899.02
647.328	7872.39
647.521	7905.16
647.714	7618.44
647.907	7706.51
648.099	7636.88
648.292	7552.91
648.485	7538.57
648.678	7632.78
648.871	7540.62
649.064	7227.28
649.256	7479.18
649.449	7348.11
649.642	7376.78
649.835	7202.71
650.027	7225.23
650.22	7131.03
650.413	7274.39
650.605	7161.75
650.798	6985.62
650.991	7069.59
651.183	6737.82
651.376	7069.59
651.568	7088.02
651.761	6791.06
651.954	6823.83
652.146	6637.47
652.339	6719.39
652.531	6737.82
652.724	6569.88
652.916	6547.36
653.109	6639.51
653.301	6469.53
653.494	6494.11
653.686	6533.02
653.879	6498.2
654.071	6430.62
654.263	6404
654.456	6447.01
654.648	6404
654.84	6113.19
655.033	6148
655.225	6117.28
655.417	6107.04
655.61	6121.38
655.802	6238.11
655.994	5953.45
656.186	6000.55
656.379	5797.8
656.571	5863.33
656.763	5771.18
656.955	5826.47
657.148	5767.08
657.34	5926.82
657.532	5812.14
657.724	5550
657.916	5738.41
658.108	5795.75
658.3	5584.81
658.492	5623.72
658.684	5341.1
658.876	5539.76
659.068	5418.93
659.26	5400.49
659.452	5294
659.644	5349.29
659.836	5367.73
660.028	5410.73
660.22	5357.49
660.412	5300.14
660.604	5019.57
660.796	5380.01
660.988	5060.53
661.18	5081.01
661.372	5144.5
661.563	4954.04
661.755	4872.12
661.947	4949.94
662.139	4853.69
662.331	4939.7
662.522	4855.73
662.714	4880.31
662.906	4829.11
663.097	4837.3
663.289	4939.7
663.481	4704.18
663.673	4734.9
663.864	4687.8
664.056	4652.98
664.247	4628.41
664.439	4536.25
664.631	4632.51
664.822	4622.27
665.014	4556.73
665.205	4446.14
665.397	4401.08
665.588	4419.52
665.78	4624.31
665.971	4409.28
666.163	4419.52
666.354	4464.57
666.546	4306.88
666.737	4370.37
666.929	4245.44
667.12	4253.63
667.311	4321.21
667.503	4163.52
667.694	4239.3
667.885	4122.56
668.077	4145.09
668.268	4097.99
668.459	4032.45
668.651	4036.55
668.842	3983.3
669.033	3938.24
669.224	4018.11
669.416	4114.37
669.607	4048.83
669.798	4034.5
669.989	3905.48
670.18	3964.87
670.371	3968.96
670.563	3893.19
670.754	3801.03
670.945	3768.26
671.136	3698.63
671.327	3786.69
671.518	3753.93
671.709	3665.86
671.9	3727.3
672.091	3782.6
672.282	3708.87
672.473	3665.86
672.664	3717.06
672.855	3653.58
673.046	3751.88
673.237	3682.25
673.428	3579.85
673.619	3522.51
673.809	3592.14
674	3616.71
674.191	3481.55
674.382	3604.43
674.573	3463.12
674.764	3516.36
674.954	3614.66
675.145	3530.7
675.336	3497.93
675.527	3452.88
675.717	3530.7
675.908	3395.53
676.099	3327.95
676.289	3454.92
676.48	3411.92
676.671	3444.68
676.861	3411.92
677.052	3262.41
677.243	3360.72
677.433	3282.89
677.624	3225.55
677.814	3330
678.005	3338.19
678.195	3213.26
678.386	3348.43
678.576	3217.36
678.767	3162.06
678.957	3192.78
679.148	3256.27
679.338	3196.88
679.529	3141.58
679.719	3098.58
679.909	3264.46
680.1	3055.57
680.29	3160.02
680.481	3239.89
680.671	3172.3
680.861	2983.89
681.052	3110.86
681.242	3137.49
681.432	3110.86
681.622	3096.53
681.813	3135.44
682.003	3035.09
682.193	3088.34
682.383	3082.19
682.573	2996.18
682.764	3069.91
682.954	2985.94
683.144	3092.43
683.334	2955.22
683.524	3030.99
683.714	3033.04
683.904	2983.89
684.094	3043.28
684.284	3094.48
684.474	3051.47
684.664	3006.42
684.854	3125.2
685.044	3035.09
685.234	3018.71
685.424	2914.26
685.614	2949.07
685.804	2852.82
685.994	2965.46
686.184	2928.6
686.374	2838.48
686.564	2867.16
686.753	2873.3
686.943	2840.53
687.133	2756.57
687.323	2787.29
687.513	2934.74
687.702	2883.54
687.892	2883.54
688.082	2944.98
688.272	2795.48
688.461	2863.06
688.651	2809.81
688.841	2842.58
689.03	2787.29
689.22	2723.8
689.41	2695.13
689.599	2785.24
689.789	2879.44
689.979	2844.63
690.168	2834.39
690.358	2867.16
690.547	2715.61
690.737	2766.81
690.926	2754.52
691.116	2830.29
691.305	2789.33
691.495	2686.93
691.684	2783.19
691.874	2631.64
692.063	2830.29
692.252	2695.13
692.442	2822.1
692.631	2787.29
692.82	2727.89
693.01	2717.65
693.199	2754.52
693.388	2568.15
693.578	2770.9
693.767	2682.84
693.956	2777.05
694.146	2738.13
694.335	2705.37
694.524	2592.73
694.713	2797.53
694.902	2664.41
695.092	2742.23
695.281	2721.75
695.47	2645.98
695.659	2629.59
695.848	2734.04
696.037	2641.88
696.226	2648.02
696.415	2719.7
696.604	2793.43
696.793	2543.58
696.982	2674.65
697.171	2781.14
697.36	2629.59
697.549	2740.18
697.738	2584.54
697.927	2721.75
698.116	2758.61
698.305	2707.41
698.494	2727.89
698.683	2559.96
698.872	2709.46
699.061	2705.37
699.25	2727.89
699.438	2766.81
699.627	2777.05
699.816	2576.34
700.005	2715.61
700.193	2516.95
700.382	2684.89
700.571	2713.56
700.76	2582.49
700.948	2631.64
701.137	2596.82
701.326	2668.5
701.514	2574.3
701.703	2658.26
701.892	2588.63
702.08	2541.53
702.269	2551.77
702.457	2478.04
702.646	2551.77
702.834	2525.15
703.023	2404.32
703.212	2527.19
703.4	2521.05
703.589	2562.01
703.777	2596.82
703.965	2527.19
704.154	2424.79
704.342	2514.91
704.531	2586.58
704.719	2586.58
704.907	2461.66
705.096	2457.56
705.284	2527.19
705.472	2488.28
705.661	2432.99
705.849	2508.76
706.037	2385.88
706.226	2480.09
706.414	2437.08
706.602	2463.71
706.79	2437.08
706.979	2398.17
707.167	2351.07
707.355	2410.46
707.543	2424.79
707.731	2437.08
707.919	2330.59
708.107	2334.68
708.296	2363.36
708.484	2363.36
708.672	2416.6
708.86	2269.15
709.048	2346.97
709.236	2430.94
709.424	2299.87
709.612	2287.58
709.8	2246.62
709.988	2189.28
710.176	2228.19
710.364	2322.4
710.551	2211.81
710.739	2314.2
710.927	2220
711.115	2211.81
711.303	2256.86
711.491	2146.27
711.679	2205.66
711.866	2220
712.054	2248.67
712.242	2195.42
712.43	2209.76
712.617	2179.04
712.805	2144.22
712.993	2205.66
713.181	2179.04
713.368	2090.98
713.556	2181.09
713.744	2017.25
713.931	2113.5
714.119	2146.27
714.306	2125.79
714.494	2058.21
714.682	2076.64
714.869	2121.7
715.057	1957.86
715.244	2078.69
715.432	2095.07
715.619	1853.41
715.807	2021.35
715.994	2035.68
716.182	2035.68
716.369	2011.11
716.556	1972.19
716.744	1937.38
716.931	1910.75
717.119	1898.47
717.306	1992.67
717.493	1918.95
717.681	1929.19
717.868	2017.25
718.055	1953.76
718.242	1968.1
718.43	1888.23
718.617	1910.75
718.804	1791.97
718.991	1953.76
719.179	1810.4
719.366	1943.52
719.553	1783.78
719.74	1875.94
719.927	1888.23
720.114	1875.94
720.301	1843.17
720.488	1759.21
720.676	1851.36
720.863	1800.16
721.05	1904.61
721.237	1810.4
721.424	1871.84
721.611	1806.31
721.798	1841.12
721.985	1771.49
722.172	1753.06
722.358	1724.39
722.545	1806.31
722.732	1808.36
722.919	1857.51
723.106	1677.29
723.293	1697.77
723.48	1738.73
723.667	1742.82
723.853	1705.96
724.04	1611.75
724.227	1757.16
724.414	1673.19
724.6	1640.42
724.787	1644.52
724.974	1642.47
725.161	1703.91
725.347	1597.42
725.534	1689.57
725.72	1564.65
725.907	1736.68
726.094	1617.9
726.28	1677.29
726.467	1638.38
726.653	1505.26
726.84	1564.65
727.027	1658.85
727.213	1621.99
727.4	1581.03
727.586	1595.37
727.773	1556.46
727.959	1601.51
728.145	1572.84
728.332	1568.74
728.518	1548.26
728.705	1587.18
728.891	1484.78
729.077	1630.18
729.264	1490.92
729.45	1484.78
729.636	1517.54
729.823	1443.82
730.009	1495.02
730.195	1505.26
730.382	1521.64
730.568	1527.78
730.754	1476.59
730.94	1466.35
731.126	1523.69
731.313	1439.72
731.499	1503.21
731.685	1531.88
731.871	1527.78
732.057	1411.05
732.243	1462.25
732.429	1515.5
732.615	1474.54
732.801	1413.1
732.987	1439.72
733.173	1431.53
733.359	1427.43
733.545	1429.48
733.731	1476.59
733.917	1353.71
734.103	1425.39
734.289	1406.95
734.475	1376.23
734.661	1382.38
734.847	1355.76
735.033	1296.36
735.219	1376.23
735.404	1312.75
735.59	1345.52
735.776	1388.52
735.962	1384.43
736.148	1347.56
736.333	1368.04
736.519	1269.74
736.705	1308.65
736.89	1275.88
737.076	1277.93
737.262	1302.51
737.447	1353.71
737.633	1322.99
737.819	1394.67
738.004	1335.28
738.19	1320.94
738.375	1292.27
738.561	1312.75
738.747	1241.07
738.932	1196.01
739.118	1234.93
739.303	1294.32
739.489	1236.97
739.674	1318.89
739.859	1230.83
740.045	1284.08
740.23	1234.93
740.416	1220.59
740.601	1243.12
740.786	1157.1
740.972	1222.64
741.157	1277.93
741.342	1058.8
741.528	1101.81
741.713	1161.2
741.898	1128.43
742.084	1120.24
742.269	1150.96
742.454	1163.25
742.639	1128.43
742.824	1169.39
743.01	1095.66
743.195	1150.96
743.38	1046.51
743.565	1103.86
743.75	1175.53
743.935	1136.62
744.12	1052.66
744.305	1214.45
744.49	1177.58
744.675	1169.39
744.86	1120.24
745.045	1097.71
745.23	1001.46
745.415	1026.03
745.6	1034.22
745.785	1044.46
745.97	1101.81
746.155	1054.7
746.34	978.93
746.525	1103.86
746.71	1089.52
746.895	997.36
747.079	1050.61
747.264	978.93
747.449	1091.57
747.634	1101.81
747.819	1079.28
748.003	987.12
748.188	1030.13
748.373	1013.74
748.557	1011.7
748.742	925.68
748.927	946.16
749.111	1030.13
749.296	976.88
749.481	937.97
749.665	909.3
749.85	991.22
750.034	948.21
750.219	897.01
750.404	978.93
750.588	874.48
750.773	831.48
750.957	868.34
751.141	897.01
751.326	843.76
751.51	901.11
751.695	940.02
751.879	784.37
752.064	921.59
752.248	860.15
752.432	884.72
752.617	913.39
752.801	835.57
752.985	849.91
753.17	876.53
753.354	878.58
753.538	815.09
753.722	802.8
753.907	796.66
754.091	835.57
754.275	712.69
754.459	745.46
754.643	698.36
754.828	708.6
755.012	761.84
755.196	737.27
755.38	800.76
755.564	854
755.748	727.03
755.932	776.18
756.116	724.98
756.3	692.21
756.484	708.6
756.668	765.94
756.852	710.65
757.036	657.4
757.22	745.46
757.404	673.78
757.588	739.32
757.772	673.78
757.956	800.76
758.14	583.67
758.323	634.87
758.507	606.2
758.691	645.11
758.875	694.26
759.059	718.84
759.242	702.45
759.426	655.35
759.61	649.21
759.794	624.63
759.977	700.41
760.161	669.69
760.345	632.82
760.528	608.25
760.712	690.17
760.895	624.63
761.079	628.73
761.263	624.63
761.446	589.81
761.63	591.86
761.813	663.54
761.997	651.25
762.18	602.1
762.364	638.97
762.547	587.77
762.731	524.28
762.914	657.4
763.098	638.97
763.281	577.53
763.464	595.96
763.648	622.58
763.831	608.25
764.015	581.62
764.198	622.58
764.381	663.54
764.564	634.87
764.748	579.58
764.931	587.77
765.114	593.91
765.297	612.34
765.481	540.66
765.664	610.29
765.847	481.27
766.03	538.62
766.213	481.27
766.397	559.1
766.58	647.16
766.763	557.05
766.946	518.14
767.129	626.68
767.312	464.89
767.495	563.19
767.678	571.38
767.861	618.49
768.044	495.61
768.227	575.48
768.41	567.29
768.593	563.19
768.776	509.94
768.959	604.15
769.142	591.86
769.324	569.34
769.507	530.42
769.69	518.14
769.873	536.57
770.056	505.85
770.239	489.46
770.421	604.15
770.604	497.66
770.787	544.76
770.97	555
771.152	548.86
771.335	446.46
771.518	434.17
771.7	538.62
771.883	593.91
772.066	491.51
772.248	487.42
772.431	538.62
772.613	475.13
772.796	473.08
772.978	548.86
773.161	493.56
773.343	448.51
773.526	428.03
773.708	471.03
773.891	475.13
774.073	442.36
774.256	483.32
774.438	493.56
774.621	454.65
774.803	423.93
774.985	401.4
775.168	364.54
775.35	421.88
775.532	462.84
775.715	454.65
775.897	423.93
776.079	471.03
776.261	430.07
776.444	395.26
776.626	407.55
776.808	444.41
776.99	454.65
777.173	458.74
777.355	407.55
777.537	415.74
777.719	346.11
777.901	430.07
778.083	393.21
778.265	403.45
778.447	344.06
778.629	352.25
778.811	325.63
778.993	368.63
779.175	397.31
779.357	356.35
779.539	350.2
779.721	403.45
779.903	329.72
780.085	421.88
780.267	458.74
780.449	364.54
780.631	358.39
780.812	403.45
780.994	323.58
781.176	299
781.358	380.92
781.54	458.74
781.721	317.44
781.903	342.01
782.085	303.1
782.267	331.77
782.448	387.07
782.63	360.44
782.812	325.63
782.993	372.73
783.175	301.05
783.357	315.39
783.538	366.59
783.72	344.06
783.901	315.39
784.083	344.06
784.264	331.77
784.446	288.76
784.627	282.62
784.809	370.68
784.99	294.91
785.172	323.58
785.353	260.09
785.535	262.14
785.716	309.24
785.897	299
786.079	329.72
786.26	278.52
786.441	282.62
786.623	294.91
786.804	219.13
786.985	323.58
787.167	286.72
787.348	292.86
787.529	245.76
787.71	272.38
787.891	270.33
788.073	305.15
788.254	296.96
788.435	292.86
788.616	225.28
788.797	299
788.978	274.43
789.159	182.27
789.34	202.75
789.522	225.28
789.703	315.39
789.884	229.37
790.065	225.28
790.246	245.76
790.427	276.48
790.607	188.41
790.788	327.67
790.969	161.79
791.15	233.47
791.331	249.85
791.512	223.23
791.693	217.08
791.874	229.37
792.054	233.47
792.235	251.9
792.416	186.37
792.597	143.36
792.778	217.08
792.958	249.85
793.139	167.93
793.32	253.95
793.5	186.37
793.681	256
793.862	249.85
794.042	217.08
794.223	149.5
794.404	208.89
794.584	141.31
794.765	161.79
794.945	229.37
795.126	237.56
795.306	178.17
795.487	262.14
795.667	167.93
795.848	219.13
796.028	221.18
796.209	112.64
796.389	192.51
796.57	180.22
796.75	176.13
796.93	184.32
797.111	231.42
797.291	167.93
797.471	143.36
797.652	237.56
797.832	268.28
798.012	143.36
798.192	215.04
798.373	202.75
798.553	198.65
798.733	192.51
798.913	198.65
799.093	200.7
799.274	110.59
799.454	165.89
799.634	167.93
799.814	235.52
799.994	192.51
800.174	198.65
800.354	241.66
800.534	159.74
800.714	110.59
800.894	167.93
801.074	151.55
801.254	172.03
801.434	133.12
801.614	208.89
801.794	143.36
801.974	382.97
802.154	208.89
802.334	202.75
802.514	157.69
802.693	217.08
802.873	161.79
803.053	135.17
803.233	172.03
803.413	135.17
803.592	145.41
803.772	124.93
803.952	188.41
804.131	159.74
804.311	139.26
804.491	139.26
804.67	135.17
804.85	114.69
805.03	167.93
805.209	139.26
805.389	114.69
805.568	215.04
805.748	155.65
805.928	143.36
806.107	137.21
806.287	143.36
806.466	143.36
806.646	47.1
806.825	139.26
807.004	124.93
807.184	116.73
807.363	112.64
807.543	247.8
807.722	135.17
807.901	106.49
808.081	167.93
808.26	122.88
808.439	120.83
808.619	155.65
808.798	53.25
808.977	94.21
809.156	120.83
809.336	98.3
809.515	147.45
809.694	116.73
809.873	98.3
810.052	143.36
810.231	102.4
810.411	75.77
810.59	147.45
810.769	145.41
810.948	108.54
811.127	73.73
811.306	98.3
811.485	71.68
811.664	131.07
811.843	65.53
812.022	102.4
812.201	67.58
812.38	186.37
812.559	151.55
812.737	192.51
812.916	69.63
813.095	118.78
813.274	67.58
813.453	77.82
813.632	102.4
813.811	102.4
813.989	122.88
814.168	20.48
814.347	112.64
814.526	43.01
814.704	137.21
814.883	51.2
815.062	67.58
815.24	174.08
815.419	28.67
815.598	155.65
815.776	102.4
815.955	114.69
816.133	49.15
816.312	143.36
816.49	90.11
816.669	49.15
816.847	96.25
817.026	57.34
817.204	55.3
817.383	69.63
817.561	69.63
817.74	38.91
817.918	18.43
818.097	18.43
818.275	12.29
818.453	63.49
818.632	65.53
818.81	45.06
818.988	53.25
819.167	63.49
819.345	172.03
819.523	79.87
819.701	131.07
819.879	83.97
820.058	43.01
820.236	77.82
820.414	40.96
820.592	112.64
820.77	98.3
820.948	86.01
821.127	96.25
821.305	86.01
821.483	81.92
821.661	124.93
821.839	182.27
822.017	96.25
822.195	81.92
822.373	75.77
822.551	20.48
822.729	69.63
822.907	79.87
823.085	22.53
823.262	88.06
823.44	2.05
823.618	145.41
823.796	100.35
823.974	-8.19
824.152	77.82
824.329	-16.38
824.507	69.63
824.685	38.91
824.863	14.34
825.04	112.64
825.218	96.25
825.396	-8.19
825.574	47.1
825.751	26.62
825.929	73.73
826.107	81.92
826.284	98.3
826.462	36.86
826.639	79.87
826.817	59.39
826.994	63.49
827.172	47.1
827.349	90.11
827.527	63.49
827.704	36.86
827.882	83.97
828.059	114.69
828.237	49.15
828.414	86.01
828.591	-14.34
828.769	178.17
828.946	20.48
829.124	30.72
829.301	55.3
829.478	47.1
829.655	4.1
829.833	94.21
830.01	53.25
830.187	90.11
830.364	59.39
830.542	104.45
830.719	43.01
830.896	34.82
831.073	34.82
831.25	83.97
831.427	124.93
831.604	51.2
831.782	36.86
831.959	-18.43
832.136	67.58
832.313	92.16
832.49	90.11
832.667	98.3
832.844	69.63
833.021	124.93
833.198	-26.62
833.374	53.25
833.551	43.01
833.728	36.86
833.905	22.53
834.082	34.82
834.259	110.59
834.436	116.73
834.612	94.21
834.789	96.25
834.966	34.82
835.143	98.3
835.319	2.05
835.496	40.96
835.673	12.29
835.85	106.49
836.026	65.53
836.203	133.12
836.38	12.29
836.556	65.53
836.733	129.02
836.909	-2.05
837.086	59.39
837.262	28.67
837.439	43.01
837.616	79.87
837.792	51.2
837.968	116.73
838.145	67.58
838.321	90.11
838.498	40.96
838.674	12.29
838.851	61.44
839.027	-24.58
839.203	40.96
839.38	30.72
839.556	22.53
839.732	49.15
839.909	18.43
840.085	86.01
840.261	-24.58
840.437	-8.19
840.614	40.96
840.79	94.21
840.966	22.53
841.142	18.43
841.318	126.97
841.494	98.3
841.671	59.39
841.847	45.06
842.023	151.55
842.199	32.77
842.375	8.19
842.551	40.96
842.727	-10.24
842.903	108.54
843.079	32.77
843.255	36.86
843.431	8.19
843.607	38.91
843.783	73.73
843.959	55.3
844.134	34.82
844.31	114.69
844.486	6.14
844.662	116.73
844.838	10.24
845.013	51.2
845.189	86.01
845.365	102.4
845.541	36.86
845.716	8.19
845.892	51.2
846.068	83.97
846.244	59.39
846.419	49.15
846.595	45.06
846.77	-8.19
846.946	57.34
847.122	53.25
847.297	14.34
847.473	67.58
847.648	90.11
847.824	102.4
847.999	24.58
848.175	36.86
848.35	55.3
848.526	32.77
848.701	43.01
848.876	65.53
849.052	43.01
849.227	131.07
849.403	67.58
849.578	0
849.753	98.3
849.929	30.72
850.104	104.45
850.279	2.05
850.454	43.01
850.63	100.35
850.805	4.1
850.98	22.53
851.155	26.62
851.33	24.58
851.505	6.14
851.681	-6.14
851.856	47.1
852.031	57.34
852.206	18.43
852.381	51.2
852.556	69.63
852.731	-2.05
852.906	24.58
853.081	-6.14
853.256	34.82
853.431	108.54
853.606	53.25
853.781	108.54
853.956	47.1
854.131	36.86
854.305	-49.15
854.48	-2.05
854.655	57.34
854.83	-8.19
855.005	26.62
855.18	61.44
855.354	-20.48
855.529	49.15
855.704	40.96
855.879	22.53
856.053	16.38
856.228	43.01
856.403	47.1
856.577	20.48
856.752	49.15
856.926	-24.58
857.101	73.73
857.276	10.24
857.45	-12.29
857.625	36.86
857.799	69.63
857.974	32.77
858.148	57.34
858.323	45.06
858.497	45.06
858.672	47.1
858.846	-16.38
859.02	0
859.195	12.29
859.369	8.19
859.543	-32.77
859.718	8.19
859.892	2.05
860.066	88.06
860.241	53.25
860.415	-18.43
860.589	4.1
860.763	-18.43
860.938	-34.82
861.112	51.2
861.286	73.73
861.46	59.39
861.634	28.67
861.808	30.72
861.982	-12.29
862.157	45.06
862.331	-8.19
862.505	38.91
862.679	47.1
862.853	51.2
863.027	-4.1
863.201	81.92
863.375	14.34
863.549	-2.05
863.722	-59.39
863.896	34.82
864.07	26.62
864.244	59.39
864.418	-4.1
864.592	14.34
864.766	26.62
864.939	-28.67
865.113	24.58
865.287	36.86
865.461	-55.3
865.634	65.53
865.808	49.15
865.982	94.21
866.156	55.3
866.329	14.34
866.503	77.82
866.676	26.62
866.85	-8.19
867.024	-4.1
867.197	57.34
867.371	73.73
867.544	65.53
867.718	20.48
867.891	-28.67
868.065	53.25
868.238	2.05
868.412	47.1
868.585	86.01
868.759	83.97
868.932	-6.14
869.105	34.82
869.279	59.39
869.452	51.2
869.625	-10.24
869.799	45.06
869.972	49.15
870.145	51.2
870.319	34.82
870.492	6.14
870.665	53.25
870.838	-30.72
871.011	6.14
871.185	26.62
871.358	38.91
871.531	-20.48
871.704	77.82
871.877	-16.38
872.05	-10.24
872.223	49.15
872.396	92.16
872.569	12.29
872.742	34.82
872.915	43.01
873.088	-65.54
873.261	4.1
873.434	47.1
873.607	4.1
873.78	38.91
873.953	0
874.126	-4.1
874.299	6.14
874.471	-67.58
874.644	-12.29
874.817	75.77
874.99	24.58
875.163	16.38
875.335	116.73
875.508	106.49
875.681	24.58
875.853	40.96
876.026	26.62
876.199	28.67
876.371	32.77
876.544	-8.19
876.717	16.38
876.889	30.72
877.062	24.58
877.234	20.48
877.407	2.05
877.579	8.19
877.752	-67.58
877.924	-10.24
878.097	67.58
878.269	51.2
878.442	49.15
878.614	-16.38
878.786	26.62
878.959	32.77
879.131	36.86
879.303	-8.19
879.476	77.82
879.648	18.43
879.82	12.29
879.993	36.86
880.165	53.25
880.337	-12.29
880.509	-34.82
880.681	10.24
880.854	73.73
881.026	49.15
881.198	51.2
881.37	-51.2
881.542	38.91
881.714	12.29
881.886	2.05
882.058	51.2
882.23	71.68
882.402	40.96
882.574	-4.1
882.746	45.06
882.918	10.24
883.09	20.48
883.262	36.86
883.434	38.91
883.606	0
883.778	16.38
883.95	26.62
884.122	-22.53
884.293	104.45
884.465	14.34
884.637	57.34
884.809	43.01
884.98	110.59
885.152	-22.53
885.324	122.88
885.496	73.73
885.667	71.68
885.839	-32.77
886.011	45.06
886.182	-38.91
886.354	-2.05
886.525	12.29
886.697	-32.77
886.869	-14.34
887.04	-14.34
887.212	-16.38
887.383	-4.1
887.555	45.06
887.726	12.29
887.897	30.72
888.069	67.58
888.24	-22.53
888.412	-16.38
888.583	14.34
888.754	22.53
888.926	-6.14
889.097	-24.58
889.268	-20.48
889.44	14.34
889.611	-20.48
889.782	-22.53
889.953	12.29
890.125	-10.24
890.296	20.48
890.467	18.43
890.638	51.2
890.809	-4.1
890.98	61.44
891.151	-26.62
891.323	-45.06
891.494	57.34
891.665	-18.43
891.836	12.29
892.007	-16.38
892.178	110.59
892.349	30.72
892.52	26.62
892.691	-8.19
892.862	-6.14
893.032	47.1
893.203	75.77
893.374	34.82
893.545	10.24
893.716	-4.1
893.887	-6.14
894.057	40.96
894.228	-6.14
894.399	-20.48
894.57	63.49
894.74	8.19
894.911	73.73
895.082	20.48
895.253	28.67
895.423	-20.48
895.594	12.29
895.764	4.1
895.935	67.58
896.106	59.39
896.276	28.67
896.447	20.48
896.617	18.43
896.788	28.67
896.958	4.1
897.129	49.15
897.299	26.62
897.47	53.25
897.64	61.44
897.81	-28.67
897.981	34.82
898.151	-18.43
898.322	10.24
898.492	2.05
898.662	65.53
898.832	-63.49
899.003	38.91
899.173	67.58
899.343	14.34
899.513	-22.53
