Data from USB4F104151__70__13-53-55-474.txt Node

Date: Thu Mar 13 13:53:55 EDT 2025
User: louis
Spectrometer: USB4F10415
Trigger mode: 4
Integration Time (sec): 1.000000E-2
Scans to average: 1
Electric dark correction enabled: true
Nonlinearity correction enabled: false
Boxcar width: 0
XAxis mode: Wavelengths
Number of Pixels in Spectrum: 3648
>>>>>Begin Spectral Data<<<<<
178.204	-27.65
178.424	-27.65
178.644	-27.65
178.864	-21.5
179.084	-35.84
179.304	21.5
179.524	25.6
179.744	-13.31
179.964	13.31
180.184	-41.98
180.404	3.07
180.624	11.26
180.844	-27.65
181.064	21.5
181.283	11.26
181.503	-7.17
181.723	-17.41
181.943	-27.65
182.163	89.09
182.383	29.7
182.602	-1.02
182.822	-19.46
183.042	17.41
183.262	37.89
183.482	-31.74
183.701	-13.31
183.921	13.31
184.141	-7.17
184.361	-7.17
184.58	23.55
184.8	37.89
185.02	68.61
185.239	44.03
185.459	-23.55
185.679	-37.89
185.898	17.41
186.118	-21.5
186.338	-5.12
186.557	11.26
186.777	-5.12
186.997	11.26
187.216	-19.46
187.436	95.23
187.655	37.89
187.875	27.65
188.095	-46.08
188.314	-3.07
188.534	1.02
188.753	-3.07
188.973	37.89
189.192	13.31
189.412	-11.26
189.631	23.55
189.851	-7.17
190.07	78.85
190.29	-13.31
190.509	-41.98
190.729	-74.75
190.948	35.84
191.168	27.65
191.387	-11.26
191.607	-44.03
191.826	29.7
192.045	-58.37
192.265	-80.89
192.484	-80.89
192.704	9.22
192.923	-25.6
193.142	50.18
193.362	-19.46
193.581	-7.17
193.8	1.02
194.02	-1.02
194.239	5.12
194.458	-5.12
194.678	-91.13
194.897	-15.36
195.116	-76.8
195.335	9.22
195.555	13.31
195.774	27.65
195.993	-3.07
196.212	27.65
196.432	3.07
196.651	-35.84
196.87	-48.13
197.089	48.13
197.308	50.18
197.528	80.89
197.747	19.46
197.966	25.6
198.185	31.74
198.404	-19.46
198.623	-21.5
198.842	-78.85
199.062	89.09
199.281	123.9
199.5	-41.98
199.719	46.08
199.938	-9.22
200.157	-15.36
200.376	-9.22
200.595	41.98
200.814	13.31
201.033	-7.17
201.252	17.41
201.471	-11.26
201.69	44.03
201.909	-41.98
202.128	15.36
202.347	17.41
202.566	-29.7
202.785	-52.22
203.004	15.36
203.223	39.94
203.442	-60.42
203.661	-54.27
203.879	33.79
204.098	5.12
204.317	15.36
204.536	-13.31
204.755	-11.26
204.974	25.6
205.193	70.65
205.411	5.12
205.63	-13.31
205.849	-66.56
206.068	-48.13
206.287	-11.26
206.505	13.31
206.724	27.65
206.943	62.46
207.162	-35.84
207.381	56.32
207.599	-7.17
207.818	48.13
208.037	-29.7
208.255	21.5
208.474	1.02
208.693	-25.6
208.911	-19.46
209.13	60.42
209.349	44.03
209.567	-52.22
209.786	-5.12
210.005	-25.6
210.223	29.7
210.442	-31.74
210.661	64.51
210.879	19.46
211.098	64.51
211.316	19.46
211.535	-23.55
211.753	-27.65
211.972	39.94
212.191	-39.94
212.409	17.41
212.628	76.8
212.846	-5.12
213.065	91.13
213.283	-7.17
213.502	-68.61
213.72	27.65
213.938	31.74
214.157	7.17
214.375	-44.03
214.594	-5.12
214.812	17.41
215.031	9.22
215.249	58.37
215.467	-13.31
215.686	11.26
215.904	-9.22
216.122	1.02
216.341	-3.07
216.559	-1.02
216.778	-5.12
216.996	58.37
217.214	-19.46
217.432	-19.46
217.651	-17.41
217.869	35.84
218.087	11.26
218.306	-5.12
218.524	-5.12
218.742	-25.6
218.96	13.31
219.179	-64.51
219.397	25.6
219.615	33.79
219.833	-15.36
220.051	-21.5
220.27	-19.46
220.488	128
220.706	-1.02
220.924	7.17
221.142	1.02
221.36	-39.94
221.578	-1.02
221.796	-62.46
222.015	29.7
222.233	-46.08
222.451	62.46
222.669	-56.32
222.887	52.22
223.105	5.12
223.323	27.65
223.541	-29.7
223.759	58.37
223.977	33.79
224.195	54.27
224.413	-15.36
224.631	78.85
224.849	48.13
225.067	25.6
225.285	-15.36
225.503	-23.55
225.721	-17.41
225.939	-7.17
226.157	41.98
226.375	66.56
226.592	-15.36
226.81	11.26
227.028	70.65
227.246	-17.41
227.464	5.12
227.682	72.7
227.9	-13.31
228.117	21.5
228.335	21.5
228.553	15.36
228.771	-11.26
228.989	-5.12
229.206	27.65
229.424	-1.02
229.642	13.31
229.86	27.65
230.077	-3.07
230.295	50.18
230.513	-25.6
230.731	87.04
230.948	13.31
231.166	11.26
231.384	-84.99
231.601	7.17
231.819	15.36
232.037	-52.22
232.254	-72.7
232.472	-39.94
232.689	-31.74
232.907	39.94
233.125	-68.61
233.342	9.22
233.56	-17.41
233.777	-5.12
233.995	7.17
234.213	-35.84
234.43	89.09
234.648	21.5
234.865	-7.17
235.083	-3.07
235.3	99.33
235.518	134.14
235.735	-111.61
235.953	58.37
236.17	21.5
236.388	13.31
236.605	-9.22
236.822	50.18
237.04	3.07
237.257	121.85
237.475	-60.42
237.692	-46.08
237.909	101.37
238.127	-9.22
238.344	-39.94
238.562	37.89
238.779	27.65
238.996	-44.03
239.214	27.65
239.431	-11.26
239.648	-70.65
239.865	91.13
240.083	9.22
240.3	3.07
240.517	-21.5
240.735	13.31
240.952	41.98
241.169	7.17
241.386	58.37
241.603	1.02
241.821	11.26
242.038	-21.5
242.255	52.22
242.472	-9.22
242.689	48.13
242.907	11.26
243.124	-5.12
243.341	35.84
243.558	-9.22
243.775	-11.26
243.992	-74.75
244.209	3.07
244.426	-11.26
244.643	1.02
244.86	25.6
245.078	37.89
245.295	-54.27
245.512	62.46
245.729	-29.7
245.946	13.31
246.163	66.56
246.38	35.84
246.597	13.31
246.814	-50.18
247.031	37.89
247.248	31.74
247.464	-54.27
247.681	13.31
247.898	56.32
248.115	-9.22
248.332	-1.02
248.549	62.46
248.766	66.56
248.983	-11.26
249.2	21.5
249.417	9.22
249.633	99.33
249.85	95.23
250.067	-72.7
250.284	3.07
250.501	9.22
250.717	-39.94
250.934	-13.31
251.151	25.6
251.368	41.98
251.585	31.74
251.801	13.31
252.018	-52.22
252.235	7.17
252.451	-11.26
252.668	7.17
252.885	-93.18
253.102	-5.12
253.318	11.26
253.535	-76.8
253.752	56.32
253.968	-25.6
254.185	-19.46
254.401	27.65
254.618	52.22
254.835	11.26
255.051	23.55
255.268	-72.7
255.484	-27.65
255.701	1.02
255.917	44.03
256.134	33.79
256.351	23.55
256.567	-54.27
256.784	25.6
257	29.7
257.217	33.79
257.433	19.46
257.65	19.46
257.866	7.17
258.082	35.84
258.299	29.7
258.515	17.41
258.732	33.79
258.948	-23.55
259.165	5.12
259.381	5.12
259.597	-50.18
259.814	58.37
260.03	11.26
260.246	-29.7
260.463	46.08
260.679	-27.65
260.895	35.84
261.112	64.51
261.328	44.03
261.544	-5.12
261.761	-1.02
261.977	-64.51
262.193	-54.27
262.409	35.84
262.626	-17.41
262.842	31.74
263.058	-15.36
263.274	56.32
263.49	-31.74
263.707	78.85
263.923	-11.26
264.139	-9.22
264.355	52.22
264.571	50.18
264.787	15.36
265.004	19.46
265.22	27.65
265.436	9.22
265.652	58.37
265.868	27.65
266.084	-1.02
266.3	25.6
266.516	7.17
266.732	44.03
266.948	-19.46
267.164	64.51
267.38	17.41
267.596	21.5
267.812	25.6
268.028	-5.12
268.244	25.6
268.46	-41.98
268.676	31.74
268.892	54.27
269.108	11.26
269.324	3.07
269.54	13.31
269.756	70.65
269.972	-33.79
270.188	-25.6
270.403	-31.74
270.619	-19.46
270.835	29.7
271.051	89.09
271.267	-27.65
271.483	-17.41
271.698	68.61
271.914	-31.74
272.13	13.31
272.346	-9.22
272.562	29.7
272.777	39.94
272.993	-13.31
273.209	101.37
273.425	31.74
273.64	23.55
273.856	-11.26
274.072	-25.6
274.287	3.07
274.503	-13.31
274.719	-19.46
274.934	15.36
275.15	19.46
275.366	17.41
275.581	101.37
275.797	97.28
276.012	-11.26
276.228	-1.02
276.444	-17.41
276.659	56.32
276.875	13.31
277.09	44.03
277.306	-7.17
277.521	7.17
277.737	15.36
277.952	-29.7
278.168	25.6
278.383	-13.31
278.599	-11.26
278.814	-41.98
279.03	-23.55
279.245	91.13
279.461	-15.36
279.676	99.33
279.892	-7.17
280.107	3.07
280.322	142.33
280.538	-80.89
280.753	-7.17
280.969	-1.02
281.184	-17.41
281.399	46.08
281.615	-25.6
281.83	48.13
282.045	5.12
282.26	31.74
282.476	50.18
282.691	9.22
282.906	3.07
283.122	44.03
283.337	9.22
283.552	33.79
283.767	37.89
283.983	19.46
284.198	1.02
284.413	60.42
284.628	5.12
284.843	-60.42
285.058	27.65
285.274	56.32
285.489	74.75
285.704	56.32
285.919	5.12
286.134	-21.5
286.349	72.7
286.564	23.55
286.779	62.46
286.995	-19.46
287.21	21.5
287.425	-39.94
287.64	-17.41
287.855	11.26
288.07	-52.22
288.285	-17.41
288.5	25.6
288.715	-7.17
288.93	-21.5
289.145	52.22
289.36	-50.18
289.575	-13.31
289.79	-15.36
290.004	-33.79
290.219	-25.6
290.434	-19.46
290.649	27.65
290.864	3.07
291.079	-3.07
291.294	64.51
291.509	-15.36
291.724	19.46
291.938	31.74
292.153	1.02
292.368	25.6
292.583	-21.5
292.798	15.36
293.012	-3.07
293.227	33.79
293.442	-44.03
293.657	11.26
293.871	-35.84
294.086	3.07
294.301	109.57
294.516	17.41
294.73	11.26
294.945	27.65
295.16	-15.36
295.374	21.5
295.589	125.95
295.804	-33.79
296.018	-44.03
296.233	70.65
296.447	9.22
296.662	29.7
296.877	19.46
297.091	-13.31
297.306	52.22
297.52	-25.6
297.735	66.56
297.949	46.08
298.164	15.36
298.378	-56.32
298.593	7.17
298.807	-13.31
299.022	-27.65
299.236	48.13
299.451	33.79
299.665	-7.17
299.88	78.85
300.094	5.12
300.309	101.37
300.523	25.6
300.737	-7.17
300.952	37.89
301.166	-50.18
301.381	-23.55
301.595	-5.12
301.809	-7.17
302.024	-3.07
302.238	-17.41
302.452	64.51
302.667	-37.89
302.881	21.5
303.095	-62.46
303.309	13.31
303.524	-17.41
303.738	-21.5
303.952	-23.55
304.166	41.98
304.381	-15.36
304.595	29.7
304.809	-1.02
305.023	35.84
305.237	15.36
305.452	9.22
305.666	-5.12
305.88	1.02
306.094	-23.55
306.308	7.17
306.522	1.02
306.736	1.02
306.95	-58.37
307.164	-23.55
307.379	58.37
307.593	17.41
307.807	19.46
308.021	7.17
308.235	7.17
308.449	11.26
308.663	56.32
308.877	78.85
309.091	9.22
309.305	-44.03
309.519	37.89
309.733	76.8
309.947	-74.75
310.161	82.94
310.374	35.84
310.588	52.22
310.802	3.07
311.016	46.08
311.23	-1.02
311.444	17.41
311.658	-39.94
311.872	-58.37
312.085	9.22
312.299	60.42
312.513	17.41
312.727	25.6
312.941	48.13
313.154	7.17
313.368	-7.17
313.582	-39.94
313.796	-19.46
314.009	44.03
314.223	13.31
314.437	-29.7
314.651	-5.12
314.864	60.42
315.078	58.37
315.292	23.55
315.505	29.7
315.719	-37.89
315.933	11.26
316.146	-1.02
316.36	44.03
316.573	37.89
316.787	5.12
317.001	-37.89
317.214	-62.46
317.428	5.12
317.641	5.12
317.855	48.13
318.068	-29.7
318.282	-29.7
318.495	50.18
318.709	3.07
318.922	-15.36
319.136	56.32
319.349	89.09
319.563	5.12
319.776	-35.84
319.99	29.7
320.203	17.41
320.417	-56.32
320.63	-31.74
320.843	48.13
321.057	17.41
321.27	17.41
321.483	-50.18
321.697	41.98
321.91	-66.56
322.124	-7.17
322.337	-11.26
322.55	3.07
322.763	58.37
322.977	76.8
323.19	-17.41
323.403	-52.22
323.617	-33.79
323.83	9.22
324.043	-27.65
324.256	1.02
324.469	-17.41
324.683	7.17
324.896	-15.36
325.109	23.55
325.322	44.03
325.535	-9.22
325.748	-66.56
325.962	-7.17
326.175	21.5
326.388	50.18
326.601	44.03
326.814	-9.22
327.027	39.94
327.24	68.61
327.453	21.5
327.666	39.94
327.879	3.07
328.092	13.31
328.305	-3.07
328.518	-17.41
328.731	-11.26
328.944	-23.55
329.157	1.02
329.37	-11.26
329.583	27.65
329.796	-58.37
330.009	-35.84
330.222	41.98
330.435	78.85
330.648	19.46
330.861	-7.17
331.073	115.71
331.286	52.22
331.499	50.18
331.712	-29.7
331.925	17.41
332.138	-19.46
332.35	31.74
332.563	29.7
332.776	52.22
332.989	-33.79
333.202	50.18
333.414	-84.99
333.627	44.03
333.84	1.02
334.053	13.31
334.265	-7.17
334.478	41.98
334.691	17.41
334.903	9.22
335.116	17.41
335.329	33.79
335.541	-35.84
335.754	19.46
335.966	-5.12
336.179	33.79
336.392	-5.12
336.604	-1.02
336.817	48.13
337.029	29.7
337.242	11.26
337.454	29.7
337.667	13.31
337.88	95.23
338.092	46.08
338.305	17.41
338.517	-9.22
338.729	19.46
338.942	58.37
339.154	-29.7
339.367	-25.6
339.579	46.08
339.792	-1.02
340.004	11.26
340.217	27.65
340.429	-7.17
340.641	-19.46
340.854	9.22
341.066	-68.61
341.278	3.07
341.491	1.02
341.703	-19.46
341.915	13.31
342.128	-23.55
342.34	29.7
342.552	-37.89
342.764	31.74
342.977	3.07
343.189	27.65
343.401	35.84
343.613	21.5
343.826	1.02
344.038	-109.57
344.25	-23.55
344.462	48.13
344.674	9.22
344.886	-41.98
345.099	76.8
345.311	54.27
345.523	1.02
345.735	15.36
345.947	-1.02
346.159	17.41
346.371	15.36
346.583	33.79
346.795	7.17
347.007	17.41
347.219	33.79
347.431	-46.08
347.643	80.89
347.855	37.89
348.067	-58.37
348.279	-7.17
348.491	56.32
348.703	27.65
348.915	15.36
349.127	-46.08
349.339	-1.02
349.551	23.55
349.763	-62.46
349.975	15.36
350.187	44.03
350.399	-3.07
350.61	82.94
350.822	23.55
351.034	29.7
351.246	72.7
351.458	29.7
351.669	33.79
351.881	35.84
352.093	-5.12
352.305	-13.31
352.517	-56.32
352.728	37.89
352.94	-41.98
353.152	37.89
353.363	-25.6
353.575	74.75
353.787	52.22
353.999	13.31
354.21	-29.7
354.422	-3.07
354.633	-1.02
354.845	74.75
355.057	7.17
355.268	35.84
355.48	-9.22
355.692	15.36
355.903	-21.5
356.115	-62.46
356.326	11.26
356.538	68.61
356.749	39.94
356.961	21.5
357.172	39.94
357.384	-27.65
357.595	56.32
357.807	44.03
358.018	3.07
358.23	-52.22
358.441	-27.65
358.653	-1.02
358.864	17.41
359.075	-1.02
359.287	-21.5
359.498	33.79
359.709	35.84
359.921	35.84
360.132	52.22
360.344	37.89
360.555	-23.55
360.766	-21.5
360.977	44.03
361.189	7.17
361.4	29.7
361.611	29.7
361.823	13.31
362.034	15.36
362.245	17.41
362.456	33.79
362.667	-7.17
362.879	37.89
363.09	76.8
363.301	-31.74
363.512	-37.89
363.723	9.22
363.935	29.7
364.146	-3.07
364.357	33.79
364.568	15.36
364.779	25.6
364.99	89.09
365.201	-1.02
365.412	50.18
365.623	31.74
365.834	41.98
366.045	19.46
366.256	66.56
366.467	-13.31
366.678	-17.41
366.889	74.75
367.1	76.8
367.311	13.31
367.522	48.13
367.733	-31.74
367.944	115.71
368.155	-35.84
368.366	84.99
368.577	-27.65
368.788	95.23
368.999	-35.84
369.209	19.46
369.42	-15.36
369.631	-33.79
369.842	35.84
370.053	-39.94
370.264	19.46
370.474	-9.22
370.685	33.79
370.896	56.32
371.107	29.7
371.317	-3.07
371.528	-25.6
371.739	-13.31
371.95	-3.07
372.16	29.7
372.371	-11.26
372.582	31.74
372.792	37.89
373.003	17.41
373.214	-5.12
373.424	3.07
373.635	33.79
373.846	35.84
374.056	11.26
374.267	-11.26
374.477	64.51
374.688	-37.89
374.898	37.89
375.109	48.13
375.319	13.31
375.53	11.26
375.74	-1.02
375.951	25.6
376.161	-29.7
376.372	44.03
376.582	5.12
376.793	-19.46
377.003	17.41
377.214	17.41
377.424	48.13
377.635	35.84
377.845	56.32
378.055	9.22
378.266	56.32
378.476	91.13
378.686	3.07
378.897	84.99
379.107	15.36
379.317	105.47
379.528	37.89
379.738	1.02
379.948	5.12
380.158	44.03
380.369	-37.89
380.579	54.27
380.789	1.02
380.999	72.7
381.21	11.26
381.42	21.5
381.63	-17.41
381.84	58.37
382.05	-1.02
382.261	33.79
382.471	27.65
382.681	50.18
382.891	-17.41
383.101	25.6
383.311	-25.6
383.521	9.22
383.731	9.22
383.941	25.6
384.151	35.84
384.361	-37.89
384.571	33.79
384.781	19.46
384.991	-25.6
385.201	-3.07
385.411	-11.26
385.621	-1.02
385.831	-7.17
386.041	15.36
386.251	27.65
386.461	37.89
386.671	9.22
386.881	31.74
387.091	66.56
387.301	50.18
387.511	1.02
387.72	3.07
387.93	-3.07
388.14	-9.22
388.35	-5.12
388.56	52.22
388.769	-54.27
388.979	3.07
389.189	15.36
389.399	-39.94
389.609	52.22
389.818	62.46
390.028	-5.12
390.238	44.03
390.447	-19.46
390.657	50.18
390.867	15.36
391.076	21.5
391.286	-27.65
391.496	23.55
391.705	31.74
391.915	144.38
392.125	82.94
392.334	-23.55
392.544	27.65
392.753	9.22
392.963	7.17
393.172	-17.41
393.382	29.7
393.591	-3.07
393.801	13.31
394.01	-17.41
394.22	33.79
394.429	13.31
394.639	11.26
394.848	56.32
395.058	13.31
395.267	-21.5
395.477	56.32
395.686	64.51
395.895	-11.26
396.105	84.99
396.314	48.13
396.524	52.22
396.733	-1.02
396.942	58.37
397.152	97.28
397.361	54.27
397.57	27.65
397.78	72.7
397.989	29.7
398.198	46.08
398.407	19.46
398.617	46.08
398.826	39.94
399.035	103.42
399.244	66.56
399.453	44.03
399.663	64.51
399.872	66.56
400.081	37.89
400.29	111.61
400.499	31.74
400.708	62.46
400.917	11.26
401.127	64.51
401.336	72.7
401.545	39.94
401.754	44.03
401.963	54.27
402.172	39.94
402.381	29.7
402.59	68.61
402.799	46.08
403.008	17.41
403.217	52.22
403.426	41.98
403.635	48.13
403.844	-7.17
404.053	37.89
404.262	29.7
404.471	111.61
404.68	62.46
404.888	82.94
405.097	68.61
405.306	-17.41
405.515	97.28
405.724	52.22
405.933	74.75
406.142	97.28
406.35	56.32
406.559	64.51
406.768	31.74
406.977	44.03
407.185	37.89
407.394	9.22
407.603	23.55
407.812	89.09
408.02	66.56
408.229	80.89
408.438	64.51
408.646	162.81
408.855	136.19
409.064	130.05
409.272	121.85
409.481	111.61
409.69	148.48
409.898	105.47
410.107	156.67
410.315	144.38
410.524	97.28
410.733	119.81
410.941	113.66
411.15	185.34
411.358	187.39
411.567	162.81
411.775	181.25
411.984	185.34
412.192	140.29
412.401	185.34
412.609	293.88
412.818	128
413.026	254.97
413.234	218.11
413.443	252.92
413.651	158.72
413.86	252.92
414.068	259.07
414.276	287.74
414.485	248.83
414.693	289.79
414.901	295.93
415.11	316.41
415.318	386.04
415.526	226.3
415.734	334.84
415.943	338.94
416.151	394.23
416.359	326.65
416.567	388.09
416.776	375.8
416.984	418.81
417.192	406.52
417.4	457.72
417.608	416.76
417.817	420.86
418.025	412.67
418.233	486.39
418.441	547.83
418.649	525.3
418.857	584.7
419.065	547.83
419.273	498.68
419.481	617.46
419.689	629.75
419.897	660.47
420.105	639.99
420.313	672.76
420.521	709.62
420.729	637.94
420.937	760.82
421.145	824.31
421.353	857.07
421.561	916.47
421.769	877.55
421.977	1004.53
422.185	842.74
422.393	877.55
422.601	986.1
422.809	1090.54
423.017	1012.72
423.224	1014.77
423.432	1078.26
423.64	969.71
423.848	1143.79
424.056	1229.81
424.263	1227.76
424.471	1270.76
424.679	1215.47
424.887	1344.49
425.094	1360.88
425.302	1424.36
425.51	1530.86
425.718	1489.9
425.925	1502.19
426.133	1467.37
426.341	1606.63
426.548	1844.2
426.756	1696.74
426.964	1829.86
427.171	1872.87
427.379	1981.41
427.586	1881.06
427.794	1965.03
428.001	2040.8
428.209	2198.49
428.417	2042.85
428.624	2278.37
428.832	2231.26
429.039	2264.03
429.247	2282.46
429.454	2628.57
429.662	2626.52
429.869	2460.63
430.076	2632.66
430.284	2532.31
430.491	2730.97
430.699	2868.18
430.906	2880.47
431.114	2970.58
431.321	2907.09
431.528	2989.01
431.736	3429.32
431.943	3361.74
432.15	3296.21
432.358	3388.36
432.565	3521.48
432.772	3541.96
432.979	3763.14
433.187	3718.09
433.394	3720.14
433.601	3996.61
433.808	3961.8
434.016	3963.84
434.223	4172.74
434.43	4385.73
434.637	4318.14
434.844	4582.33
435.052	4701.11
435.259	4541.37
435.466	4713.4
435.673	4680.63
435.88	4961.2
436.087	5237.68
436.294	5088.18
436.501	5110.71
436.708	5100.47
436.915	5323.69
437.122	5561.26
437.329	5591.98
437.537	5690.28
437.743	5933.99
437.95	5794.73
438.157	6116.26
438.364	6335.39
438.571	6288.29
438.778	6253.47
438.985	6927.25
439.192	6532
439.399	6947.73
439.606	6779.8
439.813	7091.09
440.02	7441.29
440.227	7293.84
440.433	7422.86
440.64	7416.72
440.847	7330.7
441.054	7578.51
441.261	8129.41
441.467	8022.92
441.674	8379.26
441.881	8506.24
442.088	8528.77
442.294	8590.2
442.501	8743.8
442.708	8840.06
442.914	9259.89
443.121	9708.4
443.328	9280.37
443.534	9945.96
443.741	9735.02
443.948	9335.67
444.154	10324.83
444.361	10234.72
444.568	10527.58
444.774	10376.03
444.981	10515.3
445.187	10783.58
445.394	11053.91
445.6	11127.64
445.807	12204.87
446.013	11682.64
446.22	11791.18
446.426	12096.33
446.633	12411.71
446.839	12809.02
447.046	12133.19
447.252	13030.2
447.459	12948.28
447.665	13157.18
447.871	13505.33
448.078	13994.79
448.284	13368.12
448.491	13833
448.697	14160.68
448.903	14613.28
449.11	14408.48
449.316	14304.04
449.522	14570.27
449.728	15074.07
449.935	15082.27
450.141	15086.36
450.347	15418.13
450.553	15201.05
450.76	15115.03
450.966	15581.97
451.172	15553.3
451.378	15774.48
451.584	15362.84
451.791	15508.24
451.997	15610.64
452.203	15807.25
452.409	16016.14
452.615	15655.7
452.821	15317.78
453.027	15334.17
453.233	16050.96
453.44	15221.53
453.646	15717.14
453.852	15297.3
454.058	15876.88
454.264	14992.16
454.47	15635.22
454.676	15174.42
454.882	15524.63
455.088	14422.82
455.294	14684.96
455.5	14891.8
455.705	14689.06
455.911	14328.61
456.117	13968.17
456.323	13800.24
456.529	13148.98
456.735	13527.86
456.941	13128.5
457.147	13050.68
457.352	12723.01
457.558	12528.45
457.764	12444.48
457.97	12188.49
458.176	12030.79
458.381	11860.81
458.587	11397.97
458.793	11600.72
458.999	11152.21
459.204	11535.18
459.41	11238.23
459.616	10492.77
459.821	10632.03
460.027	10636.13
460.233	10208.1
460.438	9798.51
460.644	9948.01
460.85	9300.85
461.055	9364.34
461.261	9352.05
461.466	8590.2
461.672	8221.57
461.878	8911.74
462.083	8518.53
462.289	8027.01
462.494	8139.65
462.7	7777.16
462.905	7658.38
463.111	7822.22
463.316	7807.88
463.522	7629.71
463.727	7721.87
463.932	7779.21
464.138	7660.43
464.343	7674.76
464.549	7404.43
464.754	7541.64
464.959	7646.09
465.165	7472.01
465.37	7263.12
465.575	6925.21
465.781	7586.7
465.986	7388.05
466.191	7299.98
466.397	6935.45
466.602	6632.35
466.807	6910.87
467.012	7136.15
467.218	6921.11
467.423	6695.83
467.628	6779.8
467.833	7021.46
468.038	6747.03
468.244	6501.28
468.449	6689.69
468.654	6683.55
468.859	6769.56
469.064	6632.35
469.269	6378.4
469.474	6409.12
469.679	6501.28
469.885	6247.33
470.09	6374.3
470.295	6400.93
470.5	6224.8
470.705	6124.45
470.91	6089.64
471.115	6124.45
471.32	6103.97
471.525	6081.44
471.73	5960.61
471.935	5933.99
472.139	5802.92
472.344	5909.41
472.549	5749.67
472.754	5714.86
472.959	5548.97
473.164	5475.24
473.369	5428.14
473.574	5604.27
473.778	5471.15
473.983	5417.9
474.188	5391.28
474.393	5225.39
474.598	5295.02
474.802	5266.35
475.007	5094.32
475.212	5112.75
475.417	5030.84
475.621	4955.06
475.826	4981.68
476.031	4834.23
476.235	4799.41
476.44	4959.16
476.645	4791.22
476.849	4846.52
477.054	4733.88
477.259	4672.44
477.463	4570.04
477.668	4580.28
477.872	4606.91
478.077	4533.18
478.282	4400.06
478.486	4559.8
478.691	4461.5
478.895	4430.78
479.1	4262.85
479.304	4293.57
479.509	4221.89
479.713	4344.77
479.918	4199.36
480.122	4033.47
480.326	4207.55
480.531	4254.66
480.735	4199.36
480.94	4131.78
481.144	4328.38
481.348	3953.6
481.553	4221.89
481.757	4029.38
481.961	4045.76
482.166	4109.25
482.37	4172.74
482.574	4041.67
482.778	4023.23
482.983	4074.43
483.187	4010.95
483.391	4139.97
483.595	4035.52
483.8	4017.09
484.004	4131.78
484.208	4068.29
484.412	3978.18
484.616	4074.43
484.821	4174.78
485.025	4008.9
485.229	4051.91
485.433	4002.75
485.637	4158.4
485.841	4076.48
486.045	4172.74
486.249	4027.33
486.453	3978.18
486.657	4152.26
486.861	4051.91
487.065	3935.17
487.269	4033.47
487.473	4027.33
487.677	4037.57
487.881	4148.16
488.085	4053.95
488.289	4094.91
488.493	4078.53
488.697	4101.06
488.901	4127.68
489.105	4084.67
489.309	4115.39
489.512	4289.47
489.716	4178.88
489.92	4113.35
490.124	4025.28
490.328	4072.39
490.531	4129.73
490.735	4086.72
490.939	4176.83
491.143	4314.05
491.346	4185.02
491.55	4162.5
491.754	4242.37
491.958	4359.1
492.161	4180.93
492.365	4369.34
492.569	4266.94
492.772	4410.3
492.976	4375.49
493.18	4334.53
493.383	4367.29
493.587	4479.93
493.79	4537.27
493.994	4506.56
494.197	4570.04
494.401	4707.26
494.605	4567.99
494.808	4762.55
495.012	4619.19
495.215	4529.08
495.419	4692.92
495.622	4811.7
495.825	4930.48
496.029	4799.41
496.232	4971.44
496.436	4907.96
496.639	5079.99
496.843	5032.88
497.046	5043.12
497.249	5278.64
497.453	5260.21
497.656	5258.16
497.859	5276.59
498.063	5274.54
498.266	5395.37
498.469	5538.73
498.673	5458.86
498.876	5667.75
499.079	5612.46
499.282	5684.14
499.485	5753.77
499.689	5741.48
499.892	5905.32
500.095	5952.42
500.298	6355.87
500.501	6159.27
500.705	6468.51
500.908	6310.82
501.111	6472.61
501.314	6343.58
501.517	6587.29
501.72	6687.64
501.923	6630.3
502.126	6714.27
502.329	6814.62
502.532	6828.95
502.735	7080.85
502.938	7097.24
503.141	7134.1
503.344	7189.39
503.547	7353.23
503.75	7383.95
503.953	7820.17
504.156	7758.73
504.359	7631.76
504.562	7721.87
504.765	7771.02
504.968	8063.88
505.17	8047.49
505.373	8211.33
505.576	8418.18
505.779	8346.5
505.982	8549.25
506.185	8596.35
506.387	8713.08
506.59	8682.36
506.793	8977.27
506.996	8993.65
507.198	9315.19
507.401	9153.4
507.604	9251.7
507.807	9653.1
508.009	9673.58
508.212	9489.26
508.415	9782.12
508.617	9911.14
508.82	9976.68
509.022	10048.36
509.225	10255.2
509.428	10464.1
509.63	10384.23
509.833	10564.45
510.035	10785.63
510.238	11027.29
510.44	11260.76
510.643	11037.53
510.845	11293.52
511.048	11205.46
511.25	11490.13
511.453	11862.86
511.655	12170.05
511.858	11895.63
512.06	12092.23
512.262	12393.28
512.465	12268.36
512.667	12448.58
512.87	12704.57
513.072	12659.52
513.274	13050.68
513.477	13310.77
513.679	13222.71
513.881	13513.52
514.084	13681.46
514.286	13636.4
514.488	13808.43
514.69	14170.92
514.893	14043.95
515.095	14215.98
515.297	14607.14
515.499	14629.66
515.701	14922.52
515.904	14947.1
516.106	14951.2
516.308	15305.49
516.51	15698.7
516.712	15559.44
516.914	15573.78
517.116	16210.7
517.318	16159.5
517.52	16423.69
517.722	16515.84
517.925	16565
518.127	16888.57
518.329	16943.87
518.531	16732.93
518.733	17101.56
518.935	17636.08
519.136	17656.56
519.338	17849.07
519.54	18080.49
519.742	18387.69
519.944	18301.67
520.146	18459.37
520.348	18813.66
520.55	18877.15
520.752	19106.52
520.954	19370.71
521.155	19131.1
521.357	19430.1
521.559	19643.09
521.761	20077.26
521.963	20060.88
522.164	20406.98
522.366	20316.87
522.568	20624.07
522.77	20775.62
522.971	20806.34
523.173	20765.38
523.375	20929.22
523.576	21131.97
523.778	21174.97
523.98	21639.86
524.181	21746.36
524.383	21813.94
524.584	21867.19
524.786	22112.94
524.988	21631.67
525.189	22213.29
525.391	22471.34
525.592	22641.32
525.794	22680.23
525.995	22860.45
526.197	23159.45
526.398	22667.94
526.6	23327.39
526.801	23220.89
527.003	23388.83
527.204	23507.61
527.406	23663.25
527.607	23892.63
527.808	24085.14
528.01	23876.24
528.211	23755.41
528.412	24547.98
528.614	24367.76
528.815	24113.81
529.016	24709.77
529.218	24429.2
529.419	24660.62
529.62	24529.55
529.822	24347.28
530.023	24750.73
530.224	24425.1
530.425	24971.91
530.626	24593.03
530.828	24439.44
531.029	25500.28
531.23	24851.08
531.431	24588.94
531.632	24822.41
531.833	24918.66
532.035	25129.6
532.236	25279.1
532.437	25219.71
532.638	25082.5
532.839	25412.22
533.04	25569.91
533.241	25215.62
533.442	25584.25
533.643	25592.44
533.844	25492.09
534.045	25592.44
534.246	25264.77
534.447	25619.07
534.648	25469.56
534.849	25668.22
535.05	25330.3
535.251	25637.5
535.451	25434.75
535.652	25680.5
535.853	25602.68
536.054	25741.94
536.255	25604.73
536.456	25539.19
536.657	25762.42
536.857	25571.96
537.058	25410.17
537.259	25901.68
537.46	25700.98
537.66	25633.4
537.861	25662.07
538.062	25551.48
538.263	25809.53
538.463	25821.81
538.664	25555.58
538.865	25918.07
539.065	25866.87
539.266	25328.25
539.466	25934.45
539.667	25600.63
539.868	26262.13
540.068	25954.93
540.269	25766.52
540.469	25813.62
540.67	25782.9
540.87	25784.95
541.071	25983.6
541.271	25881.21
541.472	25879.16
541.672	25543.29
541.873	25627.26
542.073	25463.42
542.274	25832.05
542.474	26090.1
542.675	25442.94
542.875	26114.67
543.075	25881.21
543.276	25358.97
543.476	25936.5
543.676	25776.76
543.877	25700.98
544.077	25641.59
544.277	25999.99
544.478	25875.06
544.678	25801.33
544.878	25848.44
545.078	25768.57
545.279	25520.76
545.479	25610.87
545.679	26088.05
545.879	25694.84
546.079	25643.64
546.28	25694.84
546.48	25647.74
546.68	25827.96
546.88	25840.25
547.08	25774.71
547.28	25614.97
547.48	25477.76
547.68	25787
547.88	25727.61
548.081	26202.74
548.281	25672.31
548.481	25414.27
548.681	25760.37
548.881	25739.9
549.081	25909.88
549.28	25596.54
549.48	26194.54
549.68	25522.81
549.88	25864.82
550.08	25647.74
550.28	25864.82
550.48	25817.72
550.68	25760.37
550.88	25614.97
551.08	25782.9
551.279	25770.61
551.479	25434.75
551.679	25784.95
551.879	25479.8
552.079	25967.22
552.278	25717.37
552.478	25789.05
552.678	25653.88
552.878	25770.61
553.077	25584.25
553.277	25414.27
553.477	26002.04
553.676	25440.89
553.876	25586.3
554.076	25365.12
554.275	25565.82
554.475	25178.75
554.674	25365.12
554.874	25332.35
555.074	25219.71
555.273	25641.59
555.473	25309.82
555.672	25334.4
555.872	25297.53
556.071	25418.36
556.271	25305.73
556.47	25340.54
556.67	24879.75
556.869	24865.41
557.068	25395.84
557.268	25100.93
557.467	24961.67
557.667	24943.24
557.866	24949.38
558.065	24795.78
558.265	24943.24
558.464	24849.03
558.663	25195.14
558.863	24431.24
559.062	24652.42
559.261	24564.36
559.461	24902.28
559.66	24539.79
559.859	24713.86
560.058	24605.32
560.258	24750.73
560.457	24203.92
560.656	24711.81
560.855	24390.28
561.054	24230.54
561.253	24216.21
561.453	24230.54
561.652	24416.91
561.851	24261.26
562.05	24253.07
562.249	24421
562.448	24248.97
562.647	24023.7
562.846	23892.63
563.045	24205.97
563.244	23732.89
563.443	24257.17
563.642	23730.84
563.841	23767.7
564.04	23769.75
564.239	23751.32
564.438	23765.65
564.637	24025.75
564.836	23786.13
565.035	23571.1
565.234	23784.09
565.432	23231.13
565.631	23190.17
565.83	23521.95
566.029	23493.27
566.228	23587.48
566.427	23118.5
566.625	23138.97
566.824	22803.11
567.023	23257.76
567.222	22659.75
567.42	23106.21
567.619	22872.74
567.818	22930.08
568.016	22381.23
568.215	23155.36
568.414	22694.57
568.612	23224.99
568.811	22649.51
569.01	22739.62
569.208	22522.54
569.407	22649.51
569.605	22287.02
569.804	22344.36
570.002	22321.84
570.201	22252.2
570.4	22196.91
570.598	21754.55
570.797	21760.69
570.995	21756.6
571.193	21779.12
571.392	22205.1
571.59	21562.04
571.789	21719.73
571.987	21545.66
572.186	21727.92
572.384	21183.16
572.582	21357.24
572.781	21627.57
572.979	21250.75
573.177	21252.8
573.376	21273.28
573.574	21041.85
573.772	21084.86
573.971	20855.49
574.169	20855.49
574.367	20683.46
574.565	20818.63
574.763	20841.15
574.962	20433.61
575.16	20378.31
575.358	20478.66
575.556	20269.77
575.754	20679.36
575.952	20458.18
576.151	20280.01
576.349	20124.36
576.547	20415.18
576.745	19931.86
576.943	20288.2
577.141	19847.89
577.339	19788.5
577.537	19675.86
577.735	19747.54
577.933	19671.76
578.131	19722.96
578.329	19299.03
578.527	19288.79
578.725	19452.63
578.923	19544.79
579.121	19264.22
579.319	19176.16
579.516	19229.4
579.714	19239.64
579.912	18918.11
580.11	19024.61
580.308	19036.89
580.506	18944.73
580.704	18543.33
580.901	18854.62
581.099	19040.99
581.297	18629.35
581.495	18555.62
581.692	18582.24
581.89	18506.47
582.088	18539.24
582.285	18576.1
582.483	18473.7
582.681	18211.56
582.878	18473.7
583.076	18129.64
583.274	18352.87
583.471	18017.01
583.669	18094.83
583.866	18152.17
584.064	18086.64
584.262	17761.01
584.459	17996.53
584.657	17918.7
584.854	17949.42
585.052	17556.21
585.249	17586.93
585.447	17576.69
585.644	17619.7
585.841	17335.03
586.039	17584.88
586.236	17246.97
586.434	17294.07
586.631	17345.27
586.828	17007.36
587.026	17251.06
587.223	17306.36
587.42	16962.3
587.618	17105.66
587.815	16532.23
588.012	17031.93
588.21	16945.92
588.407	16935.68
588.604	16667.39
588.801	16583.43
588.999	16864
589.196	16493.32
589.393	16605.95
589.59	16485.12
589.787	16407.3
589.984	16311.05
590.182	16296.71
590.379	16290.57
590.576	16272.14
590.773	16425.73
590.97	16198.41
591.167	16327.43
591.364	15987.47
591.561	16093.96
591.758	16026.38
591.955	15899.41
592.152	15921.93
592.349	15809.29
592.546	15672.08
592.743	15991.56
592.94	15506.2
593.137	15680.27
593.334	15702.8
593.531	15471.38
593.727	15749.9
593.924	15352.6
594.121	15278.87
594.318	15477.52
594.515	15385.37
594.712	15569.68
594.908	15246.1
595.105	15155.99
595.302	15047.45
595.499	15346.45
595.696	15112.99
595.892	14777.12
596.089	14957.34
596.286	15096.6
596.482	14953.24
596.679	14992.16
596.876	14799.65
597.072	14727.97
597.269	14674.72
597.466	14463.78
597.662	14564.13
597.859	14574.37
598.055	14875.42
598.252	14140.2
598.448	14752.54
598.645	14345
598.841	14179.11
599.038	14510.88
599.234	14459.68
599.431	14033.71
599.627	14310.18
599.824	14256.93
600.02	13824.81
600.217	14199.59
600.413	14043.95
600.609	13968.17
600.806	14064.43
601.002	14015.27
601.198	13689.65
601.395	13648.69
601.591	13779.76
601.787	13898.54
601.984	13605.68
602.18	13687.6
602.376	13419.32
602.572	13429.56
602.769	13527.86
602.965	13400.88
603.161	13329.2
603.357	13546.29
603.553	13163.32
603.75	13366.07
603.946	13142.84
604.142	13165.37
604.338	13275.96
604.534	13046.58
604.73	12989.24
604.926	12856.12
605.122	13040.44
605.318	12892.99
605.514	12870.46
605.71	12833.6
605.906	12876.6
606.102	12753.73
606.298	12751.68
606.494	12645.18
606.69	12596.03
606.886	12593.98
607.082	12280.64
607.278	12456.77
607.474	12225.35
607.67	12487.49
607.866	12233.54
608.062	12630.85
608.257	12143.43
608.453	12448.58
608.649	12350.28
608.845	11973.45
609.041	12153.67
609.236	11926.35
609.432	12122.95
609.628	12032.84
609.824	12198.73
610.019	11832.14
610.215	11901.77
610.411	11809.61
610.606	11789.13
610.802	11895.63
610.998	11643.73
611.193	11893.58
611.389	11633.49
611.584	11692.88
611.78	11551.57
611.976	11782.99
612.171	11572.05
612.367	11412.31
612.562	11758.41
612.758	11289.43
612.953	11373.39
613.149	11367.25
613.344	11311.96
613.539	11713.36
613.735	11187.03
613.93	11553.62
614.126	11158.36
614.321	11227.99
614.517	11234.13
614.712	11365.2
614.907	11182.93
615.103	10963.8
615.298	10924.89
615.493	11377.49
615.688	11113.3
615.884	11193.17
616.079	11019.1
616.274	10976.09
616.47	11107.16
616.665	11115.35
616.86	10840.92
617.055	10945.37
617.25	10969.94
617.445	10920.79
617.641	10709.85
617.836	10773.34
618.031	10623.84
618.226	10521.44
618.421	10488.67
618.616	10853.21
618.811	10539.87
619.006	10531.68
619.201	10369.89
619.396	10292.07
619.591	10386.27
619.786	10503.01
619.981	10163.04
620.176	10101.61
620.371	10132.33
620.566	10044.26
620.761	10181.48
620.956	10021.74
621.151	9911.14
621.346	9855.85
621.541	9792.36
621.735	9816.94
621.93	9763.69
622.125	9616.24
622.32	9614.19
622.515	9659.24
622.709	9470.83
622.904	9683.82
623.099	9544.56
623.294	9526.13
623.488	9452.4
623.683	9206.64
623.878	9137.01
624.072	9270.13
624.267	9255.79
624.462	8977.27
624.656	8948.6
624.851	8958.84
625.046	9071.48
625.24	8905.59
625.435	8967.03
625.629	8774.52
625.824	8696.7
626.018	8604.54
626.213	8643.45
626.407	8745.85
626.602	8493.95
626.796	8727.42
626.991	8684.41
627.185	8366.98
627.38	8444.8
627.574	8471.42
627.768	8283.01
627.963	8242.05
628.157	8129.41
628.352	8205.19
628.546	8080.26
628.74	8182.66
628.935	8039.3
629.129	8160.13
629.323	7822.22
629.517	8010.63
629.712	7762.83
629.906	8082.31
630.1	7656.33
630.294	7707.53
630.489	7703.43
630.683	7781.26
630.877	7668.62
631.071	7375.76
631.265	7725.96
631.459	7429.01
631.653	7508.88
631.848	7437.2
632.042	7322.51
632.236	7469.97
632.43	7119.76
632.624	7402.38
632.818	7283.6
633.012	7138.2
633.206	7097.24
633.4	7295.89
633.594	7066.52
633.788	7080.85
633.982	7052.18
634.176	6933.4
634.369	6976.41
634.563	6957.97
634.757	6900.63
634.951	7013.27
635.145	6785.94
635.339	6769.56
635.533	6798.23
635.726	6669.21
635.92	6648.73
636.114	6722.46
636.308	6534.04
636.501	6548.38
636.695	6513.56
636.889	6480.8
637.083	6525.85
637.276	6370.21
637.47	6347.68
637.664	6417.31
637.857	6435.74
638.051	6316.96
638.244	6202.27
638.438	6300.58
638.632	6235.04
638.825	6060.96
639.019	6077.35
639.212	6063.01
639.406	6124.45
639.599	5936.04
639.793	5940.13
639.986	5985.19
640.18	5747.62
640.373	5946.28
640.567	5729.19
640.76	5657.51
640.954	5729.19
641.147	5684.14
641.34	5729.19
641.534	5626.79
641.727	5553.07
641.92	5477.29
642.114	5643.18
642.307	5440.43
642.5	5553.07
642.694	5430.19
642.887	5323.69
643.08	5321.65
643.273	5393.33
643.467	5290.93
643.66	5079.99
643.853	5276.59
644.046	5059.51
644.239	5149.62
644.432	5170.1
644.626	5311.41
644.819	5034.93
645.012	5090.23
645.205	5012.4
645.398	5014.45
645.591	4944.82
645.784	5004.21
645.977	5004.21
646.17	4760.5
646.363	4848.57
646.556	4860.85
646.749	4778.94
646.942	4737.98
647.135	4557.75
647.328	4684.73
647.521	4574.14
647.714	4658.1
647.907	4633.53
648.099	4563.9
648.292	4733.88
648.485	4592.57
648.678	4516.8
648.871	4410.3
649.064	4467.64
649.256	4557.75
649.449	4432.83
649.642	4338.62
649.835	4479.93
650.027	4250.56
650.22	4187.07
650.413	4287.42
650.605	4307.9
650.798	4236.22
650.991	4109.25
651.183	4207.55
651.376	4221.89
651.568	4062.15
651.761	4049.86
651.954	4150.21
652.146	4035.52
652.339	4064.19
652.531	4068.29
652.724	3881.92
652.916	3943.36
653.109	4121.54
653.301	3949.51
653.494	3957.7
653.686	3785.67
653.879	3851.21
654.071	3797.96
654.263	3681.22
654.456	3820.49
654.648	3800.01
654.84	3771.33
655.033	3609.54
655.225	3670.98
655.417	3750.85
655.61	3650.5
655.802	3691.46
655.994	3480.52
656.186	3564.49
656.379	3462.09
656.571	3587.02
656.763	3492.81
656.955	3402.7
657.148	3378.12
657.34	3498.95
657.532	3466.19
657.724	3519.43
657.916	3427.28
658.108	3472.33
658.3	3271.63
658.492	3300.3
658.684	3249.1
658.876	3275.73
659.068	3306.45
659.26	3220.43
659.452	3275.73
659.644	3140.56
659.836	3187.66
660.028	3187.66
660.22	3179.47
660.412	3163.09
660.604	3101.65
660.796	3134.42
660.988	3111.89
661.18	3034.07
661.372	3113.94
661.563	3021.78
661.755	3060.69
661.947	2991.06
662.139	3017.68
662.331	2816.98
662.522	2882.52
662.714	2728.92
662.906	2804.69
663.097	2905.04
663.289	2868.18
663.481	2812.89
663.673	2878.42
663.864	2853.84
664.056	2710.49
664.247	2644.95
664.439	2708.44
664.631	2628.57
664.822	2698.2
665.014	2735.06
665.205	2679.77
665.397	2720.73
665.588	2655.19
665.78	2620.38
665.971	2671.58
666.163	2569.18
666.354	2517.98
666.546	2692.05
666.737	2575.32
666.929	2569.18
667.12	2548.7
667.311	2485.21
667.503	2530.27
667.694	2423.77
667.885	2454.49
668.077	2489.31
668.268	2425.82
668.459	2442.2
668.651	2474.97
668.842	2358.24
669.033	2372.57
669.224	2429.91
669.416	2393.05
669.607	2419.68
669.798	2360.28
669.989	2470.87
670.18	2413.53
670.371	2372.57
670.563	2427.87
670.754	2284.51
670.945	2339.8
671.136	2354.14
671.327	2327.52
671.518	2313.18
671.709	2327.52
671.9	2300.89
672.091	2135.01
672.282	2282.46
672.473	2223.07
672.664	2165.73
672.855	2225.12
673.046	2221.02
673.237	2304.99
673.428	2157.54
673.619	2190.3
673.809	2202.59
674	2143.2
674.191	2237.41
674.382	2135.01
674.573	2147.3
674.764	2089.95
674.954	2096.1
675.145	2128.86
675.336	2272.22
675.527	2223.07
675.717	2116.58
675.908	2180.06
676.099	2178.01
676.289	2079.71
676.48	2046.94
676.671	2100.19
676.861	2075.62
677.052	1989.6
677.243	2026.47
677.433	2001.89
677.624	1981.41
677.814	2012.13
678.005	2163.68
678.195	1997.79
678.386	2024.42
678.576	1977.31
678.767	2071.52
678.957	2012.13
679.148	2046.94
679.338	1962.98
679.529	1995.75
679.719	2044.9
679.909	2053.09
680.1	1956.83
680.29	2141.15
680.481	2102.24
680.671	2003.94
680.861	1909.73
681.052	2016.23
681.242	1995.75
681.432	2028.51
681.622	1950.69
681.813	1872.87
682.003	2038.75
682.193	1856.48
682.383	1995.75
682.573	1995.75
682.764	1924.07
682.954	1876.96
683.144	1905.63
683.334	1940.45
683.524	1989.6
683.714	1926.11
683.904	1926.11
684.094	1891.3
684.284	1858.53
684.474	1885.16
684.664	1856.48
684.854	1889.25
685.044	1973.22
685.234	1981.41
685.424	1805.28
685.614	1876.96
685.804	1967.07
685.994	1913.83
686.184	2018.27
686.374	1838.05
686.564	1889.25
686.753	1811.43
686.943	1805.28
687.133	1866.72
687.323	1856.48
687.513	1729.51
687.702	1856.48
687.892	1733.61
688.082	1907.68
688.272	1856.48
688.461	1797.09
688.651	1795.04
688.841	1758.18
689.03	1829.86
689.22	1928.16
689.41	1862.63
689.599	1895.4
689.789	1747.94
689.979	1809.38
690.168	1764.33
690.358	1729.51
690.547	1702.89
690.737	1915.87
690.926	1823.72
691.116	1840.1
691.305	1790.95
691.495	1879.01
691.684	1666.02
691.874	1856.48
692.063	1844.2
692.252	1780.71
692.442	1821.67
692.631	1729.51
692.82	1833.96
693.01	1954.79
693.199	1772.52
693.388	1803.24
693.578	1756.13
693.767	1821.67
693.956	1797.09
694.146	1803.24
694.335	1860.58
694.524	1860.58
694.713	1778.66
694.902	1805.28
695.092	1778.66
695.281	1868.77
695.47	1797.09
695.659	1782.76
695.848	1782.76
696.037	1754.09
696.226	1795.04
696.415	1819.62
696.604	1754.09
696.793	1805.28
696.982	1807.33
697.171	1739.75
697.36	1860.58
697.549	1776.61
697.738	1786.85
697.927	1858.53
698.116	1836
698.305	1831.91
698.494	1809.38
698.683	1850.34
698.872	1872.87
699.061	1870.82
699.25	1809.38
699.438	1813.48
699.627	1825.76
699.816	1889.25
700.005	1782.76
700.193	1782.76
700.382	1684.45
700.571	1754.09
700.76	1821.67
700.948	1741.8
701.137	1790.95
701.326	1805.28
701.514	1848.29
701.703	1831.91
701.892	1770.47
702.08	1772.52
702.269	1668.07
702.457	1854.44
702.646	1844.2
702.834	1868.77
703.023	1739.75
703.212	1805.28
703.4	1809.38
703.589	1723.37
703.777	1831.91
703.965	1782.76
704.154	1827.81
704.342	1770.47
704.531	1735.65
704.719	1811.43
704.907	1762.28
705.096	1688.55
705.284	1653.73
705.472	1801.19
705.661	1653.73
705.849	1797.09
706.037	1727.46
706.226	1803.24
706.414	1813.48
706.602	1733.61
706.79	1688.55
706.979	1672.17
707.167	1704.93
707.355	1713.13
707.543	1584.1
707.731	1913.83
707.919	1668.07
708.107	1659.88
708.296	1838.05
708.484	1749.99
708.672	1692.65
708.86	1786.85
709.048	1686.5
709.236	1711.08
709.424	1680.36
709.612	1633.26
709.8	1645.54
709.988	1645.54
710.176	1649.64
710.364	1608.68
710.551	1670.12
710.739	1639.4
710.927	1674.21
711.115	1760.23
711.303	1655.78
711.491	1692.65
711.679	1623.02
711.866	1639.4
712.054	1639.4
712.242	1674.21
712.43	1747.94
712.617	1608.68
712.805	1643.49
712.993	1674.21
713.181	1602.54
713.368	1625.06
713.556	1590.25
713.744	1606.63
713.931	1530.86
714.119	1584.1
714.306	1600.49
714.494	1577.96
714.682	1596.39
714.869	1498.09
715.057	1643.49
715.244	1532.9
715.432	1561.58
715.619	1565.67
715.807	1428.46
715.994	1489.9
716.182	1559.53
716.369	1598.44
716.556	1524.71
716.744	1434.6
716.931	1584.1
717.119	1455.08
717.306	1461.23
717.493	1457.13
717.681	1481.71
717.868	1571.82
718.055	1461.23
718.242	1473.51
718.43	1442.79
718.617	1422.31
718.804	1489.9
718.991	1430.51
719.179	1403.88
719.366	1424.36
719.553	1463.27
719.74	1381.35
719.927	1403.88
720.114	1446.89
720.301	1369.07
720.488	1385.45
720.676	1489.9
720.863	1422.31
721.05	1412.07
721.237	1424.36
721.424	1418.22
721.611	1389.55
721.798	1461.23
721.985	1424.36
722.172	1410.03
722.358	1244.14
722.545	1381.35
722.732	1264.62
722.919	1362.92
723.106	1407.98
723.293	1381.35
723.48	1262.57
723.667	1354.73
723.853	1264.62
724.04	1285.1
724.227	1379.31
724.414	1311.72
724.6	1326.06
724.787	1358.83
724.974	1407.98
725.161	1315.82
725.347	1414.12
725.534	1342.44
725.72	1346.54
725.907	1285.1
726.094	1348.59
726.28	1276.91
726.467	1264.62
726.653	1289.2
726.84	1334.25
727.027	1231.85
727.213	1217.52
727.4	1324.01
727.586	1250.28
727.773	1281
727.959	1266.67
728.145	1192.94
728.332	1344.49
728.518	1291.24
728.705	1381.35
728.891	1246.19
729.077	1213.42
729.264	1250.28
729.45	1223.66
729.636	1231.85
729.823	1293.29
730.009	1211.37
730.195	1182.7
730.382	1238
730.568	1201.13
730.754	1227.76
730.94	1250.28
731.126	1182.7
731.313	1186.8
731.499	1135.6
731.685	1217.52
731.871	1192.94
732.057	1194.99
732.243	1215.47
732.429	1154.03
732.615	1149.93
732.801	1182.7
732.987	1176.56
733.173	1100.78
733.359	1129.45
733.545	1256.43
733.731	1272.81
733.917	1135.6
734.103	1145.84
734.289	1086.45
734.475	1223.66
734.661	1170.41
734.847	1117.17
735.033	1092.59
735.219	1047.54
735.404	1102.83
735.59	1180.65
735.776	1147.89
735.962	1088.5
736.148	1197.04
736.333	1084.4
736.519	1053.68
736.705	1143.79
736.89	1063.92
737.076	1158.13
737.262	1074.16
737.447	1182.7
737.633	1055.73
737.819	1135.6
738.004	1115.12
738.19	1139.69
738.375	1051.63
738.561	1074.16
738.747	1106.93
738.932	1022.96
739.118	1125.36
739.303	982
739.489	1027.06
739.674	1025.01
739.859	1037.3
740.045	1006.58
740.23	1074.16
740.416	959.47
740.601	1018.86
740.786	1039.34
740.972	979.95
741.157	998.38
741.342	1039.34
741.528	1123.31
741.713	1029.1
741.898	904.18
742.084	1102.83
742.269	1018.86
742.454	1059.82
742.639	971.76
742.824	943.09
743.01	1049.58
743.195	979.95
743.38	910.32
743.565	932.85
743.75	934.9
743.935	1029.1
744.12	982
744.305	889.84
744.49	787.44
744.675	814.07
744.86	951.28
745.045	994.29
745.23	891.89
745.415	830.45
745.6	900.08
745.785	922.61
745.97	895.99
746.155	879.6
746.34	943.09
746.525	844.79
746.71	895.99
746.895	863.22
747.079	900.08
747.264	930.8
747.449	893.94
747.634	898.03
747.819	865.27
748.003	900.08
748.188	752.63
748.373	846.84
748.557	879.6
748.742	814.07
748.927	814.07
749.111	875.51
749.296	883.7
749.481	793.59
749.665	771.06
749.85	730.1
750.034	824.31
750.219	760.82
750.404	769.01
750.588	863.22
750.773	746.48
750.957	793.59
751.141	777.2
751.326	771.06
751.51	693.24
751.695	734.2
751.879	736.24
752.064	773.11
752.248	723.96
752.432	756.72
752.617	713.72
752.801	744.44
752.985	719.86
753.17	730.1
753.354	752.63
753.538	683
753.722	703.48
753.907	623.61
754.091	697.33
754.275	658.42
754.459	726
754.643	639.99
754.828	664.57
755.012	656.37
755.196	617.46
755.38	678.9
755.564	629.75
755.748	617.46
755.932	687.09
756.116	697.33
756.3	654.33
756.484	666.61
756.668	639.99
756.852	650.23
757.036	560.12
757.22	570.36
757.404	611.32
757.588	691.19
757.772	584.7
757.956	603.13
758.14	572.41
758.323	543.74
758.507	635.89
758.691	543.74
758.875	562.17
759.059	558.07
759.242	582.65
759.426	529.4
759.61	490.49
759.794	576.5
759.977	601.08
760.161	535.54
760.345	439.29
760.528	529.4
760.712	615.41
760.895	527.35
761.079	437.24
761.263	504.82
761.446	506.87
761.63	472.06
761.813	502.78
761.997	521.21
762.18	535.54
762.364	424.95
762.547	467.96
762.731	510.97
762.914	564.22
763.098	558.07
763.281	431.1
763.464	498.68
763.648	480.25
763.831	443.39
764.015	492.54
764.198	433.15
764.381	392.19
764.564	467.96
764.748	490.49
764.931	484.34
765.114	467.96
765.297	566.26
765.481	504.82
765.664	457.72
765.847	498.68
766.03	508.92
766.213	396.28
766.397	488.44
766.58	447.48
766.763	447.48
766.946	506.87
767.129	439.29
767.312	451.58
767.495	504.82
767.678	461.82
767.861	457.72
768.044	447.48
768.227	420.86
768.41	416.76
768.593	429.05
768.776	517.11
768.959	490.49
769.142	410.62
769.324	392.19
769.507	390.14
769.69	443.39
769.873	463.86
770.056	424.95
770.239	386.04
770.421	459.77
770.604	439.29
770.787	410.62
770.97	416.76
771.152	461.82
771.335	377.85
771.518	455.67
771.7	431.1
771.883	328.7
772.066	435.19
772.248	420.86
772.431	400.38
772.613	441.34
772.796	394.23
772.978	416.76
773.161	351.23
773.343	410.62
773.526	398.33
773.708	386.04
773.891	351.23
774.073	363.51
774.256	365.56
774.438	523.26
774.621	406.52
774.803	402.43
774.985	302.08
775.168	398.33
775.35	373.75
775.532	373.75
775.715	416.76
775.897	392.19
776.079	375.8
776.261	289.79
776.444	310.27
776.626	404.47
776.808	343.03
776.99	318.46
777.173	373.75
777.355	363.51
777.537	410.62
777.719	326.65
777.901	369.66
778.083	306.17
778.265	359.42
778.447	398.33
778.629	322.56
778.811	408.57
778.993	295.93
779.175	310.27
779.357	326.65
779.539	365.56
779.721	250.88
779.903	310.27
780.085	273.4
780.267	248.83
780.449	269.31
780.631	283.64
780.812	338.94
780.994	281.6
781.176	228.35
781.358	349.18
781.54	267.26
781.721	304.12
781.903	273.4
782.085	248.83
782.267	218.11
782.448	293.88
782.63	175.1
782.812	289.79
782.993	263.16
783.175	297.98
783.357	338.94
783.538	257.02
783.72	281.6
783.901	351.23
784.083	203.77
784.264	185.34
784.446	273.4
784.627	164.86
784.809	234.49
784.99	218.11
785.172	265.21
785.353	205.82
785.535	273.4
785.716	199.68
785.897	179.2
786.079	254.97
786.26	254.97
786.441	275.45
786.623	189.44
786.804	216.06
786.985	222.2
787.167	273.4
787.348	138.24
787.529	119.81
787.71	214.01
787.891	220.16
788.073	173.05
788.254	211.96
788.435	207.87
788.616	150.53
788.797	175.1
788.978	211.96
789.159	216.06
789.34	236.54
789.522	207.87
789.703	89.09
789.884	187.39
790.065	144.38
790.246	236.54
790.427	191.49
790.607	224.25
790.788	158.72
790.969	267.26
791.15	252.92
791.331	179.2
791.512	224.25
791.693	93.18
791.874	269.31
792.054	152.57
792.235	123.9
792.416	197.63
792.597	111.61
792.778	199.68
792.958	187.39
793.139	144.38
793.32	119.81
793.5	234.49
793.681	142.33
793.862	173.05
794.042	191.49
794.223	132.09
794.404	175.1
794.584	177.15
794.765	168.96
794.945	205.82
795.126	105.47
795.306	175.1
795.487	82.94
795.667	150.53
795.848	136.19
796.028	121.85
796.209	209.92
796.389	140.29
796.57	103.42
796.75	166.91
796.93	158.72
797.111	113.66
797.291	148.48
797.471	123.9
797.652	99.33
797.832	130.05
798.012	136.19
798.192	152.57
798.373	140.29
798.553	115.71
798.733	117.76
798.913	113.66
799.093	119.81
799.274	87.04
799.454	87.04
799.634	89.09
799.814	89.09
799.994	121.85
800.174	132.09
800.354	101.37
800.534	109.57
800.714	164.86
800.894	62.46
801.074	82.94
801.254	173.05
801.434	140.29
801.614	117.76
801.794	136.19
801.974	289.79
802.154	138.24
802.334	76.8
802.514	93.18
802.693	91.13
802.873	93.18
803.053	136.19
803.233	27.65
803.413	117.76
803.592	13.31
803.772	107.52
803.952	29.7
804.131	97.28
804.311	93.18
804.491	123.9
804.67	97.28
804.85	64.51
805.03	68.61
805.209	99.33
805.389	136.19
805.568	39.94
805.748	29.7
805.928	138.24
806.107	82.94
806.287	109.57
806.466	89.09
806.646	115.71
806.825	33.79
807.004	101.37
807.184	111.61
807.363	164.86
807.543	138.24
807.722	123.9
807.901	111.61
808.081	115.71
808.26	107.52
808.439	101.37
808.619	125.95
808.798	84.99
808.977	60.42
809.156	95.23
809.336	82.94
809.515	97.28
809.694	41.98
809.873	70.65
810.052	111.61
810.231	101.37
810.411	11.26
810.59	97.28
810.769	44.03
810.948	119.81
811.127	87.04
811.306	148.48
811.485	33.79
811.664	78.85
811.843	27.65
812.022	78.85
812.201	72.7
812.38	119.81
812.559	-44.03
812.737	64.51
812.916	95.23
813.095	78.85
813.274	52.22
813.453	1.02
813.632	72.7
813.811	156.67
813.989	35.84
814.168	29.7
814.347	21.5
814.526	80.89
814.704	37.89
814.883	84.99
815.062	64.51
815.24	130.05
815.419	41.98
815.598	58.37
815.776	119.81
815.955	60.42
816.133	60.42
816.312	35.84
816.49	15.36
816.669	125.95
816.847	37.89
817.026	93.18
817.204	-19.46
817.383	78.85
817.561	29.7
817.74	158.72
817.918	48.13
818.097	82.94
818.275	80.89
818.453	37.89
818.632	117.76
818.81	35.84
818.988	66.56
819.167	23.55
819.345	39.94
819.523	111.61
819.701	15.36
819.879	17.41
820.058	21.5
820.236	107.52
820.414	37.89
820.592	39.94
820.77	-19.46
820.948	-7.17
821.127	46.08
821.305	146.43
821.483	41.98
821.661	39.94
821.839	41.98
822.017	3.07
822.195	13.31
822.373	99.33
822.551	58.37
822.729	15.36
822.907	-1.02
823.085	56.32
823.262	-15.36
823.44	78.85
823.618	11.26
823.796	-27.65
823.974	-1.02
824.152	56.32
824.329	33.79
824.507	11.26
824.685	33.79
824.863	33.79
825.04	17.41
825.218	78.85
825.396	76.8
825.574	64.51
825.751	99.33
825.929	74.75
826.107	80.89
826.284	37.89
826.462	84.99
826.639	-7.17
826.817	44.03
826.994	39.94
827.172	-37.89
827.349	50.18
827.527	39.94
827.704	21.5
827.882	64.51
828.059	3.07
828.237	29.7
828.414	93.18
828.591	70.65
828.769	48.13
828.946	128
829.124	52.22
829.301	72.7
829.478	-25.6
829.655	29.7
829.833	41.98
830.01	44.03
830.187	74.75
830.364	52.22
830.542	101.37
830.719	89.09
830.896	15.36
831.073	76.8
831.25	-37.89
831.427	15.36
831.604	33.79
831.782	-13.31
831.959	11.26
832.136	-23.55
832.313	60.42
832.49	44.03
832.667	91.13
832.844	11.26
833.021	29.7
833.198	60.42
833.374	19.46
833.551	87.04
833.728	39.94
833.905	37.89
834.082	-13.31
834.259	52.22
834.436	35.84
834.612	41.98
834.789	13.31
834.966	54.27
835.143	46.08
835.319	-15.36
835.496	23.55
835.673	25.6
835.85	66.56
836.026	31.74
836.203	56.32
836.38	15.36
836.556	52.22
836.733	-25.6
836.909	25.6
837.086	-78.85
837.262	54.27
837.439	46.08
837.616	56.32
837.792	31.74
837.968	-5.12
838.145	64.51
838.321	78.85
838.498	-3.07
838.674	25.6
838.851	44.03
839.027	-17.41
839.203	64.51
839.38	48.13
839.556	17.41
839.732	-19.46
839.909	25.6
840.085	35.84
840.261	37.89
840.437	-21.5
840.614	-3.07
840.79	54.27
840.966	-5.12
841.142	-19.46
841.318	66.56
841.494	3.07
841.671	89.09
841.847	97.28
842.023	-33.79
842.199	72.7
842.375	23.55
842.551	-19.46
842.727	25.6
842.903	31.74
843.079	13.31
843.255	-17.41
843.431	89.09
843.607	5.12
843.783	-33.79
843.959	58.37
844.134	1.02
844.31	-50.18
844.486	52.22
844.662	1.02
844.838	1.02
845.013	5.12
845.189	-54.27
845.365	-33.79
845.541	21.5
845.716	5.12
845.892	72.7
846.068	1.02
846.244	27.65
846.419	9.22
846.595	-15.36
846.77	56.32
846.946	62.46
847.122	76.8
847.297	29.7
847.473	-35.84
847.648	-48.13
847.824	-44.03
847.999	52.22
848.175	-5.12
848.35	-17.41
848.526	21.5
848.701	13.31
848.876	21.5
849.052	-25.6
849.227	-82.94
849.403	9.22
849.578	33.79
849.753	1.02
849.929	64.51
850.104	19.46
850.279	33.79
850.454	-31.74
850.63	-58.37
850.805	31.74
850.98	89.09
851.155	-7.17
851.33	58.37
851.505	33.79
851.681	33.79
851.856	-62.46
852.031	80.89
852.206	54.27
852.381	-23.55
852.556	3.07
852.731	37.89
852.906	33.79
853.081	41.98
853.256	-1.02
853.431	11.26
853.606	17.41
853.781	27.65
853.956	31.74
854.131	-7.17
854.305	60.42
854.48	50.18
854.655	27.65
854.83	23.55
855.005	-64.51
855.18	27.65
855.354	-13.31
855.529	3.07
855.704	-11.26
855.879	48.13
856.053	-33.79
856.228	-19.46
856.403	48.13
856.577	-21.5
856.752	-50.18
856.926	54.27
857.101	-44.03
857.276	29.7
857.45	21.5
857.625	31.74
857.799	91.13
857.974	3.07
858.148	-5.12
858.323	15.36
858.497	-27.65
858.672	1.02
858.846	-58.37
859.02	33.79
859.195	39.94
859.369	29.7
859.543	-1.02
859.718	27.65
859.892	19.46
860.066	-5.12
860.241	-46.08
860.415	27.65
860.589	1.02
860.763	11.26
860.938	7.17
861.112	11.26
861.286	-60.42
861.46	31.74
861.634	-11.26
861.808	-44.03
861.982	54.27
862.157	11.26
862.331	15.36
862.505	-7.17
862.679	50.18
862.853	-33.79
863.027	35.84
863.201	7.17
863.375	29.7
863.549	-9.22
863.722	5.12
863.896	54.27
864.07	-13.31
864.244	-25.6
864.418	1.02
864.592	41.98
864.766	-15.36
864.939	62.46
865.113	41.98
865.287	21.5
865.461	-82.94
865.634	-31.74
865.808	25.6
865.982	-31.74
866.156	-46.08
866.329	-27.65
866.503	15.36
866.676	15.36
866.85	-3.07
867.024	-7.17
867.197	27.65
867.371	25.6
867.544	93.18
867.718	15.36
867.891	66.56
868.065	46.08
868.238	9.22
868.412	-17.41
868.585	41.98
868.759	54.27
868.932	-101.37
869.105	-15.36
869.279	50.18
869.452	13.31
869.625	1.02
869.799	-11.26
869.972	9.22
870.145	-19.46
870.319	-46.08
870.492	-33.79
870.665	-5.12
870.838	1.02
871.011	-48.13
871.185	35.84
871.358	58.37
871.531	-15.36
871.704	68.61
871.877	-1.02
872.05	-54.27
872.223	23.55
872.396	62.46
872.569	-50.18
872.742	-80.89
872.915	-7.17
873.088	-23.55
873.261	-7.17
873.434	11.26
873.607	-80.89
873.78	-27.65
873.953	64.51
874.126	-9.22
874.299	37.89
874.471	25.6
874.644	17.41
874.817	1.02
874.99	5.12
875.163	25.6
875.335	1.02
875.508	68.61
875.681	44.03
875.853	-64.51
876.026	11.26
876.199	21.5
876.371	-37.89
876.544	17.41
876.717	-7.17
876.889	-52.22
877.062	-13.31
877.234	5.12
877.407	3.07
877.579	21.5
877.752	1.02
877.924	-19.46
878.097	-9.22
878.269	11.26
878.442	-23.55
878.614	17.41
878.786	-11.26
878.959	13.31
879.131	39.94
879.303	-58.37
879.476	50.18
879.648	13.31
879.82	35.84
879.993	41.98
880.165	-33.79
880.337	-46.08
880.509	9.22
880.681	27.65
880.854	5.12
881.026	-15.36
881.198	17.41
881.37	-9.22
881.542	35.84
881.714	17.41
881.886	44.03
882.058	-27.65
882.23	-50.18
882.402	-23.55
882.574	19.46
882.746	-23.55
882.918	54.27
883.09	-9.22
883.262	-3.07
883.434	-13.31
883.606	76.8
883.778	-17.41
883.95	56.32
884.122	-74.75
884.293	-35.84
884.465	-23.55
884.637	62.46
884.809	70.65
884.98	9.22
885.152	15.36
885.324	33.79
885.496	-3.07
885.667	13.31
885.839	-3.07
886.011	31.74
886.182	23.55
886.354	-11.26
886.525	74.75
886.697	-5.12
886.869	-19.46
887.04	44.03
887.212	-1.02
887.383	25.6
887.555	-9.22
887.726	-7.17
887.897	41.98
888.069	33.79
888.24	46.08
888.412	-54.27
888.583	35.84
888.754	-35.84
888.926	-17.41
889.097	29.7
889.268	17.41
889.44	15.36
889.611	-33.79
889.782	-17.41
889.953	3.07
890.125	9.22
890.296	-48.13
890.467	11.26
890.638	31.74
890.809	-5.12
890.98	-27.65
891.151	37.89
891.323	74.75
891.494	3.07
891.665	-109.57
891.836	-54.27
892.007	13.31
892.178	50.18
892.349	29.7
892.52	-25.6
892.691	60.42
892.862	-89.09
893.032	-33.79
893.203	31.74
893.374	-27.65
893.545	-7.17
893.716	-39.94
893.887	5.12
894.057	5.12
894.228	-31.74
894.399	7.17
894.57	-9.22
894.74	-84.99
894.911	-29.7
895.082	19.46
895.253	66.56
895.423	9.22
895.594	9.22
895.764	29.7
895.935	-19.46
896.106	21.5
896.276	-52.22
896.447	-39.94
896.617	-48.13
896.788	-23.55
896.958	-5.12
897.129	19.46
897.299	-23.55
897.47	-80.89
897.64	25.6
897.81	-82.94
897.981	-52.22
898.151	-48.13
898.322	58.37
898.492	-13.31
898.662	-21.5
898.832	-11.26
899.003	-3.07
899.173	-48.13
899.343	-31.74
899.513	17.41
