Data from USB4F104151__191__13-59-25-108.txt Node

Date: Thu Mar 13 13:59:25 EDT 2025
User: louis
Spectrometer: USB4F10415
Trigger mode: 4
Integration Time (sec): 1.000000E-2
Scans to average: 1
Electric dark correction enabled: true
Nonlinearity correction enabled: false
Boxcar width: 0
XAxis mode: Wavelengths
Number of Pixels in Spectrum: 3648
>>>>>Begin Spectral Data<<<<<
178.204	-21.67
178.424	-21.67
178.644	-21.67
178.864	0.85
179.084	-33.96
179.304	0.85
179.524	43.86
179.744	19.29
179.964	9.05
180.184	-42.15
180.404	23.38
180.624	39.76
180.844	25.43
181.064	-64.68
181.283	-23.72
181.503	-5.29
181.723	-25.77
181.943	7
182.163	11.09
182.383	68.44
182.602	78.68
182.822	66.39
183.042	41.81
183.262	9.05
183.482	109.4
183.701	84.82
183.921	23.38
184.141	11.09
184.361	64.34
184.58	58.2
184.8	43.86
185.02	-11.43
185.239	72.53
185.459	-42.15
185.679	43.86
185.898	88.92
186.118	4.95
186.338	45.91
186.557	21.33
186.777	15.19
186.997	56.15
187.216	19.29
187.436	103.25
187.655	35.67
187.875	78.68
188.095	-27.82
188.314	62.29
188.534	0.85
188.753	93.01
188.973	-42.15
189.192	-52.39
189.412	52.05
189.631	-40.11
189.851	-50.35
190.07	101.2
190.29	0.85
190.509	11.09
190.729	39.76
190.948	70.48
191.168	86.87
191.387	-15.53
191.607	-66.73
191.826	33.62
192.045	4.95
192.265	31.57
192.484	-1.19
192.704	74.58
192.923	-15.53
193.142	50
193.362	50
193.581	80.72
193.8	60.24
194.02	41.81
194.239	-7.34
194.458	54.1
194.678	33.62
194.897	-25.77
195.116	35.67
195.335	13.14
195.555	62.29
195.774	58.2
195.993	37.72
196.212	74.58
196.432	-13.48
196.651	47.96
196.87	21.33
197.089	58.2
197.308	23.38
197.528	72.53
197.747	23.38
197.966	19.29
198.185	-13.48
198.404	17.24
198.623	72.53
198.842	13.14
199.062	56.15
199.281	76.63
199.5	-3.24
199.719	15.19
199.938	35.67
200.157	29.52
200.376	31.57
200.595	2.9
200.814	62.29
201.033	25.43
201.252	50
201.471	21.33
201.69	-9.39
201.909	11.09
202.128	66.39
202.347	54.1
202.566	86.87
202.785	52.05
203.004	27.48
203.223	90.96
203.442	29.52
203.661	17.24
203.879	68.44
204.098	62.29
204.317	-38.06
204.536	121.68
204.755	11.09
204.974	2.9
205.193	-5.29
205.411	31.57
205.63	-23.72
205.849	19.29
206.068	31.57
206.287	109.4
206.505	105.3
206.724	50
206.943	39.76
207.162	37.72
207.381	56.15
207.599	56.15
207.818	21.33
208.037	74.58
208.255	84.82
208.474	58.2
208.693	64.34
208.911	-38.06
209.13	78.68
209.349	-36.01
209.567	37.72
209.786	41.81
210.005	-17.58
210.223	68.44
210.442	25.43
210.661	70.48
210.879	13.14
211.098	97.11
211.316	-7.34
211.535	27.48
211.753	-54.44
211.972	-19.63
212.191	-3.24
212.409	11.09
212.628	-97.45
212.846	50
213.065	-83.11
213.283	35.67
213.502	7
213.72	-9.39
213.938	15.19
214.157	29.52
214.375	60.24
214.594	7
214.812	-48.3
215.031	9.05
215.249	80.72
215.467	-9.39
215.686	37.72
215.904	39.76
216.122	23.38
216.341	72.53
216.559	-40.11
216.778	56.15
216.996	27.48
217.214	90.96
217.432	76.63
217.651	27.48
217.869	35.67
218.087	25.43
218.306	-36.01
218.524	7
218.742	13.14
218.96	95.06
219.179	-42.15
219.397	29.52
219.615	52.05
219.833	13.14
220.051	-31.91
220.27	72.53
220.488	13.14
220.706	54.1
220.924	47.96
221.142	35.67
221.36	-31.91
221.578	29.52
221.796	13.14
222.015	-13.48
222.233	84.82
222.451	35.67
222.669	9.05
222.887	47.96
223.105	45.91
223.323	-17.58
223.541	35.67
223.759	76.63
223.977	23.38
224.195	29.52
224.413	47.96
224.631	66.39
224.849	37.72
225.067	43.86
225.285	-56.49
225.503	0.85
225.721	15.19
225.939	37.72
226.157	13.14
226.375	13.14
226.592	-21.67
226.81	47.96
227.028	72.53
227.246	29.52
227.464	-7.34
227.682	58.2
227.9	-21.67
228.117	99.16
228.335	9.05
228.553	21.33
228.771	-23.72
228.989	-15.53
229.206	25.43
229.424	-48.3
229.642	-7.34
229.86	70.48
230.077	2.9
230.295	54.1
230.513	47.96
230.731	39.76
230.948	-25.77
231.166	31.57
231.384	25.43
231.601	-17.58
231.819	17.24
232.037	-11.43
232.254	148.31
232.472	54.1
232.689	35.67
232.907	45.91
233.125	-31.91
233.342	7
233.56	11.09
233.777	45.91
233.995	41.81
234.213	17.24
234.43	82.77
234.648	64.34
234.865	-50.35
235.083	33.62
235.3	27.48
235.518	121.68
235.735	76.63
235.953	60.24
236.17	-13.48
236.388	54.1
236.605	15.19
236.822	78.68
237.04	70.48
237.257	33.62
237.475	72.53
237.692	60.24
237.909	31.57
238.127	33.62
238.344	29.52
238.562	86.87
238.779	68.44
238.996	74.58
239.214	13.14
239.431	41.81
239.648	56.15
239.865	9.05
240.083	43.86
240.3	31.57
240.517	-19.63
240.735	93.01
240.952	23.38
241.169	17.24
241.386	35.67
241.603	2.9
241.821	-3.24
242.038	2.9
242.255	109.4
242.472	29.52
242.689	9.05
242.907	82.77
243.124	45.91
243.341	7
243.558	52.05
243.775	-5.29
243.992	70.48
244.209	88.92
244.426	37.72
244.643	99.16
244.86	15.19
245.078	70.48
245.295	31.57
245.512	52.05
245.729	-11.43
245.946	11.09
246.163	31.57
246.38	84.82
246.597	33.62
246.814	-9.39
247.031	119.64
247.248	21.33
247.464	-11.43
247.681	60.24
247.898	52.05
248.115	45.91
248.332	50
248.549	74.58
248.766	50
248.983	76.63
249.2	39.76
249.417	107.35
249.633	97.11
249.85	107.35
250.067	-7.34
250.284	27.48
250.501	70.48
250.717	95.06
250.934	11.09
251.151	-25.77
251.368	-36.01
251.585	66.39
251.801	47.96
252.018	97.11
252.235	66.39
252.451	50
252.668	25.43
252.885	0.85
253.102	37.72
253.318	101.2
253.535	72.53
253.752	66.39
253.968	84.82
254.185	105.3
254.401	-3.24
254.618	86.87
254.835	4.95
255.051	35.67
255.268	2.9
255.484	41.81
255.701	25.43
255.917	50
256.134	23.38
256.351	80.72
256.567	80.72
256.784	52.05
257	37.72
257.217	50
257.433	56.15
257.65	56.15
257.866	31.57
258.082	7
258.299	-44.2
258.515	56.15
258.732	15.19
258.948	76.63
259.165	119.64
259.381	74.58
259.597	58.2
259.814	45.91
260.03	41.81
260.246	70.48
260.463	80.72
260.679	86.87
260.895	4.95
261.112	35.67
261.328	-36.01
261.544	29.52
261.761	-1.19
261.977	-7.34
262.193	70.48
262.409	72.53
262.626	76.63
262.842	66.39
263.058	25.43
263.274	43.86
263.49	41.81
263.707	80.72
263.923	-44.2
264.139	43.86
264.355	54.1
264.571	76.63
264.787	54.1
265.004	115.54
265.22	72.53
265.436	23.38
265.652	50
265.868	47.96
266.084	47.96
266.3	47.96
266.516	17.24
266.732	2.9
266.948	88.92
267.164	99.16
267.38	78.68
267.596	88.92
267.812	25.43
268.028	39.76
268.244	97.11
268.46	-3.24
268.676	21.33
268.892	45.91
269.108	9.05
269.324	39.76
269.54	4.95
269.756	21.33
269.972	2.9
270.188	-3.24
270.403	72.53
270.619	41.81
270.835	9.05
271.051	17.24
271.267	0.85
271.483	99.16
271.698	-11.43
271.914	0.85
272.13	2.9
272.346	2.9
272.562	45.91
272.777	17.24
272.993	27.48
273.209	52.05
273.425	15.19
273.64	-1.19
273.856	37.72
274.072	39.76
274.287	-44.2
274.503	84.82
274.719	13.14
274.934	39.76
275.15	-9.39
275.366	-1.19
275.581	27.48
275.797	72.53
276.012	56.15
276.228	86.87
276.444	25.43
276.659	50
276.875	-44.2
277.09	13.14
277.306	-25.77
277.521	62.29
277.737	-17.58
277.952	41.81
278.168	45.91
278.383	82.77
278.599	-15.53
278.814	47.96
279.03	9.05
279.245	93.01
279.461	47.96
279.676	23.38
279.892	37.72
280.107	-33.96
280.322	-15.53
280.538	123.73
280.753	62.29
280.969	25.43
281.184	95.06
281.399	52.05
281.615	4.95
281.83	70.48
282.045	29.52
282.26	119.64
282.476	62.29
282.691	99.16
282.906	84.82
283.122	29.52
283.337	27.48
283.552	39.76
283.767	45.91
283.983	-1.19
284.198	47.96
284.413	7
284.628	107.35
284.843	-9.39
285.058	39.76
285.274	80.72
285.489	47.96
285.704	31.57
285.919	27.48
286.134	93.01
286.349	31.57
286.564	-17.58
286.779	13.14
286.995	29.52
287.21	25.43
287.425	72.53
287.64	90.96
287.855	68.44
288.07	37.72
288.285	-31.91
288.5	15.19
288.715	62.29
288.93	82.77
289.145	56.15
289.36	103.25
289.575	21.33
289.79	56.15
290.004	99.16
290.219	25.43
290.434	-5.29
290.649	-64.68
290.864	13.14
291.079	54.1
291.294	39.76
291.509	19.29
291.724	9.05
291.938	31.57
292.153	105.3
292.368	-1.19
292.583	47.96
292.798	-42.15
293.012	35.67
293.227	52.05
293.442	93.01
293.657	41.81
293.871	58.2
294.086	25.43
294.301	70.48
294.516	93.01
294.73	-19.63
294.945	-3.24
295.16	35.67
295.374	56.15
295.589	56.15
295.804	27.48
296.018	52.05
296.233	-17.58
296.447	11.09
296.662	-36.01
296.877	80.72
297.091	86.87
297.306	15.19
297.52	4.95
297.735	64.34
297.949	15.19
298.164	111.44
298.378	97.11
298.593	-5.29
298.807	105.3
299.022	15.19
299.236	68.44
299.451	41.81
299.665	60.24
299.88	58.2
300.094	101.2
300.309	133.97
300.523	41.81
300.737	-1.19
300.952	88.92
301.166	39.76
301.381	-46.25
301.595	37.72
301.809	21.33
302.024	-7.34
302.238	39.76
302.452	152.4
302.667	-9.39
302.881	107.35
303.095	127.83
303.309	2.9
303.524	70.48
303.738	-33.96
303.952	-42.15
304.166	21.33
304.381	15.19
304.595	56.15
304.809	27.48
305.023	56.15
305.237	66.39
305.452	47.96
305.666	11.09
305.88	78.68
306.094	47.96
306.308	31.57
306.522	13.14
306.736	101.2
306.95	9.05
307.164	11.09
307.379	95.06
307.593	68.44
307.807	74.58
308.021	64.34
308.235	95.06
308.449	29.52
308.663	17.24
308.877	54.1
309.091	-29.87
309.305	2.9
309.519	25.43
309.733	86.87
309.947	-3.24
310.161	103.25
310.374	58.2
310.588	-9.39
310.802	45.91
311.016	95.06
311.23	93.01
311.444	37.72
311.658	45.91
311.872	93.01
312.085	-21.67
312.299	76.63
312.513	45.91
312.727	95.06
312.941	56.15
313.154	41.81
313.368	-33.96
313.582	86.87
313.796	45.91
314.009	13.14
314.223	35.67
314.437	41.81
314.651	11.09
314.864	4.95
315.078	31.57
315.292	41.81
315.505	41.81
315.719	21.33
315.933	21.33
316.146	56.15
316.36	-25.77
316.573	64.34
316.787	2.9
317.001	-5.29
317.214	27.48
317.428	117.59
317.641	50
317.855	68.44
318.068	56.15
318.282	68.44
318.495	66.39
318.709	56.15
318.922	70.48
319.136	43.86
319.349	29.52
319.563	13.14
319.776	25.43
319.99	74.58
320.203	29.52
320.417	52.05
320.63	47.96
320.843	82.77
321.057	88.92
321.27	70.48
321.483	58.2
321.697	103.25
321.91	54.1
322.124	103.25
322.337	13.14
322.55	56.15
322.763	47.96
322.977	66.39
323.19	62.29
323.403	68.44
323.617	78.68
323.83	119.64
324.043	39.76
324.256	140.12
324.469	-36.01
324.683	90.96
324.896	78.68
325.109	72.53
325.322	-15.53
325.535	103.25
325.748	50
325.962	97.11
326.175	66.39
326.388	70.48
326.601	19.29
326.814	-17.58
327.027	78.68
327.24	45.91
327.453	47.96
327.666	70.48
327.879	15.19
328.092	62.29
328.305	21.33
328.518	35.67
328.731	105.3
328.944	50
329.157	2.9
329.37	23.38
329.583	66.39
329.796	97.11
330.009	29.52
330.222	39.76
330.435	2.9
330.648	62.29
330.861	109.4
331.073	97.11
331.286	47.96
331.499	56.15
331.712	76.63
331.925	95.06
332.138	54.1
332.35	13.14
332.563	60.24
332.776	86.87
332.989	152.4
333.202	78.68
333.414	19.29
333.627	74.58
333.84	50
334.053	97.11
334.265	15.19
334.478	-40.11
334.691	-64.68
334.903	90.96
335.116	43.86
335.329	103.25
335.541	60.24
335.754	127.83
335.966	39.76
336.179	35.67
336.392	72.53
336.604	105.3
336.817	119.64
337.029	84.82
337.242	105.3
337.454	82.77
337.667	9.05
337.88	80.72
338.092	70.48
338.305	101.2
338.517	-1.19
338.729	62.29
338.942	11.09
339.154	17.24
339.367	33.62
339.579	37.72
339.792	62.29
340.004	41.81
340.217	29.52
340.429	50
340.641	37.72
340.854	25.43
341.066	54.1
341.278	33.62
341.491	64.34
341.703	66.39
341.915	23.38
342.128	-17.58
342.34	90.96
342.552	-7.34
342.764	56.15
342.977	47.96
343.189	37.72
343.401	115.54
343.613	25.43
343.826	113.49
344.038	39.76
344.25	7
344.462	82.77
344.674	76.63
344.886	127.83
345.099	68.44
345.311	95.06
345.523	72.53
345.735	78.68
345.947	58.2
346.159	76.63
346.371	136.02
346.583	-15.53
346.795	119.64
347.007	72.53
347.219	68.44
347.431	70.48
347.643	58.2
347.855	66.39
348.067	78.68
348.279	39.76
348.491	13.14
348.703	66.39
348.915	31.57
349.127	82.77
349.339	117.59
349.551	66.39
349.763	35.67
349.975	45.91
350.187	80.72
350.399	45.91
350.61	78.68
350.822	78.68
351.034	15.19
351.246	76.63
351.458	78.68
351.669	70.48
351.881	93.01
352.093	88.92
352.305	56.15
352.517	-1.19
352.728	60.24
352.94	-1.19
353.152	-56.49
353.363	66.39
353.575	86.87
353.787	54.1
353.999	113.49
354.21	80.72
354.422	50
354.633	70.48
354.845	54.1
355.057	54.1
355.268	43.86
355.48	72.53
355.692	111.44
355.903	109.4
356.115	21.33
356.326	70.48
356.538	25.43
356.749	121.68
356.961	97.11
357.172	66.39
357.384	64.34
357.595	37.72
357.807	39.76
358.018	45.91
358.23	74.58
358.441	50
358.653	68.44
358.864	21.33
359.075	72.53
359.287	29.52
359.498	39.76
359.709	13.14
359.921	43.86
360.132	37.72
360.344	103.25
360.555	13.14
360.766	93.01
360.977	95.06
361.189	95.06
361.4	35.67
361.611	64.34
361.823	82.77
362.034	54.1
362.245	2.9
362.456	64.34
362.667	43.86
362.879	97.11
363.09	9.05
363.301	76.63
363.512	21.33
363.723	111.44
363.935	41.81
364.146	80.72
364.357	15.19
364.568	95.06
364.779	33.62
364.99	127.83
365.201	117.59
365.412	86.87
365.623	56.15
365.834	86.87
366.045	90.96
366.256	127.83
366.467	43.86
366.678	23.38
366.889	129.88
367.1	2.9
367.311	0.85
367.522	56.15
367.733	66.39
367.944	187.22
368.155	56.15
368.366	74.58
368.577	99.16
368.788	109.4
368.999	11.09
369.209	76.63
369.42	84.82
369.631	90.96
369.842	109.4
370.053	56.15
370.264	68.44
370.474	52.05
370.685	66.39
370.896	97.11
371.107	33.62
371.317	31.57
371.528	-1.19
371.739	64.34
371.95	35.67
372.16	70.48
372.371	31.57
372.582	95.06
372.792	84.82
373.003	54.1
373.214	121.68
373.424	111.44
373.635	-13.48
373.846	45.91
374.056	86.87
374.267	35.67
374.477	21.33
374.688	50
374.898	60.24
375.109	129.88
375.319	19.29
375.53	25.43
375.74	37.72
375.951	93.01
376.161	111.44
376.372	17.24
376.582	23.38
376.793	113.49
377.003	-1.19
377.214	37.72
377.424	117.59
377.635	136.02
377.845	70.48
378.055	146.26
378.266	86.87
378.476	101.2
378.686	88.92
378.897	84.82
379.107	52.05
379.317	117.59
379.528	7
379.738	43.86
379.948	109.4
380.158	29.52
380.369	93.01
380.579	19.29
380.789	43.86
380.999	84.82
381.21	78.68
381.42	111.44
381.63	82.77
381.84	27.48
382.05	9.05
382.261	21.33
382.471	103.25
382.681	95.06
382.891	86.87
383.101	43.86
383.311	99.16
383.521	95.06
383.731	62.29
383.941	37.72
384.151	50
384.361	88.92
384.571	103.25
384.781	58.2
384.991	37.72
385.201	133.97
385.411	78.68
385.621	56.15
385.831	4.95
386.041	97.11
386.251	95.06
386.461	117.59
386.671	0.85
386.881	54.1
387.091	0.85
387.301	82.77
387.511	68.44
387.72	129.88
387.93	105.3
388.14	64.34
388.35	88.92
388.56	37.72
388.769	62.29
388.979	105.3
389.189	29.52
389.399	119.64
389.609	99.16
389.818	166.74
390.028	101.2
390.238	70.48
390.447	41.81
390.657	111.44
390.867	99.16
391.076	84.82
391.286	76.63
391.496	33.62
391.705	103.25
391.915	117.59
392.125	107.35
392.334	68.44
392.544	50
392.753	138.07
392.963	66.39
393.172	78.68
393.382	101.2
393.591	111.44
393.801	62.29
394.01	50
394.22	93.01
394.429	136.02
394.639	68.44
394.848	101.2
395.058	144.21
395.267	111.44
395.477	74.58
395.686	78.68
395.895	125.78
396.105	172.88
396.314	62.29
396.524	86.87
396.733	119.64
396.942	121.68
397.152	115.54
397.361	41.81
397.57	78.68
397.78	127.83
397.989	90.96
398.198	119.64
398.407	133.97
398.617	64.34
398.826	105.3
399.035	45.91
399.244	82.77
399.453	93.01
399.663	181.07
399.872	166.74
400.081	109.4
400.29	160.59
400.499	160.59
400.708	168.79
400.917	97.11
401.127	191.31
401.336	148.31
401.545	93.01
401.754	105.3
401.963	187.22
402.172	140.12
402.381	119.64
402.59	111.44
402.799	129.88
403.008	187.22
403.217	148.31
403.426	127.83
403.635	154.45
403.844	156.5
404.053	129.88
404.262	140.12
404.471	133.97
404.68	107.35
404.888	119.64
405.097	199.51
405.306	121.68
405.515	113.49
405.724	203.6
405.933	222.03
406.142	234.32
406.35	250.71
406.559	129.88
406.768	217.94
406.977	215.89
407.185	265.04
407.394	209.75
407.603	222.03
407.812	217.94
408.02	226.13
408.229	205.65
408.438	262.99
408.646	283.47
408.855	279.38
409.064	226.13
409.272	308.05
409.481	344.91
409.69	265.04
409.898	344.91
410.107	406.35
410.315	295.76
410.524	367.44
410.733	330.58
410.941	432.97
411.15	383.82
411.358	416.59
411.567	461.65
411.775	428.88
411.984	459.6
412.192	426.83
412.401	547.66
412.609	527.18
412.818	543.57
413.026	510.8
413.234	574.28
413.443	535.37
413.651	621.39
413.86	529.23
414.068	705.35
414.276	666.44
414.485	566.09
414.693	676.68
414.901	719.69
415.11	740.17
415.318	762.7
415.526	729.93
415.734	803.66
415.943	779.08
416.151	883.53
416.359	895.82
416.567	871.24
416.776	904.01
416.984	951.11
417.192	1018.69
417.4	1047.37
417.608	1047.37
417.817	1096.52
418.025	1114.95
418.233	1186.63
418.441	1227.59
418.649	1342.27
418.857	1364.8
419.065	1332.03
419.273	1372.99
419.481	1385.28
419.689	1473.34
419.897	1446.72
420.105	1575.74
420.313	1692.48
420.521	1672
420.729	1801.02
420.937	1856.31
421.145	1915.7
421.353	1962.81
421.561	1948.47
421.769	2032.44
421.977	2145.08
422.185	2057.01
422.393	2220.85
422.601	2431.79
422.809	2245.43
423.017	2345.78
423.224	2437.94
423.432	2552.62
423.64	2614.06
423.848	2878.25
424.056	2667.31
424.263	2874.15
424.471	2943.78
424.679	3019.56
424.887	3283.75
425.094	3175.2
425.302	3402.53
425.51	3377.95
425.718	3541.79
425.925	3650.33
426.133	3658.53
426.341	3861.27
426.548	4033.3
426.756	4090.65
426.964	4117.27
427.171	4330.26
427.379	4463.38
427.586	4578.06
427.794	4641.55
428.001	4907.79
428.209	5153.54
428.417	5024.52
428.624	5313.28
428.832	5268.23
429.039	5298.95
429.247	5165.83
429.454	5806.84
429.662	6030.07
429.869	5829.37
430.076	6157.05
430.284	5862.14
430.491	6218.49
430.699	6634.22
430.906	6695.66
431.114	6822.64
431.321	7107.3
431.528	7021.29
431.736	7389.92
431.943	7854.81
432.15	7592.67
432.358	7723.74
432.565	8262.36
432.772	8157.91
432.979	8659.67
433.187	8870.61
433.394	8878.8
433.601	9310.92
433.808	9624.26
434.016	9415.37
434.223	9691.84
434.43	10257.08
434.637	10136.25
434.844	10844.85
435.052	10982.06
435.259	10857.14
435.466	11174.57
435.673	10922.67
435.88	11506.34
436.087	12182.17
436.294	11963.04
436.501	11680.42
436.708	12053.15
436.915	12642.96
437.122	13140.62
437.329	13267.59
437.537	13410.95
437.743	13781.64
437.95	13558.41
438.157	14289.53
438.364	14791.28
438.571	14760.56
438.778	14910.07
438.985	16183.9
439.192	15489.64
439.399	16147.04
439.606	15698.53
439.813	16861.78
440.02	17599.05
440.227	17136.21
440.433	17103.44
440.64	17629.77
440.847	17539.66
441.054	18080.32
441.261	18901.56
441.467	18905.65
441.674	19286.58
441.881	19849.77
442.088	19923.49
442.294	19853.86
442.501	20091.43
442.708	20656.67
442.914	21520.91
443.121	22317.57
443.328	21672.46
443.534	23366.13
443.741	22399.49
443.948	22393.34
444.154	24406.5
444.361	23874.03
444.568	23640.56
444.774	23888.36
444.981	24121.83
445.187	25004.5
445.394	26122.69
445.6	25821.64
445.807	28180.9
446.013	27038.14
446.22	27736.49
446.426	28586.4
446.633	28594.59
446.839	29862.29
447.046	28774.81
447.252	29972.88
447.459	30263.69
447.665	30167.43
447.871	31392.12
448.078	32754.02
448.284	30910.85
448.491	31631.73
448.697	33347.93
448.903	33825.11
449.11	33968.46
449.316	33261.91
449.522	33909.07
449.728	34861.38
449.935	35045.69
450.141	34793.79
450.347	35844.4
450.553	34838.85
450.76	35367.23
450.966	36456.75
451.172	35662.13
451.378	37001.5
451.584	35934.51
451.791	36935.97
451.997	36559.14
452.203	37460.25
452.409	37296.41
452.615	37478.68
452.821	35828.02
453.027	35393.85
453.233	37089.57
453.44	36118.83
453.646	36362.54
453.852	36260.14
454.058	36974.88
454.264	35737.91
454.47	36516.14
454.676	35615.03
454.882	36587.82
455.088	33827.15
455.294	34246.99
455.5	34677.06
455.705	35123.52
455.911	33411.42
456.117	33016.16
456.323	32616.8
456.529	31000.96
456.735	32158.06
456.941	31613.3
457.147	30704
457.352	29798.8
457.558	29469.08
457.764	29616.53
457.97	29129.11
458.176	28414.37
458.381	28561.83
458.587	26997.18
458.793	27367.86
458.999	25709.01
459.204	27746.73
459.41	26833.34
459.616	25006.55
459.821	25108.95
460.027	24961.5
460.233	24259.04
460.438	23534.06
460.644	23661.04
460.85	22090.24
461.055	22145.54
461.261	22045.19
461.466	20558.36
461.672	19823.14
461.878	21203.47
462.083	19989.03
462.289	19407.41
462.494	19292.72
462.7	18713.14
462.905	17896
463.111	18424.38
463.316	18870.84
463.522	18559.55
463.727	18420.28
463.932	18530.87
464.138	18453.05
464.343	18149.95
464.549	17764.93
464.754	18231.87
464.959	18094.66
465.165	18162.24
465.37	17209.93
465.575	16886.36
465.781	17637.96
465.986	17715.78
466.191	16996.95
466.397	16560.73
466.602	15870.56
466.807	16562.78
467.012	16298.59
467.218	16290.4
467.423	16101.98
467.628	16235.1
467.833	16900.69
468.038	16355.93
468.244	15841.89
468.449	16261.73
468.654	16065.12
468.859	15583.85
469.064	15708.77
469.269	15379.05
469.474	15293.04
469.679	15571.56
469.885	15200.88
470.09	15540.84
470.295	15200.88
470.5	14811.76
470.705	15020.66
470.91	14727.8
471.115	14471.8
471.32	14785.14
471.525	14649.97
471.73	14402.17
471.935	14027.39
472.139	13800.07
472.344	13869.7
472.549	13703.81
472.754	13628.04
472.959	13310.6
473.164	12888.72
473.369	12886.67
473.574	13582.98
473.778	13355.66
473.983	13220.49
474.188	12946.06
474.393	12753.55
474.598	12604.05
474.802	12681.88
475.007	12298.91
475.212	12257.95
475.417	11836.06
475.621	12016.29
475.826	11989.66
476.031	11801.25
476.235	11395.75
476.44	11748
476.645	11494.05
476.849	11537.06
477.054	11418.28
477.259	11131.56
477.463	10932.91
477.668	10875.57
477.872	10951.34
478.077	10595
478.282	10414.77
478.486	10539.7
478.691	10283.7
478.895	10478.26
479.1	10459.83
479.304	10369.72
479.509	10199.74
479.713	10207.93
479.918	10027.71
480.122	9896.64
480.326	9960.13
480.531	10076.86
480.735	9763.52
480.94	9810.62
481.144	10080.96
481.348	9642.69
481.553	9614.02
481.757	9521.86
481.961	9755.33
482.166	9810.62
482.37	9736.9
482.574	9624.26
482.778	9667.27
482.983	9714.37
483.187	9634.5
483.391	9724.61
483.595	9640.64
483.8	9478.85
484.004	9556.68
484.208	9732.8
484.412	9534.15
484.616	9525.96
484.821	9628.35
485.025	9480.9
485.229	9689.79
485.433	9695.94
485.637	9609.92
485.841	9374.41
486.045	9439.94
486.249	9534.15
486.453	9398.98
486.657	9663.17
486.861	9712.32
487.065	9401.03
487.269	9542.34
487.473	9511.62
487.677	9468.61
487.881	9591.49
488.085	9550.53
488.289	9738.94
488.493	9624.26
488.697	9720.51
488.901	9976.51
489.105	9730.75
489.309	9577.16
489.512	9560.77
489.716	9704.13
489.92	9788.1
490.124	9818.82
490.328	9968.32
490.531	9863.87
490.735	9818.82
490.939	9896.64
491.143	9720.51
491.346	9777.86
491.55	9908.93
491.754	9919.17
491.958	10138.3
492.161	9994.94
492.365	10312.38
492.569	10040
492.772	10173.11
492.976	10367.67
493.18	10248.89
493.383	10576.56
493.587	10367.67
493.79	10633.91
493.994	10578.61
494.197	10744.5
494.401	10777.26
494.605	10842.8
494.808	10850.99
495.012	11043.5
495.215	11041.45
495.419	11178.67
495.622	11154.09
495.825	11453.09
496.029	11387.56
496.232	11487.91
496.436	11645.6
496.639	11811.49
496.843	11897.5
497.046	12008.09
497.249	12114.59
497.453	12206.75
497.656	12577.43
497.859	12405.4
498.063	12540.57
498.266	13005.45
498.469	12651.16
498.673	13070.99
498.876	13073.04
499.079	13165.2
499.282	13335.18
499.485	13474.44
499.689	13456.01
499.892	14113.41
500.095	14011.01
500.298	14416.51
500.501	14078.59
500.705	14623.35
500.908	14756.47
501.111	15016.56
501.314	15391.34
501.517	15444.59
501.72	15471.21
501.923	15473.26
502.126	15819.36
502.329	15868.52
502.532	16241.25
502.735	16224.86
502.938	16802.39
503.141	16736.85
503.344	16992.85
503.547	17152.59
503.75	17338.96
503.953	17699.4
504.156	17613.38
504.359	18125.38
504.562	18227.78
504.765	18690.62
504.968	18842.17
505.17	18993.72
505.373	18809.4
505.576	19530.28
505.779	19720.74
505.982	19810.86
506.185	20298.27
506.387	20369.95
506.59	20685.34
506.793	20953.62
506.996	21131.79
507.198	21918.21
507.401	21340.69
507.604	21694.99
507.807	22039.05
508.009	22331.9
508.212	22546.94
508.415	22962.68
508.617	23108.08
508.82	23464.43
509.022	23607.79
509.225	24353.25
509.428	24115.69
509.63	24441.31
509.833	24375.78
510.035	25442.77
510.238	25014.74
510.44	25688.53
510.643	26026.44
510.845	26141.13
511.048	26202.57
511.25	26892.73
511.453	26870.2
511.655	27867.56
511.858	27464.11
512.06	27824.56
512.262	28486.05
512.465	28348.84
512.667	28866.97
512.87	29188.5
513.072	29366.68
513.274	29897.1
513.477	30232.97
513.679	30269.83
513.881	31123.83
514.084	31269.24
514.286	31410.55
514.488	31932.78
514.69	32711.01
514.893	32428.39
515.095	32983.39
515.297	33487.19
515.499	33472.85
515.701	34158.92
515.904	34513.22
516.106	34756.93
516.308	35111.23
516.51	35533.11
516.712	35205.44
516.914	36073.77
517.116	36303.15
517.318	36843.81
517.52	36987.17
517.722	37167.39
517.925	38041.87
518.127	38283.53
518.329	38658.31
518.531	38656.26
518.733	39280.89
518.935	39885.04
519.136	39551.23
519.338	40331.5
519.54	40632.55
519.742	41343.2
519.944	41138.4
520.146	42016.98
520.348	42281.17
520.55	42258.64
520.752	42541.26
520.954	43405.5
521.155	42895.56
521.357	43688.12
521.559	44441.78
521.761	44366
521.963	45013.16
522.164	45050.02
522.366	44785.83
522.568	45527.2
522.77	45443.23
522.971	47032.46
523.173	46301.33
523.375	46663.82
523.576	46948.49
523.778	47079.56
523.98	47505.54
524.181	47749.24
524.383	47818.88
524.584	48531.57
524.786	49080.42
524.988	48564.34
525.189	49414.24
525.391	49414.24
525.592	49979.48
525.794	50006.11
525.995	49780.83
526.197	50010.2
526.398	49981.53
526.6	50987.08
526.801	50856.01
527.003	51214.41
527.204	51097.67
527.406	51972.16
527.607	52004.92
527.808	51929.15
528.01	51429.44
528.211	51982.4
528.412	52879.41
528.614	53047.34
528.815	52172.86
529.016	53067.82
529.218	52658.23
529.419	53088.3
529.62	52787.25
529.822	52901.93
530.023	53422.12
530.224	53301.29
530.425	53364.78
530.626	52985.9
530.828	53012.52
531.029	54216.73
531.23	53481.51
531.431	53499.94
531.632	53829.66
531.833	53942.3
532.035	53942.3
532.236	54061.08
532.437	54601.75
532.638	53927.97
532.839	54446.1
533.04	54294.55
533.241	53938.21
533.442	55013.39
533.643	54431.77
533.844	54433.81
534.045	54816.78
534.246	54431.77
534.447	54929.42
534.648	54304.79
534.849	54814.74
535.05	54444.05
535.251	54779.92
535.451	55222.28
535.652	55064.59
535.853	54837.26
536.054	54892.56
536.255	54929.42
536.456	54599.7
536.657	55314.44
536.857	54700.05
537.058	54712.34
537.259	55103.5
537.46	54958.09
537.66	54784.02
537.861	55287.82
538.062	54452.25
538.263	54876.18
538.463	54579.22
538.664	55222.28
538.865	54949.9
539.065	54966.29
539.266	54439.96
539.466	55607.3
539.667	54468.63
539.868	55480.33
540.068	55042.06
540.269	54835.22
540.469	54913.04
540.67	55035.92
540.87	54913.04
541.071	54728.72
541.271	55175.18
541.472	54687.76
541.672	54874.13
541.873	54753.3
542.073	54454.29
542.274	55322.63
542.474	54624.28
542.675	54358.04
542.875	55083.02
543.075	54775.83
543.276	54470.68
543.476	55123.98
543.676	54554.64
543.877	55109.64
544.077	54689.81
544.277	54597.65
544.478	54677.52
544.678	55369.74
544.878	54835.22
545.078	54321.18
545.279	54829.07
545.479	54683.67
545.679	54964.24
545.879	54730.77
546.079	54642.71
546.28	54472.73
546.48	54151.2
546.68	54665.24
546.88	54855.7
547.08	55128.08
547.28	54609.94
547.48	54190.11
547.68	54945.81
547.88	54302.74
548.081	55183.37
548.281	54730.77
548.481	54548.5
548.681	55203.85
548.881	54208.54
549.081	54618.13
549.28	54530.07
549.48	54714.39
549.68	54624.28
549.88	55535.62
550.08	54276.12
550.28	54548.5
550.48	54515.73
550.68	54829.07
550.88	54214.68
551.08	54351.9
551.279	54728.72
551.479	54315.03
551.679	54394.9
551.879	54224.92
552.079	54532.12
552.278	54374.42
552.478	54442.01
552.678	54982.67
552.878	54579.22
553.077	54695.95
553.277	54040.6
553.477	54812.69
553.676	54323.22
553.876	53870.62
554.076	54310.94
554.275	54216.73
554.475	53340.2
554.674	53962.78
554.874	54052.89
555.074	53993.5
555.273	53973.02
555.473	54476.82
555.672	53606.44
555.872	53932.06
556.071	54181.91
556.271	54351.9
556.47	53825.57
556.67	53420.07
556.869	53532.71
557.068	53606.44
557.268	53270.57
557.467	53211.18
557.667	53669.92
557.866	53245.99
558.065	53585.96
558.265	52623.41
558.464	52938.8
558.663	53684.26
558.863	52856.88
559.062	53653.54
559.261	52803.63
559.461	53375.01
559.66	52381.75
559.859	52863.02
560.058	53059.63
560.258	53047.34
560.457	52592.69
560.656	52719.66
560.855	52455.48
561.054	52865.07
561.253	52144.19
561.453	52549.68
561.652	52568.12
561.851	52471.86
562.05	52242.49
562.249	52310.07
562.448	52258.87
562.647	52195.38
562.846	51957.82
563.045	52138.04
563.244	51687.49
563.443	52250.68
563.642	51679.3
563.841	51861.57
564.04	51589.19
564.239	52183.1
564.438	51597.38
564.637	51906.62
564.836	51501.12
565.035	51515.46
565.234	51245.13
565.432	50839.63
565.631	51060.81
565.83	51443.78
566.029	51095.63
566.228	50909.26
566.427	50630.74
566.625	50614.35
566.824	50436.18
567.023	50987.08
567.222	49731.68
567.42	50890.83
567.619	50554.96
567.818	50094.17
568.016	49791.07
568.215	50665.55
568.414	49909.85
568.612	50616.4
568.811	50110.55
569.01	50245.72
569.208	49586.27
569.407	49825.89
569.605	49139.82
569.804	49809.5
570.002	49129.58
570.201	49487.97
570.4	49317.99
570.598	48883.82
570.797	48767.09
570.995	48509.04
571.193	48314.48
571.392	48666.73
571.59	48291.96
571.789	48568.43
571.987	48588.91
572.186	48418.93
572.384	48013.43
572.582	48334.96
572.781	48185.46
572.979	47562.88
573.177	47988.86
573.376	47689.85
573.574	47214.72
573.772	47951.99
573.971	47001.74
574.169	47147.14
574.367	46971.02
574.565	47380.61
574.763	46852.23
574.962	46528.66
575.16	46790.8
575.358	46456.98
575.556	46135.45
575.754	46573.71
575.952	46117.01
576.151	46178.45
576.349	45623.45
576.547	45768.86
576.745	46133.4
576.943	45705.37
577.141	45588.64
577.339	45559.97
577.537	45041.83
577.735	44998.82
577.933	44695.72
578.131	45385.89
578.329	44898.47
578.527	44343.47
578.725	44261.55
578.923	44693.68
579.121	44421.3
579.319	44159.16
579.516	44329.14
579.714	44021.94
579.912	43827.38
580.11	43854.01
580.308	43692.22
580.506	43604.16
580.704	42762.44
580.901	43450.56
581.099	43813.05
581.297	43118.79
581.495	43045.06
581.692	43471.04
581.89	42784.97
582.088	43098.31
582.285	42672.33
582.483	42809.54
582.681	42830.02
582.878	42445.01
583.076	41986.26
583.274	42375.37
583.471	41474.27
583.669	42129.62
583.866	41445.6
584.064	41984.21
584.262	41199.84
584.459	42133.71
584.657	40839.4
584.854	41498.84
585.052	40646.89
585.249	41113.83
585.447	41025.76
585.644	40714.47
585.841	40530.15
586.039	40679.66
586.236	40653.03
586.434	40120.56
586.631	40231.15
586.828	40438
587.026	40315.12
587.223	40032.5
587.42	39674.1
587.618	39997.68
587.815	39280.89
588.012	39514.36
588.21	39166.21
588.407	39696.63
588.604	39424.25
588.801	38805.77
588.999	38979.84
589.196	38801.67
589.393	38859.01
589.59	38701.32
589.787	38527.24
589.984	38283.53
590.182	37724.44
590.379	38770.95
590.576	38232.33
590.773	38152.46
590.97	37648.66
591.167	37900.56
591.364	37554.46
591.561	37912.85
591.758	37431.58
591.955	37407
592.152	37142.81
592.349	37001.5
592.546	37394.71
592.743	37286.17
592.94	36757.8
593.137	37077.28
593.334	36962.59
593.531	36526.38
593.727	36636.97
593.924	36624.68
594.121	36206.89
594.318	36772.13
594.515	35899.7
594.712	36327.72
594.908	36129.07
595.105	36081.97
595.302	35752.24
595.499	35848.5
595.696	35227.96
595.892	35285.31
596.089	35512.63
596.286	35422.52
596.482	35244.35
596.679	35082.56
596.876	35053.89
597.072	34668.87
597.269	34781.51
597.466	34670.92
597.662	34550.09
597.859	34552.13
598.055	34595.14
598.252	34285.9
598.448	34496.84
598.645	34431.3
598.841	34005.33
599.038	33642.84
599.234	34173.26
599.431	33646.93
599.627	33818.96
599.824	33823.06
600.02	33284.44
600.217	33603.92
600.413	33341.78
600.609	33108.32
600.806	32969.05
601.002	32915.81
601.198	32958.81
601.395	32721.25
601.591	32745.83
601.787	32655.72
601.984	32362.86
602.18	32901.47
602.376	32420.2
602.572	31940.97
602.769	32457.06
602.965	31873.39
603.161	32295.27
603.357	31777.14
603.553	31994.22
603.75	31449.46
603.946	31127.93
604.142	31682.93
604.338	31158.65
604.534	30972.28
604.73	30736.77
604.926	30927.23
605.122	30869.89
605.318	30658.95
605.514	30933.37
605.71	30321.03
605.906	30687.62
606.102	30486.92
606.298	30607.75
606.494	30251.4
606.69	30046.6
606.886	30187.91
607.082	29919.63
607.278	29933.96
607.474	29847.95
607.67	29606.29
607.866	29290.9
608.062	29354.39
608.257	29131.16
608.453	29073.82
608.649	29438.36
608.845	29094.3
609.041	28971.42
609.236	28959.13
609.432	28803.49
609.628	28914.08
609.824	28957.08
610.019	28559.78
610.215	28653.98
610.411	28617.12
610.606	28070.31
610.802	28279.21
610.998	28350.88
611.193	27988.39
611.389	27969.96
611.584	27976.11
611.78	27668.91
611.976	27967.91
612.171	27677.1
612.367	27759.02
612.562	27548.08
612.758	27263.41
612.953	27412.92
613.149	27605.42
613.344	27337.14
613.539	27460.02
613.735	27390.39
613.93	27355.57
614.126	27097.53
614.321	27333.04
614.517	27122.1
614.712	26804.67
614.907	26819
615.103	26857.92
615.298	26802.62
615.493	27025.85
615.688	26169.8
615.884	26929.59
616.079	26597.82
616.274	26378.69
616.47	26468.8
616.665	26202.57
616.86	26264
617.055	26016.2
617.25	25729.48
617.445	25741.77
617.641	25770.44
617.836	25653.71
618.031	25514.45
618.226	25747.92
618.421	25432.53
618.616	25788.88
618.811	25074.13
619.006	25530.83
619.201	24844.76
619.396	25111
619.591	24771.04
619.786	24990.17
619.981	24521.18
620.176	24691.16
620.371	24406.5
620.566	24488.42
620.761	24177.12
620.956	24392.16
621.151	23792.11
621.346	23656.94
621.541	23867.88
621.735	24039.91
621.93	23263.73
622.125	23386.61
622.32	23269.87
622.515	23515.63
622.709	23300.59
622.904	23126.52
623.099	22725.11
623.294	22729.21
623.488	22442.49
623.683	22768.12
623.878	22247.94
624.072	22151.68
624.267	22323.71
624.462	22227.46
624.656	21850.63
624.851	21791.24
625.046	21772.81
625.24	21479.95
625.435	21127.7
625.629	21363.22
625.824	21266.96
626.018	20941.33
626.213	20611.61
626.407	20871.7
626.602	20603.42
626.796	20883.99
626.991	20763.16
627.185	20468.25
627.38	19941.93
627.574	20046.37
627.768	20021.8
627.963	19855.91
628.157	19614.25
628.352	19978.79
628.546	19585.58
628.74	19577.39
628.935	19503.66
629.129	19597.87
629.323	18944.56
629.517	19288.62
629.712	18950.71
629.906	18799.16
630.1	18516.54
630.294	18924.08
630.489	18723.38
630.683	18813.49
630.877	18293.31
631.071	18072.13
631.265	18297.41
631.459	18348.61
631.653	18246.21
631.848	18008.64
632.042	18065.99
632.236	17945.16
632.43	17691.21
632.624	18029.12
632.818	17891.91
633.012	17431.12
633.206	17373.77
633.4	17490.51
633.594	17211.98
633.788	17334.86
633.982	17252.94
634.176	16968.27
634.369	16634.46
634.563	16865.88
634.757	16781.91
634.951	17078.86
635.145	16853.59
635.339	16667.22
635.533	16417.37
635.726	16396.89
635.92	15868.52
636.114	16302.68
636.308	16235.1
636.501	16216.67
636.695	15802.98
636.889	15749.73
637.083	15864.42
637.276	15757.92
637.47	15805.03
637.664	15702.63
637.857	15350.38
638.051	15374.95
638.244	15194.73
638.438	15348.33
638.632	15202.93
638.825	15053.42
639.019	14922.35
639.212	15164.01
639.406	14934.64
639.599	14678.65
639.793	14967.41
639.986	14484.09
640.18	14537.34
640.373	14428.79
640.567	14299.77
640.76	14342.78
640.954	14148.22
641.147	14088.83
641.34	14180.99
641.534	14234.24
641.727	13990.53
641.92	13994.62
642.114	13693.57
642.307	13886.08
642.5	13716.1
642.694	13384.33
642.887	13478.54
643.08	13568.65
643.273	13122.19
643.467	13329.03
643.66	13087.37
643.853	13177.48
644.046	12894.86
644.239	13034.13
644.432	13114
644.626	12939.92
644.819	12685.97
645.012	12657.3
645.205	12683.92
645.398	12554.9
645.591	12608.15
645.784	12419.74
645.977	12040.86
646.17	12229.27
646.363	12167.84
646.556	12151.45
646.749	12124.83
646.942	11932.32
647.135	11889.31
647.328	12049.05
647.521	11756.19
647.714	11657.89
647.907	11803.3
648.099	11571.88
648.292	11528.87
648.485	11399.85
648.678	11274.92
648.871	11383.46
649.064	11158.19
649.256	11307.69
649.449	11088.56
649.642	11037.36
649.835	10879.66
650.027	10814.13
650.22	10822.32
650.413	10683.06
650.605	10644.15
650.798	10658.48
650.991	10660.53
651.183	10377.91
651.376	10377.91
651.568	10312.38
651.761	10326.71
651.954	10220.22
652.146	10310.33
652.339	10197.69
652.531	9882.3
652.724	9931.45
652.916	9663.17
653.109	9714.37
653.301	9743.04
653.494	9921.21
653.686	9624.26
653.879	9769.66
654.071	9753.28
654.263	9689.79
654.456	9401.03
654.648	9427.65
654.84	9310.92
655.033	9155.27
655.225	9114.31
655.417	9059.02
655.61	8948.43
655.802	9087.69
655.994	8993.48
656.186	8813.26
656.379	8731.34
656.571	8854.22
656.763	8585.94
656.955	8583.89
657.148	8717.01
657.34	8547.03
657.532	8364.76
657.724	8327.89
657.916	8385.24
658.108	8297.17
658.3	8194.78
658.492	8127.19
658.684	8119
658.876	8147.67
659.068	8100.57
659.26	7852.77
659.452	7903.96
659.644	7928.54
659.836	7824.09
660.028	7721.7
660.22	7570.15
660.412	7594.72
660.604	7559.91
660.796	7473.89
660.988	7592.67
661.18	7295.72
661.372	7334.63
661.563	7226.09
661.755	7041.77
661.947	7283.43
662.139	7000.81
662.331	6963.95
662.522	7025.39
662.714	7070.44
662.906	6886.12
663.097	6925.04
663.289	6783.73
663.481	6718.19
663.673	6646.51
663.864	6548.21
664.056	6738.67
664.247	6546.16
664.439	6378.23
664.631	6521.59
664.822	6587.12
665.014	6269.69
665.205	6470.39
665.397	6431.48
665.588	6212.34
665.78	6259.45
665.971	5968.63
666.163	6288.12
666.354	6138.62
666.546	6079.22
666.737	5952.25
666.929	6019.83
667.12	5962.49
667.311	5985.02
667.503	5688.06
667.694	5905.15
667.885	5659.39
668.077	5866.24
668.268	5825.28
668.459	5772.03
668.651	5800.7
668.842	5692.16
669.033	5581.57
669.224	5702.4
669.416	5634.82
669.607	5405.44
669.798	5700.35
669.989	5460.74
670.18	5550.85
670.371	5411.59
670.563	5446.4
670.754	5319.43
670.945	5255.94
671.136	5362.44
671.327	5167.88
671.518	5262.09
671.709	5188.36
671.9	5088.01
672.091	5106.44
672.282	5112.58
672.473	5227.27
672.664	4936.46
672.855	5036.81
673.046	5102.34
673.237	4848.4
673.428	5006.09
673.619	4920.07
673.809	4803.34
674	5077.77
674.191	5024.52
674.382	4766.48
674.573	4899.59
674.764	4924.17
674.954	4766.48
675.145	4803.34
675.336	4852.49
675.527	4784.91
675.717	4743.95
675.908	4502.29
676.099	4678.41
676.289	4627.21
676.48	4664.08
676.671	4803.34
676.861	4610.83
677.052	4561.68
677.243	4422.42
677.433	4475.67
677.624	4543.25
677.814	4420.37
678.005	4479.76
678.195	4498.19
678.386	4363.03
678.576	4455.19
678.767	4373.27
678.957	4219.67
679.148	4424.47
679.338	4277.01
679.529	4498.19
679.719	4487.95
679.909	4422.42
680.1	4303.64
680.29	4250.39
680.481	4231.96
680.671	4252.44
680.861	4348.69
681.052	4340.5
681.242	4219.67
681.432	4211.48
681.622	4115.22
681.813	4141.85
682.003	4231.96
682.193	4184.85
682.383	3967.77
682.573	4045.59
682.764	4047.64
682.954	4125.46
683.144	4133.65
683.334	4137.75
683.524	4176.66
683.714	4041.5
683.904	4055.83
684.094	4037.4
684.284	4078.36
684.474	4234
684.664	3984.15
684.854	4068.12
685.044	4039.45
685.234	3975.96
685.424	4027.16
685.614	3990.3
685.804	3871.51
685.994	4012.82
686.184	3973.91
686.374	3889.95
686.564	3894.04
686.753	3828.51
686.943	3953.43
687.133	3848.99
687.323	3836.7
687.513	3803.93
687.702	3910.43
687.892	3957.53
688.082	3730.2
688.272	3820.32
688.461	3871.51
688.651	3869.47
688.841	3879.71
689.03	3791.64
689.22	3758.88
689.41	3871.51
689.599	3826.46
689.789	3820.32
689.979	3799.84
690.168	3740.44
690.358	3713.82
690.547	3898.14
690.737	4002.58
690.926	3808.03
691.116	3744.54
691.305	3832.6
691.495	3746.59
691.684	3826.46
691.874	3816.22
692.063	3597.09
692.252	3824.41
692.442	3805.98
692.631	3699.48
692.82	3801.88
693.01	3722.01
693.199	3722.01
693.388	3541.79
693.578	3629.85
693.767	3695.39
693.956	3693.34
694.146	3715.87
694.335	3613.47
694.524	3691.29
694.713	3707.68
694.902	3609.37
695.092	3619.61
695.281	3750.68
695.47	3715.87
695.659	3699.48
695.848	3722.01
696.037	3625.76
696.226	3719.96
696.415	3756.83
696.604	3640.09
696.793	3509.02
696.982	3588.89
697.171	3793.69
697.36	3644.19
697.549	3566.37
697.738	3633.95
697.927	3552.03
698.116	3629.85
698.305	3658.53
698.494	3588.89
698.683	3715.87
698.872	3461.92
699.061	3531.55
699.25	3470.11
699.438	3504.93
699.627	3560.22
699.816	3560.22
700.005	3449.63
700.193	3470.11
700.382	3502.88
700.571	3504.93
700.76	3552.03
700.948	3486.5
701.137	3531.55
701.326	3306.27
701.514	3398.43
701.703	3502.88
701.892	3357.47
702.08	3406.63
702.269	3486.5
702.457	3377.95
702.646	3420.96
702.834	3439.39
703.023	3478.3
703.212	3431.2
703.4	3287.84
703.589	3355.43
703.777	3412.77
703.965	3382.05
704.154	3373.86
704.342	3185.44
704.531	3341.09
704.719	3224.36
704.907	3326.75
705.096	3228.45
705.284	3201.83
705.472	3152.68
705.661	3093.29
705.849	3181.35
706.037	3214.12
706.226	3111.72
706.414	3152.68
706.602	3091.24
706.79	3255.08
706.979	3185.44
707.167	3126.05
707.355	3064.61
707.543	3076.9
707.731	3023.66
707.919	3001.13
708.107	2870.06
708.296	2937.64
708.484	3003.18
708.672	2978.6
708.86	2853.67
709.048	2886.44
709.236	2908.97
709.424	2865.96
709.612	2794.28
709.8	2972.46
709.988	2847.53
710.176	3007.27
710.364	2841.39
710.551	2865.96
710.739	2954.02
710.927	2761.52
711.115	2753.32
711.303	2761.52
711.491	2796.33
711.679	2786.09
711.866	2726.7
712.054	2704.17
712.242	2712.36
712.43	2730.8
712.617	2757.42
712.805	2757.42
712.993	2622.25
713.181	2655.02
713.368	2679.6
713.556	2718.51
713.744	2509.62
713.931	2536.24
714.119	2642.73
714.306	2632.49
714.494	2536.24
714.682	2595.63
714.869	2480.94
715.057	2433.84
715.244	2579.25
715.432	2560.81
715.619	2597.68
715.807	2587.44
715.994	2366.26
716.182	2386.74
716.369	2480.94
716.556	2429.74
716.744	2396.98
716.931	2388.78
717.119	2349.87
717.306	2345.78
717.493	2503.47
717.681	2337.59
717.868	2384.69
718.055	2333.49
718.242	2286.39
718.43	2349.87
718.617	2286.39
718.804	2321.2
718.991	2306.87
719.179	2267.95
719.366	2214.71
719.553	2245.43
719.74	2224.95
719.927	2214.71
720.114	2192.18
720.301	2237.24
720.488	2151.22
720.676	2179.89
720.863	2120.5
721.05	2210.61
721.237	2159.41
721.424	2194.23
721.611	2159.41
721.798	2020.15
721.985	2036.53
722.172	1997.62
722.358	2028.34
722.545	2011.96
722.732	2120.5
722.919	2022.2
723.106	2054.97
723.293	1917.75
723.48	1934.14
723.667	1921.85
723.853	2003.77
724.04	2024.25
724.227	1927.99
724.414	1995.57
724.6	1925.94
724.787	1833.79
724.974	1981.24
725.161	1891.13
725.347	1923.9
725.534	1837.88
725.72	1903.42
725.907	1942.33
726.094	1880.89
726.28	1796.92
726.467	1833.79
726.653	1846.07
726.84	1835.83
727.027	1864.5
727.213	1784.63
727.4	1805.11
727.586	1919.8
727.773	1758.01
727.959	1762.11
728.145	1749.82
728.332	1696.57
728.518	1743.67
728.705	1792.83
728.891	1659.71
729.077	1649.47
729.264	1639.23
729.45	1686.33
729.636	1702.72
729.823	1604.41
730.009	1721.15
730.195	1635.13
730.382	1641.28
730.568	1667.9
730.754	1706.81
730.94	1663.8
731.126	1626.94
731.313	1585.98
731.499	1628.99
731.685	1628.99
731.871	1663.8
732.057	1612.6
732.243	1739.58
732.429	1557.31
732.615	1659.71
732.801	1493.82
732.987	1583.93
733.173	1497.92
733.359	1606.46
733.545	1624.89
733.731	1590.08
733.917	1626.94
734.103	1583.93
734.289	1598.27
734.475	1463.1
734.661	1506.11
734.847	1489.73
735.033	1487.68
735.219	1579.84
735.404	1442.62
735.59	1491.77
735.776	1413.95
735.962	1522.49
736.148	1512.25
736.333	1459.01
736.519	1432.38
736.705	1473.34
736.89	1426.24
737.076	1348.42
737.262	1432.38
737.447	1344.32
737.633	1340.22
737.819	1454.91
738.004	1346.37
738.19	1430.34
738.375	1440.58
738.561	1254.21
738.747	1350.46
738.932	1286.98
739.118	1329.99
739.303	1375.04
739.489	1356.61
739.674	1352.51
739.859	1301.31
740.045	1229.63
740.23	1262.4
740.416	1325.89
740.601	1250.11
740.786	1334.08
740.972	1323.84
741.157	1360.7
741.342	1305.41
741.528	1233.73
741.713	1260.35
741.898	1221.44
742.084	1250.11
742.269	1256.26
742.454	1235.78
742.639	1286.98
742.824	1180.48
743.01	1307.46
743.195	1215.3
743.38	1297.22
743.565	1143.62
743.75	1178.44
743.935	1180.48
744.12	1207.11
744.305	1123.14
744.49	1045.32
744.675	1200.96
744.86	1162.05
745.045	1086.28
745.23	1151.81
745.415	1084.23
745.6	1030.98
745.785	1076.04
745.97	1069.89
746.155	1112.9
746.34	1092.42
746.525	1045.32
746.71	1162.05
746.895	1092.42
747.079	1028.93
747.264	1065.8
747.449	1051.46
747.634	1078.08
747.819	1041.22
748.003	985.93
748.188	994.12
748.373	1004.36
748.557	1030.98
748.742	953.16
748.927	987.97
749.111	963.4
749.296	932.68
749.481	1024.84
749.665	1071.94
749.85	1018.69
750.034	889.67
750.219	914.25
750.404	944.97
750.588	879.43
750.773	848.71
750.957	922.44
751.141	920.39
751.326	848.71
751.51	897.86
751.695	985.93
751.879	951.11
752.064	873.29
752.248	981.83
752.432	858.95
752.617	871.24
752.801	912.2
752.985	910.15
753.17	879.43
753.354	774.99
753.538	887.62
753.722	815.94
753.907	820.04
754.091	856.9
754.275	764.75
754.459	777.03
754.643	834.38
754.828	838.47
755.012	750.41
755.196	889.67
755.38	785.23
755.564	734.03
755.748	817.99
755.932	760.65
756.116	772.94
756.3	783.18
756.484	721.74
756.668	633.68
756.852	734.03
757.036	795.47
757.22	779.08
757.404	799.56
757.588	723.79
757.772	731.98
757.956	731.98
758.14	721.74
758.323	703.31
758.507	678.73
758.691	719.69
758.875	738.12
759.059	766.79
759.242	680.78
759.426	752.46
759.61	605
759.794	652.11
759.977	652.11
760.161	627.53
760.345	711.5
760.528	678.73
760.712	672.59
760.895	676.68
761.079	570.19
761.263	656.2
761.446	678.73
761.63	580.43
761.813	686.92
761.997	725.83
762.18	623.44
762.364	596.81
762.547	529.23
762.731	652.11
762.914	566.09
763.098	607.05
763.281	619.34
763.464	588.62
763.648	551.76
763.831	564.04
764.015	494.41
764.198	605
764.381	609.1
764.564	547.66
764.748	668.49
764.931	652.11
765.114	631.63
765.297	531.28
765.481	555.85
765.664	541.52
765.847	600.91
766.03	584.52
766.213	547.66
766.397	590.67
766.58	582.48
766.763	635.72
766.946	449.36
767.129	566.09
767.312	547.66
767.495	521.04
767.678	613.2
767.861	547.66
768.044	588.62
768.227	562
768.41	555.85
768.593	547.66
768.776	484.17
768.959	588.62
769.142	490.32
769.324	625.48
769.507	574.28
769.69	551.76
769.873	525.13
770.056	557.9
770.239	617.29
770.421	615.24
770.604	539.47
770.787	471.89
770.97	494.41
771.152	611.15
771.335	471.89
771.518	537.42
771.7	516.94
771.883	496.46
772.066	480.08
772.248	529.23
772.431	527.18
772.613	508.75
772.796	467.79
772.978	545.61
773.161	498.51
773.343	447.31
773.526	494.41
773.708	496.46
773.891	428.88
774.073	537.42
774.256	541.52
774.438	441.17
774.621	443.21
774.803	473.93
774.985	508.75
775.168	475.98
775.35	441.17
775.532	428.88
775.715	475.98
775.897	453.45
776.079	449.36
776.261	404.3
776.444	439.12
776.626	570.19
776.808	480.08
776.99	506.7
777.173	426.83
777.355	518.99
777.537	457.55
777.719	430.93
777.901	451.41
778.083	439.12
778.265	432.97
778.447	400.21
778.629	406.35
778.811	457.55
778.993	389.97
779.175	475.98
779.357	422.73
779.539	375.63
779.721	381.78
779.903	365.39
780.085	414.54
780.267	359.25
780.449	435.02
780.631	394.06
780.812	400.21
780.994	457.55
781.176	463.69
781.358	461.65
781.54	461.65
781.721	365.39
781.903	416.59
782.085	392.02
782.267	349.01
782.448	326.48
782.63	400.21
782.812	365.39
782.993	428.88
783.175	398.16
783.357	289.62
783.538	363.34
783.72	326.48
783.901	381.78
784.083	260.95
784.264	373.58
784.446	365.39
784.627	301.9
784.809	260.95
784.99	275.28
785.172	258.9
785.353	373.58
785.535	308.05
785.716	303.95
785.897	232.27
786.079	340.82
786.26	275.28
786.441	299.86
786.623	301.9
786.804	277.33
786.985	258.9
787.167	338.77
787.348	299.86
787.529	236.37
787.71	281.43
787.891	285.52
788.073	340.82
788.254	262.99
788.435	299.86
788.616	318.29
788.797	222.03
788.978	312.14
789.159	256.85
789.34	349.01
789.522	267.09
789.703	228.18
789.884	183.12
790.065	201.55
790.246	236.37
790.427	222.03
790.607	244.56
790.788	246.61
790.969	306
791.15	293.71
791.331	291.66
791.512	224.08
791.693	226.13
791.874	275.28
792.054	236.37
792.235	193.36
792.416	316.24
792.597	289.62
792.778	176.98
792.958	283.47
793.139	203.6
793.32	322.38
793.5	215.89
793.681	217.94
793.862	215.89
794.042	234.32
794.223	174.93
794.404	154.45
794.584	197.46
794.765	211.79
794.945	265.04
795.126	222.03
795.306	183.12
795.487	246.61
795.667	201.55
795.848	219.99
796.028	226.13
796.209	242.51
796.389	279.38
796.57	242.51
796.75	176.98
796.93	162.64
797.111	154.45
797.291	240.47
797.471	193.36
797.652	185.17
797.832	195.41
798.012	234.32
798.192	119.64
798.373	199.51
798.553	158.55
798.733	308.05
798.913	109.4
799.093	187.22
799.274	179.03
799.454	215.89
799.634	136.02
799.814	195.41
799.994	136.02
800.174	258.9
800.354	90.96
800.534	152.4
800.714	125.78
800.894	176.98
801.074	127.83
801.254	236.37
801.434	199.51
801.614	160.59
801.794	160.59
801.974	426.83
802.154	191.31
802.334	168.79
802.514	197.46
802.693	129.88
802.873	170.83
803.053	187.22
803.233	146.26
803.413	76.63
803.592	160.59
803.772	193.36
803.952	185.17
804.131	189.27
804.311	144.21
804.491	103.25
804.67	158.55
804.85	162.64
805.03	138.07
805.209	168.79
805.389	176.98
805.568	199.51
805.748	113.49
805.928	144.21
806.107	103.25
806.287	119.64
806.466	187.22
806.646	211.79
806.825	166.74
807.004	97.11
807.184	86.87
807.363	181.07
807.543	105.3
807.722	168.79
807.901	99.16
808.081	240.47
808.26	78.68
808.439	148.31
808.619	131.92
808.798	179.03
808.977	131.92
809.156	97.11
809.336	125.78
809.515	93.01
809.694	47.96
809.873	82.77
810.052	101.2
810.231	222.03
810.411	150.36
810.59	78.68
810.769	97.11
810.948	189.27
811.127	156.5
811.306	86.87
811.485	150.36
811.664	164.69
811.843	121.68
812.022	115.54
812.201	68.44
812.38	164.69
812.559	101.2
812.737	103.25
812.916	158.55
813.095	189.27
813.274	107.35
813.453	138.07
813.632	129.88
813.811	150.36
813.989	115.54
814.168	66.39
814.347	80.72
814.526	136.02
814.704	158.55
814.883	166.74
815.062	99.16
815.24	129.88
815.419	111.44
815.598	103.25
815.776	95.06
815.955	60.24
816.133	50
816.312	166.74
816.49	138.07
816.669	111.44
816.847	172.88
817.026	62.29
817.204	4.95
817.383	136.02
817.561	121.68
817.74	109.4
817.918	76.63
818.097	62.29
818.275	97.11
818.453	136.02
818.632	54.1
818.81	70.48
818.988	121.68
819.167	103.25
819.345	72.53
819.523	111.44
819.701	164.69
819.879	62.29
820.058	70.48
820.236	99.16
820.414	64.34
820.592	97.11
820.77	31.57
820.948	105.3
821.127	43.86
821.305	39.76
821.483	80.72
821.661	72.53
821.839	84.82
822.017	138.07
822.195	211.79
822.373	131.92
822.551	62.29
822.729	170.83
822.907	31.57
823.085	50
823.262	52.05
823.44	52.05
823.618	88.92
823.796	70.48
823.974	101.2
824.152	129.88
824.329	119.64
824.507	125.78
824.685	136.02
824.863	82.77
825.04	95.06
825.218	72.53
825.396	56.15
825.574	82.77
825.751	72.53
825.929	86.87
826.107	37.72
826.284	45.91
826.462	88.92
826.639	115.54
826.817	33.62
826.994	70.48
827.172	129.88
827.349	64.34
827.527	50
827.704	115.54
827.882	95.06
828.059	56.15
828.237	111.44
828.414	70.48
828.591	58.2
828.769	62.29
828.946	50
829.124	33.62
829.301	101.2
829.478	97.11
829.655	119.64
829.833	84.82
830.01	111.44
830.187	62.29
830.364	109.4
830.542	115.54
830.719	105.3
830.896	82.77
831.073	80.72
831.25	88.92
831.427	68.44
831.604	84.82
831.782	45.91
831.959	64.34
832.136	56.15
832.313	123.73
832.49	29.52
832.667	54.1
832.844	74.58
833.021	76.63
833.198	80.72
833.374	68.44
833.551	164.69
833.728	82.77
833.905	7
834.082	45.91
834.259	4.95
834.436	76.63
834.612	99.16
834.789	90.96
834.966	103.25
835.143	21.33
835.319	70.48
835.496	13.14
835.673	99.16
835.85	93.01
836.026	29.52
836.203	70.48
836.38	43.86
836.556	39.76
836.733	70.48
836.909	105.3
837.086	17.24
837.262	111.44
837.439	62.29
837.616	-11.43
837.792	31.57
837.968	62.29
838.145	19.29
838.321	78.68
838.498	74.58
838.674	33.62
838.851	45.91
839.027	101.2
839.203	-3.24
839.38	7
839.556	90.96
839.732	-11.43
839.909	-3.24
840.085	39.76
840.261	62.29
840.437	58.2
840.614	117.59
840.79	70.48
840.966	54.1
841.142	27.48
841.318	43.86
841.494	56.15
841.671	76.63
841.847	95.06
842.023	52.05
842.199	43.86
842.375	52.05
842.551	17.24
842.727	15.19
842.903	31.57
843.079	27.48
843.255	15.19
843.431	29.52
843.607	150.36
843.783	4.95
843.959	33.62
844.134	0.85
844.31	95.06
844.486	-5.29
844.662	43.86
844.838	-13.48
845.013	39.76
845.189	33.62
845.365	25.43
845.541	56.15
845.716	56.15
845.892	-21.67
846.068	35.67
846.244	37.72
846.419	31.57
846.595	109.4
846.77	60.24
846.946	-5.29
847.122	39.76
847.297	119.64
847.473	58.2
847.648	70.48
847.824	97.11
847.999	25.43
848.175	88.92
848.35	29.52
848.526	82.77
848.701	13.14
848.876	41.81
849.052	13.14
849.227	-11.43
849.403	19.29
849.578	62.29
849.753	56.15
849.929	64.34
850.104	-3.24
850.279	43.86
850.454	52.05
850.63	41.81
850.805	-31.91
850.98	0.85
851.155	-1.19
851.33	35.67
851.505	-3.24
851.681	82.77
851.856	35.67
852.031	76.63
852.206	60.24
852.381	29.52
852.556	84.82
852.731	95.06
852.906	66.39
853.081	95.06
853.256	-1.19
853.431	-25.77
853.606	47.96
853.781	11.09
853.956	60.24
854.131	-3.24
854.305	62.29
854.48	58.2
854.655	25.43
854.83	54.1
855.005	60.24
855.18	78.68
855.354	27.48
855.529	-13.48
855.704	25.43
855.879	21.33
856.053	4.95
856.228	9.05
856.403	41.81
856.577	31.57
856.752	-5.29
856.926	29.52
857.101	17.24
857.276	23.38
857.45	-27.82
857.625	78.68
857.799	17.24
857.974	4.95
858.148	-5.29
858.323	2.9
858.497	97.11
858.672	93.01
858.846	37.72
859.02	74.58
859.195	23.38
859.369	13.14
859.543	41.81
859.718	41.81
859.892	0.85
860.066	-60.59
860.241	13.14
860.415	17.24
860.589	-19.63
860.763	121.68
860.938	19.29
861.112	52.05
861.286	52.05
861.46	88.92
861.634	27.48
861.808	41.81
861.982	33.62
862.157	35.67
862.331	76.63
862.505	70.48
862.679	-38.06
862.853	56.15
863.027	23.38
863.201	-44.2
863.375	50
863.549	148.31
863.722	27.48
863.896	84.82
864.07	33.62
864.244	43.86
864.418	33.62
864.592	72.53
864.766	131.92
864.939	-83.11
865.113	43.86
865.287	78.68
865.461	29.52
865.634	97.11
865.808	15.19
865.982	17.24
866.156	29.52
866.329	21.33
866.503	37.72
866.676	84.82
866.85	47.96
867.024	62.29
867.197	68.44
867.371	-1.19
867.544	39.76
867.718	-9.39
867.891	37.72
868.065	-13.48
868.238	62.29
868.412	90.96
868.585	25.43
868.759	-5.29
868.932	60.24
869.105	33.62
869.279	35.67
869.452	58.2
869.625	-25.77
869.799	4.95
869.972	-1.19
870.145	-7.34
870.319	25.43
870.492	-3.24
870.665	37.72
870.838	-3.24
871.011	86.87
871.185	9.05
871.358	11.09
871.531	21.33
871.704	39.76
871.877	60.24
872.05	47.96
872.223	37.72
872.396	45.91
872.569	13.14
872.742	15.19
872.915	70.48
873.088	27.48
873.261	45.91
873.434	15.19
873.607	43.86
873.78	27.48
873.953	-11.43
874.126	-11.43
874.299	13.14
874.471	-19.63
874.644	-15.53
874.817	-15.53
874.99	-11.43
875.163	76.63
875.335	58.2
875.508	33.62
875.681	-17.58
875.853	80.72
876.026	33.62
876.199	47.96
876.371	0.85
876.544	-13.48
876.717	29.52
876.889	-7.34
877.062	54.1
877.234	39.76
877.407	35.67
877.579	-7.34
877.752	-7.34
877.924	35.67
878.097	35.67
878.269	41.81
878.442	33.62
878.614	90.96
878.786	-31.91
878.959	58.2
879.131	47.96
879.303	29.52
879.476	88.92
879.648	-50.35
879.82	19.29
879.993	15.19
880.165	45.91
880.337	21.33
880.509	-15.53
880.681	-25.77
880.854	-3.24
881.026	-25.77
881.198	78.68
881.37	0.85
881.542	25.43
881.714	-3.24
881.886	23.38
882.058	27.48
882.23	25.43
882.402	-19.63
882.574	56.15
882.746	13.14
882.918	45.91
883.09	2.9
883.262	142.16
883.434	19.29
883.606	35.67
883.778	80.72
883.95	64.34
884.122	41.81
884.293	0.85
884.465	17.24
884.637	64.34
884.809	66.39
884.98	66.39
885.152	25.43
885.324	33.62
885.496	45.91
885.667	11.09
885.839	21.33
886.011	39.76
886.182	13.14
886.354	-74.92
886.525	-31.91
886.697	62.29
886.869	25.43
887.04	56.15
887.212	29.52
887.383	27.48
887.555	7
887.726	60.24
887.897	19.29
888.069	58.2
888.24	88.92
888.412	31.57
888.583	13.14
888.754	-40.11
888.926	-7.34
889.097	17.24
889.268	-27.82
889.44	-3.24
889.611	15.19
889.782	64.34
889.953	15.19
890.125	7
890.296	-11.43
890.467	7
890.638	15.19
890.809	43.86
890.98	21.33
891.151	45.91
891.323	37.72
891.494	21.33
891.665	50
891.836	-31.91
892.007	93.01
892.178	41.81
892.349	31.57
892.52	45.91
892.691	66.39
892.862	21.33
893.032	64.34
893.203	-5.29
893.374	-33.96
893.545	19.29
893.716	-1.19
893.887	39.76
894.057	11.09
894.228	21.33
894.399	-25.77
894.57	29.52
894.74	-15.53
894.911	54.1
895.082	72.53
895.253	45.91
895.423	11.09
895.594	-11.43
895.764	-33.96
895.935	80.72
896.106	37.72
896.276	62.29
896.447	-33.96
896.617	-11.43
896.788	-1.19
896.958	33.62
897.129	9.05
897.299	9.05
897.47	70.48
897.64	-40.11
897.81	21.33
897.981	15.19
898.151	-17.58
898.322	-9.39
898.492	15.19
898.662	11.09
898.832	21.33
899.003	37.72
899.173	25.43
899.343	17.24
899.513	68.44
