Data from USB4F104151__245__14-01-19-336.txt Node

Date: Thu Mar 13 14:01:19 EDT 2025
User: louis
Spectrometer: USB4F10415
Trigger mode: 4
Integration Time (sec): 1.000000E-2
Scans to average: 1
Electric dark correction enabled: true
Nonlinearity correction enabled: false
Boxcar width: 0
XAxis mode: Wavelengths
Number of Pixels in Spectrum: 3648
>>>>>Begin Spectral Data<<<<<
178.204	-22.19
178.424	-22.19
178.644	-22.19
178.864	-65.19
179.084	6.49
179.304	-16.04
179.524	-9.9
179.744	41.3
179.964	-65.19
180.184	10.58
180.404	-3.75
180.624	41.3
180.844	0.34
181.064	-20.14
181.283	-18.09
181.503	6.49
181.723	33.11
181.943	-44.71
182.163	-40.62
182.383	29.01
182.602	51.54
182.822	102.74
183.042	-18.09
183.262	14.68
183.482	-52.91
183.701	4.44
183.921	-24.23
184.141	-159.4
184.361	-11.95
184.58	20.82
184.8	-11.95
185.02	-40.62
185.239	18.77
185.459	-5.8
185.679	41.3
185.898	-100.01
186.118	20.82
186.338	24.92
186.557	-9.9
186.777	-7.85
186.997	8.53
187.216	-65.19
187.436	69.97
187.655	-85.67
187.875	26.96
188.095	4.44
188.314	-3.75
188.534	14.68
188.753	-63.15
188.973	-24.23
189.192	-38.57
189.412	96.6
189.631	4.44
189.851	33.11
190.07	12.63
190.29	37.2
190.509	0.34
190.729	20.82
190.948	-61.1
191.168	149.84
191.387	-44.71
191.607	-11.95
191.826	57.68
192.045	24.92
192.265	49.49
192.484	-73.39
192.704	49.49
192.923	-57
193.142	55.64
193.362	6.49
193.581	24.92
193.8	74.07
194.02	24.92
194.239	104.79
194.458	-1.71
194.678	10.58
194.897	-28.33
195.116	-20.14
195.335	-5.8
195.555	-13.99
195.774	-3.75
195.993	78.16
196.212	-30.38
196.432	-40.62
196.651	-30.38
196.87	51.54
197.089	55.64
197.308	-40.62
197.528	-3.75
197.747	39.25
197.966	39.25
198.185	-13.99
198.404	26.96
198.623	0.34
198.842	59.73
199.062	-5.8
199.281	-5.8
199.5	22.87
199.719	24.92
199.938	53.59
200.157	33.11
200.376	-26.28
200.595	-7.85
200.814	6.49
201.033	16.73
201.252	74.07
201.471	10.58
201.69	53.59
201.909	12.63
202.128	63.83
202.347	78.16
202.566	24.92
202.785	45.4
203.004	4.44
203.223	22.87
203.442	45.4
203.661	18.77
203.879	4.44
204.098	43.35
204.317	-5.8
204.536	31.06
204.755	10.58
204.974	49.49
205.193	65.88
205.411	-40.62
205.63	-28.33
205.849	12.63
206.068	51.54
206.287	45.4
206.505	-38.57
206.724	33.11
206.943	-24.23
207.162	-16.04
207.381	-20.14
207.599	41.3
207.818	-50.86
208.037	65.88
208.255	-42.67
208.474	-28.33
208.693	-16.04
208.911	-9.9
209.13	10.58
209.349	4.44
209.567	37.2
209.786	-1.71
210.005	22.87
210.223	78.16
210.442	4.44
210.661	106.84
210.879	0.34
211.098	-3.75
211.316	18.77
211.535	55.64
211.753	-5.8
211.972	18.77
212.191	8.53
212.409	14.68
212.628	-13.99
212.846	-24.23
213.065	39.25
213.283	12.63
213.502	-28.33
213.72	14.68
213.938	-28.33
214.157	8.53
214.375	112.98
214.594	0.34
214.812	47.44
215.031	45.4
215.249	47.44
215.467	2.39
215.686	6.49
215.904	-3.75
216.122	2.39
216.341	18.77
216.559	-20.14
216.778	-22.19
216.996	39.25
217.214	-22.19
217.432	55.64
217.651	18.77
217.869	2.39
218.087	-18.09
218.306	12.63
218.524	49.49
218.742	53.59
218.96	37.2
219.179	6.49
219.397	31.06
219.615	16.73
219.833	37.2
220.051	100.69
220.27	41.3
220.488	4.44
220.706	26.96
220.924	41.3
221.142	26.96
221.36	37.2
221.578	-5.8
221.796	-54.95
222.015	57.68
222.233	-13.99
222.451	35.16
222.669	29.01
222.887	-87.72
223.105	-75.43
223.323	8.53
223.541	14.68
223.759	0.34
223.977	-22.19
224.195	18.77
224.413	123.22
224.631	57.68
224.849	-13.99
225.067	-22.19
225.285	-40.62
225.503	0.34
225.721	86.36
225.939	8.53
226.157	43.35
226.375	24.92
226.592	45.4
226.81	-22.19
227.028	-16.04
227.246	37.2
227.464	-13.99
227.682	49.49
227.9	49.49
228.117	-5.8
228.335	-61.1
228.553	-9.9
228.771	53.59
228.989	16.73
229.206	-36.52
229.424	65.88
229.642	-32.43
229.86	22.87
230.077	8.53
230.295	65.88
230.513	-24.23
230.731	49.49
230.948	67.92
231.166	-38.57
231.384	-52.91
231.601	33.11
231.819	4.44
232.037	8.53
232.254	-54.95
232.472	4.44
232.689	-30.38
232.907	49.49
233.125	-3.75
233.342	57.68
233.56	24.92
233.777	-5.8
233.995	-16.04
234.213	24.92
234.43	6.49
234.648	-5.8
234.865	-16.04
235.083	92.5
235.3	-5.8
235.518	-7.85
235.735	-85.67
235.953	-38.57
236.17	-36.52
236.388	-20.14
236.605	24.92
236.822	10.58
237.04	-1.71
237.257	31.06
237.475	39.25
237.692	24.92
237.909	29.01
238.127	20.82
238.344	20.82
238.562	123.22
238.779	-34.47
238.996	22.87
239.214	-22.19
239.431	20.82
239.648	-69.29
239.865	4.44
240.083	-22.19
240.3	33.11
240.517	10.58
240.735	-11.95
240.952	47.44
241.169	24.92
241.386	4.44
241.603	2.39
241.821	-11.95
242.038	74.07
242.255	31.06
242.472	0.34
242.689	22.87
242.907	37.2
243.124	-24.23
243.341	-13.99
243.558	37.2
243.775	33.11
243.992	8.53
244.209	-3.75
244.426	14.68
244.643	29.01
244.86	18.77
245.078	24.92
245.295	12.63
245.512	2.39
245.729	0.34
245.946	22.87
246.163	106.84
246.38	110.93
246.597	-22.19
246.814	-13.99
247.031	-38.57
247.248	49.49
247.464	-11.95
247.681	-7.85
247.898	22.87
248.115	-5.8
248.332	22.87
248.549	29.01
248.766	-11.95
248.983	76.12
249.2	22.87
249.417	-16.04
249.633	22.87
249.85	-20.14
250.067	-20.14
250.284	78.16
250.501	41.3
250.717	41.3
250.934	-40.62
251.151	65.88
251.368	-54.95
251.585	24.92
251.801	43.35
252.018	33.11
252.235	16.73
252.451	53.59
252.668	57.68
252.885	86.36
253.102	35.16
253.318	14.68
253.535	41.3
253.752	-22.19
253.968	-9.9
254.185	26.96
254.401	117.08
254.618	4.44
254.835	4.44
255.051	2.39
255.268	45.4
255.484	16.73
255.701	10.58
255.917	33.11
256.134	-9.9
256.351	51.54
256.567	-32.43
256.784	76.12
257	47.44
257.217	49.49
257.433	51.54
257.65	16.73
257.866	49.49
258.082	41.3
258.299	69.97
258.515	39.25
258.732	33.11
258.948	-16.04
259.165	4.44
259.381	10.58
259.597	14.68
259.814	45.4
260.03	45.4
260.246	61.78
260.463	-5.8
260.679	10.58
260.895	-48.81
261.112	39.25
261.328	53.59
261.544	10.58
261.761	33.11
261.977	-7.85
262.193	26.96
262.409	18.77
262.626	0.34
262.842	16.73
263.058	-20.14
263.274	41.3
263.49	43.35
263.707	98.64
263.923	63.83
264.139	-46.76
264.355	-1.71
264.571	82.26
264.787	6.49
265.004	76.12
265.22	-28.33
265.436	41.3
265.652	22.87
265.868	98.64
266.084	18.77
266.3	61.78
266.516	-30.38
266.732	53.59
266.948	39.25
267.164	-7.85
267.38	-36.52
267.596	20.82
267.812	37.2
268.028	65.88
268.244	-36.52
268.46	39.25
268.676	86.36
268.892	80.21
269.108	-5.8
269.324	-5.8
269.54	82.26
269.756	33.11
269.972	0.34
270.188	33.11
270.403	-44.71
270.619	-22.19
270.835	10.58
271.051	61.78
271.267	61.78
271.483	8.53
271.698	-11.95
271.914	-5.8
272.13	-26.28
272.346	6.49
272.562	57.68
272.777	45.4
272.993	16.73
273.209	0.34
273.425	-81.58
273.64	82.26
273.856	69.97
274.072	8.53
274.287	-13.99
274.503	37.2
274.719	45.4
274.934	24.92
275.15	20.82
275.366	37.2
275.581	2.39
275.797	16.73
276.012	2.39
276.228	-42.67
276.444	8.53
276.659	117.08
276.875	26.96
277.09	26.96
277.306	61.78
277.521	-52.91
277.737	16.73
277.952	4.44
278.168	12.63
278.383	29.01
278.599	-9.9
278.814	31.06
279.03	37.2
279.245	61.78
279.461	59.73
279.676	86.36
279.892	24.92
280.107	96.6
280.322	-11.95
280.538	-13.99
280.753	-28.33
280.969	8.53
281.184	0.34
281.399	94.55
281.615	-20.14
281.83	0.34
282.045	-40.62
282.26	61.78
282.476	41.3
282.691	-40.62
282.906	-16.04
283.122	20.82
283.337	0.34
283.552	94.55
283.767	43.35
283.983	65.88
284.198	55.64
284.413	39.25
284.628	78.16
284.843	57.68
285.058	8.53
285.274	10.58
285.489	-5.8
285.704	47.44
285.919	12.63
286.134	78.16
286.349	8.53
286.564	12.63
286.779	14.68
286.995	22.87
287.21	2.39
287.425	35.16
287.64	31.06
287.855	43.35
288.07	-3.75
288.285	12.63
288.5	-20.14
288.715	26.96
288.93	-59.05
289.145	16.73
289.36	24.92
289.575	6.49
289.79	55.64
290.004	8.53
290.219	18.77
290.434	37.2
290.649	10.58
290.864	72.02
291.079	18.77
291.294	-32.43
291.509	0.34
291.724	-34.47
291.938	6.49
292.153	14.68
292.368	-1.71
292.583	59.73
292.798	123.22
293.012	43.35
293.227	0.34
293.442	59.73
293.657	-26.28
293.871	37.2
294.086	86.36
294.301	-9.9
294.516	47.44
294.73	-5.8
294.945	8.53
295.16	-9.9
295.374	-5.8
295.589	49.49
295.804	41.3
296.018	31.06
296.233	41.3
296.447	-7.85
296.662	0.34
296.877	18.77
297.091	24.92
297.306	33.11
297.52	51.54
297.735	20.82
297.949	20.82
298.164	20.82
298.378	-1.71
298.593	16.73
298.807	-48.81
299.022	29.01
299.236	57.68
299.451	29.01
299.665	-5.8
299.88	47.44
300.094	-3.75
300.309	8.53
300.523	57.68
300.737	-16.04
300.952	-7.85
301.166	100.69
301.381	-22.19
301.595	-40.62
301.809	43.35
302.024	31.06
302.238	-24.23
302.452	123.22
302.667	61.78
302.881	31.06
303.095	43.35
303.309	26.96
303.524	0.34
303.738	-32.43
303.952	37.2
304.166	94.55
304.381	12.63
304.595	53.59
304.809	20.82
305.023	24.92
305.237	65.88
305.452	31.06
305.666	2.39
305.88	43.35
306.094	-16.04
306.308	2.39
306.522	80.21
306.736	43.35
306.95	-71.34
307.164	-67.24
307.379	20.82
307.593	106.84
307.807	-7.85
308.021	-3.75
308.235	-16.04
308.449	37.2
308.663	16.73
308.877	112.98
309.091	84.31
309.305	26.96
309.519	14.68
309.733	16.73
309.947	29.01
310.161	8.53
310.374	4.44
310.588	41.3
310.802	65.88
311.016	8.53
311.23	41.3
311.444	0.34
311.658	-34.47
311.872	100.69
312.085	20.82
312.299	57.68
312.513	49.49
312.727	51.54
312.941	-7.85
313.154	10.58
313.368	26.96
313.582	-5.8
313.796	33.11
314.009	-7.85
314.223	49.49
314.437	74.07
314.651	8.53
314.864	39.25
315.078	41.3
315.292	39.25
315.505	-11.95
315.719	18.77
315.933	0.34
316.146	74.07
316.36	37.2
316.573	112.98
316.787	22.87
317.001	0.34
317.214	18.77
317.428	-1.71
317.641	108.88
317.855	16.73
318.068	-38.57
318.282	96.6
318.495	12.63
318.709	-16.04
318.922	26.96
319.136	41.3
319.349	12.63
319.563	10.58
319.776	10.58
319.99	22.87
320.203	-9.9
320.417	18.77
320.63	18.77
320.843	-1.71
321.057	-42.67
321.27	26.96
321.483	57.68
321.697	90.45
321.91	57.68
322.124	33.11
322.337	55.64
322.55	53.59
322.763	2.39
322.977	-46.76
323.19	41.3
323.403	31.06
323.617	-16.04
323.83	0.34
324.043	-5.8
324.256	33.11
324.469	-50.86
324.683	37.2
324.896	20.82
325.109	0.34
325.322	4.44
325.535	-26.28
325.748	8.53
325.962	2.39
326.175	0.34
326.388	74.07
326.601	6.49
326.814	20.82
327.027	51.54
327.24	43.35
327.453	-38.57
327.666	31.06
327.879	41.3
328.092	65.88
328.305	33.11
328.518	14.68
328.731	61.78
328.944	55.64
329.157	49.49
329.37	61.78
329.583	-28.33
329.796	57.68
330.009	49.49
330.222	37.2
330.435	139.6
330.648	43.35
330.861	57.68
331.073	0.34
331.286	8.53
331.499	33.11
331.712	-3.75
331.925	14.68
332.138	98.64
332.35	55.64
332.563	53.59
332.776	49.49
332.989	-18.09
333.202	-46.76
333.414	-20.14
333.627	22.87
333.84	4.44
334.053	49.49
334.265	16.73
334.478	37.2
334.691	2.39
334.903	10.58
335.116	-16.04
335.329	82.26
335.541	69.97
335.754	41.3
335.966	20.82
336.179	47.44
336.392	6.49
336.604	-65.19
336.817	-3.75
337.029	-34.47
337.242	-7.85
337.454	-18.09
337.667	-34.47
337.88	16.73
338.092	33.11
338.305	24.92
338.517	-13.99
338.729	26.96
338.942	18.77
339.154	-32.43
339.367	-40.62
339.579	106.84
339.792	6.49
340.004	-5.8
340.217	-7.85
340.429	16.73
340.641	-54.95
340.854	2.39
341.066	-3.75
341.278	16.73
341.491	35.16
341.703	8.53
341.915	18.77
342.128	16.73
342.34	-26.28
342.552	61.78
342.764	10.58
342.977	24.92
343.189	22.87
343.401	22.87
343.613	-3.75
343.826	35.16
344.038	12.63
344.25	-26.28
344.462	12.63
344.674	20.82
344.886	2.39
345.099	41.3
345.311	57.68
345.523	51.54
345.735	24.92
345.947	49.49
346.159	2.39
346.371	-34.47
346.583	43.35
346.795	33.11
347.007	4.44
347.219	20.82
347.431	45.4
347.643	-1.71
347.855	2.39
348.067	41.3
348.279	-26.28
348.491	29.01
348.703	72.02
348.915	29.01
349.127	39.25
349.339	-11.95
349.551	31.06
349.763	49.49
349.975	10.58
350.187	65.88
350.399	69.97
350.61	106.84
350.822	-9.9
351.034	10.58
351.246	26.96
351.458	2.39
351.669	92.5
351.881	35.16
352.093	8.53
352.305	4.44
352.517	51.54
352.728	53.59
352.94	-9.9
353.152	43.35
353.363	20.82
353.575	45.4
353.787	-5.8
353.999	-28.33
354.21	10.58
354.422	14.68
354.633	-24.23
354.845	37.2
355.057	-5.8
355.268	98.64
355.48	76.12
355.692	-54.95
355.903	59.73
356.115	49.49
356.326	16.73
356.538	4.44
356.749	53.59
356.961	33.11
357.172	4.44
357.384	61.78
357.595	-22.19
357.807	8.53
358.018	67.92
358.23	35.16
358.441	0.34
358.653	41.3
358.864	49.49
359.075	14.68
359.287	10.58
359.498	92.5
359.709	2.39
359.921	20.82
360.132	57.68
360.344	-11.95
360.555	20.82
360.766	53.59
360.977	37.2
361.189	49.49
361.4	6.49
361.611	63.83
361.823	31.06
362.034	-24.23
362.245	37.2
362.456	18.77
362.667	-9.9
362.879	86.36
363.09	53.59
363.301	2.39
363.512	-26.28
363.723	33.11
363.935	-20.14
364.146	49.49
364.357	0.34
364.568	33.11
364.779	-1.71
364.99	94.55
365.201	24.92
365.412	59.73
365.623	24.92
365.834	-30.38
366.045	53.59
366.256	86.36
366.467	6.49
366.678	0.34
366.889	16.73
367.1	65.88
367.311	41.3
367.522	41.3
367.733	43.35
367.944	59.73
368.155	67.92
368.366	8.53
368.577	22.87
368.788	-11.95
368.999	10.58
369.209	35.16
369.42	98.64
369.631	65.88
369.842	26.96
370.053	104.79
370.264	65.88
370.474	41.3
370.685	59.73
370.896	16.73
371.107	12.63
371.317	-7.85
371.528	14.68
371.739	59.73
371.95	37.2
372.16	-44.71
372.371	18.77
372.582	53.59
372.792	-34.47
373.003	41.3
373.214	35.16
373.424	41.3
373.635	-18.09
373.846	12.63
374.056	6.49
374.267	-13.99
374.477	4.44
374.688	0.34
374.898	53.59
375.109	-13.99
375.319	16.73
375.53	33.11
375.74	45.4
375.951	18.77
376.161	-22.19
376.372	43.35
376.582	86.36
376.793	-32.43
377.003	65.88
377.214	26.96
377.424	57.68
377.635	24.92
377.845	-11.95
378.055	10.58
378.266	-40.62
378.476	16.73
378.686	10.58
378.897	-5.8
379.107	8.53
379.317	43.35
379.528	12.63
379.738	90.45
379.948	-20.14
380.158	82.26
380.369	57.68
380.579	20.82
380.789	78.16
380.999	76.12
381.21	76.12
381.42	129.36
381.63	51.54
381.84	41.3
382.05	2.39
382.261	26.96
382.471	-32.43
382.681	0.34
382.891	90.45
383.101	57.68
383.311	57.68
383.521	65.88
383.731	37.2
383.941	63.83
384.151	39.25
384.361	53.59
384.571	41.3
384.781	29.01
384.991	37.2
385.201	115.03
385.411	22.87
385.621	43.35
385.831	22.87
386.041	29.01
386.251	14.68
386.461	33.11
386.671	24.92
386.881	41.3
387.091	16.73
387.301	106.84
387.511	20.82
387.72	2.39
387.93	41.3
388.14	-1.71
388.35	51.54
388.56	45.4
388.769	39.25
388.979	18.77
389.189	-7.85
389.399	69.97
389.609	65.88
389.818	39.25
390.028	69.97
390.238	-22.19
390.447	20.82
390.657	55.64
390.867	39.25
391.076	84.31
391.286	117.08
391.496	12.63
391.705	-36.52
391.915	35.16
392.125	69.97
392.334	26.96
392.544	76.12
392.753	108.88
392.963	-44.71
393.172	43.35
393.382	76.12
393.591	49.49
393.801	31.06
394.01	82.26
394.22	31.06
394.429	82.26
394.639	47.44
394.848	24.92
395.058	65.88
395.267	92.5
395.477	55.64
395.686	63.83
395.895	80.21
396.105	43.35
396.314	72.02
396.524	37.2
396.733	-5.8
396.942	63.83
397.152	37.2
397.361	102.74
397.57	4.44
397.78	119.12
397.989	100.69
398.198	149.84
398.407	47.44
398.617	61.78
398.826	45.4
399.035	112.98
399.244	49.49
399.453	121.17
399.663	69.97
399.872	65.88
400.081	61.78
400.29	49.49
400.499	90.45
400.708	108.88
400.917	76.12
401.127	78.16
401.336	84.31
401.545	112.98
401.754	63.83
401.963	53.59
402.172	57.68
402.381	92.5
402.59	12.63
402.799	94.55
403.008	37.2
403.217	86.36
403.426	121.17
403.635	45.4
403.844	24.92
404.053	90.45
404.262	96.6
404.471	117.08
404.68	151.89
404.888	20.82
405.097	108.88
405.306	78.16
405.515	74.07
405.724	80.21
405.933	98.64
406.142	57.68
406.35	147.8
406.559	135.51
406.768	41.3
406.977	149.84
407.185	102.74
407.394	67.92
407.603	155.99
407.812	133.46
408.02	162.13
408.229	102.74
408.438	115.03
408.646	137.56
408.855	131.41
409.064	180.56
409.272	131.41
409.481	231.76
409.69	129.36
409.898	213.33
410.107	119.12
410.315	207.19
410.524	180.56
410.733	198.99
410.941	184.66
411.15	205.14
411.358	201.04
411.567	250.19
411.775	229.71
411.984	225.62
412.192	213.33
412.401	289.1
412.609	373.07
412.818	260.43
413.026	330.06
413.234	272.72
413.443	307.54
413.651	305.49
413.86	313.68
414.068	301.39
414.276	373.07
414.485	344.4
414.693	403.79
414.901	411.98
415.11	403.79
415.318	426.32
415.526	393.55
415.734	377.17
415.943	401.74
416.151	500.05
416.359	514.38
416.567	428.37
416.776	467.28
416.984	577.87
417.192	543.05
417.4	495.95
417.608	622.92
417.817	649.55
418.025	606.54
418.233	702.79
418.441	655.69
418.649	704.84
418.857	665.93
419.065	698.7
419.273	737.61
419.481	797
419.689	741.71
419.897	868.68
420.105	848.2
420.313	921.93
420.521	979.27
420.729	944.45
420.937	876.87
421.145	1012.04
421.353	983.37
421.561	1136.96
421.769	1075.52
421.977	1173.83
422.185	1134.92
422.393	1163.59
422.601	1208.64
422.809	1222.98
423.017	1218.88
423.224	1392.96
423.432	1411.39
423.64	1341.76
423.848	1444.16
424.056	1505.6
424.263	1630.52
424.471	1612.09
424.679	1665.34
424.887	1763.64
425.094	1732.92
425.302	1845.56
425.51	1825.08
425.718	1853.75
425.925	1857.85
426.133	2052.41
426.341	2105.65
426.548	2351.41
426.756	2165.04
426.964	2232.63
427.171	2281.78
427.379	2394.42
427.586	2554.16
427.794	2476.34
428.001	2607.41
428.209	2756.91
428.417	2728.24
428.624	2859.31
428.832	2902.31
429.039	2859.31
429.247	2877.74
429.454	3133.73
429.662	3264.8
429.869	3209.51
430.076	3297.57
430.284	3252.52
430.491	3375.39
430.699	3629.34
430.906	3588.38
431.114	3623.2
431.321	3582.24
431.528	3803.42
431.736	4098.33
431.943	4305.17
432.15	4057.37
432.358	3973.4
432.565	4380.95
432.772	4270.36
432.979	4573.46
433.187	4532.5
433.394	4725.01
433.601	5206.28
433.808	4940.04
434.016	5091.59
434.223	5210.37
434.43	5443.84
434.637	5341.44
434.844	5785.85
435.052	5896.44
435.259	5714.17
435.466	5851.39
435.673	5865.72
435.88	6273.27
436.087	6594.8
436.294	6521.07
436.501	6277.37
436.708	6338.8
436.915	6719.73
437.122	6959.34
437.329	6963.44
437.537	7225.58
437.743	7409.89
437.95	7373.03
438.157	7604.45
438.364	7940.32
438.571	7780.57
438.778	7850.21
438.985	8673.49
439.192	8280.28
439.399	8732.88
439.606	8417.49
439.813	8974.54
440.02	9220.3
440.227	9339.08
440.433	9244.87
440.64	9492.68
440.847	9373.89
441.054	9504.96
441.261	10297.53
441.467	10062.01
441.674	10436.79
441.881	10500.28
442.088	10696.88
442.294	10743.99
442.501	10993.84
442.708	11016.37
442.914	11389.1
443.121	12107.93
443.328	11686.05
443.534	12425.37
443.741	12152.99
443.948	12003.49
444.154	12914.83
444.361	12740.75
444.568	12773.52
444.774	12943.5
444.981	12982.42
445.187	13469.83
445.394	13918.34
445.6	13828.23
445.807	15114.35
446.013	14518.39
446.22	14659.7
446.426	15308.91
446.633	15384.68
446.839	15687.78
447.046	15427.69
447.252	16353.37
447.459	16316.51
447.665	16009.31
447.871	16777.3
448.078	17496.14
448.284	16754.77
448.491	16982.1
448.697	18018.37
448.903	17901.64
449.11	18102.34
449.316	17784.9
449.522	18108.48
449.728	18634.81
449.935	18729.02
450.141	18870.33
450.347	19294.25
450.553	18520.12
450.76	18966.58
450.966	19595.31
451.172	19300.4
451.378	19597.35
451.584	19132.47
451.791	19787.82
451.997	19658.79
452.203	19941.41
452.409	20158.5
452.615	19757.1
452.821	19198
453.027	18942
453.233	20330.53
453.44	19185.71
453.646	19480.62
453.852	19273.78
454.058	19886.12
454.264	18755.64
454.47	19623.98
454.676	19011.64
454.882	19652.65
455.088	17985.6
455.294	18358.33
455.5	18475.07
455.705	18878.52
455.911	18118.72
456.117	17557.58
456.323	17492.04
456.529	16549.98
456.735	17422.41
456.941	16775.25
457.147	16586.84
457.352	16132.19
457.558	15777.89
457.764	16042.08
457.97	15669.35
458.176	15278.19
458.381	15458.41
458.587	14405.75
458.793	14530.68
458.999	13693.06
459.204	14850.16
459.41	14211.2
459.616	13435.02
459.821	13617.29
460.027	13512.84
460.233	13156.49
460.438	12591.25
460.644	12507.29
460.85	12050.59
461.055	11856.03
461.261	11858.08
461.466	10881.2
461.672	10772.66
461.878	11466.92
462.083	10694.83
462.289	10467.51
462.494	10207.42
462.7	9900.22
462.905	9744.58
463.111	10059.96
463.316	9781.44
463.522	9959.61
463.727	9664.71
463.932	9717.95
464.138	9687.23
464.343	9863.36
464.549	9533.64
464.754	9814.21
464.959	9537.73
465.165	9535.68
465.37	9136.33
465.575	8964.3
465.781	9162.95
465.986	9359.56
466.191	9015.5
466.397	8941.77
466.602	8298.71
466.807	8753.36
467.012	8822.99
467.218	8863.95
467.423	8679.63
467.628	8681.68
467.833	9013.45
468.038	8585.43
468.244	8417.49
468.449	8755.41
468.654	8548.56
468.859	8343.77
469.064	8286.42
469.269	7987.42
469.474	8048.86
469.679	8327.38
469.885	8057.05
470.09	8100.06
470.295	8044.76
470.5	7839.97
470.705	7997.66
470.91	7700.7
471.115	7586.02
471.32	7925.98
471.525	7739.62
471.73	7618.79
471.935	7688.42
472.139	7356.65
472.344	7411.94
472.549	7315.69
472.754	7076.07
472.959	7016.68
473.164	6856.94
473.369	6742.25
473.574	7125.22
473.778	7061.74
473.983	7071.98
474.188	6791.41
474.393	6643.95
474.598	6594.8
474.802	6674.67
475.007	6648.05
475.212	6605.04
475.417	6299.89
475.621	6379.76
475.826	6453.49
476.031	6246.65
476.235	6099.19
476.44	6103.29
476.645	6146.3
476.849	6068.47
477.054	5974.27
477.259	5869.82
477.463	6134.01
477.668	5886.2
477.872	5751.04
478.077	5662.97
478.282	5601.54
478.486	5570.82
478.691	5513.47
478.895	5650.69
479.1	5523.71
479.304	5562.62
479.509	5351.68
479.713	5560.58
479.918	5376.26
480.122	5374.21
480.326	5370.12
480.531	5423.36
480.735	5259.53
480.94	5300.48
481.144	5224.71
481.348	5136.65
481.553	5366.02
481.757	5155.08
481.961	5181.7
482.166	5185.8
482.37	5234.95
482.574	5157.13
482.778	5064.97
482.983	5288.2
483.187	5157.13
483.391	5095.69
483.595	5257.48
483.8	5050.63
484.004	5071.11
484.208	5157.13
484.412	5140.74
484.616	5114.12
484.821	5091.59
485.025	5087.5
485.229	5079.3
485.433	5019.91
485.637	5073.16
485.841	5030.15
486.045	4997.39
486.249	5058.82
486.453	4907.27
486.657	5173.51
486.861	5114.12
487.065	5101.83
487.269	5128.46
487.473	4997.39
487.677	5212.42
487.881	5146.89
488.085	5144.84
488.289	5318.92
488.493	5081.35
488.697	5210.37
488.901	5146.89
489.105	5087.5
489.309	5036.3
489.512	5230.85
489.716	5157.13
489.92	5359.88
490.124	5214.47
490.328	5296.39
490.531	5349.64
490.735	5251.33
490.939	5466.37
491.143	5105.93
491.346	5157.13
491.55	5359.88
491.754	5372.16
491.958	5437.7
492.161	5316.87
492.365	5437.7
492.569	5376.26
492.772	5406.98
492.976	5439.75
493.18	5533.95
493.383	5638.4
493.587	5691.65
493.79	5579.01
493.994	5603.58
494.197	5636.35
494.401	5812.48
494.605	5830.91
494.808	5839.1
495.012	5820.67
495.215	5906.68
495.419	5939.45
495.622	5943.55
495.825	6004.99
496.029	6103.29
496.232	6093.05
496.436	5968.12
496.639	6215.93
496.843	6222.07
497.046	6342.9
497.249	6408.44
497.453	6551.79
497.656	6469.87
497.859	6594.8
498.063	6578.42
498.266	6770.93
498.469	6787.31
498.673	6826.22
498.876	6818.03
499.079	7084.27
499.282	7100.65
499.485	7356.65
499.689	7487.72
499.892	7385.32
500.095	7426.28
500.298	7667.94
500.501	7442.66
500.705	7741.66
500.908	7733.47
501.111	7854.3
501.314	7954.65
501.517	8100.06
501.72	8290.52
501.923	8151.26
502.126	8511.7
502.329	8413.4
502.532	8603.86
502.735	8554.71
502.938	8888.53
503.141	8831.18
503.344	8853.71
503.547	8804.56
503.75	9267.4
503.953	9197.77
504.156	9447.62
504.359	9531.59
504.562	9490.63
504.765	9693.38
504.968	9773.25
505.17	10078.4
505.373	10205.37
505.576	10367.16
505.779	10422.45
505.982	10498.23
506.185	10682.55
506.387	10643.63
506.59	10848.43
506.793	11147.44
506.996	11034.8
507.198	11497.64
507.401	11225.26
507.604	11464.87
507.807	11759.78
508.009	11974.81
508.212	11706.53
508.415	12103.84
508.617	12398.74
508.82	12245.15
509.022	12339.35
509.225	12726.42
509.428	12759.19
509.63	13004.94
509.833	13142.16
510.035	13349
510.238	13416.58
510.44	13629.57
510.643	13787.27
510.845	13793.41
511.048	13965.44
511.25	14172.29
511.453	14188.67
511.655	14700.66
511.858	14643.32
512.06	14835.83
512.262	15042.67
512.465	14868.59
512.667	15544.42
512.87	15904.87
513.072	15669.35
513.274	16091.23
513.477	16193.63
513.679	16445.53
513.881	16556.12
514.084	16621.66
514.286	16865.36
514.488	16824.4
514.69	17328.2
514.893	17459.27
515.095	17586.25
515.297	17915.97
515.499	17997.89
515.701	18233.41
515.904	18763.83
516.106	18575.42
516.308	18554.94
516.51	19101.75
516.712	19243.06
516.914	19363.89
517.116	19845.16
517.318	19965.99
517.52	19957.8
517.722	20250.66
517.925	20394.01
518.127	20852.76
518.329	20879.38
518.531	21137.43
518.733	21323.79
518.935	21454.86
519.136	21530.64
519.338	21929.99
519.54	21927.94
519.742	22329.34
519.944	22493.18
520.146	22675.45
520.348	23244.79
520.55	22960.12
520.752	23201.78
520.954	23893.99
521.155	23478.26
521.357	24121.32
521.559	24360.93
521.761	24276.96
521.963	24219.62
522.164	24729.56
522.366	24858.59
522.568	25298.9
522.77	25395.15
522.971	25812.94
523.173	25552.85
523.375	25864.14
523.576	25923.53
523.778	26171.33
523.98	26288.07
524.181	26468.29
524.383	26673.09
524.584	27267
524.786	27150.26
524.988	27090.87
525.189	27404.21
525.391	27588.53
525.592	27920.3
525.794	27846.57
525.995	27656.11
526.197	27692.97
526.398	27979.69
526.6	28315.56
526.801	28442.53
527.003	28415.91
527.204	28880.8
527.406	29052.83
527.607	28778.4
527.808	29159.32
528.01	28805.02
528.211	29157.27
528.412	29953.93
528.614	29464.47
528.815	29759.38
529.016	29829.01
529.218	29474.71
529.419	29728.66
529.62	29921.16
529.822	29824.91
530.023	29996.94
530.224	29955.98
530.425	30085
530.626	30162.83
530.828	29728.66
531.029	30515.08
531.23	30363.53
531.431	30474.12
531.632	30650.24
531.833	30588.8
532.035	30455.68
532.236	30812.03
532.437	30689.15
532.638	30510.98
532.839	30908.29
533.04	30982.01
533.241	30523.27
533.442	31278.97
533.643	30596.99
533.844	30801.79
534.045	31037.31
534.246	30429.06
534.447	31405.94
534.648	31035.26
534.849	31297.4
535.05	30859.13
535.251	31235.96
535.451	31076.22
535.652	31364.98
535.853	31141.75
536.054	31088.51
536.255	31164.28
536.456	30553.99
536.657	31786.86
536.857	30961.53
537.058	31143.8
537.259	31332.22
537.46	31549.3
537.66	31256.44
537.861	31219.58
538.062	30986.11
538.263	31195
538.463	31188.86
538.664	31367.03
538.865	31459.19
539.065	31410.04
539.266	31160.19
539.466	31537.01
539.667	31143.8
539.868	31635.31
540.068	31240.06
540.269	31285.11
540.469	31465.33
540.67	31317.88
540.87	31127.42
541.071	31526.77
541.271	31481.72
541.472	31084.41
541.672	31147.9
541.873	31428.47
542.073	31151.99
542.274	31711.09
542.474	31068.03
542.675	30932.86
542.875	31645.55
543.075	31137.66
543.276	31131.51
543.476	31168.38
543.676	31324.02
543.877	31473.53
544.077	31084.41
544.277	30973.82
544.478	31053.69
544.678	31573.88
544.878	30967.68
545.078	31203.19
545.279	30859.13
545.479	30785.41
545.679	31334.26
545.879	31590.26
546.079	31178.62
546.28	31508.34
546.48	30912.38
546.68	31246.2
546.88	31315.83
547.08	30967.68
547.28	31254.39
547.48	30672.77
547.68	31563.64
547.88	30967.68
548.081	31215.48
548.281	31223.67
548.481	31025.02
548.681	31364.98
548.881	30916.48
549.081	31416.18
549.28	31037.31
549.48	31178.62
549.68	30775.17
549.88	31528.82
550.08	31063.93
550.28	31504.24
550.48	30875.52
550.68	31211.39
550.88	31260.54
551.08	31045.5
551.279	30926.72
551.479	30828.41
551.679	30969.72
551.879	31119.23
552.079	31190.91
552.278	31070.08
552.478	31311.74
552.678	31108.99
552.878	31188.86
553.077	30627.71
553.277	30478.21
553.477	31606.64
553.676	30846.85
553.876	30754.69
554.076	30793.6
554.275	30648.19
554.475	30887.81
554.674	30957.44
554.874	31088.51
555.074	30295.94
555.273	31086.46
555.473	30873.47
555.672	30609.28
555.872	30873.47
556.071	30756.74
556.271	30599.04
556.47	30615.43
556.67	30408.58
556.869	30424.97
557.068	30699.39
557.268	30447.49
557.467	30183.3
557.667	30111.63
557.866	30371.72
558.065	30539.65
558.265	30222.22
558.464	30291.85
558.663	30412.68
558.863	30072.71
559.062	30478.21
559.261	29685.65
559.461	30132.11
559.66	29683.6
559.859	30154.63
560.058	29857.68
560.258	30025.61
560.457	29558.67
560.656	29448.08
560.855	29742.99
561.054	29734.8
561.253	29472.66
561.453	29548.43
561.652	29603.73
561.851	29452.18
562.05	29409.17
562.249	29155.22
562.448	29562.77
562.647	29450.13
562.846	29429.65
563.045	29077.4
563.244	29173.66
563.443	29237.14
563.642	29065.11
563.841	29149.08
564.04	28985.24
564.239	29022.11
564.438	28815.26
564.637	28719.01
564.836	28882.84
565.035	28516.26
565.234	28848.03
565.432	28673.95
565.631	28616.61
565.83	28766.11
566.029	28260.26
566.228	28391.33
566.427	28329.89
566.625	28061.61
566.824	28028.84
567.023	28315.56
567.222	27766.7
567.42	28123.05
567.619	27740.08
567.818	27934.64
568.016	28028.84
568.215	27627.44
568.414	27901.87
568.612	27844.52
568.811	27363.25
569.01	27897.77
569.208	26965.95
569.407	27488.18
569.605	27154.36
569.804	27561.9
570.002	27322.29
570.201	27338.68
570.4	26859.45
570.598	26886.08
570.797	26599.36
570.995	26679.23
571.193	26664.89
571.392	26804.16
571.59	26736.57
571.789	26666.94
571.987	26566.59
572.186	26382.27
572.384	26238.92
572.582	26382.27
572.781	26116.04
572.979	25835.47
573.177	26052.55
573.376	25892.81
573.574	25663.44
573.772	25784.27
573.971	25915.34
574.169	25462.74
574.367	25317.33
574.565	25628.62
574.763	25317.33
574.962	25370.58
575.16	25077.72
575.358	25393.11
575.556	25102.29
575.754	25178.07
575.952	24895.45
576.151	24858.59
576.349	24874.97
576.547	24448.99
576.745	24672.22
576.943	24694.75
577.141	24637.41
577.339	24535.01
577.537	24430.56
577.735	24432.61
577.933	24072.17
578.131	24127.46
578.329	24199.14
578.527	24080.36
578.725	23955.43
578.923	24250.34
579.121	23744.49
579.319	23830.51
579.516	23879.66
579.714	23605.23
579.912	23226.35
580.11	23500.78
580.308	23648.24
580.506	23207.92
580.704	23156.72
580.901	23293.94
581.099	23435.25
581.297	23062.52
581.495	22939.64
581.692	23019.51
581.89	22554.62
582.088	22783.99
582.285	22847.48
582.483	22870.01
582.681	22783.99
582.878	22276.1
583.076	22411.26
583.274	22435.84
583.471	22317.06
583.669	22161.41
583.866	22042.63
584.064	22056.96
584.262	21948.42
584.459	22212.61
584.657	21954.57
584.854	21919.75
585.052	21768.2
585.249	21575.69
585.447	21731.34
585.644	21620.75
585.841	21514.25
586.039	21563.4
586.236	21313.55
586.434	21227.54
586.631	21215.25
586.828	21248.02
587.026	21413.9
587.223	21102.61
587.42	20795.42
587.618	20832.28
587.815	20748.31
588.012	20733.98
588.21	20996.12
588.407	20799.51
588.604	20469.79
588.801	20592.67
588.999	20484.12
589.196	20258.85
589.393	20226.08
589.59	20320.29
589.787	20176.93
589.984	20178.98
590.182	19980.32
590.379	20363.29
590.576	20052
590.773	20006.95
590.97	19861.54
591.167	19931.17
591.364	19750.95
591.561	19861.54
591.758	19644.46
591.955	19255.34
592.152	19746.86
592.349	19306.54
592.546	19589.16
592.743	19497
592.94	19154.99
593.137	19247.15
593.334	19177.52
593.531	18786.36
593.727	19152.95
593.924	19138.61
594.121	19075.12
594.318	19073.07
594.515	18942
594.712	18774.07
594.908	18927.67
595.105	18831.41
595.302	18602.04
595.499	18774.07
595.696	18567.23
595.892	18602.04
596.089	18546.75
596.286	18651.19
596.482	18511.93
596.679	18243.65
596.876	18235.46
597.072	18165.82
597.269	18198.59
597.466	18176.06
597.662	18188.35
597.859	17913.92
598.055	18073.67
598.252	17889.35
598.448	18001.99
598.645	17809.48
598.841	17731.65
599.038	17682.5
599.234	17551.43
599.431	17588.3
599.627	17551.43
599.824	17545.29
600.02	17205.33
600.217	17408.08
600.413	17401.93
600.609	17162.32
600.806	17287.25
601.002	17268.81
601.198	16998.48
601.395	16828.5
601.591	17035.35
601.787	17174.61
601.984	16724.05
602.18	16900.18
602.376	16699.48
602.572	16664.66
602.769	16558.17
602.965	16601.18
603.161	16625.75
603.357	16361.56
603.553	16195.68
603.75	16470.11
603.946	16482.39
604.142	16021.6
604.338	15786.08
604.534	16214.11
604.73	16005.22
604.926	15935.59
605.122	16040.03
605.318	15904.87
605.514	15982.69
605.71	15861.86
605.906	15683.69
606.102	15614.06
606.298	15607.91
606.494	15501.42
606.69	15368.3
606.886	15419.5
607.082	15499.37
607.278	15368.3
607.474	15077.49
607.67	15411.31
607.866	15020.14
608.062	15417.45
608.257	15134.83
608.453	15208.56
608.649	14999.66
608.845	14774.39
609.041	14827.64
609.236	14946.42
609.432	14708.85
609.628	14833.78
609.824	15046.77
610.019	14592.12
610.215	14528.63
610.411	14682.23
610.606	14418.04
610.802	14657.65
610.998	14499.96
611.193	14532.73
611.389	14391.42
611.584	14305.4
611.78	14172.29
611.976	14270.59
612.171	14190.72
612.367	14100.61
612.562	14200.96
612.758	13801.6
612.953	13748.36
613.149	14080.13
613.344	13998.21
613.539	14155.9
613.735	14162.05
613.93	13889.67
614.126	13975.68
614.321	13975.68
614.517	13975.68
614.712	13955.2
614.907	13408.39
615.103	13740.16
615.298	13738.12
615.493	13824.13
615.688	13492.36
615.884	13598.85
616.079	13561.99
616.274	13609.09
616.47	13529.22
616.665	13404.3
616.86	13392.01
617.055	13283.47
617.25	13207.69
617.445	13283.47
617.641	13197.45
617.836	13404.3
618.031	12935.31
618.226	13308.04
618.421	13017.23
618.616	13043.85
618.811	12687.51
619.006	12867.73
619.201	12789.91
619.396	12865.68
619.591	12581.01
619.786	12783.76
619.981	12730.52
620.176	12662.93
620.371	12380.31
620.566	12558.49
620.761	12282.01
620.956	12306.59
621.151	11995.29
621.346	12562.58
621.541	12187.8
621.735	12173.47
621.93	11876.51
622.125	12140.7
622.32	11714.72
622.515	11798.69
622.709	11804.83
622.904	11759.78
623.099	11714.72
623.294	11673.76
623.488	11520.17
623.683	11669.67
623.878	11313.32
624.072	11319.46
624.267	11235.5
624.462	11159.72
624.656	10999.98
624.851	11137.2
625.046	11065.52
625.24	11049.13
625.435	10834.1
625.629	10971.31
625.824	10877.1
626.018	10739.89
626.213	10551.48
626.407	10559.67
626.602	10531
626.796	10627.25
626.991	10551.48
627.185	10385.59
627.38	10535.09
627.574	10234.04
627.768	10223.8
627.963	10234.04
628.157	10205.37
628.352	9963.71
628.546	9914.56
628.74	9957.57
628.935	9951.42
629.129	9728.19
629.323	9695.43
629.517	9638.08
629.712	9758.91
629.906	9646.27
630.1	9478.34
630.294	9502.92
630.489	9638.08
630.683	9349.32
630.877	9289.93
631.071	9449.67
631.265	9253.06
631.459	9169.1
631.653	9199.82
631.848	9285.83
632.042	9087.18
632.236	9078.99
632.43	8876.24
632.624	8960.2
632.818	9048.27
633.012	8937.68
633.206	8931.53
633.4	8843.47
633.594	8888.53
633.788	8757.46
633.982	8519.89
634.176	8700.11
634.369	8540.37
634.563	8571.09
634.757	8595.67
634.951	8589.52
635.145	8364.25
635.339	8349.91
635.533	8511.7
635.726	8347.86
635.92	8237.27
636.114	8224.98
636.308	8157.4
636.501	8286.42
636.695	8143.07
636.889	8012
637.083	7923.93
637.276	7979.23
637.47	7872.73
637.664	7583.97
637.857	7659.74
638.051	7854.3
638.244	7807.2
638.438	7758.05
638.632	7829.73
638.825	7524.58
639.019	7626.98
639.212	7481.57
639.406	7545.06
639.599	7364.84
639.793	7334.12
639.986	7248.1
640.18	7467.24
640.373	7293.16
640.567	7229.67
640.76	7127.27
640.954	7065.83
641.147	7016.68
641.34	6975.72
641.534	6924.52
641.727	6916.33
641.92	6826.22
642.114	6854.89
642.307	6885.61
642.5	6719.73
642.694	6758.64
642.887	6811.89
643.08	6809.84
643.273	6562.03
643.467	6670.58
643.66	6678.77
643.853	6523.12
644.046	6453.49
644.239	6402.29
644.432	6471.92
644.626	6334.71
644.819	6447.35
645.012	6209.78
645.205	6301.94
645.398	6260.98
645.591	6115.58
645.784	6134.01
645.977	6009.08
646.17	6062.33
646.363	5855.48
646.556	5871.87
646.749	5966.07
646.942	5968.12
647.135	5802.24
647.328	5720.32
647.521	5859.58
647.714	5730.56
647.907	5579.01
648.099	5656.83
648.292	5536
648.485	5538.05
648.678	5490.95
648.871	5550.34
649.064	5550.34
649.256	5548.29
649.449	5325.06
649.642	5462.27
649.835	5470.47
650.027	5349.64
650.22	5263.62
650.413	5419.27
650.605	5208.33
650.798	5251.33
650.991	5282.05
651.183	5280
651.376	5030.15
651.568	5226.76
651.761	5015.82
651.954	5073.16
652.146	5019.91
652.339	5060.87
652.531	4966.67
652.724	4788.49
652.916	4776.2
653.109	4710.67
653.301	4872.46
653.494	4778.25
653.686	4616.46
653.879	4679.95
654.071	4641.04
654.263	4559.12
654.456	4645.13
654.648	4657.42
654.84	4649.23
655.033	4606.22
655.225	4540.69
655.417	4487.44
655.61	4514.06
655.802	4522.26
655.994	4557.07
656.186	4401.43
656.379	4243.73
656.571	4307.22
656.763	4264.21
656.955	4170.01
657.148	4075.8
657.34	4210.97
657.532	4282.64
657.724	4233.49
657.916	4057.37
658.108	4172.05
658.3	4090.13
658.492	4194.58
658.684	3875.1
658.876	3989.78
659.068	4059.42
659.26	4047.13
659.452	3948.83
659.644	4053.27
659.836	3932.44
660.028	3928.35
660.22	3789.08
660.412	3811.61
660.604	3715.36
660.796	3787.04
660.988	3721.5
661.18	3727.64
661.372	3586.33
661.563	3727.64
661.755	3588.38
661.947	3516.7
662.139	3528.99
662.331	3559.71
662.522	3535.14
662.714	3467.55
662.906	3629.34
663.097	3350.82
663.289	3467.55
663.481	3449.12
663.673	3399.97
663.864	3350.82
664.056	3461.41
664.247	3379.49
664.439	3316
664.631	3266.85
664.822	3307.81
665.014	3236.13
665.205	3268.9
665.397	3080.49
665.588	3133.73
665.78	3219.75
665.971	3248.42
666.163	3180.84
666.354	3113.25
666.546	3242.28
666.737	3135.78
666.929	3064.1
667.12	3090.73
667.311	2976.04
667.503	3137.83
667.694	2963.75
667.885	3037.48
668.077	3064.1
668.268	2994.47
668.459	2994.47
668.651	2949.42
668.842	2832.68
669.033	2918.7
669.224	2969.9
669.416	2908.46
669.607	2875.69
669.798	2855.21
669.989	2838.83
670.18	2816.3
670.371	2804.01
670.563	2867.5
670.754	2627.89
670.945	2838.83
671.136	2806.06
671.327	2769.2
671.518	2687.28
671.709	2773.29
671.9	2732.33
672.091	2607.41
672.282	2681.13
672.473	2691.37
672.664	2736.43
672.855	2740.52
673.046	2736.43
673.237	2718
673.428	2621.74
673.619	2761
673.809	2564.4
674	2609.45
674.191	2576.69
674.382	2738.48
674.573	2443.57
674.764	2490.67
674.954	2611.5
675.145	2621.74
675.336	2519.34
675.527	2513.2
675.717	2572.59
675.908	2507.06
676.099	2541.87
676.289	2392.37
676.48	2335.03
676.671	2601.26
676.861	2562.35
677.052	2439.47
677.243	2349.36
677.433	2396.46
677.624	2457.9
677.814	2398.51
678.005	2412.85
678.195	2500.91
678.386	2466.1
678.576	2392.37
678.767	2359.6
678.957	2373.94
679.148	2484.53
679.338	2400.56
679.529	2236.72
679.719	2347.31
679.909	2382.13
680.1	2302.26
680.29	2326.83
680.481	2312.5
680.671	2468.14
680.861	2386.22
681.052	2236.72
681.242	2273.59
681.432	2416.94
681.622	2466.1
681.813	2507.06
682.003	2339.12
682.193	2298.16
682.383	2281.78
682.573	2330.93
682.764	2249.01
682.954	2300.21
683.144	2357.55
683.334	2330.93
683.524	2160.95
683.714	2345.27
683.904	2271.54
684.094	2263.35
684.284	2308.4
684.474	2406.7
684.664	2314.55
684.854	2320.69
685.044	2246.96
685.234	2361.65
685.424	2220.34
685.614	2314.55
685.804	2318.64
685.994	2167.09
686.184	2310.45
686.374	2232.63
686.564	2212.15
686.753	2296.11
686.943	2158.9
687.133	2150.71
687.323	2238.77
687.513	2259.25
687.702	2249.01
687.892	2197.81
688.082	2255.15
688.272	2310.45
688.461	2195.76
688.651	2320.69
688.841	2101.56
689.03	2206
689.22	2134.32
689.41	2216.24
689.599	2212.15
689.789	2228.53
689.979	2134.32
690.168	2146.61
690.358	2212.15
690.547	2169.14
690.737	2124.08
690.926	2222.39
691.116	2165.04
691.305	2240.82
691.495	2140.47
691.684	2203.96
691.874	2156.85
692.063	2191.67
692.252	2236.72
692.442	2220.34
692.631	2068.79
692.82	2265.39
693.01	2095.41
693.199	2066.74
693.388	2167.09
693.578	2183.48
693.767	2148.66
693.956	2126.13
694.146	2163
694.335	2173.24
694.524	2099.51
694.713	2203.96
694.902	2195.76
695.092	2261.3
695.281	2126.13
695.47	2156.85
695.659	2101.56
695.848	2208.05
696.037	2085.17
696.226	2185.52
696.415	2175.28
696.604	2126.13
696.793	2113.85
696.982	2195.76
697.171	2222.39
697.36	2271.54
697.549	2173.24
697.738	2246.96
697.927	2146.61
698.116	2173.24
698.305	2124.08
698.494	2177.33
698.683	2087.22
698.872	2179.38
699.061	2081.08
699.25	2033.97
699.438	2185.52
699.627	2171.19
699.816	2136.37
700.005	2203.96
700.193	2175.28
700.382	2203.96
700.571	2101.56
700.76	2312.5
700.948	2138.42
701.137	2173.24
701.326	2195.76
701.514	2105.65
701.703	2189.62
701.892	2138.42
702.08	2105.65
702.269	2154.8
702.457	2054.45
702.646	2038.07
702.834	2011.45
703.023	2115.89
703.212	2109.75
703.4	2044.21
703.589	2154.8
703.777	2068.79
703.965	2089.27
704.154	2132.28
704.342	2085.17
704.531	2183.48
704.719	2060.6
704.907	2021.69
705.096	2115.89
705.284	1978.68
705.472	2058.55
705.661	2095.41
705.849	2081.08
706.037	2109.75
706.226	2085.17
706.414	1962.3
706.602	1913.14
706.79	1995.06
706.979	1866.04
707.167	1968.44
707.355	1902.9
707.543	1984.82
707.731	1876.28
707.919	1925.43
708.107	1941.82
708.296	1937.72
708.484	1794.36
708.672	1902.9
708.86	1904.95
709.048	1837.37
709.236	2033.97
709.424	1952.06
709.612	1945.91
709.8	1929.53
709.988	1859.9
710.176	1902.9
710.364	1960.25
710.551	1863.99
710.739	1851.71
710.927	1839.42
711.115	1859.9
711.303	1886.52
711.491	1876.28
711.679	1853.75
711.866	1796.41
712.054	1898.81
712.242	1876.28
712.43	1884.47
712.617	1925.43
712.805	1714.49
712.993	1816.89
713.181	1747.26
713.368	1818.94
713.556	1749.31
713.744	1825.08
713.931	1902.9
714.119	1831.23
714.306	1761.59
714.494	1716.54
714.682	1675.58
714.869	1655.1
715.057	1722.68
715.244	1741.11
715.432	1667.39
715.619	1710.4
715.807	1591.61
715.994	1704.25
716.182	1696.06
716.369	1761.59
716.556	1671.48
716.744	1773.88
716.931	1700.16
717.119	1648.96
717.306	1642.81
717.493	1640.76
717.681	1597.76
717.868	1628.48
718.055	1673.53
718.242	1632.57
718.43	1587.52
718.617	1608
718.804	1560.89
718.991	1681.72
719.179	1585.47
719.366	1591.61
719.553	1501.5
719.74	1558.85
719.927	1573.18
720.114	1560.89
720.301	1569.09
720.488	1583.42
720.676	1532.22
720.863	1515.84
721.05	1493.31
721.237	1507.65
721.424	1569.09
721.611	1564.99
721.798	1478.97
721.985	1464.64
722.172	1470.78
722.358	1517.89
722.545	1595.71
722.732	1425.73
722.919	1497.41
723.106	1470.78
723.293	1435.97
723.48	1452.35
723.667	1419.58
723.853	1358.14
724.04	1470.78
724.227	1462.59
724.414	1462.59
724.6	1438.02
724.787	1405.25
724.974	1403.2
725.161	1495.36
725.347	1427.78
725.534	1337.66
725.72	1384.77
725.907	1358.14
726.094	1448.26
726.28	1349.95
726.467	1417.54
726.653	1454.4
726.84	1354.05
727.027	1427.78
727.213	1298.75
727.4	1358.14
727.586	1362.24
727.773	1329.47
727.959	1321.28
728.145	1347.9
728.332	1380.67
728.518	1327.43
728.705	1290.56
728.891	1255.75
729.077	1298.75
729.264	1292.61
729.45	1352
729.636	1233.22
729.823	1306.95
730.009	1255.75
730.195	1263.94
730.382	1321.28
730.568	1196.36
730.754	1315.14
730.94	1311.04
731.126	1263.94
731.313	1331.52
731.499	1274.18
731.685	1229.12
731.871	1288.51
732.057	1255.75
732.243	1231.17
732.429	1315.14
732.615	1222.98
732.801	1313.09
732.987	1227.07
733.173	1278.27
733.359	1143.11
733.545	1229.12
733.731	1329.47
733.917	1220.93
734.103	1134.92
734.289	1171.78
734.475	1251.65
734.661	1251.65
734.847	1132.87
735.033	1229.12
735.219	1136.96
735.404	1190.21
735.59	1163.59
735.776	1218.88
735.962	1198.4
736.148	1225.03
736.333	1100.1
736.519	1139.01
736.705	1151.3
736.89	1083.72
737.076	1149.25
737.262	1141.06
737.447	1163.59
737.633	1079.62
737.819	1220.93
738.004	1100.1
738.19	1126.72
738.375	1122.63
738.561	1040.71
738.747	1118.53
738.932	1112.39
739.118	1139.01
739.303	1147.2
739.489	1069.38
739.674	1093.96
739.859	1032.52
740.045	1024.33
740.23	1087.81
740.416	1116.48
740.601	1071.43
740.786	1040.71
740.972	1001.8
741.157	1048.9
741.342	1030.47
741.528	1042.76
741.713	911.69
741.898	1089.86
742.084	1005.89
742.269	942.41
742.454	981.32
742.639	1001.8
742.824	1055.05
743.01	1059.14
743.195	1096
743.38	938.31
743.565	981.32
743.75	954.69
743.935	952.65
744.12	985.41
744.305	950.6
744.49	952.65
744.675	938.31
744.86	926.02
745.045	966.98
745.23	1012.04
745.415	858.44
745.6	913.74
745.785	805.19
745.97	944.45
746.155	999.75
746.34	952.65
746.525	835.91
746.71	944.45
746.895	899.4
747.079	809.29
747.264	821.58
747.449	901.45
747.634	868.68
747.819	934.22
748.003	901.45
748.188	850.25
748.373	794.95
748.557	844.1
748.742	880.97
748.927	813.38
749.111	825.67
749.296	831.82
749.481	846.15
749.665	782.67
749.85	858.44
750.034	819.53
750.219	708.94
750.404	801.1
750.588	792.91
750.773	706.89
750.957	821.58
751.141	747.85
751.326	749.9
751.51	708.94
751.695	819.53
751.879	727.37
752.064	749.9
752.248	700.75
752.432	747.85
752.617	723.27
752.801	809.29
752.985	719.18
753.17	747.85
753.354	776.52
753.538	717.13
753.722	706.89
753.907	692.55
754.091	706.89
754.275	616.78
754.459	692.55
754.643	680.27
754.828	749.9
755.012	706.89
755.196	633.16
755.38	665.93
755.564	618.83
755.748	655.69
755.932	743.75
756.116	682.31
756.3	627.02
756.484	657.74
756.668	606.54
756.852	618.83
757.036	631.12
757.22	645.45
757.404	610.64
757.588	588.11
757.772	629.07
757.956	573.77
758.14	631.12
758.323	592.2
758.507	600.4
758.691	567.63
758.875	598.35
759.059	602.44
759.242	557.39
759.426	569.68
759.61	581.96
759.794	602.44
759.977	618.83
760.161	604.49
760.345	569.68
760.528	620.88
760.712	502.09
760.895	491.85
761.079	565.58
761.263	514.38
761.446	543.05
761.63	567.63
761.813	541.01
761.997	532.81
762.18	518.48
762.364	551.24
762.547	516.43
762.731	522.57
762.914	577.87
763.098	543.05
763.281	510.29
763.464	475.47
763.648	530.77
763.831	555.34
764.015	467.28
764.198	491.85
764.381	528.72
764.564	469.33
764.748	489.81
764.931	528.72
765.114	495.95
765.297	481.61
765.481	418.13
765.664	493.9
765.847	477.52
766.03	475.47
766.213	516.43
766.397	508.24
766.58	444.75
766.763	545.1
766.946	450.89
767.129	381.26
767.312	479.57
767.495	483.66
767.678	442.7
767.861	424.27
768.044	504.14
768.227	510.29
768.41	485.71
768.593	387.41
768.776	371.02
768.959	432.46
769.142	477.52
769.324	475.47
769.507	434.51
769.69	467.28
769.873	405.84
770.056	475.47
770.239	434.51
770.421	395.6
770.604	440.65
770.787	502.09
770.97	457.04
771.152	313.68
771.335	414.03
771.518	440.65
771.7	475.47
771.883	485.71
772.066	430.41
772.248	418.13
772.431	418.13
772.613	481.61
772.796	371.02
772.978	364.88
773.161	422.22
773.343	387.41
773.526	393.55
773.708	309.58
773.891	418.13
774.073	448.85
774.256	352.59
774.438	446.8
774.621	430.41
774.803	348.5
774.985	395.6
775.168	430.41
775.35	285.01
775.532	405.84
775.715	366.93
775.897	358.74
776.079	356.69
776.261	414.03
776.444	352.59
776.626	405.84
776.808	350.54
776.99	291.15
777.173	377.17
777.355	366.93
777.537	418.13
777.719	418.13
777.901	319.82
778.083	346.45
778.265	328.02
778.447	356.69
778.629	371.02
778.811	307.54
778.993	362.83
779.175	422.22
779.357	346.45
779.539	350.54
779.721	260.43
779.903	289.1
780.085	293.2
780.267	285.01
780.449	311.63
780.631	303.44
780.812	338.26
780.994	307.54
781.176	323.92
781.358	287.06
781.54	334.16
781.721	274.77
781.903	260.43
782.085	282.96
782.267	244.05
782.448	239.95
782.63	246.1
782.812	307.54
782.993	336.21
783.175	282.96
783.357	262.48
783.538	307.54
783.72	219.47
783.901	287.06
784.083	205.14
784.264	217.43
784.446	274.77
784.627	311.63
784.809	201.04
784.99	250.19
785.172	332.11
785.353	231.76
785.535	227.67
785.716	215.38
785.897	264.53
786.079	237.91
786.26	201.04
786.441	237.91
786.623	264.53
786.804	246.1
786.985	266.58
787.167	180.56
787.348	299.34
787.529	186.71
787.71	174.42
787.891	239.95
788.073	227.67
788.254	242
788.435	213.33
788.616	223.57
788.797	227.67
788.978	227.67
789.159	252.24
789.34	201.04
789.522	248.15
789.703	194.9
789.884	203.09
790.065	190.8
790.246	225.62
790.427	207.19
790.607	227.67
790.788	223.57
790.969	231.76
791.15	207.19
791.331	149.84
791.512	127.32
791.693	239.95
791.874	205.14
792.054	106.84
792.235	207.19
792.416	174.42
792.597	164.18
792.778	145.75
792.958	139.6
793.139	205.14
793.32	117.08
793.5	94.55
793.681	219.47
793.862	112.98
794.042	162.13
794.223	164.18
794.404	188.75
794.584	223.57
794.765	123.22
794.945	186.71
795.126	166.23
795.306	198.99
795.487	182.61
795.667	131.41
795.848	137.56
796.028	149.84
796.209	186.71
796.389	147.8
796.57	172.37
796.75	174.42
796.93	213.33
797.111	100.69
797.291	166.23
797.471	155.99
797.652	145.75
797.832	145.75
798.012	213.33
798.192	155.99
798.373	139.6
798.553	215.38
798.733	121.17
798.913	117.08
799.093	133.46
799.274	139.6
799.454	94.55
799.634	151.89
799.814	190.8
799.994	180.56
800.174	188.75
800.354	213.33
800.534	149.84
800.714	162.13
800.894	141.65
801.074	123.22
801.254	115.03
801.434	119.12
801.614	121.17
801.794	151.89
801.974	407.89
802.154	67.92
802.334	151.89
802.514	117.08
802.693	141.65
802.873	110.93
803.053	106.84
803.233	82.26
803.413	158.03
803.592	108.88
803.772	160.08
803.952	88.4
804.131	110.93
804.311	57.68
804.491	100.69
804.67	47.44
804.85	149.84
805.03	106.84
805.209	100.69
805.389	131.41
805.568	196.95
805.748	31.06
805.928	98.64
806.107	115.03
806.287	110.93
806.466	86.36
806.646	129.36
806.825	108.88
807.004	78.16
807.184	133.46
807.363	59.73
807.543	135.51
807.722	49.49
807.901	100.69
808.081	43.35
808.26	59.73
808.439	45.4
808.619	119.12
808.798	24.92
808.977	74.07
809.156	55.64
809.336	98.64
809.515	127.32
809.694	119.12
809.873	125.27
810.052	125.27
810.231	139.6
810.411	78.16
810.59	94.55
810.769	94.55
810.948	59.73
811.127	35.16
811.306	133.46
811.485	82.26
811.664	158.03
811.843	41.3
812.022	90.45
812.201	153.94
812.38	72.02
812.559	123.22
812.737	125.27
812.916	2.39
813.095	149.84
813.274	14.68
813.453	121.17
813.632	96.6
813.811	45.4
813.989	45.4
814.168	108.88
814.347	92.5
814.526	59.73
814.704	98.64
814.883	29.01
815.062	119.12
815.24	47.44
815.419	-22.19
815.598	119.12
815.776	-7.85
815.955	63.83
816.133	37.2
816.312	47.44
816.49	72.02
816.669	141.65
816.847	51.54
817.026	59.73
817.204	80.21
817.383	74.07
817.561	14.68
817.74	72.02
817.918	-1.71
818.097	20.82
818.275	121.17
818.453	106.84
818.632	88.4
818.81	55.64
818.988	88.4
819.167	55.64
819.345	72.02
819.523	78.16
819.701	16.73
819.879	125.27
820.058	24.92
820.236	49.49
820.414	51.54
820.592	84.31
820.77	78.16
820.948	69.97
821.127	43.35
821.305	131.41
821.483	49.49
821.661	82.26
821.839	55.64
822.017	106.84
822.195	39.25
822.373	72.02
822.551	-38.57
822.729	74.07
822.907	57.68
823.085	8.53
823.262	82.26
823.44	51.54
823.618	49.49
823.796	45.4
823.974	31.06
824.152	57.68
824.329	16.73
824.507	72.02
824.685	41.3
824.863	49.49
825.04	41.3
825.218	57.68
825.396	57.68
825.574	61.78
825.751	49.49
825.929	67.92
826.107	-7.85
826.284	49.49
826.462	65.88
826.639	-11.95
826.817	59.73
826.994	41.3
827.172	20.82
827.349	55.64
827.527	119.12
827.704	65.88
827.882	55.64
828.059	49.49
828.237	61.78
828.414	37.2
828.591	24.92
828.769	31.06
828.946	43.35
829.124	51.54
829.301	8.53
829.478	14.68
829.655	53.59
829.833	59.73
830.01	6.49
830.187	31.06
830.364	82.26
830.542	86.36
830.719	33.11
830.896	35.16
831.073	55.64
831.25	-28.33
831.427	37.2
831.604	51.54
831.782	55.64
831.959	106.84
832.136	16.73
832.313	100.69
832.49	51.54
832.667	80.21
832.844	0.34
833.021	74.07
833.198	-16.04
833.374	92.5
833.551	20.82
833.728	26.96
833.905	127.32
834.082	59.73
834.259	63.83
834.436	33.11
834.612	57.68
834.789	102.74
834.966	67.92
835.143	74.07
835.319	14.68
835.496	20.82
835.673	0.34
835.85	49.49
836.026	-7.85
836.203	8.53
836.38	16.73
836.556	-3.75
836.733	24.92
836.909	-32.43
837.086	-42.67
837.262	-9.9
837.439	0.34
837.616	74.07
837.792	24.92
837.968	49.49
838.145	22.87
838.321	90.45
838.498	33.11
838.674	43.35
838.851	18.77
839.027	-44.71
839.203	0.34
839.38	65.88
839.556	-24.23
839.732	45.4
839.909	67.92
840.085	65.88
840.261	35.16
840.437	2.39
840.614	12.63
840.79	33.11
840.966	-38.57
841.142	33.11
841.318	37.2
841.494	98.64
841.671	59.73
841.847	98.64
842.023	2.39
842.199	65.88
842.375	-9.9
842.551	47.44
842.727	-24.23
842.903	59.73
843.079	22.87
843.255	94.55
843.431	2.39
843.607	-9.9
843.783	-28.33
843.959	-13.99
844.134	35.16
844.31	76.12
844.486	33.11
844.662	10.58
844.838	4.44
845.013	35.16
845.189	43.35
845.365	12.63
845.541	14.68
845.716	12.63
845.892	86.36
846.068	-3.75
846.244	86.36
846.419	63.83
846.595	10.58
846.77	43.35
846.946	16.73
847.122	53.59
847.297	41.3
847.473	57.68
847.648	59.73
847.824	-11.95
847.999	-71.34
848.175	-22.19
848.35	16.73
848.526	43.35
848.701	41.3
848.876	10.58
849.052	59.73
849.227	-26.28
849.403	-1.71
849.578	43.35
849.753	69.97
849.929	57.68
850.104	37.2
850.279	20.82
850.454	18.77
850.63	-3.75
850.805	135.51
850.98	18.77
851.155	63.83
851.33	31.06
851.505	0.34
851.681	-48.81
851.856	29.01
852.031	-5.8
852.206	14.68
852.381	-5.8
852.556	26.96
852.731	14.68
852.906	-42.67
853.081	-40.62
853.256	-42.67
853.431	10.58
853.606	41.3
853.781	92.5
853.956	6.49
854.131	53.59
854.305	35.16
854.48	-24.23
854.655	49.49
854.83	12.63
855.005	-46.76
855.18	-11.95
855.354	47.44
855.529	2.39
855.704	8.53
855.879	72.02
856.053	-7.85
856.228	-16.04
856.403	-57
856.577	16.73
856.752	-57
856.926	-5.8
857.101	82.26
857.276	51.54
857.45	-50.86
857.625	-3.75
857.799	41.3
857.974	43.35
858.148	24.92
858.323	39.25
858.497	-18.09
858.672	22.87
858.846	0.34
859.02	2.39
859.195	-5.8
859.369	-7.85
859.543	-24.23
859.718	35.16
859.892	-52.91
860.066	-38.57
860.241	10.58
860.415	12.63
860.589	-52.91
860.763	-18.09
860.938	-34.47
861.112	20.82
861.286	-40.62
861.46	12.63
861.634	55.64
861.808	29.01
861.982	8.53
862.157	-28.33
862.331	55.64
862.505	10.58
862.679	-54.95
862.853	26.96
863.027	16.73
863.201	59.73
863.375	43.35
863.549	12.63
863.722	2.39
863.896	24.92
864.07	-73.39
864.244	26.96
864.418	-42.67
864.592	-69.29
864.766	-11.95
864.939	-22.19
865.113	33.11
865.287	2.39
865.461	0.34
865.634	49.49
865.808	35.16
865.982	65.88
866.156	133.46
866.329	45.4
866.503	-13.99
866.676	41.3
866.85	82.26
867.024	18.77
867.197	33.11
867.371	0.34
867.544	31.06
867.718	102.74
867.891	35.16
868.065	-9.9
868.238	78.16
868.412	-16.04
868.585	8.53
868.759	-3.75
868.932	39.25
869.105	-7.85
869.279	0.34
869.452	0.34
869.625	49.49
869.799	-30.38
869.972	49.49
870.145	22.87
870.319	74.07
870.492	-3.75
870.665	47.44
870.838	-46.76
871.011	26.96
871.185	26.96
871.358	-11.95
871.531	61.78
871.704	49.49
871.877	-3.75
872.05	4.44
872.223	59.73
872.396	-3.75
872.569	-7.85
872.742	-38.57
872.915	12.63
873.088	-16.04
873.261	24.92
873.434	22.87
873.607	0.34
873.78	37.2
873.953	4.44
874.126	43.35
874.299	-11.95
874.471	18.77
874.644	-7.85
874.817	-11.95
874.99	-20.14
875.163	-40.62
875.335	0.34
875.508	12.63
875.681	-11.95
875.853	-38.57
876.026	49.49
876.199	49.49
876.371	98.64
876.544	41.3
876.717	53.59
876.889	2.39
877.062	24.92
877.234	-59.05
877.407	0.34
877.579	37.2
877.752	-1.71
877.924	-22.19
878.097	16.73
878.269	20.82
878.442	16.73
878.614	86.36
878.786	24.92
878.959	61.78
879.131	53.59
879.303	-38.57
879.476	59.73
879.648	-5.8
879.82	74.07
879.993	-65.19
880.165	8.53
880.337	43.35
880.509	45.4
880.681	-52.91
880.854	16.73
881.026	102.74
881.198	74.07
881.37	26.96
881.542	-46.76
881.714	69.97
881.886	-9.9
882.058	18.77
882.23	-32.43
882.402	-61.1
882.574	-1.71
882.746	104.79
882.918	65.88
883.09	117.08
883.262	8.53
883.434	20.82
883.606	-57
883.778	14.68
883.95	-32.43
884.122	29.01
884.293	29.01
884.465	-16.04
884.637	65.88
884.809	-38.57
884.98	16.73
885.152	-36.52
885.324	41.3
885.496	26.96
885.667	-1.71
885.839	-38.57
886.011	37.2
886.182	-16.04
886.354	-73.39
886.525	41.3
886.697	-38.57
886.869	8.53
887.04	35.16
887.212	-26.28
887.383	76.12
887.555	-24.23
887.726	-40.62
887.897	-46.76
888.069	-32.43
888.24	-44.71
888.412	26.96
888.583	24.92
888.754	6.49
888.926	-52.91
889.097	16.73
889.268	-61.1
889.44	35.16
889.611	33.11
889.782	-18.09
889.953	31.06
890.125	39.25
890.296	26.96
890.467	69.97
890.638	18.77
890.809	37.2
890.98	12.63
891.151	43.35
891.323	29.01
891.494	35.16
891.665	-79.53
891.836	98.64
892.007	-38.57
892.178	20.82
892.349	6.49
892.52	-75.43
892.691	4.44
892.862	2.39
893.032	-24.23
893.203	20.82
893.374	-3.75
893.545	47.44
893.716	-16.04
893.887	43.35
894.057	39.25
894.228	94.55
894.399	-32.43
894.57	39.25
894.74	2.39
894.911	6.49
895.082	10.58
895.253	16.73
895.423	-3.75
895.594	41.3
895.764	-9.9
895.935	78.16
896.106	35.16
896.276	4.44
896.447	24.92
896.617	-32.43
896.788	37.2
896.958	20.82
897.129	-22.19
897.299	4.44
897.47	2.39
897.64	-28.33
897.81	-28.33
897.981	41.3
898.151	12.63
898.322	-24.23
898.492	14.68
898.662	18.77
898.832	-13.99
899.003	-28.33
899.173	4.44
899.343	-26.28
899.513	82.26
