Data from USB4F104151__140__13-58-11-136.txt Node

Date: Thu Mar 13 13:58:11 EDT 2025
User: louis
Spectrometer: USB4F10415
Trigger mode: 4
Integration Time (sec): 1.000000E-2
Scans to average: 1
Electric dark correction enabled: true
Nonlinearity correction enabled: false
Boxcar width: 0
XAxis mode: Wavelengths
Number of Pixels in Spectrum: 3648
>>>>>Begin Spectral Data<<<<<
178.204	5.12
178.424	5.12
178.644	5.12
178.864	-41.98
179.084	-21.5
179.304	-13.31
179.524	-11.26
179.744	13.31
179.964	-15.36
180.184	60.42
180.404	-11.26
180.624	113.66
180.844	-46.08
181.064	-29.7
181.283	-11.26
181.503	-54.27
181.723	5.12
181.943	-11.26
182.163	89.09
182.383	-23.55
182.602	41.98
182.822	19.46
183.042	-39.94
183.262	35.84
183.482	-25.6
183.701	13.31
183.921	-27.65
184.141	1.02
184.361	44.03
184.58	56.32
184.8	44.03
185.02	-62.46
185.239	17.41
185.459	39.94
185.679	78.85
185.898	-35.84
186.118	31.74
186.338	-5.12
186.557	33.79
186.777	-19.46
186.997	-7.17
187.216	3.07
187.436	27.65
187.655	72.7
187.875	46.08
188.095	13.31
188.314	70.65
188.534	17.41
188.753	60.42
188.973	82.94
189.192	48.13
189.412	52.22
189.631	91.13
189.851	48.13
190.07	66.56
190.29	5.12
190.509	-19.46
190.729	-41.98
190.948	46.08
191.168	138.24
191.387	78.85
191.607	25.6
191.826	74.75
192.045	-80.89
192.265	76.8
192.484	115.71
192.704	54.27
192.923	70.65
193.142	93.18
193.362	23.55
193.581	33.79
193.8	7.17
194.02	-25.6
194.239	-35.84
194.458	-27.65
194.678	13.31
194.897	82.94
195.116	23.55
195.335	-54.27
195.555	78.85
195.774	41.98
195.993	68.61
196.212	31.74
196.432	3.07
196.651	-9.22
196.87	21.5
197.089	103.42
197.308	41.98
197.528	76.8
197.747	-19.46
197.966	25.6
198.185	58.37
198.404	31.74
198.623	19.46
198.842	-5.12
199.062	11.26
199.281	46.08
199.5	-7.17
199.719	62.46
199.938	25.6
200.157	76.8
200.376	44.03
200.595	15.36
200.814	74.75
201.033	-13.31
201.252	29.7
201.471	66.56
201.69	64.51
201.909	15.36
202.128	48.13
202.347	23.55
202.566	1.02
202.785	-15.36
203.004	46.08
203.223	123.9
203.442	-3.07
203.661	25.6
203.879	50.18
204.098	60.42
204.317	39.94
204.536	3.07
204.755	44.03
204.974	27.65
205.193	21.5
205.411	72.7
205.63	37.89
205.849	58.37
206.068	7.17
206.287	109.57
206.505	37.89
206.724	25.6
206.943	89.09
207.162	41.98
207.381	48.13
207.599	117.76
207.818	50.18
208.037	74.75
208.255	29.7
208.474	-29.7
208.693	72.7
208.911	-1.02
209.13	27.65
209.349	3.07
209.567	44.03
209.786	158.72
210.005	74.75
210.223	-21.5
210.442	-11.26
210.661	21.5
210.879	-9.22
211.098	46.08
211.316	-5.12
211.535	-52.22
211.753	58.37
211.972	66.56
212.191	13.31
212.409	-17.41
212.628	41.98
212.846	-27.65
213.065	44.03
213.283	31.74
213.502	35.84
213.72	19.46
213.938	19.46
214.157	52.22
214.375	19.46
214.594	41.98
214.812	68.61
215.031	19.46
215.249	-31.74
215.467	17.41
215.686	3.07
215.904	-9.22
216.122	33.79
216.341	136.19
216.559	54.27
216.778	80.89
216.996	33.79
217.214	41.98
217.432	48.13
217.651	-1.02
217.869	25.6
218.087	-9.22
218.306	80.89
218.524	66.56
218.742	35.84
218.96	68.61
219.179	-9.22
219.397	46.08
219.615	41.98
219.833	-17.41
220.051	62.46
220.27	13.31
220.488	3.07
220.706	97.28
220.924	33.79
221.142	27.65
221.36	-1.02
221.578	93.18
221.796	-13.31
222.015	37.89
222.233	66.56
222.451	58.37
222.669	-39.94
222.887	19.46
223.105	-5.12
223.323	13.31
223.541	39.94
223.759	109.57
223.977	31.74
224.195	54.27
224.413	-15.36
224.631	58.37
224.849	13.31
225.067	97.28
225.285	29.7
225.503	11.26
225.721	-39.94
225.939	-46.08
226.157	60.42
226.375	33.79
226.592	70.65
226.81	-9.22
227.028	87.04
227.246	89.09
227.464	31.74
227.682	-5.12
227.9	37.89
228.117	25.6
228.335	66.56
228.553	74.75
228.771	58.37
228.989	54.27
229.206	-13.31
229.424	60.42
229.642	54.27
229.86	54.27
230.077	76.8
230.295	44.03
230.513	19.46
230.731	23.55
230.948	19.46
231.166	64.51
231.384	29.7
231.601	52.22
231.819	62.46
232.037	58.37
232.254	-17.41
232.472	35.84
232.689	7.17
232.907	7.17
233.125	64.51
233.342	70.65
233.56	-1.02
233.777	103.42
233.995	-5.12
234.213	23.55
234.43	-27.65
234.648	48.13
234.865	1.02
235.083	31.74
235.3	46.08
235.518	21.5
235.735	60.42
235.953	19.46
236.17	62.46
236.388	39.94
236.605	48.13
236.822	54.27
237.04	11.26
237.257	84.99
237.475	33.79
237.692	44.03
237.909	13.31
238.127	35.84
238.344	41.98
238.562	50.18
238.779	-21.5
238.996	-35.84
239.214	62.46
239.431	19.46
239.648	-21.5
239.865	138.24
240.083	46.08
240.3	-41.98
240.517	29.7
240.735	5.12
240.952	-19.46
241.169	-3.07
241.386	39.94
241.603	33.79
241.821	31.74
242.038	84.99
242.255	-19.46
242.472	-19.46
242.689	29.7
242.907	5.12
243.124	41.98
243.341	68.61
243.558	68.61
243.775	27.65
243.992	-23.55
244.209	7.17
244.426	-46.08
244.643	31.74
244.86	82.94
245.078	46.08
245.295	7.17
245.512	44.03
245.729	15.36
245.946	1.02
246.163	27.65
246.38	-5.12
246.597	-19.46
246.814	95.23
247.031	44.03
247.248	23.55
247.464	68.61
247.681	56.32
247.898	27.65
248.115	5.12
248.332	27.65
248.549	64.51
248.766	82.94
248.983	-1.02
249.2	21.5
249.417	72.7
249.633	31.74
249.85	56.32
250.067	80.89
250.284	50.18
250.501	46.08
250.717	91.13
250.934	-9.22
251.151	76.8
251.368	17.41
251.585	39.94
251.801	19.46
252.018	27.65
252.235	-5.12
252.451	52.22
252.668	-27.65
252.885	31.74
253.102	1.02
253.318	-3.07
253.535	27.65
253.752	44.03
253.968	50.18
254.185	-3.07
254.401	27.65
254.618	-35.84
254.835	35.84
255.051	37.89
255.268	39.94
255.484	58.37
255.701	87.04
255.917	23.55
256.134	44.03
256.351	39.94
256.567	39.94
256.784	111.61
257	27.65
257.217	23.55
257.433	35.84
257.65	33.79
257.866	-5.12
258.082	64.51
258.299	-9.22
258.515	-1.02
258.732	-17.41
258.948	21.5
259.165	56.32
259.381	7.17
259.597	17.41
259.814	11.26
260.03	58.37
260.246	46.08
260.463	48.13
260.679	58.37
260.895	44.03
261.112	72.7
261.328	-23.55
261.544	93.18
261.761	115.71
261.977	58.37
262.193	-3.07
262.409	44.03
262.626	78.85
262.842	13.31
263.058	-11.26
263.274	-33.79
263.49	-50.18
263.707	3.07
263.923	95.23
264.139	21.5
264.355	46.08
264.571	29.7
264.787	5.12
265.004	29.7
265.22	101.37
265.436	-19.46
265.652	41.98
265.868	62.46
266.084	-23.55
266.3	37.89
266.516	-21.5
266.732	35.84
266.948	19.46
267.164	64.51
267.38	31.74
267.596	50.18
267.812	62.46
268.028	27.65
268.244	7.17
268.46	101.37
268.676	60.42
268.892	58.37
269.108	-13.31
269.324	-29.7
269.54	5.12
269.756	62.46
269.972	89.09
270.188	-62.46
270.403	5.12
270.619	37.89
270.835	64.51
271.051	78.85
271.267	68.61
271.483	21.5
271.698	48.13
271.914	48.13
272.13	1.02
272.346	11.26
272.562	9.22
272.777	101.37
272.993	70.65
273.209	-11.26
273.425	-11.26
273.64	-41.98
273.856	78.85
274.072	29.7
274.287	-5.12
274.503	101.37
274.719	60.42
274.934	23.55
275.15	-60.42
275.366	78.85
275.581	1.02
275.797	-5.12
276.012	29.7
276.228	35.84
276.444	37.89
276.659	119.81
276.875	23.55
277.09	17.41
277.306	101.37
277.521	95.23
277.737	5.12
277.952	70.65
278.168	66.56
278.383	64.51
278.599	-11.26
278.814	56.32
279.03	1.02
279.245	7.17
279.461	35.84
279.676	70.65
279.892	15.36
280.107	29.7
280.322	-15.36
280.538	74.75
280.753	-5.12
280.969	78.85
281.184	37.89
281.399	97.28
281.615	3.07
281.83	58.37
282.045	3.07
282.26	31.74
282.476	3.07
282.691	46.08
282.906	35.84
283.122	5.12
283.337	-1.02
283.552	105.47
283.767	25.6
283.983	97.28
284.198	13.31
284.413	68.61
284.628	15.36
284.843	54.27
285.058	21.5
285.274	29.7
285.489	-3.07
285.704	25.6
285.919	39.94
286.134	17.41
286.349	11.26
286.564	39.94
286.779	25.6
286.995	-1.02
287.21	109.57
287.425	54.27
287.64	7.17
287.855	72.7
288.07	66.56
288.285	60.42
288.5	101.37
288.715	52.22
288.93	72.7
289.145	91.13
289.36	70.65
289.575	62.46
289.79	-25.6
290.004	35.84
290.219	70.65
290.434	84.99
290.649	54.27
290.864	21.5
291.079	13.31
291.294	33.79
291.509	15.36
291.724	54.27
291.938	82.94
292.153	3.07
292.368	-3.07
292.583	9.22
292.798	78.85
293.012	35.84
293.227	52.22
293.442	93.18
293.657	95.23
293.871	62.46
294.086	54.27
294.301	97.28
294.516	48.13
294.73	56.32
294.945	93.18
295.16	11.26
295.374	7.17
295.589	-9.22
295.804	44.03
296.018	29.7
296.233	76.8
296.447	66.56
296.662	23.55
296.877	58.37
297.091	44.03
297.306	68.61
297.52	31.74
297.735	48.13
297.949	21.5
298.164	52.22
298.378	19.46
298.593	66.56
298.807	3.07
299.022	46.08
299.236	-21.5
299.451	-50.18
299.665	7.17
299.88	13.31
300.094	3.07
300.309	60.42
300.523	11.26
300.737	9.22
300.952	-9.22
301.166	93.18
301.381	-5.12
301.595	91.13
301.809	35.84
302.024	97.28
302.238	46.08
302.452	27.65
302.667	82.94
302.881	68.61
303.095	15.36
303.309	60.42
303.524	7.17
303.738	-25.6
303.952	91.13
304.166	87.04
304.381	25.6
304.595	74.75
304.809	25.6
305.023	19.46
305.237	-5.12
305.452	7.17
305.666	58.37
305.88	19.46
306.094	27.65
306.308	91.13
306.522	62.46
306.736	31.74
306.95	103.42
307.164	33.79
307.379	84.99
307.593	60.42
307.807	48.13
308.021	56.32
308.235	52.22
308.449	-3.07
308.663	-50.18
308.877	95.23
309.091	33.79
309.305	33.79
309.519	-3.07
309.733	56.32
309.947	44.03
310.161	52.22
310.374	44.03
310.588	82.94
310.802	23.55
311.016	-3.07
311.23	31.74
311.444	27.65
311.658	68.61
311.872	9.22
312.085	-5.12
312.299	-56.32
312.513	-5.12
312.727	107.52
312.941	-37.89
313.154	3.07
313.368	37.89
313.582	-3.07
313.796	44.03
314.009	35.84
314.223	56.32
314.437	31.74
314.651	103.42
314.864	76.8
315.078	44.03
315.292	76.8
315.505	31.74
315.719	78.85
315.933	-13.31
316.146	35.84
316.36	97.28
316.573	44.03
316.787	46.08
317.001	68.61
317.214	-1.02
317.428	-31.74
317.641	-9.22
317.855	27.65
318.068	7.17
318.282	35.84
318.495	56.32
318.709	78.85
318.922	27.65
319.136	5.12
319.349	68.61
319.563	33.79
319.776	66.56
319.99	-13.31
320.203	3.07
320.417	84.99
320.63	-3.07
320.843	93.18
321.057	64.51
321.27	37.89
321.483	78.85
321.697	11.26
321.91	56.32
322.124	39.94
322.337	31.74
322.55	99.33
322.763	37.89
322.977	91.13
323.19	7.17
323.403	-1.02
323.617	78.85
323.83	117.76
324.043	70.65
324.256	-25.6
324.469	54.27
324.683	29.7
324.896	-17.41
325.109	39.94
325.322	-27.65
325.535	39.94
325.748	-5.12
325.962	25.6
326.175	1.02
326.388	56.32
326.601	48.13
326.814	-60.42
327.027	37.89
327.24	58.37
327.453	39.94
327.666	9.22
327.879	64.51
328.092	15.36
328.305	5.12
328.518	44.03
328.731	-21.5
328.944	15.36
329.157	31.74
329.37	11.26
329.583	70.65
329.796	95.23
330.009	58.37
330.222	128
330.435	60.42
330.648	11.26
330.861	48.13
331.073	78.85
331.286	74.75
331.499	82.94
331.712	50.18
331.925	72.7
332.138	11.26
332.35	68.61
332.563	48.13
332.776	27.65
332.989	3.07
333.202	80.89
333.414	44.03
333.627	78.85
333.84	101.37
334.053	29.7
334.265	7.17
334.478	84.99
334.691	99.33
334.903	52.22
335.116	123.9
335.329	3.07
335.541	19.46
335.754	74.75
335.966	87.04
336.179	62.46
336.392	37.89
336.604	-50.18
336.817	-48.13
337.029	56.32
337.242	-29.7
337.454	23.55
337.667	-11.26
337.88	89.09
338.092	35.84
338.305	-5.12
338.517	21.5
338.729	54.27
338.942	44.03
339.154	7.17
339.367	-7.17
339.579	74.75
339.792	58.37
340.004	35.84
340.217	-54.27
340.429	68.61
340.641	52.22
340.854	60.42
341.066	82.94
341.278	44.03
341.491	-1.02
341.703	19.46
341.915	54.27
342.128	87.04
342.34	27.65
342.552	56.32
342.764	37.89
342.977	-5.12
343.189	1.02
343.401	31.74
343.613	-13.31
343.826	52.22
344.038	21.5
344.25	29.7
344.462	-15.36
344.674	134.14
344.886	9.22
345.099	-21.5
345.311	-5.12
345.523	89.09
345.735	7.17
345.947	52.22
346.159	11.26
346.371	37.89
346.583	35.84
346.795	21.5
347.007	62.46
347.219	60.42
347.431	60.42
347.643	82.94
347.855	27.65
348.067	74.75
348.279	5.12
348.491	50.18
348.703	64.51
348.915	-31.74
349.127	-21.5
349.339	62.46
349.551	27.65
349.763	76.8
349.975	-44.03
350.187	74.75
350.399	84.99
350.61	134.14
350.822	62.46
351.034	33.79
351.246	52.22
351.458	72.7
351.669	52.22
351.881	48.13
352.093	29.7
352.305	76.8
352.517	-11.26
352.728	93.18
352.94	41.98
353.152	3.07
353.363	5.12
353.575	95.23
353.787	25.6
353.999	25.6
354.21	117.76
354.422	50.18
354.633	3.07
354.845	11.26
355.057	56.32
355.268	64.51
355.48	-13.31
355.692	-48.13
355.903	7.17
356.115	82.94
356.326	41.98
356.538	56.32
356.749	68.61
356.961	41.98
357.172	-5.12
357.384	52.22
357.595	62.46
357.807	44.03
358.018	48.13
358.23	35.84
358.441	33.79
358.653	109.57
358.864	58.37
359.075	33.79
359.287	27.65
359.498	46.08
359.709	54.27
359.921	39.94
360.132	35.84
360.344	-13.31
360.555	41.98
360.766	-13.31
360.977	-25.6
361.189	13.31
361.4	93.18
361.611	19.46
361.823	68.61
362.034	35.84
362.245	76.8
362.456	97.28
362.667	-29.7
362.879	17.41
363.09	1.02
363.301	-17.41
363.512	19.46
363.723	13.31
363.935	-33.79
364.146	68.61
364.357	5.12
364.568	78.85
364.779	5.12
364.99	-1.02
365.201	58.37
365.412	80.89
365.623	89.09
365.834	82.94
366.045	-25.6
366.256	146.43
366.467	89.09
366.678	31.74
366.889	41.98
367.1	11.26
367.311	76.8
367.522	50.18
367.733	35.84
367.944	52.22
368.155	37.89
368.366	13.31
368.577	115.71
368.788	-11.26
368.999	58.37
369.209	115.71
369.42	-7.17
369.631	82.94
369.842	97.28
370.053	3.07
370.264	84.99
370.474	62.46
370.685	21.5
370.896	97.28
371.107	-25.6
371.317	72.7
371.528	37.89
371.739	76.8
371.95	56.32
372.16	76.8
372.371	41.98
372.582	72.7
372.792	62.46
373.003	25.6
373.214	54.27
373.424	39.94
373.635	33.79
373.846	19.46
374.056	15.36
374.267	54.27
374.477	117.76
374.688	54.27
374.898	15.36
375.109	23.55
375.319	29.7
375.53	84.99
375.74	19.46
375.951	31.74
376.161	44.03
376.372	25.6
376.582	5.12
376.793	33.79
377.003	54.27
377.214	23.55
377.424	37.89
377.635	25.6
377.845	128
378.055	1.02
378.266	31.74
378.476	68.61
378.686	52.22
378.897	27.65
379.107	33.79
379.317	68.61
379.528	-23.55
379.738	39.94
379.948	11.26
380.158	21.5
380.369	52.22
380.579	50.18
380.789	44.03
380.999	95.23
381.21	78.85
381.42	84.99
381.63	23.55
381.84	138.24
382.05	80.89
382.261	35.84
382.471	99.33
382.681	109.57
382.891	48.13
383.101	33.79
383.311	9.22
383.521	46.08
383.731	80.89
383.941	60.42
384.151	128
384.361	74.75
384.571	50.18
384.781	13.31
384.991	39.94
385.201	29.7
385.411	76.8
385.621	44.03
385.831	-5.12
386.041	31.74
386.251	111.61
386.461	115.71
386.671	-37.89
386.881	50.18
387.091	105.47
387.301	84.99
387.511	3.07
387.72	-7.17
387.93	80.89
388.14	130.05
388.35	29.7
388.56	11.26
388.769	89.09
388.979	7.17
389.189	64.51
389.399	76.8
389.609	29.7
389.818	31.74
390.028	5.12
390.238	68.61
390.447	23.55
390.657	1.02
390.867	-15.36
391.076	76.8
391.286	35.84
391.496	72.7
391.705	97.28
391.915	87.04
392.125	64.51
392.334	13.31
392.544	50.18
392.753	15.36
392.963	9.22
393.172	60.42
393.382	27.65
393.591	72.7
393.801	109.57
394.01	136.19
394.22	33.79
394.429	31.74
394.639	35.84
394.848	82.94
395.058	58.37
395.267	72.7
395.477	93.18
395.686	48.13
395.895	111.61
396.105	27.65
396.314	-35.84
396.524	23.55
396.733	121.85
396.942	19.46
397.152	70.65
397.361	7.17
397.57	113.66
397.78	46.08
397.989	39.94
398.198	54.27
398.407	11.26
398.617	97.28
398.826	76.8
399.035	64.51
399.244	56.32
399.453	64.51
399.663	31.74
399.872	103.42
400.081	37.89
400.29	101.37
400.499	-3.07
400.708	52.22
400.917	89.09
401.127	76.8
401.336	62.46
401.545	31.74
401.754	76.8
401.963	105.47
402.172	29.7
402.381	50.18
402.59	80.89
402.799	115.71
403.008	15.36
403.217	150.53
403.426	9.22
403.635	125.95
403.844	76.8
404.053	39.94
404.262	82.94
404.471	35.84
404.68	41.98
404.888	111.61
405.097	101.37
405.306	136.19
405.515	119.81
405.724	52.22
405.933	-5.12
406.142	125.95
406.35	62.46
406.559	91.13
406.768	62.46
406.977	62.46
407.185	144.38
407.394	156.67
407.603	54.27
407.812	181.25
408.02	13.31
408.229	41.98
408.438	113.66
408.646	136.19
408.855	123.9
409.064	115.71
409.272	103.42
409.481	84.99
409.69	66.56
409.898	60.42
410.107	160.77
410.315	101.37
410.524	93.18
410.733	152.57
410.941	160.77
411.15	109.57
411.358	171.01
411.567	162.81
411.775	142.33
411.984	168.96
412.192	220.16
412.401	189.44
412.609	183.29
412.818	191.49
413.026	152.57
413.234	209.92
413.443	238.59
413.651	185.34
413.86	191.49
414.068	267.26
414.276	242.68
414.485	222.2
414.693	189.44
414.901	363.51
415.11	207.87
415.318	297.98
415.526	304.12
415.734	332.79
415.943	302.08
416.151	320.51
416.359	218.11
416.567	390.14
416.776	355.32
416.984	338.94
417.192	396.28
417.4	455.67
417.608	300.03
417.817	347.13
418.025	406.52
418.233	486.39
418.441	449.53
418.649	441.34
418.857	467.96
419.065	463.86
419.273	408.57
419.481	467.96
419.689	486.39
419.897	627.7
420.105	494.58
420.313	562.17
420.521	553.98
420.729	625.65
420.937	560.12
421.145	672.76
421.353	740.34
421.561	685.05
421.769	779.25
421.977	828.4
422.185	726
422.393	791.54
422.601	879.6
422.809	842.74
423.017	734.2
423.224	721.91
423.432	861.17
423.64	865.27
423.848	977.91
424.056	918.51
424.263	965.62
424.471	984.05
424.679	1014.77
424.887	1113.07
425.094	1125.36
425.302	1205.23
425.51	1180.65
425.718	1268.72
425.925	1240.05
426.133	1240.05
426.341	1395.69
426.548	1414.12
426.756	1444.84
426.964	1375.21
427.171	1469.42
427.379	1594.34
427.586	1563.62
427.794	1649.64
428.001	1727.46
428.209	1793
428.417	1758.18
428.624	1846.24
428.832	1803.24
429.039	1805.28
429.247	1897.44
429.454	2026.47
429.662	2087.9
429.869	1883.11
430.076	2132.96
430.284	2059.23
430.491	2352.09
430.699	2253.79
430.906	2298.84
431.114	2341.85
431.321	2345.95
431.528	2501.59
431.736	2622.42
431.943	2630.62
432.15	2552.79
432.358	2683.86
432.565	2796.5
432.772	2821.08
432.979	2905.04
433.187	3070.93
433.394	3064.79
433.601	3163.09
433.808	3234.77
434.016	3222.48
434.223	3265.49
434.43	3449.8
434.637	3427.28
434.844	3541.96
435.052	3689.42
435.259	3599.31
435.466	3691.46
435.673	3691.46
435.88	3902.4
436.087	4170.69
436.294	4309.95
436.501	4068.29
436.708	4166.59
436.915	4295.61
437.122	4455.36
437.329	4557.75
437.537	4600.76
437.743	4690.87
437.95	4604.86
438.157	4946.87
438.364	4981.68
438.571	5110.71
438.778	5131.19
438.985	5585.83
439.192	5303.22
439.399	5430.19
439.606	5252.02
439.813	5698.47
440.02	5850.02
440.227	6140.83
440.433	5819.3
440.64	6171.55
440.847	5997.48
441.054	6101.92
441.261	6519.71
441.467	6376.35
441.674	6685.59
441.881	6740.89
442.088	6757.27
442.294	6601.63
442.501	6747.03
442.708	6966.17
442.914	7271.31
443.121	7740.3
443.328	7285.65
443.534	7934.85
443.741	7603.08
443.948	7340.94
444.154	8061.83
444.361	8084.36
444.568	8121.22
444.774	8217.47
444.981	8160.13
445.187	8524.67
445.394	8731.51
445.6	8596.35
445.807	9642.86
446.013	9169.78
446.22	9268.08
446.426	9612.14
446.633	9884.52
446.839	10191.72
447.046	9722.73
447.252	10066.79
447.459	10095.46
447.665	10214.24
447.871	10525.54
448.078	11072.34
448.284	10648.41
448.491	10750.81
448.697	11135.83
448.903	11445.07
449.11	11463.51
449.316	11174.74
449.522	11600.72
449.728	11823.95
449.935	11965.26
450.141	11932.49
450.347	12168.01
450.553	11713.36
450.76	11821.9
450.966	12393.28
451.172	12219.21
451.378	12440.39
451.584	12292.93
451.791	12720.96
451.997	12505.92
452.203	12880.7
452.409	12487.49
452.615	12716.86
452.821	12403.52
453.027	12225.35
453.233	12868.41
453.44	12088.14
453.646	12319.56
453.852	12393.28
454.058	12571.46
454.264	12333.89
454.47	12632.9
454.676	12094.28
454.882	12643.14
455.088	11705.17
455.294	11723.6
455.5	11914.06
455.705	12186.44
455.911	11522.9
456.117	11348.82
456.323	11168.6
456.529	10736.48
456.735	11043.67
456.941	10902.36
457.147	10632.03
457.352	10347.36
457.558	10128.23
457.764	10138.47
457.97	10144.61
458.176	9800.55
458.381	9890.67
458.587	9419.63
458.793	9317.23
458.999	8934.26
459.204	9499.5
459.41	9294.71
459.616	8582.01
459.821	8553.34
460.027	8500.09
460.233	8463.23
460.438	7992.2
460.644	8301.44
460.85	7883.66
461.055	7689.1
461.261	7736.2
461.466	6970.26
461.672	6765.46
461.878	7216.02
462.083	6972.31
462.289	6681.5
462.494	6753.18
462.7	6474.65
462.905	6245.28
463.111	6476.7
463.316	6337.44
463.522	6284.19
463.727	6149.03
463.932	6204.32
464.138	6278.05
464.343	6271.9
464.549	6134.69
464.754	6136.74
464.959	6189.99
465.165	6108.07
465.37	5940.13
465.575	5866.41
465.781	6007.72
465.986	6042.53
466.191	5915.56
466.397	5682.09
466.602	5393.33
466.807	5700.52
467.012	5632.94
467.218	5512.11
467.423	5530.54
467.628	5647.27
467.833	5776.3
468.038	5577.64
468.244	5266.35
468.449	5751.72
468.654	5360.56
468.859	5335.98
469.064	5409.71
469.269	5170.1
469.474	5204.91
469.679	5378.99
469.885	4985.78
470.09	5276.59
470.295	5196.72
470.5	5053.36
470.705	5086.13
470.91	4965.3
471.115	4926.39
471.32	4959.16
471.525	5032.88
471.73	4860.85
471.935	4910.01
472.139	4717.5
472.344	4795.32
472.549	4756.41
472.754	4615.1
472.959	4684.73
473.164	4455.36
473.369	4430.78
473.574	4541.37
473.778	4524.99
473.983	4414.4
474.188	4516.8
474.393	4383.68
474.598	4273.09
474.802	4268.99
475.007	4275.13
475.212	4076.48
475.417	4023.23
475.621	3980.23
475.826	4041.67
476.031	3980.23
476.235	3888.07
476.44	4113.35
476.645	3824.58
476.849	4029.38
477.054	3877.83
477.259	3750.85
477.463	3916.74
477.668	3767.24
477.872	3859.4
478.077	3757
478.282	3746.76
478.486	3613.64
478.691	3498.95
478.895	3492.81
479.1	3582.92
479.304	3580.87
479.509	3476.43
479.713	3449.8
479.918	3427.28
480.122	3392.46
480.326	3523.53
480.531	3314.64
480.735	3429.32
480.94	3417.04
481.144	3378.12
481.348	3197.9
481.553	3376.08
481.757	3142.61
481.961	3273.68
482.166	3417.04
482.37	3359.69
482.574	3290.06
482.778	3249.1
482.983	3392.46
483.187	3222.48
483.391	3328.97
483.595	3179.47
483.8	3277.77
484.004	3214.29
484.208	3253.2
484.412	3222.48
484.616	3396.56
484.821	3279.82
485.025	3283.92
485.229	3230.67
485.433	3302.35
485.637	3285.97
485.841	3208.14
486.045	3177.42
486.249	3193.81
486.453	3343.31
486.657	3228.62
486.861	3210.19
487.065	3349.45
487.269	3349.45
487.473	3259.34
487.677	3306.45
487.881	3371.98
488.085	3204.05
488.289	3304.4
488.493	3337.17
488.697	3152.85
488.901	3517.39
489.105	3249.1
489.309	3265.49
489.512	3300.3
489.716	3296.21
489.92	3281.87
490.124	3408.84
490.328	3363.79
490.531	3369.93
490.735	3431.37
490.939	3271.63
491.143	3277.77
491.346	3439.56
491.55	3480.52
491.754	3484.62
491.958	3470.28
492.161	3363.79
492.365	3417.04
492.569	3455.95
492.772	3556.3
492.976	3492.81
493.18	3558.35
493.383	3582.92
493.587	3591.11
493.79	3587.02
493.994	3509.19
494.197	3609.54
494.401	3615.69
494.605	3646.41
494.808	3847.11
495.012	3861.45
495.215	3738.57
495.419	3730.38
495.622	3757
495.825	3961.8
496.029	3877.83
496.232	3959.75
496.436	3873.73
496.639	3996.61
496.843	3922.88
497.046	4131.78
497.249	4148.16
497.453	4129.73
497.656	4166.59
497.859	4193.22
498.063	4150.21
498.266	4207.55
498.469	4248.51
498.673	4418.49
498.876	4453.31
499.079	4514.75
499.282	4547.51
499.485	4625.34
499.689	4606.91
499.892	4541.37
500.095	4869.05
500.298	4893.62
500.501	4721.59
500.705	4936.63
500.908	5082.03
501.111	4996.02
501.314	5096.37
501.517	5192.62
501.72	5149.62
501.923	5321.65
502.126	5358.51
502.329	5639.08
502.532	5626.79
502.735	5702.57
502.938	5768.1
503.141	5847.97
503.344	5804.97
503.547	5776.3
503.75	5958.57
503.953	6091.68
504.156	6099.87
504.359	6136.74
504.562	6218.66
504.765	6409.12
504.968	6452.13
505.17	6622.11
505.373	6654.87
505.576	6753.18
505.779	6734.75
505.982	6749.08
506.185	6826.9
506.387	6962.07
506.59	7115.67
506.793	7353.23
506.996	7216.02
507.198	7482.25
507.401	7353.23
507.604	7469.97
507.807	7789.45
508.009	7754.63
508.212	7728.01
508.415	7830.41
508.617	8029.06
508.82	8024.97
509.022	8108.93
509.225	8551.29
509.428	8377.22
509.63	8575.87
509.833	8645.5
510.035	8960.89
510.238	8637.31
510.44	8946.55
510.643	9124.72
510.845	9280.37
511.048	9462.64
511.25	9456.5
511.453	9659.24
511.655	9976.68
511.858	9778.03
512.06	9849.71
512.262	10081.13
512.465	10013.54
512.667	10484.58
512.87	10564.45
513.072	10570.59
513.274	10695.52
513.477	10951.51
513.679	10922.84
513.881	11068.25
514.084	11318.1
514.286	11219.8
514.488	11492.18
514.69	11686.73
514.893	11875.15
515.095	11789.13
515.297	12059.46
515.499	12030.79
515.701	12266.31
515.904	12561.22
516.106	12747.58
516.308	12847.93
516.51	12901.18
516.712	12954.43
516.914	13175.61
517.116	13478.71
517.318	13771.57
517.52	13714.22
517.722	13998.89
517.925	14023.47
518.127	14322.47
518.329	14482.21
518.531	14402.34
518.733	14619.42
518.935	14990.11
519.136	14723.87
519.338	15188.76
519.54	15072.03
519.742	15606.55
519.944	15536.91
520.146	15715.09
520.348	16124.68
520.55	15885.07
520.752	16474.88
520.954	16474.88
521.155	16292.62
521.357	16810.75
521.559	16935.68
521.761	17122.04
521.963	17044.22
522.164	17341.18
522.366	17464.05
522.568	17701.62
522.77	17838.83
522.971	18119.4
523.173	17937.13
523.375	18107.12
523.576	18326.25
523.778	18633.44
523.98	18774.75
524.181	18946.78
524.383	19008.22
524.584	19155.68
524.786	19264.22
524.988	19147.48
525.189	19458.78
525.391	19598.04
525.592	19903.18
525.794	19911.38
525.995	19845.84
526.197	20069.07
526.398	20155.08
526.6	20327.11
526.801	20169.42
527.003	20384.46
527.204	20409.03
527.406	20757.19
527.607	20953.79
527.808	20988.61
528.01	20798.15
528.211	21076.67
528.412	21381.82
528.614	21244.6
528.815	21439.16
529.016	21942.96
529.218	21445.3
529.419	21697.2
529.62	21697.2
529.822	21678.77
530.023	21924.53
530.224	21727.92
530.425	21979.82
530.626	21856.95
530.828	22131.37
531.029	22561.45
531.23	22375.08
531.431	22086.32
531.632	22452.91
531.833	22647.46
532.035	22446.76
532.236	22639.27
532.437	22510.25
532.638	22528.68
532.839	22586.02
533.04	22784.68
533.241	22551.21
533.442	22735.53
533.643	22987.43
533.844	22952.61
534.045	22653.61
534.246	22588.07
534.447	22962.85
534.648	22950.56
534.849	22719.14
535.05	22839.97
535.251	22923.94
535.451	22936.23
535.652	22815.4
535.853	22784.68
536.054	23016.1
536.255	23165.6
536.456	22889.12
536.657	23224.99
536.857	23065.25
537.058	23012
537.259	23106.21
537.46	23159.45
537.66	22854.31
537.861	23147.17
538.062	23098.02
538.263	23235.23
538.463	23366.3
538.664	23126.69
538.865	23311
539.065	23583.38
539.266	23311
539.466	23347.87
539.667	23265.95
539.868	23276.19
540.068	23231.13
540.269	23220.89
540.469	23478.94
540.67	23050.91
540.87	23354.01
541.071	23050.91
541.271	23186.08
541.472	23380.64
541.672	23251.61
541.873	22999.71
542.073	22981.28
542.274	23493.27
542.474	22907.55
542.675	22887.07
542.875	23294.62
543.075	23270.04
543.276	22956.71
543.476	23505.56
543.676	23036.58
543.877	23399.07
544.077	23126.69
544.277	23120.54
544.478	23038.62
544.678	23184.03
544.878	23177.89
545.078	23147.17
545.279	23247.52
545.479	22895.27
545.679	23446.17
545.879	23224.99
546.079	23108.26
546.28	23331.48
546.48	23147.17
546.68	23235.23
546.88	23222.94
547.08	23358.11
547.28	23341.72
547.48	23036.58
547.68	23278.24
547.88	23210.65
548.081	23313.05
548.281	23147.17
548.481	23300.76
548.681	23622.3
548.881	23360.16
549.081	23311
549.28	23077.54
549.48	23423.64
549.68	23263.9
549.88	23331.48
550.08	23208.61
550.28	23206.56
550.48	23171.74
550.68	23657.11
550.88	23362.2
551.08	23409.31
551.279	23229.09
551.479	23116.45
551.679	23118.5
551.879	22921.89
552.079	23503.51
552.278	22962.85
552.478	22858.4
552.678	23216.8
552.878	23214.75
553.077	22825.64
553.277	22950.56
553.477	23503.51
553.676	23059.1
553.876	23343.77
554.076	23120.54
554.275	23200.41
554.475	22833.83
554.674	23257.76
554.874	23032.48
555.074	23184.03
555.273	22991.52
555.473	23220.89
555.672	23079.58
555.872	23145.12
556.071	23124.64
556.271	23065.25
556.47	23190.17
556.67	22604.46
556.869	22796.96
557.068	22815.4
557.268	22508.2
557.467	22592.17
557.667	22661.8
557.866	22352.55
558.065	22684.33
558.265	22831.78
558.464	22620.84
558.663	22772.39
558.863	22596.26
559.062	22620.84
559.261	22459.05
559.461	22487.72
559.66	22108.85
559.859	22299.31
560.058	22114.99
560.258	22467.24
560.457	21940.91
560.656	22166.19
560.855	21904.05
561.054	22211.25
561.253	21707.44
561.453	21985.97
561.652	22071.98
561.851	21910.19
562.05	21947.06
562.249	21844.66
562.448	21822.13
562.647	21605.05
562.846	21979.82
563.045	21621.43
563.244	21693.11
563.443	22131.37
563.642	21293.76
563.841	21473.98
564.04	21435.06
564.239	21691.06
564.438	21267.13
564.637	21238.46
564.836	21140.16
565.035	21097.15
565.234	21424.83
565.432	21461.69
565.631	20650.69
565.83	21220.03
566.029	20871.87
566.228	21076.67
566.427	21236.41
566.625	20609.73
566.824	20800.19
567.023	20968.13
567.222	20515.53
567.42	20603.59
567.619	20695.75
567.818	20622.02
568.016	20540.1
568.215	20781.76
568.414	20142.8
568.612	20437.7
568.811	20443.85
569.01	20468.42
569.208	20155.08
569.407	19950.29
569.605	20103.89
569.804	20257.48
570.002	19974.86
570.201	20253.39
570.4	19966.67
570.598	19753.68
570.797	19753.68
570.995	19811.03
571.193	19710.68
571.392	19499.73
571.59	19188.44
571.789	19716.82
571.987	19280.6
572.186	19368.66
572.384	19333.85
572.582	19393.24
572.781	19219.16
572.979	18754.27
573.177	18936.54
573.376	18944.73
573.574	18903.78
573.772	18725.6
573.971	18741.99
574.169	18471.65
574.367	18520.81
574.565	18561.76
574.763	18492.13
574.962	18574.05
575.16	18258.67
575.358	18543.33
575.556	18019.05
575.754	18168.55
575.952	17877.74
576.151	18260.71
576.349	17883.89
576.547	17810.16
576.745	17922.8
576.943	17685.23
577.141	17767.15
577.339	17668.85
577.537	17789.68
577.735	17625.84
577.933	17398.52
578.131	17283.83
578.329	17629.94
578.527	17292.02
578.725	17431.29
578.923	17492.73
579.121	17093.37
579.319	17238.78
579.516	17132.28
579.714	17066.75
579.912	17017.6
580.11	16970.49
580.308	16788.22
580.506	16677.63
580.704	16481.03
580.901	16753.41
581.099	16700.16
581.297	16605.95
581.495	16624.39
581.692	16272.14
581.89	16184.07
582.088	16485.12
582.285	16360.2
582.483	16311.05
582.681	16202.5
582.878	16319.24
583.076	15854.35
583.274	16055.05
583.471	15850.25
583.669	16065.29
583.866	15874.83
584.064	16032.52
584.262	15864.59
584.459	15811.34
584.657	15866.64
584.854	15721.23
585.052	15403.8
585.249	15620.88
585.447	15465.24
585.644	15467.28
585.841	15463.19
586.039	15710.99
586.236	15385.37
586.434	15201.05
586.631	15137.56
586.828	15125.27
587.026	15264.54
587.223	15043.35
587.42	14992.16
587.618	14732.06
587.815	14889.76
588.012	14830.37
588.21	14760.73
588.407	14949.15
588.604	14734.11
588.801	14920.48
588.999	14613.28
589.196	14486.31
589.393	14451.49
589.59	14506.79
589.787	14533.41
589.984	14230.31
590.182	14469.92
590.379	14394.15
590.576	14097.19
590.773	14056.23
590.97	14009.13
591.167	14103.34
591.364	13937.45
591.561	13777.71
591.758	13894.44
591.955	14070.57
592.152	13992.75
592.349	13710.13
592.546	13726.51
592.743	13847.34
592.94	13652.78
593.137	13597.49
593.334	13828.91
593.531	13286.2
593.727	13572.91
593.924	13558.58
594.121	13409.08
594.318	13523.76
594.515	13284.15
594.712	13470.51
594.908	13255.48
595.105	13359.92
595.302	13380.4
595.499	13372.21
595.696	13050.68
595.892	13165.37
596.089	12948.28
596.286	13048.63
596.482	12917.56
596.679	12927.8
596.876	12864.32
597.072	13048.63
597.269	12895.04
597.466	12673.85
597.662	12596.03
597.859	12796.73
598.055	12616.51
598.252	12557.12
598.448	12530.5
598.645	12671.81
598.841	12434.24
599.038	12368.71
599.234	12440.39
599.431	12460.87
599.627	12368.71
599.824	12659.52
600.02	12301.12
600.217	12241.73
600.413	12419.91
600.609	12194.63
600.806	12335.94
601.002	12151.62
601.198	12110.66
601.395	12063.56
601.591	12077.9
601.787	11922.25
601.984	11836.24
602.18	11875.15
602.376	11854.67
602.572	11977.55
602.769	11832.14
602.965	11570
603.161	11766.6
603.357	11512.66
603.553	11555.66
603.75	11651.92
603.946	11516.75
604.142	11406.16
604.338	11404.11
604.534	11465.55
604.73	11336.53
604.926	11344.72
605.122	11240.28
605.318	11154.26
605.514	11107.16
605.71	11111.25
605.906	10939.23
606.102	11023.19
606.298	10881.88
606.494	11158.36
606.69	11012.95
606.886	10984.28
607.082	10865.5
607.278	10793.82
607.474	10752.86
607.67	10660.7
607.866	10617.69
608.062	10644.32
608.257	10609.5
608.453	10543.97
608.649	10562.4
608.845	10591.07
609.041	10357.6
609.236	10666.85
609.432	10451.81
609.628	10279.78
609.824	10316.64
610.019	10357.6
610.215	10273.64
610.411	10177.38
610.606	10013.54
610.802	10339.17
610.998	10146.66
611.193	10181.48
611.389	9999.21
611.584	10025.83
611.78	10007.4
611.976	10158.95
612.171	10056.55
612.367	9755.5
612.562	9808.75
612.758	9911.14
612.953	9644.91
613.149	9616.24
613.344	9800.55
613.539	9927.53
613.735	9606
613.93	9982.82
614.126	9431.92
614.321	9651.05
614.517	9571.18
614.712	9503.6
614.907	9544.56
615.103	9460.59
615.298	9397.1
615.493	9509.74
615.688	9188.21
615.884	9380.72
616.079	9091.96
616.274	9331.57
616.47	9210.74
616.665	9300.85
616.86	9177.97
617.055	9284.47
617.25	9296.75
617.445	9198.45
617.641	9184.12
617.836	9134.96
618.031	8790.91
618.226	8964.98
618.421	8907.64
618.616	8905.59
618.811	8760.19
619.006	8952.7
619.201	8696.7
619.396	8770.43
619.591	8758.14
619.786	8618.88
619.981	8526.72
620.176	8680.32
620.371	8514.43
620.566	8455.04
620.761	8420.22
620.956	8582.01
621.151	8295.3
621.346	8498.05
621.541	8207.23
621.735	8358.78
621.93	8194.95
622.125	8344.45
622.32	8125.32
622.515	8192.9
622.709	8037.25
622.904	8037.25
623.099	7885.7
623.294	8166.28
623.488	7861.13
623.683	7981.96
623.878	7605.13
624.072	7699.34
624.267	7723.91
624.462	7685
624.656	7541.64
624.851	7439.25
625.046	7469.97
625.24	7525.26
625.435	7459.73
625.629	7502.73
625.824	7203.73
626.018	7359.38
626.213	7158.67
626.407	7455.63
626.602	7207.83
626.796	7201.68
626.991	7365.52
627.185	7146.39
627.38	7117.72
627.574	6945.69
627.768	7070.61
627.963	6941.59
628.157	6800.28
628.352	6798.23
628.546	6710.17
628.74	6732.7
628.935	6861.72
629.129	6728.6
629.323	6720.41
629.517	6607.77
629.712	6589.34
629.906	6611.87
630.1	6548.38
630.294	6634.39
630.489	6345.63
630.683	6509.47
630.877	6392.73
631.071	6386.59
631.265	6368.16
631.459	6194.08
631.653	6288.29
631.848	6265.76
632.042	6257.57
632.236	6128.55
632.43	6118.31
632.624	6149.03
632.818	6069.16
633.012	6026.15
633.206	6040.48
633.4	5870.5
633.594	5880.74
633.788	5884.84
633.982	6024.1
634.176	5847.97
634.369	5929.89
634.563	5907.37
634.757	5804.97
634.951	5792.68
635.145	5702.57
635.339	5737.38
635.533	5589.93
635.726	5548.97
635.92	5475.24
636.114	5555.12
636.308	5618.6
636.501	5618.6
636.695	5579.69
636.889	5483.44
637.083	5452.72
637.276	5444.52
637.47	5399.47
637.664	5245.87
637.857	5290.93
638.051	5450.67
638.244	5354.41
638.438	5219.25
638.632	5213.1
638.825	5034.93
639.019	5057.46
639.212	5110.71
639.406	5059.51
639.599	5079.99
639.793	5032.88
639.986	5102.51
640.18	5036.98
640.373	4926.39
640.567	4873.14
640.76	4836.28
640.954	4838.33
641.147	4879.29
641.34	4721.59
641.534	4772.79
641.727	4727.74
641.92	4778.94
642.114	4668.34
642.307	4678.58
642.5	4549.56
642.694	4420.54
642.887	4383.68
643.08	4563.9
643.273	4555.71
643.467	4365.25
643.66	4410.3
643.853	4428.73
644.046	4414.4
644.239	4303.81
644.432	4426.68
644.626	4316.09
644.819	4266.94
645.012	4160.45
645.205	4150.21
645.398	4162.5
645.591	4156.35
645.784	4070.34
645.977	4068.29
646.17	4051.91
646.363	4197.31
646.556	3849.16
646.749	3902.4
646.942	3853.25
647.135	3929.03
647.328	3900.36
647.521	3816.39
647.714	3767.24
647.907	3820.49
648.099	3687.37
648.292	3730.38
648.485	3640.26
648.678	3759.05
648.871	3634.12
649.064	3619.78
649.256	3736.52
649.449	3683.27
649.642	3644.36
649.835	3460.04
650.027	3476.43
650.22	3558.35
650.413	3562.44
650.605	3408.84
650.798	3263.44
650.991	3414.99
651.183	3390.41
651.376	3445.71
651.568	3304.4
651.761	3312.59
651.954	3140.56
652.146	3328.97
652.339	3363.79
652.531	3140.56
652.724	3197.9
652.916	3269.58
653.109	3099.6
653.301	3255.25
653.494	3115.98
653.686	3148.75
653.879	3216.33
654.071	3007.44
654.263	3046.35
654.456	3013.59
654.648	3011.54
654.84	2982.87
655.033	2939.86
655.225	3058.64
655.417	3070.93
655.61	2866.13
655.802	2927.57
655.994	2839.51
656.186	2788.31
656.379	2857.94
656.571	2911.19
656.763	2714.58
656.955	2790.36
657.148	2747.35
657.34	2745.3
657.532	2821.08
657.724	2634.71
657.916	2741.21
658.108	2780.12
658.3	2812.89
658.492	2638.81
658.684	2700.25
658.876	2632.66
659.068	2640.86
659.26	2517.98
659.452	2542.55
659.644	2501.59
659.836	2477.02
660.028	2511.83
660.22	2528.22
660.412	2526.17
660.604	2493.4
660.796	2419.68
660.988	2274.27
661.18	2427.87
661.372	2370.52
661.563	2364.38
661.755	2345.95
661.947	2440.15
662.139	2249.69
662.331	2241.5
662.522	2366.43
662.714	2233.31
662.906	2221.02
663.097	2243.55
663.289	2225.12
663.481	2323.42
663.673	2184.16
663.864	2186.21
664.056	2139.1
664.247	2218.97
664.439	2149.34
664.631	2067.42
664.822	2167.77
665.014	2092
665.205	2116.58
665.397	2112.48
665.588	1975.27
665.78	1977.31
665.971	2087.9
666.163	2108.38
666.354	2087.9
666.546	2065.38
666.737	2089.95
666.929	1954.79
667.12	1952.74
667.311	2010.08
667.503	1907.68
667.694	2038.75
667.885	1846.24
668.077	1934.31
668.268	1887.2
668.459	1942.5
668.651	1846.24
668.842	1866.72
669.033	1879.01
669.224	1883.11
669.416	1797.09
669.607	1848.29
669.798	1829.86
669.989	1893.35
670.18	1844.2
670.371	1747.94
670.563	1823.72
670.754	1788.9
670.945	1836
671.136	1698.79
671.327	1723.37
671.518	1760.23
671.709	1778.66
671.9	1840.1
672.091	1774.56
672.282	1651.69
672.473	1672.17
672.664	1653.73
672.855	1690.6
673.046	1723.37
673.237	1702.89
673.428	1670.12
673.619	1610.73
673.809	1651.69
674	1711.08
674.191	1657.83
674.382	1688.55
674.573	1592.3
674.764	1614.82
674.954	1592.3
675.145	1651.69
675.336	1668.07
675.527	1684.45
675.717	1641.45
675.908	1577.96
676.099	1584.1
676.289	1491.95
676.48	1643.49
676.671	1596.39
676.861	1647.59
677.052	1631.21
677.243	1580.01
677.433	1565.67
677.624	1584.1
677.814	1590.25
678.005	1608.68
678.195	1575.91
678.386	1537
678.576	1537
678.767	1446.89
678.957	1618.92
679.148	1532.9
679.338	1530.86
679.529	1457.13
679.719	1526.76
679.909	1569.77
680.1	1539.05
680.29	1530.86
680.481	1553.38
680.671	1493.99
680.861	1551.34
681.052	1600.49
681.242	1500.14
681.432	1635.3
681.622	1426.41
681.813	1543.14
682.003	1545.19
682.193	1502.19
682.383	1534.95
682.573	1553.38
682.764	1471.47
682.954	1487.85
683.144	1504.23
683.334	1557.48
683.524	1489.9
683.714	1401.83
683.904	1493.99
684.094	1471.47
684.284	1479.66
684.474	1526.76
684.664	1465.32
684.854	1459.18
685.044	1455.08
685.234	1448.94
685.424	1473.51
685.614	1444.84
685.804	1502.19
685.994	1342.44
686.184	1471.47
686.374	1416.17
686.564	1410.03
686.753	1508.33
686.943	1360.88
687.133	1432.55
687.323	1577.96
687.513	1475.56
687.702	1463.27
687.892	1405.93
688.082	1479.66
688.272	1430.51
688.461	1424.36
688.651	1399.79
688.841	1450.99
689.03	1448.94
689.22	1518.57
689.41	1459.18
689.599	1381.35
689.789	1510.38
689.979	1412.07
690.168	1430.51
690.358	1395.69
690.547	1477.61
690.737	1506.28
690.926	1358.83
691.116	1416.17
691.305	1475.56
691.495	1428.46
691.684	1440.75
691.874	1453.03
692.063	1422.31
692.252	1420.27
692.442	1475.56
692.631	1422.31
692.82	1465.32
693.01	1522.66
693.199	1358.83
693.388	1459.18
693.578	1453.03
693.767	1524.71
693.956	1444.84
694.146	1358.83
694.335	1504.23
694.524	1522.66
694.713	1481.71
694.902	1461.23
695.092	1459.18
695.281	1444.84
695.47	1504.23
695.659	1459.18
695.848	1373.16
696.037	1534.95
696.226	1438.7
696.415	1549.29
696.604	1559.53
696.793	1569.77
696.982	1481.71
697.171	1582.06
697.36	1545.19
697.549	1539.05
697.738	1510.38
697.927	1582.06
698.116	1465.32
698.305	1537
698.494	1489.9
698.683	1573.86
698.872	1465.32
699.061	1604.58
699.25	1569.77
699.438	1565.67
699.627	1547.24
699.816	1604.58
700.005	1545.19
700.193	1518.57
700.382	1643.49
700.571	1541.1
700.76	1549.29
700.948	1629.16
701.137	1618.92
701.326	1575.91
701.514	1518.57
701.703	1610.73
701.892	1506.28
702.08	1491.95
702.269	1541.1
702.457	1520.62
702.646	1463.27
702.834	1481.71
703.023	1489.9
703.212	1496.04
703.4	1534.95
703.589	1514.47
703.777	1567.72
703.965	1422.31
704.154	1532.9
704.342	1565.67
704.531	1518.57
704.719	1465.32
704.907	1614.82
705.096	1563.62
705.284	1477.61
705.472	1424.36
705.661	1481.71
705.849	1516.52
706.037	1522.66
706.226	1534.95
706.414	1498.09
706.602	1551.34
706.79	1518.57
706.979	1504.23
707.167	1514.47
707.355	1592.3
707.543	1391.59
707.731	1491.95
707.919	1520.62
708.107	1502.19
708.296	1469.42
708.484	1424.36
708.672	1422.31
708.86	1387.5
709.048	1504.23
709.236	1471.47
709.424	1485.8
709.612	1364.97
709.8	1360.88
709.988	1403.88
710.176	1383.4
710.364	1348.59
710.551	1330.16
710.739	1438.7
710.927	1334.25
711.115	1430.51
711.303	1399.79
711.491	1342.44
711.679	1387.5
711.866	1422.31
712.054	1358.83
712.242	1405.93
712.43	1321.96
712.617	1395.69
712.805	1311.72
712.993	1303.53
713.181	1344.49
713.368	1371.12
713.556	1399.79
713.744	1338.35
713.931	1309.68
714.119	1324.01
714.306	1340.4
714.494	1309.68
714.682	1266.67
714.869	1381.35
715.057	1254.38
715.244	1332.2
715.432	1313.77
715.619	1250.28
715.807	1354.73
715.994	1315.82
716.182	1278.96
716.369	1233.9
716.556	1223.66
716.744	1235.95
716.931	1223.66
717.119	1213.42
717.306	1176.56
717.493	1281
717.681	1248.24
717.868	1299.44
718.055	1170.41
718.242	1201.13
718.43	1229.81
718.617	1229.81
718.804	1246.19
718.991	1197.04
719.179	1270.76
719.366	1223.66
719.553	1209.33
719.74	1301.48
719.927	1090.54
720.114	1178.61
720.301	1182.7
720.488	1207.28
720.676	1219.57
720.863	1147.89
721.05	1233.9
721.237	1248.24
721.424	1137.65
721.611	1170.41
721.798	1147.89
721.985	1078.26
722.172	1242.09
722.358	1160.17
722.545	1207.28
722.732	1182.7
722.919	1192.94
723.106	1151.98
723.293	1111.02
723.48	1137.65
723.667	1047.54
723.853	1065.97
724.04	1184.75
724.227	1133.55
724.414	1051.63
724.6	1156.08
724.787	1160.17
724.974	1053.68
725.161	1096.69
725.347	1184.75
725.534	1070.06
725.72	1068.02
725.907	1102.83
726.094	1082.35
726.28	1190.89
726.467	1055.73
726.653	1104.88
726.84	1082.35
727.027	1108.98
727.213	986.1
727.4	1051.63
727.586	1092.59
727.773	1098.74
727.959	1022.96
728.145	895.99
728.332	1061.87
728.518	1094.64
728.705	1029.1
728.891	1029.1
729.077	1020.91
729.264	1016.82
729.45	996.34
729.636	1039.34
729.823	1041.39
730.009	969.71
730.195	1002.48
730.382	934.9
730.568	1029.1
730.754	1002.48
730.94	1045.49
731.126	986.1
731.313	1108.98
731.499	1010.67
731.685	1004.53
731.871	1020.91
732.057	1045.49
732.243	920.56
732.429	918.51
732.615	908.27
732.801	965.62
732.987	949.23
733.173	938.99
733.359	879.6
733.545	914.42
733.731	898.03
733.917	922.61
734.103	979.95
734.289	914.42
734.475	910.32
734.661	945.14
734.847	932.85
735.033	943.09
735.219	906.23
735.404	971.76
735.59	818.16
735.776	857.07
735.962	969.71
736.148	979.95
736.333	924.66
736.519	904.18
736.705	906.23
736.89	814.07
737.076	928.75
737.262	885.75
737.447	869.36
737.633	889.84
737.819	842.74
738.004	809.97
738.19	812.02
738.375	875.51
738.561	904.18
738.747	797.68
738.932	855.03
739.118	982
739.303	814.07
739.489	846.84
739.674	877.55
739.859	816.12
740.045	840.69
740.23	846.84
740.416	850.93
740.601	795.64
740.786	814.07
740.972	791.54
741.157	754.68
741.342	875.51
741.528	795.64
741.713	812.02
741.898	777.2
742.084	832.5
742.269	697.33
742.454	846.84
742.639	816.12
742.824	781.3
743.01	764.92
743.195	803.83
743.38	795.64
743.565	787.44
743.75	791.54
743.935	756.72
744.12	832.5
744.305	769.01
744.49	756.72
744.675	664.57
744.86	646.13
745.045	705.53
745.23	656.37
745.415	717.81
745.6	658.42
745.785	680.95
745.97	781.3
746.155	803.83
746.34	664.57
746.525	615.41
746.71	695.29
746.895	652.28
747.079	666.61
747.264	664.57
747.449	652.28
747.634	750.58
747.819	664.57
748.003	771.06
748.188	652.28
748.373	715.77
748.557	588.79
748.742	615.41
748.927	611.32
749.111	660.47
749.296	629.75
749.481	621.56
749.665	637.94
749.85	545.78
750.034	603.13
750.219	695.29
750.404	687.09
750.588	582.65
750.773	537.59
750.957	517.11
751.141	607.22
751.326	621.56
751.51	519.16
751.695	642.04
751.879	576.5
752.064	551.93
752.248	582.65
752.432	609.27
752.617	621.56
752.801	488.44
752.985	621.56
753.17	592.89
753.354	558.07
753.538	603.13
753.722	566.26
753.907	562.17
754.091	496.63
754.275	551.93
754.459	537.59
754.643	539.64
754.828	461.82
755.012	492.54
755.196	510.97
755.38	543.74
755.564	521.21
755.748	504.82
755.932	613.37
756.116	564.22
756.3	601.08
756.484	517.11
756.668	476.15
756.852	496.63
757.036	537.59
757.22	474.1
757.404	470.01
757.588	529.4
757.772	496.63
757.956	453.63
758.14	531.45
758.323	437.24
758.507	470.01
758.691	461.82
758.875	500.73
759.059	498.68
759.242	412.67
759.426	445.43
759.61	406.52
759.794	502.78
759.977	437.24
760.161	541.69
760.345	449.53
760.528	504.82
760.712	455.67
760.895	517.11
761.079	424.95
761.263	482.3
761.446	461.82
761.63	449.53
761.813	418.81
761.997	400.38
762.18	498.68
762.364	486.39
762.547	388.09
762.731	461.82
762.914	408.57
763.098	461.82
763.281	328.7
763.464	435.19
763.648	394.23
763.831	394.23
764.015	443.39
764.198	412.67
764.381	386.04
764.564	388.09
764.748	396.28
764.931	377.85
765.114	396.28
765.297	386.04
765.481	406.52
765.664	381.95
765.847	334.84
766.03	392.19
766.213	408.57
766.397	388.09
766.58	365.56
766.763	443.39
766.946	375.8
767.129	431.1
767.312	365.56
767.495	318.46
767.678	359.42
767.861	371.71
768.044	357.37
768.227	402.43
768.41	375.8
768.593	355.32
768.776	367.61
768.959	363.51
769.142	529.4
769.324	371.71
769.507	379.9
769.69	359.42
769.873	400.38
770.056	402.43
770.239	302.08
770.421	398.33
770.604	279.55
770.787	379.9
770.97	332.79
771.152	338.94
771.335	322.56
771.518	297.98
771.7	373.75
771.883	271.36
772.066	367.61
772.248	324.6
772.431	297.98
772.613	369.66
772.796	390.14
772.978	271.36
773.161	330.75
773.343	332.79
773.526	396.28
773.708	359.42
773.891	281.6
774.073	357.37
774.256	259.07
774.438	320.51
774.621	367.61
774.803	265.21
774.985	386.04
775.168	306.17
775.35	283.64
775.532	279.55
775.715	259.07
775.897	254.97
776.079	293.88
776.261	396.28
776.444	318.46
776.626	248.83
776.808	281.6
776.99	283.64
777.173	230.4
777.355	302.08
777.537	257.02
777.719	257.02
777.901	297.98
778.083	285.69
778.265	277.5
778.447	259.07
778.629	234.49
778.811	314.36
778.993	302.08
779.175	265.21
779.357	271.36
779.539	250.88
779.721	214.01
779.903	265.21
780.085	238.59
780.267	312.32
780.449	259.07
780.631	279.55
780.812	297.98
780.994	269.31
781.176	185.34
781.358	283.64
781.54	275.45
781.721	310.27
781.903	146.43
782.085	218.11
782.267	300.03
782.448	224.25
782.63	267.26
782.812	306.17
782.993	207.87
783.175	267.26
783.357	242.68
783.538	189.44
783.72	216.06
783.901	203.77
784.083	234.49
784.264	220.16
784.446	189.44
784.627	226.3
784.809	277.5
784.99	193.53
785.172	252.92
785.353	220.16
785.535	236.54
785.716	191.49
785.897	207.87
786.079	191.49
786.26	222.2
786.441	228.35
786.623	207.87
786.804	234.49
786.985	207.87
787.167	250.88
787.348	220.16
787.529	183.29
787.71	199.68
787.891	183.29
788.073	103.42
788.254	183.29
788.435	275.45
788.616	222.2
788.797	152.57
788.978	152.57
789.159	193.53
789.34	185.34
789.522	205.82
789.703	222.2
789.884	160.77
790.065	171.01
790.246	205.82
790.427	193.53
790.607	154.62
790.788	201.72
790.969	144.38
791.15	181.25
791.331	134.14
791.512	203.77
791.693	187.39
791.874	156.67
792.054	207.87
792.235	216.06
792.416	146.43
792.597	148.48
792.778	193.53
792.958	132.09
793.139	199.68
793.32	216.06
793.5	93.18
793.681	99.33
793.862	209.92
794.042	171.01
794.223	179.2
794.404	179.2
794.584	130.05
794.765	207.87
794.945	117.76
795.126	185.34
795.306	162.81
795.487	134.14
795.667	187.39
795.848	87.04
796.028	166.91
796.209	201.72
796.389	76.8
796.57	93.18
796.75	101.37
796.93	162.81
797.111	179.2
797.291	140.29
797.471	173.05
797.652	134.14
797.832	80.89
798.012	199.68
798.192	113.66
798.373	134.14
798.553	128
798.733	150.53
798.913	197.63
799.093	183.29
799.274	107.52
799.454	199.68
799.634	142.33
799.814	99.33
799.994	152.57
800.174	138.24
800.354	60.42
800.534	152.57
800.714	99.33
800.894	119.81
801.074	3.07
801.254	187.39
801.434	168.96
801.614	74.75
801.794	68.61
801.974	404.47
802.154	37.89
802.334	183.29
802.514	70.65
802.693	113.66
802.873	128
803.053	119.81
803.233	160.77
803.413	39.94
803.592	138.24
803.772	109.57
803.952	101.37
804.131	84.99
804.311	103.42
804.491	148.48
804.67	68.61
804.85	-1.02
805.03	128
805.209	125.95
805.389	103.42
805.568	93.18
805.748	76.8
805.928	166.91
806.107	23.55
806.287	66.56
806.466	148.48
806.646	130.05
806.825	84.99
807.004	117.76
807.184	68.61
807.363	130.05
807.543	132.09
807.722	80.89
807.901	107.52
808.081	99.33
808.26	105.47
808.439	158.72
808.619	72.7
808.798	97.28
808.977	113.66
809.156	31.74
809.336	152.57
809.515	78.85
809.694	103.42
809.873	48.13
810.052	76.8
810.231	183.29
810.411	78.85
810.59	103.42
810.769	62.46
810.948	109.57
811.127	123.9
811.306	76.8
811.485	84.99
811.664	89.09
811.843	19.46
812.022	58.37
812.201	70.65
812.38	35.84
812.559	72.7
812.737	134.14
812.916	84.99
813.095	54.27
813.274	72.7
813.453	60.42
813.632	39.94
813.811	113.66
813.989	109.57
814.168	62.46
814.347	35.84
814.526	117.76
814.704	113.66
814.883	107.52
815.062	56.32
815.24	-25.6
815.419	95.23
815.598	103.42
815.776	76.8
815.955	37.89
816.133	33.79
816.312	128
816.49	87.04
816.669	52.22
816.847	117.76
817.026	82.94
817.204	46.08
817.383	70.65
817.561	101.37
817.74	62.46
817.918	62.46
818.097	109.57
818.275	109.57
818.453	62.46
818.632	76.8
818.81	62.46
818.988	64.51
819.167	107.52
819.345	46.08
819.523	97.28
819.701	103.42
819.879	93.18
820.058	41.98
820.236	82.94
820.414	54.27
820.592	78.85
820.77	37.89
820.948	68.61
821.127	78.85
821.305	109.57
821.483	62.46
821.661	3.07
821.839	46.08
822.017	84.99
822.195	60.42
822.373	64.51
822.551	74.75
822.729	95.23
822.907	21.5
823.085	64.51
823.262	52.22
823.44	46.08
823.618	76.8
823.796	37.89
823.974	9.22
824.152	62.46
824.329	54.27
824.507	115.71
824.685	111.61
824.863	56.32
825.04	27.65
825.218	64.51
825.396	-5.12
825.574	80.89
825.751	64.51
825.929	44.03
826.107	27.65
826.284	-21.5
826.462	7.17
826.639	80.89
826.817	58.37
826.994	76.8
827.172	66.56
827.349	74.75
827.527	11.26
827.704	37.89
827.882	80.89
828.059	125.95
828.237	105.47
828.414	95.23
828.591	87.04
828.769	46.08
828.946	160.77
829.124	82.94
829.301	101.37
829.478	-1.02
829.655	5.12
829.833	46.08
830.01	39.94
830.187	70.65
830.364	62.46
830.542	29.7
830.719	56.32
830.896	68.61
831.073	41.98
831.25	7.17
831.427	13.31
831.604	101.37
831.782	19.46
831.959	101.37
832.136	82.94
832.313	87.04
832.49	29.7
832.667	56.32
832.844	60.42
833.021	41.98
833.198	19.46
833.374	27.65
833.551	76.8
833.728	37.89
833.905	99.33
834.082	-19.46
834.259	66.56
834.436	31.74
834.612	7.17
834.789	68.61
834.966	-5.12
835.143	33.79
835.319	82.94
835.496	97.28
835.673	78.85
835.85	68.61
836.026	144.38
836.203	62.46
836.38	64.51
836.556	68.61
836.733	13.31
836.909	82.94
837.086	62.46
837.262	93.18
837.439	33.79
837.616	25.6
837.792	9.22
837.968	19.46
838.145	21.5
838.321	35.84
838.498	5.12
838.674	54.27
838.851	25.6
839.027	89.09
839.203	68.61
839.38	82.94
839.556	91.13
839.732	89.09
839.909	37.89
840.085	72.7
840.261	13.31
840.437	72.7
840.614	44.03
840.79	-27.65
840.966	25.6
841.142	80.89
841.318	29.7
841.494	19.46
841.671	9.22
841.847	15.36
842.023	50.18
842.199	78.85
842.375	31.74
842.551	132.09
842.727	62.46
842.903	44.03
843.079	66.56
843.255	46.08
843.431	19.46
843.607	125.95
843.783	-3.07
843.959	142.33
844.134	48.13
844.31	9.22
844.486	84.99
844.662	52.22
844.838	68.61
845.013	9.22
845.189	7.17
845.365	105.47
845.541	-13.31
845.716	60.42
845.892	1.02
846.068	-9.22
846.244	13.31
846.419	21.5
846.595	82.94
846.77	80.89
846.946	41.98
847.122	15.36
847.297	101.37
847.473	46.08
847.648	29.7
847.824	-11.26
847.999	-62.46
848.175	21.5
848.35	-11.26
848.526	80.89
848.701	44.03
848.876	41.98
849.052	37.89
849.227	105.47
849.403	21.5
849.578	21.5
849.753	60.42
849.929	72.7
850.104	64.51
850.279	52.22
850.454	84.99
850.63	91.13
850.805	39.94
850.98	105.47
851.155	-5.12
851.33	72.7
851.505	27.65
851.681	19.46
851.856	52.22
852.031	21.5
852.206	1.02
852.381	-44.03
852.556	13.31
852.731	19.46
852.906	68.61
853.081	35.84
853.256	82.94
853.431	35.84
853.606	39.94
853.781	21.5
853.956	-21.5
854.131	31.74
854.305	-5.12
854.48	-13.31
854.655	89.09
854.83	5.12
855.005	3.07
855.18	105.47
855.354	-5.12
855.529	-1.02
855.704	52.22
855.879	29.7
856.053	5.12
856.228	44.03
856.403	48.13
856.577	72.7
856.752	-29.7
856.926	41.98
857.101	33.79
857.276	39.94
857.45	84.99
857.625	70.65
857.799	54.27
857.974	111.61
858.148	-9.22
858.323	-3.07
858.497	-3.07
858.672	31.74
858.846	-46.08
859.02	80.89
859.195	52.22
859.369	19.46
859.543	54.27
859.718	101.37
859.892	-13.31
860.066	41.98
860.241	1.02
860.415	3.07
860.589	56.32
860.763	56.32
860.938	21.5
861.112	41.98
861.286	19.46
861.46	44.03
861.634	-7.17
861.808	44.03
861.982	-3.07
862.157	-3.07
862.331	35.84
862.505	23.55
862.679	48.13
862.853	7.17
863.027	1.02
863.201	35.84
863.375	5.12
863.549	46.08
863.722	76.8
863.896	72.7
864.07	-13.31
864.244	29.7
864.418	35.84
864.592	37.89
864.766	37.89
864.939	13.31
865.113	-25.6
865.287	-1.02
865.461	13.31
865.634	41.98
865.808	64.51
865.982	121.85
866.156	27.65
866.329	21.5
866.503	5.12
866.676	27.65
866.85	23.55
867.024	19.46
867.197	56.32
867.371	-23.55
867.544	-33.79
867.718	74.75
867.891	19.46
868.065	56.32
868.238	-82.94
868.412	27.65
868.585	-33.79
868.759	-37.89
868.932	-3.07
869.105	48.13
869.279	15.36
869.452	35.84
869.625	-15.36
869.799	17.41
869.972	-7.17
870.145	54.27
870.319	15.36
870.492	54.27
870.665	-21.5
870.838	33.79
871.011	78.85
871.185	50.18
871.358	17.41
871.531	54.27
871.704	-46.08
871.877	70.65
872.05	-17.41
872.223	56.32
872.396	33.79
872.569	76.8
872.742	58.37
872.915	-3.07
873.088	-11.26
873.261	58.37
873.434	17.41
873.607	105.47
873.78	7.17
873.953	1.02
874.126	19.46
874.299	62.46
874.471	62.46
874.644	-60.42
874.817	82.94
874.99	58.37
875.163	48.13
875.335	11.26
875.508	17.41
875.681	25.6
875.853	19.46
876.026	15.36
876.199	44.03
876.371	48.13
876.544	62.46
876.717	21.5
876.889	113.66
877.062	-97.28
877.234	37.89
877.407	80.89
877.579	41.98
877.752	54.27
877.924	-25.6
878.097	44.03
878.269	-33.79
878.442	-3.07
878.614	50.18
878.786	95.23
878.959	27.65
879.131	-15.36
879.303	27.65
879.476	-25.6
879.648	37.89
879.82	80.89
879.993	11.26
880.165	-11.26
880.337	5.12
880.509	-9.22
880.681	31.74
880.854	-13.31
881.026	23.55
881.198	46.08
881.37	7.17
881.542	23.55
881.714	31.74
881.886	37.89
882.058	-25.6
882.23	3.07
882.402	11.26
882.574	138.24
882.746	41.98
882.918	84.99
883.09	9.22
883.262	62.46
883.434	37.89
883.606	-46.08
883.778	19.46
883.95	152.57
884.122	37.89
884.293	-13.31
884.465	41.98
884.637	70.65
884.809	-19.46
884.98	58.37
885.152	-3.07
885.324	-5.12
885.496	74.75
885.667	23.55
885.839	66.56
886.011	121.85
886.182	5.12
886.354	9.22
886.525	29.7
886.697	3.07
886.869	-5.12
887.04	-7.17
887.212	13.31
887.383	37.89
887.555	44.03
887.726	25.6
887.897	-5.12
888.069	35.84
888.24	-19.46
888.412	-23.55
888.583	1.02
888.754	87.04
888.926	-23.55
889.097	56.32
889.268	5.12
889.44	19.46
889.611	-3.07
889.782	-11.26
889.953	17.41
890.125	-3.07
890.296	-13.31
890.467	37.89
890.638	25.6
890.809	66.56
890.98	-15.36
891.151	-46.08
891.323	-5.12
891.494	46.08
891.665	50.18
891.836	58.37
892.007	-13.31
892.178	39.94
892.349	62.46
892.52	-21.5
892.691	66.56
892.862	-11.26
893.032	44.03
893.203	37.89
893.374	-91.13
893.545	3.07
893.716	9.22
893.887	82.94
894.057	25.6
894.228	-29.7
894.399	-21.5
894.57	-13.31
894.74	-9.22
894.911	-13.31
895.082	60.42
895.253	33.79
895.423	11.26
895.594	60.42
895.764	37.89
895.935	107.52
896.106	19.46
896.276	7.17
896.447	-17.41
896.617	41.98
896.788	17.41
896.958	-54.27
897.129	11.26
897.299	74.75
897.47	-29.7
897.64	11.26
897.81	29.7
897.981	37.89
898.151	66.56
898.322	5.12
898.492	50.18
898.662	58.37
898.832	11.26
899.003	-9.22
899.173	-3.07
899.343	39.94
899.513	11.26
