Data from USB4F104151__92__13-54-32-290.txt Node

Date: Thu Mar 13 13:54:32 EDT 2025
User: louis
Spectrometer: USB4F10415
Trigger mode: 4
Integration Time (sec): 1.000000E-2
Scans to average: 1
Electric dark correction enabled: true
Nonlinearity correction enabled: false
Boxcar width: 0
XAxis mode: Wavelengths
Number of Pixels in Spectrum: 3648
>>>>>Begin Spectral Data<<<<<
178.204	-81.58
178.424	-81.58
178.644	-81.58
178.864	24.92
179.084	-22.19
179.304	-3.75
179.524	10.58
179.744	65.88
179.964	29.01
180.184	-20.14
180.404	-26.28
180.624	-46.76
180.844	14.68
181.064	0.34
181.283	-52.91
181.503	14.68
181.723	14.68
181.943	-7.85
182.163	2.39
182.383	82.26
182.602	-26.28
182.822	98.64
183.042	49.49
183.262	65.88
183.482	31.06
183.701	-32.43
183.921	-44.71
184.141	-48.81
184.361	-7.85
184.58	78.16
184.8	20.82
185.02	16.73
185.239	51.54
185.459	61.78
185.679	29.01
185.898	6.49
186.118	22.87
186.338	20.82
186.557	115.03
186.777	55.64
186.997	100.69
187.216	57.68
187.436	-18.09
187.655	-46.76
187.875	6.49
188.095	-16.04
188.314	22.87
188.534	8.53
188.753	-9.9
188.973	6.49
189.192	4.44
189.412	31.06
189.631	61.78
189.851	16.73
190.07	-16.04
190.29	55.64
190.509	26.96
190.729	80.21
190.948	65.88
191.168	-75.43
191.387	33.11
191.607	49.49
191.826	43.35
192.045	47.44
192.265	24.92
192.484	26.96
192.704	63.83
192.923	0.34
193.142	57.68
193.362	20.82
193.581	51.54
193.8	31.06
194.02	45.4
194.239	14.68
194.458	100.69
194.678	2.39
194.897	-7.85
195.116	26.96
195.335	67.92
195.555	86.36
195.774	-13.99
195.993	18.77
196.212	16.73
196.432	-28.33
196.651	49.49
196.87	43.35
197.089	47.44
197.308	-28.33
197.528	69.97
197.747	14.68
197.966	35.16
198.185	-36.52
198.404	0.34
198.623	18.77
198.842	-24.23
199.062	55.64
199.281	4.44
199.5	-1.71
199.719	57.68
199.938	43.35
200.157	84.31
200.376	-32.43
200.595	47.44
200.814	45.4
201.033	94.55
201.252	-9.9
201.471	82.26
201.69	39.25
201.909	29.01
202.128	16.73
202.347	8.53
202.566	22.87
202.785	61.78
203.004	20.82
203.223	41.3
203.442	41.3
203.661	67.92
203.879	49.49
204.098	69.97
204.317	-22.19
204.536	2.39
204.755	98.64
204.974	18.77
205.193	-18.09
205.411	51.54
205.63	57.68
205.849	20.82
206.068	31.06
206.287	45.4
206.505	-7.85
206.724	55.64
206.943	4.44
207.162	74.07
207.381	26.96
207.599	12.63
207.818	16.73
208.037	80.21
208.255	33.11
208.474	0.34
208.693	43.35
208.911	24.92
209.13	41.3
209.349	18.77
209.567	49.49
209.786	0.34
210.005	8.53
210.223	55.64
210.442	-26.28
210.661	-46.76
210.879	31.06
211.098	49.49
211.316	-1.71
211.535	41.3
211.753	-42.67
211.972	14.68
212.191	45.4
212.409	55.64
212.628	20.82
212.846	-5.8
213.065	31.06
213.283	-7.85
213.502	61.78
213.72	47.44
213.938	12.63
214.157	22.87
214.375	6.49
214.594	39.25
214.812	-7.85
215.031	-63.15
215.249	-13.99
215.467	43.35
215.686	-24.23
215.904	20.82
216.122	39.25
216.341	0.34
216.559	26.96
216.778	8.53
216.996	2.39
217.214	55.64
217.432	127.32
217.651	-3.75
217.869	65.88
218.087	49.49
218.306	49.49
218.524	37.2
218.742	26.96
218.96	57.68
219.179	29.01
219.397	84.31
219.615	6.49
219.833	37.2
220.051	37.2
220.27	31.06
220.488	-20.14
220.706	98.64
220.924	80.21
221.142	26.96
221.36	8.53
221.578	16.73
221.796	31.06
222.015	131.41
222.233	45.4
222.451	84.31
222.669	49.49
222.887	39.25
223.105	4.44
223.323	-24.23
223.541	57.68
223.759	59.73
223.977	18.77
224.195	53.59
224.413	14.68
224.631	8.53
224.849	67.92
225.067	53.59
225.285	65.88
225.503	-18.09
225.721	12.63
225.939	49.49
226.157	45.4
226.375	67.92
226.592	45.4
226.81	121.17
227.028	4.44
227.246	4.44
227.464	8.53
227.682	0.34
227.9	76.12
228.117	41.3
228.335	67.92
228.553	-1.71
228.771	-5.8
228.989	20.82
229.206	12.63
229.424	80.21
229.642	20.82
229.86	-24.23
230.077	10.58
230.295	41.3
230.513	67.92
230.731	-18.09
230.948	35.16
231.166	67.92
231.384	-3.75
231.601	0.34
231.819	90.45
232.037	35.16
232.254	31.06
232.472	24.92
232.689	43.35
232.907	12.63
233.125	29.01
233.342	-13.99
233.56	4.44
233.777	72.02
233.995	10.58
234.213	39.25
234.43	72.02
234.648	33.11
234.865	41.3
235.083	33.11
235.3	29.01
235.518	16.73
235.735	-11.95
235.953	26.96
236.17	98.64
236.388	63.83
236.605	-5.8
236.822	-7.85
237.04	74.07
237.257	35.16
237.475	-11.95
237.692	6.49
237.909	-42.67
238.127	18.77
238.344	-20.14
238.562	-20.14
238.779	-3.75
238.996	-67.24
239.214	78.16
239.431	88.4
239.648	67.92
239.865	8.53
240.083	14.68
240.3	18.77
240.517	16.73
240.735	41.3
240.952	26.96
241.169	43.35
241.386	98.64
241.603	55.64
241.821	8.53
242.038	45.4
242.255	18.77
242.472	29.01
242.689	59.73
242.907	49.49
243.124	14.68
243.341	29.01
243.558	41.3
243.775	43.35
243.992	45.4
244.209	20.82
244.426	37.2
244.643	51.54
244.86	-40.62
245.078	43.35
245.295	82.26
245.512	-9.9
245.729	-9.9
245.946	55.64
246.163	67.92
246.38	53.59
246.597	33.11
246.814	106.84
247.031	82.26
247.248	22.87
247.464	76.12
247.681	49.49
247.898	33.11
248.115	65.88
248.332	29.01
248.549	88.4
248.766	18.77
248.983	24.92
249.2	6.49
249.417	33.11
249.633	37.2
249.85	10.58
250.067	-32.43
250.284	74.07
250.501	24.92
250.717	-30.38
250.934	29.01
251.151	6.49
251.368	47.44
251.585	57.68
251.801	2.39
252.018	41.3
252.235	69.97
252.451	-5.8
252.668	69.97
252.885	69.97
253.102	67.92
253.318	98.64
253.535	14.68
253.752	39.25
253.968	76.12
254.185	24.92
254.401	65.88
254.618	39.25
254.835	98.64
255.051	33.11
255.268	37.2
255.484	10.58
255.701	-3.75
255.917	41.3
256.134	-34.47
256.351	39.25
256.567	72.02
256.784	39.25
257	8.53
257.217	8.53
257.433	35.16
257.65	-22.19
257.866	90.45
258.082	-5.8
258.299	16.73
258.515	43.35
258.732	22.87
258.948	20.82
259.165	10.58
259.381	67.92
259.597	76.12
259.814	20.82
260.03	16.73
260.246	8.53
260.463	-1.71
260.679	22.87
260.895	10.58
261.112	31.06
261.328	-1.71
261.544	47.44
261.761	67.92
261.977	86.36
262.193	-24.23
262.409	16.73
262.626	45.4
262.842	18.77
263.058	45.4
263.274	-9.9
263.49	18.77
263.707	69.97
263.923	-61.1
264.139	37.2
264.355	31.06
264.571	6.49
264.787	-44.71
265.004	94.55
265.22	-48.81
265.436	22.87
265.652	-11.95
265.868	26.96
266.084	84.31
266.3	35.16
266.516	18.77
266.732	72.02
266.948	8.53
267.164	20.82
267.38	29.01
267.596	-11.95
267.812	10.58
268.028	-24.23
268.244	-57
268.46	14.68
268.676	29.01
268.892	47.44
269.108	35.16
269.324	31.06
269.54	45.4
269.756	112.98
269.972	-5.8
270.188	33.11
270.403	110.93
270.619	53.59
270.835	-50.86
271.051	57.68
271.267	82.26
271.483	4.44
271.698	43.35
271.914	51.54
272.13	53.59
272.346	24.92
272.562	67.92
272.777	47.44
272.993	10.58
273.209	41.3
273.425	33.11
273.64	49.49
273.856	59.73
274.072	98.64
274.287	16.73
274.503	37.2
274.719	35.16
274.934	-63.15
275.15	24.92
275.366	43.35
275.581	14.68
275.797	63.83
276.012	-18.09
276.228	76.12
276.444	-18.09
276.659	-11.95
276.875	-52.91
277.09	47.44
277.306	35.16
277.521	20.82
277.737	31.06
277.952	51.54
278.168	63.83
278.383	63.83
278.599	88.4
278.814	14.68
279.03	-5.8
279.245	35.16
279.461	41.3
279.676	12.63
279.892	29.01
280.107	14.68
280.322	37.2
280.538	-16.04
280.753	16.73
280.969	-1.71
281.184	59.73
281.399	-9.9
281.615	82.26
281.83	63.83
282.045	37.2
282.26	22.87
282.476	-22.19
282.691	76.12
282.906	-13.99
283.122	35.16
283.337	-79.53
283.552	45.4
283.767	59.73
283.983	92.5
284.198	51.54
284.413	20.82
284.628	24.92
284.843	35.16
285.058	74.07
285.274	86.36
285.489	33.11
285.704	8.53
285.919	43.35
286.134	18.77
286.349	35.16
286.564	39.25
286.779	24.92
286.995	-11.95
287.21	100.69
287.425	67.92
287.64	-24.23
287.855	0.34
288.07	31.06
288.285	39.25
288.5	26.96
288.715	26.96
288.93	49.49
289.145	0.34
289.36	72.02
289.575	4.44
289.79	61.78
290.004	92.5
290.219	18.77
290.434	-26.28
290.649	65.88
290.864	18.77
291.079	51.54
291.294	22.87
291.509	96.6
291.724	63.83
291.938	12.63
292.153	117.08
292.368	78.16
292.583	55.64
292.798	18.77
293.012	4.44
293.227	-7.85
293.442	12.63
293.657	14.68
293.871	0.34
294.086	0.34
294.301	51.54
294.516	94.55
294.73	31.06
294.945	16.73
295.16	78.16
295.374	-32.43
295.589	33.11
295.804	63.83
296.018	26.96
296.233	-13.99
296.447	24.92
296.662	90.45
296.877	18.77
297.091	104.79
297.306	26.96
297.52	55.64
297.735	39.25
297.949	47.44
298.164	86.36
298.378	20.82
298.593	20.82
298.807	110.93
299.022	59.73
299.236	41.3
299.451	24.92
299.665	26.96
299.88	37.2
300.094	78.16
300.309	55.64
300.523	67.92
300.737	59.73
300.952	31.06
301.166	-11.95
301.381	-22.19
301.595	57.68
301.809	-3.75
302.024	24.92
302.238	26.96
302.452	14.68
302.667	47.44
302.881	33.11
303.095	8.53
303.309	31.06
303.524	51.54
303.738	35.16
303.952	47.44
304.166	47.44
304.381	41.3
304.595	22.87
304.809	-13.99
305.023	-13.99
305.237	110.93
305.452	-16.04
305.666	59.73
305.88	55.64
306.094	2.39
306.308	-7.85
306.522	20.82
306.736	29.01
306.95	35.16
307.164	22.87
307.379	43.35
307.593	59.73
307.807	41.3
308.021	35.16
308.235	90.45
308.449	14.68
308.663	33.11
308.877	14.68
309.091	39.25
309.305	82.26
309.519	-3.75
309.733	63.83
309.947	12.63
310.161	47.44
310.374	106.84
310.588	39.25
310.802	51.54
311.016	39.25
311.23	90.45
311.444	22.87
311.658	-18.09
311.872	125.27
312.085	10.58
312.299	102.74
312.513	90.45
312.727	-44.71
312.941	92.5
313.154	47.44
313.368	4.44
313.582	8.53
313.796	69.97
314.009	65.88
314.223	98.64
314.437	29.01
314.651	53.59
314.864	41.3
315.078	65.88
315.292	43.35
315.505	6.49
315.719	-9.9
315.933	35.16
316.146	67.92
316.36	45.4
316.573	63.83
316.787	72.02
317.001	24.92
317.214	0.34
317.428	8.53
317.641	2.39
317.855	67.92
318.068	10.58
318.282	108.88
318.495	14.68
318.709	37.2
318.922	31.06
319.136	96.6
319.349	8.53
319.563	18.77
319.776	51.54
319.99	119.12
320.203	45.4
320.417	53.59
320.63	33.11
320.843	10.58
321.057	26.96
321.27	82.26
321.483	74.07
321.697	43.35
321.91	47.44
322.124	37.2
322.337	112.98
322.55	49.49
322.763	4.44
322.977	110.93
323.19	-24.23
323.403	-9.9
323.617	20.82
323.83	29.01
324.043	-3.75
324.256	-22.19
324.469	35.16
324.683	78.16
324.896	-5.8
325.109	-16.04
325.322	10.58
325.535	74.07
325.748	14.68
325.962	31.06
326.175	16.73
326.388	14.68
326.601	102.74
326.814	41.3
327.027	8.53
327.24	115.03
327.453	20.82
327.666	104.79
327.879	-40.62
328.092	67.92
328.305	45.4
328.518	53.59
328.731	24.92
328.944	53.59
329.157	35.16
329.37	33.11
329.583	59.73
329.796	69.97
330.009	110.93
330.222	37.2
330.435	24.92
330.648	41.3
330.861	4.44
331.073	57.68
331.286	84.31
331.499	0.34
331.712	61.78
331.925	39.25
332.138	-5.8
332.35	49.49
332.563	8.53
332.776	37.2
332.989	43.35
333.202	-13.99
333.414	72.02
333.627	96.6
333.84	-18.09
334.053	39.25
334.265	6.49
334.478	-16.04
334.691	-20.14
334.903	29.01
335.116	-30.38
335.329	82.26
335.541	92.5
335.754	92.5
335.966	6.49
336.179	35.16
336.392	-13.99
336.604	45.4
336.817	37.2
337.029	78.16
337.242	37.2
337.454	55.64
337.667	33.11
337.88	37.2
338.092	49.49
338.305	6.49
338.517	-24.23
338.729	59.73
338.942	49.49
339.154	29.01
339.367	-13.99
339.579	39.25
339.792	37.2
340.004	4.44
340.217	43.35
340.429	72.02
340.641	57.68
340.854	31.06
341.066	61.78
341.278	90.45
341.491	72.02
341.703	33.11
341.915	61.78
342.128	33.11
342.34	67.92
342.552	18.77
342.764	0.34
342.977	49.49
343.189	12.63
343.401	59.73
343.613	-24.23
343.826	-48.81
344.038	24.92
344.25	35.16
344.462	49.49
344.674	82.26
344.886	24.92
345.099	59.73
345.311	72.02
345.523	49.49
345.735	74.07
345.947	59.73
346.159	88.4
346.371	74.07
346.583	43.35
346.795	24.92
347.007	57.68
347.219	-16.04
347.431	8.53
347.643	41.3
347.855	0.34
348.067	94.55
348.279	31.06
348.491	39.25
348.703	41.3
348.915	6.49
349.127	82.26
349.339	24.92
349.551	14.68
349.763	112.98
349.975	-100.01
350.187	74.07
350.399	6.49
350.61	26.96
350.822	55.64
351.034	57.68
351.246	90.45
351.458	37.2
351.669	-5.8
351.881	84.31
352.093	92.5
352.305	41.3
352.517	67.92
352.728	33.11
352.94	47.44
353.152	-7.85
353.363	41.3
353.575	24.92
353.787	10.58
353.999	35.16
354.21	20.82
354.422	-32.43
354.633	45.4
354.845	22.87
355.057	-5.8
355.268	72.02
355.48	78.16
355.692	49.49
355.903	2.39
356.115	92.5
356.326	47.44
356.538	37.2
356.749	-24.23
356.961	22.87
357.172	59.73
357.384	8.53
357.595	100.69
357.807	31.06
358.018	59.73
358.23	47.44
358.441	24.92
358.653	92.5
358.864	39.25
359.075	49.49
359.287	61.78
359.498	51.54
359.709	47.44
359.921	-42.67
360.132	35.16
360.344	45.4
360.555	80.21
360.766	33.11
360.977	78.16
361.189	94.55
361.4	29.01
361.611	104.79
361.823	37.2
362.034	63.83
362.245	55.64
362.456	49.49
362.667	26.96
362.879	18.77
363.09	47.44
363.301	51.54
363.512	51.54
363.723	37.2
363.935	59.73
364.146	-13.99
364.357	-44.71
364.568	37.2
364.779	22.87
364.99	24.92
365.201	-13.99
365.412	41.3
365.623	6.49
365.834	18.77
366.045	45.4
366.256	57.68
366.467	43.35
366.678	-26.28
366.889	-9.9
367.1	22.87
367.311	41.3
367.522	41.3
367.733	119.12
367.944	41.3
368.155	-28.33
368.366	92.5
368.577	47.44
368.788	121.17
368.999	119.12
369.209	-69.29
369.42	12.63
369.631	90.45
369.842	92.5
370.053	74.07
370.264	12.63
370.474	29.01
370.685	10.58
370.896	63.83
371.107	-5.8
371.317	49.49
371.528	45.4
371.739	57.68
371.95	35.16
372.16	47.44
372.371	41.3
372.582	16.73
372.792	69.97
373.003	53.59
373.214	125.27
373.424	115.03
373.635	20.82
373.846	41.3
374.056	63.83
374.267	35.16
374.477	31.06
374.688	51.54
374.898	45.4
375.109	-1.71
375.319	61.78
375.53	63.83
375.74	106.84
375.951	69.97
376.161	80.21
376.372	47.44
376.582	47.44
376.793	35.16
377.003	-7.85
377.214	59.73
377.424	96.6
377.635	69.97
377.845	59.73
378.055	37.2
378.266	55.64
378.476	-7.85
378.686	45.4
378.897	-5.8
379.107	47.44
379.317	0.34
379.528	-40.62
379.738	61.78
379.948	-9.9
380.158	108.88
380.369	33.11
380.579	-26.28
380.789	55.64
380.999	80.21
381.21	14.68
381.42	39.25
381.63	-9.9
381.84	96.6
382.05	59.73
382.261	69.97
382.471	80.21
382.681	24.92
382.891	-36.52
383.101	47.44
383.311	35.16
383.521	10.58
383.731	33.11
383.941	14.68
384.151	47.44
384.361	82.26
384.571	-28.33
384.781	51.54
384.991	106.84
385.201	74.07
385.411	26.96
385.621	76.12
385.831	6.49
386.041	63.83
386.251	24.92
386.461	22.87
386.671	123.22
386.881	47.44
387.091	31.06
387.301	45.4
387.511	74.07
387.72	98.64
387.93	94.55
388.14	24.92
388.35	33.11
388.56	55.64
388.769	35.16
388.979	31.06
389.189	41.3
389.399	108.88
389.609	88.4
389.818	29.01
390.028	53.59
390.238	6.49
390.447	41.3
390.657	53.59
390.867	31.06
391.076	74.07
391.286	74.07
391.496	20.82
391.705	37.2
391.915	74.07
392.125	22.87
392.334	104.79
392.544	51.54
392.753	127.32
392.963	74.07
393.172	51.54
393.382	69.97
393.591	53.59
393.801	67.92
394.01	76.12
394.22	55.64
394.429	49.49
394.639	69.97
394.848	26.96
395.058	18.77
395.267	18.77
395.477	67.92
395.686	29.01
395.895	94.55
396.105	53.59
396.314	43.35
396.524	74.07
396.733	33.11
396.942	72.02
397.152	26.96
397.361	59.73
397.57	39.25
397.78	80.21
397.989	98.64
398.198	39.25
398.407	29.01
398.617	65.88
398.826	33.11
399.035	47.44
399.244	12.63
399.453	55.64
399.663	84.31
399.872	82.26
400.081	51.54
400.29	96.6
400.499	67.92
400.708	22.87
400.917	35.16
401.127	39.25
401.336	22.87
401.545	84.31
401.754	55.64
401.963	57.68
402.172	51.54
402.381	123.22
402.59	37.2
402.799	98.64
403.008	100.69
403.217	35.16
403.426	80.21
403.635	37.2
403.844	100.69
404.053	131.41
404.262	43.35
404.471	102.74
404.68	55.64
404.888	82.26
405.097	80.21
405.306	133.46
405.515	57.68
405.724	63.83
405.933	112.98
406.142	145.75
406.35	129.36
406.559	84.31
406.768	139.6
406.977	98.64
407.185	112.98
407.394	141.65
407.603	141.65
407.812	69.97
408.02	155.99
408.229	90.45
408.438	86.36
408.646	55.64
408.855	141.65
409.064	160.08
409.272	112.98
409.481	115.03
409.69	123.22
409.898	162.13
410.107	160.08
410.315	205.14
410.524	139.6
410.733	98.64
410.941	149.84
411.15	176.47
411.358	147.8
411.567	112.98
411.775	178.51
411.984	260.43
412.192	151.89
412.401	201.04
412.609	231.76
412.818	325.97
413.026	237.91
413.234	260.43
413.443	274.77
413.651	274.77
413.86	260.43
414.068	325.97
414.276	260.43
414.485	317.78
414.693	305.49
414.901	276.82
415.11	411.98
415.318	313.68
415.526	319.82
415.734	354.64
415.943	414.03
416.151	395.6
416.359	385.36
416.567	416.08
416.776	373.07
416.984	416.08
417.192	432.46
417.4	489.81
417.608	530.77
417.817	543.05
418.025	446.8
418.233	532.81
418.441	504.14
418.649	498
418.857	600.4
419.065	622.92
419.273	645.45
419.481	584.01
419.689	678.22
419.897	729.42
420.105	633.16
420.313	653.64
420.521	686.41
420.729	768.33
420.937	760.14
421.145	721.23
421.353	831.82
421.561	887.11
421.769	958.79
421.977	938.31
422.185	956.74
422.393	1016.13
422.601	1059.14
422.809	1077.57
423.017	1050.95
423.224	1079.62
423.432	1136.96
423.64	1075.52
423.848	1292.61
424.056	1112.39
424.263	1286.47
424.471	1268.03
424.679	1304.9
424.887	1331.52
425.094	1454.4
425.302	1454.4
425.51	1558.85
425.718	1466.69
425.925	1524.03
426.133	1532.22
426.341	1593.66
426.548	1782.07
426.756	1655.1
426.964	1730.87
427.171	1898.81
427.379	2046.26
427.586	1935.67
427.794	1970.49
428.001	2148.66
428.209	2183.48
428.417	2160.95
428.624	2332.98
428.832	2269.49
429.039	2373.94
429.247	2261.3
429.454	2545.97
429.662	2693.42
429.869	2500.91
430.076	2703.66
430.284	2584.88
430.491	2697.52
430.699	2883.88
430.906	2892.07
431.114	2924.84
431.321	3053.86
431.528	2892.07
431.736	3203.36
431.943	3471.65
432.15	3356.96
432.358	3338.53
432.565	3442.98
432.772	3541.28
432.979	3647.77
433.187	3834.14
433.394	3768.6
433.601	3993.88
433.808	4219.16
434.016	4004.12
434.223	3971.35
434.43	4454.67
434.637	4253.97
434.844	4464.91
435.052	4772.11
435.259	4702.48
435.466	4669.71
435.673	4823.31
435.88	4937.99
436.087	5286.15
436.294	5169.41
436.501	5181.7
436.708	5241.09
436.915	5325.06
437.122	5570.82
437.329	5579.01
437.537	5816.57
437.743	5914.88
437.95	5771.52
438.157	6215.93
438.364	6476.02
438.571	6347
438.778	6379.76
438.985	7026.92
439.192	6648.05
439.399	6840.56
439.606	6756.59
439.813	7198.95
440.02	7479.52
440.227	7401.7
440.433	7278.82
440.64	7520.48
440.847	7489.76
441.054	7618.79
441.261	8186.07
441.467	8067.29
441.674	8231.13
441.881	8640.72
442.088	8364.25
442.294	8628.43
442.501	8843.47
442.708	8999.12
442.914	9177.29
443.121	9652.42
443.328	9275.59
443.534	9969.85
443.741	9953.47
443.948	9760.96
444.154	10305.72
444.361	10199.23
444.568	10414.26
444.774	10248.38
444.981	10617.01
445.187	10870.96
445.394	11337.9
445.6	11219.11
445.807	11940
446.013	11714.72
446.22	11991.2
446.426	12325.02
446.633	12497.05
446.839	12761.23
447.046	12325.02
447.252	13058.19
447.459	12978.32
447.665	12644.5
447.871	13447.3
448.078	13944.96
448.284	13455.5
448.491	13590.66
448.697	14215.29
448.903	14250.11
449.11	14571.64
449.316	14360.7
449.522	14694.52
449.728	14790.77
449.935	15122.54
450.141	15188.08
450.347	15282.28
450.553	14880.88
450.76	15071.34
450.966	15396.97
451.172	15573.1
451.378	15784.04
451.584	15431.79
451.791	15794.28
451.997	15657.06
452.203	15999.07
452.409	16164.96
452.615	15804.52
452.821	15198.32
453.027	14825.59
453.233	15685.73
453.44	14909.55
453.646	15390.83
453.852	15536.23
454.058	15661.16
454.264	15087.73
454.47	15489.13
454.676	14989.42
454.882	15644.77
455.088	14131.33
455.294	14477.43
455.5	14538.87
455.705	14733.43
455.911	14051.45
456.117	13844.61
456.323	13637.77
456.529	12961.94
456.735	13365.39
456.941	13228.17
457.147	12914.83
457.352	12519.57
457.558	12451.99
457.764	12368.02
457.97	12085.4
458.176	11722.91
458.381	11821.22
458.587	10989.74
458.793	11559.08
458.999	10750.13
459.204	11571.36
459.41	11079.85
459.616	10426.55
459.821	10444.98
460.027	10442.93
460.233	10100.92
460.438	9650.37
460.644	9853.12
460.85	9466.05
461.055	9089.23
461.261	9064.65
461.466	8571.09
461.672	8237.27
461.878	8923.34
462.083	8362.2
462.289	8071.39
462.494	7981.28
462.7	7756
462.905	7512.29
463.111	7721.18
463.316	7725.28
463.522	7557.35
463.727	7717.09
463.932	7778.53
464.138	7686.37
464.343	7590.11
464.549	7385.32
464.754	7565.54
464.959	7641.31
465.165	7543.01
465.37	7114.98
465.575	6988.01
465.781	7434.47
465.986	7332.07
466.191	7184.62
466.397	7059.69
466.602	6598.9
466.807	6758.64
467.012	6881.52
467.218	6791.41
467.423	6865.13
467.628	6777.07
467.833	7112.94
468.038	6809.84
468.244	6871.28
468.449	6897.9
468.654	6727.92
468.859	6756.59
469.064	6447.35
469.269	6316.28
469.474	6340.85
469.679	6349.04
469.885	6134.01
470.09	6314.23
470.295	6314.23
470.5	6220.02
470.705	6138.1
470.91	6076.66
471.115	6289.65
471.32	6019.32
471.525	6033.66
471.73	5880.06
471.935	6029.56
472.139	5562.62
472.344	5923.07
472.549	5734.65
472.754	5613.82
472.959	5572.86
473.164	5386.5
473.369	5476.61
473.574	5548.29
473.778	5593.34
473.983	5476.61
474.188	5433.6
474.393	5308.68
474.598	5052.68
474.802	5193.99
475.007	5005.58
475.212	5232.9
475.417	5230.85
475.621	4923.66
475.826	4976.91
476.031	4725.01
476.235	4782.35
476.44	4927.75
476.645	4901.13
476.849	4759.82
477.054	4745.48
477.259	4684.05
477.463	4716.81
477.668	4575.5
477.872	4493.58
478.077	4546.83
478.282	4399.38
478.486	4348.18
478.691	4524.3
478.895	4176.15
479.1	4317.46
479.304	4411.67
479.509	4141.33
479.713	4247.83
479.918	4184.34
480.122	4059.42
480.326	4184.34
480.531	4198.68
480.735	4225.3
480.94	4145.43
481.144	4319.51
481.348	4008.22
481.553	4094.23
481.757	3950.87
481.961	3965.21
482.166	4153.62
482.37	3918.11
482.574	3897.63
482.778	3950.87
482.983	4079.9
483.187	3991.83
483.391	4036.89
483.595	4098.33
483.8	4100.37
484.004	3995.93
484.208	4075.8
484.412	4028.7
484.616	4090.13
484.821	4079.9
485.025	3963.16
485.229	4057.37
485.433	4098.33
485.637	4004.12
485.841	3866.91
486.045	3879.19
486.249	4020.5
486.453	3879.19
486.657	4100.37
486.861	4065.56
487.065	3936.54
487.269	4182.29
487.473	3995.93
487.677	4110.61
487.881	4176.15
488.085	3971.35
488.289	4008.22
488.493	4083.99
488.697	3997.98
488.901	4006.17
489.105	4063.51
489.309	3967.26
489.512	4079.9
489.716	4141.33
489.92	4112.66
490.124	4079.9
490.328	4008.22
490.531	4145.43
490.735	4030.74
490.939	4180.25
491.143	4200.73
491.346	4198.68
491.55	4229.4
491.754	4268.31
491.958	4237.59
492.161	4094.23
492.365	4276.5
492.569	4229.4
492.772	4260.12
492.976	4200.73
493.18	4313.36
493.383	4581.65
493.587	4358.42
493.79	4487.44
493.994	4413.71
494.197	4409.62
494.401	4573.46
494.605	4606.22
494.808	4632.85
495.012	4718.86
495.215	4638.99
495.419	4747.53
495.622	4622.61
495.825	4825.36
496.029	4866.32
496.232	4839.69
496.436	4997.39
496.639	5005.58
496.843	4929.8
497.046	5140.74
497.249	5128.46
497.453	5208.33
497.656	5134.6
497.859	5175.56
498.063	5243.14
498.266	5406.98
498.469	5447.94
498.673	5576.96
498.876	5548.29
499.079	5579.01
499.282	5699.84
499.485	5642.5
499.689	5763.33
499.892	5730.56
500.095	5994.75
500.298	6134.01
500.501	6027.51
500.705	6205.69
500.908	6201.59
501.111	6357.24
501.314	6129.91
501.517	6453.49
501.72	6519.03
501.923	6373.62
502.126	6783.21
502.329	6807.79
502.532	6736.11
502.735	6799.6
502.938	7004.39
503.141	7014.63
503.344	6936.81
503.547	7155.94
503.75	7186.66
503.953	7309.54
504.156	7471.33
504.359	7543.01
504.562	7551.2
504.765	7768.29
504.968	7688.42
505.17	7944.41
505.373	8044.76
505.576	8034.52
505.779	8284.37
505.982	8298.71
506.185	8431.83
506.387	8437.97
506.59	8628.43
506.793	8757.46
506.996	8804.56
507.198	8884.43
507.401	9021.64
507.604	9031.88
507.807	9218.25
508.009	9343.17
508.212	9396.42
508.415	9574.6
508.617	9728.19
508.82	9707.71
509.022	9849.02
509.225	9998.52
509.428	10129.59
509.63	10115.26
509.833	10117.31
510.035	10651.83
510.238	10574
510.44	10678.45
510.643	10768.56
510.845	11022.51
511.048	11016.37
511.25	11288.75
511.453	11444.39
511.655	11722.91
511.858	11567.27
512.06	11649.19
512.262	11989.15
512.465	11823.26
512.667	12060.83
512.87	12378.26
513.072	12398.74
513.274	12664.98
513.477	12806.29
513.679	12931.22
513.881	13222.03
514.084	13076.62
514.286	13244.56
514.488	13502.6
514.69	13961.34
514.893	14016.64
515.095	13932.67
515.297	14309.5
515.499	14207.1
515.701	14626.93
515.904	14620.79
516.106	14723.19
516.308	14798.96
516.51	14930.03
516.712	15290.48
516.914	15548.52
517.116	15663.21
517.318	15796.32
517.52	15900.77
517.722	15872.1
517.925	16261.21
518.127	16461.91
518.329	16660.57
518.531	16590.94
518.733	16906.32
518.935	17076.3
519.136	17231.95
519.338	17594.44
519.54	17721.41
519.742	17649.74
519.944	18026.56
520.146	18452.54
520.348	18321.47
520.55	18376.76
520.752	18577.47
520.954	18899
521.155	18542.65
521.357	19101.75
521.559	19576.87
521.761	19685.42
521.963	19767.34
522.164	19779.62
522.366	20125.73
522.568	19988.52
522.77	20357.15
522.971	20639.77
523.173	20512.8
523.375	20844.57
523.576	20895.77
523.778	21153.81
523.98	21110.8
524.181	21430.29
524.383	21530.64
524.584	21542.92
524.786	22147.08
524.988	21772.3
525.189	21932.04
525.391	22278.15
525.592	22372.35
525.794	22448.13
525.995	22482.94
526.197	22571
526.398	22499.33
526.6	22894.58
526.801	22796.28
527.003	22990.84
527.204	23152.63
527.406	23285.75
527.607	23214.07
527.808	23558.13
528.01	23263.22
528.211	23597.04
528.412	23881.7
528.614	23816.17
528.815	23795.69
529.016	24002.54
529.218	23726.06
529.419	23826.41
529.62	24076.26
529.822	24125.41
530.023	24393.7
530.224	24377.31
530.425	24184.8
530.626	24094.69
530.828	24031.21
531.029	24846.3
531.23	24508.38
531.431	24612.83
531.632	24510.43
531.833	24432.61
532.035	24748
532.236	24956.89
532.437	24993.75
532.638	24561.63
532.839	25038.81
533.04	24981.46
533.241	24567.77
533.442	25427.92
533.643	24881.11
533.844	25139.16
534.045	25169.88
534.246	24864.73
534.447	24963.03
534.648	24977.37
534.849	25335.76
535.05	24928.22
535.251	25438.16
535.451	25036.76
535.652	25372.63
535.853	25323.47
536.054	25489.36
536.255	25360.34
536.456	25092.05
536.657	25536.46
536.857	25391.06
537.058	25083.86
537.259	25450.45
537.46	25589.71
537.66	25403.35
537.861	25259.99
538.062	25325.52
538.263	25341.91
538.463	25192.4
538.664	25319.38
538.865	25409.49
539.065	25413.59
539.266	25386.96
539.466	25429.97
539.667	25202.64
539.868	25503.7
540.068	25286.61
540.269	25556.94
540.469	25550.8
540.67	25239.51
540.87	25700.3
541.071	25626.57
541.271	25675.73
541.472	25405.39
541.672	25515.98
541.873	25233.36
542.073	25259.99
542.274	25534.42
542.474	25513.94
542.675	25257.94
542.875	25716.68
543.075	25718.73
543.276	25141.21
543.476	25524.18
543.676	25106.39
543.877	25384.91
544.077	25436.11
544.277	25286.61
544.478	25212.88
544.678	25526.22
544.878	25341.91
545.078	25327.57
545.279	25446.35
545.479	25155.54
545.679	25534.42
545.879	25493.46
546.079	25634.77
546.28	25495.5
546.48	24952.79
546.68	25655.25
546.88	25501.65
547.08	25395.15
547.28	25456.59
547.48	25513.94
547.68	25702.35
547.88	25307.09
548.081	25399.25
548.281	25429.97
548.481	25139.16
548.681	25515.98
548.881	25432.02
549.081	25515.98
549.28	25462.74
549.48	25618.38
549.68	25253.84
549.88	25747.4
550.08	25090.01
550.28	25276.37
550.48	25323.47
550.68	25751.5
550.88	25139.16
551.08	25511.89
551.279	25448.4
551.479	25300.95
551.679	25393.11
551.879	25112.53
552.079	25440.21
552.278	25151.45
552.478	25284.56
552.678	25257.94
552.878	25575.38
553.077	25479.12
553.277	25192.4
553.477	25528.27
553.676	25319.38
553.876	25282.52
554.076	25262.04
554.275	25065.43
554.475	24917.98
554.674	25405.39
554.874	25417.68
555.074	24960.98
555.273	25409.49
555.473	25417.68
555.672	25014.23
555.872	25130.97
556.071	25389.01
556.271	25171.93
556.47	25135.06
556.67	24803.29
556.869	24748
557.068	25018.33
557.268	24682.46
557.467	24950.74
557.667	24645.6
557.866	24922.07
558.065	24569.82
558.265	24758.24
558.464	24754.14
558.663	24811.48
558.863	24549.34
559.062	24670.17
559.261	24424.42
559.461	24666.08
559.66	24285.15
559.859	24651.74
560.058	24129.51
560.258	24377.31
560.457	24133.61
560.656	24428.51
560.855	24111.08
561.054	24178.66
561.253	23834.6
561.453	24264.68
561.652	24006.63
561.851	24045.54
562.05	24371.17
562.249	23818.22
562.448	24053.73
562.647	24055.78
562.846	23791.59
563.045	23502.83
563.244	23902.18
563.443	23592.94
563.642	23498.73
563.841	23574.51
564.04	23404.53
564.239	23629.8
564.438	23496.69
564.637	23541.74
564.836	23447.54
565.035	23234.55
565.234	23369.71
565.432	22855.67
565.631	23222.26
565.83	23504.88
566.029	23179.25
566.228	23107.57
566.427	23097.33
566.625	23232.5
566.824	22970.36
567.023	23173.11
567.222	22691.84
567.42	23140.34
567.619	22652.92
567.818	22646.78
568.016	22753.27
568.215	22697.98
568.414	22345.73
568.612	22808.57
568.811	22589.44
569.01	22564.86
569.208	22339.58
569.407	22267.91
569.605	22196.23
569.804	22351.87
570.002	22243.33
570.201	22249.47
570.4	21987.33
570.598	21571.6
570.797	21803.02
570.995	21938.18
571.193	21508.11
571.392	21907.46
571.59	21741.58
571.789	21467.15
571.987	21432.33
572.186	21340.18
572.384	21286.93
572.582	21200.91
572.781	21217.3
572.979	21207.06
573.177	21112.85
573.376	21213.2
573.574	21073.94
573.772	21268.5
573.971	21086.23
574.169	20774.94
574.367	20598.81
574.565	20822.04
574.763	20594.72
574.962	20506.65
575.16	20467.74
575.358	20672.54
575.556	20162.59
575.754	20484.12
575.952	19927.08
576.151	20324.38
576.349	19886.12
576.547	19832.87
576.745	20160.55
576.943	19863.59
577.141	19845.16
577.339	19753
577.537	19523.63
577.735	19636.27
577.933	19431.47
578.131	19789.86
578.329	19396.65
578.527	19345.45
578.725	19169.33
578.923	19363.89
579.121	19220.53
579.319	19277.87
579.516	19281.97
579.714	19046.45
579.912	19073.07
580.11	18966.58
580.308	18987.06
580.506	19015.73
580.704	18538.55
580.901	18855.99
581.099	18999.35
581.297	18624.57
581.495	18483.26
581.692	18677.82
581.89	18602.04
582.088	18546.75
582.285	18233.41
582.483	18456.64
582.681	18511.93
582.878	18077.76
583.076	18120.77
583.274	18495.55
583.471	17989.7
583.669	17872.96
583.866	17889.35
584.064	18040.9
584.262	17832.01
584.459	17678.41
584.657	17932.36
584.854	17856.58
585.052	17332.3
585.249	17739.85
585.447	17635.4
585.644	17354.83
585.841	17367.12
586.039	17475.66
586.236	17018.96
586.434	16988.24
586.631	17002.58
586.828	17066.06
587.026	17035.35
587.223	16885.84
587.42	16762.97
587.618	16904.28
587.815	16812.12
588.012	16834.64
588.21	16785.49
588.407	16791.64
588.604	16601.18
588.801	16380
588.999	16644.18
589.196	16179.29
589.393	16404.57
589.59	16238.69
589.787	16353.37
589.984	16210.01
590.182	16173.15
590.379	16291.93
590.576	16142.43
590.773	16134.24
590.97	15886.43
591.167	15943.78
591.364	15904.87
591.561	15954.02
591.758	15917.15
591.955	15886.43
592.152	15960.16
592.349	15825
592.546	15720.55
592.743	15650.92
592.94	15489.13
593.137	15548.52
593.334	15444.07
593.531	15339.63
593.727	15446.12
593.924	15337.58
594.121	15231.08
594.318	15257.71
594.515	15165.55
594.712	15278.19
594.908	15073.39
595.105	15108.21
595.302	14780.53
595.499	15138.93
595.696	14846.07
595.892	15124.59
596.089	14684.28
596.286	14905.46
596.482	14448.76
596.679	14727.28
596.876	14723.19
597.072	14641.27
597.269	14598.26
597.466	14667.89
597.662	14422.14
597.859	14583.93
598.055	14459
598.252	14567.54
598.448	14352.51
598.645	14059.65
598.841	14192.76
599.038	14006.4
599.234	14325.88
599.431	14110.85
599.627	14018.69
599.824	13889.67
600.02	13873.28
600.217	14231.68
600.413	13992.06
600.609	13875.33
600.806	13756.55
601.002	13817.99
601.198	13746.31
601.395	13799.55
601.591	13504.65
601.787	13830.27
601.984	13518.98
602.18	13631.62
602.376	13398.15
602.572	13349
602.769	13219.98
602.965	13344.91
603.161	13355.15
603.357	13414.54
603.553	13013.13
603.75	13451.4
603.946	13146.25
604.142	13097.1
604.338	12796.05
604.534	13015.18
604.73	12783.76
604.926	12990.61
605.122	13088.91
605.318	12720.28
605.514	12593.3
605.71	12472.47
605.906	12527.77
606.102	12906.64
606.298	12646.55
606.494	12343.45
606.69	12306.59
606.886	12478.61
607.082	12109.98
607.278	12476.57
607.474	12224.67
607.67	12370.07
607.866	11985.05
608.062	12277.91
608.257	12247.19
608.453	12095.64
608.649	12286.11
608.845	12077.21
609.041	11808.93
609.236	12073.12
609.432	11983.01
609.628	11903.14
609.824	11901.09
610.019	11681.96
610.215	11774.11
610.411	11743.39
610.606	11714.72
610.802	11763.87
610.998	11853.98
611.193	11714.72
611.389	11378.86
611.584	11278.51
611.78	11339.94
611.976	11288.75
612.171	11507.88
612.367	11296.94
612.562	11296.94
612.758	11223.21
612.953	11055.28
613.149	11278.51
613.344	11126.96
613.539	11346.09
613.735	11071.66
613.93	11206.83
614.126	11016.37
614.321	11155.63
614.517	10936.49
614.712	11210.92
614.907	10844.34
615.103	11030.7
615.298	10858.67
615.493	11012.27
615.688	10666.16
615.884	10963.12
616.079	10707.12
616.274	10963.12
616.47	10649.78
616.665	10698.93
616.86	10770.61
617.055	10535.09
617.25	10719.41
617.445	10668.21
617.641	10490.04
617.836	10502.33
618.031	10500.28
618.226	10500.28
618.421	10447.03
618.616	10516.66
618.811	10268.86
619.006	10373.3
619.201	10234.04
619.396	10186.94
619.591	10238.14
619.786	10197.18
619.981	9842.88
620.176	10127.55
620.371	9967.81
620.566	10100.92
620.761	9840.83
620.956	9703.62
621.151	9928.89
621.346	9648.32
621.541	9734.34
621.735	9830.59
621.93	9529.54
622.125	9459.91
622.32	9494.72
622.515	9615.55
622.709	9408.71
622.904	9392.33
623.099	9380.04
623.294	9386.18
623.488	9128.14
623.683	9128.14
623.878	8931.53
624.072	9081.03
624.267	9066.7
624.462	8937.68
624.656	8845.52
624.851	8818.89
625.046	8700.11
625.24	8845.52
625.435	8675.54
625.629	8335.57
625.824	8616.15
626.018	8702.16
626.213	8620.24
626.407	8442.07
626.602	8294.61
626.796	8413.4
626.991	8245.46
627.185	8413.4
627.38	8114.39
627.574	8141.02
627.768	7966.94
627.963	7956.7
628.157	8007.9
628.352	8009.95
628.546	7852.25
628.74	7964.89
628.935	7839.97
629.129	7932.12
629.323	7858.4
629.517	7825.63
629.712	7733.47
629.906	7829.73
630.1	7543.01
630.294	7682.27
630.489	7719.14
630.683	7704.8
630.877	7366.88
631.071	7536.87
631.265	7534.82
631.459	7428.32
631.653	7160.04
631.848	7244.01
632.042	7264.49
632.236	7364.84
632.43	7211.24
632.624	7090.41
632.818	6973.67
633.012	7207.14
633.206	7014.63
633.4	7088.36
633.594	6869.23
633.788	6897.9
633.982	6988.01
634.176	6916.33
634.369	6674.67
634.563	6742.25
634.757	6922.48
634.951	6729.97
635.145	6709.49
635.339	6658.29
635.533	6715.63
635.726	6641.9
635.92	6543.6
636.114	6422.77
636.308	6488.31
636.501	6291.7
636.695	6492.4
636.889	6377.72
637.083	6306.04
637.276	6398.2
637.47	6217.97
637.664	6131.96
637.857	6283.51
638.051	6131.96
638.244	6193.4
638.438	6160.63
638.632	5939.45
638.825	5972.22
639.019	6021.37
639.212	5933.31
639.406	6009.08
639.599	5931.26
639.793	5947.64
639.986	5910.78
640.18	5859.58
640.373	5792
640.567	5671.17
640.76	5593.34
640.954	5617.92
641.147	5517.57
641.34	5581.06
641.534	5490.95
641.727	5523.71
641.92	5566.72
642.114	5517.57
642.307	5380.36
642.5	5294.34
642.694	5298.44
642.887	5226.76
643.08	5386.5
643.273	5290.24
643.467	5091.59
643.66	5275.91
643.853	5267.72
644.046	5124.36
644.239	5193.99
644.432	5075.21
644.626	4946.19
644.819	5116.17
645.012	5048.58
645.205	4882.7
645.398	4899.08
645.591	4829.45
645.784	4741.39
645.977	4694.29
646.17	4772.11
646.363	4782.35
646.556	4729.1
646.749	4708.62
646.942	4692.24
647.135	4774.16
647.328	4636.94
647.521	4688.14
647.714	4362.51
647.907	4577.55
648.099	4530.45
648.292	4509.97
648.485	4649.23
648.678	4321.56
648.871	4311.32
649.064	4215.06
649.256	4188.44
649.449	4063.51
649.642	4348.18
649.835	4231.44
650.027	4170.01
650.22	4174.1
650.413	4127
650.605	4245.78
650.798	4178.2
650.991	3957.02
651.183	4049.18
651.376	4106.52
651.568	4030.74
651.761	3985.69
651.954	3977.5
652.146	4024.6
652.339	3823.9
652.531	3846.43
652.724	3825.95
652.916	3967.26
653.109	3907.87
653.301	3883.29
653.494	3854.62
653.686	3762.46
653.879	3789.08
654.071	3713.31
654.263	3678.49
654.456	3666.21
654.648	3670.3
654.84	3539.23
655.033	3625.25
655.225	3596.57
655.417	3459.36
655.61	3567.9
655.802	3479.84
655.994	3498.27
656.186	3459.36
656.379	3402.02
656.571	3424.55
656.763	3469.6
656.955	3359.01
657.148	3285.28
657.34	3500.32
657.532	3275.04
657.724	3199.27
657.916	3342.63
658.108	3295.52
658.3	3256.61
658.492	3182.88
658.684	3174.69
658.876	3211.56
659.068	3164.45
659.26	3082.53
659.452	2980.14
659.644	2978.09
659.836	3035.43
660.028	3074.34
660.22	3092.77
660.412	2990.38
660.604	2830.63
660.796	2990.38
660.988	2957.61
661.18	2847.02
661.372	2908.46
661.563	2777.39
661.755	2857.26
661.947	2832.68
662.139	2842.92
662.331	2785.58
662.522	2857.26
662.714	2765.1
662.906	2740.52
663.097	2715.95
663.289	2611.5
663.481	2677.04
663.673	2617.65
663.864	2621.74
664.056	2629.93
664.247	2623.79
664.439	2570.54
664.631	2591.02
664.822	2529.58
665.014	2586.93
665.205	2640.17
665.397	2466.1
665.588	2611.5
665.78	2459.95
665.971	2527.53
666.163	2492.72
666.354	2464.05
666.546	2492.72
666.737	2322.74
666.929	2496.82
667.12	2304.31
667.311	2322.74
667.503	2441.52
667.694	2343.22
667.885	2281.78
668.077	2404.66
668.268	2326.83
668.459	2265.39
668.651	2279.73
668.842	2191.67
669.033	2152.76
669.224	2294.07
669.416	2318.64
669.607	2240.82
669.798	2306.35
669.989	2189.62
670.18	2287.92
670.371	2197.81
670.563	2242.87
670.754	2109.75
670.945	2117.94
671.136	2224.44
671.327	2105.65
671.518	2105.65
671.709	2087.22
671.9	2115.89
672.091	2183.48
672.282	2103.61
672.473	2169.14
672.664	2160.95
672.855	2083.13
673.046	2103.61
673.237	2076.98
673.428	2050.36
673.619	2021.69
673.809	2122.04
674	2158.9
674.191	2109.75
674.382	2021.69
674.573	2068.79
674.764	2066.74
674.954	1892.66
675.145	1993.01
675.336	1950.01
675.527	1913.14
675.717	1986.87
675.908	1945.91
676.099	1956.15
676.289	1982.78
676.48	1818.94
676.671	1886.52
676.861	2027.83
677.052	1898.81
677.243	1943.86
677.433	1874.23
677.624	1909.05
677.814	1964.34
678.005	1909.05
678.195	1929.53
678.386	1927.48
678.576	1763.64
678.767	1886.52
678.957	1939.77
679.148	1851.71
679.338	1874.23
679.529	1880.38
679.719	1835.32
679.909	1753.4
680.1	1802.55
680.29	1808.7
680.481	1757.5
680.671	1845.56
680.861	1790.27
681.052	1808.7
681.242	1749.31
681.432	1800.51
681.622	1780.03
681.813	1722.68
682.003	1816.89
682.193	1823.03
682.383	1833.27
682.573	1794.36
682.764	1960.25
682.954	1737.02
683.144	1775.93
683.334	1767.74
683.524	1925.43
683.714	1784.12
683.904	1777.98
684.094	1679.68
684.284	1808.7
684.474	1718.59
684.664	1706.3
684.854	1808.7
685.044	1728.83
685.234	1661.24
685.424	1786.17
685.614	1747.26
685.804	1722.68
685.994	1700.16
686.184	1751.35
686.374	1732.92
686.564	1636.67
686.753	1700.16
686.943	1622.33
687.133	1753.4
687.323	1712.44
687.513	1761.59
687.702	1665.34
687.892	1724.73
688.082	1691.96
688.272	1718.59
688.461	1716.54
688.651	1677.63
688.841	1651
689.03	1683.77
689.22	1644.86
689.41	1685.82
689.599	1675.58
689.789	1755.45
689.979	1642.81
690.168	1751.35
690.358	1765.69
690.547	1597.76
690.737	1605.95
690.926	1716.54
691.116	1689.92
691.305	1513.79
691.495	1579.33
691.684	1714.49
691.874	1612.09
692.063	1655.1
692.252	1614.14
692.442	1687.87
692.631	1587.52
692.82	1601.85
693.01	1593.66
693.199	1624.38
693.388	1732.92
693.578	1571.13
693.767	1579.33
693.956	1552.7
694.146	1718.59
694.335	1558.85
694.524	1702.2
694.713	1618.24
694.902	1710.4
695.092	1620.28
695.281	1569.09
695.47	1696.06
695.659	1653.05
695.848	1696.06
696.037	1573.18
696.226	1687.87
696.415	1722.68
696.604	1743.16
696.793	1669.44
696.982	1775.93
697.171	1714.49
697.36	1708.35
697.549	1685.82
697.738	1681.72
697.927	1677.63
698.116	1743.16
698.305	1628.48
698.494	1696.06
698.683	1595.71
698.872	1749.31
699.061	1622.33
699.25	1644.86
699.438	1814.84
699.627	1761.59
699.816	1655.1
700.005	1644.86
700.193	1628.48
700.382	1687.87
700.571	1759.55
700.76	1669.44
700.948	1679.68
701.137	1734.97
701.326	1653.05
701.514	1728.83
701.703	1694.01
701.892	1642.81
702.08	1691.96
702.269	1696.06
702.457	1638.72
702.646	1687.87
702.834	1605.95
703.023	1548.61
703.212	1581.37
703.4	1669.44
703.589	1634.62
703.777	1642.81
703.965	1579.33
704.154	1630.52
704.342	1741.11
704.531	1667.39
704.719	1601.85
704.907	1581.37
705.096	1571.13
705.284	1704.25
705.472	1700.16
705.661	1558.85
705.849	1605.95
706.037	1644.86
706.226	1655.1
706.414	1667.39
706.602	1569.09
706.79	1706.3
706.979	1556.8
707.167	1648.96
707.355	1581.37
707.543	1651
707.731	1587.52
707.919	1581.37
708.107	1460.54
708.296	1630.52
708.484	1507.65
708.672	1593.66
708.86	1560.89
709.048	1507.65
709.236	1528.13
709.424	1575.23
709.612	1462.59
709.8	1554.75
709.988	1567.04
710.176	1560.89
710.364	1583.42
710.551	1532.22
710.739	1499.45
710.927	1519.93
711.115	1556.8
711.303	1468.73
711.491	1444.16
711.679	1401.15
711.866	1446.21
712.054	1427.78
712.242	1433.92
712.43	1425.73
712.617	1575.23
712.805	1454.4
712.993	1466.69
713.181	1468.73
713.368	1419.58
713.556	1450.3
713.744	1366.34
713.931	1478.97
714.119	1431.87
714.306	1382.72
714.494	1409.34
714.682	1405.25
714.869	1427.78
715.057	1347.9
715.244	1405.25
715.432	1425.73
715.619	1384.77
715.807	1388.86
715.994	1362.24
716.182	1386.82
716.369	1376.58
716.556	1325.38
716.744	1354.05
716.931	1325.38
717.119	1335.62
717.306	1442.11
717.493	1395.01
717.681	1313.09
717.868	1298.75
718.055	1263.94
718.242	1347.9
718.43	1313.09
718.617	1356.1
718.804	1239.36
718.991	1306.95
719.179	1243.46
719.366	1278.27
719.553	1245.51
719.74	1296.71
719.927	1247.55
720.114	1315.14
720.301	1200.45
720.488	1308.99
720.676	1251.65
720.863	1319.23
721.05	1317.19
721.237	1196.36
721.424	1247.55
721.611	1308.99
721.798	1263.94
721.985	1190.21
722.172	1229.12
722.358	1157.44
722.545	1202.5
722.732	1163.59
722.919	1145.16
723.106	1229.12
723.293	1175.88
723.48	1136.96
723.667	1089.86
723.853	1204.55
724.04	1247.55
724.227	1096
724.414	1188.16
724.6	1124.68
724.787	1124.68
724.974	1145.16
725.161	1118.53
725.347	1157.44
725.534	1208.64
725.72	1198.4
725.907	1136.96
726.094	1147.2
726.28	1048.9
726.467	1055.05
726.653	1036.61
726.84	1118.53
727.027	1134.92
727.213	1196.36
727.4	1163.59
727.586	1050.95
727.773	1096
727.959	1065.29
728.145	1048.9
728.332	1130.82
728.518	1046.85
728.705	1030.47
728.891	1071.43
729.077	1059.14
729.264	1065.29
729.45	1034.57
729.636	1071.43
729.823	999.75
730.009	1038.66
730.195	1071.43
730.382	997.7
730.568	964.93
730.754	1014.09
730.94	1014.09
731.126	1098.05
731.313	1024.33
731.499	1155.4
731.685	1057.09
731.871	1022.28
732.057	975.17
732.243	1007.94
732.429	1034.57
732.615	921.93
732.801	973.13
732.987	1001.8
733.173	1073.48
733.359	934.22
733.545	930.12
733.731	987.46
733.917	981.32
734.103	991.56
734.289	923.98
734.475	954.69
734.661	981.32
734.847	987.46
735.033	983.37
735.219	1038.66
735.404	1014.09
735.59	940.36
735.776	878.92
735.962	911.69
736.148	950.6
736.333	938.31
736.519	1020.23
736.705	878.92
736.89	958.79
737.076	907.59
737.262	991.56
737.447	911.69
737.633	995.65
737.819	911.69
738.004	952.65
738.19	876.87
738.375	891.21
738.561	915.78
738.747	997.7
738.932	1036.61
739.118	993.61
739.303	966.98
739.489	874.82
739.674	887.11
739.859	848.2
740.045	860.49
740.23	803.15
740.416	819.53
740.601	833.86
740.786	858.44
740.972	854.34
741.157	723.27
741.342	868.68
741.528	833.86
741.713	821.58
741.898	837.96
742.084	837.96
742.269	852.3
742.454	858.44
742.639	856.39
742.824	760.14
743.01	835.91
743.195	821.58
743.38	821.58
743.565	852.3
743.75	829.77
743.935	878.92
744.12	809.29
744.305	756.04
744.49	764.23
744.675	753.99
744.86	698.7
745.045	827.72
745.23	778.57
745.415	811.34
745.6	788.81
745.785	661.84
745.97	782.67
746.155	706.89
746.34	747.85
746.525	760.14
746.71	684.36
746.895	764.23
747.079	774.47
747.264	715.08
747.449	672.08
747.634	805.19
747.819	641.36
748.003	743.75
748.188	749.9
748.373	586.06
748.557	715.08
748.742	608.59
748.927	710.99
749.111	764.23
749.296	751.95
749.481	729.42
749.665	690.51
749.85	670.03
750.034	649.55
750.219	588.11
750.404	659.79
750.588	661.84
750.773	631.12
750.957	629.07
751.141	616.78
751.326	672.08
751.51	698.7
751.695	489.81
751.879	663.88
752.064	594.25
752.248	616.78
752.432	645.45
752.617	610.64
752.801	586.06
752.985	614.73
753.17	620.88
753.354	559.44
753.538	573.77
753.722	604.49
753.907	538.96
754.091	612.68
754.275	602.44
754.459	559.44
754.643	461.13
754.828	547.15
755.012	510.29
755.196	448.85
755.38	575.82
755.564	586.06
755.748	635.21
755.932	545.1
756.116	565.58
756.3	528.72
756.484	528.72
756.668	477.52
756.852	553.29
757.036	516.43
757.22	506.19
757.404	510.29
757.588	444.75
757.772	428.37
757.956	457.04
758.14	506.19
758.323	520.53
758.507	448.85
758.691	483.66
758.875	452.94
759.059	500.05
759.242	467.28
759.426	483.66
759.61	459.09
759.794	444.75
759.977	450.89
760.161	483.66
760.345	467.28
760.528	485.71
760.712	366.93
760.895	512.33
761.079	424.27
761.263	383.31
761.446	454.99
761.63	414.03
761.813	434.51
761.997	393.55
762.18	446.8
762.364	428.37
762.547	411.98
762.731	454.99
762.914	436.56
763.098	364.88
763.281	430.41
763.464	313.68
763.648	397.65
763.831	373.07
764.015	377.17
764.198	448.85
764.381	379.22
764.564	401.74
764.748	399.7
764.931	383.31
765.114	371.02
765.297	377.17
765.481	407.89
765.664	309.58
765.847	416.08
766.03	418.13
766.213	414.03
766.397	491.85
766.58	311.63
766.763	407.89
766.946	434.51
767.129	491.85
767.312	401.74
767.495	420.17
767.678	414.03
767.861	473.42
768.044	346.45
768.227	434.51
768.41	381.26
768.593	399.7
768.776	422.22
768.959	354.64
769.142	405.84
769.324	420.17
769.507	393.55
769.69	317.78
769.873	397.65
770.056	371.02
770.239	373.07
770.421	432.46
770.604	309.58
770.787	416.08
770.97	424.27
771.152	379.22
771.335	350.54
771.518	356.69
771.7	420.17
771.883	350.54
772.066	377.17
772.248	323.92
772.431	354.64
772.613	342.35
772.796	291.15
772.978	469.33
773.161	356.69
773.343	344.4
773.526	303.44
773.708	350.54
773.891	350.54
774.073	424.27
774.256	330.06
774.438	319.82
774.621	430.41
774.803	334.16
774.985	309.58
775.168	323.92
775.35	282.96
775.532	418.13
775.715	321.87
775.897	332.11
776.079	342.35
776.261	219.47
776.444	291.15
776.626	254.29
776.808	364.88
776.99	313.68
777.173	260.43
777.355	278.87
777.537	276.82
777.719	256.34
777.901	272.72
778.083	260.43
778.265	276.82
778.447	258.39
778.629	297.3
778.811	229.71
778.993	233.81
779.175	340.3
779.357	352.59
779.539	276.82
779.721	276.82
779.903	307.54
780.085	311.63
780.267	268.63
780.449	246.1
780.631	264.53
780.812	246.1
780.994	217.43
781.176	203.09
781.358	274.77
781.54	295.25
781.721	239.95
781.903	205.14
782.085	287.06
782.267	209.23
782.448	227.67
782.63	258.39
782.812	280.91
782.993	223.57
783.175	270.67
783.357	235.86
783.538	219.47
783.72	211.28
783.901	219.47
784.083	211.28
784.264	211.28
784.446	244.05
784.627	188.75
784.809	239.95
784.99	242
785.172	160.08
785.353	201.04
785.535	239.95
785.716	264.53
785.897	147.8
786.079	237.91
786.26	270.67
786.441	155.99
786.623	248.15
786.804	201.04
786.985	217.43
787.167	174.42
787.348	227.67
787.529	227.67
787.71	137.56
787.891	198.99
788.073	178.51
788.254	139.6
788.435	147.8
788.616	166.23
788.797	145.75
788.978	164.18
789.159	172.37
789.34	145.75
789.522	147.8
789.703	100.69
789.884	254.29
790.065	217.43
790.246	176.47
790.427	170.32
790.607	221.52
790.788	133.46
790.969	190.8
791.15	162.13
791.331	96.6
791.512	115.03
791.693	153.94
791.874	155.99
792.054	133.46
792.235	112.98
792.416	188.75
792.597	188.75
792.778	147.8
792.958	125.27
793.139	178.51
793.32	129.36
793.5	129.36
793.681	174.42
793.862	137.56
794.042	131.41
794.223	127.32
794.404	164.18
794.584	125.27
794.765	129.36
794.945	176.47
795.126	170.32
795.306	172.37
795.487	129.36
795.667	115.03
795.848	125.27
796.028	129.36
796.209	170.32
796.389	74.07
796.57	102.74
796.75	102.74
796.93	158.03
797.111	188.75
797.291	164.18
797.471	76.12
797.652	131.41
797.832	176.47
798.012	184.66
798.192	90.45
798.373	135.51
798.553	115.03
798.733	196.95
798.913	129.36
799.093	125.27
799.274	139.6
799.454	155.99
799.634	172.37
799.814	110.93
799.994	158.03
800.174	166.23
800.354	166.23
800.534	117.08
800.714	104.79
800.894	76.12
801.074	106.84
801.254	151.89
801.434	59.73
801.614	127.32
801.794	80.21
801.974	360.78
802.154	112.98
802.334	192.85
802.514	164.18
802.693	88.4
802.873	119.12
803.053	162.13
803.233	76.12
803.413	160.08
803.592	86.36
803.772	164.18
803.952	88.4
804.131	80.21
804.311	127.32
804.491	100.69
804.67	59.73
804.85	72.02
805.03	155.99
805.209	106.84
805.389	131.41
805.568	98.64
805.748	100.69
805.928	129.36
806.107	164.18
806.287	129.36
806.466	92.5
806.646	112.98
806.825	100.69
807.004	96.6
807.184	100.69
807.363	37.2
807.543	22.87
807.722	164.18
807.901	31.06
808.081	125.27
808.26	14.68
808.439	98.64
808.619	59.73
808.798	127.32
808.977	98.64
809.156	65.88
809.336	129.36
809.515	123.22
809.694	45.4
809.873	88.4
810.052	86.36
810.231	133.46
810.411	133.46
810.59	125.27
810.769	90.45
810.948	57.68
811.127	131.41
811.306	108.88
811.485	49.49
811.664	65.88
811.843	108.88
812.022	88.4
812.201	133.46
812.38	119.12
812.559	53.59
812.737	104.79
812.916	86.36
813.095	92.5
813.274	112.98
813.453	106.84
813.632	59.73
813.811	129.36
813.989	39.25
814.168	110.93
814.347	41.3
814.526	63.83
814.704	129.36
814.883	110.93
815.062	18.77
815.24	90.45
815.419	6.49
815.598	12.63
815.776	63.83
815.955	127.32
816.133	139.6
816.312	31.06
816.49	80.21
816.669	67.92
816.847	90.45
817.026	102.74
817.204	69.97
817.383	184.66
817.561	90.45
817.74	61.78
817.918	49.49
818.097	90.45
818.275	59.73
818.453	125.27
818.632	100.69
818.81	14.68
818.988	90.45
819.167	26.96
819.345	35.16
819.523	102.74
819.701	108.88
819.879	43.35
820.058	4.44
820.236	84.31
820.414	26.96
820.592	106.84
820.77	133.46
820.948	41.3
821.127	12.63
821.305	82.26
821.483	72.02
821.661	104.79
821.839	84.31
822.017	100.69
822.195	108.88
822.373	127.32
822.551	18.77
822.729	155.99
822.907	57.68
823.085	88.4
823.262	47.44
823.44	115.03
823.618	123.22
823.796	110.93
823.974	127.32
824.152	35.16
824.329	45.4
824.507	86.36
824.685	47.44
824.863	29.01
825.04	112.98
825.218	143.7
825.396	80.21
825.574	90.45
825.751	16.73
825.929	96.6
826.107	24.92
826.284	137.56
826.462	57.68
826.639	47.44
826.817	10.58
826.994	135.51
827.172	39.25
827.349	33.11
827.527	86.36
827.704	108.88
827.882	96.6
828.059	72.02
828.237	33.11
828.414	129.36
828.591	-13.99
828.769	115.03
828.946	24.92
829.124	35.16
829.301	55.64
829.478	115.03
829.655	43.35
829.833	31.06
830.01	-1.71
830.187	41.3
830.364	53.59
830.542	-30.38
830.719	22.87
830.896	98.64
831.073	90.45
831.25	92.5
831.427	69.97
831.604	67.92
831.782	16.73
831.959	112.98
832.136	53.59
832.313	31.06
832.49	94.55
832.667	6.49
832.844	37.2
833.021	94.55
833.198	51.54
833.374	33.11
833.551	94.55
833.728	90.45
833.905	-36.52
834.082	59.73
834.259	0.34
834.436	115.03
834.612	45.4
834.789	67.92
834.966	33.11
835.143	41.3
835.319	0.34
835.496	14.68
835.673	22.87
835.85	8.53
836.026	74.07
836.203	59.73
836.38	22.87
836.556	123.22
836.733	61.78
836.909	104.79
837.086	0.34
837.262	12.63
837.439	-1.71
837.616	84.31
837.792	45.4
837.968	37.2
838.145	-46.76
838.321	29.01
838.498	53.59
838.674	139.6
838.851	-16.04
839.027	45.4
839.203	37.2
839.38	47.44
839.556	92.5
839.732	49.49
839.909	72.02
840.085	100.69
840.261	47.44
840.437	76.12
840.614	39.25
840.79	100.69
840.966	-1.71
841.142	24.92
841.318	20.82
841.494	82.26
841.671	41.3
841.847	88.4
842.023	-9.9
842.199	41.3
842.375	65.88
842.551	8.53
842.727	14.68
842.903	69.97
843.079	4.44
843.255	-40.62
843.431	20.82
843.607	76.12
843.783	43.35
843.959	43.35
844.134	61.78
844.31	90.45
844.486	61.78
844.662	8.53
844.838	29.01
845.013	59.73
845.189	74.07
845.365	104.79
845.541	61.78
845.716	162.13
845.892	41.3
846.068	10.58
846.244	-7.85
846.419	67.92
846.595	82.26
846.77	18.77
846.946	-24.23
847.122	-3.75
847.297	78.16
847.473	65.88
847.648	-50.86
847.824	-18.09
847.999	37.2
848.175	-38.57
848.35	-11.95
848.526	18.77
848.701	39.25
848.876	47.44
849.052	18.77
849.227	96.6
849.403	-22.19
849.578	0.34
849.753	94.55
849.929	-26.28
850.104	-46.76
850.279	33.11
850.454	57.68
850.63	45.4
850.805	41.3
850.98	-5.8
851.155	-7.85
851.33	49.49
851.505	51.54
851.681	59.73
851.856	-38.57
852.031	-24.23
852.206	53.59
852.381	-36.52
852.556	55.64
852.731	18.77
852.906	121.17
853.081	33.11
853.256	-13.99
853.431	31.06
853.606	24.92
853.781	53.59
853.956	16.73
854.131	92.5
854.305	22.87
854.48	33.11
854.655	-42.67
854.83	20.82
855.005	35.16
855.18	14.68
855.354	41.3
855.529	57.68
855.704	2.39
855.879	72.02
856.053	-42.67
856.228	65.88
856.403	51.54
856.577	22.87
856.752	-42.67
856.926	2.39
857.101	24.92
857.276	6.49
857.45	-32.43
857.625	22.87
857.799	10.58
857.974	37.2
858.148	-24.23
858.323	-11.95
858.497	33.11
858.672	22.87
858.846	41.3
859.02	61.78
859.195	67.92
859.369	24.92
859.543	69.97
859.718	51.54
859.892	4.44
860.066	6.49
860.241	-18.09
860.415	-24.23
860.589	-5.8
860.763	69.97
860.938	51.54
861.112	57.68
861.286	41.3
861.46	16.73
861.634	29.01
861.808	26.96
861.982	-1.71
862.157	-26.28
862.331	8.53
862.505	61.78
862.679	61.78
862.853	12.63
863.027	33.11
863.201	39.25
863.375	26.96
863.549	47.44
863.722	12.63
863.896	57.68
864.07	-1.71
864.244	35.16
864.418	12.63
864.592	31.06
864.766	35.16
864.939	35.16
865.113	31.06
865.287	59.73
865.461	16.73
865.634	69.97
865.808	4.44
865.982	-20.14
866.156	24.92
866.329	12.63
866.503	35.16
866.676	26.96
866.85	29.01
867.024	35.16
867.197	24.92
867.371	45.4
867.544	-9.9
867.718	31.06
867.891	33.11
868.065	18.77
868.238	78.16
868.412	80.21
868.585	2.39
868.759	-11.95
868.932	-5.8
869.105	2.39
869.279	-22.19
869.452	37.2
869.625	84.31
869.799	24.92
869.972	-5.8
870.145	63.83
870.319	-16.04
870.492	26.96
870.665	31.06
870.838	-1.71
871.011	-22.19
871.185	47.44
871.358	76.12
871.531	55.64
871.704	-34.47
871.877	8.53
872.05	39.25
872.223	51.54
872.396	51.54
872.569	-28.33
872.742	-5.8
872.915	102.74
873.088	63.83
873.261	47.44
873.434	33.11
873.607	47.44
873.78	-16.04
873.953	55.64
874.126	-28.33
874.299	-13.99
874.471	98.64
874.644	45.4
874.817	61.78
874.99	39.25
875.163	35.16
875.335	39.25
875.508	12.63
875.681	74.07
875.853	98.64
876.026	39.25
876.199	-44.71
876.371	-30.38
876.544	63.83
876.717	-93.87
876.889	53.59
877.062	43.35
877.234	-30.38
877.407	45.4
877.579	20.82
877.752	51.54
877.924	37.2
878.097	80.21
878.269	35.16
878.442	-28.33
878.614	-11.95
878.786	29.01
878.959	-13.99
879.131	-32.43
879.303	-20.14
879.476	166.23
879.648	14.68
879.82	37.2
879.993	41.3
880.165	-20.14
880.337	-7.85
880.509	39.25
880.681	29.01
880.854	69.97
881.026	-3.75
881.198	67.92
881.37	35.16
881.542	2.39
881.714	-9.9
881.886	63.83
882.058	16.73
882.23	76.12
882.402	29.01
882.574	-3.75
882.746	69.97
882.918	8.53
883.09	37.2
883.262	10.58
883.434	-28.33
883.606	-1.71
883.778	53.59
883.95	-28.33
884.122	20.82
884.293	16.73
884.465	26.96
884.637	31.06
884.809	67.92
884.98	-32.43
885.152	14.68
885.324	20.82
885.496	-32.43
885.667	88.4
885.839	45.4
886.011	45.4
886.182	53.59
886.354	18.77
886.525	35.16
886.697	55.64
886.869	57.68
887.04	16.73
887.212	51.54
887.383	31.06
887.555	47.44
887.726	8.53
887.897	26.96
888.069	-11.95
888.24	53.59
888.412	29.01
888.583	10.58
888.754	18.77
888.926	35.16
889.097	-7.85
889.268	4.44
889.44	10.58
889.611	10.58
889.782	-26.28
889.953	-11.95
890.125	72.02
890.296	82.26
890.467	76.12
890.638	55.64
890.809	-1.71
890.98	16.73
891.151	-11.95
891.323	-44.71
891.494	47.44
891.665	37.2
891.836	-16.04
892.007	35.16
892.178	45.4
892.349	96.6
892.52	53.59
892.691	14.68
892.862	82.26
893.032	-20.14
893.203	31.06
893.374	-5.8
893.545	31.06
893.716	-18.09
893.887	16.73
894.057	35.16
894.228	-26.28
894.399	12.63
894.57	37.2
894.74	41.3
894.911	74.07
895.082	-61.1
895.253	98.64
895.423	-9.9
895.594	10.58
895.764	86.36
895.935	20.82
896.106	14.68
896.276	0.34
896.447	31.06
896.617	-5.8
896.788	16.73
896.958	39.25
897.129	29.01
897.299	22.87
897.47	53.59
897.64	37.2
897.81	18.77
897.981	61.78
898.151	29.01
898.322	123.22
898.492	57.68
898.662	12.63
898.832	49.49
899.003	20.82
899.173	51.54
899.343	106.84
899.513	8.53
