Data from USB4F104151__71__13-54-05-392.txt Node

Date: Thu Mar 13 13:54:05 EDT 2025
User: louis
Spectrometer: USB4F10415
Trigger mode: 4
Integration Time (sec): 1.000000E-2
Scans to average: 1
Electric dark correction enabled: true
Nonlinearity correction enabled: false
Boxcar width: 0
XAxis mode: Wavelengths
Number of Pixels in Spectrum: 3648
>>>>>Begin Spectral Data<<<<<
178.204	-60.42
178.424	-60.42
178.644	-60.42
178.864	-54.27
179.084	-72.7
179.304	11.26
179.524	37.89
179.744	5.12
179.964	-48.13
180.184	1.02
180.404	11.26
180.624	31.74
180.844	-25.6
181.064	-3.07
181.283	-19.46
181.503	-11.26
181.723	9.22
181.943	27.65
182.163	48.13
182.383	-1.02
182.602	-41.98
182.822	5.12
183.042	5.12
183.262	-7.17
183.482	-44.03
183.701	46.08
183.921	5.12
184.141	-9.22
184.361	21.5
184.58	-39.94
184.8	-3.07
185.02	54.27
185.239	-15.36
185.459	-27.65
185.679	35.84
185.898	-1.02
186.118	9.22
186.338	15.36
186.557	11.26
186.777	-31.74
186.997	-87.04
187.216	25.6
187.436	5.12
187.655	15.36
187.875	-5.12
188.095	-15.36
188.314	-50.18
188.534	-19.46
188.753	-13.31
188.973	58.37
189.192	-11.26
189.412	64.51
189.631	21.5
189.851	11.26
190.07	56.32
190.29	78.85
190.509	46.08
190.729	9.22
190.948	-5.12
191.168	37.89
191.387	1.02
191.607	-50.18
191.826	-44.03
192.045	9.22
192.265	-11.26
192.484	-52.22
192.704	68.61
192.923	-66.56
193.142	31.74
193.362	-15.36
193.581	82.94
193.8	-7.17
194.02	58.37
194.239	3.07
194.458	31.74
194.678	-66.56
194.897	-5.12
195.116	27.65
195.335	52.22
195.555	25.6
195.774	11.26
195.993	-7.17
196.212	-82.94
196.432	3.07
196.651	7.17
196.87	9.22
197.089	29.7
197.308	-7.17
197.528	21.5
197.747	-27.65
197.966	-5.12
198.185	9.22
198.404	21.5
198.623	35.84
198.842	-7.17
199.062	9.22
199.281	-44.03
199.5	29.7
199.719	-25.6
199.938	3.07
200.157	68.61
200.376	13.31
200.595	-31.74
200.814	-13.31
201.033	-46.08
201.252	-46.08
201.471	-15.36
201.69	15.36
201.909	46.08
202.128	11.26
202.347	11.26
202.566	-31.74
202.785	-41.98
203.004	-7.17
203.223	78.85
203.442	-9.22
203.661	5.12
203.879	29.7
204.098	41.98
204.317	41.98
204.536	13.31
204.755	-21.5
204.974	62.46
205.193	-13.31
205.411	-3.07
205.63	46.08
205.849	-48.13
206.068	48.13
206.287	3.07
206.505	1.02
206.724	19.46
206.943	-19.46
207.162	21.5
207.381	3.07
207.599	-11.26
207.818	9.22
208.037	37.89
208.255	13.31
208.474	-15.36
208.693	-64.51
208.911	-29.7
209.13	-54.27
209.349	-3.07
209.567	41.98
209.786	5.12
210.005	-35.84
210.223	-11.26
210.442	-31.74
210.661	-11.26
210.879	-27.65
211.098	27.65
211.316	-5.12
211.535	-39.94
211.753	-1.02
211.972	37.89
212.191	37.89
212.409	29.7
212.628	-19.46
212.846	7.17
213.065	-5.12
213.283	-17.41
213.502	-72.7
213.72	-50.18
213.938	21.5
214.157	19.46
214.375	-27.65
214.594	-76.8
214.812	19.46
215.031	27.65
215.249	-56.32
215.467	5.12
215.686	74.75
215.904	50.18
216.122	44.03
216.341	-44.03
216.559	5.12
216.778	-31.74
216.996	56.32
217.214	66.56
217.432	21.5
217.651	5.12
217.869	41.98
218.087	-39.94
218.306	41.98
218.524	54.27
218.742	-80.89
218.96	-15.36
219.179	70.65
219.397	58.37
219.615	50.18
219.833	1.02
220.051	-82.94
220.27	-23.55
220.488	-5.12
220.706	-17.41
220.924	7.17
221.142	3.07
221.36	-62.46
221.578	21.5
221.796	-13.31
222.015	15.36
222.233	35.84
222.451	19.46
222.669	-41.98
222.887	29.7
223.105	-9.22
223.323	39.94
223.541	-31.74
223.759	33.79
223.977	-27.65
224.195	-3.07
224.413	27.65
224.631	11.26
224.849	17.41
225.067	70.65
225.285	33.79
225.503	-56.32
225.721	-39.94
225.939	39.94
226.157	89.09
226.375	-48.13
226.592	-1.02
226.81	-5.12
227.028	-23.55
227.246	-58.37
227.464	-5.12
227.682	13.31
227.9	23.55
228.117	33.79
228.335	3.07
228.553	52.22
228.771	66.56
228.989	21.5
229.206	-25.6
229.424	-9.22
229.642	-11.26
229.86	5.12
230.077	13.31
230.295	-39.94
230.513	-19.46
230.731	21.5
230.948	15.36
231.166	-9.22
231.384	33.79
231.601	-11.26
231.819	37.89
232.037	13.31
232.254	84.99
232.472	-35.84
232.689	-27.65
232.907	11.26
233.125	-17.41
233.342	-11.26
233.56	-11.26
233.777	9.22
233.995	33.79
234.213	37.89
234.43	13.31
234.648	-5.12
234.865	-23.55
235.083	21.5
235.3	11.26
235.518	44.03
235.735	148.48
235.953	19.46
236.17	48.13
236.388	87.04
236.605	29.7
236.822	-44.03
237.04	-70.65
237.257	17.41
237.475	9.22
237.692	7.17
237.909	41.98
238.127	93.18
238.344	17.41
238.562	39.94
238.779	13.31
238.996	5.12
239.214	-17.41
239.431	37.89
239.648	13.31
239.865	87.04
240.083	5.12
240.3	29.7
240.517	-50.18
240.735	-1.02
240.952	50.18
241.169	41.98
241.386	-37.89
241.603	-27.65
241.821	-50.18
242.038	5.12
242.255	15.36
242.472	-11.26
242.689	37.89
242.907	5.12
243.124	39.94
243.341	-25.6
243.558	11.26
243.775	-19.46
243.992	-89.09
244.209	72.7
244.426	1.02
244.643	87.04
244.86	35.84
245.078	23.55
245.295	21.5
245.512	37.89
245.729	25.6
245.946	-41.98
246.163	39.94
246.38	11.26
246.597	74.75
246.814	-3.07
247.031	-21.5
247.248	29.7
247.464	21.5
247.681	-1.02
247.898	66.56
248.115	64.51
248.332	-29.7
248.549	44.03
248.766	62.46
248.983	5.12
249.2	21.5
249.417	-50.18
249.633	17.41
249.85	-33.79
250.067	29.7
250.284	52.22
250.501	5.12
250.717	-1.02
250.934	19.46
251.151	-9.22
251.368	25.6
251.585	-11.26
251.801	52.22
252.018	-5.12
252.235	-37.89
252.451	19.46
252.668	48.13
252.885	17.41
253.102	35.84
253.318	48.13
253.535	-62.46
253.752	-1.02
253.968	-41.98
254.185	-13.31
254.401	41.98
254.618	48.13
254.835	-3.07
255.051	89.09
255.268	7.17
255.484	-23.55
255.701	27.65
255.917	76.8
256.134	39.94
256.351	-60.42
256.567	-93.18
256.784	-3.07
257	-9.22
257.217	44.03
257.433	33.79
257.65	78.85
257.866	-3.07
258.082	-1.02
258.299	29.7
258.515	78.85
258.732	62.46
258.948	-29.7
259.165	17.41
259.381	7.17
259.597	-1.02
259.814	-13.31
260.03	9.22
260.246	-11.26
260.463	35.84
260.679	31.74
260.895	64.51
261.112	66.56
261.328	23.55
261.544	11.26
261.761	70.65
261.977	66.56
262.193	62.46
262.409	76.8
262.626	13.31
262.842	48.13
263.058	3.07
263.274	-25.6
263.49	1.02
263.707	1.02
263.923	-11.26
264.139	-1.02
264.355	44.03
264.571	-27.65
264.787	25.6
265.004	78.85
265.22	62.46
265.436	-3.07
265.652	39.94
265.868	37.89
266.084	-3.07
266.3	31.74
266.516	-29.7
266.732	7.17
266.948	27.65
267.164	17.41
267.38	21.5
267.596	48.13
267.812	113.66
268.028	-25.6
268.244	19.46
268.46	23.55
268.676	-33.79
268.892	29.7
269.108	-19.46
269.324	21.5
269.54	-41.98
269.756	-37.89
269.972	54.27
270.188	87.04
270.403	-7.17
270.619	74.75
270.835	37.89
271.051	3.07
271.267	9.22
271.483	9.22
271.698	15.36
271.914	37.89
272.13	-27.65
272.346	33.79
272.562	-35.84
272.777	25.6
272.993	21.5
273.209	27.65
273.425	1.02
273.64	-9.22
273.856	21.5
274.072	17.41
274.287	-72.7
274.503	-21.5
274.719	-44.03
274.934	5.12
275.15	13.31
275.366	74.75
275.581	-13.31
275.797	19.46
276.012	9.22
276.228	21.5
276.444	-54.27
276.659	-11.26
276.875	-46.08
277.09	29.7
277.306	-35.84
277.521	46.08
277.737	9.22
277.952	-27.65
278.168	23.55
278.383	11.26
278.599	-7.17
278.814	19.46
279.03	-41.98
279.245	84.99
279.461	13.31
279.676	99.33
279.892	37.89
280.107	13.31
280.322	7.17
280.538	48.13
280.753	29.7
280.969	25.6
281.184	7.17
281.399	31.74
281.615	74.75
281.83	1.02
282.045	-11.26
282.26	50.18
282.476	-23.55
282.691	-31.74
282.906	7.17
283.122	17.41
283.337	29.7
283.552	-11.26
283.767	27.65
283.983	-37.89
284.198	-15.36
284.413	-7.17
284.628	-72.7
284.843	46.08
285.058	29.7
285.274	39.94
285.489	39.94
285.704	-35.84
285.919	-21.5
286.134	19.46
286.349	48.13
286.564	19.46
286.779	25.6
286.995	23.55
287.21	64.51
287.425	15.36
287.64	-5.12
287.855	35.84
288.07	-27.65
288.285	37.89
288.5	-9.22
288.715	-21.5
288.93	-17.41
289.145	46.08
289.36	95.23
289.575	-11.26
289.79	50.18
290.004	5.12
290.219	-23.55
290.434	31.74
290.649	7.17
290.864	44.03
291.079	48.13
291.294	56.32
291.509	-37.89
291.724	-19.46
291.938	70.65
292.153	-35.84
292.368	-3.07
292.583	44.03
292.798	-1.02
293.012	3.07
293.227	5.12
293.442	-23.55
293.657	9.22
293.871	-58.37
294.086	-31.74
294.301	5.12
294.516	13.31
294.73	62.46
294.945	23.55
295.16	-44.03
295.374	23.55
295.589	-21.5
295.804	31.74
296.018	-27.65
296.233	7.17
296.447	-1.02
296.662	17.41
296.877	46.08
297.091	-23.55
297.306	23.55
297.52	35.84
297.735	-25.6
297.949	9.22
298.164	-1.02
298.378	25.6
298.593	13.31
298.807	31.74
299.022	54.27
299.236	48.13
299.451	27.65
299.665	15.36
299.88	46.08
300.094	33.79
300.309	31.74
300.523	-19.46
300.737	50.18
300.952	76.8
301.166	13.31
301.381	-31.74
301.595	1.02
301.809	58.37
302.024	41.98
302.238	41.98
302.452	84.99
302.667	-27.65
302.881	19.46
303.095	41.98
303.309	48.13
303.524	27.65
303.738	-1.02
303.952	-44.03
304.166	80.89
304.381	31.74
304.595	84.99
304.809	-39.94
305.023	37.89
305.237	7.17
305.452	-46.08
305.666	-13.31
305.88	41.98
306.094	-5.12
306.308	3.07
306.522	-21.5
306.736	21.5
306.95	-82.94
307.164	9.22
307.379	-50.18
307.593	64.51
307.807	41.98
308.021	5.12
308.235	-9.22
308.449	78.85
308.663	-54.27
308.877	-13.31
309.091	21.5
309.305	27.65
309.519	-74.75
309.733	17.41
309.947	39.94
310.161	-21.5
310.374	3.07
310.588	1.02
310.802	-1.02
311.016	-13.31
311.23	66.56
311.444	44.03
311.658	80.89
311.872	99.33
312.085	-29.7
312.299	-13.31
312.513	-9.22
312.727	52.22
312.941	9.22
313.154	35.84
313.368	76.8
313.582	35.84
313.796	33.79
314.009	-29.7
314.223	27.65
314.437	56.32
314.651	-37.89
314.864	52.22
315.078	1.02
315.292	19.46
315.505	-23.55
315.719	17.41
315.933	-35.84
316.146	48.13
316.36	-48.13
316.573	19.46
316.787	17.41
317.001	70.65
317.214	54.27
317.428	-9.22
317.641	62.46
317.855	21.5
318.068	-17.41
318.282	52.22
318.495	15.36
318.709	87.04
318.922	23.55
319.136	31.74
319.349	115.71
319.563	-35.84
319.776	-7.17
319.99	-54.27
320.203	15.36
320.417	9.22
320.63	39.94
320.843	70.65
321.057	23.55
321.27	7.17
321.483	-27.65
321.697	19.46
321.91	15.36
322.124	-74.75
322.337	-3.07
322.55	60.42
322.763	13.31
322.977	58.37
323.19	-35.84
323.403	11.26
323.617	-25.6
323.83	93.18
324.043	-29.7
324.256	33.79
324.469	3.07
324.683	-29.7
324.896	58.37
325.109	-13.31
325.322	5.12
325.535	74.75
325.748	84.99
325.962	-3.07
326.175	-27.65
326.388	58.37
326.601	-17.41
326.814	7.17
327.027	48.13
327.24	21.5
327.453	-21.5
327.666	13.31
327.879	41.98
328.092	60.42
328.305	-44.03
328.518	44.03
328.731	5.12
328.944	17.41
329.157	17.41
329.37	-21.5
329.583	31.74
329.796	-15.36
330.009	-50.18
330.222	29.7
330.435	58.37
330.648	33.79
330.861	46.08
331.073	25.6
331.286	-7.17
331.499	44.03
331.712	-37.89
331.925	29.7
332.138	72.7
332.35	-64.51
332.563	1.02
332.776	-1.02
332.989	-35.84
333.202	-1.02
333.414	11.26
333.627	23.55
333.84	78.85
334.053	39.94
334.265	25.6
334.478	39.94
334.691	64.51
334.903	-17.41
335.116	13.31
335.329	-15.36
335.541	48.13
335.754	87.04
335.966	25.6
336.179	-5.12
336.392	72.7
336.604	9.22
336.817	66.56
337.029	52.22
337.242	11.26
337.454	-13.31
337.667	9.22
337.88	44.03
338.092	39.94
338.305	-35.84
338.517	-33.79
338.729	-3.07
338.942	13.31
339.154	13.31
339.367	1.02
339.579	11.26
339.792	-60.42
340.004	72.7
340.217	37.89
340.429	29.7
340.641	27.65
340.854	33.79
341.066	23.55
341.278	17.41
341.491	-25.6
341.703	-72.7
341.915	54.27
342.128	-23.55
342.34	-33.79
342.552	35.84
342.764	39.94
342.977	29.7
343.189	-44.03
343.401	103.42
343.613	-11.26
343.826	17.41
344.038	5.12
344.25	44.03
344.462	15.36
344.674	-1.02
344.886	74.75
345.099	66.56
345.311	-17.41
345.523	56.32
345.735	-17.41
345.947	41.98
346.159	33.79
346.371	-41.98
346.583	123.9
346.795	44.03
347.007	-11.26
347.219	-19.46
347.431	-56.32
347.643	27.65
347.855	-62.46
348.067	41.98
348.279	-25.6
348.491	89.09
348.703	70.65
348.915	-9.22
349.127	-48.13
349.339	3.07
349.551	-50.18
349.763	44.03
349.975	1.02
350.187	74.75
350.399	5.12
350.61	29.7
350.822	-7.17
351.034	15.36
351.246	-27.65
351.458	-29.7
351.669	3.07
351.881	-5.12
352.093	-9.22
352.305	5.12
352.517	21.5
352.728	-82.94
352.94	39.94
353.152	11.26
353.363	-23.55
353.575	7.17
353.787	76.8
353.999	25.6
354.21	35.84
354.422	64.51
354.633	44.03
354.845	19.46
355.057	62.46
355.268	29.7
355.48	1.02
355.692	-17.41
355.903	9.22
356.115	-29.7
356.326	-1.02
356.538	70.65
356.749	7.17
356.961	29.7
357.172	-25.6
357.384	72.7
357.595	41.98
357.807	48.13
358.018	58.37
358.23	19.46
358.441	70.65
358.653	-9.22
358.864	29.7
359.075	54.27
359.287	5.12
359.498	-1.02
359.709	-5.12
359.921	44.03
360.132	-35.84
360.344	29.7
360.555	-1.02
360.766	-31.74
360.977	3.07
361.189	74.75
361.4	21.5
361.611	-11.26
361.823	27.65
362.034	46.08
362.245	54.27
362.456	68.61
362.667	31.74
362.879	-31.74
363.09	11.26
363.301	-5.12
363.512	37.89
363.723	31.74
363.935	44.03
364.146	1.02
364.357	33.79
364.568	21.5
364.779	-7.17
364.99	60.42
365.201	78.85
365.412	29.7
365.623	21.5
365.834	37.89
366.045	-25.6
366.256	15.36
366.467	15.36
366.678	23.55
366.889	-13.31
367.1	58.37
367.311	25.6
367.522	50.18
367.733	-68.61
367.944	37.89
368.155	48.13
368.366	-5.12
368.577	37.89
368.788	-29.7
368.999	7.17
369.209	-19.46
369.42	29.7
369.631	29.7
369.842	9.22
370.053	35.84
370.264	66.56
370.474	11.26
370.685	-7.17
370.896	107.52
371.107	87.04
371.317	23.55
371.528	23.55
371.739	23.55
371.95	99.33
372.16	33.79
372.371	82.94
372.582	31.74
372.792	-17.41
373.003	-35.84
373.214	33.79
373.424	-41.98
373.635	3.07
373.846	27.65
374.056	-25.6
374.267	33.79
374.477	15.36
374.688	62.46
374.898	33.79
375.109	25.6
375.319	-3.07
375.53	11.26
375.74	46.08
375.951	37.89
376.161	37.89
376.372	121.85
376.582	52.22
376.793	13.31
377.003	44.03
377.214	19.46
377.424	128
377.635	27.65
377.845	-17.41
378.055	19.46
378.266	48.13
378.476	-5.12
378.686	37.89
378.897	37.89
379.107	58.37
379.317	62.46
379.528	3.07
379.738	62.46
379.948	21.5
380.158	41.98
380.369	84.99
380.579	-11.26
380.789	-21.5
380.999	80.89
381.21	44.03
381.42	-60.42
381.63	-19.46
381.84	-31.74
382.05	39.94
382.261	-21.5
382.471	107.52
382.681	54.27
382.891	41.98
383.101	-17.41
383.311	74.75
383.521	35.84
383.731	7.17
383.941	-7.17
384.151	46.08
384.361	60.42
384.571	62.46
384.781	13.31
384.991	56.32
385.201	39.94
385.411	62.46
385.621	44.03
385.831	72.7
386.041	35.84
386.251	50.18
386.461	52.22
386.671	-11.26
386.881	3.07
387.091	17.41
387.301	23.55
387.511	9.22
387.72	27.65
387.93	66.56
388.14	54.27
388.35	101.37
388.56	37.89
388.769	-1.02
388.979	44.03
389.189	-37.89
389.399	68.61
389.609	-5.12
389.818	33.79
390.028	-17.41
390.238	66.56
390.447	68.61
390.657	64.51
390.867	29.7
391.076	76.8
391.286	9.22
391.496	35.84
391.705	19.46
391.915	15.36
392.125	7.17
392.334	31.74
392.544	35.84
392.753	68.61
392.963	-13.31
393.172	82.94
393.382	-44.03
393.591	70.65
393.801	19.46
394.01	44.03
394.22	64.51
394.429	31.74
394.639	9.22
394.848	37.89
395.058	54.27
395.267	74.75
395.477	31.74
395.686	52.22
395.895	39.94
396.105	82.94
396.314	23.55
396.524	-19.46
396.733	87.04
396.942	48.13
397.152	101.37
397.361	-19.46
397.57	15.36
397.78	37.89
397.989	97.28
398.198	35.84
398.407	31.74
398.617	80.89
398.826	121.85
399.035	95.23
399.244	62.46
399.453	64.51
399.663	84.99
399.872	41.98
400.081	21.5
400.29	58.37
400.499	21.5
400.708	9.22
400.917	15.36
401.127	82.94
401.336	33.79
401.545	44.03
401.754	21.5
401.963	93.18
402.172	17.41
402.381	103.42
402.59	97.28
402.799	52.22
403.008	95.23
403.217	72.7
403.426	11.26
403.635	54.27
403.844	41.98
404.053	142.33
404.262	54.27
404.471	146.43
404.68	3.07
404.888	19.46
405.097	33.79
405.306	89.09
405.515	35.84
405.724	109.57
405.933	78.85
406.142	78.85
406.35	72.7
406.559	134.14
406.768	134.14
406.977	132.09
407.185	113.66
407.394	119.81
407.603	119.81
407.812	64.51
408.02	93.18
408.229	191.49
408.438	140.29
408.646	158.72
408.855	146.43
409.064	185.34
409.272	156.67
409.481	185.34
409.69	195.58
409.898	140.29
410.107	115.71
410.315	220.16
410.524	250.88
410.733	177.15
410.941	218.11
411.15	230.4
411.358	244.73
411.567	224.25
411.775	250.88
411.984	257.02
412.192	234.49
412.401	218.11
412.609	238.59
412.818	289.79
413.026	283.64
413.234	281.6
413.443	318.46
413.651	320.51
413.86	322.56
414.068	351.23
414.276	355.32
414.485	365.56
414.693	371.71
414.901	457.72
415.11	381.95
415.318	418.81
415.526	463.86
415.734	461.82
415.943	400.38
416.151	488.44
416.359	467.96
416.567	463.86
416.776	560.12
416.984	566.26
417.192	683
417.4	560.12
417.608	611.32
417.817	594.93
418.025	611.32
418.233	711.67
418.441	726
418.649	674.81
418.857	689.14
419.065	775.16
419.273	812.02
419.481	764.92
419.689	840.69
419.897	965.62
420.105	910.32
420.313	1037.3
420.521	1000.43
420.729	883.7
420.937	1018.86
421.145	1068.02
421.353	1127.41
421.561	1178.61
421.769	1117.17
421.977	1291.24
422.185	1125.36
422.393	1350.64
422.601	1371.12
422.809	1399.79
423.017	1424.36
423.224	1442.79
423.432	1692.65
423.64	1448.94
423.848	1620.97
424.056	1610.73
424.263	1747.94
424.471	1692.65
424.679	1706.98
424.887	1901.54
425.094	2032.61
425.302	1969.12
425.51	1977.31
425.718	2085.86
425.925	1981.41
426.133	2143.2
426.341	2231.26
426.548	2376.67
426.756	2401.24
426.964	2395.1
427.171	2571.22
427.379	2563.03
427.586	2657.24
427.794	2743.25
428.001	2757.59
428.209	2993.11
428.417	2810.84
428.624	3027.92
428.832	3124.18
429.039	3099.6
429.247	3101.65
429.454	3539.91
429.662	3445.71
429.869	3445.71
430.076	3576.78
430.284	3605.45
430.491	3742.66
430.699	3955.65
430.906	3982.28
431.114	4017.09
431.321	3994.56
431.528	4205.5
431.736	4459.45
431.943	4570.04
432.15	4580.28
432.358	4623.29
432.565	4901.81
432.772	4727.74
432.979	4897.72
433.187	5323.69
433.394	5102.51
433.601	5581.74
433.808	5540.78
434.016	5362.61
434.223	5798.82
434.43	6040.48
434.637	6087.59
434.844	6439.84
435.052	6132.64
435.259	6431.65
435.466	6439.84
435.673	6392.73
435.88	6734.75
436.087	7123.86
436.294	7277.46
436.501	7107.48
436.708	7068.56
436.915	7525.26
437.122	7469.97
437.329	7654.28
437.537	8043.4
437.743	8186.76
437.95	8053.64
438.157	8420.22
438.364	8706.94
438.571	8790.91
438.778	8885.11
438.985	9794.41
439.192	9286.51
439.399	9673.58
439.606	9401.2
439.813	9771.88
440.02	10408.8
440.227	10353.51
440.433	10187.62
440.64	10388.32
440.847	10527.58
441.054	10554.21
441.261	11309.91
441.467	11246.42
441.674	11434.83
441.881	11977.55
442.088	11959.11
442.294	11668.3
442.501	11957.07
442.708	12405.57
442.914	12663.61
443.121	13495.09
443.328	12815.16
443.534	13701.93
443.741	13390.64
443.948	13376.31
444.154	14342.95
444.361	14138.15
444.568	14338.85
444.774	13955.88
444.981	14426.92
445.187	14789.41
445.394	15573.78
445.6	15012.63
445.807	16884.48
446.013	16173.83
446.22	16456.45
446.426	17119.99
446.633	17015.55
446.839	17683.19
447.046	16812.8
447.252	17853.17
447.459	17887.98
447.665	17832.69
447.871	18715.36
448.078	19170.01
448.284	18240.23
448.491	18887.39
448.697	19831.51
448.903	19917.52
449.11	19897.04
449.316	19880.66
449.522	20206.28
449.728	20722.37
449.935	20720.32
450.141	20738.76
450.347	21050.05
450.553	20323.02
450.76	21050.05
450.966	21295.8
451.172	21144.25
451.378	21621.43
451.584	20964.03
451.791	21924.53
451.997	21734.07
452.203	22278.83
452.409	22055.6
452.615	21703.35
452.821	21066.43
453.027	20906.69
453.233	21971.63
453.44	20898.5
453.646	21271.23
453.852	21586.61
454.058	22016.69
454.264	20941.5
454.47	21490.36
454.676	20861.63
454.882	21822.13
455.088	19743.44
455.294	20232.91
455.5	20292.3
455.705	20642.5
455.911	19540.69
456.117	19313.37
456.323	19053.28
456.529	18004.72
456.735	18977.5
456.941	18094.83
457.147	18017.01
457.352	17347.32
457.558	17423.09
457.764	17062.65
457.97	16894.72
458.176	16454.4
458.381	16468.74
458.587	15887.12
458.793	15735.57
458.999	14967.58
459.204	16075.53
459.41	15450.9
459.616	14316.33
459.821	14646.05
460.027	14621.47
460.233	14193.45
460.438	13556.53
460.644	13615.92
460.85	13003.58
461.055	13056.82
461.261	13011.77
461.466	11914.06
461.672	11633.49
461.878	12415.81
462.083	11776.84
462.289	11305.81
462.494	11070.3
462.7	10820.44
462.905	10406.75
463.111	10797.92
463.316	11029.34
463.522	10394.47
463.727	10640.22
463.932	10478.43
464.138	10595.17
464.343	10607.45
464.549	10214.24
464.754	10505.06
464.959	10554.21
465.165	10363.75
465.37	9991.02
465.575	9679.72
465.781	10113.89
465.986	10183.52
466.191	9753.45
466.397	9374.58
466.602	9085.81
466.807	9448.3
467.012	9532.27
467.218	9413.49
467.423	9036.66
467.628	9446.26
467.833	9870.19
468.038	9259.89
468.244	9042.81
468.449	9358.19
468.654	9126.77
468.859	8987.51
469.064	9167.73
469.269	8831.87
469.474	8764.28
469.679	8823.67
469.885	8788.86
470.09	8778.62
470.295	8844.15
470.5	8422.27
470.705	8571.77
470.91	8467.33
471.115	8412.03
471.32	8504.19
471.525	8145.8
471.73	8256.39
471.935	8145.8
472.139	7975.81
472.344	7963.53
472.549	8094.6
472.754	7814.02
472.959	7734.15
473.164	7379.86
473.369	7342.99
473.574	7824.26
473.778	7699.34
473.983	7480.21
474.188	7586.7
474.393	7205.78
474.598	7158.67
474.802	7027.6
475.007	7138.2
475.212	7193.49
475.417	6796.18
475.621	6691.74
475.826	6826.9
476.031	6734.75
476.235	6431.65
476.44	6732.7
476.645	6583.2
476.849	6585.24
477.054	6532
477.259	6564.76
477.463	6362.01
477.668	6296.48
477.872	6245.28
478.077	6136.74
478.282	5911.46
478.486	6196.13
478.691	6036.39
478.895	5921.7
479.1	5737.38
479.304	6001.57
479.509	5786.54
479.713	5807.02
479.918	5821.35
480.122	5854.12
480.326	5688.23
480.531	5766.06
480.735	5548.97
480.94	5620.65
481.144	5663.66
481.348	5467.05
481.553	5624.75
481.757	5413.81
481.961	5591.98
482.166	5659.56
482.37	5639.08
482.574	5360.56
482.778	5422
482.983	5624.75
483.187	5577.64
483.391	5567.4
483.595	5465
483.8	5446.57
484.004	5522.35
484.208	5524.4
484.412	5475.24
484.616	5495.72
484.821	5520.3
485.025	5405.61
485.229	5516.2
485.433	5295.02
485.637	5448.62
485.841	5563.31
486.045	5442.48
486.249	5583.79
486.453	5385.13
486.657	5477.29
486.861	5462.96
487.065	5329.84
487.269	5481.39
487.473	5372.85
487.677	5446.57
487.881	5548.97
488.085	5323.69
488.289	5555.12
488.493	5524.4
488.697	5405.61
488.901	5499.82
489.105	5483.44
489.309	5493.68
489.512	5634.99
489.716	5596.07
489.92	5460.91
490.124	5538.73
490.328	5786.54
490.531	5544.88
490.735	5661.61
490.939	5757.86
491.143	5585.83
491.346	5634.99
491.55	5788.58
491.754	5684.14
491.958	5764.01
492.161	5764.01
492.365	5770.15
492.569	5821.35
492.772	5745.58
492.976	5913.51
493.18	5862.31
493.383	6065.06
493.587	6054.82
493.79	6163.36
493.994	5993.38
494.197	6077.35
494.401	6325.15
494.605	6054.82
494.808	6189.99
495.012	6243.23
495.215	6218.66
495.419	6388.64
495.622	6423.45
495.825	6505.37
496.029	6476.7
496.232	6595.48
496.436	6411.17
496.639	6566.81
496.843	6738.84
497.046	6896.53
497.249	6871.96
497.453	6912.92
497.656	7144.34
497.859	6992.79
498.063	7043.99
498.266	7244.69
498.469	7230.35
498.673	7400.34
498.876	7463.82
499.079	7598.99
499.282	7596.94
499.485	7678.86
499.689	7811.98
499.892	7988.1
500.095	7865.22
500.298	8348.54
500.501	8084.36
500.705	8242.05
500.908	8680.32
501.111	8532.86
501.314	8651.64
501.517	8766.33
501.72	8719.23
501.923	8596.35
502.126	9003.89
502.329	9184.12
502.532	9104.25
502.735	9171.83
502.938	9259.89
503.141	9622.38
503.344	9497.46
503.547	9612.14
503.75	10031.97
503.953	9831.27
504.156	9974.63
504.359	10212.2
504.562	10296.16
504.765	10398.56
504.968	10505.06
505.17	10797.92
505.373	10926.94
505.576	11021.14
505.779	10990.42
505.982	11215.7
506.185	11432.79
506.387	11389.78
506.59	11635.53
506.793	11793.23
506.996	11785.04
507.198	12129.09
507.401	11963.21
507.604	12051.27
507.807	12569.41
508.009	12622.66
508.212	12708.67
508.415	12997.43
508.617	13196.09
508.82	13089.59
509.022	13224.76
509.225	13421.36
509.428	13474.61
509.63	13697.84
509.833	13855.53
510.035	13933.36
510.238	14050.09
510.44	14422.82
510.643	14433.06
510.845	14861.09
511.048	14388
511.25	14830.37
511.453	15115.03
511.655	15891.21
511.858	15498
512.06	15784.72
512.262	15887.12
512.465	15778.58
512.667	16278.28
512.87	16368.39
513.072	16311.05
513.274	16700.16
513.477	16960.25
513.679	17294.07
513.881	17369.85
514.084	17500.92
514.286	17636.08
514.488	17619.7
514.69	18074.35
514.893	18264.81
515.095	18541.29
515.297	18723.55
515.499	18825.95
515.701	18946.78
515.904	19253.98
516.106	19501.78
516.308	19829.46
516.51	20087.5
516.712	20222.67
516.914	20378.31
517.116	20333.26
517.318	20781.76
517.52	20890.31
517.722	21000.9
517.925	21088.96
518.127	21443.26
518.329	21674.68
518.531	21836.47
518.733	22166.19
518.935	22479.53
519.136	22436.52
519.338	22964.9
519.54	22987.43
519.742	23325.34
519.944	23249.57
520.146	23472.79
520.348	24001.17
520.55	24048.27
520.752	24263.31
520.954	24595.08
521.155	24244.88
521.357	25037.44
521.559	25256.57
521.761	25580.15
521.963	25582.2
522.164	25522.81
522.366	25963.12
522.568	26139.25
522.77	26344.05
522.971	26767.98
523.173	26387.05
523.375	27212.38
523.576	26647.15
523.778	26577.51
523.98	27425.37
524.181	27517.53
524.383	27531.87
524.584	28281.42
524.786	28047.96
524.988	28017.24
525.189	28281.42
525.391	28338.77
525.592	28815.94
525.794	28901.96
525.995	29000.26
526.197	29086.28
526.398	29301.31
526.6	29522.49
526.801	29792.83
527.003	29579.84
527.204	29631.04
527.406	29901.37
527.607	29712.95
527.808	29989.43
528.01	29712.95
528.211	30241.33
528.412	30870.06
528.614	30489.13
528.815	30945.83
529.016	31052.33
529.218	30927.4
529.419	30771.75
529.62	30999.08
529.822	30806.57
530.023	31345.19
530.224	30937.64
530.425	31291.94
530.626	30999.08
530.828	31074.85
531.029	31242.79
531.23	31255.08
531.431	31320.61
531.632	31650.33
531.833	31423.01
532.035	31537.69
532.236	31191.59
532.437	31894.04
532.638	31857.18
532.839	32072.21
533.04	32199.19
533.241	31470.11
533.442	32360.98
533.643	32229.91
533.844	31795.74
534.045	32291.35
534.246	31691.29
534.447	32143.89
534.648	31980.06
534.849	31928.86
535.05	32025.11
535.251	32264.72
535.451	31801.88
535.652	32610.83
535.853	32051.73
536.054	32537.1
536.255	32313.87
536.456	31605.28
536.657	32756.24
536.857	32098.84
537.058	31955.48
537.259	32543.25
537.46	32721.42
537.66	31984.15
537.861	32127.51
538.062	32510.48
538.263	32254.48
538.463	32311.83
538.664	32227.86
538.865	32537.1
539.065	32694.8
539.266	32123.41
539.466	32465.42
539.667	32213.52
539.868	33026.57
540.068	32426.51
540.269	32209.43
540.469	32672.27
540.67	32600.59
540.87	32610.83
541.071	32229.91
541.271	32635.41
541.472	32227.86
541.672	32072.21
541.873	32285.2
542.073	32107.03
542.274	32606.73
542.474	32215.57
542.675	31844.89
542.875	32414.23
543.075	32340.5
543.276	31844.89
543.476	32277.01
543.676	31814.17
543.877	32557.58
544.077	32412.18
544.277	32258.58
544.478	31965.72
544.678	32367.12
544.878	31810.07
545.078	32199.19
545.279	31951.38
545.479	32090.65
545.679	32264.72
545.879	32348.69
546.079	32008.73
546.28	32098.84
546.48	31857.18
546.68	31945.24
546.88	32250.39
547.08	32072.21
547.28	32176.66
547.48	32156.18
547.68	31978.01
547.88	32209.43
548.081	32197.14
548.281	32051.73
548.481	31992.34
548.681	32512.53
548.881	32174.61
549.081	32305.68
549.28	31894.04
549.48	32352.79
549.68	32068.12
549.88	32694.8
550.08	32477.71
550.28	32008.73
550.48	31787.55
550.68	32309.78
550.88	32033.3
551.08	31885.85
551.279	32303.64
551.479	31785.5
551.679	32016.92
551.879	31607.33
552.079	32209.43
552.278	32238.1
552.478	31795.74
552.678	32145.94
552.878	32160.28
553.077	32141.85
553.277	32018.97
553.477	32057.88
553.676	31857.18
553.876	31781.4
554.076	31967.77
554.275	31713.82
554.475	31527.45
554.674	31562.27
554.874	31896.09
555.074	31722.01
555.273	31885.85
555.473	32064.02
555.672	31484.45
555.872	32066.07
556.071	31345.19
556.271	31787.55
556.47	31717.92
556.67	31287.84
556.869	31461.92
557.068	31984.15
557.268	31390.24
557.467	31484.45
557.667	31425.06
557.866	31302.18
558.065	31494.69
558.265	31236.64
558.464	31001.13
558.663	31164.96
558.863	30988.84
559.062	31283.75
559.261	30657.07
559.461	31332.9
559.66	31005.22
559.859	30933.54
560.058	30700.08
560.258	30816.81
560.457	30609.96
560.656	30689.84
560.855	31074.85
561.054	30841.39
561.253	30497.33
561.453	30464.56
561.652	30618.16
561.851	30589.49
562.05	30345.78
562.249	30124.6
562.448	30542.38
562.647	30452.27
562.846	29983.29
563.045	30261.81
563.244	29753.91
563.443	30231.09
563.642	29745.72
563.841	30265.91
564.04	29852.22
564.239	30282.29
564.438	29815.35
564.637	29704.76
564.836	30091.83
565.035	29516.35
565.234	29708.86
565.432	29549.12
565.631	29313.6
565.83	29424.19
566.029	29225.54
566.228	29372.99
566.427	29375.04
566.625	29411.9
566.824	28885.58
567.023	29248.07
567.222	28504.65
567.42	29002.31
567.619	28908.1
567.818	28836.42
568.016	28648.01
568.215	29069.89
568.414	28490.32
568.612	28881.48
568.811	28174.93
569.01	28584.52
569.208	28103.25
569.407	28410.45
569.605	27871.83
569.804	28090.96
570.002	28131.92
570.201	28181.07
570.4	27732.57
570.598	27429.47
570.797	27701.85
570.995	27660.89
571.193	27437.66
571.392	27697.75
571.59	27220.58
571.789	27167.33
571.987	27286.11
572.186	27365.98
572.384	26956.39
572.582	27021.92
572.781	27316.83
572.979	26444.4
573.177	26810.98
573.376	26929.77
573.574	26462.83
573.772	26757.74
573.971	26479.21
574.169	26753.64
574.367	26161.78
574.565	26276.46
574.763	26079.86
574.962	25709.18
575.16	26022.51
575.358	25698.94
575.556	25723.51
575.754	25973.36
575.952	25567.87
576.151	25752.18
576.349	25238.14
576.547	25516.67
576.745	25666.17
576.943	25342.59
577.141	25365.12
577.339	25086.59
577.537	25000.58
577.735	24693.38
577.933	24824.45
578.131	25166.46
578.329	24746.63
578.527	24423.05
578.725	24539.79
578.923	24810.12
579.121	24679.05
579.319	24449.67
579.516	24554.12
579.714	24355.47
579.912	24539.79
580.11	24539.79
580.308	24287.89
580.506	23995.03
580.704	23478.94
580.901	23853.72
581.099	24134.29
581.297	23616.15
581.495	23501.47
581.692	23743.13
581.89	23319.2
582.088	23872.15
582.285	23218.85
582.483	23646.87
582.681	23487.13
582.878	23335.58
583.076	22919.84
583.274	23218.85
583.471	22895.27
583.669	23186.08
583.866	22770.34
584.064	23003.81
584.262	22508.2
584.459	22735.53
584.657	22694.57
584.854	22794.92
585.052	22225.58
585.249	22448.81
585.447	22327.98
585.644	22158
585.841	22428.33
586.039	22387.37
586.236	21891.76
586.434	21908.15
586.631	21899.95
586.828	22061.74
587.026	22002.35
587.223	21711.54
587.42	21842.61
587.618	21846.71
587.815	21353.15
588.012	21303.99
588.21	21375.67
588.407	21547.7
588.604	21240.51
588.801	21285.56
588.999	21285.56
589.196	21189.31
589.393	21019.33
589.59	21101.25
589.787	21109.44
589.984	20626.12
590.182	20830.91
590.379	20701.89
590.576	20574.92
590.773	20679.36
590.97	20413.13
591.167	20560.58
591.364	20331.21
591.561	20626.12
591.758	20288.2
591.955	20421.32
592.152	20415.18
592.349	20052.69
592.546	20257.48
592.743	20138.7
592.94	19813.07
593.137	20046.54
593.334	20112.08
593.531	19604.18
593.727	19772.11
593.924	19868.37
594.121	19483.35
594.318	19735.25
594.515	19419.86
594.712	19526.36
594.908	19524.31
595.105	19225.31
595.302	19249.88
595.499	19294.94
595.696	19219.16
595.892	18901.73
596.089	19184.35
596.286	19131.1
596.482	18901.73
596.679	19053.28
596.876	18805.47
597.072	18674.4
597.269	18782.95
597.466	18621.16
597.662	18539.24
597.859	18811.62
598.055	18662.12
598.252	18582.24
598.448	18438.89
598.645	18074.35
598.841	18344.68
599.038	18569.96
599.234	18008.81
599.431	17779.44
599.627	18047.72
599.824	18125.55
600.02	17781.49
600.217	18238.19
600.413	17758.96
600.609	17961.71
600.806	17527.54
601.002	17554.16
601.198	17386.23
601.395	17541.88
601.591	17492.73
601.787	17480.44
601.984	17330.94
602.18	17500.92
602.376	17394.42
602.572	17257.21
602.769	17529.59
602.965	17255.16
603.161	17193.72
603.357	17148.67
603.553	16995.07
603.75	16884.48
603.946	16804.61
604.142	16935.68
604.338	16702.21
604.534	16579.33
604.73	16597.76
604.926	16530.18
605.122	16595.71
605.318	16411.4
605.514	16300.81
605.71	16347.91
605.906	16241.42
606.102	16421.64
606.298	16171.79
606.494	16096.01
606.69	16065.29
606.886	16204.55
607.082	16102.15
607.278	16028.43
607.474	15504.15
607.67	15833.87
607.866	15700.75
608.062	15850.25
608.257	15516.44
608.453	15624.98
608.649	15649.55
608.845	15399.7
609.041	15573.78
609.236	15575.83
609.432	15405.84
609.628	15420.18
609.824	15551.25
610.019	15061.79
610.215	15397.65
610.411	15303.45
610.606	15131.42
610.802	15401.75
610.998	15237.91
611.193	15127.32
611.389	14975.77
611.584	14979.87
611.78	14822.17
611.976	14900
612.171	14652.19
612.367	14762.78
612.562	14697.25
612.758	14766.88
612.953	14920.48
613.149	14793.5
613.344	14619.42
613.539	14983.96
613.735	14713.63
613.93	14697.25
614.126	14711.58
614.321	14684.96
614.517	14404.39
614.712	14459.68
614.907	14369.57
615.103	14590.75
615.298	14357.28
615.493	14654.24
615.688	14109.48
615.884	14424.87
616.079	14269.22
616.274	14316.33
616.47	14078.76
616.665	14132.01
616.86	13816.62
617.055	13900.59
617.25	13972.27
617.445	13941.55
617.641	13839.15
617.836	13767.47
618.031	13464.37
618.226	13806.38
618.421	13589.3
618.616	13882.16
618.811	13726.51
619.006	13679.41
619.201	13314.87
619.396	13364.02
619.591	13343.54
619.786	13333.3
619.981	13071.16
620.176	13175.61
620.371	13241.14
620.566	13263.67
620.761	13151.03
620.956	13202.23
621.151	12970.81
621.346	12999.48
621.541	12559.17
621.735	13134.65
621.93	12587.84
622.125	12528.45
622.32	12424
622.515	12333.89
622.709	12432.19
622.904	12188.49
623.099	12153.67
623.294	12381
623.488	11936.59
623.683	11993.93
623.878	11803.47
624.072	11889.48
624.267	11811.66
624.462	11862.86
624.656	11613.01
624.851	11819.85
625.046	11678.54
625.24	11488.08
625.435	11350.87
625.629	11387.73
625.824	11311.96
626.018	11322.2
626.213	10982.23
626.407	11041.62
626.602	11047.77
626.796	11068.25
626.991	11139.93
627.185	10931.03
627.38	10904.41
627.574	10740.57
627.768	10787.68
627.963	10677.09
628.157	10664.8
628.352	10646.37
628.546	10416.99
628.74	10697.56
628.935	10468.19
629.129	10634.08
629.323	10302.31
629.517	10224.48
629.712	10326.88
629.906	10179.43
630.1	9935.72
630.294	10013.54
630.489	10046.31
630.683	9956.2
630.877	9753.45
631.071	9827.18
631.265	9960.3
631.459	9829.23
631.653	9786.22
631.848	9466.74
632.042	9603.95
632.236	9562.99
632.43	9458.54
632.624	9550.7
632.818	9536.37
633.012	9163.64
633.206	9161.59
633.4	9454.45
633.594	9110.39
633.788	9180.02
633.982	9239.41
634.176	9053.05
634.369	8919.93
634.563	9018.23
634.757	8801.15
634.951	8684.41
635.145	8831.87
635.339	8809.34
635.533	8760.19
635.726	8659.84
635.92	8575.87
636.114	8620.92
636.308	8612.73
636.501	8651.64
636.695	8407.94
636.889	8309.63
637.083	8446.85
637.276	8213.38
637.47	8100.74
637.664	8092.55
637.857	8221.57
638.051	8266.63
638.244	8027.01
638.438	7861.13
638.632	8012.68
638.825	8018.82
639.019	7854.98
639.212	7971.72
639.406	8067.97
639.599	7871.37
639.793	7910.28
639.986	7545.74
640.18	7816.07
640.373	7760.78
640.567	7340.94
640.76	7451.53
640.954	7441.29
641.147	7402.38
641.34	7537.55
641.534	7242.64
641.727	7261.07
641.92	7285.65
642.114	7130
642.307	7234.45
642.5	7052.18
642.694	7107.48
642.887	7056.28
643.08	7146.39
643.273	6998.93
643.467	7011.22
643.66	6894.49
643.853	6859.67
644.046	6689.69
644.239	6843.29
644.432	6620.06
644.626	6572.96
644.819	6718.36
645.012	6503.32
645.205	6411.17
645.398	6390.69
645.591	6345.63
645.784	6407.07
645.977	6251.42
646.17	6327.2
646.363	6142.88
646.556	6128.55
646.749	6364.06
646.942	6302.62
647.135	6214.56
647.328	6026.15
647.521	6087.59
647.714	5972.9
647.907	5917.61
648.099	5997.48
648.292	6020
648.485	5876.65
648.678	5923.75
648.871	5886.89
649.064	5903.27
649.256	5780.39
649.449	5741.48
649.642	5741.48
649.835	5634.99
650.027	5665.71
650.22	5567.4
650.413	5362.61
650.605	5471.15
650.798	5600.17
650.991	5516.2
651.183	5450.67
651.376	5393.33
651.568	5432.24
651.761	5155.76
651.954	5358.51
652.146	5319.6
652.339	5202.86
652.531	5258.16
652.724	5223.34
652.916	5133.23
653.109	5237.68
653.301	4987.83
653.494	5215.15
653.686	4961.2
653.879	5098.42
654.071	5028.79
654.263	5036.98
654.456	4733.88
654.648	4981.68
654.84	4885.43
655.033	4811.7
655.225	5014.45
655.417	4801.46
655.61	4873.14
655.802	4625.34
655.994	4803.51
656.186	4682.68
656.379	4617.15
656.571	4524.99
656.763	4731.83
656.955	4514.75
657.148	4518.84
657.34	4545.47
657.532	4520.89
657.724	4422.59
657.916	4565.95
658.108	4451.26
658.3	4293.57
658.492	4279.23
658.684	4314.05
658.876	4139.97
659.068	4383.68
659.26	4133.82
659.452	4129.73
659.644	4101.06
659.836	4160.45
660.028	4107.2
660.22	4078.53
660.412	4197.31
660.604	4025.28
660.796	3886.02
660.988	4041.67
661.18	3836.87
661.372	3947.46
661.563	3974.08
661.755	3869.64
661.947	3965.89
662.139	3910.6
662.331	3959.75
662.522	3855.3
662.714	4000.71
662.906	3709.9
663.097	3777.48
663.289	3789.77
663.481	3767.24
663.673	3716.04
663.864	3642.31
664.056	3652.55
664.247	3716.04
664.439	3453.9
664.631	3611.59
664.822	3627.98
665.014	3496.91
665.205	3554.25
665.397	3464.14
665.588	3447.76
665.78	3433.42
665.971	3439.56
666.163	3466.19
666.354	3458
666.546	3324.88
666.737	3423.18
666.929	3384.27
667.12	3431.37
667.311	3302.35
667.503	3308.49
667.694	3328.97
667.885	3326.93
668.077	3302.35
668.268	3234.77
668.459	3208.14
668.651	3314.64
668.842	3199.95
669.033	3197.9
669.224	3204.05
669.416	3011.54
669.607	2997.2
669.798	3009.49
669.989	3120.08
670.18	3066.83
670.371	2997.2
670.563	3062.74
670.754	3077.07
670.945	3062.74
671.136	3089.36
671.327	3118.03
671.518	2964.43
671.709	3105.74
671.9	2909.14
672.091	3058.64
672.282	3025.87
672.473	2989.01
672.664	2997.2
672.855	2898.9
673.046	2941.91
673.237	2948.05
673.428	2868.18
673.619	2946
673.809	2847.7
674	2907.09
674.191	2833.36
674.382	2819.03
674.573	2862.04
674.764	2864.08
674.954	2706.39
675.145	2900.95
675.336	2837.46
675.527	2722.77
675.717	2866.13
675.908	2829.27
676.099	2644.95
676.289	2722.77
676.48	2659.29
676.671	2698.2
676.861	2673.62
677.052	2669.53
677.243	2685.91
677.433	2730.97
677.624	2735.06
677.814	2720.73
678.005	2737.11
678.195	2622.42
678.386	2683.86
678.576	2655.19
678.767	2628.57
678.957	2700.25
679.148	2663.38
679.338	2620.38
679.529	2608.09
679.719	2647
679.909	2636.76
680.1	2593.75
680.29	2630.62
680.481	2671.58
680.671	2667.48
680.861	2481.11
681.052	2558.94
681.242	2626.52
681.432	2577.37
681.622	2554.84
681.813	2548.7
682.003	2524.12
682.193	2616.28
682.383	2612.18
682.573	2517.98
682.764	2563.03
682.954	2550.75
683.144	2595.8
683.334	2372.57
683.524	2542.55
683.714	2520.03
683.904	2509.79
684.094	2393.05
684.284	2563.03
684.474	2585.56
684.664	2550.75
684.854	2413.53
685.044	2534.36
685.234	2391
685.424	2343.9
685.614	2470.87
685.804	2434.01
685.994	2450.39
686.184	2505.69
686.374	2603.99
686.564	2485.21
686.753	2452.44
686.943	2491.35
687.133	2393.05
687.323	2505.69
687.513	2333.66
687.702	2386.91
687.892	2362.33
688.082	2436.06
688.272	2434.01
688.461	2460.63
688.651	2366.43
688.841	2333.66
689.03	2345.95
689.22	2345.95
689.41	2370.52
689.599	2368.48
689.789	2298.84
689.979	2319.32
690.168	2274.27
690.358	2288.61
690.547	2356.19
690.737	2378.72
690.926	2327.52
691.116	2266.08
691.305	2325.47
691.495	2327.52
691.684	2223.07
691.874	2380.76
692.063	2264.03
692.252	2304.99
692.442	2280.41
692.631	2264.03
692.82	2114.53
693.01	2345.95
693.199	2286.56
693.388	2171.87
693.578	2161.63
693.767	2225.12
693.956	2270.17
694.146	2296.8
694.335	2173.92
694.524	2223.07
694.713	2309.08
694.902	2198.49
695.092	2382.81
695.281	2323.42
695.47	2345.95
695.659	2167.77
695.848	2280.41
696.037	2268.13
696.226	2311.13
696.415	2266.08
696.604	2331.61
696.793	2264.03
696.982	2245.6
697.171	2249.69
697.36	2286.56
697.549	2304.99
697.738	2188.25
697.927	2257.89
698.116	2270.17
698.305	2264.03
698.494	2151.39
698.683	2257.89
698.872	2270.17
699.061	2292.7
699.25	2210.78
699.438	2251.74
699.627	2241.5
699.816	2153.44
700.005	2204.64
700.193	2173.92
700.382	2313.18
700.571	2255.84
700.76	2178.01
700.948	2235.36
701.137	2171.87
701.326	2278.37
701.514	2132.96
701.703	2212.83
701.892	2175.97
702.08	2245.6
702.269	2206.69
702.457	2272.22
702.646	2192.35
702.834	2165.73
703.023	2218.97
703.212	2233.31
703.4	2126.82
703.589	2247.65
703.777	2243.55
703.965	2180.06
704.154	2239.45
704.342	2096.1
704.531	2182.11
704.719	2048.99
704.907	2110.43
705.096	2130.91
705.284	2175.97
705.472	2098.14
705.661	2079.71
705.849	2145.25
706.037	2141.15
706.226	2098.14
706.414	2202.59
706.602	2208.73
706.79	2171.87
706.979	2155.49
707.167	2173.92
707.355	2032.61
707.543	2053.09
707.731	2081.76
707.919	2005.99
708.107	2048.99
708.296	2012.13
708.484	1971.17
708.672	2042.85
708.86	2020.32
709.048	2036.7
709.236	2087.9
709.424	1991.65
709.612	1987.55
709.8	1938.4
709.988	2028.51
710.176	2030.56
710.364	1985.51
710.551	2028.51
710.739	1969.12
710.927	2014.18
711.115	2022.37
711.303	2024.42
711.491	1840.1
711.679	1825.76
711.866	1881.06
712.054	1946.59
712.242	1829.86
712.43	1860.58
712.617	2073.57
712.805	1856.48
712.993	1885.16
713.181	1889.25
713.368	1922.02
713.556	1813.48
713.744	2034.66
713.931	1883.11
714.119	1965.03
714.306	1819.62
714.494	1846.24
714.682	1903.59
714.869	1827.81
715.057	1934.31
715.244	1805.28
715.432	1854.44
715.619	1768.42
715.807	1889.25
715.994	1711.08
716.182	1840.1
716.369	1764.33
716.556	1692.65
716.744	1715.17
716.931	1762.28
717.119	1821.67
717.306	1780.71
717.493	1829.86
717.681	1774.56
717.868	1809.38
718.055	1696.74
718.242	1862.63
718.43	1680.36
718.617	1801.19
718.804	1698.79
718.991	1749.99
719.179	1786.85
719.366	1627.11
719.553	1659.88
719.74	1612.78
719.927	1700.84
720.114	1553.38
720.301	1625.06
720.488	1584.1
720.676	1620.97
720.863	1659.88
721.05	1635.3
721.237	1651.69
721.424	1645.54
721.611	1547.24
721.798	1610.73
721.985	1709.03
722.172	1598.44
722.358	1676.26
722.545	1569.77
722.732	1516.52
722.919	1580.01
723.106	1551.34
723.293	1563.62
723.48	1569.77
723.667	1465.32
723.853	1582.06
724.04	1647.59
724.227	1496.04
724.414	1510.38
724.6	1582.06
724.787	1440.75
724.974	1557.48
725.161	1504.23
725.347	1539.05
725.534	1555.43
725.72	1549.29
725.907	1561.58
726.094	1414.12
726.28	1500.14
726.467	1549.29
726.653	1469.42
726.84	1502.19
727.027	1391.59
727.213	1489.9
727.4	1551.34
727.586	1559.53
727.773	1526.76
727.959	1469.42
728.145	1453.03
728.332	1508.33
728.518	1397.74
728.705	1485.8
728.891	1422.31
729.077	1338.35
729.264	1410.03
729.45	1444.84
729.636	1455.08
729.823	1369.07
730.009	1395.69
730.195	1233.9
730.382	1360.88
730.568	1403.88
730.754	1352.68
730.94	1324.01
731.126	1393.64
731.313	1307.63
731.499	1442.79
731.685	1283.05
731.871	1321.96
732.057	1338.35
732.243	1395.69
732.429	1274.86
732.615	1352.68
732.801	1369.07
732.987	1371.12
733.173	1321.96
733.359	1399.79
733.545	1373.16
733.731	1278.96
733.917	1350.64
734.103	1299.44
734.289	1297.39
734.475	1387.5
734.661	1303.53
734.847	1192.94
735.033	1364.97
735.219	1143.79
735.404	1410.03
735.59	1233.9
735.776	1309.68
735.962	1360.88
736.148	1248.24
736.333	1197.04
736.519	1211.37
736.705	1274.86
736.89	1340.4
737.076	1393.64
737.262	1264.62
737.447	1274.86
737.633	1211.37
737.819	1332.2
738.004	1252.33
738.19	1194.99
738.375	1242.09
738.561	1233.9
738.747	1299.44
738.932	1266.67
739.118	1268.72
739.303	1248.24
739.489	1266.67
739.674	1199.09
739.859	1168.37
740.045	1092.59
740.23	1170.41
740.416	1043.44
740.601	1172.46
740.786	1225.71
740.972	1045.49
741.157	1158.13
741.342	1158.13
741.528	1166.32
741.713	1178.61
741.898	1098.74
742.084	1137.65
742.269	1174.51
742.454	1172.46
742.639	1139.69
742.824	1133.55
743.01	1108.98
743.195	1131.5
743.38	1059.82
743.565	1006.58
743.75	1156.08
743.935	1086.45
744.12	1020.91
744.305	984.05
744.49	1033.2
744.675	1045.49
744.86	1074.16
745.045	1029.1
745.23	1080.3
745.415	1080.3
745.6	1025.01
745.785	1041.39
745.97	965.62
746.155	1100.78
746.34	1006.58
746.525	979.95
746.71	998.38
746.895	977.91
747.079	982
747.264	949.23
747.449	967.67
747.634	963.57
747.819	971.76
748.003	996.34
748.188	951.28
748.373	920.56
748.557	881.65
748.742	867.31
748.927	947.19
749.111	900.08
749.296	895.99
749.481	996.34
749.665	840.69
749.85	891.89
750.034	846.84
750.219	859.12
750.404	910.32
750.588	879.6
750.773	889.84
750.957	883.7
751.141	900.08
751.326	830.45
751.51	910.32
751.695	848.88
751.879	852.98
752.064	850.93
752.248	877.55
752.432	801.78
752.617	769.01
752.801	859.12
752.985	883.7
753.17	777.2
753.354	771.06
753.538	859.12
753.722	764.92
753.907	807.92
754.091	728.05
754.275	754.68
754.459	801.78
754.643	766.96
754.828	799.73
755.012	754.68
755.196	738.29
755.38	726
755.564	691.19
755.748	748.53
755.932	680.95
756.116	721.91
756.3	762.87
756.484	703.48
756.668	707.57
756.852	666.61
757.036	652.28
757.22	639.99
757.404	705.53
757.588	621.56
757.772	594.93
757.956	656.37
758.14	609.27
758.323	652.28
758.507	676.85
758.691	689.14
758.875	568.31
759.059	619.51
759.242	656.37
759.426	676.85
759.61	660.47
759.794	621.56
759.977	580.6
760.161	646.13
760.345	558.07
760.528	619.51
760.712	650.23
760.895	609.27
761.079	605.17
761.263	627.7
761.446	570.36
761.63	637.94
761.813	519.16
761.997	619.51
762.18	603.13
762.364	543.74
762.547	529.4
762.731	545.78
762.914	508.92
763.098	648.18
763.281	541.69
763.464	578.55
763.648	599.03
763.831	607.22
764.015	570.36
764.198	553.98
764.381	582.65
764.564	560.12
764.748	558.07
764.931	521.21
765.114	500.73
765.297	508.92
765.481	447.48
765.664	539.64
765.847	560.12
766.03	498.68
766.213	566.26
766.397	539.64
766.58	541.69
766.763	496.63
766.946	537.59
767.129	590.84
767.312	474.1
767.495	513.02
767.678	461.82
767.861	486.39
768.044	484.34
768.227	437.24
768.41	529.4
768.593	504.82
768.776	525.3
768.959	437.24
769.142	470.01
769.324	416.76
769.507	461.82
769.69	500.73
769.873	500.73
770.056	510.97
770.239	543.74
770.421	521.21
770.604	496.63
770.787	422.91
770.97	484.34
771.152	429.05
771.335	482.3
771.518	553.98
771.7	424.95
771.883	498.68
772.066	519.16
772.248	478.2
772.431	488.44
772.613	486.39
772.796	447.48
772.978	558.07
773.161	418.81
773.343	404.47
773.526	517.11
773.708	439.29
773.891	334.84
774.073	480.25
774.256	414.71
774.438	414.71
774.621	416.76
774.803	453.63
774.985	338.94
775.168	486.39
775.35	406.52
775.532	394.23
775.715	318.46
775.897	373.75
776.079	365.56
776.261	361.47
776.444	392.19
776.626	381.95
776.808	353.27
776.99	351.23
777.173	367.61
777.355	416.76
777.537	406.52
777.719	320.51
777.901	388.09
778.083	330.75
778.265	314.36
778.447	416.76
778.629	322.56
778.811	355.32
778.993	310.27
779.175	330.75
779.357	359.42
779.539	322.56
779.721	316.41
779.903	328.7
780.085	304.12
780.267	371.71
780.449	336.89
780.631	328.7
780.812	347.13
780.994	365.56
781.176	308.22
781.358	410.62
781.54	304.12
781.721	326.65
781.903	273.4
782.085	349.18
782.267	322.56
782.448	312.32
782.63	349.18
782.812	289.79
782.993	265.21
783.175	216.06
783.357	238.59
783.538	320.51
783.72	312.32
783.901	242.68
784.083	295.93
784.264	353.27
784.446	244.73
784.627	187.39
784.809	277.5
784.99	261.12
785.172	236.54
785.353	246.78
785.535	259.07
785.716	279.55
785.897	232.44
786.079	281.6
786.26	291.84
786.441	277.5
786.623	318.46
786.804	297.98
786.985	300.03
787.167	244.73
787.348	187.39
787.529	273.4
787.71	257.02
787.891	228.35
788.073	187.39
788.254	238.59
788.435	252.92
788.616	199.68
788.797	179.2
788.978	189.44
789.159	254.97
789.34	279.55
789.522	207.87
789.703	281.6
789.884	218.11
790.065	238.59
790.246	209.92
790.427	203.77
790.607	179.2
790.788	183.29
790.969	197.63
791.15	150.53
791.331	220.16
791.512	197.63
791.693	177.15
791.874	199.68
792.054	254.97
792.235	222.2
792.416	146.43
792.597	238.59
792.778	238.59
792.958	154.62
793.139	269.31
793.32	193.53
793.5	183.29
793.681	187.39
793.862	218.11
794.042	136.19
794.223	146.43
794.404	193.53
794.584	152.57
794.765	134.14
794.945	140.29
795.126	185.34
795.306	144.38
795.487	252.92
795.667	115.71
795.848	226.3
796.028	175.1
796.209	125.95
796.389	205.82
796.57	132.09
796.75	168.96
796.93	179.2
797.111	113.66
797.291	103.42
797.471	183.29
797.652	123.9
797.832	119.81
798.012	166.91
798.192	107.52
798.373	64.51
798.553	179.2
798.733	175.1
798.913	125.95
799.093	203.77
799.274	211.96
799.454	162.81
799.634	142.33
799.814	216.06
799.994	177.15
800.174	109.57
800.354	76.8
800.534	117.76
800.714	95.23
800.894	138.24
801.074	160.77
801.254	166.91
801.434	164.86
801.614	97.28
801.794	74.75
801.974	277.5
802.154	54.27
802.334	115.71
802.514	93.18
802.693	117.76
802.873	89.09
803.053	203.77
803.233	130.05
803.413	128
803.592	113.66
803.772	91.13
803.952	82.94
804.131	197.63
804.311	156.67
804.491	173.05
804.67	91.13
804.85	138.24
805.03	105.47
805.209	185.34
805.389	134.14
805.568	142.33
805.748	130.05
805.928	214.01
806.107	91.13
806.287	109.57
806.466	72.7
806.646	99.33
806.825	70.65
807.004	130.05
807.184	76.8
807.363	101.37
807.543	107.52
807.722	101.37
807.901	91.13
808.081	78.85
808.26	76.8
808.439	72.7
808.619	107.52
808.798	123.9
808.977	95.23
809.156	111.61
809.336	78.85
809.515	189.44
809.694	64.51
809.873	82.94
810.052	87.04
810.231	23.55
810.411	84.99
810.59	54.27
810.769	95.23
810.948	101.37
811.127	33.79
811.306	140.29
811.485	33.79
811.664	103.42
811.843	109.57
812.022	87.04
812.201	117.76
812.38	168.96
812.559	125.95
812.737	105.47
812.916	99.33
813.095	84.99
813.274	70.65
813.453	107.52
813.632	64.51
813.811	101.37
813.989	62.46
814.168	105.47
814.347	111.61
814.526	19.46
814.704	103.42
814.883	60.42
815.062	58.37
815.24	97.28
815.419	-9.22
815.598	80.89
815.776	48.13
815.955	97.28
816.133	87.04
816.312	82.94
816.49	66.56
816.669	76.8
816.847	-11.26
817.026	70.65
817.204	87.04
817.383	44.03
817.561	29.7
817.74	78.85
817.918	46.08
818.097	33.79
818.275	111.61
818.453	21.5
818.632	91.13
818.81	31.74
818.988	56.32
819.167	-3.07
819.345	160.77
819.523	64.51
819.701	25.6
819.879	-1.02
820.058	58.37
820.236	89.09
820.414	78.85
820.592	58.37
820.77	123.9
820.948	-41.98
821.127	-1.02
821.305	99.33
821.483	46.08
821.661	37.89
821.839	31.74
822.017	62.46
822.195	31.74
822.373	84.99
822.551	142.33
822.729	35.84
822.907	87.04
823.085	72.7
823.262	23.55
823.44	23.55
823.618	27.65
823.796	60.42
823.974	37.89
824.152	84.99
824.329	1.02
824.507	48.13
824.685	-1.02
824.863	39.94
825.04	29.7
825.218	66.56
825.396	107.52
825.574	52.22
825.751	-7.17
825.929	37.89
826.107	62.46
826.284	76.8
826.462	48.13
826.639	74.75
826.817	-41.98
826.994	56.32
827.172	23.55
827.349	70.65
827.527	91.13
827.704	89.09
827.882	17.41
828.059	44.03
828.237	121.85
828.414	138.24
828.591	35.84
828.769	54.27
828.946	25.6
829.124	80.89
829.301	9.22
829.478	162.81
829.655	64.51
829.833	46.08
830.01	50.18
830.187	21.5
830.364	-54.27
830.542	44.03
830.719	39.94
830.896	7.17
831.073	56.32
831.25	68.61
831.427	7.17
831.604	-5.12
831.782	87.04
831.959	13.31
832.136	54.27
832.313	115.71
832.49	3.07
832.667	121.85
832.844	56.32
833.021	52.22
833.198	21.5
833.374	44.03
833.551	52.22
833.728	19.46
833.905	-9.22
834.082	125.95
834.259	-35.84
834.436	50.18
834.612	48.13
834.789	60.42
834.966	-37.89
835.143	17.41
835.319	74.75
835.496	-5.12
835.673	11.26
835.85	89.09
836.026	39.94
836.203	68.61
836.38	9.22
836.556	56.32
836.733	-15.36
836.909	39.94
837.086	46.08
837.262	46.08
837.439	13.31
837.616	9.22
837.792	93.18
837.968	13.31
838.145	35.84
838.321	-46.08
838.498	1.02
838.674	11.26
838.851	35.84
839.027	31.74
839.203	41.98
839.38	-27.65
839.556	23.55
839.732	64.51
839.909	23.55
840.085	41.98
840.261	-50.18
840.437	23.55
840.614	-35.84
840.79	5.12
840.966	31.74
841.142	1.02
841.318	1.02
841.494	37.89
841.671	21.5
841.847	-13.31
842.023	15.36
842.199	62.46
842.375	9.22
842.551	23.55
842.727	33.79
842.903	1.02
843.079	46.08
843.255	-27.65
843.431	35.84
843.607	52.22
843.783	11.26
843.959	-29.7
844.134	33.79
844.31	17.41
844.486	-27.65
844.662	-54.27
844.838	5.12
845.013	78.85
845.189	84.99
845.365	7.17
845.541	5.12
845.716	21.5
845.892	21.5
846.068	46.08
846.244	91.13
846.419	29.7
846.595	15.36
846.77	9.22
846.946	99.33
847.122	-11.26
847.297	-66.56
847.473	31.74
847.648	-5.12
847.824	23.55
847.999	37.89
848.175	99.33
848.35	23.55
848.526	82.94
848.701	80.89
848.876	93.18
849.052	29.7
849.227	17.41
849.403	-27.65
849.578	70.65
849.753	17.41
849.929	50.18
850.104	-13.31
850.279	23.55
850.454	27.65
850.63	-1.02
850.805	35.84
850.98	44.03
851.155	-19.46
851.33	58.37
851.505	21.5
851.681	27.65
851.856	48.13
852.031	48.13
852.206	-87.04
852.381	48.13
852.556	5.12
852.731	1.02
852.906	-74.75
853.081	60.42
853.256	78.85
853.431	76.8
853.606	33.79
853.781	11.26
853.956	5.12
854.131	27.65
854.305	5.12
854.48	-11.26
854.655	-9.22
854.83	1.02
855.005	13.31
855.18	15.36
855.354	1.02
855.529	46.08
855.704	-58.37
855.879	84.99
856.053	-17.41
856.228	23.55
856.403	-39.94
856.577	21.5
856.752	7.17
856.926	3.07
857.101	60.42
857.276	-19.46
857.45	3.07
857.625	50.18
857.799	54.27
857.974	15.36
858.148	-68.61
858.323	60.42
858.497	56.32
858.672	-5.12
858.846	-41.98
859.02	15.36
859.195	52.22
859.369	-27.65
859.543	-19.46
859.718	29.7
859.892	13.31
860.066	-7.17
860.241	-31.74
860.415	48.13
860.589	-3.07
860.763	-3.07
860.938	41.98
861.112	5.12
861.286	33.79
861.46	35.84
861.634	46.08
861.808	33.79
861.982	66.56
862.157	64.51
862.331	41.98
862.505	9.22
862.679	-5.12
862.853	62.46
863.027	-31.74
863.201	5.12
863.375	-46.08
863.549	7.17
863.722	-5.12
863.896	33.79
864.07	35.84
864.244	-15.36
864.418	-1.02
864.592	-9.22
864.766	-50.18
864.939	-21.5
865.113	99.33
865.287	11.26
865.461	-68.61
865.634	-23.55
865.808	-11.26
865.982	-13.31
866.156	5.12
866.329	-3.07
866.503	5.12
866.676	-29.7
866.85	-41.98
867.024	-68.61
867.197	9.22
867.371	-3.07
867.544	-11.26
867.718	58.37
867.891	23.55
868.065	-44.03
868.238	56.32
868.412	35.84
868.585	62.46
868.759	9.22
868.932	-5.12
869.105	-33.79
869.279	17.41
869.452	-39.94
869.625	-31.74
869.799	-68.61
869.972	-115.71
870.145	21.5
870.319	-56.32
870.492	-35.84
870.665	-7.17
870.838	54.27
871.011	27.65
871.185	5.12
871.358	66.56
871.531	39.94
871.704	-13.31
871.877	23.55
872.05	39.94
872.223	-9.22
872.396	5.12
872.569	60.42
872.742	-50.18
872.915	-52.22
873.088	7.17
873.261	23.55
873.434	13.31
873.607	19.46
873.78	56.32
873.953	17.41
874.126	54.27
874.299	23.55
874.471	-37.89
874.644	-25.6
874.817	-11.26
874.99	17.41
875.163	-39.94
875.335	-3.07
875.508	-33.79
875.681	-44.03
875.853	17.41
876.026	-44.03
876.199	44.03
876.371	31.74
876.544	-13.31
876.717	62.46
876.889	29.7
877.062	37.89
877.234	97.28
877.407	39.94
877.579	56.32
877.752	5.12
877.924	44.03
878.097	-15.36
878.269	72.7
878.442	37.89
878.614	-33.79
878.786	-19.46
878.959	-54.27
879.131	44.03
879.303	35.84
879.476	29.7
879.648	-11.26
879.82	37.89
879.993	-15.36
880.165	-9.22
880.337	-7.17
880.509	35.84
880.681	97.28
880.854	-7.17
881.026	29.7
881.198	35.84
881.37	33.79
881.542	37.89
881.714	-3.07
881.886	-9.22
882.058	-56.32
882.23	33.79
882.402	-7.17
882.574	-29.7
882.746	25.6
882.918	9.22
883.09	-3.07
883.262	-1.02
883.434	13.31
883.606	5.12
883.778	-21.5
883.95	-27.65
884.122	-5.12
884.293	13.31
884.465	-7.17
884.637	-48.13
884.809	58.37
884.98	29.7
885.152	44.03
885.324	-11.26
885.496	-5.12
885.667	-5.12
885.839	-58.37
886.011	15.36
886.182	-15.36
886.354	-27.65
886.525	-50.18
886.697	41.98
886.869	-3.07
887.04	37.89
887.212	7.17
887.383	5.12
887.555	-1.02
887.726	41.98
887.897	-5.12
888.069	-70.65
888.24	-13.31
888.412	-11.26
888.583	48.13
888.754	-17.41
888.926	-80.89
889.097	-19.46
889.268	-37.89
889.44	-9.22
889.611	19.46
889.782	-19.46
889.953	-52.22
890.125	-37.89
890.296	-27.65
890.467	44.03
890.638	-44.03
890.809	-15.36
890.98	13.31
891.151	-52.22
891.323	109.57
891.494	29.7
891.665	-64.51
891.836	-5.12
892.007	-23.55
892.178	5.12
892.349	-39.94
892.52	-25.6
892.691	7.17
892.862	21.5
893.032	-58.37
893.203	9.22
893.374	-15.36
893.545	41.98
893.716	-29.7
893.887	41.98
894.057	44.03
894.228	-50.18
894.399	80.89
894.57	46.08
894.74	25.6
894.911	-37.89
895.082	23.55
895.253	1.02
895.423	-1.02
895.594	37.89
895.764	46.08
895.935	-35.84
896.106	72.7
896.276	3.07
896.447	27.65
896.617	-27.65
896.788	-1.02
896.958	3.07
897.129	-31.74
897.299	-41.98
897.47	-54.27
897.64	25.6
897.81	44.03
897.981	9.22
898.151	17.41
898.322	5.12
898.492	-1.02
898.662	11.26
898.832	11.26
899.003	-60.42
899.173	29.7
899.343	-29.7
899.513	-27.65
