Data from USB4F104151__229__14-00-23-322.txt Node

Date: Thu Mar 13 14:00:23 EDT 2025
User: louis
Spectrometer: USB4F10415
Trigger mode: 4
Integration Time (sec): 1.000000E-2
Scans to average: 1
Electric dark correction enabled: true
Nonlinearity correction enabled: false
Boxcar width: 0
XAxis mode: Wavelengths
Number of Pixels in Spectrum: 3648
>>>>>Begin Spectral Data<<<<<
178.204	-5.97
178.424	-5.97
178.644	-5.97
178.864	-20.31
179.084	14.51
179.304	4.27
179.524	-12.12
179.744	2.22
179.964	32.94
180.184	145.58
180.404	-10.07
180.624	-32.6
180.844	-5.97
181.064	22.7
181.283	-63.32
181.503	-89.94
181.723	6.31
181.943	-55.12
182.163	47.27
182.383	6.31
182.602	63.66
182.822	49.32
183.042	45.23
183.262	43.18
183.482	100.52
183.701	0.17
183.921	55.47
184.141	45.23
184.361	22.7
184.58	55.47
184.8	108.71
185.02	32.94
185.239	51.37
185.459	14.51
185.679	75.95
185.898	14.51
186.118	90.28
186.338	24.75
186.557	55.47
186.777	30.89
186.997	-44.88
187.216	14.51
187.436	24.75
187.655	-8.02
187.875	59.56
188.095	18.6
188.314	45.23
188.534	30.89
188.753	71.85
188.973	39.08
189.192	20.65
189.412	59.56
189.631	18.6
189.851	108.71
190.07	22.7
190.29	-30.55
190.509	-5.97
190.729	75.95
190.948	57.51
191.168	39.08
191.387	65.71
191.607	34.99
191.826	-30.55
192.045	131.24
192.265	20.65
192.484	26.79
192.704	24.75
192.923	65.71
193.142	47.27
193.362	53.42
193.581	12.46
193.8	32.94
194.02	34.99
194.239	108.71
194.458	41.13
194.678	24.75
194.897	-34.64
195.116	-3.93
195.335	80.04
195.555	75.95
195.774	55.47
195.993	10.41
196.212	47.27
196.432	-14.17
196.651	24.75
196.87	80.04
197.089	55.47
197.308	43.18
197.528	10.41
197.747	51.37
197.966	82.09
198.185	22.7
198.404	55.47
198.623	0.17
198.842	37.03
199.062	26.79
199.281	30.89
199.5	14.51
199.719	86.19
199.938	34.99
200.157	47.27
200.376	47.27
200.595	49.32
200.814	26.79
201.033	49.32
201.252	47.27
201.471	8.36
201.69	55.47
201.909	88.23
202.128	28.84
202.347	-20.31
202.566	-14.17
202.785	-26.45
203.004	45.23
203.223	82.09
203.442	24.75
203.661	0.17
203.879	26.79
204.098	80.04
204.317	28.84
204.536	47.27
204.755	-20.31
204.974	43.18
205.193	39.08
205.411	73.9
205.63	-59.22
205.849	39.08
206.068	96.43
206.287	57.51
206.505	39.08
206.724	28.84
206.943	26.79
207.162	34.99
207.381	6.31
207.599	73.9
207.818	26.79
208.037	59.56
208.255	4.27
208.474	39.08
208.693	100.52
208.911	82.09
209.13	22.7
209.349	49.32
209.567	43.18
209.786	63.66
210.005	47.27
210.223	-5.97
210.442	20.65
210.661	6.31
210.879	63.66
211.098	61.61
211.316	-26.45
211.535	137.38
211.753	61.61
211.972	-10.07
212.191	37.03
212.409	28.84
212.628	-32.6
212.846	10.41
213.065	51.37
213.283	30.89
213.502	92.33
213.72	57.51
213.938	71.85
214.157	0.17
214.375	96.43
214.594	80.04
214.812	112.81
215.031	0.17
215.249	55.47
215.467	53.42
215.686	37.03
215.904	-22.36
216.122	12.46
216.341	88.23
216.559	37.03
216.778	32.94
216.996	39.08
217.214	12.46
217.432	53.42
217.651	-24.4
217.869	98.47
218.087	47.27
218.306	30.89
218.524	24.75
218.742	39.08
218.96	12.46
219.179	80.04
219.397	32.94
219.615	57.51
219.833	84.14
220.051	26.79
220.27	6.31
220.488	49.32
220.706	69.8
220.924	34.99
221.142	6.31
221.36	-14.17
221.578	-20.31
221.796	16.55
222.015	16.55
222.233	37.03
222.451	75.95
222.669	22.7
222.887	55.47
223.105	-53.08
223.323	22.7
223.541	45.23
223.759	71.85
223.977	104.62
224.195	41.13
224.413	51.37
224.631	80.04
224.849	71.85
225.067	92.33
225.285	12.46
225.503	55.47
225.721	30.89
225.939	-14.17
226.157	88.23
226.375	63.66
226.592	30.89
226.81	14.51
227.028	65.71
227.246	80.04
227.464	20.65
227.682	71.85
227.9	57.51
228.117	22.7
228.335	-1.88
228.553	-10.07
228.771	88.23
228.989	55.47
229.206	28.84
229.424	112.81
229.642	51.37
229.86	32.94
230.077	121
230.295	39.08
230.513	96.43
230.731	69.8
230.948	41.13
231.166	45.23
231.384	16.55
231.601	16.55
231.819	41.13
232.037	24.75
232.254	45.23
232.472	61.61
232.689	80.04
232.907	90.28
233.125	28.84
233.342	6.31
233.56	53.42
233.777	51.37
233.995	59.56
234.213	69.8
234.43	77.99
234.648	-3.93
234.865	14.51
235.083	0.17
235.3	71.85
235.518	47.27
235.735	26.79
235.953	106.67
236.17	22.7
236.388	-46.93
236.605	59.56
236.822	53.42
237.04	24.75
237.257	63.66
237.475	20.65
237.692	47.27
237.909	6.31
238.127	73.9
238.344	102.57
238.562	63.66
238.779	-24.4
238.996	77.99
239.214	43.18
239.431	55.47
239.648	49.32
239.865	43.18
240.083	47.27
240.3	57.51
240.517	43.18
240.735	84.14
240.952	43.18
241.169	37.03
241.386	90.28
241.603	37.03
241.821	65.71
242.038	61.61
242.255	59.56
242.472	114.86
242.689	20.65
242.907	84.14
243.124	90.28
243.341	57.51
243.558	53.42
243.775	-14.17
243.992	71.85
244.209	84.14
244.426	30.89
244.643	73.9
244.86	12.46
245.078	92.33
245.295	41.13
245.512	32.94
245.729	65.71
245.946	51.37
246.163	18.6
246.38	16.55
246.597	37.03
246.814	24.75
247.031	37.03
247.248	45.23
247.464	26.79
247.681	34.99
247.898	-16.21
248.115	22.7
248.332	16.55
248.549	28.84
248.766	151.72
248.983	75.95
249.2	59.56
249.417	8.36
249.633	92.33
249.85	49.32
250.067	-10.07
250.284	20.65
250.501	55.47
250.717	22.7
250.934	88.23
251.151	112.81
251.368	80.04
251.585	0.17
251.801	24.75
252.018	12.46
252.235	41.13
252.451	0.17
252.668	26.79
252.885	57.51
253.102	53.42
253.318	86.19
253.535	-1.88
253.752	14.51
253.968	90.28
254.185	10.41
254.401	10.41
254.618	24.75
254.835	22.7
255.051	24.75
255.268	-1.88
255.484	41.13
255.701	39.08
255.917	32.94
256.134	71.85
256.351	67.75
256.567	-28.5
256.784	37.03
257	112.81
257.217	30.89
257.433	57.51
257.65	94.38
257.866	14.51
258.082	32.94
258.299	47.27
258.515	37.03
258.732	34.99
258.948	18.6
259.165	24.75
259.381	71.85
259.597	0.17
259.814	51.37
260.03	61.61
260.246	61.61
260.463	92.33
260.679	86.19
260.895	22.7
261.112	96.43
261.328	82.09
261.544	57.51
261.761	82.09
261.977	6.31
262.193	-30.55
262.409	108.71
262.626	47.27
262.842	12.46
263.058	63.66
263.274	-18.26
263.49	98.47
263.707	82.09
263.923	32.94
264.139	49.32
264.355	37.03
264.571	39.08
264.787	-8.02
265.004	112.81
265.22	71.85
265.436	43.18
265.652	-5.97
265.868	80.04
266.084	24.75
266.3	30.89
266.516	-10.07
266.732	41.13
266.948	-22.36
267.164	67.75
267.38	90.28
267.596	75.95
267.812	86.19
268.028	112.81
268.244	55.47
268.46	41.13
268.676	112.81
268.892	92.33
269.108	47.27
269.324	-8.02
269.54	30.89
269.756	-34.64
269.972	-1.88
270.188	-30.55
270.403	-18.26
270.619	88.23
270.835	59.56
271.051	6.31
271.267	28.84
271.483	30.89
271.698	75.95
271.914	-38.74
272.13	37.03
272.346	71.85
272.562	37.03
272.777	73.9
272.993	22.7
273.209	57.51
273.425	43.18
273.64	73.9
273.856	43.18
274.072	41.13
274.287	-8.02
274.503	67.75
274.719	14.51
274.934	49.32
275.15	16.55
275.366	67.75
275.581	98.47
275.797	51.37
276.012	26.79
276.228	65.71
276.444	26.79
276.659	96.43
276.875	77.99
277.09	24.75
277.306	65.71
277.521	75.95
277.737	55.47
277.952	106.67
278.168	104.62
278.383	-1.88
278.599	51.37
278.814	75.95
279.03	59.56
279.245	116.9
279.461	6.31
279.676	26.79
279.892	32.94
280.107	43.18
280.322	12.46
280.538	32.94
280.753	49.32
280.969	69.8
281.184	4.27
281.399	24.75
281.615	49.32
281.83	67.75
282.045	16.55
282.26	6.31
282.476	63.66
282.691	30.89
282.906	-3.93
283.122	-18.26
283.337	61.61
283.552	80.04
283.767	84.14
283.983	-1.88
284.198	77.99
284.413	145.58
284.628	51.37
284.843	-10.07
285.058	88.23
285.274	80.04
285.489	75.95
285.704	51.37
285.919	69.8
286.134	49.32
286.349	67.75
286.564	20.65
286.779	129.19
286.995	30.89
287.21	82.09
287.425	26.79
287.64	-10.07
287.855	49.32
288.07	45.23
288.285	43.18
288.5	104.62
288.715	59.56
288.93	80.04
289.145	61.61
289.36	22.7
289.575	39.08
289.79	59.56
290.004	-10.07
290.219	75.95
290.434	-18.26
290.649	-38.74
290.864	88.23
291.079	118.95
291.294	88.23
291.509	-24.4
291.724	80.04
291.938	12.46
292.153	96.43
292.368	77.99
292.583	59.56
292.798	-3.93
293.012	96.43
293.227	14.51
293.442	49.32
293.657	18.6
293.871	24.75
294.086	53.42
294.301	32.94
294.516	28.84
294.73	86.19
294.945	20.65
295.16	-10.07
295.374	22.7
295.589	59.56
295.804	32.94
296.018	6.31
296.233	82.09
296.447	43.18
296.662	14.51
296.877	63.66
297.091	123.05
297.306	45.23
297.52	84.14
297.735	22.7
297.949	26.79
298.164	14.51
298.378	53.42
298.593	51.37
298.807	34.99
299.022	32.94
299.236	22.7
299.451	39.08
299.665	51.37
299.88	63.66
300.094	22.7
300.309	80.04
300.523	14.51
300.737	-8.02
300.952	80.04
301.166	77.99
301.381	41.13
301.595	-3.93
301.809	96.43
302.024	63.66
302.238	4.27
302.452	47.27
302.667	121
302.881	55.47
303.095	45.23
303.309	-5.97
303.524	-1.88
303.738	57.51
303.952	-20.31
304.166	53.42
304.381	-34.64
304.595	41.13
304.809	30.89
305.023	37.03
305.237	30.89
305.452	43.18
305.666	6.31
305.88	59.56
306.094	2.22
306.308	75.95
306.522	10.41
306.736	-8.02
306.95	73.9
307.164	61.61
307.379	53.42
307.593	18.6
307.807	96.43
308.021	100.52
308.235	32.94
308.449	51.37
308.663	84.14
308.877	96.43
309.091	14.51
309.305	24.75
309.519	59.56
309.733	67.75
309.947	-5.97
310.161	32.94
310.374	63.66
310.588	39.08
310.802	14.51
311.016	-30.55
311.23	34.99
311.444	30.89
311.658	59.56
311.872	80.04
312.085	63.66
312.299	145.58
312.513	20.65
312.727	34.99
312.941	133.29
313.154	34.99
313.368	-16.21
313.582	61.61
313.796	39.08
314.009	-10.07
314.223	80.04
314.437	96.43
314.651	41.13
314.864	30.89
315.078	18.6
315.292	80.04
315.505	67.75
315.719	47.27
315.933	4.27
316.146	26.79
316.36	82.09
316.573	37.03
316.787	51.37
317.001	114.86
317.214	75.95
317.428	92.33
317.641	71.85
317.855	63.66
318.068	-5.97
318.282	65.71
318.495	98.47
318.709	71.85
318.922	12.46
319.136	90.28
319.349	30.89
319.563	16.55
319.776	28.84
319.99	30.89
320.203	108.71
320.417	84.14
320.63	82.09
320.843	47.27
321.057	45.23
321.27	47.27
321.483	61.61
321.697	100.52
321.91	41.13
322.124	84.14
322.337	45.23
322.55	47.27
322.763	77.99
322.977	-26.45
323.19	26.79
323.403	39.08
323.617	20.65
323.83	90.28
324.043	-18.26
324.256	61.61
324.469	32.94
324.683	22.7
324.896	104.62
325.109	34.99
325.322	39.08
325.535	106.67
325.748	8.36
325.962	24.75
326.175	39.08
326.388	100.52
326.601	4.27
326.814	0.17
327.027	114.86
327.24	30.89
327.453	94.38
327.666	88.23
327.879	41.13
328.092	12.46
328.305	96.43
328.518	6.31
328.731	12.46
328.944	104.62
329.157	73.9
329.37	45.23
329.583	55.47
329.796	65.71
330.009	10.41
330.222	129.19
330.435	67.75
330.648	98.47
330.861	37.03
331.073	49.32
331.286	92.33
331.499	-18.26
331.712	16.55
331.925	-8.02
332.138	80.04
332.35	96.43
332.563	65.71
332.776	88.23
332.989	65.71
333.202	65.71
333.414	-34.64
333.627	24.75
333.84	16.55
334.053	57.51
334.265	121
334.478	51.37
334.691	-55.12
334.903	73.9
335.116	24.75
335.329	47.27
335.541	28.84
335.754	-1.88
335.966	55.47
336.179	37.03
336.392	100.52
336.604	47.27
336.817	6.31
337.029	41.13
337.242	63.66
337.454	49.32
337.667	90.28
337.88	8.36
338.092	121
338.305	71.85
338.517	14.51
338.729	-36.69
338.942	-12.12
339.154	80.04
339.367	41.13
339.579	2.22
339.792	102.57
340.004	63.66
340.217	24.75
340.429	34.99
340.641	96.43
340.854	59.56
341.066	-10.07
341.278	49.32
341.491	88.23
341.703	57.51
341.915	41.13
342.128	8.36
342.34	80.04
342.552	32.94
342.764	18.6
342.977	10.41
343.189	65.71
343.401	49.32
343.613	57.51
343.826	6.31
344.038	-1.88
344.25	71.85
344.462	-10.07
344.674	114.86
344.886	108.71
345.099	24.75
345.311	104.62
345.523	57.51
345.735	53.42
345.947	71.85
346.159	104.62
346.371	24.75
346.583	125.1
346.795	151.72
347.007	-44.88
347.219	92.33
347.431	12.46
347.643	63.66
347.855	8.36
348.067	24.75
348.279	-26.45
348.491	65.71
348.703	-1.88
348.915	18.6
349.127	-20.31
349.339	59.56
349.551	22.7
349.763	112.81
349.975	86.19
350.187	108.71
350.399	39.08
350.61	49.32
350.822	8.36
351.034	65.71
351.246	49.32
351.458	88.23
351.669	-5.97
351.881	104.62
352.093	61.61
352.305	37.03
352.517	39.08
352.728	37.03
352.94	-10.07
353.152	-8.02
353.363	39.08
353.575	39.08
353.787	84.14
353.999	65.71
354.21	73.9
354.422	22.7
354.633	4.27
354.845	30.89
355.057	30.89
355.268	14.51
355.48	24.75
355.692	32.94
355.903	-10.07
356.115	114.86
356.326	34.99
356.538	26.79
356.749	18.6
356.961	153.77
357.172	45.23
357.384	22.7
357.595	59.56
357.807	88.23
358.018	2.22
358.23	16.55
358.441	112.81
358.653	28.84
358.864	45.23
359.075	84.14
359.287	14.51
359.498	55.47
359.709	112.81
359.921	84.14
360.132	-34.64
360.344	100.52
360.555	63.66
360.766	63.66
360.977	86.19
361.189	41.13
361.4	18.6
361.611	82.09
361.823	73.9
362.034	75.95
362.245	88.23
362.456	16.55
362.667	6.31
362.879	43.18
363.09	41.13
363.301	-46.93
363.512	30.89
363.723	82.09
363.935	-22.36
364.146	84.14
364.357	94.38
364.568	41.13
364.779	39.08
364.99	112.81
365.201	34.99
365.412	51.37
365.623	14.51
365.834	37.03
366.045	37.03
366.256	24.75
366.467	39.08
366.678	77.99
366.889	41.13
367.1	18.6
367.311	0.17
367.522	47.27
367.733	110.76
367.944	34.99
368.155	57.51
368.366	82.09
368.577	47.27
368.788	71.85
368.999	24.75
369.209	39.08
369.42	47.27
369.631	49.32
369.842	-10.07
370.053	18.6
370.264	47.27
370.474	20.65
370.685	8.36
370.896	43.18
371.107	71.85
371.317	102.57
371.528	77.99
371.739	10.41
371.95	82.09
372.16	75.95
372.371	18.6
372.582	34.99
372.792	-24.4
373.003	75.95
373.214	30.89
373.424	71.85
373.635	43.18
373.846	45.23
374.056	123.05
374.267	121
374.477	55.47
374.688	8.36
374.898	55.47
375.109	80.04
375.319	88.23
375.53	26.79
375.74	18.6
375.951	71.85
376.161	30.89
376.372	49.32
376.582	69.8
376.793	49.32
377.003	75.95
377.214	47.27
377.424	55.47
377.635	6.31
377.845	55.47
378.055	73.9
378.266	16.55
378.476	69.8
378.686	34.99
378.897	82.09
379.107	82.09
379.317	51.37
379.528	47.27
379.738	57.51
379.948	-16.21
380.158	39.08
380.369	59.56
380.579	73.9
380.789	86.19
380.999	73.9
381.21	55.47
381.42	41.13
381.63	77.99
381.84	12.46
382.05	2.22
382.261	65.71
382.471	32.94
382.681	100.52
382.891	92.33
383.101	59.56
383.311	24.75
383.521	26.79
383.731	73.9
383.941	96.43
384.151	67.75
384.361	67.75
384.571	4.27
384.781	55.47
384.991	98.47
385.201	55.47
385.411	84.14
385.621	80.04
385.831	-38.74
386.041	98.47
386.251	73.9
386.461	43.18
386.671	92.33
386.881	47.27
387.091	73.9
387.301	153.77
387.511	22.7
387.72	-1.88
387.93	104.62
388.14	47.27
388.35	157.86
388.56	26.79
388.769	34.99
388.979	63.66
389.189	0.17
389.399	47.27
389.609	39.08
389.818	77.99
390.028	51.37
390.238	45.23
390.447	43.18
390.657	90.28
390.867	47.27
391.076	32.94
391.286	77.99
391.496	26.79
391.705	24.75
391.915	47.27
392.125	37.03
392.334	45.23
392.544	71.85
392.753	8.36
392.963	47.27
393.172	114.86
393.382	88.23
393.591	80.04
393.801	82.09
394.01	94.38
394.22	-18.26
394.429	69.8
394.639	90.28
394.848	49.32
395.058	61.61
395.267	63.66
395.477	80.04
395.686	147.62
395.895	49.32
396.105	71.85
396.314	26.79
396.524	108.71
396.733	47.27
396.942	96.43
397.152	92.33
397.361	168.1
397.57	51.37
397.78	61.61
397.989	77.99
398.198	116.9
398.407	96.43
398.617	82.09
398.826	47.27
399.035	106.67
399.244	65.71
399.453	104.62
399.663	57.51
399.872	6.31
400.081	135.34
400.29	88.23
400.499	39.08
400.708	82.09
400.917	96.43
401.127	73.9
401.336	92.33
401.545	164.01
401.754	155.82
401.963	65.71
402.172	43.18
402.381	84.14
402.59	133.29
402.799	94.38
403.008	139.43
403.217	147.62
403.426	8.36
403.635	77.99
403.844	110.76
404.053	125.1
404.262	147.62
404.471	129.19
404.68	102.57
404.888	22.7
405.097	90.28
405.306	139.43
405.515	39.08
405.724	202.92
405.933	73.9
406.142	157.86
406.35	137.38
406.559	139.43
406.768	96.43
406.977	186.54
407.185	116.9
407.394	190.63
407.603	166.06
407.812	176.3
408.02	157.86
408.229	168.1
408.438	213.16
408.646	34.99
408.855	168.1
409.064	221.35
409.272	225.45
409.481	170.15
409.69	161.96
409.898	207.02
410.107	194.73
410.315	280.74
410.524	264.36
410.733	247.97
410.941	317.61
411.15	268.45
411.358	272.55
411.567	252.07
411.775	264.36
411.984	250.02
412.192	254.12
412.401	336.04
412.609	311.46
412.818	364.71
413.026	321.7
413.234	393.38
413.443	268.45
413.651	372.9
413.86	403.62
414.068	399.52
414.276	344.23
414.485	420
414.693	542.88
414.901	354.47
415.11	409.76
415.318	465.06
415.526	436.39
415.734	598.18
415.943	512.16
416.151	534.69
416.359	567.46
416.567	571.55
416.776	544.93
416.984	600.23
417.192	596.13
417.4	602.27
417.608	676
417.817	747.68
418.025	680.1
418.233	825.5
418.441	624.8
418.649	768.16
418.857	798.88
419.065	825.5
419.273	788.64
419.481	782.49
419.689	839.84
419.897	903.32
420.105	1044.63
420.313	909.47
420.521	985.24
420.729	948.38
420.937	1097.88
421.145	1120.41
421.353	1179.8
421.561	1228.95
421.769	1218.71
421.977	1280.15
422.185	1226.9
422.393	1374.36
422.601	1409.17
422.809	1429.65
423.017	1456.28
423.224	1534.1
423.432	1648.79
423.64	1622.16
423.848	1630.35
424.056	1704.08
424.263	1763.47
424.471	1714.32
424.679	1738.9
424.887	1841.29
425.094	1915.02
425.302	1974.41
425.51	2033.8
425.718	2029.71
425.925	2037.9
426.133	2173.07
426.341	2259.08
426.548	2300.04
426.756	2427.01
426.964	2365.57
427.171	2572.42
427.379	2578.56
427.586	2644.1
427.794	2662.53
428.001	2951.29
428.209	2943.1
428.417	2998.4
428.624	3149.95
428.832	3229.82
429.039	3135.61
429.247	3141.75
429.454	3426.42
429.662	3557.49
429.869	3483.77
430.076	3737.71
430.284	3614.84
430.491	3774.58
430.699	3958.89
430.906	3879.02
431.114	3944.56
431.321	4143.21
431.528	4274.28
431.736	4495.46
431.943	4694.12
432.15	4520.04
432.358	4540.52
432.565	4866.14
432.772	4798.56
432.979	5087.33
433.187	5072.99
433.394	5132.38
433.601	5595.22
433.808	5576.79
434.016	5482.58
434.223	5769.3
434.43	6027.34
434.637	5931.09
434.844	6277.19
435.052	6320.2
435.259	6447.18
435.466	6527.05
435.673	6398.03
435.88	6850.63
436.087	7080
436.294	7112.77
436.501	7116.86
436.708	7166.01
436.915	7239.74
437.122	7718.96
437.329	7645.24
437.537	7774.26
437.743	8132.65
437.95	8108.08
438.157	8429.61
438.364	8624.17
438.571	8632.36
438.778	8628.26
438.985	9586.71
439.192	9123.87
439.399	9467.93
439.606	9269.28
439.813	9928.72
440.02	10426.38
440.227	10233.87
440.433	10033.17
440.64	10358.8
440.847	10344.46
441.054	10721.29
441.261	11245.57
441.467	11141.12
441.674	11247.62
441.881	11808.76
442.088	11788.28
442.294	11638.78
442.501	11698.17
442.708	12146.67
442.914	12656.62
443.121	13213.67
443.328	12836.84
443.534	13713.37
443.741	13223.9
443.948	13010.92
444.154	13959.13
444.361	14067.67
444.568	13899.73
444.774	14092.24
444.981	14383.06
445.187	14612.43
445.394	15374.27
445.6	15177.67
445.807	16558
446.013	15898.55
446.22	16115.64
446.426	16707.5
446.633	16869.29
446.839	17674.14
447.046	16693.16
447.252	17684.38
447.459	17549.21
447.665	17483.68
447.871	18562.96
448.078	19212.17
448.284	18227.09
448.491	18896.78
448.697	19541.89
448.903	19920.76
449.11	20082.55
449.316	19562.37
449.522	19910.52
449.728	20516.72
449.935	20455.28
450.141	20715.37
450.347	21219.17
450.553	20508.53
450.76	20604.78
450.966	21501.79
451.172	21153.64
451.378	21626.72
451.584	21301.09
451.791	21673.82
451.997	21583.71
452.203	21974.88
452.409	21993.31
452.615	21849.95
452.821	20895.6
453.027	20780.91
453.233	21782.37
453.44	20799.34
453.646	21206.89
453.852	21243.75
454.058	22173.53
454.264	20940.65
454.47	21516.13
454.676	20918.12
454.882	21780.32
455.088	20027.26
455.294	20412.28
455.5	20475.76
455.705	20498.29
455.911	19634.05
456.117	19380.1
456.323	19380.1
456.529	18067.35
456.735	18999.18
456.941	18452.37
457.147	18141.08
457.352	17602.46
457.558	17346.47
457.764	17610.65
457.97	16883.63
458.176	16783.27
458.381	16881.58
458.587	16136.12
458.793	16046.01
458.999	15122.37
459.204	16207.8
459.41	15884.22
459.616	14831.56
459.821	14639.05
460.027	14804.94
460.233	14356.43
460.438	13768.66
460.644	13901.78
460.85	13289.44
461.055	12974.05
461.261	12793.83
461.466	12220.4
461.672	11630.59
461.878	12466.16
462.083	11606.01
462.289	11399.16
462.494	11421.69
462.7	10852.36
462.905	10547.21
463.111	11005.95
463.316	10862.6
463.522	10792.97
463.727	10784.77
463.932	10709
464.138	10606.6
464.343	10719.24
464.549	10475.53
464.754	10573.83
464.959	10766.34
465.165	10477.58
465.37	10139.66
465.575	9828.37
465.781	10338.32
465.986	10436.62
466.191	10145.81
466.397	9883.67
466.602	9500.7
466.807	9588.76
467.012	9568.28
467.218	9496.6
467.423	9459.74
467.628	9662.49
467.833	9881.62
468.038	9666.58
468.244	9265.18
468.449	9463.83
468.654	9414.68
468.859	9197.6
469.064	9220.13
469.269	8935.46
469.474	8929.31
469.679	9066.53
469.885	8906.79
470.09	8990.75
470.295	9023.52
470.5	8560.68
470.705	8822.82
470.91	8495.15
471.115	8419.37
471.32	8501.29
471.525	8622.12
471.73	8261.68
471.935	8503.34
472.139	8013.87
472.344	7983.15
472.549	8103.98
472.754	8165.42
472.959	7847.99
473.164	7579.7
473.369	7528.5
473.574	7960.63
473.778	7788.6
473.983	7684.15
474.188	7690.29
474.393	7354.43
474.598	7368.76
474.802	7338.04
475.007	7200.83
475.212	7223.36
475.417	7059.52
475.621	7006.27
475.826	6826.05
476.031	6940.74
476.235	6770.76
476.44	6918.21
476.645	6600.77
476.849	6750.28
477.054	6527.05
477.259	6584.39
477.463	6727.75
477.668	6395.98
477.872	6359.11
478.077	6193.23
478.282	6207.56
478.486	6336.59
478.691	6021.2
478.895	6178.89
479.1	5984.34
479.304	5988.43
479.509	5810.26
479.713	6133.84
479.918	5791.83
480.122	5838.93
480.326	5963.86
480.531	5912.66
480.735	5904.46
480.94	5693.52
481.144	5976.14
481.348	5584.98
481.553	5738.58
481.757	5613.65
481.961	5707.86
482.166	5906.51
482.37	5771.35
482.574	5638.23
482.778	5681.24
482.983	5685.33
483.187	5871.7
483.391	5769.3
483.595	5638.23
483.8	5539.93
484.004	5695.57
484.208	5783.63
484.412	5587.03
484.616	5611.61
484.821	5593.17
485.025	5677.14
485.229	5761.11
485.433	5689.43
485.637	5666.9
485.841	5683.28
486.045	5511.25
486.249	5646.42
486.453	5675.09
486.657	5802.07
486.861	5603.41
487.065	5546.07
487.269	5615.7
487.473	5433.43
487.677	5623.89
487.881	5662.8
488.085	5742.68
488.289	5769.3
488.493	5568.6
488.697	5787.73
488.901	5625.94
489.105	5605.46
489.309	5742.68
489.512	5939.28
489.716	5666.9
489.92	5744.72
490.124	5644.37
490.328	5732.44
490.531	5773.39
490.735	5800.02
490.939	5797.97
491.143	5681.24
491.346	5824.59
491.55	5888.08
491.754	5929.04
491.958	5912.66
492.161	6010.96
492.365	6000.72
492.569	5896.27
492.772	5998.67
492.976	6139.98
493.18	6117.45
493.383	6201.42
493.587	6180.94
493.79	6287.43
493.994	6133.84
494.197	6404.17
494.401	6242.38
494.605	6400.07
494.808	6338.63
495.012	6336.59
495.215	6635.59
495.419	6527.05
495.622	6570.05
495.825	6676.55
496.029	6737.99
496.232	6826.05
496.436	6793.28
496.639	6979.65
496.843	6846.53
497.046	7184.45
497.249	6975.55
497.453	7143.49
497.656	7315.52
497.859	7299.13
498.063	7215.16
498.266	7653.43
498.469	7534.65
498.673	7544.89
498.876	7655.48
499.079	7936.05
499.282	7827.51
499.485	8071.22
499.689	8028.21
499.892	8063.02
500.095	8265.77
500.298	8398.89
500.501	8364.08
500.705	8679.46
500.908	8738.85
501.111	8628.26
501.314	8796.2
501.517	8917.03
501.72	9078.82
501.923	9107.49
502.126	9365.53
502.329	9601.05
502.532	9386.01
502.735	9818.13
502.938	9834.52
503.141	9900.05
503.344	9914.39
503.547	10065.94
503.75	10131.47
503.953	10465.29
504.156	10391.56
504.359	10504.2
504.562	10524.68
504.765	10895.36
504.968	10868.74
505.17	11225.09
505.373	11044.87
505.576	11542.52
505.779	11522.04
505.982	11655.16
506.185	11825.14
506.387	12171.25
506.59	12068.85
506.793	12201.97
506.996	12138.48
507.198	12646.38
507.401	12769.26
507.604	12847.08
507.807	12949.48
508.009	13033.44
508.212	13309.92
508.415	13443.04
508.617	13660.12
508.82	13696.99
509.022	13711.32
509.225	14139.35
509.428	14034.9
509.63	14368.72
509.833	14270.42
510.035	14880.71
510.238	14862.28
510.44	14821.32
510.643	15374.27
510.845	15454.14
511.048	15480.77
511.25	15730.62
511.453	15949.75
511.655	16318.39
511.858	16334.77
512.06	16461.74
512.262	16904.1
512.465	16963.5
512.667	17242.02
512.87	17094.57
513.072	17375.14
513.274	17670.05
513.477	17827.74
513.679	17708.96
513.881	18194.33
514.084	18732.94
514.286	18677.65
514.488	18728.84
514.69	19451.78
514.893	19337.09
515.095	19447.68
515.297	19691.39
515.499	19851.13
515.701	20035.45
515.904	20281.21
516.106	20582.26
516.308	20766.57
516.51	20991.85
516.712	21278.57
516.914	21231.46
517.116	21675.87
517.318	21872.48
517.52	22011.74
517.722	22372.18
517.925	22427.48
518.127	22900.56
518.329	23060.3
518.531	23039.82
518.733	23480.13
518.935	23287.62
519.136	23938.88
519.338	24225.59
519.54	24321.85
519.742	24672.05
519.944	24688.43
520.146	25292.58
520.348	25225
520.55	25255.72
520.752	25771.81
520.954	26275.61
521.155	25884.45
521.357	26570.52
521.559	26554.13
521.761	26978.06
521.963	27055.89
522.164	27184.91
522.366	27365.13
522.568	27870.98
522.77	27461.38
522.971	28288.76
523.173	28102.4
523.375	28382.97
523.576	28544.76
523.778	28583.67
523.98	28909.3
524.181	29069.04
524.383	29066.99
524.584	29925.09
524.786	29507.3
524.988	29257.45
525.189	29982.43
525.391	30263
525.592	30459.61
525.794	30605.02
525.995	30664.41
526.197	30818
526.398	30609.11
526.6	30840.53
526.801	30832.34
527.003	31258.32
527.204	31401.68
527.406	31747.78
527.607	31753.93
527.808	31725.25
528.01	31344.33
528.211	31741.64
528.412	32663.22
528.614	32349.89
528.815	32196.29
529.016	32536.25
529.218	32456.38
529.419	32710.33
529.62	32759.48
529.822	32732.86
530.023	32835.25
530.224	32652.98
530.425	32814.77
530.626	32323.26
530.828	32855.73
531.029	33367.73
531.23	32966.32
531.431	33175.22
531.632	33265.33
531.833	33160.88
532.035	33074.87
532.236	33509.04
532.437	33689.26
532.638	32870.07
532.839	33648.3
533.04	33750.7
533.241	33253.04
533.442	33795.75
533.643	33945.25
533.844	33627.82
534.045	33740.46
534.246	33519.28
534.447	33982.12
534.648	33564.33
534.849	33932.96
535.05	33636.01
535.251	33902.25
535.451	33805.99
535.652	33711.78
535.853	33902.25
536.054	34217.63
536.255	33879.72
536.456	33504.94
536.657	34270.88
536.857	33922.73
537.058	33650.35
537.259	34287.26
537.46	33894.05
537.66	33975.97
537.861	34076.32
538.062	33892.01
538.263	34137.76
538.463	34076.32
538.664	33932.96
538.865	34145.95
539.065	34242.21
539.266	33908.39
539.466	34619.03
539.667	33633.96
539.868	34397.85
540.068	34066.08
540.269	34070.18
540.469	34021.03
540.67	34104.99
540.87	34061.99
541.071	33982.12
541.271	33722.02
541.472	33939.11
541.672	33879.72
541.873	33805.99
542.073	33578.67
542.274	34526.88
542.474	33853.09
542.675	33738.41
542.875	34186.91
543.075	33967.78
543.276	33494.7
543.476	34123.43
543.676	33889.96
543.877	34148
544.077	34047.65
544.277	33822.37
544.478	33857.19
544.678	33945.25
544.878	33871.53
545.078	34129.57
545.279	34125.47
545.479	33492.65
545.679	34174.63
545.879	33693.35
546.079	34014.88
546.28	34117.28
546.48	33877.67
546.68	34021.03
546.88	34051.75
547.08	34227.87
547.28	33822.37
547.48	33515.18
547.68	34182.82
547.88	33752.74
548.081	34037.41
548.281	33881.77
548.481	33775.27
548.681	34203.3
548.881	33762.98
549.081	33941.16
549.28	33894.05
549.48	33869.48
549.68	34025.12
549.88	34457.24
550.08	33670.82
550.28	34059.94
550.48	33906.34
550.68	33717.93
550.88	33689.26
551.08	33748.65
551.279	34068.13
551.479	33590.95
551.679	33904.29
551.879	33941.16
552.079	34084.51
552.278	33838.76
552.478	33949.35
552.678	34004.64
552.878	34090.66
553.077	33781.42
553.277	33474.22
553.477	33982.12
553.676	33443.5
553.876	33789.61
554.076	33601.19
554.275	33762.98
554.475	33367.73
554.674	33662.63
554.874	33347.25
555.074	33402.54
555.273	33523.37
555.473	33758.89
555.672	33220.27
555.872	33046.19
556.071	33468.08
556.271	33547.95
556.47	33365.68
556.67	33058.48
556.869	33177.26
557.068	33337.01
557.268	32931.51
557.467	33099.44
557.667	33246.9
557.866	33298.09
558.065	32763.57
558.265	32882.36
558.464	32775.86
558.663	33140.4
558.863	32573.11
559.062	33322.67
559.261	32675.51
559.461	33081.01
559.66	32546.49
559.859	32646.84
560.058	32341.69
560.258	32521.91
560.457	32116.42
560.656	32958.13
560.855	32569.02
561.054	32489.15
561.253	32089.79
561.453	32360.12
561.652	32364.22
561.851	32173.76
562.05	32040.64
562.249	32089.79
562.448	31944.39
562.647	32239.29
562.846	32325.31
563.045	31821.51
563.244	31778.5
563.443	31825.61
563.642	31940.29
563.841	31653.58
564.04	31434.44
564.239	31936.2
564.438	31522.51
564.637	31880.9
564.836	31971.01
565.035	31397.58
565.234	31491.79
565.432	31782.6
565.631	31084.24
565.83	31516.36
566.029	31264.46
566.228	30955.22
566.427	30772.95
566.625	30877.4
566.824	30725.85
567.023	30957.27
567.222	30490.33
567.42	31409.87
567.619	30568.15
567.818	30729.94
568.016	30342.88
568.215	31074
568.414	30328.54
568.612	30826.2
568.811	30465.75
569.01	30275.29
569.208	29916.9
569.407	30133.98
569.605	29693.67
569.804	30238.43
570.002	30273.24
570.201	30037.73
570.4	29656.81
570.598	29992.67
570.797	29523.69
570.995	29458.15
571.193	29413.1
571.392	29703.91
571.59	29107.95
571.789	29146.86
571.987	29036.27
572.186	29243.12
572.384	28940.02
572.582	29282.03
572.781	29173.49
572.979	28712.69
573.177	28905.2
573.376	28991.22
573.574	28684.02
573.772	28835.57
573.971	28659.45
574.169	28206.84
574.367	28157.69
574.565	28157.69
574.763	28460.79
574.962	28100.35
575.16	27692.8
575.358	27664.13
575.556	27729.67
575.754	28092.16
575.952	27701
576.151	27627.27
576.349	27512.58
576.547	27436.81
576.745	27744
576.943	27184.91
577.141	27657.99
577.339	27551.49
577.537	27223.82
577.735	27199.24
577.933	27002.64
578.131	27287.31
578.329	26648.34
578.527	26490.65
578.725	26822.42
578.923	26715.92
579.121	26689.3
579.319	26439.45
579.516	26527.51
579.714	26181.4
579.912	26435.35
580.11	26072.86
580.308	26122.01
580.506	26138.4
580.704	25689.89
580.901	25974.56
581.099	26142.49
581.297	25476.9
581.495	25556.77
581.692	25798.43
581.89	25489.19
582.088	25845.54
582.285	25296.68
582.483	25286.44
582.681	25526.05
582.878	25358.12
583.076	25106.22
583.274	25274.15
583.471	24694.58
583.669	25073.45
583.866	24844.08
584.064	24921.9
584.262	24735.54
584.459	24713.01
584.657	24377.14
584.854	24676.15
585.052	24031.04
585.249	24344.38
585.447	24442.68
585.644	23846.72
585.841	24102.71
586.039	24225.59
586.236	23932.73
586.434	23959.36
586.631	23676.74
586.828	23938.88
587.026	23969.6
587.223	23949.12
587.42	23938.88
587.618	23811.9
587.815	23471.94
588.012	23590.72
588.21	23533.38
588.407	23537.48
588.604	23062.35
588.801	22867.79
588.999	22808.4
589.196	23314.25
589.393	23107.4
589.59	22873.93
589.787	22843.21
589.984	22714.19
590.182	22325.08
590.379	23113.55
590.576	22380.37
590.773	22638.42
590.97	22187.86
591.167	22335.32
591.364	22234.97
591.561	22392.66
591.758	22087.51
591.955	21956.44
592.152	22001.5
592.349	21874.52
592.546	21917.53
592.743	21884.76
592.94	21704.54
593.137	21802.85
593.334	21544.8
593.531	21194.6
593.727	21479.27
593.924	21483.36
594.121	21466.98
594.318	21716.83
594.515	21190.5
594.712	21471.08
594.908	21188.46
595.105	21213.03
595.302	21278.57
595.499	21208.94
595.696	20737.9
595.892	20924.27
596.089	20911.98
596.286	21024.62
596.482	21012.33
596.679	20672.37
596.876	20807.53
597.072	20610.93
597.269	20445.04
597.466	20375.41
597.662	20289.4
597.859	20539.25
598.055	20250.49
598.252	20111.22
598.448	20064.12
598.645	20182.9
598.841	19838.84
599.038	20027.26
599.234	19787.64
599.431	19724.16
599.627	19699.58
599.824	19670.91
600.02	19421.06
600.217	19632
600.413	19341.19
600.609	19433.35
600.806	19675.01
601.002	19326.85
601.198	19406.72
601.395	19054.47
601.591	18988.94
601.787	18999.18
601.984	19142.53
602.18	19386.24
602.376	18810.76
602.572	18818.96
602.769	18743.18
602.965	18640.78
603.161	18939.79
603.357	18536.34
603.553	18614.16
603.75	18530.19
603.946	18229.14
604.142	18524.05
604.338	18212.76
604.534	18372.5
604.73	18016.15
604.926	18098.07
605.122	17885.08
605.318	17999.77
605.514	17719.2
605.71	17897.37
605.906	17930.14
606.102	17813.4
606.298	17926.04
606.494	17547.17
606.69	17532.83
606.886	17432.48
607.082	17319.84
607.278	17643.42
607.474	17289.12
607.67	17276.84
607.866	17188.77
608.062	17342.37
608.257	17018.79
608.453	17207.2
608.649	17221.54
608.845	16826.28
609.041	17186.72
609.236	17012.65
609.432	16996.26
609.628	16969.64
609.824	16662.44
610.019	16742.32
610.215	16551.85
610.411	16592.81
610.606	16617.39
610.802	16521.13
610.998	16451.5
611.193	16306.1
611.389	16461.74
611.584	16345.01
611.78	16129.97
611.976	16351.15
612.171	16441.26
612.367	16166.84
612.562	15906.74
612.758	15728.57
612.953	16021.43
613.149	16236.47
613.344	15804.35
613.539	16123.83
613.735	15959.99
613.93	16046.01
614.126	15503.29
614.321	15910.84
614.517	15712.19
614.712	15644.6
614.907	15681.47
615.103	15693.76
615.298	15515.58
615.493	15620.03
615.688	15224.77
615.884	15781.82
616.079	15400.9
616.274	15523.77
616.47	15187.91
616.665	15155.14
616.86	14972.87
617.055	14974.92
617.25	15046.6
617.445	15095.75
617.641	14743.5
617.836	14858.18
618.031	14958.53
618.226	14893
618.421	14704.59
618.616	14917.58
618.811	14456.78
619.006	14698.44
619.201	14268.37
619.396	14604.24
619.591	14184.4
619.786	14467.02
619.981	14327.76
620.176	14354.38
620.371	14008.28
620.566	14342.1
620.761	13879.25
620.956	14221.27
621.151	13770.71
621.346	13860.82
621.541	13641.69
621.735	13680.6
621.93	13504.48
622.125	13762.52
622.32	13574.11
622.515	13434.85
622.709	13490.14
622.904	13395.93
623.099	13520.86
623.294	13184.99
623.488	13010.92
623.683	13084.64
623.878	12873.7
624.072	12969.96
624.267	12908.52
624.462	12906.47
624.656	12529.64
624.851	12703.72
625.046	12560.36
625.24	12404.72
625.435	12359.66
625.629	12359.66
625.824	12197.87
626.018	11966.45
626.213	11839.48
626.407	12027.89
626.602	11878.39
626.796	12040.18
626.991	11843.57
627.185	11687.93
627.38	12011.51
627.574	11581.43
627.768	11726.84
627.963	11636.73
628.157	11360.25
628.352	11565.05
628.546	11249.66
628.74	11532.28
628.935	11272.19
629.129	11053.06
629.323	11167.74
629.517	10956.8
629.712	11180.03
629.906	11034.63
630.1	10983.43
630.294	10774.53
630.489	10741.77
630.683	10872.84
630.877	10493.96
631.071	10647.56
631.265	10639.37
631.459	10416.14
631.653	10704.9
631.848	10444.81
632.042	10401.8
632.236	10373.13
632.43	10080.27
632.624	10426.38
632.818	10158.1
633.012	10082.32
633.206	10096.66
633.4	10280.97
633.594	9959.44
633.788	10176.53
633.982	9789.46
634.176	9709.59
634.369	9900.05
634.563	9734.17
634.757	9701.4
634.951	9807.89
635.145	9615.38
635.339	9723.93
635.533	9500.7
635.726	9568.28
635.92	9310.24
636.114	9359.39
636.308	9355.29
636.501	9240.61
636.695	9265.18
636.889	9279.52
637.083	9076.77
637.276	8953.89
637.47	9097.25
637.664	8802.34
637.857	9029.66
638.051	9095.2
638.244	8714.28
638.438	8804.39
638.632	8738.85
638.825	8767.52
639.019	8691.75
639.212	8626.22
639.406	8611.88
639.599	8544.3
639.793	8607.78
639.986	8335.4
640.18	8423.47
640.373	8276.01
640.567	8116.27
640.76	8192.05
640.954	8296.49
641.147	7934
641.34	7979.06
641.534	8009.78
641.727	8136.75
641.92	7974.96
642.114	7890.99
642.307	7792.69
642.5	7774.26
642.694	7766.07
642.887	7864.37
643.08	7721.01
643.273	7563.32
643.467	7645.24
643.66	7573.56
643.853	7247.93
644.046	7460.92
644.239	7428.15
644.432	7587.89
644.626	7409.72
644.819	7258.17
645.012	7395.39
645.205	7229.5
645.398	7135.29
645.591	7075.9
645.784	7252.03
645.977	7110.72
646.17	7073.85
646.363	7018.56
646.556	7020.61
646.749	6797.38
646.942	6862.91
647.135	6735.94
647.328	6574.15
647.521	6752.32
647.714	6692.93
647.907	6821.95
648.099	6563.91
648.292	6451.27
648.485	6406.22
648.678	6529.1
648.871	6594.63
649.064	6367.31
649.256	6303.82
649.449	6361.16
649.642	6301.77
649.835	6074.45
650.027	6160.46
650.22	6101.07
650.413	6119.5
650.605	5982.29
650.798	5996.62
650.991	5931.09
651.183	5894.22
651.376	5691.48
651.568	5982.29
651.761	5746.77
651.954	5869.65
652.146	5824.59
652.339	5677.14
652.531	5793.87
652.724	5738.58
652.916	5644.37
653.109	5636.18
653.301	5464.15
653.494	5441.62
653.686	5511.25
653.879	5484.63
654.071	5380.18
654.263	5290.07
654.456	5470.3
654.648	5361.75
654.84	5245.02
655.033	5232.73
655.225	5273.69
655.417	5165.15
655.61	5208.16
655.802	5171.29
655.994	5154.91
656.186	4939.87
656.379	4978.78
656.571	5072.99
656.763	5036.13
656.955	4835.42
657.148	4929.63
657.34	4839.52
657.532	4708.45
657.724	4849.76
657.916	4855.9
658.108	4796.51
658.3	4675.68
658.492	4644.96
658.684	4618.34
658.876	4403.3
659.068	4503.65
659.26	4405.35
659.452	4554.85
659.644	4624.48
659.836	4407.4
660.028	4452.45
660.22	4292.71
660.412	4343.91
660.604	4276.33
660.796	4202.6
660.988	4218.99
661.18	4300.91
661.372	4071.53
661.563	4208.75
661.755	4196.46
661.947	4214.89
662.139	4190.31
662.331	4173.93
662.522	4053.1
662.714	4055.15
662.906	4046.96
663.097	3995.76
663.289	3950.7
663.481	3889.26
663.673	3858.54
663.864	3862.64
664.056	3774.58
664.247	3924.08
664.439	3881.07
664.631	3872.88
664.822	3758.19
665.014	3663.99
665.205	3688.56
665.397	3569.78
665.588	3659.89
665.78	3584.12
665.971	3553.4
666.163	3809.39
666.354	3555.44
666.546	3577.97
666.737	3502.2
666.929	3440.76
667.12	3446.9
667.311	3541.11
667.503	3424.37
667.694	3448.95
667.885	3481.72
668.077	3385.46
668.268	3414.13
668.459	3326.07
668.651	3414.13
668.842	3358.84
669.033	3348.6
669.224	3299.45
669.416	3176.57
669.607	3274.87
669.798	3113.08
669.989	3262.58
670.18	3201.15
670.371	3086.46
670.563	3137.66
670.754	3049.6
670.945	3221.63
671.136	3176.57
671.327	3145.85
671.518	2988.16
671.709	3108.99
671.9	3121.28
672.091	2975.87
672.282	3029.12
672.473	2902.14
672.664	2891.9
672.855	3170.43
673.046	3088.51
673.237	3098.75
673.428	2891.9
673.619	2887.81
673.809	2930.81
674	2873.47
674.191	2982.01
674.382	2875.52
674.573	3039.36
674.764	2857.09
674.954	2893.95
675.145	2781.31
675.336	2816.13
675.527	2803.84
675.717	2969.73
675.908	2834.56
676.099	2766.98
676.289	2807.94
676.48	2826.37
676.671	2703.49
676.861	2840.7
677.052	2594.95
677.243	2721.92
677.433	2676.87
677.624	2789.5
677.814	2603.14
678.005	2738.3
678.195	2629.76
678.386	2656.39
678.576	2689.15
678.767	2678.91
678.957	2658.43
679.148	2670.72
679.338	2597
679.529	2547.84
679.719	2672.77
679.909	2562.18
680.1	2533.51
680.29	2506.88
680.481	2537.6
680.671	2625.67
680.861	2533.51
681.052	2502.79
681.242	2588.8
681.432	2617.47
681.622	2484.36
681.813	2551.94
682.003	2668.67
682.193	2539.65
682.383	2494.6
682.573	2474.12
682.764	2594.95
682.954	2439.3
683.144	2443.4
683.334	2517.12
683.524	2584.71
683.714	2400.39
683.904	2427.01
684.094	2535.56
684.284	2482.31
684.474	2398.34
684.664	2504.84
684.854	2455.69
685.044	2435.21
685.234	2488.45
685.424	2332.81
685.614	2437.25
685.804	2429.06
685.994	2443.4
686.184	2474.12
686.374	2353.29
686.564	2357.38
686.753	2357.38
686.943	2408.58
687.133	2429.06
687.323	2402.44
687.513	2332.81
687.702	2336.9
687.892	2416.77
688.082	2322.57
688.272	2379.91
688.461	2343.05
688.651	2345.09
688.841	2310.28
689.03	2336.9
689.22	2326.66
689.41	2365.57
689.599	2250.89
689.789	2443.4
689.979	2195.59
690.168	2232.46
690.358	2250.89
690.547	2355.33
690.737	2394.25
690.926	2314.38
691.116	2308.23
691.305	2234.5
691.495	2302.09
691.684	2238.6
691.874	2373.77
692.063	2326.66
692.252	2269.32
692.442	2195.59
692.631	2297.99
692.82	2216.07
693.01	2318.47
693.199	2240.65
693.388	2193.55
693.578	2144.39
693.767	2220.17
693.956	2179.21
694.146	2371.72
694.335	2197.64
694.524	2302.09
694.713	2224.26
694.902	2187.4
695.092	2248.84
695.281	2287.75
695.47	2269.32
695.659	2228.36
695.848	2228.36
696.037	2164.87
696.226	2316.42
696.415	2222.22
696.604	2218.12
696.793	2171.02
696.982	2254.98
697.171	2279.56
697.36	2152.59
697.549	2263.18
697.738	2234.5
697.927	2324.62
698.116	2283.66
698.305	2386.05
698.494	2228.36
698.683	2234.5
698.872	2164.87
699.061	2273.42
699.25	2123.91
699.438	2211.98
699.627	2121.87
699.816	2236.55
700.005	2158.73
700.193	2211.98
700.382	2267.27
700.571	2140.3
700.76	2211.98
700.948	2252.94
701.137	2197.64
701.326	2187.4
701.514	2144.39
701.703	2207.88
701.892	2033.8
702.08	2138.25
702.269	2234.5
702.457	2130.06
702.646	2181.26
702.834	2179.21
703.023	2070.67
703.212	2130.06
703.4	2074.76
703.589	2160.78
703.777	2187.4
703.965	2087.05
704.154	2066.57
704.342	2033.8
704.531	1992.84
704.719	2050.19
704.907	2240.65
705.096	1978.51
705.284	2031.76
705.472	2068.62
705.661	2078.86
705.849	2005.13
706.037	1949.84
706.226	2070.67
706.414	2078.86
706.602	2013.32
706.79	1915.02
706.979	2099.34
707.167	2121.87
707.355	2015.37
707.543	1960.08
707.731	2050.19
707.919	2042
708.107	1955.98
708.296	1958.03
708.484	1953.93
708.672	1949.84
708.86	1951.88
709.048	1945.74
709.236	1824.91
709.424	1900.69
709.612	1982.6
709.8	1851.53
709.988	1925.26
710.176	1841.29
710.364	2042
710.551	1833.1
710.739	1869.97
710.927	1781.9
711.115	1888.4
711.303	1835.15
711.491	1833.1
711.679	1820.81
711.866	1927.31
712.054	1794.19
712.242	1814.67
712.43	1806.48
712.617	1761.42
712.805	1755.28
712.993	1759.38
713.181	1706.13
713.368	1747.09
713.556	1720.46
713.744	1802.38
713.931	1808.53
714.119	1767.57
714.306	1767.57
714.494	1609.87
714.682	1683.6
714.869	1644.69
715.057	1677.46
715.244	1788.05
715.432	1607.83
715.619	1595.54
715.807	1695.89
715.994	1720.46
716.182	1618.07
716.369	1714.32
716.556	1605.78
716.744	1626.26
716.931	1611.92
717.119	1599.63
717.306	1759.38
717.493	1534.1
717.681	1661.07
717.868	1527.96
718.055	1618.07
718.242	1499.28
718.43	1542.29
718.617	1532.05
718.804	1607.83
718.991	1554.58
719.179	1536.15
719.366	1611.92
719.553	1480.85
719.74	1441.94
719.927	1505.43
720.114	1579.15
720.301	1493.14
720.488	1544.34
720.676	1374.36
720.863	1466.52
721.05	1448.08
721.237	1462.42
721.424	1493.14
721.611	1435.8
721.798	1446.04
721.985	1417.37
722.172	1454.23
722.358	1343.64
722.545	1429.65
722.732	1489.04
722.919	1462.42
723.106	1443.99
723.293	1421.46
723.48	1400.98
723.667	1333.4
723.853	1370.26
724.04	1351.83
724.227	1362.07
724.414	1368.21
724.6	1341.59
724.787	1308.82
724.974	1392.79
725.161	1343.64
725.347	1290.39
725.534	1308.82
725.72	1231
725.907	1355.93
726.094	1280.15
726.28	1255.58
726.467	1261.72
726.653	1267.86
726.84	1325.21
727.027	1370.26
727.213	1292.44
727.4	1267.86
727.586	1312.92
727.773	1247.38
727.959	1210.52
728.145	1204.38
728.332	1224.86
728.518	1179.8
728.705	1214.62
728.891	1255.58
729.077	1247.38
729.264	1095.83
729.45	1196.18
729.636	1155.23
729.823	1181.85
730.009	1128.6
730.195	1159.32
730.382	1161.37
730.568	1212.57
730.754	1089.69
730.94	1140.89
731.126	1173.66
731.313	1151.13
731.499	1101.98
731.685	1169.56
731.871	1210.52
732.057	1198.23
732.243	1173.66
732.429	1120.41
732.615	1093.79
732.801	1106.07
732.987	1177.75
733.173	1202.33
733.359	1069.21
733.545	1110.17
733.731	987.29
733.917	1038.49
734.103	1073.31
734.289	1085.59
734.475	1032.35
734.661	1028.25
734.847	1163.42
735.033	1083.55
735.219	1061.02
735.404	1063.07
735.59	1005.72
735.776	1136.79
735.962	1024.16
736.148	1065.11
736.333	1077.4
736.519	1087.64
736.705	1022.11
736.89	915.61
737.076	987.29
737.262	964.76
737.447	929.95
737.633	1040.54
737.819	948.38
738.004	964.76
738.19	929.95
738.375	970.91
738.561	966.81
738.747	1013.92
738.932	878.75
739.118	985.24
739.303	888.99
739.489	972.96
739.674	987.29
739.859	919.71
740.045	891.04
740.23	1024.16
740.416	899.23
740.601	981.15
740.786	876.7
740.972	888.99
741.157	884.89
741.342	852.13
741.528	888.99
741.713	923.8
741.898	972.96
742.084	915.61
742.269	800.93
742.454	915.61
742.639	886.94
742.824	870.56
743.01	845.98
743.195	809.12
743.38	921.76
743.565	923.8
743.75	850.08
743.935	882.85
744.12	895.13
744.305	809.12
744.49	858.27
744.675	864.41
744.86	800.93
745.045	829.6
745.23	790.69
745.415	766.11
745.6	792.73
745.785	784.54
745.97	825.5
746.155	817.31
746.34	827.55
746.525	749.73
746.71	825.5
746.895	696.48
747.079	669.86
747.264	764.06
747.449	733.34
747.634	659.62
747.819	766.11
748.003	796.83
748.188	841.89
748.373	714.91
748.557	719.01
748.742	745.63
748.927	813.21
749.111	725.15
749.296	737.44
749.481	669.86
749.665	647.33
749.85	719.01
750.034	698.53
750.219	714.91
750.404	747.68
750.588	540.83
750.773	620.71
750.957	682.14
751.141	620.71
751.326	663.71
751.51	647.33
751.695	659.62
751.879	653.47
752.064	684.19
752.248	649.38
752.432	694.43
752.617	594.08
752.801	641.18
752.985	589.99
753.17	665.76
753.354	655.52
753.538	678.05
753.722	567.46
753.907	602.27
754.091	598.18
754.275	624.8
754.459	569.51
754.643	567.46
754.828	659.62
755.012	583.84
755.196	534.69
755.38	555.17
755.564	606.37
755.748	581.79
755.932	559.27
756.116	587.94
756.3	546.98
756.484	612.51
756.668	565.41
756.852	514.21
757.036	452.77
757.22	497.83
757.404	579.75
757.588	585.89
757.772	487.59
757.956	540.83
758.14	499.88
758.323	561.31
758.507	561.31
758.691	546.98
758.875	489.64
759.059	503.97
759.242	493.73
759.426	506.02
759.61	522.4
759.794	456.87
759.977	516.26
760.161	583.84
760.345	493.73
760.528	540.83
760.712	460.96
760.895	516.26
761.079	483.49
761.263	465.06
761.446	471.2
761.63	430.24
761.813	417.96
761.997	430.24
762.18	440.48
762.364	506.02
762.547	417.96
762.731	438.44
762.914	360.61
763.098	518.31
763.281	428.2
763.464	458.92
763.648	393.38
763.831	444.58
764.015	399.52
764.198	442.53
764.381	403.62
764.564	405.67
764.748	448.68
764.931	473.25
765.114	368.81
765.297	465.06
765.481	528.55
765.664	434.34
765.847	448.68
766.03	571.55
766.213	350.37
766.397	460.96
766.58	420
766.763	374.95
766.946	321.7
767.129	436.39
767.312	411.81
767.495	452.77
767.678	442.53
767.861	399.52
768.044	471.2
768.227	403.62
768.41	372.9
768.593	440.48
768.776	426.15
768.959	485.54
769.142	411.81
769.324	415.91
769.507	432.29
769.69	417.96
769.873	391.33
770.056	434.34
770.239	381.09
770.421	356.52
770.604	336.04
770.787	409.76
770.97	434.34
771.152	270.5
771.335	405.67
771.518	366.76
771.7	381.09
771.883	442.53
772.066	420
772.248	432.29
772.431	397.48
772.613	368.81
772.796	352.42
772.978	379.04
773.161	344.23
773.343	325.8
773.526	325.8
773.708	344.23
773.891	385.19
774.073	344.23
774.256	311.46
774.438	325.8
774.621	387.24
774.803	350.37
774.985	379.04
775.168	399.52
775.35	270.5
775.532	303.27
775.715	313.51
775.897	354.47
776.079	368.81
776.261	366.76
776.444	340.13
776.626	333.99
776.808	366.76
776.99	356.52
777.173	344.23
777.355	315.56
777.537	293.03
777.719	323.75
777.901	284.84
778.083	352.42
778.265	348.33
778.447	350.37
778.629	272.55
778.811	295.08
778.993	278.69
779.175	301.22
779.357	313.51
779.539	243.88
779.721	299.17
779.903	319.65
780.085	278.69
780.267	276.65
780.449	293.03
780.631	223.4
780.812	366.76
780.994	262.31
781.176	250.02
781.358	260.26
781.54	252.07
781.721	250.02
781.903	270.5
782.085	252.07
782.267	297.13
782.448	309.41
782.63	268.45
782.812	252.07
782.993	225.45
783.175	303.27
783.357	229.54
783.538	276.65
783.72	229.54
783.901	190.63
784.083	245.93
784.264	184.49
784.446	211.11
784.627	198.82
784.809	221.35
784.99	219.3
785.172	254.12
785.353	194.73
785.535	204.97
785.716	186.54
785.897	211.11
786.079	342.18
786.26	272.55
786.441	198.82
786.623	225.45
786.804	250.02
786.985	243.88
787.167	200.87
787.348	250.02
787.529	209.06
787.71	180.39
787.891	250.02
788.073	295.08
788.254	233.64
788.435	227.5
788.616	229.54
788.797	180.39
788.978	223.4
789.159	194.73
789.34	233.64
789.522	133.29
789.703	293.03
789.884	141.48
790.065	202.92
790.246	233.64
790.427	131.24
790.607	200.87
790.788	268.45
790.969	186.54
791.15	227.5
791.331	188.58
791.512	270.5
791.693	159.91
791.874	194.73
792.054	164.01
792.235	235.69
792.416	213.16
792.597	125.1
792.778	125.1
792.958	166.06
793.139	182.44
793.32	237.74
793.5	125.1
793.681	221.35
793.862	192.68
794.042	202.92
794.223	137.38
794.404	178.34
794.584	147.62
794.765	172.2
794.945	121
795.126	161.96
795.306	139.43
795.487	239.78
795.667	243.88
795.848	225.45
796.028	186.54
796.209	112.81
796.389	96.43
796.57	186.54
796.75	168.1
796.93	121
797.111	133.29
797.291	178.34
797.471	168.1
797.652	233.64
797.832	178.34
798.012	88.23
798.192	118.95
798.373	133.29
798.553	188.58
798.733	88.23
798.913	186.54
799.093	229.54
799.274	116.9
799.454	215.21
799.634	166.06
799.814	170.15
799.994	157.86
800.174	116.9
800.354	186.54
800.534	176.3
800.714	141.48
800.894	159.91
801.074	188.58
801.254	96.43
801.434	137.38
801.614	123.05
801.794	139.43
801.974	385.19
802.154	123.05
802.334	168.1
802.514	129.19
802.693	135.34
802.873	53.42
803.053	161.96
803.233	104.62
803.413	155.82
803.592	145.58
803.772	96.43
803.952	155.82
804.131	104.62
804.311	153.77
804.491	159.91
804.67	108.71
804.85	112.81
805.03	159.91
805.209	88.23
805.389	110.76
805.568	92.33
805.748	198.82
805.928	164.01
806.107	86.19
806.287	88.23
806.466	121
806.646	88.23
806.825	106.67
807.004	104.62
807.184	125.1
807.363	51.37
807.543	80.04
807.722	98.47
807.901	80.04
808.081	80.04
808.26	96.43
808.439	112.81
808.619	110.76
808.798	118.95
808.977	80.04
809.156	96.43
809.336	172.2
809.515	190.63
809.694	88.23
809.873	157.86
810.052	123.05
810.231	168.1
810.411	147.62
810.59	57.51
810.769	82.09
810.948	88.23
811.127	-8.02
811.306	80.04
811.485	153.77
811.664	73.9
811.843	39.08
812.022	125.1
812.201	84.14
812.38	145.58
812.559	141.48
812.737	110.76
812.916	67.75
813.095	86.19
813.274	129.19
813.453	90.28
813.632	90.28
813.811	143.53
813.989	100.52
814.168	123.05
814.347	143.53
814.526	139.43
814.704	153.77
814.883	178.34
815.062	92.33
815.24	10.41
815.419	94.38
815.598	174.25
815.776	41.13
815.955	32.94
816.133	-8.02
816.312	129.19
816.49	161.96
816.669	63.66
816.847	100.52
817.026	88.23
817.204	92.33
817.383	145.58
817.561	100.52
817.74	139.43
817.918	110.76
818.097	47.27
818.275	71.85
818.453	92.33
818.632	67.75
818.81	143.53
818.988	41.13
819.167	80.04
819.345	139.43
819.523	82.09
819.701	57.51
819.879	63.66
820.058	98.47
820.236	69.8
820.414	94.38
820.592	80.04
820.77	110.76
820.948	90.28
821.127	75.95
821.305	63.66
821.483	67.75
821.661	30.89
821.839	39.08
822.017	16.55
822.195	24.75
822.373	43.18
822.551	145.58
822.729	41.13
822.907	39.08
823.085	63.66
823.262	92.33
823.44	102.57
823.618	77.99
823.796	59.56
823.974	47.27
824.152	90.28
824.329	104.62
824.507	71.85
824.685	108.71
824.863	32.94
825.04	73.9
825.218	73.9
825.396	92.33
825.574	59.56
825.751	-1.88
825.929	108.71
826.107	47.27
826.284	34.99
826.462	32.94
826.639	106.67
826.817	-1.88
826.994	41.13
827.172	73.9
827.349	123.05
827.527	45.23
827.704	43.18
827.882	84.14
828.059	30.89
828.237	80.04
828.414	75.95
828.591	24.75
828.769	26.79
828.946	86.19
829.124	59.56
829.301	104.62
829.478	30.89
829.655	86.19
829.833	73.9
830.01	-24.4
830.187	41.13
830.364	73.9
830.542	63.66
830.719	112.81
830.896	67.75
831.073	51.37
831.25	71.85
831.427	34.99
831.604	18.6
831.782	102.57
831.959	30.89
832.136	43.18
832.313	96.43
832.49	100.52
832.667	-34.64
832.844	41.13
833.021	59.56
833.198	47.27
833.374	8.36
833.551	20.65
833.728	94.38
833.905	49.32
834.082	47.27
834.259	112.81
834.436	102.57
834.612	57.51
834.789	141.48
834.966	61.61
835.143	47.27
835.319	-10.07
835.496	18.6
835.673	49.32
835.85	63.66
836.026	34.99
836.203	92.33
836.38	69.8
836.556	39.08
836.733	14.51
836.909	96.43
837.086	51.37
837.262	8.36
837.439	67.75
837.616	8.36
837.792	110.76
837.968	123.05
838.145	43.18
838.321	71.85
838.498	135.34
838.674	114.86
838.851	49.32
839.027	71.85
839.203	22.7
839.38	96.43
839.556	34.99
839.732	73.9
839.909	43.18
840.085	18.6
840.261	92.33
840.437	37.03
840.614	80.04
840.79	88.23
840.966	8.36
841.142	82.09
841.318	47.27
841.494	73.9
841.671	53.42
841.847	77.99
842.023	14.51
842.199	67.75
842.375	57.51
842.551	88.23
842.727	34.99
842.903	53.42
843.079	-22.36
843.255	49.32
843.431	88.23
843.607	0.17
843.783	30.89
843.959	14.51
844.134	137.38
844.31	82.09
844.486	118.95
844.662	55.47
844.838	8.36
845.013	0.17
845.189	102.57
845.365	106.67
845.541	51.37
845.716	22.7
845.892	88.23
846.068	80.04
846.244	37.03
846.419	88.23
846.595	16.55
846.77	-3.93
846.946	43.18
847.122	18.6
847.297	51.37
847.473	104.62
847.648	6.31
847.824	82.09
847.999	10.41
848.175	22.7
848.35	47.27
848.526	-14.17
848.701	80.04
848.876	96.43
849.052	34.99
849.227	98.47
849.403	26.79
849.578	32.94
849.753	75.95
849.929	-1.88
850.104	32.94
850.279	24.75
850.454	108.71
850.63	30.89
850.805	63.66
850.98	-18.26
851.155	90.28
851.33	41.13
851.505	77.99
851.681	67.75
851.856	-10.07
852.031	84.14
852.206	32.94
852.381	2.22
852.556	22.7
852.731	110.76
852.906	39.08
853.081	94.38
853.256	6.31
853.431	94.38
853.606	67.75
853.781	22.7
853.956	39.08
854.131	55.47
854.305	80.04
854.48	112.81
854.655	45.23
854.83	71.85
855.005	80.04
855.18	37.03
855.354	16.55
855.529	88.23
855.704	75.95
855.879	104.62
856.053	45.23
856.228	-16.21
856.403	-34.64
856.577	92.33
856.752	-8.02
856.926	-22.36
857.101	67.75
857.276	80.04
857.45	73.9
857.625	73.9
857.799	20.65
857.974	80.04
858.148	63.66
858.323	69.8
858.497	26.79
858.672	6.31
858.846	2.22
859.02	-67.41
859.195	26.79
859.369	61.61
859.543	43.18
859.718	14.51
859.892	18.6
860.066	65.71
860.241	24.75
860.415	24.75
860.589	26.79
860.763	24.75
860.938	16.55
861.112	10.41
861.286	-5.97
861.46	26.79
861.634	67.75
861.808	80.04
861.982	14.51
862.157	84.14
862.331	-24.4
862.505	6.31
862.679	-5.97
862.853	49.32
863.027	18.6
863.201	63.66
863.375	-59.22
863.549	-5.97
863.722	22.7
863.896	104.62
864.07	-1.88
864.244	0.17
864.418	32.94
864.592	18.6
864.766	39.08
864.939	8.36
865.113	30.89
865.287	47.27
865.461	57.51
865.634	82.09
865.808	55.47
865.982	41.13
866.156	30.89
866.329	71.85
866.503	67.75
866.676	71.85
866.85	75.95
867.024	86.19
867.197	30.89
867.371	114.86
867.544	-1.88
867.718	32.94
867.891	82.09
868.065	73.9
868.238	73.9
868.412	14.51
868.585	20.65
868.759	55.47
868.932	20.65
869.105	-18.26
869.279	-14.17
869.452	30.89
869.625	-14.17
869.799	0.17
869.972	32.94
870.145	41.13
870.319	18.6
870.492	8.36
870.665	-30.55
870.838	34.99
871.011	-10.07
871.185	57.51
871.358	108.71
871.531	82.09
871.704	6.31
871.877	-1.88
872.05	39.08
872.223	43.18
872.396	2.22
872.569	34.99
872.742	61.61
872.915	118.95
873.088	8.36
873.261	43.18
873.434	92.33
873.607	65.71
873.78	20.65
873.953	4.27
874.126	30.89
874.299	65.71
874.471	63.66
874.644	59.56
874.817	22.7
874.99	53.42
875.163	-40.79
875.335	18.6
875.508	41.13
875.681	39.08
875.853	39.08
876.026	88.23
876.199	39.08
876.371	90.28
876.544	14.51
876.717	-32.6
876.889	-34.64
877.062	39.08
877.234	18.6
877.407	53.42
877.579	73.9
877.752	22.7
877.924	-28.5
878.097	53.42
878.269	55.47
878.442	24.75
878.614	47.27
878.786	102.57
878.959	75.95
879.131	6.31
879.303	43.18
879.476	34.99
879.648	135.34
879.82	34.99
879.993	24.75
880.165	-12.12
880.337	14.51
880.509	45.23
880.681	102.57
880.854	18.6
881.026	39.08
881.198	86.19
881.37	30.89
881.542	2.22
881.714	14.51
881.886	30.89
882.058	-14.17
882.23	75.95
882.402	34.99
882.574	43.18
882.746	16.55
882.918	57.51
883.09	-38.74
883.262	30.89
883.434	-38.74
883.606	71.85
883.778	88.23
883.95	77.99
884.122	55.47
884.293	26.79
884.465	10.41
884.637	-14.17
884.809	18.6
884.98	90.28
885.152	49.32
885.324	59.56
885.496	49.32
885.667	0.17
885.839	-26.45
886.011	43.18
886.182	47.27
886.354	67.75
886.525	49.32
886.697	106.67
886.869	2.22
887.04	24.75
887.212	6.31
887.383	49.32
887.555	14.51
887.726	-1.88
887.897	53.42
888.069	24.75
888.24	-10.07
888.412	14.51
888.583	18.6
888.754	65.71
888.926	8.36
889.097	39.08
889.268	80.04
889.44	88.23
889.611	18.6
889.782	10.41
889.953	-48.98
890.125	90.28
890.296	8.36
890.467	-38.74
890.638	-16.21
890.809	65.71
890.98	-40.79
891.151	24.75
891.323	45.23
891.494	-8.02
891.665	10.41
891.836	61.61
892.007	-81.75
892.178	-3.93
892.349	92.33
892.52	-32.6
892.691	-51.03
892.862	65.71
893.032	32.94
893.203	22.7
893.374	57.51
893.545	39.08
893.716	6.31
893.887	-34.64
894.057	-10.07
894.228	0.17
894.399	-8.02
894.57	71.85
894.74	51.37
894.911	4.27
895.082	-32.6
895.253	8.36
895.423	30.89
895.594	-8.02
895.764	-10.07
895.935	75.95
896.106	-28.5
896.276	41.13
896.447	63.66
896.617	77.99
896.788	20.65
896.958	57.51
897.129	10.41
897.299	67.75
897.47	63.66
897.64	-12.12
897.81	32.94
897.981	71.85
898.151	-12.12
898.322	30.89
898.492	59.56
898.662	57.51
898.832	-3.93
899.003	6.31
899.173	43.18
899.343	2.22
899.513	39.08
