Data from USB4F104151__65__13-53-42-795.txt Node

Date: Thu Mar 13 13:53:42 EDT 2025
User: louis
Spectrometer: USB4F10415
Trigger mode: 4
Integration Time (sec): 1.000000E-2
Scans to average: 1
Electric dark correction enabled: true
Nonlinearity correction enabled: false
Boxcar width: 0
XAxis mode: Wavelengths
Number of Pixels in Spectrum: 3648
>>>>>Begin Spectral Data<<<<<
178.204	-30.04
178.424	-30.04
178.644	-30.04
178.864	-25.94
179.084	-5.46
179.304	-11.61
179.524	23.21
179.744	60.07
179.964	25.26
180.184	-62.8
180.404	23.21
180.624	-1.37
180.844	31.4
181.064	-42.32
181.283	-25.94
181.503	-27.99
181.723	8.87
181.943	19.11
182.163	27.31
182.383	39.59
182.602	-25.94
182.822	12.97
183.042	15.02
183.262	-46.42
183.482	-9.56
183.701	33.45
183.921	6.83
184.141	-23.89
184.361	-17.75
184.58	37.55
184.8	-25.94
185.02	-83.28
185.239	-1.37
185.459	51.88
185.679	84.65
185.898	2.73
186.118	33.45
186.338	49.83
186.557	0.68
186.777	27.31
186.997	17.07
187.216	72.36
187.436	-85.33
187.655	-34.13
187.875	15.02
188.095	31.4
188.314	39.59
188.534	-66.9
188.753	31.4
188.973	23.21
189.192	31.4
189.412	4.78
189.631	4.78
189.851	25.26
190.07	15.02
190.29	-13.65
190.509	6.83
190.729	0.68
190.948	10.92
191.168	19.11
191.387	27.31
191.607	43.69
191.826	-21.85
192.045	39.59
192.265	53.93
192.484	-1.37
192.704	74.41
192.923	29.35
193.142	-7.51
193.362	8.87
193.581	68.27
193.8	64.17
194.02	-19.8
194.239	72.36
194.458	-19.8
194.678	17.07
194.897	-13.65
195.116	53.93
195.335	88.75
195.555	-13.65
195.774	98.99
195.993	2.73
196.212	49.83
196.432	-1.37
196.651	-15.7
196.87	35.5
197.089	66.22
197.308	-7.51
197.528	-34.13
197.747	4.78
197.966	41.64
198.185	12.97
198.404	33.45
198.623	43.69
198.842	10.92
199.062	4.78
199.281	-3.41
199.5	27.31
199.719	-3.41
199.938	27.31
200.157	121.51
200.376	-25.94
200.595	6.83
200.814	72.36
201.033	-27.99
201.252	27.31
201.471	78.51
201.69	-5.46
201.909	-17.75
202.128	21.16
202.347	70.31
202.566	-60.76
202.785	31.4
203.004	12.97
203.223	47.79
203.442	-15.7
203.661	96.94
203.879	2.73
204.098	47.79
204.317	-25.94
204.536	98.99
204.755	33.45
204.974	4.78
205.193	53.93
205.411	31.4
205.63	62.12
205.849	39.59
206.068	21.16
206.287	-1.37
206.505	-19.8
206.724	-1.37
206.943	39.59
207.162	-3.41
207.381	0.68
207.599	8.87
207.818	-19.8
208.037	8.87
208.255	-34.13
208.474	12.97
208.693	15.02
208.911	47.79
209.13	-7.51
209.349	-7.51
209.567	-11.61
209.786	12.97
210.005	31.4
210.223	4.78
210.442	6.83
210.661	25.26
210.879	-3.41
211.098	-5.46
211.316	19.11
211.535	19.11
211.753	15.02
211.972	2.73
212.191	-21.85
212.409	72.36
212.628	-38.23
212.846	4.78
213.065	-34.13
213.283	45.74
213.502	27.31
213.72	10.92
213.938	15.02
214.157	27.31
214.375	0.68
214.594	-7.51
214.812	19.11
215.031	17.07
215.249	43.69
215.467	27.31
215.686	0.68
215.904	88.75
216.122	19.11
216.341	10.92
216.559	19.11
216.778	12.97
216.996	19.11
217.214	55.98
217.432	10.92
217.651	10.92
217.869	43.69
218.087	53.93
218.306	43.69
218.524	72.36
218.742	29.35
218.96	23.21
219.179	53.93
219.397	53.93
219.615	60.07
219.833	35.5
220.051	21.16
220.27	-17.75
220.488	6.83
220.706	68.27
220.924	62.12
221.142	15.02
221.36	19.11
221.578	15.02
221.796	55.98
222.015	49.83
222.233	-13.65
222.451	-1.37
222.669	12.97
222.887	6.83
223.105	-13.65
223.323	45.74
223.541	62.12
223.759	-23.89
223.977	37.55
224.195	33.45
224.413	31.4
224.631	15.02
224.849	0.68
225.067	-1.37
225.285	-85.33
225.503	-21.85
225.721	-42.32
225.939	-30.04
226.157	15.02
226.375	21.16
226.592	-50.52
226.81	35.5
227.028	-1.37
227.246	53.93
227.464	2.73
227.682	31.4
227.9	23.21
228.117	-1.37
228.335	19.11
228.553	39.59
228.771	-13.65
228.989	45.74
229.206	33.45
229.424	-52.56
229.642	17.07
229.86	8.87
230.077	33.45
230.295	-5.46
230.513	49.83
230.731	62.12
230.948	31.4
231.166	49.83
231.384	-25.94
231.601	-7.51
231.819	10.92
232.037	-5.46
232.254	-15.7
232.472	31.4
232.689	-52.56
232.907	-3.41
233.125	-13.65
233.342	-42.32
233.56	-52.56
233.777	35.5
233.995	-77.14
234.213	19.11
234.43	-9.56
234.648	15.02
234.865	-17.75
235.083	-30.04
235.3	45.74
235.518	-44.37
235.735	66.22
235.953	43.69
236.17	2.73
236.388	76.46
236.605	6.83
236.822	17.07
237.04	15.02
237.257	60.07
237.475	-27.99
237.692	17.07
237.909	6.83
238.127	-21.85
238.344	70.31
238.562	-56.66
238.779	-25.94
238.996	62.12
239.214	2.73
239.431	49.83
239.648	-15.7
239.865	-19.8
240.083	41.64
240.3	-3.41
240.517	8.87
240.735	-13.65
240.952	60.07
241.169	25.26
241.386	23.21
241.603	8.87
241.821	-21.85
242.038	101.03
242.255	39.59
242.472	2.73
242.689	146.09
242.907	35.5
243.124	43.69
243.341	29.35
243.558	-1.37
243.775	-15.7
243.992	12.97
244.209	90.79
244.426	4.78
244.643	-48.47
244.86	43.69
245.078	-25.94
245.295	-9.56
245.512	2.73
245.729	47.79
245.946	-36.18
246.163	33.45
246.38	0.68
246.597	-17.75
246.814	74.41
247.031	0.68
247.248	27.31
247.464	-15.7
247.681	70.31
247.898	2.73
248.115	51.88
248.332	-54.61
248.549	37.55
248.766	21.16
248.983	-27.99
249.2	-66.9
249.417	-7.51
249.633	64.17
249.85	17.07
250.067	-1.37
250.284	6.83
250.501	-23.89
250.717	51.88
250.934	47.79
251.151	29.35
251.368	19.11
251.585	66.22
251.801	37.55
252.018	-1.37
252.235	27.31
252.451	21.16
252.668	12.97
252.885	58.03
253.102	-21.85
253.318	70.31
253.535	-3.41
253.752	49.83
253.968	-5.46
254.185	37.55
254.401	19.11
254.618	12.97
254.835	-23.89
255.051	39.59
255.268	76.46
255.484	19.11
255.701	-15.7
255.917	-36.18
256.134	33.45
256.351	8.87
256.567	35.5
256.784	-7.51
257	23.21
257.217	19.11
257.433	-30.04
257.65	45.74
257.866	10.92
258.082	27.31
258.299	37.55
258.515	60.07
258.732	8.87
258.948	43.69
259.165	15.02
259.381	-54.61
259.597	53.93
259.814	6.83
260.03	21.16
260.246	29.35
260.463	49.83
260.679	68.27
260.895	4.78
261.112	66.22
261.328	-5.46
261.544	41.64
261.761	-9.56
261.977	-38.23
262.193	-19.8
262.409	-1.37
262.626	-58.71
262.842	-66.9
263.058	-5.46
263.274	33.45
263.49	86.7
263.707	98.99
263.923	-11.61
264.139	8.87
264.355	37.55
264.571	62.12
264.787	109.22
265.004	39.59
265.22	119.46
265.436	70.31
265.652	33.45
265.868	29.35
266.084	23.21
266.3	47.79
266.516	64.17
266.732	21.16
266.948	78.51
267.164	6.83
267.38	-9.56
267.596	17.07
267.812	19.11
268.028	39.59
268.244	53.93
268.46	45.74
268.676	25.26
268.892	31.4
269.108	58.03
269.324	58.03
269.54	47.79
269.756	-9.56
269.972	-19.8
270.188	4.78
270.403	58.03
270.619	27.31
270.835	60.07
271.051	53.93
271.267	-15.7
271.483	76.46
271.698	27.31
271.914	51.88
272.13	94.89
272.346	41.64
272.562	31.4
272.777	8.87
272.993	8.87
273.209	49.83
273.425	19.11
273.64	-32.08
273.856	-15.7
274.072	62.12
274.287	23.21
274.503	66.22
274.719	49.83
274.934	-27.99
275.15	-15.7
275.366	33.45
275.581	-32.08
275.797	70.31
276.012	-11.61
276.228	27.31
276.444	94.89
276.659	6.83
276.875	15.02
277.09	-54.61
277.306	31.4
277.521	41.64
277.737	62.12
277.952	41.64
278.168	55.98
278.383	31.4
278.599	-30.04
278.814	8.87
279.03	60.07
279.245	86.7
279.461	-19.8
279.676	84.65
279.892	-23.89
280.107	12.97
280.322	-1.37
280.538	27.31
280.753	60.07
280.969	19.11
281.184	21.16
281.399	39.59
281.615	2.73
281.83	35.5
282.045	6.83
282.26	23.21
282.476	10.92
282.691	55.98
282.906	21.16
283.122	-23.89
283.337	0.68
283.552	31.4
283.767	21.16
283.983	86.7
284.198	-40.28
284.413	-19.8
284.628	109.22
284.843	23.21
285.058	62.12
285.274	101.03
285.489	-60.76
285.704	23.21
285.919	-79.19
286.134	29.35
286.349	35.5
286.564	4.78
286.779	43.69
286.995	15.02
287.21	-60.76
287.425	10.92
287.64	62.12
287.855	19.11
288.07	-15.7
288.285	12.97
288.5	12.97
288.715	-25.94
288.93	27.31
289.145	0.68
289.36	45.74
289.575	39.59
289.79	17.07
290.004	55.98
290.219	41.64
290.434	45.74
290.649	27.31
290.864	8.87
291.079	80.55
291.294	45.74
291.509	-36.18
291.724	23.21
291.938	96.94
292.153	-30.04
292.368	2.73
292.583	17.07
292.798	88.75
293.012	51.88
293.227	35.5
293.442	-15.7
293.657	53.93
293.871	37.55
294.086	51.88
294.301	88.75
294.516	19.11
294.73	41.64
294.945	21.16
295.16	0.68
295.374	43.69
295.589	12.97
295.804	45.74
296.018	86.7
296.233	55.98
296.447	2.73
296.662	62.12
296.877	-1.37
297.091	23.21
297.306	62.12
297.52	-5.46
297.735	43.69
297.949	31.4
298.164	47.79
298.378	64.17
298.593	8.87
298.807	-19.8
299.022	39.59
299.236	68.27
299.451	19.11
299.665	51.88
299.88	23.21
300.094	35.5
300.309	12.97
300.523	-11.61
300.737	15.02
300.952	27.31
301.166	53.93
301.381	-19.8
301.595	62.12
301.809	53.93
302.024	8.87
302.238	23.21
302.452	4.78
302.667	51.88
302.881	45.74
303.095	12.97
303.309	-21.85
303.524	49.83
303.738	-3.41
303.952	27.31
304.166	-54.61
304.381	-36.18
304.595	39.59
304.809	35.5
305.023	15.02
305.237	37.55
305.452	-30.04
305.666	-11.61
305.88	4.78
306.094	-1.37
306.308	29.35
306.522	21.16
306.736	-21.85
306.95	62.12
307.164	-27.99
307.379	78.51
307.593	109.22
307.807	74.41
308.021	23.21
308.235	62.12
308.449	-25.94
308.663	-21.85
308.877	-1.37
309.091	51.88
309.305	55.98
309.519	23.21
309.733	51.88
309.947	-3.41
310.161	39.59
310.374	-1.37
310.588	2.73
310.802	25.26
311.016	6.83
311.23	60.07
311.444	41.64
311.658	-19.8
311.872	51.88
312.085	41.64
312.299	66.22
312.513	8.87
312.727	12.97
312.941	-36.18
313.154	41.64
313.368	0.68
313.582	31.4
313.796	-1.37
314.009	72.36
314.223	-66.9
314.437	-9.56
314.651	-17.75
314.864	17.07
315.078	70.31
315.292	-1.37
315.505	-83.28
315.719	15.02
315.933	-9.56
316.146	105.13
316.36	41.64
316.573	8.87
316.787	-5.46
317.001	-42.32
317.214	-3.41
317.428	39.59
317.641	-17.75
317.855	55.98
318.068	8.87
318.282	105.13
318.495	8.87
318.709	68.27
318.922	-23.89
319.136	68.27
319.349	66.22
319.563	41.64
319.776	10.92
319.99	51.88
320.203	49.83
320.417	64.17
320.63	49.83
320.843	31.4
321.057	35.5
321.27	33.45
321.483	66.22
321.697	31.4
321.91	58.03
322.124	-5.46
322.337	37.55
322.55	-15.7
322.763	33.45
322.977	49.83
323.19	60.07
323.403	35.5
323.617	47.79
323.83	37.55
324.043	6.83
324.256	0.68
324.469	53.93
324.683	43.69
324.896	-27.99
325.109	-32.08
325.322	4.78
325.535	-13.65
325.748	4.78
325.962	29.35
326.175	33.45
326.388	-5.46
326.601	62.12
326.814	-17.75
327.027	27.31
327.24	53.93
327.453	21.16
327.666	39.59
327.879	23.21
328.092	62.12
328.305	17.07
328.518	-1.37
328.731	8.87
328.944	41.64
329.157	45.74
329.37	45.74
329.583	0.68
329.796	58.03
330.009	-36.18
330.222	6.83
330.435	-19.8
330.648	78.51
330.861	19.11
331.073	31.4
331.286	58.03
331.499	21.16
331.712	21.16
331.925	88.75
332.138	0.68
332.35	25.26
332.563	31.4
332.776	62.12
332.989	-19.8
333.202	35.5
333.414	-1.37
333.627	49.83
333.84	19.11
334.053	76.46
334.265	47.79
334.478	55.98
334.691	-25.94
334.903	-15.7
335.116	-56.66
335.329	19.11
335.541	19.11
335.754	-9.56
335.966	101.03
336.179	70.31
336.392	-32.08
336.604	-15.7
336.817	82.6
337.029	58.03
337.242	17.07
337.454	101.03
337.667	35.5
337.88	45.74
338.092	37.55
338.305	31.4
338.517	35.5
338.729	58.03
338.942	94.89
339.154	4.78
339.367	37.55
339.579	96.94
339.792	27.31
340.004	2.73
340.217	-1.37
340.429	51.88
340.641	0.68
340.854	-46.42
341.066	15.02
341.278	23.21
341.491	29.35
341.703	6.83
341.915	0.68
342.128	53.93
342.34	21.16
342.552	8.87
342.764	68.27
342.977	74.41
343.189	4.78
343.401	43.69
343.613	68.27
343.826	86.7
344.038	-17.75
344.25	84.65
344.462	-7.51
344.674	43.69
344.886	47.79
345.099	101.03
345.311	53.93
345.523	2.73
345.735	-5.46
345.947	39.59
346.159	45.74
346.371	15.02
346.583	23.21
346.795	94.89
347.007	15.02
347.219	-30.04
347.431	45.74
347.643	33.45
347.855	-13.65
348.067	31.4
348.279	39.59
348.491	21.16
348.703	35.5
348.915	25.26
349.127	37.55
349.339	51.88
349.551	49.83
349.763	-1.37
349.975	33.45
350.187	15.02
350.399	37.55
350.61	-11.61
350.822	96.94
351.034	-9.56
351.246	8.87
351.458	107.18
351.669	51.88
351.881	10.92
352.093	51.88
352.305	41.64
352.517	35.5
352.728	-5.46
352.94	60.07
353.152	76.46
353.363	23.21
353.575	-13.65
353.787	-34.13
353.999	0.68
354.21	4.78
354.422	27.31
354.633	72.36
354.845	-15.7
355.057	76.46
355.268	-9.56
355.48	45.74
355.692	0.68
355.903	-15.7
356.115	39.59
356.326	66.22
356.538	31.4
356.749	90.79
356.961	80.55
357.172	66.22
357.384	21.16
357.595	74.41
357.807	4.78
358.018	33.45
358.23	-13.65
358.441	60.07
358.653	15.02
358.864	2.73
359.075	-7.51
359.287	45.74
359.498	92.84
359.709	49.83
359.921	-9.56
360.132	0.68
360.344	-46.42
360.555	41.64
360.766	62.12
360.977	12.97
361.189	37.55
361.4	39.59
361.611	53.93
361.823	10.92
362.034	47.79
362.245	0.68
362.456	64.17
362.667	35.5
362.879	-5.46
363.09	-32.08
363.301	15.02
363.512	25.26
363.723	47.79
363.935	-32.08
364.146	76.46
364.357	113.32
364.568	-21.85
364.779	-11.61
364.99	-11.61
365.201	8.87
365.412	53.93
365.623	33.45
365.834	-3.41
366.045	-56.66
366.256	76.46
366.467	53.93
366.678	70.31
366.889	17.07
367.1	31.4
367.311	8.87
367.522	90.79
367.733	17.07
367.944	27.31
368.155	60.07
368.366	31.4
368.577	2.73
368.788	43.69
368.999	76.46
369.209	0.68
369.42	76.46
369.631	103.08
369.842	-19.8
370.053	-27.99
370.264	58.03
370.474	-9.56
370.685	47.79
370.896	-11.61
371.107	29.35
371.317	37.55
371.528	8.87
371.739	4.78
371.95	-32.08
372.16	37.55
372.371	2.73
372.582	-3.41
372.792	10.92
373.003	51.88
373.214	10.92
373.424	72.36
373.635	-30.04
373.846	90.79
374.056	62.12
374.267	-48.47
374.477	62.12
374.688	43.69
374.898	31.4
375.109	17.07
375.319	17.07
375.53	47.79
375.74	21.16
375.951	27.31
376.161	27.31
376.372	47.79
376.582	35.5
376.793	29.35
377.003	70.31
377.214	23.21
377.424	64.17
377.635	92.84
377.845	8.87
378.055	-15.7
378.266	43.69
378.476	123.56
378.686	-7.51
378.897	23.21
379.107	78.51
379.317	62.12
379.528	98.99
379.738	64.17
379.948	21.16
380.158	131.75
380.369	101.03
380.579	60.07
380.789	-11.61
380.999	41.64
381.21	37.55
381.42	29.35
381.63	31.4
381.84	64.17
382.05	-36.18
382.261	31.4
382.471	-30.04
382.681	-11.61
382.891	60.07
383.101	-3.41
383.311	0.68
383.521	105.13
383.731	-9.56
383.941	45.74
384.151	37.55
384.361	76.46
384.571	60.07
384.781	19.11
384.991	33.45
385.201	45.74
385.411	25.26
385.621	90.79
385.831	51.88
386.041	0.68
386.251	6.83
386.461	47.79
386.671	17.07
386.881	66.22
387.091	6.83
387.301	45.74
387.511	39.59
387.72	33.45
387.93	21.16
388.14	51.88
388.35	-3.41
388.56	58.03
388.769	33.45
388.979	29.35
389.189	-11.61
389.399	49.83
389.609	45.74
389.818	25.26
390.028	10.92
390.238	47.79
390.447	41.64
390.657	43.69
390.867	90.79
391.076	25.26
391.286	-23.89
391.496	2.73
391.705	55.98
391.915	55.98
392.125	-9.56
392.334	2.73
392.544	29.35
392.753	94.89
392.963	25.26
393.172	-3.41
393.382	64.17
393.591	76.46
393.801	-9.56
394.01	84.65
394.22	82.6
394.429	37.55
394.639	45.74
394.848	64.17
395.058	-32.08
395.267	113.32
395.477	35.5
395.686	72.36
395.895	37.55
396.105	55.98
396.314	84.65
396.524	0.68
396.733	58.03
396.942	8.87
397.152	84.65
397.361	131.75
397.57	105.13
397.78	53.93
397.989	66.22
398.198	31.4
398.407	25.26
398.617	27.31
398.826	58.03
399.035	29.35
399.244	37.55
399.453	80.55
399.663	33.45
399.872	62.12
400.081	60.07
400.29	43.69
400.499	82.6
400.708	21.16
400.917	51.88
401.127	49.83
401.336	84.65
401.545	144.04
401.754	62.12
401.963	37.55
402.172	33.45
402.381	96.94
402.59	47.79
402.799	60.07
403.008	19.11
403.217	33.45
403.426	127.66
403.635	-5.46
403.844	55.98
404.053	23.21
404.262	35.5
404.471	123.56
404.68	45.74
404.888	70.31
405.097	58.03
405.306	111.27
405.515	88.75
405.724	111.27
405.933	127.66
406.142	109.22
406.35	101.03
406.559	162.47
406.768	146.09
406.977	60.07
407.185	115.37
407.394	144.04
407.603	135.85
407.812	133.8
408.02	101.03
408.229	150.18
408.438	156.33
408.646	197.29
408.855	64.17
409.064	137.9
409.272	144.04
409.481	160.42
409.69	156.33
409.898	117.42
410.107	133.8
410.315	197.29
410.524	148.14
410.733	201.38
410.941	160.42
411.15	187.05
411.358	127.66
411.567	252.58
411.775	207.53
411.984	152.23
412.192	203.43
412.401	203.43
412.609	209.58
412.818	234.15
413.026	219.82
413.234	217.77
413.443	203.43
413.651	299.69
413.86	291.49
414.068	397.99
414.276	314.02
414.485	328.36
414.693	299.69
414.901	375.46
415.11	326.31
415.318	389.8
415.526	346.79
415.734	395.94
415.943	389.8
416.151	412.32
416.359	426.66
416.567	438.95
416.776	502.43
416.984	547.49
417.192	418.47
417.4	494.24
417.608	492.2
417.817	471.72
418.025	570.02
418.233	592.55
418.441	594.59
418.649	623.27
418.857	578.21
419.065	707.23
419.273	680.61
419.481	672.42
419.689	748.19
419.897	783.01
420.105	746.14
420.313	778.91
420.521	836.25
420.729	840.35
420.937	795.29
421.145	1065.63
421.353	967.32
421.561	955.04
421.769	979.61
421.977	1079.96
422.185	1053.34
422.393	1086.11
422.601	1159.83
422.809	1196.7
423.017	1176.22
423.224	1198.74
423.432	1284.76
423.64	1325.72
423.848	1438.36
424.056	1323.67
424.263	1583.76
424.471	1456.79
424.679	1520.28
424.887	1563.28
425.094	1624.72
425.302	1677.97
425.51	1741.46
425.718	1720.98
425.925	1794.7
426.133	1731.22
426.341	1989.26
426.548	2028.17
426.756	2026.12
426.964	2093.71
427.171	2210.44
427.379	2251.4
427.586	2208.39
427.794	2257.54
428.001	2507.4
428.209	2556.55
428.417	2421.38
428.624	2632.32
428.832	2710.15
429.039	2611.84
429.247	2669.19
429.454	2970.24
429.662	3007.1
429.869	2882.17
430.076	3046.01
430.284	2972.29
430.491	3066.49
430.699	3310.2
430.906	3285.62
431.114	3330.68
431.321	3527.28
431.528	3590.77
431.736	3920.49
431.943	4022.89
432.15	3816.05
432.358	3916.4
432.565	4072.04
432.772	4049.52
432.979	4307.56
433.187	4336.23
433.394	4405.86
433.601	4909.66
433.808	4655.72
434.016	4600.42
434.223	4919.9
434.43	5061.21
434.637	5030.49
434.844	5395.03
435.052	5640.79
435.259	5438.04
435.466	5417.56
435.673	5497.43
435.88	5646.93
436.087	6068.81
436.294	6003.28
436.501	5884.5
436.708	6101.58
436.915	6206.03
437.122	6601.29
437.329	6509.13
437.537	6675.01
437.743	6812.23
437.95	6881.86
438.157	7264.83
438.364	7502.39
438.571	7324.22
438.778	7307.84
438.985	8018.48
439.192	7823.92
439.399	7952.95
439.606	7887.41
439.813	8323.63
440.02	8759.84
440.227	8718.89
440.433	8569.38
440.64	9101.86
440.847	8796.71
441.054	9024.03
441.261	9599.51
441.467	9615.9
441.674	9654.81
441.881	9957.91
442.088	9962
442.294	9953.81
442.501	10156.56
442.708	10426.89
442.914	10586.63
443.121	11217.41
443.328	10842.63
443.534	11606.52
443.741	11387.39
443.948	11319.81
444.154	12100.08
444.361	12114.42
444.568	12251.63
444.774	12016.12
444.981	12235.25
445.187	12337.65
445.394	13152.74
445.6	12974.56
445.807	14301.65
446.013	13636.06
446.22	13828.57
446.426	14223.83
446.633	14422.48
446.839	14870.98
447.046	13844.95
447.252	15016.39
447.459	15137.22
447.665	14776.78
447.871	15749.56
448.078	16404.91
448.284	15387.07
448.491	16056.76
448.697	16624.04
448.903	16689.58
449.11	16908.71
449.316	16880.04
449.522	17009.06
449.728	17467.81
449.935	17584.54
450.141	17621.41
450.347	17533.34
450.553	17236.39
450.76	17588.64
450.966	18006.42
451.172	17799.58
451.378	18102.68
451.584	17967.51
451.791	18178.45
451.997	18459.02
452.203	18551.18
452.409	18497.94
452.615	18373.01
452.821	17629.6
453.027	17402.27
453.233	18459.02
453.44	17809.82
453.646	17957.27
453.852	17744.28
454.058	17936.79
454.264	17848.73
454.47	18057.62
454.676	17645.98
454.882	18033.05
455.088	16650.67
455.294	16615.85
455.5	16824.75
455.705	17029.54
455.911	16355.76
456.117	16003.51
456.323	15735.23
456.529	15049.16
456.735	15376.83
456.941	15110.6
457.147	15014.34
457.352	14481.87
457.558	14078.42
457.764	14391.76
457.97	13976.02
458.176	13476.32
458.381	13629.91
458.587	12816.87
458.793	13226.46
458.999	12485.1
459.204	13337.06
459.41	12853.73
459.616	12048.88
459.821	11975.16
460.027	12204.53
460.233	11710.97
460.438	10975.75
460.644	11209.22
460.85	10809.86
461.055	10572.3
461.261	10371.6
461.466	9845.27
461.672	9622.04
461.878	10289.68
462.083	9685.53
462.289	9298.46
462.494	9243.17
462.7	8942.11
462.905	8669.73
463.111	8944.16
463.316	8833.57
463.522	8872.48
463.727	8917.54
463.932	8870.44
464.138	8753.7
464.343	8847.91
464.549	8559.14
464.754	8835.62
464.959	8854.05
465.165	8845.86
465.37	8284.72
465.575	8217.13
465.781	8528.42
465.986	8399.4
466.191	8229.42
466.397	7973.42
466.602	7596.6
466.807	7750.2
467.012	7967.28
467.218	8026.67
467.423	7742
467.628	7875.12
467.833	8004.14
468.038	7963.19
468.244	7680.57
468.449	7946.8
468.654	7574.07
468.859	7565.88
469.064	7402.04
469.269	7293.5
469.474	7301.69
469.679	7418.43
469.885	7148.09
470.09	7518.78
470.295	7264.83
470.5	7123.52
470.705	7148.09
470.91	7166.53
471.115	7029.31
471.32	7207.48
471.525	6982.21
471.73	6775.36
471.935	6861.38
472.139	6349.39
472.344	6806.08
472.549	6632.01
472.754	6502.98
472.959	6320.71
473.164	6220.36
473.369	5978.7
473.574	6222.41
473.778	6312.52
473.983	6242.89
474.188	6171.21
474.393	6025.81
474.598	5884.5
474.802	5997.14
475.007	5876.3
475.212	5814.87
475.417	5587.54
475.621	5569.11
475.826	5624.4
476.031	5628.5
476.235	5485.14
476.44	5511.77
476.645	5481.05
476.849	5577.3
477.054	5460.57
477.259	5155.42
477.463	5286.49
477.668	5077.6
477.872	5321.31
478.077	5149.28
478.282	5020.25
478.486	4983.39
478.691	5106.27
478.895	5046.88
479.1	4977.25
479.304	4756.07
479.509	5016.16
479.713	4848.22
479.918	4807.27
480.122	4643.43
480.326	4786.79
480.531	4598.37
480.735	4721.25
480.94	4790.88
481.144	4831.84
481.348	4645.48
481.553	4590.18
481.757	4661.86
481.961	4567.65
482.166	4829.79
482.37	4637.28
482.574	4622.95
482.778	4442.73
482.983	4569.7
483.187	4821.6
483.391	4551.27
483.595	4452.97
483.8	4616.8
484.004	4706.91
484.208	4518.5
484.412	4606.56
484.616	4631.14
484.821	4723.3
485.025	4551.27
485.229	4588.13
485.433	4622.95
485.637	4612.71
485.841	4493.93
486.045	4690.53
486.249	4502.12
486.453	4643.43
486.657	4668
486.861	4622.95
487.065	4395.62
487.269	4645.48
487.473	4524.65
487.677	4614.76
487.881	4649.57
488.085	4577.89
488.289	4692.58
488.493	4612.71
488.697	4657.76
488.901	4629.09
489.105	4592.23
489.309	4799.07
489.512	4665.96
489.716	4727.39
489.92	4610.66
490.124	4645.48
490.328	4735.59
490.531	4651.62
490.735	4688.48
490.939	4579.94
491.143	4733.54
491.346	4723.3
491.55	4829.79
491.754	4741.73
491.958	4942.43
492.161	4864.61
492.365	4919.9
492.569	4868.7
492.772	4891.23
492.976	4893.28
493.18	4860.51
493.383	5108.32
493.587	5020.25
493.79	5044.83
493.994	4987.49
494.197	5071.45
494.401	5175.9
494.605	5304.92
494.808	5116.51
495.012	5233.24
495.215	5292.63
495.419	5403.22
495.622	5081.69
495.825	5481.05
496.029	5435.99
496.232	5511.77
496.436	5612.12
496.639	5749.33
496.843	5470.81
497.046	5810.77
497.249	5802.58
497.453	5884.5
497.656	5798.48
497.859	5970.51
498.063	5888.59
498.266	6195.79
498.469	5962.32
498.673	6077.01
498.876	6105.68
499.079	6408.78
499.282	6265.42
499.485	6572.61
499.689	6443.59
499.892	6574.66
500.095	6687.3
500.298	6777.41
500.501	6664.77
500.705	7027.26
500.908	7080.51
501.111	7199.29
501.314	7049.79
501.517	7066.17
501.72	7399.99
501.923	7232.06
502.126	7453.24
502.329	7680.57
502.532	7557.69
502.735	7733.81
502.938	7883.31
503.141	7821.88
503.344	8077.87
503.547	7987.76
503.75	8264.24
503.953	8286.76
504.156	8346.16
504.359	8342.06
504.562	8591.91
504.765	8782.37
504.968	8852
505.17	8915.49
505.373	9151.01
505.576	9114.14
505.779	9425.43
505.982	9316.89
506.185	9595.42
506.387	9544.22
506.59	9640.47
506.793	9873.94
506.996	9919
507.198	10195.47
507.401	10062.35
507.604	10142.22
507.807	10428.94
508.009	10324.49
508.212	10631.69
508.415	10727.94
508.617	10676.74
508.82	11006.47
509.022	10885.64
509.225	11119.1
509.428	11401.72
509.63	11411.96
509.833	11577.85
510.035	11719.16
510.238	11766.26
510.44	11583.99
510.643	12016.12
510.845	12407.28
511.048	12311.02
511.25	12392.94
511.453	12546.54
511.655	12972.52
511.858	12773.86
512.06	12990.95
512.262	13210.08
512.465	13177.31
512.667	13640.15
512.87	13736.41
513.072	13642.2
513.274	13935.06
513.477	13955.54
513.679	14000.6
513.881	14356.94
514.084	14528.97
514.286	14469.58
514.488	14688.71
514.69	15280.58
514.893	15202.75
515.095	15022.53
515.297	15550.91
515.499	15565.25
515.701	15761.85
515.904	16067
516.106	16261.55
516.308	16224.69
516.51	16499.12
516.712	16609.71
516.914	16648.62
517.116	16873.9
517.318	17136.04
517.52	17125.8
517.722	17469.86
517.925	17641.89
518.127	17983.9
518.329	18014.62
518.531	17854.87
518.733	18411.92
518.935	18622.86
519.136	18848.14
519.338	18962.83
519.54	18866.57
519.742	19073.42
519.944	19618.18
520.146	19782.01
520.348	19605.89
520.55	20287.86
520.752	19894.65
520.954	20423.03
521.155	20187.51
521.357	20523.38
521.559	20736.37
521.761	21131.62
521.963	20998.51
522.164	21277.03
522.366	21231.97
522.568	21553.51
522.77	21875.04
522.971	22229.34
523.173	21778.78
523.375	22141.27
523.576	22208.86
523.778	22413.65
523.98	22739.28
524.181	22817.1
524.383	23087.43
524.584	23103.82
524.786	22978.89
524.988	23173.45
525.189	23400.77
525.391	23533.89
525.592	23499.08
525.794	23765.31
525.995	23722.3
526.197	24256.82
526.398	24129.85
526.6	24248.63
526.801	24305.98
527.003	24340.79
527.204	24430.9
527.406	24590.64
527.607	24750.38
527.808	25123.12
528.01	24633.65
528.211	24973.61
528.412	25512.23
528.614	25262.38
528.815	25264.43
529.016	25422.12
529.218	25239.85
529.419	25397.54
529.62	25628.96
529.822	25465.13
530.023	25717.03
530.224	25731.36
530.425	25561.38
530.626	25485.61
530.828	25694.5
531.029	26050.85
531.23	25887.01
531.431	25950.49
531.632	26087.71
531.833	26173.72
532.035	26425.62
532.236	26259.74
532.437	26061.08
532.638	25938.21
532.839	26353.94
533.04	26413.34
533.241	26147.1
533.442	26599.7
533.643	26423.58
533.844	26650.9
534.045	26636.56
534.246	26335.51
534.447	26792.21
534.648	26200.35
534.849	26947.86
535.05	26169.63
535.251	26456.34
535.451	26681.62
535.652	26677.52
535.853	26224.92
536.054	26489.11
536.255	26870.03
536.456	26274.07
536.657	27046.16
536.857	26290.46
537.058	26503.45
537.259	26781.97
537.46	26835.22
537.66	26652.95
537.861	26845.46
538.062	26444.06
538.263	26935.57
538.463	26501.4
538.664	26485.01
538.865	26816.79
539.065	26599.7
539.266	26284.31
539.466	26712.34
539.667	26425.62
539.868	26898.7
540.068	26571.03
540.269	26910.99
540.469	26921.23
540.67	26646.8
540.87	26833.17
541.071	26642.71
541.271	26820.88
541.472	26587.41
541.672	26585.36
541.873	26460.44
542.073	26642.71
542.274	26673.43
542.474	26550.55
542.675	26738.96
542.875	26482.97
543.075	26847.5
543.276	26464.53
543.476	26771.73
543.676	26474.77
543.877	27101.45
544.077	26634.52
544.277	26294.55
544.478	26622.23
544.678	26538.26
544.878	26970.38
545.078	26415.38
545.279	26478.87
545.479	26599.7
545.679	26683.67
545.879	26542.36
546.079	26439.96
546.28	26681.62
546.48	26450.2
546.68	26468.63
546.88	26591.51
547.08	26859.79
547.28	26669.33
547.48	26310.94
547.68	26511.64
547.88	26294.55
548.081	26503.45
548.281	26698
548.481	26200.35
548.681	26456.34
548.881	26415.38
549.081	26278.17
549.28	26128.67
549.48	26573.08
549.68	26640.66
549.88	26603.8
550.08	26730.77
550.28	26323.22
550.48	26571.03
550.68	26626.32
550.88	26339.61
551.08	26419.48
551.279	26599.7
551.479	26427.67
551.679	26474.77
551.879	26403.1
552.079	26609.94
552.278	26485.01
552.478	26448.15
552.678	26317.08
552.878	26282.27
553.077	26331.42
553.277	25979.17
553.477	26540.31
553.676	26347.8
553.876	26355.99
554.076	26452.25
554.275	26390.81
554.475	25846.05
554.674	26208.54
554.874	26517.78
555.074	26284.31
555.273	26306.84
555.473	26403.1
555.672	25899.3
555.872	26167.58
556.071	26118.43
556.271	26036.51
556.47	25901.34
556.67	25557.28
556.869	25993.5
557.068	25979.17
557.268	25727.27
557.467	26171.68
557.667	25895.2
557.866	25809.18
558.065	25942.3
558.265	25530.66
558.464	25663.78
558.663	25735.46
558.863	25573.67
559.062	25893.15
559.261	25575.72
559.461	25545
559.66	25258.28
559.859	25407.78
560.058	25127.21
560.258	25444.65
560.457	24961.33
560.656	25325.86
560.855	24822.06
561.054	25409.83
561.253	24883.5
561.453	25241.9
561.652	25209.13
561.851	25243.95
562.05	24647.99
562.249	24668.47
562.448	24813.87
562.647	24875.31
562.846	24906.03
563.045	24551.73
563.244	24430.9
563.443	24834.35
563.642	24447.29
563.841	24641.84
564.04	24308.02
564.239	24877.36
564.438	24615.22
564.637	24541.49
564.836	24633.65
565.035	23818.56
565.234	24113.47
565.432	24254.78
565.631	23890.24
565.83	24242.49
566.029	24078.65
566.228	24078.65
566.427	24039.74
566.625	23734.59
566.824	23574.85
567.023	23910.72
567.222	23368.01
567.42	23712.06
567.619	23810.37
567.818	23562.56
568.016	23390.53
568.215	23667.01
568.414	23570.75
568.612	23427.4
568.811	23204.17
569.01	23253.32
569.208	23107.91
569.407	23318.85
569.605	22868.3
569.804	22911.31
570.002	22788.43
570.201	23132.49
570.4	22964.56
570.598	22796.62
570.797	22815.05
570.995	22563.15
571.193	22272.34
571.392	22720.85
571.59	22360.41
571.789	22520.15
571.987	22094.17
572.186	22393.17
572.384	22311.25
572.582	22237.53
572.781	22124.89
572.979	21518.69
573.177	22010.2
573.376	21834.08
573.574	21614.94
573.772	21950.81
573.971	21561.7
574.169	21563.75
574.367	21647.71
574.565	21414.24
574.763	21598.56
574.962	21193.06
575.16	21207.4
575.358	21213.54
575.556	20810.09
575.754	21322.09
575.952	20971.88
576.151	21064.04
576.349	20584.82
576.547	21037.42
576.745	20740.46
576.943	20670.83
577.141	20773.23
577.339	20498.8
577.537	20586.86
577.735	20627.82
577.933	20197.75
578.131	20550
578.329	20105.59
578.527	20201.85
578.725	20035.96
578.923	19974.52
579.121	19972.47
579.319	19970.43
579.516	19951.99
579.714	20132.22
579.912	19775.87
580.11	19906.94
580.308	19706.24
580.506	19638.65
580.704	19470.72
580.901	19634.56
581.099	19530.11
581.297	19505.54
581.495	19290.5
581.692	19341.7
581.89	19159.43
582.088	19435.91
582.285	19143.05
582.483	19421.57
582.681	19095.94
582.878	18930.06
583.076	18985.35
583.274	19175.81
583.471	18842
583.669	19073.42
583.866	18715.02
584.064	18815.37
584.262	18678.16
584.459	18569.62
584.657	18424.21
584.854	18686.35
585.052	18135.45
585.249	18252.18
585.447	18289.04
585.644	18182.55
585.841	17934.74
586.039	18239.89
586.236	17926.55
586.434	17969.56
586.631	17754.52
586.828	18082.2
587.026	18018.71
587.223	17828.25
587.42	17742.24
587.618	17826.2
587.815	17547.68
588.012	17592.73
588.21	17645.98
588.407	17416.61
588.604	17428.9
588.801	17187.24
588.999	17451.42
589.196	17258.92
589.393	17224.1
589.59	17191.33
589.787	17019.3
589.984	17133.99
590.182	16677.29
590.379	17064.36
590.576	16732.59
590.773	17004.97
590.97	16654.76
591.167	16724.4
591.364	16456.11
591.561	16665
591.758	16325.04
591.955	16204.21
592.152	16665
592.349	16437.68
592.546	16441.78
592.743	16185.78
592.94	16277.94
593.137	16306.61
593.334	16288.18
593.531	15888.82
593.727	16216.5
593.924	16064.95
594.121	15966.65
594.318	16083.38
594.515	16052.66
594.712	15899.06
594.908	15942.07
595.105	15815.1
595.302	15559.1
595.499	15608.25
595.696	15667.64
595.892	15667.64
596.089	15681.98
596.286	15536.57
596.482	15497.66
596.679	15696.32
596.876	15507.9
597.072	15505.85
597.269	15378.88
597.466	15073.73
597.662	15278.53
597.859	15180.23
598.055	15237.57
598.252	15120.84
598.448	15071.68
598.645	15077.83
598.841	14817.74
599.038	15059.4
599.234	14967.24
599.431	14531.02
599.627	14694.86
599.824	14883.27
600.02	14795.21
600.217	14586.32
600.413	14174.67
600.609	14332.37
600.806	14436.81
601.002	14547.4
601.198	14420.43
601.395	14137.81
601.591	14309.84
601.787	14127.57
601.984	14191.06
602.18	14395.85
602.376	14148.05
602.572	14029.27
602.769	14014.93
602.965	13836.76
603.161	13816.28
603.357	13838.81
603.553	13898.2
603.75	13892.05
603.946	13722.07
604.142	13822.42
604.338	13529.56
604.534	13566.43
604.73	13386.21
604.926	13443.55
605.122	13355.49
605.318	13425.12
605.514	13392.35
605.71	13418.97
605.906	13443.55
606.102	13367.77
606.298	13222.37
606.494	12970.47
606.69	13122.02
606.886	12921.32
607.082	12857.83
607.278	13238.75
607.474	12831.21
607.67	13136.35
607.866	12626.41
608.062	12810.73
608.257	12681.71
608.453	12802.54
608.649	12931.56
608.845	12483.05
609.041	12726.76
609.236	12710.38
609.432	12409.33
609.628	12722.66
609.824	12544.49
610.019	12456.43
610.215	12446.19
610.411	12501.48
610.606	12280.3
610.802	12419.57
610.998	12304.88
611.193	12323.31
611.389	12190.19
611.584	12421.61
611.78	12286.45
611.976	12308.97
612.171	12071.41
612.367	12063.22
612.562	12179.95
612.758	11721.21
612.953	11880.95
613.149	11993.59
613.344	11936.24
613.539	12169.71
613.735	11897.33
613.93	11641.34
614.126	11659.77
614.321	12014.07
614.517	11647.48
614.712	11665.91
614.907	11635.19
615.103	11665.91
615.298	11715.06
615.493	11872.76
615.688	11401.72
615.884	11647.48
616.079	11512.31
616.274	11457.02
616.47	11514.36
616.665	11377.15
616.86	11297.28
617.055	11530.75
617.25	11371.01
617.445	11430.4
617.641	11104.77
617.836	11454.97
618.031	10959.36
618.226	11198.98
618.421	11055.62
618.616	11143.68
618.811	10949.12
619.006	11094.53
619.201	10701.32
619.396	10924.55
619.591	10793.48
619.786	10666.5
619.981	10568.2
620.176	10617.35
620.371	10555.91
620.566	10557.96
620.761	10525.19
620.956	10760.71
621.151	10471.95
621.346	10461.71
621.541	10136.08
621.735	10437.13
621.93	10039.83
622.125	10295.82
622.32	10127.89
622.515	10025.49
622.709	9978.39
622.904	9976.34
623.099	9880.08
623.294	9767.45
623.488	9783.83
623.683	9884.18
623.878	9607.7
624.072	9556.5
624.267	9708.05
624.462	9597.46
624.656	9542.17
624.851	9708.05
625.046	9468.44
625.24	9456.15
625.435	9140.77
625.629	9364
625.824	9140.77
626.018	9241.12
626.213	8907.3
626.407	8870.44
626.602	8972.83
626.796	9110.05
626.991	9032.22
627.185	8849.96
627.38	8657.45
627.574	8618.54
627.768	8653.35
627.963	8639.01
628.157	8553
628.352	8772.13
628.546	8503.85
628.74	8573.48
628.935	8313.39
629.129	8417.83
629.323	8266.28
629.517	8151.6
629.712	8174.13
629.906	8032.82
630.1	8016.43
630.294	8151.6
630.489	8135.21
630.683	8124.97
630.877	7914.03
631.071	7877.17
631.265	7948.85
631.459	7877.17
631.653	7637.56
631.848	7846.45
632.042	7621.17
632.236	7758.39
632.43	7600.69
632.624	7629.37
632.818	7500.34
633.012	7414.33
633.206	7492.15
633.4	7557.69
633.594	7457.34
633.788	7492.15
633.982	7393.85
634.176	7457.34
634.369	7283.26
634.563	7322.17
634.757	7281.21
634.951	7318.07
635.145	7156.29
635.339	7277.12
635.533	7047.74
635.726	6984.26
635.92	6994.5
636.114	6984.26
636.308	6959.68
636.501	6998.59
636.695	6910.53
636.889	6873.67
637.083	6816.32
637.276	6779.46
637.47	6750.79
637.664	6724.16
637.857	6711.88
638.051	6517.32
638.244	6437.45
638.438	6412.87
638.632	6330.95
638.825	6468.17
639.019	6310.47
639.212	6201.93
639.406	6283.85
639.599	6277.71
639.793	6253.13
639.986	6120.01
640.18	6216.27
640.373	6068.81
640.567	5988.94
640.76	6134.35
640.954	6054.48
641.147	5823.06
641.34	5861.97
641.534	5864.02
641.727	5980.75
641.92	5872.21
642.114	5925.46
642.307	5855.83
642.5	5950.03
642.694	5741.14
642.887	5644.88
643.08	5743.19
643.273	5587.54
643.467	5485.14
643.66	5435.99
643.853	5452.38
644.046	5476.95
644.239	5395.03
644.432	5419.61
644.626	5245.53
644.819	5446.23
645.012	5323.35
645.205	5268.06
645.398	5229.15
645.591	5227.1
645.784	5268.06
645.977	5202.52
646.17	5050.97
646.363	5192.28
646.556	5065.31
646.749	4971.1
646.942	4999.77
647.135	4958.81
647.328	5022.3
647.521	4860.51
647.714	4848.22
647.907	4817.51
648.099	4768.35
648.292	4813.41
648.485	4737.63
648.678	4721.25
648.871	4590.18
649.064	4733.54
649.256	4713.06
649.449	4598.37
649.642	4643.43
649.835	4698.72
650.027	4563.56
650.22	4500.07
650.413	4512.36
650.605	4346.47
650.798	4479.59
650.991	4547.17
651.183	4334.18
651.376	4407.91
651.568	4319.85
651.761	4465.25
651.954	4313.7
652.146	4313.7
652.339	4246.12
652.531	4399.72
652.724	4063.85
652.916	4147.82
653.109	4194.92
653.301	4211.31
653.494	4184.68
653.686	3889.78
653.879	4180.59
654.071	4074.09
654.263	4074.09
654.456	3955.31
654.648	3850.86
654.84	3904.11
655.033	3922.54
655.225	3893.87
655.417	3967.6
655.61	3830.38
655.802	3830.38
655.994	3844.72
656.186	3799.66
656.379	3854.96
656.571	3766.9
656.763	3756.66
656.955	3652.21
657.148	3588.72
657.34	3676.79
657.532	3525.24
657.724	3539.57
657.916	3555.96
658.108	3502.71
658.3	3660.4
658.492	3424.89
658.684	3383.93
658.876	3560.05
659.068	3353.21
659.26	3390.07
659.452	3488.37
659.644	3428.98
659.836	3332.73
660.028	3398.26
660.22	3228.28
660.412	3295.86
660.604	3248.76
660.796	3299.96
660.988	3244.67
661.18	3328.63
661.372	3277.43
661.563	3119.74
661.755	3138.17
661.947	3230.33
662.139	3101.31
662.331	3113.6
662.522	3132.03
662.714	3027.58
662.906	3037.82
663.097	3093.12
663.289	2937.47
663.481	2972.29
663.673	3082.88
663.864	3015.29
664.056	2986.62
664.247	2916.99
664.439	2876.03
664.631	2949.76
664.822	2980.48
665.014	2837.12
665.205	2859.65
665.397	2939.52
665.588	2892.41
665.78	2777.73
665.971	2792.06
666.163	2847.36
666.354	2787.97
666.546	2779.78
666.737	2841.22
666.929	2673.28
667.12	2777.73
667.311	2742.91
667.503	2632.32
667.694	2663.04
667.885	2683.52
668.077	2720.39
668.268	2611.84
668.459	2630.27
668.651	2656.9
668.842	2654.85
669.033	2511.49
669.224	2574.98
669.416	2482.82
669.607	2460.29
669.798	2411.14
669.989	2615.94
670.18	2527.88
670.371	2491.01
670.563	2488.96
670.754	2431.62
670.945	2456.2
671.136	2402.95
671.327	2423.43
671.518	2351.75
671.709	2544.26
671.9	2339.46
672.091	2372.23
672.282	2427.53
672.473	2419.33
672.664	2376.33
672.855	2325.13
673.046	2298.5
673.237	2347.65
673.428	2306.7
673.619	2411.14
673.809	2392.71
674	2282.12
674.191	2366.09
674.382	2245.26
674.573	2308.74
674.764	2296.46
674.954	2226.82
675.145	2302.6
675.336	2183.82
675.527	2312.84
675.717	2220.68
675.908	2310.79
676.099	2208.39
676.289	2171.53
676.48	2196.11
676.671	2138.76
676.861	2200.2
677.052	2022.03
677.243	2149
677.433	2067.08
677.624	2220.68
677.814	2230.92
678.005	2112.14
678.195	2024.08
678.386	2118.28
678.576	2118.28
678.767	2128.52
678.957	2062.99
679.148	2034.32
679.338	2077.32
679.529	2052.75
679.719	1964.68
679.909	2054.8
680.1	2149
680.29	2062.99
680.481	2105.99
680.671	2015.88
680.861	2149
681.052	2103.95
681.242	2122.38
681.432	2073.23
681.622	2081.42
681.813	2105.99
682.003	1917.58
682.193	2036.36
682.383	2034.32
682.573	1944.2
682.764	1970.83
682.954	2009.74
683.144	2005.64
683.334	1981.07
683.524	1923.73
683.714	1933.97
683.904	2062.99
684.094	1917.58
684.284	2030.22
684.474	1895.05
684.664	2048.65
684.854	1874.57
685.044	1901.2
685.234	2011.79
685.424	1981.07
685.614	1979.02
685.804	2011.79
685.994	1958.54
686.184	2001.55
686.374	1968.78
686.564	1907.34
686.753	1903.25
686.943	1852.05
687.133	2001.55
687.323	1903.25
687.513	1925.77
687.702	1931.92
687.892	1886.86
688.082	1921.68
688.272	1821.33
688.461	1823.37
688.651	1931.92
688.841	1923.73
689.03	1874.57
689.22	1837.71
689.41	1958.54
689.599	1962.64
689.789	1872.53
689.979	1831.57
690.168	1890.96
690.358	1874.57
690.547	1862.29
690.737	1874.57
690.926	1888.91
691.116	1845.9
691.305	1890.96
691.495	1893.01
691.684	1790.61
691.874	1850
692.063	1751.7
692.252	1911.44
692.442	1829.52
692.631	1843.85
692.82	1794.7
693.01	1841.81
693.199	1780.37
693.388	1882.77
693.578	1806.99
693.767	1874.57
693.956	1761.94
694.146	1759.89
694.335	1739.41
694.524	1888.91
694.713	1874.57
694.902	1794.7
695.092	1800.85
695.281	1983.12
695.47	1725.07
695.659	1825.42
695.848	1800.85
696.037	1925.77
696.226	1802.9
696.415	1901.2
696.604	1806.99
696.793	1852.05
696.982	1817.23
697.171	1778.32
697.36	1948.3
697.549	1829.52
697.738	1841.81
697.927	1847.95
698.116	1854.09
698.305	1821.33
698.494	1927.82
698.683	1774.22
698.872	1831.57
699.061	1714.83
699.25	1819.28
699.438	1825.42
699.627	1780.37
699.816	1841.81
700.005	1882.77
700.193	1825.42
700.382	1813.13
700.571	1692.3
700.76	1843.85
700.948	1804.94
701.137	1850
701.326	1757.84
701.514	1798.8
701.703	1757.84
701.892	1843.85
702.08	1708.69
702.269	1817.23
702.457	1757.84
702.646	1843.85
702.834	1813.13
703.023	1788.56
703.212	1819.28
703.4	1743.5
703.589	1778.32
703.777	1692.3
703.965	1731.22
704.154	1757.84
704.342	1792.66
704.531	1710.74
704.719	1661.59
704.907	1778.32
705.096	1757.84
705.284	1825.42
705.472	1759.89
705.661	1696.4
705.849	1735.31
706.037	1737.36
706.226	1759.89
706.414	1745.55
706.602	1772.18
706.79	1720.98
706.979	1780.37
707.167	1847.95
707.355	1788.56
707.543	1806.99
707.731	1659.54
707.919	1677.97
708.107	1667.73
708.296	1716.88
708.484	1616.53
708.672	1645.2
708.86	1692.3
709.048	1776.27
709.236	1612.43
709.424	1661.59
709.612	1639.06
709.8	1684.11
709.988	1567.38
710.176	1583.76
710.364	1686.16
710.551	1634.96
710.739	1667.73
710.927	1735.31
711.115	1622.67
711.303	1628.82
711.491	1602.19
711.679	1589.91
711.866	1606.29
712.054	1573.52
712.242	1608.34
712.43	1589.91
712.617	1639.06
712.805	1594
712.993	1647.25
713.181	1497.75
713.368	1614.48
713.556	1548.95
713.744	1479.32
713.931	1442.45
714.119	1561.23
714.306	1626.77
714.494	1626.77
714.682	1524.37
714.869	1579.67
715.057	1628.82
715.244	1546.9
715.432	1516.18
715.619	1479.32
715.807	1524.37
715.994	1544.85
716.182	1378.97
716.369	1493.65
716.556	1522.32
716.744	1473.17
716.931	1456.79
717.119	1530.52
717.306	1401.49
717.493	1419.92
717.681	1462.93
717.868	1483.41
718.055	1438.36
718.242	1483.41
718.43	1483.41
718.617	1497.75
718.804	1381.01
718.991	1450.64
719.179	1436.31
719.366	1430.16
719.553	1415.83
719.74	1481.36
719.927	1467.03
720.114	1403.54
720.301	1458.84
720.488	1383.06
720.676	1481.36
720.863	1430.16
721.05	1438.36
721.237	1409.69
721.424	1440.4
721.611	1331.86
721.798	1311.38
721.985	1430.16
722.172	1303.19
722.358	1372.82
722.545	1368.73
722.732	1368.73
722.919	1243.8
723.106	1327.77
723.293	1370.77
723.48	1333.91
723.667	1233.56
723.853	1245.85
724.04	1432.21
724.227	1305.24
724.414	1290.9
724.6	1217.18
724.787	1315.48
724.974	1405.59
725.161	1325.72
725.347	1233.56
725.534	1251.99
725.72	1235.61
725.907	1276.57
726.094	1184.41
726.28	1221.27
726.467	1284.76
726.653	1338.01
726.84	1229.46
727.027	1344.15
727.213	1266.33
727.4	1206.94
727.586	1170.07
727.773	1200.79
727.959	1288.86
728.145	1229.46
728.332	1211.03
728.518	1223.32
728.705	1270.42
728.891	1178.26
729.077	1233.56
729.264	1231.51
729.45	1196.7
729.636	1241.75
729.823	1301.14
730.009	1219.22
730.195	1168.02
730.382	1137.31
730.568	1260.18
730.754	1288.86
730.94	1172.12
731.126	1170.07
731.313	1143.45
731.499	1141.4
731.685	1141.4
731.871	1104.54
732.057	1161.88
732.243	1165.98
732.429	1161.88
732.615	1153.69
732.801	1172.12
732.987	1133.21
733.173	1198.74
733.359	1049.24
733.545	1090.2
733.731	1041.05
733.917	1114.78
734.103	1153.69
734.289	1110.68
734.475	1075.87
734.661	1114.78
734.847	1122.97
735.033	1047.19
735.219	1135.26
735.404	1133.21
735.59	1110.68
735.776	1094.3
735.962	1141.4
736.148	1151.64
736.333	1149.59
736.519	1073.82
736.705	1006.24
736.89	1102.49
737.076	1032.86
737.262	1075.87
737.447	1004.19
737.633	993.95
737.819	1106.59
738.004	1096.35
738.19	1090.2
738.375	1100.44
738.561	1047.19
738.747	996
738.932	1073.82
739.118	979.61
739.303	1026.71
739.489	1106.59
739.674	977.56
739.859	998.04
740.045	1006.24
740.23	1043.1
740.416	993.95
740.601	942.75
740.786	965.28
740.972	1004.19
741.157	1067.67
741.342	989.85
741.528	1061.53
741.713	1067.67
741.898	942.75
742.084	946.84
742.269	1014.43
742.454	928.41
742.639	965.28
742.824	967.32
743.01	1051.29
743.195	952.99
743.38	1000.09
743.565	1039
743.75	942.75
743.935	952.99
744.12	1010.33
744.305	940.7
744.49	899.74
744.675	934.56
744.86	957.08
745.045	959.13
745.23	860.83
745.415	975.52
745.6	854.69
745.785	885.41
745.97	907.93
746.155	955.04
746.34	848.54
746.525	893.6
746.71	860.83
746.895	873.12
747.079	854.69
747.264	934.56
747.449	885.41
747.634	969.37
747.819	862.88
748.003	864.93
748.188	828.06
748.373	918.17
748.557	883.36
748.742	823.97
748.927	756.38
749.111	830.11
749.296	795.29
749.481	877.21
749.665	907.93
749.85	801.44
750.034	842.4
750.219	828.06
750.404	735.9
750.588	725.66
750.773	758.43
750.957	815.77
751.141	746.14
751.326	733.86
751.51	729.76
751.695	690.85
751.879	686.75
752.064	727.71
752.248	731.81
752.432	737.95
752.617	723.62
752.801	754.34
752.985	674.46
753.17	664.22
753.354	709.28
753.538	674.46
753.722	692.9
753.907	668.32
754.091	735.9
754.275	707.23
754.459	674.46
754.643	723.62
754.828	690.85
755.012	703.14
755.196	637.6
755.38	615.07
755.564	596.64
755.748	637.6
755.932	582.31
756.116	641.7
756.3	678.56
756.484	623.27
756.668	635.55
756.852	600.74
757.036	518.82
757.22	608.93
757.404	588.45
757.588	586.4
757.772	613.03
757.956	551.59
758.14	635.55
758.323	590.5
758.507	551.59
758.691	559.78
758.875	576.16
759.059	565.92
759.242	522.91
759.426	549.54
759.61	502.43
759.794	588.45
759.977	533.15
760.161	518.82
760.345	465.57
760.528	576.16
760.712	553.63
760.895	592.55
761.079	537.25
761.263	606.88
761.446	543.39
761.63	529.06
761.813	467.62
761.997	465.57
762.18	535.2
762.364	535.2
762.547	434.85
762.731	447.14
762.914	531.11
763.098	494.24
763.281	457.38
763.464	527.01
763.648	500.39
763.831	524.96
764.015	430.76
764.198	524.96
764.381	465.57
764.564	488.1
764.748	531.11
764.931	520.87
765.114	422.56
765.297	473.76
765.481	502.43
765.664	453.28
765.847	461.48
766.03	494.24
766.213	438.95
766.397	434.85
766.58	461.48
766.763	481.96
766.946	434.85
767.129	479.91
767.312	490.15
767.495	471.72
767.678	510.63
767.861	418.47
768.044	490.15
768.227	424.61
768.41	498.34
768.593	424.61
768.776	488.1
768.959	524.96
769.142	451.24
769.324	455.33
769.507	449.19
769.69	410.28
769.873	346.79
770.056	414.37
770.239	443.04
770.421	465.57
770.604	502.43
770.787	477.86
770.97	402.08
771.152	369.32
771.335	336.55
771.518	449.19
771.7	492.2
771.883	434.85
772.066	475.81
772.248	426.66
772.431	395.94
772.613	402.08
772.796	369.32
772.978	434.85
773.161	426.66
773.343	416.42
773.526	395.94
773.708	426.66
773.891	299.69
774.073	400.04
774.256	404.13
774.438	414.37
774.621	424.61
774.803	377.51
774.985	412.32
775.168	402.08
775.35	393.89
775.532	381.6
775.715	410.28
775.897	385.7
776.079	365.22
776.261	381.6
776.444	340.65
776.626	379.56
776.808	373.41
776.99	268.97
777.173	375.46
777.355	324.26
777.537	373.41
777.719	299.69
777.901	330.41
778.083	305.83
778.265	250.53
778.447	379.56
778.629	332.45
778.811	318.12
778.993	324.26
779.175	324.26
779.357	322.21
779.539	320.17
779.721	289.45
779.903	359.08
780.085	281.25
780.267	314.02
780.449	305.83
780.631	334.5
780.812	266.92
780.994	260.77
781.176	377.51
781.358	324.26
781.54	240.29
781.721	328.36
781.903	307.88
782.085	250.53
782.267	283.3
782.448	252.58
782.63	277.16
782.812	262.82
782.993	301.73
783.175	252.58
783.357	217.77
783.538	283.3
783.72	275.11
783.901	248.49
784.083	279.21
784.264	180.9
784.446	246.44
784.627	283.3
784.809	266.92
784.99	268.97
785.172	146.09
785.353	318.12
785.535	205.48
785.716	209.58
785.897	152.23
786.079	248.49
786.26	228.01
786.441	260.77
786.623	215.72
786.804	252.58
786.985	193.19
787.167	244.39
787.348	246.44
787.529	174.76
787.71	303.78
787.891	234.15
788.073	240.29
788.254	152.23
788.435	189.1
788.616	246.44
788.797	238.25
788.978	170.66
789.159	207.53
789.34	180.9
789.522	105.13
789.703	195.24
789.884	187.05
790.065	182.95
790.246	170.66
790.427	215.72
790.607	168.62
790.788	201.38
790.969	199.34
791.15	164.52
791.331	197.29
791.512	260.77
791.693	207.53
791.874	164.52
792.054	201.38
792.235	135.85
792.416	109.22
792.597	207.53
792.778	172.71
792.958	203.43
793.139	115.37
793.32	205.48
793.5	121.51
793.681	185
793.862	199.34
794.042	160.42
794.223	111.27
794.404	168.62
794.584	211.62
794.765	170.66
794.945	150.18
795.126	201.38
795.306	201.38
795.487	187.05
795.667	86.7
795.848	158.38
796.028	168.62
796.209	80.55
796.389	205.48
796.57	158.38
796.75	129.7
796.93	113.32
797.111	62.12
797.291	170.66
797.471	137.9
797.652	207.53
797.832	96.94
798.012	285.35
798.192	156.33
798.373	148.14
798.553	182.95
798.733	154.28
798.913	146.09
799.093	74.41
799.274	187.05
799.454	141.99
799.634	213.67
799.814	137.9
799.994	170.66
800.174	119.46
800.354	109.22
800.534	133.8
800.714	158.38
800.894	121.51
801.074	168.62
801.254	88.75
801.434	86.7
801.614	141.99
801.794	150.18
801.974	410.28
802.154	156.33
802.334	133.8
802.514	70.31
802.693	113.32
802.873	107.18
803.053	156.33
803.233	107.18
803.413	98.99
803.592	166.57
803.772	148.14
803.952	139.94
804.131	150.18
804.311	168.62
804.491	187.05
804.67	135.85
804.85	41.64
805.03	92.84
805.209	119.46
805.389	92.84
805.568	119.46
805.748	137.9
805.928	119.46
806.107	156.33
806.287	68.27
806.466	131.75
806.646	117.42
806.825	41.64
807.004	113.32
807.184	144.04
807.363	49.83
807.543	170.66
807.722	125.61
807.901	37.55
808.081	88.75
808.26	76.46
808.439	119.46
808.619	62.12
808.798	17.07
808.977	94.89
809.156	141.99
809.336	51.88
809.515	84.65
809.694	76.46
809.873	127.66
810.052	8.87
810.231	115.37
810.411	68.27
810.59	209.58
810.769	107.18
810.948	135.85
811.127	6.83
811.306	109.22
811.485	111.27
811.664	12.97
811.843	51.88
812.022	88.75
812.201	109.22
812.38	94.89
812.559	92.84
812.737	78.51
812.916	121.51
813.095	107.18
813.274	19.11
813.453	62.12
813.632	92.84
813.811	47.79
813.989	113.32
814.168	94.89
814.347	105.13
814.526	117.42
814.704	187.05
814.883	66.22
815.062	72.36
815.24	90.79
815.419	94.89
815.598	92.84
815.776	-17.75
815.955	76.46
816.133	68.27
816.312	29.35
816.49	127.66
816.669	111.27
816.847	74.41
817.026	64.17
817.204	8.87
817.383	129.7
817.561	12.97
817.74	96.94
817.918	55.98
818.097	107.18
818.275	27.31
818.453	96.94
818.632	123.56
818.81	90.79
818.988	84.65
819.167	37.55
819.345	187.05
819.523	80.55
819.701	131.75
819.879	193.19
820.058	43.69
820.236	111.27
820.414	62.12
820.592	-7.51
820.77	62.12
820.948	55.98
821.127	82.6
821.305	86.7
821.483	8.87
821.661	84.65
821.839	74.41
822.017	19.11
822.195	60.07
822.373	6.83
822.551	47.79
822.729	45.74
822.907	55.98
823.085	62.12
823.262	49.83
823.44	43.69
823.618	39.59
823.796	84.65
823.974	98.99
824.152	25.26
824.329	74.41
824.507	135.85
824.685	29.35
824.863	4.78
825.04	62.12
825.218	94.89
825.396	-15.7
825.574	49.83
825.751	51.88
825.929	66.22
826.107	39.59
826.284	96.94
826.462	-15.7
826.639	103.08
826.817	41.64
826.994	88.75
827.172	37.55
827.349	58.03
827.527	129.7
827.704	64.17
827.882	43.69
828.059	76.46
828.237	37.55
828.414	29.35
828.591	19.11
828.769	92.84
828.946	23.21
829.124	49.83
829.301	27.31
829.478	64.17
829.655	94.89
829.833	121.51
830.01	15.02
830.187	31.4
830.364	-3.41
830.542	58.03
830.719	135.85
830.896	76.46
831.073	78.51
831.25	45.74
831.427	94.89
831.604	51.88
831.782	43.69
831.959	17.07
832.136	43.69
832.313	15.02
832.49	29.35
832.667	47.79
832.844	35.5
833.021	33.45
833.198	72.36
833.374	25.26
833.551	88.75
833.728	6.83
833.905	105.13
834.082	21.16
834.259	17.07
834.436	115.37
834.612	23.21
834.789	129.7
834.966	27.31
835.143	117.42
835.319	17.07
835.496	123.56
835.673	2.73
835.85	109.22
836.026	80.55
836.203	51.88
836.38	19.11
836.556	129.7
836.733	12.97
836.909	101.03
837.086	53.93
837.262	6.83
837.439	0.68
837.616	-64.85
837.792	51.88
837.968	51.88
838.145	51.88
838.321	-7.51
838.498	17.07
838.674	35.5
838.851	-42.32
839.027	-42.32
839.203	35.5
839.38	19.11
839.556	45.74
839.732	90.79
839.909	33.45
840.085	49.83
840.261	58.03
840.437	29.35
840.614	62.12
840.79	-27.99
840.966	80.55
841.142	12.97
841.318	55.98
841.494	60.07
841.671	25.26
841.847	72.36
842.023	-71
842.199	66.22
842.375	35.5
842.551	29.35
842.727	-15.7
842.903	68.27
843.079	80.55
843.255	-9.56
843.431	23.21
843.607	19.11
843.783	-1.37
843.959	29.35
844.134	4.78
844.31	70.31
844.486	0.68
844.662	2.73
844.838	31.4
845.013	-11.61
845.189	2.73
845.365	55.98
845.541	-21.85
845.716	72.36
845.892	60.07
846.068	41.64
846.244	49.83
846.419	29.35
846.595	45.74
846.77	21.16
846.946	62.12
847.122	-13.65
847.297	33.45
847.473	43.69
847.648	-30.04
847.824	17.07
847.999	-34.13
848.175	96.94
848.35	51.88
848.526	39.59
848.701	-7.51
848.876	107.18
849.052	53.93
849.227	70.31
849.403	29.35
849.578	-32.08
849.753	58.03
849.929	47.79
850.104	-25.94
850.279	96.94
850.454	15.02
850.63	94.89
850.805	-32.08
850.98	58.03
851.155	60.07
851.33	58.03
851.505	37.55
851.681	8.87
851.856	53.93
852.031	43.69
852.206	53.93
852.381	55.98
852.556	45.74
852.731	-44.37
852.906	76.46
853.081	47.79
853.256	-9.56
853.431	35.5
853.606	-13.65
853.781	72.36
853.956	53.93
854.131	17.07
854.305	33.45
854.48	72.36
854.655	0.68
854.83	-58.71
855.005	4.78
855.18	74.41
855.354	64.17
855.529	-54.61
855.704	-56.66
855.879	-44.37
856.053	45.74
856.228	64.17
856.403	-5.46
856.577	78.51
856.752	12.97
856.926	94.89
857.101	2.73
857.276	8.87
857.45	55.98
857.625	49.83
857.799	10.92
857.974	-36.18
858.148	-11.61
858.323	37.55
858.497	31.4
858.672	-23.89
858.846	64.17
859.02	55.98
859.195	-19.8
859.369	19.11
859.543	-13.65
859.718	-5.46
859.892	-36.18
860.066	66.22
860.241	35.5
860.415	17.07
860.589	-7.51
860.763	111.27
860.938	12.97
861.112	4.78
861.286	29.35
861.46	84.65
861.634	10.92
861.808	105.13
861.982	2.73
862.157	58.03
862.331	-19.8
862.505	12.97
862.679	41.64
862.853	12.97
863.027	19.11
863.201	105.13
863.375	82.6
863.549	43.69
863.722	31.4
863.896	51.88
864.07	-7.51
864.244	-13.65
864.418	37.55
864.592	31.4
864.766	23.21
864.939	80.55
865.113	-5.46
865.287	51.88
865.461	-1.37
865.634	37.55
865.808	62.12
865.982	-48.47
866.156	21.16
866.329	-38.23
866.503	58.03
866.676	55.98
866.85	-19.8
867.024	-5.46
867.197	-7.51
867.371	88.75
867.544	6.83
867.718	-15.7
867.891	12.97
868.065	-17.75
868.238	-1.37
868.412	12.97
868.585	37.55
868.759	-17.75
868.932	29.35
869.105	-17.75
869.279	2.73
869.452	15.02
869.625	66.22
869.799	-11.61
869.972	27.31
870.145	-46.42
870.319	2.73
870.492	64.17
870.665	64.17
870.838	60.07
871.011	37.55
871.185	55.98
871.358	4.78
871.531	72.36
871.704	-11.61
871.877	45.74
872.05	33.45
872.223	6.83
872.396	55.98
872.569	-11.61
872.742	-13.65
872.915	-1.37
873.088	27.31
873.261	31.4
873.434	60.07
873.607	-9.56
873.78	-30.04
873.953	84.65
874.126	-5.46
874.299	-17.75
874.471	27.31
874.644	45.74
874.817	17.07
874.99	-5.46
875.163	8.87
875.335	23.21
875.508	-27.99
875.681	55.98
875.853	-1.37
876.026	51.88
876.199	74.41
876.371	68.27
876.544	0.68
876.717	6.83
876.889	-3.41
877.062	41.64
877.234	-11.61
877.407	4.78
877.579	70.31
877.752	39.59
877.924	27.31
878.097	0.68
878.269	33.45
878.442	72.36
878.614	-52.56
878.786	64.17
878.959	17.07
879.131	12.97
879.303	25.26
879.476	68.27
879.648	76.46
879.82	-23.89
879.993	72.36
880.165	27.31
880.337	39.59
880.509	39.59
880.681	19.11
880.854	53.93
881.026	68.27
881.198	76.46
881.37	-5.46
881.542	21.16
881.714	27.31
881.886	8.87
882.058	25.26
882.23	-3.41
882.402	15.02
882.574	-3.41
882.746	-23.89
882.918	-13.65
883.09	19.11
883.262	-9.56
883.434	-13.65
883.606	31.4
883.778	58.03
883.95	35.5
884.122	-9.56
884.293	43.69
884.465	-13.65
884.637	-44.37
884.809	21.16
884.98	39.59
885.152	0.68
885.324	37.55
885.496	45.74
885.667	8.87
885.839	17.07
886.011	78.51
886.182	19.11
886.354	121.51
886.525	51.88
886.697	66.22
886.869	-5.46
887.04	80.55
887.212	23.21
887.383	2.73
887.555	8.87
887.726	-15.7
887.897	37.55
888.069	-15.7
888.24	-38.23
888.412	10.92
888.583	19.11
888.754	-1.37
888.926	-42.32
889.097	19.11
889.268	-9.56
889.44	-11.61
889.611	2.73
889.782	-60.76
889.953	-25.94
890.125	23.21
890.296	-13.65
890.467	-9.56
890.638	25.26
890.809	-15.7
890.98	45.74
891.151	25.26
891.323	-13.65
891.494	0.68
891.665	23.21
891.836	-19.8
892.007	58.03
892.178	-3.41
892.349	19.11
892.52	27.31
892.691	6.83
892.862	43.69
893.032	58.03
893.203	21.16
893.374	-5.46
893.545	39.59
893.716	-13.65
893.887	-7.51
894.057	-21.85
894.228	49.83
894.399	-25.94
894.57	-3.41
894.74	10.92
894.911	29.35
895.082	-17.75
895.253	27.31
895.423	-9.56
895.594	58.03
895.764	-3.41
895.935	-38.23
896.106	-9.56
896.276	62.12
896.447	27.31
896.617	43.69
896.788	6.83
896.958	-5.46
897.129	23.21
897.299	8.87
897.47	-17.75
897.64	-32.08
897.81	2.73
897.981	60.07
898.151	8.87
898.322	2.73
898.492	-3.41
898.662	27.31
898.832	62.12
899.003	-73.04
899.173	-1.37
899.343	62.12
899.513	-1.37
