Data from USB4F104151__163__13-58-46-753.txt Node

Date: Thu Mar 13 13:58:46 EDT 2025
User: louis
Spectrometer: USB4F10415
Trigger mode: 4
Integration Time (sec): 1.000000E-2
Scans to average: 1
Electric dark correction enabled: true
Nonlinearity correction enabled: false
Boxcar width: 0
XAxis mode: Wavelengths
Number of Pixels in Spectrum: 3648
>>>>>Begin Spectral Data<<<<<
178.204	-66.05
178.424	-66.05
178.644	-66.05
178.864	-59.9
179.084	-31.23
179.304	34.3
179.524	28.16
179.744	-51.71
179.964	44.54
180.184	-49.66
180.404	7.68
180.624	-10.75
180.844	-4.61
181.064	19.97
181.283	-49.66
181.503	-0.51
181.723	32.26
181.943	19.97
182.163	46.59
182.383	40.45
182.602	5.63
182.822	-6.66
183.042	50.69
183.262	1.54
183.482	38.4
183.701	-2.56
183.921	-23.04
184.141	-33.28
184.361	-8.7
184.58	-4.61
184.8	42.5
185.02	-10.75
185.239	15.87
185.459	24.06
185.679	11.78
185.898	-4.61
186.118	97.79
186.338	-10.75
186.557	-10.75
186.777	30.21
186.997	28.16
187.216	13.82
187.436	118.27
187.655	44.54
187.875	1.54
188.095	75.26
188.314	36.35
188.534	-4.61
188.753	44.54
188.973	17.92
189.192	46.59
189.412	-133.63
189.631	-10.75
189.851	-0.51
190.07	73.21
190.29	73.21
190.509	-18.94
190.729	36.35
190.948	44.54
191.168	50.69
191.387	36.35
191.607	-27.14
191.826	19.97
192.045	5.63
192.265	-6.66
192.484	52.74
192.704	-2.56
192.923	58.88
193.142	69.12
193.362	13.82
193.581	32.26
193.8	48.64
194.02	11.78
194.239	79.36
194.458	60.93
194.678	-61.95
194.897	13.82
195.116	15.87
195.335	-74.24
195.555	17.92
195.774	19.97
195.993	-10.75
196.212	9.73
196.432	36.35
196.651	38.4
196.87	22.02
197.089	26.11
197.308	1.54
197.528	-61.95
197.747	5.63
197.966	-23.04
198.185	71.17
198.404	54.78
198.623	30.21
198.842	22.02
199.062	38.4
199.281	58.88
199.5	26.11
199.719	-6.66
199.938	-41.47
200.157	22.02
200.376	-18.94
200.595	52.74
200.814	77.31
201.033	30.21
201.252	32.26
201.471	-94.72
201.69	17.92
201.909	30.21
202.128	7.68
202.347	-29.18
202.566	-98.81
202.785	32.26
203.004	71.17
203.223	81.41
203.442	-10.75
203.661	-10.75
203.879	9.73
204.098	60.93
204.317	-41.47
204.536	69.12
204.755	22.02
204.974	38.4
205.193	40.45
205.411	65.02
205.63	56.83
205.849	-53.76
206.068	24.06
206.287	-0.51
206.505	56.83
206.724	26.11
206.943	50.69
207.162	9.73
207.381	32.26
207.599	42.5
207.818	34.3
208.037	3.58
208.255	-53.76
208.474	83.45
208.693	9.73
208.911	36.35
209.13	32.26
209.349	36.35
209.567	9.73
209.786	-45.57
210.005	3.58
210.223	44.54
210.442	24.06
210.661	40.45
210.879	-29.18
211.098	71.17
211.316	-4.61
211.535	32.26
211.753	65.02
211.972	19.97
212.191	22.02
212.409	46.59
212.628	-61.95
212.846	9.73
213.065	36.35
213.283	73.21
213.502	52.74
213.72	17.92
213.938	40.45
214.157	-12.8
214.375	-51.71
214.594	11.78
214.812	-2.56
215.031	99.84
215.249	36.35
215.467	110.08
215.686	-53.76
215.904	-16.9
216.122	-37.38
216.341	17.92
216.559	11.78
216.778	24.06
216.996	-14.85
217.214	-4.61
217.432	-37.38
217.651	50.69
217.869	-10.75
218.087	42.5
218.306	73.21
218.524	5.63
218.742	-23.04
218.96	-18.94
219.179	28.16
219.397	-10.75
219.615	-74.24
219.833	7.68
220.051	-25.09
220.27	36.35
220.488	52.74
220.706	79.36
220.924	-76.29
221.142	36.35
221.36	17.92
221.578	48.64
221.796	15.87
222.015	-59.9
222.233	9.73
222.451	36.35
222.669	-10.75
222.887	17.92
223.105	56.83
223.323	28.16
223.541	5.63
223.759	-2.56
223.977	11.78
224.195	60.93
224.413	-35.33
224.631	5.63
224.849	54.78
225.067	38.4
225.285	46.59
225.503	-2.56
225.721	22.02
225.939	-39.42
226.157	42.5
226.375	19.97
226.592	3.58
226.81	48.64
227.028	32.26
227.246	19.97
227.464	-29.18
227.682	48.64
227.9	-4.61
228.117	1.54
228.335	1.54
228.553	-10.75
228.771	-4.61
228.989	17.92
229.206	19.97
229.424	-6.66
229.642	-8.7
229.86	-61.95
230.077	24.06
230.295	17.92
230.513	58.88
230.731	77.31
230.948	56.83
231.166	28.16
231.384	-37.38
231.601	52.74
231.819	-10.75
232.037	22.02
232.254	-8.7
232.472	-72.19
232.689	-72.19
232.907	62.98
233.125	58.88
233.342	48.64
233.56	-10.75
233.777	54.78
233.995	71.17
234.213	52.74
234.43	34.3
234.648	-76.29
234.865	15.87
235.083	34.3
235.3	-18.94
235.518	34.3
235.735	50.69
235.953	-49.66
236.17	9.73
236.388	-18.94
236.605	24.06
236.822	5.63
237.04	13.82
237.257	-29.18
237.475	-20.99
237.692	-64
237.909	-49.66
238.127	-6.66
238.344	28.16
238.562	-8.7
238.779	19.97
238.996	13.82
239.214	-6.66
239.431	11.78
239.648	28.16
239.865	52.74
240.083	24.06
240.3	22.02
240.517	-33.28
240.735	36.35
240.952	108.03
241.169	-10.75
241.386	52.74
241.603	-33.28
241.821	54.78
242.038	28.16
242.255	36.35
242.472	40.45
242.689	30.21
242.907	38.4
243.124	97.79
243.341	11.78
243.558	65.02
243.775	34.3
243.992	9.73
244.209	-0.51
244.426	54.78
244.643	-23.04
244.86	-68.09
245.078	30.21
245.295	5.63
245.512	9.73
245.729	40.45
245.946	-8.7
246.163	-4.61
246.38	87.55
246.597	9.73
246.814	38.4
247.031	15.87
247.248	44.54
247.464	-29.18
247.681	54.78
247.898	54.78
248.115	95.74
248.332	38.4
248.549	44.54
248.766	22.02
248.983	103.93
249.2	32.26
249.417	11.78
249.633	22.02
249.85	-29.18
250.067	79.36
250.284	-4.61
250.501	42.5
250.717	54.78
250.934	-33.28
251.151	36.35
251.368	42.5
251.585	79.36
251.801	42.5
252.018	85.5
252.235	-10.75
252.451	17.92
252.668	5.63
252.885	-20.99
253.102	-18.94
253.318	36.35
253.535	11.78
253.752	-0.51
253.968	3.58
254.185	3.58
254.401	-55.81
254.618	110.08
254.835	-4.61
255.051	32.26
255.268	-25.09
255.484	-2.56
255.701	-25.09
255.917	60.93
256.134	1.54
256.351	-14.85
256.567	17.92
256.784	56.83
257	52.74
257.217	3.58
257.433	19.97
257.65	-29.18
257.866	26.11
258.082	65.02
258.299	46.59
258.515	11.78
258.732	5.63
258.948	-6.66
259.165	15.87
259.381	48.64
259.597	28.16
259.814	3.58
260.03	34.3
260.246	11.78
260.463	3.58
260.679	48.64
260.895	24.06
261.112	36.35
261.328	-29.18
261.544	36.35
261.761	81.41
261.977	50.69
262.193	19.97
262.409	-10.75
262.626	-2.56
262.842	-41.47
263.058	-10.75
263.274	73.21
263.49	-4.61
263.707	11.78
263.923	3.58
264.139	9.73
264.355	15.87
264.571	89.6
264.787	83.45
265.004	36.35
265.22	30.21
265.436	54.78
265.652	-10.75
265.868	48.64
266.084	65.02
266.3	48.64
266.516	5.63
266.732	56.83
266.948	-16.9
267.164	36.35
267.38	-20.99
267.596	58.88
267.812	34.3
268.028	65.02
268.244	-12.8
268.46	32.26
268.676	15.87
268.892	-0.51
269.108	30.21
269.324	-45.57
269.54	-16.9
269.756	34.3
269.972	32.26
270.188	5.63
270.403	17.92
270.619	9.73
270.835	30.21
271.051	44.54
271.267	-64
271.483	-12.8
271.698	-25.09
271.914	-18.94
272.13	69.12
272.346	11.78
272.562	5.63
272.777	85.5
272.993	15.87
273.209	-27.14
273.425	5.63
273.64	103.93
273.856	-29.18
274.072	24.06
274.287	73.21
274.503	75.26
274.719	32.26
274.934	-6.66
275.15	11.78
275.366	62.98
275.581	-4.61
275.797	36.35
276.012	-66.05
276.228	11.78
276.444	3.58
276.659	38.4
276.875	22.02
277.09	71.17
277.306	-55.81
277.521	19.97
277.737	-4.61
277.952	5.63
278.168	-10.75
278.383	9.73
278.599	-10.75
278.814	-2.56
279.03	50.69
279.245	15.87
279.461	9.73
279.676	3.58
279.892	52.74
280.107	-8.7
280.322	-6.66
280.538	-8.7
280.753	-31.23
280.969	3.58
281.184	-0.51
281.399	7.68
281.615	95.74
281.83	60.93
282.045	-53.76
282.26	44.54
282.476	-10.75
282.691	19.97
282.906	44.54
283.122	13.82
283.337	19.97
283.552	95.74
283.767	9.73
283.983	11.78
284.198	38.4
284.413	-0.51
284.628	-39.42
284.843	-14.85
285.058	85.5
285.274	28.16
285.489	-47.62
285.704	30.21
285.919	3.58
286.134	-47.62
286.349	-6.66
286.564	11.78
286.779	-27.14
286.995	77.31
287.21	-66.05
287.425	36.35
287.64	-6.66
287.855	3.58
288.07	67.07
288.285	24.06
288.5	-20.99
288.715	15.87
288.93	15.87
289.145	7.68
289.36	38.4
289.575	28.16
289.79	1.54
290.004	19.97
290.219	69.12
290.434	60.93
290.649	15.87
290.864	62.98
291.079	36.35
291.294	-16.9
291.509	62.98
291.724	15.87
291.938	-10.75
292.153	65.02
292.368	1.54
292.583	-16.9
292.798	60.93
293.012	81.41
293.227	30.21
293.442	-2.56
293.657	15.87
293.871	17.92
294.086	-43.52
294.301	1.54
294.516	7.68
294.73	-70.14
294.945	-37.38
295.16	42.5
295.374	-27.14
295.589	32.26
295.804	3.58
296.018	-84.48
296.233	85.5
296.447	-43.52
296.662	24.06
296.877	3.58
297.091	28.16
297.306	-16.9
297.52	5.63
297.735	1.54
297.949	22.02
298.164	69.12
298.378	-10.75
298.593	28.16
298.807	22.02
299.022	-23.04
299.236	81.41
299.451	11.78
299.665	-4.61
299.88	46.59
300.094	-0.51
300.309	3.58
300.523	52.74
300.737	-12.8
300.952	-6.66
301.166	13.82
301.381	3.58
301.595	5.63
301.809	-6.66
302.024	-2.56
302.238	-68.09
302.452	-37.38
302.667	-10.75
302.881	-25.09
303.095	-53.76
303.309	32.26
303.524	5.63
303.738	15.87
303.952	-27.14
304.166	65.02
304.381	3.58
304.595	11.78
304.809	40.45
305.023	15.87
305.237	-6.66
305.452	-20.99
305.666	-12.8
305.88	77.31
306.094	-64
306.308	42.5
306.522	-64
306.736	24.06
306.95	5.63
307.164	-43.52
307.379	26.11
307.593	-2.56
307.807	24.06
308.021	40.45
308.235	13.82
308.449	32.26
308.663	-37.38
308.877	11.78
309.091	9.73
309.305	36.35
309.519	32.26
309.733	19.97
309.947	3.58
310.161	-57.86
310.374	-37.38
310.588	48.64
310.802	-84.48
311.016	34.3
311.23	60.93
311.444	5.63
311.658	87.55
311.872	26.11
312.085	-37.38
312.299	46.59
312.513	99.84
312.727	46.59
312.941	22.02
313.154	-12.8
313.368	3.58
313.582	34.3
313.796	-31.23
314.009	38.4
314.223	-8.7
314.437	67.07
314.651	32.26
314.864	22.02
315.078	26.11
315.292	85.5
315.505	34.3
315.719	108.03
315.933	-23.04
316.146	83.45
316.36	54.78
316.573	62.98
316.787	-20.99
317.001	44.54
317.214	-4.61
317.428	-12.8
317.641	38.4
317.855	-41.47
318.068	-10.75
318.282	36.35
318.495	24.06
318.709	62.98
318.922	48.64
319.136	30.21
319.349	1.54
319.563	60.93
319.776	-31.23
319.99	-35.33
320.203	7.68
320.417	-33.28
320.63	54.78
320.843	-14.85
321.057	28.16
321.27	69.12
321.483	46.59
321.697	-37.38
321.91	79.36
322.124	42.5
322.337	-16.9
322.55	-6.66
322.763	89.6
322.977	-14.85
323.19	19.97
323.403	73.21
323.617	-53.76
323.83	19.97
324.043	-18.94
324.256	3.58
324.469	32.26
324.683	9.73
324.896	36.35
325.109	54.78
325.322	7.68
325.535	48.64
325.748	7.68
325.962	-31.23
326.175	103.93
326.388	9.73
326.601	13.82
326.814	42.5
327.027	42.5
327.24	116.22
327.453	-23.04
327.666	62.98
327.879	75.26
328.092	38.4
328.305	-18.94
328.518	3.58
328.731	36.35
328.944	28.16
329.157	42.5
329.37	85.5
329.583	22.02
329.796	85.5
330.009	62.98
330.222	17.92
330.435	54.78
330.648	46.59
330.861	40.45
331.073	67.07
331.286	-2.56
331.499	-27.14
331.712	-2.56
331.925	32.26
332.138	-4.61
332.35	38.4
332.563	17.92
332.776	3.58
332.989	28.16
333.202	22.02
333.414	36.35
333.627	-102.91
333.84	-35.33
334.053	44.54
334.265	-20.99
334.478	54.78
334.691	46.59
334.903	60.93
335.116	-35.33
335.329	65.02
335.541	-12.8
335.754	28.16
335.966	-29.18
336.179	75.26
336.392	-12.8
336.604	67.07
336.817	36.35
337.029	36.35
337.242	42.5
337.454	22.02
337.667	13.82
337.88	40.45
338.092	73.21
338.305	71.17
338.517	1.54
338.729	71.17
338.942	44.54
339.154	52.74
339.367	-4.61
339.579	-12.8
339.792	85.5
340.004	11.78
340.217	24.06
340.429	77.31
340.641	-92.67
340.854	-12.8
341.066	89.6
341.278	7.68
341.491	48.64
341.703	-47.62
341.915	56.83
342.128	26.11
342.34	13.82
342.552	58.88
342.764	40.45
342.977	19.97
343.189	-23.04
343.401	153.09
343.613	-25.09
343.826	48.64
344.038	-4.61
344.25	-20.99
344.462	-27.14
344.674	32.26
344.886	48.64
345.099	11.78
345.311	81.41
345.523	-10.75
345.735	-20.99
345.947	24.06
346.159	-35.33
346.371	54.78
346.583	34.3
346.795	44.54
347.007	-33.28
347.219	11.78
347.431	22.02
347.643	65.02
347.855	-16.9
348.067	116.22
348.279	-96.77
348.491	1.54
348.703	34.3
348.915	40.45
349.127	-4.61
349.339	44.54
349.551	32.26
349.763	65.02
349.975	46.59
350.187	73.21
350.399	28.16
350.61	13.82
350.822	7.68
351.034	1.54
351.246	9.73
351.458	24.06
351.669	22.02
351.881	15.87
352.093	69.12
352.305	-4.61
352.517	1.54
352.728	52.74
352.94	-29.18
353.152	22.02
353.363	-31.23
353.575	54.78
353.787	48.64
353.999	-51.71
354.21	-12.8
354.422	73.21
354.633	28.16
354.845	46.59
355.057	36.35
355.268	26.11
355.48	58.88
355.692	-10.75
355.903	36.35
356.115	22.02
356.326	26.11
356.538	32.26
356.749	-61.95
356.961	36.35
357.172	36.35
357.384	17.92
357.595	15.87
357.807	44.54
358.018	-64
358.23	75.26
358.441	30.21
358.653	38.4
358.864	58.88
359.075	52.74
359.287	-18.94
359.498	54.78
359.709	3.58
359.921	52.74
360.132	11.78
360.344	48.64
360.555	36.35
360.766	-6.66
360.977	-12.8
361.189	9.73
361.4	-37.38
361.611	77.31
361.823	83.45
362.034	7.68
362.245	-4.61
362.456	17.92
362.667	1.54
362.879	-4.61
363.09	-45.57
363.301	54.78
363.512	58.88
363.723	-18.94
363.935	87.55
364.146	83.45
364.357	73.21
364.568	1.54
364.779	19.97
364.99	7.68
365.201	-33.28
365.412	52.74
365.623	-31.23
365.834	83.45
366.045	19.97
366.256	26.11
366.467	116.22
366.678	-10.75
366.889	52.74
367.1	38.4
367.311	19.97
367.522	-16.9
367.733	48.64
367.944	-53.76
368.155	3.58
368.366	60.93
368.577	9.73
368.788	-68.09
368.999	93.69
369.209	73.21
369.42	42.5
369.631	-20.99
369.842	93.69
370.053	56.83
370.264	5.63
370.474	13.82
370.685	13.82
370.896	77.31
371.107	32.26
371.317	44.54
371.528	-14.85
371.739	-35.33
371.95	-37.38
372.16	1.54
372.371	56.83
372.582	13.82
372.792	-41.47
373.003	-29.18
373.214	-29.18
373.424	60.93
373.635	-16.9
373.846	17.92
374.056	22.02
374.267	56.83
374.477	-4.61
374.688	22.02
374.898	32.26
375.109	65.02
375.319	48.64
375.53	19.97
375.74	50.69
375.951	28.16
376.161	52.74
376.372	-27.14
376.582	-29.18
376.793	28.16
377.003	9.73
377.214	34.3
377.424	11.78
377.635	22.02
377.845	30.21
378.055	48.64
378.266	11.78
378.476	13.82
378.686	-20.99
378.897	85.5
379.107	85.5
379.317	28.16
379.528	-2.56
379.738	15.87
379.948	-2.56
380.158	87.55
380.369	19.97
380.579	69.12
380.789	19.97
380.999	15.87
381.21	71.17
381.42	11.78
381.63	-6.66
381.84	24.06
382.05	11.78
382.261	7.68
382.471	3.58
382.681	-49.66
382.891	11.78
383.101	-23.04
383.311	85.5
383.521	-10.75
383.731	-4.61
383.941	-16.9
384.151	65.02
384.361	126.46
384.571	-37.38
384.781	-16.9
384.991	22.02
385.201	15.87
385.411	3.58
385.621	15.87
385.831	48.64
386.041	17.92
386.251	28.16
386.461	1.54
386.671	9.73
386.881	89.6
387.091	116.22
387.301	42.5
387.511	44.54
387.72	36.35
387.93	-6.66
388.14	15.87
388.35	36.35
388.56	26.11
388.769	-0.51
388.979	95.74
389.189	50.69
389.399	-53.76
389.609	42.5
389.818	40.45
390.028	32.26
390.238	71.17
390.447	5.63
390.657	67.07
390.867	95.74
391.076	1.54
391.286	5.63
391.496	38.4
391.705	44.54
391.915	79.36
392.125	87.55
392.334	-10.75
392.544	36.35
392.753	-16.9
392.963	30.21
393.172	85.5
393.382	-57.86
393.591	38.4
393.801	11.78
394.01	50.69
394.22	-57.86
394.429	73.21
394.639	60.93
394.848	15.87
395.058	67.07
395.267	46.59
395.477	48.64
395.686	7.68
395.895	71.17
396.105	44.54
396.314	44.54
396.524	56.83
396.733	5.63
396.942	77.31
397.152	-0.51
397.361	24.06
397.57	85.5
397.78	-25.09
397.989	38.4
398.198	67.07
398.407	52.74
398.617	-27.14
398.826	48.64
399.035	26.11
399.244	11.78
399.453	46.59
399.663	40.45
399.872	54.78
400.081	38.4
400.29	22.02
400.499	54.78
400.708	73.21
400.917	65.02
401.127	58.88
401.336	5.63
401.545	60.93
401.754	30.21
401.963	36.35
402.172	48.64
402.381	-45.57
402.59	11.78
402.799	83.45
403.008	3.58
403.217	128.51
403.426	69.12
403.635	60.93
403.844	-29.18
404.053	-18.94
404.262	46.59
404.471	34.3
404.68	85.5
404.888	28.16
405.097	7.68
405.306	52.74
405.515	105.98
405.724	36.35
405.933	30.21
406.142	81.41
406.35	75.26
406.559	62.98
406.768	36.35
406.977	87.55
407.185	52.74
407.394	85.5
407.603	40.45
407.812	60.93
408.02	85.5
408.229	3.58
408.438	46.59
408.646	148.99
408.855	89.6
409.064	40.45
409.272	42.5
409.481	46.59
409.69	155.13
409.898	110.08
410.107	140.8
410.315	85.5
410.524	187.9
410.733	167.42
410.941	103.93
411.15	101.89
411.358	112.13
411.567	101.89
411.775	177.66
411.984	198.14
412.192	202.24
412.401	112.13
412.609	118.27
412.818	183.81
413.026	253.44
413.234	167.42
413.443	148.99
413.651	159.23
413.86	153.09
414.068	185.85
414.276	224.76
414.485	208.38
414.693	222.72
414.901	294.4
415.11	200.19
415.318	194.05
415.526	212.48
415.734	257.53
415.943	300.54
416.151	245.24
416.359	345.59
416.567	267.77
416.776	275.96
416.984	278.01
417.192	275.96
417.4	284.16
417.608	265.72
417.817	265.72
418.025	357.88
418.233	339.45
418.441	310.78
418.649	353.79
418.857	456.19
419.065	388.6
419.273	388.6
419.481	413.18
419.689	413.18
419.897	519.67
420.105	470.52
420.313	544.25
420.521	513.53
420.729	447.99
420.937	491
421.145	497.14
421.353	617.97
421.561	620.02
421.769	640.5
421.977	620.02
422.185	622.07
422.393	638.45
422.601	675.32
422.809	703.99
423.017	720.37
423.224	747
423.432	790
423.64	773.62
423.848	943.6
424.056	845.3
424.263	919.03
424.471	845.3
424.679	880.11
424.887	980.47
425.094	968.18
425.302	1062.38
425.51	964.08
425.718	1031.66
425.925	990.7
426.133	1134.06
426.341	1101.3
426.548	1181.17
426.756	1226.22
426.964	1240.56
427.171	1226.22
427.379	1195.5
427.586	1308.14
427.794	1347.05
428.001	1428.97
428.209	1461.74
428.417	1412.59
428.624	1488.36
428.832	1566.18
429.039	1445.35
429.247	1482.22
429.454	1746.41
429.662	1809.89
429.869	1734.12
430.076	1887.72
430.284	1664.49
430.491	1826.28
430.699	1914.34
430.906	2039.26
431.114	1889.76
431.321	2051.55
431.528	2119.14
431.736	2121.18
431.943	2264.54
432.15	2295.26
432.358	2289.12
432.565	2395.61
432.772	2350.56
432.979	2444.76
433.187	2483.67
433.394	2522.59
433.601	2665.94
433.808	2743.77
434.016	2684.38
434.223	2786.77
434.43	2991.57
434.637	2905.56
434.844	3186.13
435.052	3106.26
435.259	3141.07
435.466	3247.57
435.673	3161.55
435.88	3249.61
436.087	3599.82
436.294	3438.03
436.501	3429.84
436.708	3415.5
436.915	3608.01
437.122	3747.27
437.329	3737.03
437.537	3935.68
437.743	3931.59
437.95	3851.72
438.157	3970.5
438.364	4113.86
438.571	4181.44
438.778	4289.98
438.985	4582.84
439.192	4441.53
439.399	4496.83
439.606	4322.75
439.813	4806.07
440.02	5152.18
440.227	4957.62
440.433	4969.91
440.64	5268.91
440.847	5082.55
441.054	5125.55
441.261	5512.62
441.467	5440.94
441.674	5559.72
441.881	5649.83
442.088	5770.66
442.294	5713.32
442.501	5838.25
442.708	5957.03
442.914	6075.81
443.121	6380.96
443.328	6342.05
443.534	6786.46
443.741	6475.17
443.948	6464.93
444.154	7030.16
444.361	6974.87
444.568	6915.48
444.774	6995.35
444.981	7161.23
445.187	7122.32
445.394	7439.76
445.6	7550.35
445.807	8088.96
446.013	7906.7
446.22	7910.79
446.426	8297.86
446.633	8351.1
446.839	8547.71
447.046	8412.54
447.252	8818.04
447.459	8682.88
447.665	8678.78
447.871	9121.14
448.078	9540.97
448.284	8801.66
448.491	9108.85
448.697	9469.3
448.903	9620.85
449.11	9719.15
449.316	9555.31
449.522	9923.94
449.728	10214.76
449.935	10145.13
450.141	10128.74
450.347	10460.51
450.553	10235.24
450.76	10419.55
450.966	10507.62
451.172	10503.52
451.378	10894.68
451.584	10702.17
451.791	10847.58
451.997	10866.01
452.203	10909.02
452.409	10911.07
452.615	11302.23
452.821	10505.57
453.027	10589.53
453.233	10927.45
453.44	10648.93
453.646	10874.2
453.852	10747.23
454.058	11162.97
454.264	10628.45
454.47	10849.63
454.676	10571.1
454.882	11040.09
455.088	10091.88
455.294	10333.54
455.5	10356.07
455.705	10562.91
455.911	10128.74
456.117	9956.71
456.323	9844.07
456.529	9358.71
456.735	9762.16
456.941	9350.51
457.147	9207.16
457.352	9010.55
457.558	8906.1
457.764	8998.26
457.97	8756.6
458.176	8519.04
458.381	8678.78
458.587	8115.59
458.793	8308.1
458.999	7703.95
459.204	8551.81
459.41	8246.66
459.616	7667.08
459.821	7636.36
460.027	7673.23
460.233	7439.76
460.438	7064.98
460.644	7183.76
460.85	6788.5
461.055	6659.48
461.261	6663.58
461.466	6278.56
461.672	6114.72
461.878	6436.25
462.083	5983.65
462.289	5819.82
462.494	5891.49
462.7	5664.17
462.905	5543.34
463.111	5590.44
463.316	5770.66
463.522	5631.4
463.727	5461.42
463.932	5604.78
464.138	5393.84
464.343	5533.1
464.549	5338.54
464.754	5438.89
464.959	5381.55
465.165	5295.54
465.37	5236.14
465.575	5111.22
465.781	5184.94
465.986	5082.55
466.191	5107.12
466.397	4902.33
466.602	4808.12
466.807	4840.89
467.012	4926.9
467.218	5031.35
467.423	4851.13
467.628	4963.76
467.833	5189.04
468.038	4959.67
468.244	4785.59
468.449	4994.48
468.654	4738.49
468.859	4828.6
469.064	4640.19
469.269	4525.5
469.474	4541.88
469.679	4748.73
469.885	4726.2
470.09	4429.24
470.295	4437.44
470.5	4443.58
470.705	4445.63
470.91	4478.4
471.115	4359.61
471.32	4552.12
471.525	4533.69
471.73	4289.98
471.935	4335.04
472.139	4189.63
472.344	4156.86
472.549	4142.53
472.754	4101.57
472.959	4201.92
473.164	3902.92
473.369	3907.01
473.574	4044.23
473.778	3982.79
473.983	3911.11
474.188	3861.96
474.393	3933.64
474.598	3870.15
474.802	3638.73
475.007	3870.15
475.212	3728.84
475.417	3681.74
475.621	3579.34
475.826	3573.19
476.031	3511.75
476.235	3497.42
476.44	3485.13
476.645	3540.43
476.849	3395.02
477.054	3382.73
477.259	3421.64
477.463	3286.48
477.668	3253.71
477.872	3243.47
478.077	3255.76
478.282	3233.23
478.486	3200.46
478.691	3134.93
478.895	3153.36
479.1	3182.03
479.304	3118.54
479.509	3071.44
479.713	3153.36
479.918	3118.54
480.122	3173.84
480.326	3014.1
480.531	3055.06
480.735	3012.05
480.94	2866.64
481.144	3077.59
481.348	2971.09
481.553	2893.27
481.757	2928.08
481.961	2889.17
482.166	2919.89
482.37	2880.98
482.574	2921.94
482.778	2850.26
482.983	3028.43
483.187	2899.41
483.391	2960.85
483.595	2938.32
483.8	2989.52
484.004	2880.98
484.208	2921.94
484.412	2893.27
484.616	2899.41
484.821	2969.04
485.025	3010
485.229	2975.19
485.433	2899.41
485.637	2940.37
485.841	2878.93
486.045	2764.25
486.249	2862.55
486.453	2928.08
486.657	2905.56
486.861	3020.24
487.065	2901.46
487.269	2870.74
487.473	2842.07
487.677	2928.08
487.881	2946.52
488.085	2989.52
488.289	2883.03
488.493	2950.61
488.697	3018.19
488.901	2850.26
489.105	2911.7
489.309	2973.14
489.512	2909.65
489.716	2950.61
489.92	2987.47
490.124	2921.94
490.328	2973.14
490.531	2919.89
490.735	2944.47
490.939	2883.03
491.143	2938.32
491.346	2975.19
491.55	3116.5
491.754	3116.5
491.958	3231.18
492.161	2944.47
492.365	3126.74
492.569	3122.64
492.772	3034.58
492.976	3194.32
493.18	3243.47
493.383	3214.8
493.587	3122.64
493.79	3272.14
493.994	3204.56
494.197	3243.47
494.401	3278.29
494.605	3321.29
494.808	3360.2
495.012	3298.77
495.215	3290.57
495.419	3567.05
495.622	3272.14
495.825	3452.36
496.029	3495.37
496.232	3478.99
496.436	3616.2
496.639	3601.87
496.843	3579.34
497.046	3569.1
497.249	3722.7
497.453	3665.35
497.656	3777.99
497.859	3827.14
498.063	3909.06
498.266	4046.27
498.469	3923.4
498.673	3958.21
498.876	4081.09
499.079	4152.77
499.282	4253.12
499.485	4298.17
499.689	4261.31
499.892	4345.28
500.095	4316.61
500.298	4359.61
500.501	4525.5
500.705	4574.65
500.908	4638.14
501.111	4640.19
501.314	4724.15
501.517	4881.85
501.72	5002.68
501.923	4947.38
502.126	4890.04
502.329	5162.42
502.532	5180.85
502.735	5223.86
502.938	5422.51
503.141	5309.87
503.344	5576.11
503.547	5473.71
503.75	5713.32
503.953	5707.18
504.156	5666.22
504.359	5848.49
504.562	5799.34
504.765	6079.91
504.968	6008.23
505.17	6176.16
505.373	6342.05
505.576	6327.71
505.779	6458.78
505.982	6444.45
506.185	6647.19
506.387	6835.61
506.59	6802.84
506.793	6770.07
506.996	6811.03
507.198	7157.14
507.401	7142.8
507.604	7163.28
507.807	7626.12
508.009	7378.32
508.212	7421.33
508.415	7863.69
508.617	7867.78
508.82	7914.89
509.022	7863.69
509.225	8170.88
509.428	8279.43
509.63	8236.42
509.833	8347.01
510.035	8699.26
510.238	8615.29
510.44	8629.63
510.643	8846.71
510.845	9049.46
511.048	9172.34
511.25	9305.46
511.453	9155.96
511.655	9698.67
511.858	9555.31
512.06	9807.21
512.262	9934.18
512.465	9960.81
512.667	10100.07
512.87	10212.71
513.072	10306.91
513.274	10722.65
513.477	10599.77
513.679	10782.04
513.881	11076.95
514.084	11214.16
514.286	11181.4
514.488	11515.22
514.69	11785.55
514.893	11562.32
515.095	11777.36
515.297	12084.55
515.499	12174.66
515.701	12449.09
515.904	12588.35
516.106	12662.08
516.308	12893.5
516.51	13069.62
516.712	13114.68
516.914	13206.84
517.116	13651.25
517.318	13688.11
517.52	13739.31
517.722	13860.14
517.925	14339.37
518.127	14284.07
518.329	14564.64
518.531	14820.64
518.733	14898.46
518.935	14986.52
519.136	15148.31
519.338	15469.84
519.54	15719.7
519.742	15660.31
519.944	15869.2
520.146	16239.88
520.348	16416.01
520.55	16581.89
520.752	16495.88
520.954	17095.93
521.155	16823.55
521.357	17130.75
521.559	17274.1
521.761	17587.44
521.963	17616.12
522.164	17728.75
522.366	17839.34
522.568	18488.55
522.77	18476.26
522.971	18613.48
523.173	18498.79
523.375	18801.89
523.576	18631.91
523.778	18658.53
523.98	19209.43
524.181	19164.38
524.383	19334.36
524.584	19438.81
524.786	19778.77
524.988	19416.28
525.189	20280.52
525.391	19948.75
525.592	20141.26
525.794	20573.38
525.995	20321.48
526.197	20522.18
526.398	20763.84
526.6	20868.29
526.801	20901.06
527.003	21077.18
527.204	21339.32
527.406	21607.61
527.607	21435.58
527.808	21714.1
528.01	21413.05
528.211	21400.76
528.412	22133.93
528.614	21765.3
528.815	22017.2
529.016	22293.68
529.218	21769.4
529.419	22043.82
529.62	22477.99
529.822	22412.46
530.023	22375.59
530.224	22733.99
530.425	22265
530.626	22260.91
530.828	22482.09
531.029	23153.82
531.23	22733.99
531.431	22531.24
531.632	22912.16
531.833	22973.6
532.035	23039.14
532.236	22949.03
532.437	22869.16
532.638	22942.88
532.839	23028.9
533.04	23348.38
533.241	23082.14
533.442	23168.16
533.643	23108.77
533.844	23340.19
534.045	23039.14
534.246	23252.13
534.447	23452.83
534.648	23125.15
534.849	23549.08
535.05	23522.46
535.251	23655.58
535.451	23587.99
535.652	23571.61
535.853	23522.46
536.054	23882.9
536.255	23508.12
536.456	23458.97
536.657	23839.89
536.857	23567.51
537.058	23512.22
537.259	23962.77
537.46	23624.86
537.66	23440.54
537.861	23661.72
538.062	23657.62
538.263	23858.32
538.463	23647.38
538.664	23491.74
538.865	23542.94
539.065	23743.64
539.266	23532.7
539.466	24048.79
539.667	23440.54
539.868	24022.16
540.068	23596.18
540.269	23344.28
540.469	23903.38
540.67	23618.71
540.87	23708.82
541.071	23829.65
541.271	23891.09
541.472	23628.95
541.672	23485.59
541.873	23870.61
542.073	23528.6
542.274	23835.8
542.474	23762.07
542.675	23616.66
542.875	23653.53
543.075	23784.6
543.276	23489.69
543.476	23913.62
543.676	23391.39
543.877	23772.31
544.077	23936.15
544.277	23753.88
544.478	23784.6
544.678	23612.57
544.878	23757.97
545.078	23936.15
545.279	23776.41
545.479	23592.09
545.679	23860.37
545.879	23635.1
546.079	24079.5
546.28	23960.72
546.48	23575.7
546.68	23592.09
546.88	23899.28
547.08	24126.61
547.28	23671.96
547.48	23458.97
547.68	23800.98
547.88	23389.34
548.081	23702.68
548.281	23848.08
548.481	23809.17
548.681	24001.68
548.881	23583.9
549.081	23927.95
549.28	23635.1
549.48	23950.48
549.68	23680.15
549.88	23983.25
550.08	23641.24
550.28	23753.88
550.48	23788.69
550.68	23954.58
550.88	23547.03
551.08	23825.56
551.279	23602.33
551.479	23688.34
551.679	23587.99
551.879	23762.07
552.079	23686.29
552.278	23710.87
552.478	23661.72
552.678	23874.71
552.878	23925.91
553.077	23497.88
553.277	23553.18
553.477	23682.2
553.676	23602.33
553.876	23610.52
554.076	23446.68
554.275	23282.84
554.475	22992.03
554.674	23561.37
554.874	23348.38
555.074	23516.31
555.273	23643.29
555.473	23626.9
555.672	23358.62
555.872	23401.63
556.071	23452.83
556.271	23469.21
556.47	23381.15
556.67	23413.91
556.869	23063.71
557.068	23037.09
557.268	22965.41
557.467	23221.41
557.667	23024.8
557.866	22863.01
558.065	22889.63
558.265	22856.87
558.464	22658.21
558.663	23307.42
558.863	22551.72
559.062	23006.37
559.261	22637.73
559.461	22578.34
559.66	22408.36
559.859	22893.73
560.058	22670.5
560.258	22643.88
560.457	22570.15
560.656	22641.83
560.855	22441.13
561.054	22500.52
561.253	22523.05
561.453	22363.31
561.652	22375.59
561.851	22246.57
562.05	22367.4
562.249	22084.78
562.448	22582.44
562.647	22107.31
562.846	22084.78
563.045	22248.62
563.244	21949.62
563.443	22465.71
563.642	21879.99
563.841	22101.17
564.04	21779.64
564.239	22236.33
564.438	22029.49
564.637	21818.55
564.836	21757.11
565.035	21664.95
565.234	21787.83
565.432	21632.18
565.631	21900.47
565.83	21599.41
566.029	21560.5
566.228	21486.78
566.427	21394.62
566.625	21390.52
566.824	21419.19
567.023	21304.51
567.222	21288.12
567.42	21425.34
567.619	21343.42
567.818	21099.71
568.016	21185.72
568.215	21101.76
568.414	20894.91
568.612	21040.32
568.811	20845.76
569.01	20458.7
569.208	20784.32
569.407	21005.5
569.605	20442.31
569.804	21003.46
570.002	20368.59
570.201	20507.85
570.4	20378.83
570.598	20055.25
570.797	20182.22
570.995	20151.5
571.193	20163.79
571.392	20231.37
571.59	20104.4
571.789	19885.26
571.987	19973.33
572.186	19815.63
572.384	19864.78
572.582	19668.18
572.781	19659.99
572.979	19242.2
573.177	19526.87
573.376	19666.13
573.574	19367.13
573.772	19281.11
573.971	19039.45
574.169	19176.67
574.367	18867.42
574.565	18963.68
574.763	18975.97
574.962	18945.25
575.16	18826.46
575.358	18879.71
575.556	18672.87
575.754	18926.82
575.952	18650.34
576.151	18687.2
576.349	18386.15
576.547	18431.21
576.745	18306.28
576.943	18281.71
577.141	18189.55
577.339	18201.83
577.537	18117.87
577.735	17831.15
577.933	17974.51
578.131	17911.02
578.329	17786.1
578.527	17765.62
578.725	17771.76
578.923	17609.97
579.121	17591.54
579.319	17859.82
579.516	17448.18
579.714	17394.93
579.912	17306.87
580.11	17294.58
580.308	17448.18
580.506	17310.97
580.704	17345.78
580.901	17018.11
581.099	17188.09
581.297	17036.54
581.495	17132.79
581.692	17183.99
581.89	17165.56
582.088	16966.91
582.285	16874.75
582.483	16850.17
582.681	16479.49
582.878	16766.21
583.076	16426.25
583.274	16395.53
583.471	16256.26
583.669	16227.59
583.866	16239.88
584.064	16336.13
584.262	16205.06
584.459	15975.69
584.657	16219.4
584.854	16100.62
585.052	15895.82
585.249	15987.98
585.447	16243.98
585.644	15756.56
585.841	15633.68
586.039	15979.79
586.236	15650.07
586.434	15660.31
586.631	15559.95
586.828	15750.42
587.026	15467.8
587.223	15666.45
587.42	15201.56
587.618	15265.05
587.815	15111.45
588.012	15158.55
588.21	15289.62
588.407	15252.76
588.604	15027.48
588.801	15191.32
588.999	15066.39
589.196	14855.45
589.393	14855.45
589.59	14941.47
589.787	14718.24
589.984	14699.81
590.182	14660.9
590.379	14822.69
590.576	14691.62
590.773	14404.9
590.97	14271.78
591.167	14636.32
591.364	14495.01
591.561	14429.48
591.758	14484.77
591.955	14398.76
592.152	14386.47
592.349	14077.23
592.546	14306.6
592.743	14308.65
592.94	14134.57
593.137	14103.85
593.334	14058.79
593.531	13866.28
593.727	14019.88
593.924	14038.31
594.121	13806.89
594.318	13770.03
594.515	13462.83
594.712	14013.74
594.908	13612.34
595.105	13688.11
595.302	13536.56
595.499	13649.2
595.696	13473.07
595.892	13534.51
596.089	13489.46
596.286	13464.88
596.482	13352.24
596.679	13428.02
596.876	13399.35
597.072	13190.45
597.269	13307.19
597.466	13096.25
597.662	13043
597.859	13126.97
598.055	13235.51
598.252	13055.29
598.448	12965.18
598.645	13043
598.841	12840.25
599.038	13012.28
599.234	12836.16
599.431	12569.92
599.627	12582.21
599.824	12533.06
600.02	12655.93
600.217	12782.91
600.413	12682.56
600.609	12580.16
600.806	12545.34
601.002	12637.5
601.198	12363.08
601.395	12463.43
601.591	12289.35
601.787	12215.62
601.984	12006.73
602.18	12475.71
602.376	12250.44
602.572	12047.69
602.769	12137.8
602.965	11902.28
603.161	12070.22
603.357	11984.2
603.553	12037.45
603.75	11994.44
603.946	11771.21
604.142	12019.02
604.338	11877.71
604.534	11638.09
604.73	11619.66
604.926	11539.79
605.122	11382.1
605.318	11371.86
605.514	11547.98
605.71	11504.98
605.906	11464.02
606.102	11361.62
606.298	11335
606.494	11597.14
606.69	11296.08
606.886	11384.15
607.082	10919.26
607.278	11025.75
607.474	10857.82
607.67	11048.28
607.866	10972.5
608.062	10880.35
608.257	10855.77
608.453	10876.25
608.649	10747.23
608.845	10890.59
609.041	10771.8
609.236	10771.8
609.432	10765.66
609.628	10440.03
609.824	10614.11
610.019	10569.05
610.215	10511.71
610.411	10542.43
610.606	10450.27
610.802	10181.99
610.998	10499.42
611.193	10249.57
611.389	10317.15
611.584	10216.8
611.78	10210.66
611.976	10161.51
612.171	10007.91
612.367	9969
612.562	9987.43
612.758	9932.14
612.953	9882.99
613.149	10044.77
613.344	9913.7
613.539	9977.19
613.735	9825.64
613.93	9739.63
614.126	9694.57
614.321	9706.86
614.517	9770.35
614.712	9708.91
614.907	9483.63
615.103	9624.94
615.298	9358.71
615.493	9559.41
615.688	9471.34
615.884	9764.2
616.079	9325.94
616.274	9581.93
616.47	9362.8
616.665	9219.44
616.86	9338.23
617.055	9284.98
617.25	9055.61
617.445	9262.45
617.641	9100.66
617.836	9086.33
618.031	8996.21
618.226	9227.64
618.421	8908.15
618.616	9057.65
618.811	8727.93
619.006	8940.92
619.201	8697.21
619.396	8768.89
619.591	8723.83
619.786	8791.42
619.981	8490.37
620.176	8596.86
620.371	8510.85
620.566	8658.3
620.761	8353.15
620.956	8609.15
621.151	8367.49
621.346	8402.3
621.541	8236.42
621.735	8324.48
621.93	8095.11
622.125	8209.79
622.32	8134.02
622.515	8334.72
622.709	8234.37
622.904	7984.52
623.099	7941.51
623.294	7943.56
623.488	7863.69
623.683	7853.45
623.878	7949.7
624.072	7767.43
624.267	7744.91
624.462	7587.21
624.656	7585.16
624.851	7650.7
625.046	7441.81
625.24	7579.02
625.435	7378.32
625.629	7318.93
625.824	7478.67
626.018	7230.87
626.213	7273.87
626.407	7239.06
626.602	7230.87
626.796	7118.23
626.991	7013.78
627.185	7044.5
627.38	7167.38
627.574	6991.25
627.768	6929.81
627.963	6909.33
628.157	6759.83
628.352	7034.26
628.546	6849.94
628.74	6888.85
628.935	6802.84
629.129	6935.96
629.323	6686.11
629.517	6712.73
629.712	6624.67
629.906	6596
630.1	6598.04
630.294	6579.61
630.489	6522.27
630.683	6641.05
630.877	6409.63
631.071	6512.03
631.265	6434.21
631.459	6385.05
631.653	6258.08
631.848	6477.21
632.042	6264.22
632.236	6239.65
632.43	6129.06
632.624	6053.28
632.818	6055.33
633.012	6030.76
633.206	6045.09
633.4	5977.51
633.594	6143.39
633.788	6000.04
633.982	5909.93
634.176	5950.89
634.369	5729.7
634.563	5887.4
634.757	5995.94
634.951	5823.91
635.145	5725.61
635.339	5852.58
635.533	5856.68
635.726	5698.99
635.92	5664.17
636.114	5807.53
636.308	5649.83
636.501	5594.54
636.695	5524.91
636.889	5557.68
637.083	5418.41
637.276	5281.2
637.47	5395.89
637.664	5422.51
637.857	5459.37
638.051	5420.46
638.244	5246.38
638.438	5256.62
638.632	5125.55
638.825	5199.28
639.019	5121.46
639.212	5158.32
639.406	5283.25
639.599	5156.27
639.793	5256.62
639.986	4799.93
640.18	5113.27
640.373	5033.4
640.567	4974
640.76	5074.35
640.954	4844.98
641.147	4933.04
641.34	4791.73
641.534	4724.15
641.727	4808.12
641.92	4765.11
642.114	4685.24
642.307	4617.66
642.5	4611.51
642.694	4578.75
642.887	4529.59
643.08	4529.59
643.273	4656.57
643.467	4433.34
643.66	4548.03
643.853	4386.24
644.046	4353.47
644.239	4431.29
644.432	4242.88
644.626	4296.13
644.819	4296.13
645.012	4347.33
645.205	4359.61
645.398	4189.63
645.591	4062.66
645.784	4206.02
645.977	4105.67
646.17	4111.81
646.363	4093.38
646.556	4046.27
646.749	4005.31
646.942	4005.31
647.135	3976.64
647.328	3943.88
647.521	3917.25
647.714	3890.63
647.907	3960.26
648.099	3749.32
648.292	3859.91
648.485	3890.63
648.678	3747.27
648.871	3702.22
649.064	3876.29
649.256	3720.65
649.449	3546.57
649.642	3517.9
649.835	3722.7
650.027	3565
650.22	3538.38
650.413	3452.36
650.605	3511.75
650.798	3495.37
650.991	3435.98
651.183	3380.68
651.376	3425.74
651.568	3409.36
651.761	3243.47
651.954	3296.72
652.146	3304.91
652.339	3241.42
652.531	3298.77
652.724	3286.48
652.916	3157.46
653.109	3079.63
653.301	3102.16
653.494	3134.93
653.686	3190.22
653.879	3159.5
654.071	3040.72
654.263	3003.86
654.456	2987.47
654.648	2952.66
654.84	2815.45
655.033	3001.81
655.225	2995.67
655.417	2878.93
655.61	2973.14
655.802	2893.27
655.994	2903.51
656.186	2850.26
656.379	2848.21
656.571	2801.11
656.763	2805.21
656.955	2846.16
657.148	2655.7
657.34	2694.61
657.532	2495.96
657.724	2704.85
657.916	2631.13
658.108	2575.83
658.3	2526.68
658.492	2651.61
658.684	2602.46
658.876	2522.59
659.068	2538.97
659.26	2471.39
659.452	2479.58
659.644	2358.75
659.836	2487.77
660.028	2301.4
660.22	2401.76
660.412	2289.12
660.604	2289.12
660.796	2205.15
660.988	2297.31
661.18	2219.49
661.372	2184.67
661.563	2186.72
661.755	2264.54
661.947	2170.33
662.139	2137.57
662.331	2264.54
662.522	2168.29
662.714	2203.1
662.906	2069.98
663.097	2031.07
663.289	2043.36
663.481	2092.51
663.673	2076.13
663.864	2012.64
664.056	2067.94
664.247	1979.87
664.439	2016.74
664.631	1951.2
664.822	1932.77
665.014	1934.82
665.205	1904.1
665.397	1910.24
665.588	1824.23
665.78	1713.64
665.971	1885.67
666.163	1758.69
666.354	1842.66
666.546	1785.32
666.737	1822.18
666.929	1869.28
667.12	1760.74
667.311	1770.98
667.503	1750.5
667.694	1811.94
667.885	1756.65
668.077	1680.87
668.268	1617.38
668.459	1779.17
668.651	1744.36
668.842	1601
669.033	1637.86
669.224	1664.49
669.416	1775.08
669.607	1498.6
669.798	1635.82
669.989	1621.48
670.18	1531.37
670.371	1607.14
670.563	1684.97
670.754	1578.47
670.945	1527.27
671.136	1535.46
671.327	1553.9
671.518	1553.9
671.709	1584.62
671.9	1637.86
672.091	1594.86
672.282	1490.41
672.473	1490.41
672.664	1572.33
672.855	1500.65
673.046	1412.59
673.237	1533.42
673.428	1457.64
673.619	1633.77
673.809	1433.07
674	1543.66
674.191	1453.55
674.382	1478.12
674.573	1486.31
674.764	1459.69
674.954	1480.17
675.145	1510.89
675.336	1398.25
675.527	1437.16
675.717	1484.27
675.908	1420.78
676.099	1426.92
676.289	1439.21
676.48	1396.2
676.671	1474.03
676.861	1437.16
677.052	1437.16
677.243	1422.83
677.433	1467.88
677.624	1428.97
677.814	1504.75
678.005	1420.78
678.195	1308.14
678.386	1357.29
678.576	1365.48
678.767	1326.57
678.957	1355.24
679.148	1398.25
679.338	1496.55
679.529	1365.48
679.719	1369.58
679.909	1359.34
680.1	1336.81
680.29	1408.49
680.481	1451.5
680.671	1486.31
680.861	1398.25
681.052	1347.05
681.242	1347.05
681.432	1385.96
681.622	1422.83
681.813	1332.72
682.003	1293.8
682.193	1340.91
682.383	1418.73
682.573	1437.16
682.764	1447.4
682.954	1416.68
683.144	1428.97
683.334	1291.76
683.524	1463.79
683.714	1394.15
683.904	1392.11
684.094	1408.49
684.284	1426.92
684.474	1500.65
684.664	1402.35
684.854	1433.07
685.044	1316.33
685.234	1420.78
685.424	1383.91
685.614	1385.96
685.804	1349.1
685.994	1324.52
686.184	1494.51
686.374	1328.62
686.564	1256.94
686.753	1457.64
686.943	1377.77
687.133	1484.27
687.323	1557.99
687.513	1478.12
687.702	1285.61
687.892	1492.46
688.082	1330.67
688.272	1342.96
688.461	1332.72
688.651	1404.39
688.841	1431.02
689.03	1455.59
689.22	1457.64
689.41	1408.49
689.599	1349.1
689.789	1342.96
689.979	1441.26
690.168	1304.04
690.358	1396.2
690.547	1379.82
690.737	1426.92
690.926	1420.78
691.116	1412.59
691.305	1453.55
691.495	1471.98
691.684	1412.59
691.874	1406.44
692.063	1541.61
692.252	1506.79
692.442	1465.83
692.631	1447.4
692.82	1461.74
693.01	1512.94
693.199	1463.79
693.388	1412.59
693.578	1539.56
693.767	1474.03
693.956	1502.7
694.146	1461.74
694.335	1463.79
694.524	1502.7
694.713	1529.32
694.902	1467.88
695.092	1521.13
695.281	1521.13
695.47	1463.79
695.659	1512.94
695.848	1502.7
696.037	1512.94
696.226	1553.9
696.415	1428.97
696.604	1443.31
696.793	1445.35
696.982	1590.76
697.171	1578.47
697.36	1562.09
697.549	1478.12
697.738	1461.74
697.927	1525.22
698.116	1560.04
698.305	1684.97
698.494	1463.79
698.683	1523.18
698.872	1500.65
699.061	1529.32
699.25	1525.22
699.438	1551.85
699.627	1574.38
699.816	1631.72
700.005	1580.52
700.193	1584.62
700.382	1652.2
700.571	1547.75
700.76	1566.18
700.948	1699.3
701.137	1582.57
701.326	1596.9
701.514	1572.33
701.703	1601
701.892	1488.36
702.08	1529.32
702.269	1596.9
702.457	1494.51
702.646	1486.31
702.834	1502.7
703.023	1519.08
703.212	1574.38
703.4	1549.8
703.589	1598.95
703.777	1539.56
703.965	1619.43
704.154	1564.14
704.342	1525.22
704.531	1543.66
704.719	1517.03
704.907	1555.94
705.096	1543.66
705.284	1543.66
705.472	1543.66
705.661	1383.91
705.849	1414.63
706.037	1543.66
706.226	1431.02
706.414	1437.16
706.602	1527.27
706.79	1424.87
706.979	1578.47
707.167	1480.17
707.355	1461.74
707.543	1453.55
707.731	1504.75
707.919	1431.02
708.107	1402.35
708.296	1398.25
708.484	1414.63
708.672	1441.26
708.86	1455.59
709.048	1459.69
709.236	1338.86
709.424	1412.59
709.612	1459.69
709.8	1424.87
709.988	1396.2
710.176	1408.49
710.364	1398.25
710.551	1363.44
710.739	1379.82
710.927	1373.68
711.115	1308.14
711.303	1314.28
711.491	1392.11
711.679	1373.68
711.866	1349.1
712.054	1357.29
712.242	1306.09
712.43	1431.02
712.617	1289.71
712.805	1277.42
712.993	1416.68
713.181	1226.22
713.368	1367.53
713.556	1218.03
713.744	1215.98
713.931	1345
714.119	1271.28
714.306	1244.65
714.494	1213.93
714.682	1267.18
714.869	1287.66
715.057	1211.89
715.244	1177.07
715.432	1363.44
715.619	1275.37
715.807	1187.31
715.994	1322.48
716.182	1187.31
716.369	1326.57
716.556	1230.32
716.744	1273.32
716.931	1203.69
717.119	1248.75
717.306	1148.4
717.493	1222.13
717.681	1258.99
717.868	1179.12
718.055	1160.69
718.242	1103.34
718.43	1302
718.617	1191.41
718.804	1091.06
718.991	1140.21
719.179	1129.97
719.366	1189.36
719.553	1105.39
719.74	1125.87
719.927	1117.68
720.114	1199.6
720.301	1160.69
720.488	1199.6
720.676	1111.54
720.863	1052.14
721.05	1168.88
721.237	1127.92
721.424	1043.95
721.611	1175.02
721.798	1109.49
721.985	1170.93
722.172	1064.43
722.358	1013.23
722.545	1093.1
722.732	1002.99
722.919	1097.2
723.106	1140.21
723.293	974.32
723.48	1043.95
723.667	970.23
723.853	1052.14
724.04	1050.1
724.227	1089.01
724.414	1027.57
724.6	953.84
724.787	1072.62
724.974	998.9
725.161	1052.14
725.347	929.27
725.534	949.75
725.72	1000.94
725.907	1052.14
726.094	1027.57
726.28	982.51
726.467	945.65
726.653	959.99
726.84	994.8
727.027	902.64
727.213	943.6
727.4	1035.76
727.586	919.03
727.773	1011.18
727.959	984.56
728.145	880.11
728.332	986.61
728.518	964.08
728.705	945.65
728.891	988.66
729.077	947.7
729.264	878.07
729.45	925.17
729.636	923.12
729.823	951.79
730.009	1000.94
730.195	925.17
730.382	876.02
730.568	951.79
730.754	921.07
730.94	841.2
731.126	923.12
731.313	847.35
731.499	933.36
731.685	886.26
731.871	914.93
732.057	857.59
732.243	873.97
732.429	841.2
732.615	929.27
732.801	884.21
732.987	968.18
733.173	886.26
733.359	845.3
733.545	849.4
733.731	830.96
733.917	806.39
734.103	845.3
734.289	857.59
734.475	855.54
734.661	839.16
734.847	853.49
735.033	814.58
735.219	871.92
735.404	775.67
735.59	835.06
735.776	835.06
735.962	775.67
736.148	833.01
736.333	814.58
736.519	802.29
736.705	775.67
736.89	806.39
737.076	785.91
737.262	773.62
737.447	771.57
737.633	804.34
737.819	802.29
738.004	757.24
738.19	701.94
738.375	794.1
738.561	798.2
738.747	775.67
738.932	783.86
739.118	710.13
739.303	785.91
739.489	800.24
739.674	755.19
739.859	781.81
740.045	697.85
740.23	706.04
740.416	718.33
740.601	720.37
740.786	718.33
740.972	716.28
741.157	710.13
741.342	728.56
741.528	685.56
741.713	722.42
741.898	691.7
742.084	683.51
742.269	726.52
742.454	654.84
742.639	742.9
742.824	617.97
743.01	685.56
743.195	751.09
743.38	699.89
743.565	656.89
743.75	669.17
743.935	708.09
744.12	701.94
744.305	695.8
744.49	603.64
744.675	630.26
744.86	585.21
745.045	626.17
745.23	603.64
745.415	669.17
745.6	671.22
745.785	626.17
745.97	642.55
746.155	617.97
746.34	628.21
746.525	558.58
746.71	648.69
746.895	603.64
747.079	536.06
747.264	593.4
747.449	603.64
747.634	503.29
747.819	550.39
748.003	546.3
748.188	597.49
748.373	527.86
748.557	609.78
748.742	636.41
748.927	564.73
749.111	556.54
749.296	568.82
749.481	546.3
749.665	493.05
749.85	531.96
750.034	568.82
750.219	564.73
750.404	439.8
750.588	589.3
750.773	425.47
750.957	495.1
751.141	538.1
751.326	560.63
751.51	509.43
751.695	499.19
751.879	482.81
752.064	542.2
752.248	517.62
752.432	523.77
752.617	464.38
752.801	548.34
752.985	507.38
753.17	538.1
753.354	499.19
753.538	462.33
753.722	423.42
753.907	429.56
754.091	443.9
754.275	472.57
754.459	421.37
754.643	433.66
754.828	380.41
755.012	515.58
755.196	411.13
755.38	396.79
755.564	456.19
755.748	470.52
755.932	456.19
756.116	411.13
756.3	366.07
756.484	388.6
756.668	466.42
756.852	536.06
757.036	425.47
757.22	425.47
757.404	380.41
757.588	378.36
757.772	349.69
757.956	329.21
758.14	323.07
758.323	425.47
758.507	415.23
758.691	445.95
758.875	347.64
759.059	376.31
759.242	396.79
759.426	445.95
759.61	392.7
759.794	294.4
759.977	355.83
760.161	435.71
760.345	437.75
760.528	417.27
760.712	437.75
760.895	417.27
761.079	388.6
761.263	329.21
761.446	331.26
761.63	382.46
761.813	364.03
761.997	413.18
762.18	323.07
762.364	396.79
762.547	323.07
762.731	376.31
762.914	339.45
763.098	327.16
763.281	392.7
763.464	388.6
763.648	337.4
763.831	271.87
764.015	314.88
764.198	331.26
764.381	314.88
764.564	310.78
764.748	314.88
764.931	388.6
765.114	284.16
765.297	345.59
765.481	351.74
765.664	286.2
765.847	337.4
766.03	415.23
766.213	341.5
766.397	337.4
766.58	302.59
766.763	374.27
766.946	259.58
767.129	298.49
767.312	404.99
767.495	253.44
767.678	331.26
767.861	355.83
768.044	306.68
768.227	251.39
768.41	368.12
768.593	282.11
768.776	417.27
768.959	275.96
769.142	329.21
769.324	265.72
769.507	308.73
769.69	404.99
769.873	257.53
770.056	296.44
770.239	288.25
770.421	331.26
770.604	390.65
770.787	306.68
770.97	421.37
771.152	312.83
771.335	228.86
771.518	259.58
771.7	249.34
771.883	286.2
772.066	306.68
772.248	271.87
772.431	304.64
772.613	343.55
772.796	304.64
772.978	280.06
773.161	335.35
773.343	278.01
773.526	325.12
773.708	280.06
773.891	275.96
774.073	292.35
774.256	210.43
774.438	298.49
774.621	316.92
774.803	341.5
774.985	247.29
775.168	341.5
775.35	243.2
775.532	294.4
775.715	273.92
775.897	269.82
776.079	280.06
776.261	255.48
776.444	163.33
776.626	243.2
776.808	284.16
776.99	230.91
777.173	235
777.355	253.44
777.537	212.48
777.719	275.96
777.901	210.43
778.083	214.52
778.265	171.52
778.447	263.68
778.629	224.76
778.811	263.68
778.993	210.43
779.175	118.27
779.357	271.87
779.539	294.4
779.721	251.39
779.903	194.05
780.085	208.38
780.267	306.68
780.449	179.71
780.631	200.19
780.812	187.9
780.994	179.71
781.176	284.16
781.358	212.48
781.54	118.27
781.721	290.3
781.903	265.72
782.085	198.14
782.267	204.28
782.448	169.47
782.63	138.75
782.812	187.9
782.993	228.86
783.175	194.05
783.357	220.67
783.538	235
783.72	220.67
783.901	192
784.083	181.76
784.264	194.05
784.446	134.65
784.627	153.09
784.809	163.33
784.99	120.32
785.172	130.56
785.353	136.7
785.535	183.81
785.716	101.89
785.897	122.37
786.079	189.95
786.26	136.7
786.441	200.19
786.623	151.04
786.804	132.61
786.985	128.51
787.167	148.99
787.348	198.14
787.529	120.32
787.71	175.61
787.891	159.23
788.073	185.85
788.254	171.52
788.435	140.8
788.616	210.43
788.797	120.32
788.978	208.38
789.159	93.69
789.34	161.28
789.522	185.85
789.703	85.5
789.884	116.22
790.065	93.69
790.246	171.52
790.427	134.65
790.607	159.23
790.788	134.65
790.969	108.03
791.15	118.27
791.331	103.93
791.512	130.56
791.693	120.32
791.874	173.57
792.054	122.37
792.235	153.09
792.416	101.89
792.597	101.89
792.778	108.03
792.958	124.41
793.139	89.6
793.32	134.65
793.5	77.31
793.681	136.7
793.862	87.55
794.042	120.32
794.223	40.45
794.404	69.12
794.584	67.07
794.765	134.65
794.945	85.5
795.126	122.37
795.306	65.02
795.487	73.21
795.667	128.51
795.848	140.8
796.028	132.61
796.209	110.08
796.389	73.21
796.57	54.78
796.75	114.17
796.93	134.65
797.111	69.12
797.291	54.78
797.471	116.22
797.652	95.74
797.832	71.17
798.012	30.21
798.192	87.55
798.373	118.27
798.553	40.45
798.733	124.41
798.913	114.17
799.093	105.98
799.274	112.13
799.454	89.6
799.634	118.27
799.814	48.64
799.994	116.22
800.174	126.46
800.354	71.17
800.534	134.65
800.714	116.22
800.894	44.54
801.074	15.87
801.254	60.93
801.434	77.31
801.614	65.02
801.794	42.5
801.974	331.26
802.154	48.64
802.334	77.31
802.514	144.89
802.693	89.6
802.873	15.87
803.053	122.37
803.233	81.41
803.413	77.31
803.592	22.02
803.772	54.78
803.952	40.45
804.131	83.45
804.311	28.16
804.491	34.3
804.67	38.4
804.85	75.26
805.03	112.13
805.209	71.17
805.389	46.59
805.568	62.98
805.748	60.93
805.928	58.88
806.107	89.6
806.287	62.98
806.466	114.17
806.646	40.45
806.825	58.88
807.004	77.31
807.184	65.02
807.363	142.85
807.543	24.06
807.722	62.98
807.901	153.09
808.081	95.74
808.26	93.69
808.439	79.36
808.619	52.74
808.798	42.5
808.977	65.02
809.156	108.03
809.336	65.02
809.515	69.12
809.694	93.69
809.873	101.89
810.052	19.97
810.231	146.94
810.411	87.55
810.59	91.65
810.769	52.74
810.948	15.87
811.127	85.5
811.306	15.87
811.485	99.84
811.664	50.69
811.843	67.07
812.022	105.98
812.201	40.45
812.38	138.75
812.559	22.02
812.737	112.13
812.916	83.45
813.095	11.78
813.274	26.11
813.453	50.69
813.632	112.13
813.811	83.45
813.989	56.83
814.168	40.45
814.347	85.5
814.526	138.75
814.704	69.12
814.883	120.32
815.062	15.87
815.24	105.98
815.419	60.93
815.598	52.74
815.776	-6.66
815.955	67.07
816.133	36.35
816.312	58.88
816.49	126.46
816.669	-37.38
816.847	52.74
817.026	65.02
817.204	32.26
817.383	77.31
817.561	83.45
817.74	60.93
817.918	56.83
818.097	40.45
818.275	110.08
818.453	-2.56
818.632	52.74
818.81	65.02
818.988	65.02
819.167	-20.99
819.345	13.82
819.523	38.4
819.701	13.82
819.879	69.12
820.058	-10.75
820.236	62.98
820.414	69.12
820.592	65.02
820.77	79.36
820.948	36.35
821.127	77.31
821.305	56.83
821.483	36.35
821.661	67.07
821.839	30.21
822.017	101.89
822.195	30.21
822.373	52.74
822.551	17.92
822.729	40.45
822.907	65.02
823.085	40.45
823.262	99.84
823.44	77.31
823.618	34.3
823.796	48.64
823.974	40.45
824.152	97.79
824.329	83.45
824.507	44.54
824.685	58.88
824.863	19.97
825.04	9.73
825.218	56.83
825.396	-57.86
825.574	77.31
825.751	-39.42
825.929	101.89
826.107	-10.75
826.284	38.4
826.462	54.78
826.639	112.13
826.817	-20.99
826.994	132.61
827.172	42.5
827.349	75.26
827.527	95.74
827.704	54.78
827.882	69.12
828.059	26.11
828.237	44.54
828.414	50.69
828.591	11.78
828.769	65.02
828.946	52.74
829.124	52.74
829.301	89.6
829.478	62.98
829.655	26.11
829.833	-18.94
830.01	77.31
830.187	-10.75
830.364	-33.28
830.542	62.98
830.719	52.74
830.896	67.07
831.073	97.79
831.25	81.41
831.427	32.26
831.604	42.5
831.782	5.63
831.959	54.78
832.136	71.17
832.313	99.84
832.49	24.06
832.667	38.4
832.844	28.16
833.021	48.64
833.198	54.78
833.374	24.06
833.551	-74.24
833.728	-4.61
833.905	50.69
834.082	40.45
834.259	-0.51
834.436	93.69
834.612	44.54
834.789	22.02
834.966	44.54
835.143	60.93
835.319	-20.99
835.496	7.68
835.673	85.5
835.85	52.74
836.026	-66.05
836.203	-4.61
836.38	13.82
836.556	15.87
836.733	11.78
836.909	38.4
837.086	-10.75
837.262	-16.9
837.439	52.74
837.616	-6.66
837.792	-8.7
837.968	5.63
838.145	62.98
838.321	-18.94
838.498	7.68
838.674	67.07
838.851	3.58
839.027	69.12
839.203	93.69
839.38	30.21
839.556	42.5
839.732	48.64
839.909	24.06
840.085	28.16
840.261	44.54
840.437	93.69
840.614	5.63
840.79	-47.62
840.966	11.78
841.142	44.54
841.318	52.74
841.494	-18.94
841.671	-57.86
841.847	5.63
842.023	7.68
842.199	-20.99
842.375	40.45
842.551	-0.51
842.727	-35.33
842.903	62.98
843.079	69.12
843.255	13.82
843.431	-2.56
843.607	-18.94
843.783	36.35
843.959	13.82
844.134	-23.04
844.31	-18.94
844.486	-2.56
844.662	-61.95
844.838	40.45
845.013	30.21
845.189	32.26
845.365	54.78
845.541	50.69
845.716	54.78
845.892	-0.51
846.068	46.59
846.244	-23.04
846.419	-8.7
846.595	-43.52
846.77	26.11
846.946	19.97
847.122	-16.9
847.297	48.64
847.473	22.02
847.648	40.45
847.824	7.68
847.999	36.35
848.175	32.26
848.35	42.5
848.526	71.17
848.701	13.82
848.876	52.74
849.052	60.93
849.227	69.12
849.403	60.93
849.578	13.82
849.753	13.82
849.929	13.82
850.104	-23.04
850.279	60.93
850.454	-16.9
850.63	28.16
850.805	-53.76
850.98	58.88
851.155	5.63
851.33	73.21
851.505	5.63
851.681	36.35
851.856	-37.38
852.031	101.89
852.206	-6.66
852.381	-10.75
852.556	9.73
852.731	3.58
852.906	-25.09
853.081	60.93
853.256	-41.47
853.431	38.4
853.606	38.4
853.781	-23.04
853.956	3.58
854.131	5.63
854.305	-41.47
854.48	-2.56
854.655	36.35
854.83	99.84
855.005	42.5
855.18	38.4
855.354	17.92
855.529	-23.04
855.704	24.06
855.879	24.06
856.053	9.73
856.228	46.59
856.403	5.63
856.577	-80.38
856.752	-33.28
856.926	-51.71
857.101	32.26
857.276	-12.8
857.45	-16.9
857.625	-18.94
857.799	42.5
857.974	30.21
858.148	-2.56
858.323	-6.66
858.497	-0.51
858.672	42.5
858.846	36.35
859.02	50.69
859.195	56.83
859.369	-0.51
859.543	40.45
859.718	-6.66
859.892	-31.23
860.066	48.64
860.241	22.02
860.415	34.3
860.589	17.92
860.763	42.5
860.938	-10.75
861.112	-16.9
861.286	1.54
861.46	26.11
861.634	22.02
861.808	15.87
861.982	19.97
862.157	-18.94
862.331	-43.52
862.505	-47.62
862.679	-43.52
862.853	19.97
863.027	-18.94
863.201	3.58
863.375	-4.61
863.549	-14.85
863.722	7.68
863.896	62.98
864.07	11.78
864.244	50.69
864.418	65.02
864.592	11.78
864.766	-76.29
864.939	-20.99
865.113	3.58
865.287	-2.56
865.461	-90.62
865.634	9.73
865.808	5.63
865.982	-18.94
866.156	-18.94
866.329	-10.75
866.503	7.68
866.676	46.59
866.85	58.88
867.024	-29.18
867.197	-18.94
867.371	48.64
867.544	24.06
867.718	-45.57
867.891	50.69
868.065	-6.66
868.238	-35.33
868.412	19.97
868.585	48.64
868.759	-10.75
868.932	-16.9
869.105	32.26
869.279	69.12
869.452	46.59
869.625	-53.76
869.799	56.83
869.972	-20.99
870.145	22.02
870.319	22.02
870.492	-47.62
870.665	-12.8
870.838	110.08
871.011	7.68
871.185	24.06
871.358	-33.28
871.531	11.78
871.704	19.97
871.877	24.06
872.05	28.16
872.223	19.97
872.396	3.58
872.569	30.21
872.742	30.21
872.915	54.78
873.088	26.11
873.261	-53.76
873.434	32.26
873.607	17.92
873.78	-20.99
873.953	11.78
874.126	-18.94
874.299	11.78
874.471	-31.23
874.644	3.58
874.817	54.78
874.99	3.58
875.163	-4.61
875.335	-45.57
875.508	7.68
875.681	60.93
875.853	-18.94
876.026	-14.85
876.199	-4.61
876.371	34.3
876.544	11.78
876.717	79.36
876.889	-37.38
877.062	48.64
877.234	28.16
877.407	22.02
877.579	44.54
877.752	-59.9
877.924	77.31
878.097	-18.94
878.269	-41.47
878.442	77.31
878.614	36.35
878.786	22.02
878.959	83.45
879.131	-41.47
879.303	-45.57
879.476	36.35
879.648	69.12
879.82	44.54
879.993	30.21
880.165	15.87
880.337	-51.71
880.509	44.54
880.681	38.4
880.854	-4.61
881.026	-2.56
881.198	-6.66
881.37	19.97
881.542	95.74
881.714	-76.29
881.886	-12.8
882.058	15.87
882.23	30.21
882.402	-18.94
882.574	-4.61
882.746	-25.09
882.918	36.35
883.09	-12.8
883.262	28.16
883.434	17.92
883.606	50.69
883.778	34.3
883.95	19.97
884.122	-14.85
884.293	77.31
884.465	48.64
884.637	-10.75
884.809	-37.38
884.98	30.21
885.152	44.54
885.324	-4.61
885.496	-10.75
885.667	-8.7
885.839	-47.62
886.011	48.64
886.182	7.68
886.354	-6.66
886.525	26.11
886.697	24.06
886.869	-29.18
887.04	-23.04
887.212	32.26
887.383	73.21
887.555	3.58
887.726	26.11
887.897	-20.99
888.069	-14.85
888.24	7.68
888.412	11.78
888.583	-66.05
888.754	-2.56
888.926	-29.18
889.097	48.64
889.268	-33.28
889.44	1.54
889.611	-45.57
889.782	32.26
889.953	11.78
890.125	71.17
890.296	-20.99
890.467	5.63
890.638	15.87
890.809	-33.28
890.98	26.11
891.151	26.11
891.323	-18.94
891.494	99.84
891.665	-6.66
891.836	-6.66
892.007	9.73
892.178	15.87
892.349	-8.7
892.52	-49.66
892.691	-16.9
892.862	3.58
893.032	-10.75
893.203	36.35
893.374	5.63
893.545	28.16
893.716	13.82
893.887	85.5
894.057	-59.9
894.228	-29.18
894.399	-39.42
894.57	-29.18
894.74	-4.61
894.911	15.87
895.082	-14.85
895.253	38.4
895.423	-86.53
895.594	-78.33
895.764	38.4
895.935	-82.43
896.106	38.4
896.276	54.78
896.447	30.21
896.617	17.92
896.788	40.45
896.958	36.35
897.129	-16.9
897.299	-0.51
897.47	28.16
897.64	42.5
897.81	-51.71
897.981	17.92
898.151	26.11
898.322	67.07
898.492	44.54
898.662	-16.9
898.832	-27.14
899.003	-23.04
899.173	13.82
899.343	-39.42
899.513	-98.81
