Data from USB4F104151__266__14-01-59-161.txt Node

Date: Thu Mar 13 14:01:59 EDT 2025
User: louis
Spectrometer: USB4F10415
Trigger mode: 4
Integration Time (sec): 1.000000E-2
Scans to average: 1
Electric dark correction enabled: true
Nonlinearity correction enabled: false
Boxcar width: 0
XAxis mode: Wavelengths
Number of Pixels in Spectrum: 3648
>>>>>Begin Spectral Data<<<<<
178.204	-45.23
178.424	-45.23
178.644	-45.23
178.864	-84.14
179.084	-22.7
179.304	18.26
179.524	-6.31
179.744	14.17
179.964	26.45
180.184	-18.6
180.404	36.69
180.624	28.5
180.844	-22.7
181.064	-53.42
181.283	-39.08
181.503	-24.75
181.723	40.79
181.943	-6.31
182.163	79.7
182.383	28.5
182.602	18.26
182.822	5.97
183.042	28.5
183.262	-34.99
183.482	-0.17
183.701	38.74
183.921	20.31
184.141	-24.75
184.361	20.31
184.58	67.41
184.8	71.51
185.02	16.21
185.239	87.89
185.459	-22.7
185.679	153.43
185.898	-12.46
186.118	10.07
186.338	20.31
186.557	-8.36
186.777	-18.6
186.997	38.74
187.216	38.74
187.436	59.22
187.655	34.64
187.875	-61.61
188.095	-71.85
188.314	-2.22
188.534	5.97
188.753	18.26
188.973	44.88
189.192	1.88
189.412	34.64
189.631	5.97
189.851	71.51
190.07	71.51
190.29	24.4
190.509	1.88
190.729	42.84
190.948	63.32
191.168	12.12
191.387	42.84
191.607	67.41
191.826	-24.75
192.045	44.88
192.265	5.97
192.484	-10.41
192.704	102.23
192.923	-2.22
193.142	34.64
193.362	26.45
193.581	34.64
193.8	-37.03
194.02	48.98
194.239	-26.79
194.458	36.69
194.678	18.26
194.897	12.12
195.116	53.08
195.335	106.32
195.555	124.76
195.774	-6.31
195.993	3.93
196.212	14.17
196.432	30.55
196.651	44.88
196.87	36.69
197.089	14.17
197.308	104.28
197.528	42.84
197.747	-6.31
197.966	26.45
198.185	-4.27
198.404	40.79
198.623	-10.41
198.842	-22.7
199.062	26.45
199.281	-20.65
199.5	-4.27
199.719	67.41
199.938	5.97
200.157	100.18
200.376	40.79
200.595	-14.51
200.814	30.55
201.033	-12.46
201.252	91.99
201.471	69.46
201.69	-2.22
201.909	34.64
202.128	5.97
202.347	51.03
202.566	18.26
202.785	3.93
203.004	-14.51
203.223	112.47
203.442	77.65
203.661	-2.22
203.879	42.84
204.098	26.45
204.317	24.4
204.536	42.84
204.755	20.31
204.974	42.84
205.193	53.08
205.411	22.36
205.63	34.64
205.849	10.07
206.068	14.17
206.287	10.07
206.505	42.84
206.724	-26.79
206.943	46.93
207.162	124.76
207.381	46.93
207.599	55.12
207.818	-16.55
208.037	26.45
208.255	53.08
208.474	38.74
208.693	-51.37
208.911	112.47
209.13	18.26
209.349	75.6
209.567	38.74
209.786	28.5
210.005	3.93
210.223	-14.51
210.442	-10.41
210.661	20.31
210.879	20.31
211.098	40.79
211.316	-47.27
211.535	75.6
211.753	-45.23
211.972	55.12
212.191	61.27
212.409	26.45
212.628	-34.99
212.846	26.45
213.065	1.88
213.283	44.88
213.502	-2.22
213.72	46.93
213.938	59.22
214.157	36.69
214.375	-30.89
214.594	-59.56
214.812	-10.41
215.031	42.84
215.249	26.45
215.467	44.88
215.686	16.21
215.904	16.21
216.122	57.17
216.341	48.98
216.559	38.74
216.778	-10.41
216.996	51.03
217.214	20.31
217.432	3.93
217.651	3.93
217.869	18.26
218.087	-22.7
218.306	20.31
218.524	-4.27
218.742	20.31
218.96	75.6
219.179	149.33
219.397	5.97
219.615	91.99
219.833	75.6
220.051	28.5
220.27	-12.46
220.488	75.6
220.706	59.22
220.924	32.6
221.142	26.45
221.36	14.17
221.578	53.08
221.796	-4.27
222.015	-0.17
222.233	20.31
222.451	-4.27
222.669	55.12
222.887	34.64
223.105	5.97
223.323	28.5
223.541	34.64
223.759	1.88
223.977	67.41
224.195	34.64
224.413	32.6
224.631	3.93
224.849	-8.36
225.067	79.7
225.285	-4.27
225.503	12.12
225.721	1.88
225.939	71.51
226.157	73.56
226.375	83.8
226.592	-4.27
226.81	14.17
227.028	16.21
227.246	83.8
227.464	32.6
227.682	26.45
227.9	71.51
228.117	-14.51
228.335	-14.51
228.553	48.98
228.771	-12.46
228.989	-22.7
229.206	30.55
229.424	61.27
229.642	-10.41
229.86	10.07
230.077	63.32
230.295	-4.27
230.513	53.08
230.731	110.42
230.948	36.69
231.166	26.45
231.384	51.03
231.601	44.88
231.819	87.89
232.037	46.93
232.254	38.74
232.472	-12.46
232.689	-20.65
232.907	104.28
233.125	100.18
233.342	18.26
233.56	-10.41
233.777	3.93
233.995	-30.89
234.213	77.65
234.43	8.02
234.648	-47.27
234.865	-12.46
235.083	67.41
235.3	8.02
235.518	46.93
235.735	8.02
235.953	14.17
236.17	79.7
236.388	42.84
236.605	-22.7
236.822	36.69
237.04	44.88
237.257	81.75
237.475	51.03
237.692	36.69
237.909	5.97
238.127	20.31
238.344	14.17
238.562	26.45
238.779	-63.66
238.996	10.07
239.214	22.36
239.431	24.4
239.648	63.32
239.865	18.26
240.083	67.41
240.3	83.8
240.517	36.69
240.735	12.12
240.952	24.4
241.169	3.93
241.386	-28.84
241.603	-14.51
241.821	53.08
242.038	-14.51
242.255	-18.6
242.472	-112.81
242.689	51.03
242.907	126.8
243.124	28.5
243.341	-14.51
243.558	-12.46
243.775	1.88
243.992	-26.79
244.209	48.98
244.426	-8.36
244.643	126.8
244.86	-96.43
245.078	20.31
245.295	30.55
245.512	36.69
245.729	36.69
245.946	-71.85
246.163	63.32
246.38	67.41
246.597	32.6
246.814	-22.7
247.031	26.45
247.248	91.99
247.464	14.17
247.681	83.8
247.898	42.84
248.115	120.66
248.332	-55.47
248.549	30.55
248.766	61.27
248.983	38.74
249.2	53.08
249.417	55.12
249.633	30.55
249.85	18.26
250.067	24.4
250.284	18.26
250.501	28.5
250.717	53.08
250.934	73.56
251.151	5.97
251.368	-16.55
251.585	116.56
251.801	3.93
252.018	40.79
252.235	-18.6
252.451	79.7
252.668	-10.41
252.885	26.45
253.102	3.93
253.318	98.13
253.535	75.6
253.752	51.03
253.968	22.36
254.185	55.12
254.401	65.36
254.618	8.02
254.835	-45.23
255.051	26.45
255.268	132.95
255.484	65.36
255.701	-10.41
255.917	44.88
256.134	34.64
256.351	-30.89
256.567	18.26
256.784	12.12
257	-53.42
257.217	22.36
257.433	59.22
257.65	-22.7
257.866	-10.41
258.082	89.94
258.299	40.79
258.515	44.88
258.732	-6.31
258.948	26.45
259.165	61.27
259.381	-37.03
259.597	67.41
259.814	85.84
260.03	65.36
260.246	-12.46
260.463	18.26
260.679	-26.79
260.895	55.12
261.112	73.56
261.328	67.41
261.544	18.26
261.761	44.88
261.977	42.84
262.193	1.88
262.409	51.03
262.626	12.12
262.842	87.89
263.058	-51.37
263.274	16.21
263.49	1.88
263.707	34.64
263.923	104.28
264.139	8.02
264.355	34.64
264.571	14.17
264.787	28.5
265.004	34.64
265.22	104.28
265.436	1.88
265.652	5.97
265.868	28.5
266.084	-10.41
266.3	28.5
266.516	-2.22
266.732	18.26
266.948	-37.03
267.164	26.45
267.38	-20.65
267.596	34.64
267.812	-6.31
268.028	87.89
268.244	12.12
268.46	53.08
268.676	30.55
268.892	75.6
269.108	57.17
269.324	12.12
269.54	36.69
269.756	65.36
269.972	59.22
270.188	38.74
270.403	63.32
270.619	22.36
270.835	18.26
271.051	28.5
271.267	-12.46
271.483	22.36
271.698	42.84
271.914	-2.22
272.13	-10.41
272.346	-59.56
272.562	55.12
272.777	36.69
272.993	77.65
273.209	18.26
273.425	14.17
273.64	-2.22
273.856	53.08
274.072	18.26
274.287	-39.08
274.503	32.6
274.719	-14.51
274.934	51.03
275.15	-20.65
275.366	10.07
275.581	-32.94
275.797	87.89
276.012	59.22
276.228	-39.08
276.444	34.64
276.659	8.02
276.875	48.98
277.09	87.89
277.306	73.56
277.521	75.6
277.737	89.94
277.952	40.79
278.168	59.22
278.383	89.94
278.599	24.4
278.814	22.36
279.03	10.07
279.245	51.03
279.461	-4.27
279.676	65.36
279.892	26.45
280.107	57.17
280.322	18.26
280.538	38.74
280.753	22.36
280.969	26.45
281.184	34.64
281.399	51.03
281.615	-24.75
281.83	34.64
282.045	20.31
282.26	128.85
282.476	51.03
282.691	83.8
282.906	-0.17
283.122	-4.27
283.337	34.64
283.552	100.18
283.767	-34.99
283.983	51.03
284.198	12.12
284.413	-20.65
284.628	-12.46
284.843	1.88
285.058	-14.51
285.274	44.88
285.489	36.69
285.704	69.46
285.919	10.07
286.134	-4.27
286.349	-20.65
286.564	10.07
286.779	53.08
286.995	-0.17
287.21	-26.79
287.425	98.13
287.64	38.74
287.855	36.69
288.07	79.7
288.285	-4.27
288.5	1.88
288.715	3.93
288.93	32.6
289.145	10.07
289.36	12.12
289.575	18.26
289.79	10.07
290.004	-39.08
290.219	24.4
290.434	-18.6
290.649	-14.51
290.864	-16.55
291.079	40.79
291.294	69.46
291.509	42.84
291.724	53.08
291.938	-26.79
292.153	30.55
292.368	12.12
292.583	32.6
292.798	-53.42
293.012	44.88
293.227	30.55
293.442	-2.22
293.657	71.51
293.871	55.12
294.086	10.07
294.301	42.84
294.516	16.21
294.73	3.93
294.945	-2.22
295.16	26.45
295.374	10.07
295.589	77.65
295.804	26.45
296.018	55.12
296.233	20.31
296.447	55.12
296.662	5.97
296.877	38.74
297.091	55.12
297.306	26.45
297.52	10.07
297.735	-10.41
297.949	42.84
298.164	20.31
298.378	53.08
298.593	71.51
298.807	14.17
299.022	79.7
299.236	42.84
299.451	77.65
299.665	22.36
299.88	61.27
300.094	20.31
300.309	26.45
300.523	81.75
300.737	26.45
300.952	18.26
301.166	44.88
301.381	-4.27
301.595	28.5
301.809	16.21
302.024	87.89
302.238	30.55
302.452	98.13
302.667	51.03
302.881	28.5
303.095	-28.84
303.309	46.93
303.524	104.28
303.738	59.22
303.952	38.74
304.166	85.84
304.381	12.12
304.595	65.36
304.809	44.88
305.023	132.95
305.237	-32.94
305.452	71.51
305.666	67.41
305.88	94.04
306.094	73.56
306.308	40.79
306.522	73.56
306.736	42.84
306.95	42.84
307.164	-4.27
307.379	24.4
307.593	-22.7
307.807	102.23
308.021	26.45
308.235	34.64
308.449	-2.22
308.663	44.88
308.877	130.9
309.091	20.31
309.305	69.46
309.519	-16.55
309.733	10.07
309.947	42.84
310.161	42.84
310.374	26.45
310.588	67.41
310.802	32.6
311.016	42.84
311.23	-34.99
311.444	112.47
311.658	5.97
311.872	108.37
312.085	44.88
312.299	108.37
312.513	18.26
312.727	-6.31
312.941	-4.27
313.154	44.88
313.368	67.41
313.582	10.07
313.796	3.93
314.009	34.64
314.223	71.51
314.437	18.26
314.651	59.22
314.864	20.31
315.078	-24.75
315.292	38.74
315.505	59.22
315.719	67.41
315.933	75.6
316.146	-28.84
316.36	-2.22
316.573	16.21
316.787	32.6
317.001	145.24
317.214	10.07
317.428	46.93
317.641	-37.03
317.855	12.12
318.068	22.36
318.282	3.93
318.495	18.26
318.709	110.42
318.922	67.41
319.136	42.84
319.349	12.12
319.563	75.6
319.776	81.75
319.99	-37.03
320.203	-2.22
320.417	38.74
320.63	38.74
320.843	55.12
321.057	71.51
321.27	10.07
321.483	46.93
321.697	71.51
321.91	59.22
322.124	57.17
322.337	24.4
322.55	61.27
322.763	124.76
322.977	69.46
323.19	-39.08
323.403	79.7
323.617	5.97
323.83	40.79
324.043	-47.27
324.256	26.45
324.469	10.07
324.683	75.6
324.896	51.03
325.109	55.12
325.322	42.84
325.535	85.84
325.748	55.12
325.962	34.64
326.175	42.84
326.388	28.5
326.601	-2.22
326.814	-20.65
327.027	51.03
327.24	1.88
327.453	12.12
327.666	18.26
327.879	81.75
328.092	-63.66
328.305	26.45
328.518	81.75
328.731	69.46
328.944	24.4
329.157	55.12
329.37	77.65
329.583	14.17
329.796	73.56
330.009	-4.27
330.222	63.32
330.435	51.03
330.648	108.37
330.861	48.98
331.073	124.76
331.286	126.8
331.499	65.36
331.712	61.27
331.925	44.88
332.138	5.97
332.35	20.31
332.563	30.55
332.776	40.79
332.989	85.84
333.202	10.07
333.414	61.27
333.627	67.41
333.84	55.12
334.053	36.69
334.265	61.27
334.478	38.74
334.691	53.08
334.903	-14.51
335.116	102.23
335.329	-4.27
335.541	57.17
335.754	110.42
335.966	57.17
336.179	36.69
336.392	-37.03
336.604	18.26
336.817	67.41
337.029	30.55
337.242	-18.6
337.454	44.88
337.667	12.12
337.88	34.64
338.092	34.64
338.305	87.89
338.517	69.46
338.729	18.26
338.942	91.99
339.154	-0.17
339.367	114.52
339.579	57.17
339.792	61.27
340.004	32.6
340.217	91.99
340.429	48.98
340.641	73.56
340.854	-14.51
341.066	32.6
341.278	67.41
341.491	89.94
341.703	32.6
341.915	-4.27
342.128	73.56
342.34	69.46
342.552	12.12
342.764	44.88
342.977	-0.17
343.189	10.07
343.401	71.51
343.613	3.93
343.826	55.12
344.038	20.31
344.25	38.74
344.462	-28.84
344.674	-16.55
344.886	96.08
345.099	91.99
345.311	77.65
345.523	63.32
345.735	44.88
345.947	112.47
346.159	57.17
346.371	69.46
346.583	30.55
346.795	26.45
347.007	145.24
347.219	87.89
347.431	36.69
347.643	69.46
347.855	-12.46
348.067	67.41
348.279	28.5
348.491	-22.7
348.703	94.04
348.915	28.5
349.127	-4.27
349.339	67.41
349.551	67.41
349.763	73.56
349.975	44.88
350.187	83.8
350.399	55.12
350.61	67.41
350.822	-14.51
351.034	44.88
351.246	71.51
351.458	87.89
351.669	8.02
351.881	-8.36
352.093	69.46
352.305	81.75
352.517	75.6
352.728	55.12
352.94	8.02
353.152	44.88
353.363	-10.41
353.575	-14.51
353.787	55.12
353.999	81.75
354.21	26.45
354.422	71.51
354.633	-16.55
354.845	81.75
355.057	-30.89
355.268	61.27
355.48	46.93
355.692	18.26
355.903	59.22
356.115	53.08
356.326	87.89
356.538	73.56
356.749	122.71
356.961	75.6
357.172	48.98
357.384	83.8
357.595	34.64
357.807	73.56
358.018	30.55
358.23	69.46
358.441	132.95
358.653	-14.51
358.864	51.03
359.075	34.64
359.287	91.99
359.498	10.07
359.709	75.6
359.921	85.84
360.132	36.69
360.344	71.51
360.555	73.56
360.766	-2.22
360.977	44.88
361.189	77.65
361.4	18.26
361.611	73.56
361.823	1.88
362.034	102.23
362.245	36.69
362.456	3.93
362.667	75.6
362.879	46.93
363.09	26.45
363.301	20.31
363.512	42.84
363.723	30.55
363.935	34.64
364.146	38.74
364.357	65.36
364.568	139.09
364.779	-6.31
364.99	36.69
365.201	36.69
365.412	91.99
365.623	24.4
365.834	104.28
366.045	48.98
366.256	53.08
366.467	63.32
366.678	106.32
366.889	55.12
367.1	3.93
367.311	16.21
367.522	40.79
367.733	77.65
367.944	51.03
368.155	-20.65
368.366	44.88
368.577	1.88
368.788	34.64
368.999	94.04
369.209	44.88
369.42	73.56
369.631	5.97
369.842	96.08
370.053	81.75
370.264	38.74
370.474	69.46
370.685	83.8
370.896	34.64
371.107	36.69
371.317	100.18
371.528	63.32
371.739	81.75
371.95	-32.94
372.16	-12.46
372.371	81.75
372.582	63.32
372.792	48.98
373.003	94.04
373.214	48.98
373.424	65.36
373.635	128.85
373.846	94.04
374.056	-8.36
374.267	8.02
374.477	26.45
374.688	5.97
374.898	106.32
375.109	71.51
375.319	-4.27
375.53	30.55
375.74	61.27
375.951	69.46
376.161	118.61
376.372	124.76
376.582	-14.51
376.793	83.8
377.003	-16.55
377.214	132.95
377.424	83.8
377.635	77.65
377.845	75.6
378.055	53.08
378.266	26.45
378.476	-41.13
378.686	65.36
378.897	1.88
379.107	71.51
379.317	53.08
379.528	85.84
379.738	34.64
379.948	61.27
380.158	36.69
380.369	89.94
380.579	85.84
380.789	67.41
380.999	116.56
381.21	12.12
381.42	32.6
381.63	63.32
381.84	126.8
382.05	112.47
382.261	42.84
382.471	32.6
382.681	1.88
382.891	55.12
383.101	12.12
383.311	8.02
383.521	59.22
383.731	-32.94
383.941	38.74
384.151	22.36
384.361	53.08
384.571	171.86
384.781	46.93
384.991	34.64
385.201	40.79
385.411	46.93
385.621	44.88
385.831	-10.41
386.041	16.21
386.251	71.51
386.461	94.04
386.671	83.8
386.881	-45.23
387.091	28.5
387.301	67.41
387.511	20.31
387.72	73.56
387.93	75.6
388.14	81.75
388.35	-16.55
388.56	57.17
388.769	110.42
388.979	83.8
389.189	36.69
389.399	38.74
389.609	77.65
389.818	106.32
390.028	71.51
390.238	51.03
390.447	38.74
390.657	34.64
390.867	30.55
391.076	38.74
391.286	26.45
391.496	79.7
391.705	104.28
391.915	71.51
392.125	108.37
392.334	128.85
392.544	83.8
392.753	59.22
392.963	71.51
393.172	63.32
393.382	118.61
393.591	61.27
393.801	69.46
394.01	67.41
394.22	128.85
394.429	106.32
394.639	22.36
394.848	71.51
395.058	18.26
395.267	83.8
395.477	69.46
395.686	116.56
395.895	-14.51
396.105	67.41
396.314	24.4
396.524	83.8
396.733	118.61
396.942	106.32
397.152	69.46
397.361	48.98
397.57	-34.99
397.78	118.61
397.989	71.51
398.198	141.14
398.407	116.56
398.617	182.1
398.826	69.46
399.035	112.47
399.244	73.56
399.453	73.56
399.663	116.56
399.872	85.84
400.081	102.23
400.29	75.6
400.499	53.08
400.708	196.43
400.917	112.47
401.127	71.51
401.336	135
401.545	157.52
401.754	147.28
401.963	79.7
402.172	165.71
402.381	124.76
402.59	108.37
402.799	91.99
403.008	155.47
403.217	30.55
403.426	96.08
403.635	186.19
403.844	53.08
404.053	143.19
404.262	114.52
404.471	132.95
404.68	141.14
404.888	44.88
405.097	116.56
405.306	212.82
405.515	98.13
405.724	192.34
405.933	223.06
406.142	141.14
406.35	190.29
406.559	204.63
406.768	124.76
406.977	208.72
407.185	175.95
407.394	143.19
407.603	178
407.812	251.73
408.02	223.06
408.229	216.91
408.438	206.67
408.646	223.06
408.855	221.01
409.064	192.34
409.272	255.83
409.481	239.44
409.69	251.73
409.898	282.45
410.107	272.21
410.315	296.78
410.524	286.54
410.733	339.79
410.941	309.07
411.15	284.5
411.358	347.98
411.567	372.56
411.775	366.42
411.984	317.26
412.192	366.42
412.401	345.94
412.609	354.13
412.818	468.81
413.026	388.94
413.234	390.99
413.443	509.77
413.651	489.29
413.86	515.92
414.068	585.55
414.276	593.74
414.485	501.58
414.693	575.31
414.901	558.92
415.11	663.37
415.318	651.08
415.526	689.99
415.734	728.91
415.943	644.94
416.151	763.72
416.359	706.38
416.567	714.57
416.776	741.19
416.984	784.2
417.192	864.07
417.4	892.74
417.608	866.12
417.817	921.42
418.025	1007.43
418.233	1011.53
418.441	1029.96
418.649	997.19
418.857	1023.81
419.065	1115.97
419.273	1083.2
419.481	1214.27
419.689	1124.16
419.897	1271.62
420.105	1271.62
420.313	1281.86
420.521	1427.26
420.729	1466.17
420.937	1468.22
421.145	1552.19
421.353	1636.16
421.561	1683.26
421.769	1806.14
421.977	1810.23
422.185	1812.28
422.393	1830.71
422.601	2021.17
422.809	1992.5
423.017	2031.41
423.224	2076.47
423.432	2223.92
423.64	2205.49
423.848	2445.1
424.056	2285.36
424.263	2457.39
424.471	2473.78
424.679	2582.32
424.887	2545.45
425.094	2758.44
425.302	2828.07
425.51	2971.43
425.718	3065.64
425.925	2942.76
426.133	3075.88
426.341	3182.37
426.548	3430.18
426.756	3419.94
426.964	3450.66
427.171	3647.26
427.379	3825.43
427.586	3874.59
427.794	3833.63
428.001	3993.37
428.209	4267.8
428.417	4169.49
428.624	4441.87
428.832	4589.33
429.039	4527.89
429.247	4425.49
429.454	4962.06
429.662	5242.63
429.869	4933.39
430.076	5181.19
430.284	5213.96
430.491	5396.23
430.699	5543.68
430.906	5750.53
431.114	5697.28
431.321	5779.2
431.528	6020.86
431.736	6377.2
431.943	6696.69
432.15	6661.87
432.358	6428.4
432.565	6944.49
432.772	6973.16
432.979	7081.71
433.187	7456.48
433.394	7487.2
433.601	7913.18
433.808	7880.41
434.016	7792.35
434.223	8400.6
434.43	8601.3
434.637	8613.59
434.844	9076.43
435.052	9381.57
435.259	9281.22
435.466	9207.5
435.673	9014.99
435.88	9823.94
436.087	10161.85
436.294	10229.43
436.501	9987.77
436.708	10317.5
436.915	10786.48
437.122	11036.33
437.329	11081.39
437.537	11445.93
437.743	11714.21
437.95	11595.43
438.157	12138.14
438.364	12486.29
438.571	12463.77
438.778	12656.28
438.985	13444.74
439.192	13112.97
439.399	13672.07
439.606	13276.81
439.813	13958.78
440.02	14694.01
440.227	14544.5
440.433	14454.39
440.64	14804.6
440.847	14870.13
441.054	15169.13
441.261	16150.11
441.467	15738.47
441.674	16422.49
441.881	16991.83
442.088	16858.71
442.294	16803.41
442.501	17079.89
442.708	17520.2
442.914	18064.96
443.121	18894.39
443.328	18466.36
443.534	19959.33
443.741	19238.45
443.948	19011.12
444.154	20299.3
444.361	20268.58
444.568	20448.8
444.774	20194.85
444.981	20622.87
445.187	21198.35
445.394	22199.81
445.6	21812.74
445.807	24157.67
446.013	22912.5
446.22	23342.58
446.426	23979.5
446.633	24094.18
446.839	25134.55
447.046	24255.97
447.252	25636.3
447.459	25564.62
447.665	25263.57
447.871	26734.01
448.078	27510.19
448.284	26389.95
448.491	27098.55
448.697	28034.47
448.903	28568.99
449.11	28843.42
449.316	28345.76
449.522	29005.21
449.728	29302.17
449.935	29382.04
450.141	29560.21
450.347	30221.7
450.553	29042.07
450.76	29562.26
450.966	30813.57
451.172	30264.71
451.378	31290.74
451.584	30371.21
451.791	31051.13
451.997	31038.84
452.203	31327.61
452.409	31475.06
452.615	31477.11
452.821	30041.48
453.027	29758.86
453.233	31450.49
453.44	30080.39
453.646	30432.64
453.852	30563.71
454.058	31133.05
454.264	30397.83
454.47	30489.99
454.676	29810.06
454.882	30879.1
455.088	28239.27
455.294	28937.63
455.5	29040.03
455.705	29353.37
455.911	28349.86
456.117	27430.32
456.323	27467.19
456.529	26211.78
456.735	27276.73
456.941	26324.42
457.147	26131.91
457.352	24995.29
457.558	24770.01
457.764	24911.32
457.97	24268.26
458.176	23838.19
458.381	23965.16
458.587	22582.78
458.793	22789.63
458.999	21577.23
459.204	23016.95
459.41	22420.99
459.616	20915.73
459.821	20768.28
460.027	20719.13
460.233	20282.91
460.438	19359.28
460.644	19727.91
460.85	18822.71
461.055	18535.99
461.261	18626.11
461.466	17149.52
461.672	16346.72
461.878	17630.79
462.083	16647.77
462.289	16375.39
462.494	16256.61
462.7	15294.06
462.905	15169.13
463.111	15449.71
463.316	15763.04
463.522	15240.81
463.727	15253.1
463.932	15406.7
464.138	15095.41
464.343	15130.22
464.549	14618.23
464.754	15281.77
464.959	15375.98
465.165	15195.76
465.37	14386.81
465.575	14034.56
465.781	14599.8
465.986	14675.57
466.191	14229.12
466.397	14093.95
466.602	13313.67
466.807	13729.41
467.012	13655.68
467.218	13743.75
467.423	13713.03
467.628	13545.09
467.833	14298.75
468.038	13700.74
468.244	13080.21
468.449	13717.12
468.654	13192.84
468.859	13354.63
469.064	13053.58
469.269	12715.67
469.474	12740.24
469.679	13047.44
469.885	12668.56
470.09	12791.44
470.295	12502.68
470.5	12422.81
470.705	12480.15
470.91	12037.79
471.115	12019.36
471.32	12228.25
471.525	12068.51
471.73	11828.9
471.935	11906.72
472.139	11402.92
472.344	11540.13
472.549	11538.09
472.754	11370.15
472.959	11009.71
473.164	10874.54
473.369	10677.94
473.574	11171.5
473.778	10806.96
473.983	10882.74
474.188	10956.46
474.393	10407.61
474.598	10534.58
474.802	10536.63
475.007	10282.68
475.212	10311.35
475.417	10092.22
475.621	10038.97
475.826	10032.83
476.031	9735.87
476.235	9774.78
476.44	9725.63
476.645	9490.12
476.849	9559.75
477.054	9430.73
477.259	9479.88
477.463	9402.05
477.668	9121.48
477.872	9238.22
478.077	9111.24
478.282	8799.95
478.486	8687.31
478.691	8791.76
478.895	8685.26
479.1	8664.79
479.304	8496.85
479.509	8371.93
479.713	8486.61
479.918	8214.23
480.122	8306.39
480.326	8333.01
480.531	8382.17
480.735	8249.05
480.94	8173.27
481.144	8527.57
481.348	8068.83
481.553	8156.89
481.757	8056.54
481.961	8099.55
482.166	8113.88
482.37	8062.68
482.574	7788.25
482.778	8015.58
482.983	8068.83
483.187	8064.73
483.391	8134.36
483.595	8158.94
483.8	7876.32
484.004	8017.63
484.208	8165.08
484.412	7902.94
484.616	7814.88
484.821	8224.47
485.025	8040.15
485.229	8165.08
485.433	7870.17
485.637	8003.29
485.841	7902.94
486.045	8011.48
486.249	8038.11
486.453	7859.93
486.657	8068.83
486.861	7941.85
487.065	7941.85
487.269	7954.14
487.473	7976.67
487.677	8111.83
487.881	8054.49
488.085	7966.43
488.289	8203.99
488.493	8105.69
488.697	7968.48
488.901	8040.15
489.105	8144.6
489.309	8199.9
489.512	7958.24
489.716	8138.46
489.92	8070.87
490.124	8130.27
490.328	8345.3
490.531	8251.1
490.735	8343.25
490.939	8224.47
491.143	8298.2
491.346	8212.18
491.55	8099.55
491.754	8373.97
491.958	8371.93
492.161	8365.78
492.365	8505.04
492.569	8421.08
492.772	8513.24
492.976	8498.9
493.18	8593.11
493.383	8687.31
493.587	8691.41
493.79	8816.33
493.994	8656.59
494.197	8873.68
494.401	8980.17
494.605	8945.36
494.808	9178.83
495.012	9191.11
495.215	9154.25
495.419	9373.38
495.622	9313.99
495.825	9414.34
496.029	9277.13
496.232	9637.57
496.436	9496.26
496.639	9664.19
496.843	9526.98
497.046	10086.08
497.249	9936.57
497.453	9959.1
497.656	10157.75
497.859	10170.04
498.063	10473.14
498.266	10614.45
498.469	10516.15
498.673	10548.92
498.876	10725.04
499.079	10888.88
499.282	10952.37
499.485	11169.45
499.689	11210.41
499.892	11386.54
500.095	11366.06
500.298	11613.86
500.501	11511.46
500.705	11970.21
500.908	12025.5
501.111	11966.11
501.314	12267.16
501.517	12269.21
501.72	12551.83
501.923	12455.58
502.126	12852.88
502.329	12934.8
502.532	12967.57
502.735	13194.89
502.938	13334.15
503.141	13622.92
503.344	13796.99
503.547	13592.2
503.75	13979.26
503.953	14208.64
504.156	14222.97
504.359	14272.12
504.562	14325.37
504.765	14880.37
504.968	15021.68
505.17	15068.78
505.373	15093.36
505.576	15689.32
505.779	15662.69
505.982	15640.17
506.185	16115.3
506.387	16004.71
506.59	16234.08
506.793	16696.92
506.996	16279.13
507.198	17098.32
507.401	16963.15
507.604	17235.53
507.807	17618.5
508.009	17622.6
508.212	17780.29
508.415	17989.19
508.617	18155.07
508.82	18357.82
509.022	18159.17
509.225	18740.79
509.428	18910.77
509.63	18867.77
509.833	18888.25
510.035	19586.6
510.238	19478.06
510.44	19746.34
510.643	20194.85
510.845	20452.89
511.048	20293.15
511.25	20465.18
511.453	20782.62
511.655	21356.05
511.858	21354
512.06	21177.87
512.262	21653
512.465	21820.94
512.667	22355.46
512.87	22406.66
513.072	22466.05
513.274	22736.38
513.477	23186.93
513.679	23385.58
513.881	23678.44
514.084	23574
514.286	23985.64
514.488	24110.57
514.69	24661.47
514.893	24880.6
515.095	24761.82
515.297	25095.64
515.499	25372.11
515.701	25693.65
515.904	26035.66
516.106	26219.97
516.308	26226.12
516.51	26469.83
516.712	26561.98
516.914	27227.57
517.116	27538.87
517.318	27610.54
517.52	27925.93
517.722	27993.51
517.925	28214.69
518.127	28427.68
518.329	28779.93
518.531	28726.69
518.733	29660.56
518.935	29541.78
519.136	29709.71
519.338	30098.83
519.54	30041.48
519.742	30756.22
519.944	30647.68
520.146	30889.34
520.348	31352.18
520.55	31520.12
520.752	31763.82
520.954	32245.1
521.155	32011.63
521.357	32603.49
521.559	32560.48
521.761	32916.83
521.963	33379.67
522.164	33224.03
522.366	33398.1
522.568	33682.77
522.77	34063.69
522.971	34227.53
523.173	34250.06
523.375	34946.37
523.576	34606.41
523.778	34536.77
523.98	35083.58
524.181	35370.3
524.383	35323.19
524.584	36158.77
524.786	36355.37
524.988	35618.1
525.189	36418.86
525.391	36781.35
525.592	36582.7
525.794	37063.97
525.995	36951.33
526.197	36812.07
526.398	37303.58
526.6	37135.65
526.801	37391.64
527.003	37782.8
527.204	37868.82
527.406	38341.9
527.607	38020.37
527.808	38526.22
528.01	37647.64
528.211	38302.99
528.412	39113.98
528.614	39187.71
528.815	38726.92
529.016	38999.3
529.218	38757.64
529.419	39171.33
529.62	39146.75
529.822	38995.2
530.023	39290.11
530.224	39388.41
530.425	39148.8
530.626	39161.09
530.828	38821.12
531.029	39615.74
531.23	39488.76
531.431	39693.56
531.632	39683.32
531.833	39869.68
532.035	39539.96
532.236	39984.37
532.437	39707.9
532.638	39550.2
532.839	39867.64
533.04	39568.63
533.241	39705.85
533.442	40465.64
533.643	39961.84
533.844	39804.15
534.045	40115.44
534.246	39761.14
534.447	40209.65
534.648	40039.67
534.849	40056.05
535.05	39845.11
535.251	40131.82
535.451	40000.75
535.652	40381.68
535.853	39894.26
536.054	40213.74
536.255	40353.01
536.456	39818.49
536.657	40658.15
536.857	40107.25
537.058	40381.68
537.259	40776.94
537.46	40310
537.66	40252.66
537.861	40310
538.062	40162.54
538.263	40197.36
538.463	40320.24
538.664	40320.24
538.865	40103.15
539.065	40457.45
539.266	40031.47
539.466	40680.68
539.667	40072.43
539.868	40611.05
540.068	40070.39
540.269	39992.56
540.469	40643.82
540.67	40092.91
540.87	40238.32
541.071	40133.87
541.271	40117.49
541.472	39980.28
541.672	39853.3
541.873	40070.39
542.073	39767.29
542.274	40381.68
542.474	39744.76
542.675	40023.28
542.875	40353.01
543.075	40228.08
543.276	39812.34
543.476	40496.36
543.676	40064.24
543.877	40375.53
544.077	40246.51
544.277	40107.25
544.478	40043.76
544.678	40097.01
544.878	39814.39
545.078	40201.46
545.279	39773.43
545.479	39603.45
545.679	40240.37
545.879	39992.56
546.079	40148.21
546.28	40015.09
546.48	39777.53
546.68	39967.99
546.88	40127.73
547.08	40088.82
547.28	39939.32
547.48	39793.91
547.68	40072.43
547.88	39478.52
548.081	39849.21
548.281	40111.35
548.481	39800.05
548.681	39974.13
548.881	39900.4
549.081	39953.65
549.28	39585.02
549.48	40281.33
549.68	39570.68
549.88	40692.97
550.08	39732.47
550.28	39853.3
550.48	39824.63
550.68	40164.59
550.88	39472.38
551.08	39783.67
551.279	39599.35
551.479	39795.96
551.679	39978.23
551.879	39816.44
552.079	39918.84
552.278	39628.02
552.478	39853.3
552.678	39908.6
552.878	39967.99
553.077	39841.01
553.277	39300.35
553.477	40019.19
553.676	39539.96
553.876	39355.64
554.076	39578.87
554.275	39494.91
554.475	39167.23
554.674	39703.8
554.874	39408.89
555.074	39918.84
555.273	39492.86
555.473	39591.16
555.672	38999.3
555.872	39245.05
556.071	39243.01
556.271	39589.11
556.47	39206.14
556.67	39042.31
556.869	38939.91
557.068	38995.2
557.268	38968.58
557.467	39148.8
557.667	39021.83
557.866	39095.55
558.065	38874.37
558.265	38718.73
558.464	38839.56
558.663	38855.94
558.863	38055.18
559.062	39435.52
559.261	38198.54
559.461	38939.91
559.66	38157.58
559.859	38284.56
560.058	38397.2
560.258	38313.23
560.457	38102.29
560.656	38540.55
560.855	38352.14
561.054	38384.91
561.253	38010.13
561.453	38081.81
561.652	38083.86
561.851	38339.85
562.05	37647.64
562.249	37815.57
562.448	38012.18
562.647	37825.81
562.846	37635.35
563.045	37969.17
563.244	37367.07
563.443	37989.65
563.642	37475.61
563.841	37162.27
564.04	37319.96
564.239	37911.83
564.438	37575.96
564.637	37588.25
564.836	37426.46
565.035	36984.1
565.234	37352.73
565.432	37066.02
565.631	37160.22
565.83	37219.61
566.029	37029.15
566.228	36779.3
566.427	36732.2
566.625	36492.58
566.824	36539.69
567.023	36980
567.222	36095.28
567.42	37006.62
567.619	36588.84
567.818	36535.59
568.016	36365.61
568.215	36273.45
568.414	36078.89
568.612	36416.81
568.811	36130.09
569.01	36322.6
569.208	35767.6
569.407	35917.11
569.605	35499.32
569.804	35939.63
570.002	35646.77
570.201	35720.5
570.4	35372.35
570.598	35380.54
570.797	35315
570.995	35353.91
571.193	34856.26
571.392	35276.09
571.59	34972.99
571.789	34753.86
571.987	34811.2
572.186	34772.29
572.384	34422.09
572.582	35003.71
572.781	34530.63
572.979	33877.33
573.177	34338.12
573.376	34610.5
573.574	34032.97
573.772	34307.4
573.971	34162
574.169	34123.08
574.367	33856.85
574.565	33858.9
574.763	34108.75
574.962	33539.41
575.16	33549.65
575.358	33666.39
575.556	33082.72
575.754	33621.33
575.952	33101.15
576.151	33469.78
576.349	32882.02
576.547	33170.78
576.745	32986.46
576.943	32914.78
577.141	32642.4
577.339	32873.82
577.537	32560.48
577.735	32468.33
577.933	32073.07
578.131	32679.27
578.329	32167.27
578.527	32157.03
578.725	32185.71
578.923	32312.68
579.121	31901.04
579.319	31661.43
579.516	31821.17
579.714	31636.85
579.912	31884.65
580.11	31528.31
580.308	31528.31
580.506	31493.49
580.704	30946.69
580.901	31214.97
581.099	31718.77
581.297	31313.27
581.495	30930.3
581.692	31184.25
581.89	30508.42
582.088	30844.29
582.285	30690.69
582.483	30719.36
582.681	30856.57
582.878	30023.05
583.076	30186.89
583.274	30322.05
583.471	29992.33
583.669	30533
583.866	29975.95
584.064	30363.01
584.262	29924.75
584.459	30025.1
584.657	29762.96
584.854	29709.71
585.052	29459.86
585.249	29633.94
585.447	29455.76
585.644	29285.78
585.841	29199.77
586.039	29281.69
586.236	28698.02
586.434	28997.02
586.631	28990.87
586.828	28808.61
587.026	28716.45
587.223	28865.95
587.42	28591.52
587.618	28499.36
587.815	28575.14
588.012	27915.69
588.21	28161.45
588.407	28491.17
588.604	27917.74
588.801	28057
588.999	27993.51
589.196	27919.79
589.393	28013.99
589.59	27510.19
589.787	27616.69
589.984	27866.54
590.182	27375.03
590.379	27450.8
590.576	27385.27
590.773	27592.11
590.97	27512.24
591.167	27215.29
591.364	26865.08
591.561	27045.3
591.758	26848.7
591.955	26920.38
592.152	27061.69
592.349	26570.18
592.546	26703.29
592.743	26688.96
592.94	26260.93
593.137	26756.54
593.334	26506.69
593.531	26140.1
593.727	26174.92
593.924	26303.94
594.121	25920.97
594.318	25855.43
594.515	25843.15
594.712	26162.63
594.908	25816.52
595.105	26049.99
595.302	25664.97
595.499	25499.09
595.696	25337.3
595.892	24950.23
596.089	25808.33
596.286	25460.18
596.482	25195.99
596.679	25224.66
596.876	25042.39
597.072	25015.77
597.269	25042.39
597.466	24729.05
597.662	24813.02
597.859	24737.24
598.055	24837.59
598.252	24423.9
598.448	24337.89
598.645	24372.71
598.841	24442.34
599.038	24389.09
599.234	24364.51
599.431	24038.89
599.627	24165.86
599.824	24374.75
600.02	24210.92
600.217	24055.27
600.413	23952.87
600.609	23803.37
600.806	23782.89
601.002	23375.34
601.198	23641.58
601.395	23594.48
601.591	23582.19
601.787	23420.4
601.984	23195.12
602.18	23195.12
602.376	23342.58
602.572	22822.39
602.769	22914.55
602.965	22619.64
603.161	23090.68
603.357	22623.74
603.553	22670.84
603.75	22760.95
603.946	22543.87
604.142	22316.54
604.338	22560.25
604.534	22345.22
604.73	22146.56
604.926	22117.89
605.122	22248.96
605.318	21636.62
605.514	21843.46
605.71	22005.25
605.906	21972.49
606.102	21861.9
606.298	21784.07
606.494	21698.06
606.69	21935.62
606.886	21919.24
607.082	21177.87
607.278	21691.91
607.474	21270.03
607.67	21345.81
607.866	21308.94
608.062	21329.42
608.257	21042.71
608.453	20991.51
608.649	21188.11
608.845	20946.45
609.041	20907.54
609.236	21259.79
609.432	20907.54
609.628	20653.59
609.824	20530.72
610.019	20620.83
610.215	20780.57
610.411	20805.14
610.606	20508.19
610.802	20643.35
610.998	20799
611.193	20471.32
611.389	20508.19
611.584	20031.01
611.78	20084.26
611.976	20178.47
612.171	20325.92
612.367	20102.69
612.562	20090.4
612.758	19942.95
612.953	19945
613.149	19930.66
613.344	19721.77
613.539	20272.67
613.735	20010.53
613.93	19789.35
614.126	19680.81
614.321	19799.59
614.517	19932.71
614.712	19422.76
614.907	19369.52
615.103	19678.76
615.298	19533.36
615.493	19600.94
615.688	19238.45
615.884	19721.77
616.079	19260.98
616.274	19416.62
616.47	19097.14
616.665	19213.87
616.86	18882.1
617.055	19074.61
617.25	18867.77
617.445	18918.96
617.641	18427.45
617.836	19072.56
618.031	18644.54
618.226	18824.76
618.421	18646.58
618.616	18656.82
618.811	18368.06
619.006	18581.05
619.201	18114.11
619.396	18325.05
619.591	18073.15
619.786	18394.68
619.981	17778.25
620.176	18296.38
620.371	17978.95
620.566	17911.36
620.761	17903.17
620.956	17819.21
621.151	17524.3
621.346	17626.7
621.541	17428.04
621.735	17645.13
621.93	17290.83
622.125	17100.37
622.32	16834.13
622.515	17061.46
622.709	16948.82
622.904	17075.79
623.099	16815.7
623.294	16692.82
623.488	16551.51
623.683	16778.84
623.878	16328.28
624.072	16340.57
624.267	16346.72
624.462	16229.98
624.656	16109.15
624.851	16203.36
625.046	16043.62
625.24	15965.79
625.435	15820.39
625.629	15826.53
625.824	15652.45
626.018	15529.58
626.213	15246.96
626.407	15486.57
626.602	15226.48
626.796	15203.95
626.991	15199.85
627.185	14925.43
627.38	14884.47
627.574	14970.48
627.768	14745.2
627.963	14788.21
628.157	14661.24
628.352	14564.98
628.546	14515.83
628.74	14534.26
628.935	14196.35
629.129	14270.08
629.323	13782.66
629.517	14139.01
629.712	13999.74
629.906	13913.73
630.1	13637.25
630.294	13866.63
630.489	13827.71
630.683	13907.59
630.877	13557.38
631.071	13504.14
631.265	13430.41
631.459	13520.52
631.653	13354.63
631.848	13186.7
632.042	13256.33
632.236	13153.93
632.43	12877.46
632.624	13014.67
632.818	12867.22
633.012	12789.39
633.206	12899.98
633.4	12752.53
633.594	12660.37
633.788	12557.97
633.982	12701.33
634.176	12580.5
634.369	12304.03
634.563	12424.86
634.757	12191.39
634.951	12275.35
635.145	12076.7
635.339	12191.39
635.533	12015.26
635.726	11935.39
635.92	11994.78
636.114	11931.3
636.308	11816.61
636.501	11597.48
636.695	11726.5
636.889	11480.74
637.083	11456.17
637.276	11384.49
637.47	11286.19
637.664	11343.53
637.857	11554.47
638.051	11447.97
638.244	11548.33
638.438	11208.36
638.632	11284.14
638.825	11091.63
639.019	10915.5
639.212	10712.75
639.406	10798.77
639.599	10733.23
639.793	10870.45
639.986	10696.37
640.18	10688.18
640.373	10524.34
640.567	10366.65
640.76	10585.78
640.954	10276.54
641.147	10471.09
641.34	10487.48
641.534	10315.45
641.727	10235.58
641.92	10276.54
642.114	9948.86
642.307	10221.24
642.5	10012.35
642.694	9856.7
642.887	9719.49
643.08	9852.61
643.273	9651.91
643.467	9658.05
643.66	9549.51
643.853	9465.54
644.046	9508.55
644.239	9428.68
644.432	9367.24
644.626	9354.95
644.819	9262.79
645.012	9215.69
645.205	9152.2
645.398	9064.14
645.591	9072.33
645.784	8988.36
645.977	8951.5
646.17	8818.38
646.363	8869.58
646.556	8634.07
646.749	8781.52
646.942	8928.97
647.135	8709.84
647.328	8554.19
647.521	8541.91
647.714	8373.97
647.907	8447.7
648.099	8382.17
648.292	8419.03
648.485	8373.97
648.678	8421.08
648.871	8363.73
649.064	8163.03
649.256	8283.86
649.449	8218.33
649.642	8160.98
649.835	8023.77
650.027	7972.57
650.22	7970.52
650.413	7997.15
650.605	7919.32
650.798	7882.46
650.991	7605.99
651.183	7767.77
651.376	7509.73
651.568	7726.82
651.761	7554.79
651.954	7669.47
652.146	7673.57
652.339	7386.85
652.531	7333.61
652.724	7409.38
652.916	7220.97
653.109	7368.42
653.301	7130.86
653.494	7278.31
653.686	7098.09
653.879	7263.97
654.071	6973.16
654.263	7044.84
654.456	6997.74
654.648	7024.36
654.84	7020.27
655.033	6936.3
655.225	6794.99
655.417	6770.41
655.61	6786.8
655.802	6725.36
655.994	6706.93
656.186	6676.21
656.379	6457.07
656.571	6618.86
656.763	6534.9
656.955	6532.85
657.148	6461.17
657.34	6446.83
657.532	6418.16
657.724	6356.72
657.916	6190.84
658.108	6272.76
658.3	6180.6
658.492	6190.84
658.684	6285.05
658.876	6090.49
659.068	6186.74
659.26	6063.86
659.452	6092.54
659.644	6002.43
659.836	5883.64
660.028	5967.61
660.22	5932.79
660.412	5965.56
660.604	5852.92
660.796	5871.36
660.988	5854.97
661.18	5711.61
661.372	5566.21
661.563	5754.62
661.755	5582.59
661.947	5701.37
662.139	5523.2
662.331	5566.21
662.522	5390.08
662.714	5547.78
662.906	5398.27
663.097	5394.18
663.289	5340.93
663.481	5373.7
663.673	5371.65
663.864	5277.44
664.056	5367.56
664.247	5152.52
664.439	5269.25
664.631	5240.58
664.822	5105.42
665.014	5113.61
665.205	5146.37
665.397	5082.89
665.588	5048.07
665.78	4996.87
665.971	5097.22
666.163	5082.89
666.354	5046.02
666.546	4929.29
666.737	4925.19
666.929	4990.73
667.12	4847.37
667.311	4869.9
667.503	4843.28
667.694	4732.69
667.885	4712.21
668.077	4636.43
668.268	4523.79
668.459	4605.71
668.651	4531.98
668.842	4691.73
669.033	4499.22
669.224	4540.18
669.416	4550.42
669.607	4488.98
669.798	4583.18
669.989	4448.02
670.18	4429.59
670.371	4304.66
670.563	4286.23
670.754	4478.74
670.945	4288.28
671.136	4245.27
671.327	4189.97
671.518	4357.91
671.709	4390.67
671.9	4273.94
672.091	4353.81
672.282	4138.77
672.473	4204.31
672.664	4175.64
672.855	4228.88
673.046	4267.8
673.237	4060.95
673.428	4189.97
673.619	4034.33
673.809	4054.81
674	3974.94
674.191	3974.94
674.382	3931.93
674.573	4122.39
674.764	4017.94
674.954	3964.7
675.145	3872.54
675.336	3872.54
675.527	3876.63
675.717	3936.03
675.908	3720.99
676.099	3940.12
676.289	3862.3
676.48	3905.31
676.671	3751.71
676.861	3831.58
677.052	3804.96
677.243	3737.37
677.433	3643.17
677.624	3680.03
677.814	3786.52
678.005	3665.69
678.195	3714.84
678.386	3673.89
678.576	3671.84
678.767	3544.86
678.957	3538.72
679.148	3643.17
679.338	3579.68
679.529	3546.91
679.719	3622.69
679.909	3448.61
680.1	3483.42
680.29	3376.93
680.481	3442.46
680.671	3481.38
680.861	3499.81
681.052	3401.51
681.242	3409.7
681.432	3225.38
681.622	3344.16
681.813	3315.49
682.003	3311.39
682.193	3350.31
682.383	3331.87
682.573	3385.12
682.764	3434.27
682.954	3454.75
683.144	3438.37
683.334	3395.36
683.524	3331.87
683.714	3311.39
683.904	3280.68
684.094	3284.77
684.284	3192.61
684.474	3335.97
684.664	3350.31
684.854	3297.06
685.044	3088.17
685.234	3149.61
685.424	3272.48
685.614	3135.27
685.804	3151.65
685.994	3229.48
686.184	3278.63
686.374	3155.75
686.564	2983.72
686.753	3225.38
686.943	3073.83
687.133	3096.36
687.323	3116.84
687.513	3032.87
687.702	2975.53
687.892	2942.76
688.082	3073.83
688.272	3092.26
688.461	3073.83
688.651	3057.45
688.841	2909.99
689.03	3086.12
689.22	2969.38
689.41	2936.62
689.599	2869.03
689.789	2922.28
689.979	2889.51
690.168	3028.78
690.358	3034.92
690.547	3026.73
690.737	2953
690.926	2887.47
691.116	2846.51
691.305	2944.81
691.495	2916.14
691.684	2834.22
691.874	2920.23
692.063	2778.92
692.252	2840.36
692.442	2809.64
692.631	2809.64
692.82	2858.79
693.01	2754.35
693.199	2766.64
693.388	2842.41
693.578	2768.68
693.767	2760.49
693.956	2742.06
694.146	2744.11
694.335	2912.04
694.524	2821.93
694.713	2766.64
694.902	2944.81
695.092	2752.3
695.281	2754.35
695.47	2656.04
695.659	2852.65
695.848	2770.73
696.037	2754.35
696.226	2721.58
696.415	2735.92
696.604	2737.96
696.793	2740.01
696.982	2639.66
697.171	2740.01
697.36	2697
697.549	2713.39
697.738	2656.04
697.927	2592.56
698.116	2756.4
698.305	2674.48
698.494	2680.62
698.683	2787.11
698.872	2723.63
699.061	2705.2
699.25	2635.57
699.438	2641.71
699.627	2631.47
699.816	2688.81
700.005	2588.46
700.193	2580.27
700.382	2600.75
700.571	2608.94
700.76	2748.2
700.948	2498.35
701.137	2420.53
701.326	2623.28
701.514	2649.9
701.703	2606.89
701.892	2486.06
702.08	2608.94
702.269	2494.26
702.457	2469.68
702.646	2522.93
702.834	2567.98
703.023	2432.82
703.212	2621.23
703.4	2543.41
703.589	2516.78
703.777	2574.13
703.965	2494.26
704.154	2516.78
704.342	2506.54
704.531	2522.93
704.719	2363.19
704.907	2471.73
705.096	2434.86
705.284	2361.14
705.472	2453.3
705.661	2379.57
705.849	2395.95
706.037	2510.64
706.226	2447.15
706.414	2359.09
706.602	2373.43
706.79	2295.6
706.979	2393.9
707.167	2314.03
707.355	2373.43
707.543	2418.48
707.731	2299.7
707.919	2393.9
708.107	2230.07
708.296	2316.08
708.484	2359.09
708.672	2322.23
708.86	2391.86
709.048	2158.39
709.236	2299.7
709.424	2301.75
709.612	2279.22
709.8	2242.36
709.988	2254.64
710.176	2213.68
710.364	2266.93
710.551	2309.94
710.739	2230.07
710.927	2180.92
711.115	2154.29
711.303	2285.36
711.491	2127.67
711.679	2031.41
711.866	2182.96
712.054	2086.71
712.242	2043.7
712.43	2115.38
712.617	2144.05
712.805	2084.66
712.993	2131.76
713.181	2099
713.368	2037.56
713.556	2029.37
713.744	2021.17
713.931	2074.42
714.119	2027.32
714.306	1998.65
714.494	2125.62
714.682	2074.42
714.869	2010.93
715.057	2115.38
715.244	2051.89
715.432	1943.35
715.619	1972.02
715.807	1931.06
715.994	1941.3
716.182	1828.67
716.369	1886.01
716.556	2023.22
716.744	1939.26
716.931	1892.15
717.119	1908.54
717.306	1902.39
717.493	1814.33
717.681	1898.3
717.868	1888.06
718.055	1847.1
718.242	1816.38
718.43	1799.99
718.617	1816.38
718.804	1881.91
718.991	1812.28
719.179	1750.84
719.366	1765.18
719.553	1810.23
719.74	1742.65
719.927	1814.33
720.114	1738.55
720.301	1799.99
720.488	1836.86
720.676	1703.74
720.863	1781.56
721.05	1806.14
721.237	1738.55
721.424	1781.56
721.611	1775.42
721.798	1767.23
721.985	1703.74
722.172	1713.98
722.358	1664.83
722.545	1726.27
722.732	1623.87
722.919	1689.4
723.106	1642.3
723.293	1587.01
723.48	1718.08
723.667	1619.77
723.853	1646.4
724.04	1613.63
724.227	1683.26
724.414	1625.92
724.6	1601.34
724.787	1591.1
724.974	1550.14
725.161	1546.05
725.347	1595.2
725.534	1570.62
725.72	1582.91
725.907	1505.09
726.094	1625.92
726.28	1474.37
726.467	1589.05
726.653	1535.81
726.84	1591.1
727.027	1490.75
727.213	1505.09
727.4	1478.46
727.586	1578.81
727.773	1384.26
727.959	1460.03
728.145	1531.71
728.332	1494.85
728.518	1505.09
728.705	1466.17
728.891	1533.76
729.077	1357.63
729.264	1419.07
729.45	1400.64
729.636	1460.03
729.823	1462.08
730.009	1414.98
730.195	1439.55
730.382	1451.84
730.568	1507.13
730.754	1488.7
730.94	1339.2
731.126	1419.07
731.313	1490.75
731.499	1468.22
731.685	1367.87
731.871	1376.06
732.057	1371.97
732.243	1505.09
732.429	1441.6
732.615	1326.91
732.801	1386.3
732.987	1337.15
733.173	1376.06
733.359	1412.93
733.545	1365.82
733.731	1380.16
733.917	1306.43
734.103	1304.39
734.289	1392.45
734.475	1277.76
734.661	1316.67
734.847	1431.36
735.033	1365.82
735.219	1271.62
735.404	1355.58
735.59	1300.29
735.776	1283.91
735.962	1275.71
736.148	1208.13
736.333	1271.62
736.519	1255.23
736.705	1290.05
736.89	1255.23
737.076	1214.27
737.262	1187.65
737.447	1171.27
737.633	1277.76
737.819	1158.98
738.004	1173.32
738.19	1208.13
738.375	1199.94
738.561	1148.74
738.747	1154.88
738.932	1204.03
739.118	1259.33
739.303	1103.68
739.489	1177.41
739.674	1064.77
739.859	1142.6
740.045	1232.71
740.23	1216.32
740.416	1224.51
740.601	1118.02
740.786	1099.59
740.972	1093.44
741.157	1136.45
741.342	1144.64
741.528	1115.97
741.713	1066.82
741.898	1036.1
742.084	1132.36
742.269	1107.78
742.454	1140.55
742.639	1199.94
742.824	1064.77
743.01	1107.78
743.195	1181.51
743.38	952.13
743.565	1034.05
743.75	1070.92
743.935	1052.49
744.12	1144.64
744.305	1068.87
744.49	1044.29
744.675	943.94
744.86	941.89
745.045	970.57
745.23	997.19
745.415	997.19
745.6	929.61
745.785	982.85
745.97	1032.01
746.155	907.08
746.34	976.71
746.525	915.27
746.71	1009.48
746.895	917.32
747.079	948.04
747.264	976.71
747.449	880.46
747.634	960.33
747.819	952.13
748.003	939.85
748.188	970.57
748.373	968.52
748.557	874.31
748.742	866.12
748.927	898.89
749.111	896.84
749.296	884.55
749.481	857.93
749.665	896.84
749.85	876.36
750.034	849.74
750.219	829.26
750.404	923.46
750.588	821.06
750.773	853.83
750.957	825.16
751.141	900.94
751.326	855.88
751.51	835.4
751.695	864.07
751.879	870.22
752.064	829.26
752.248	894.79
752.432	821.06
752.617	810.82
752.801	716.62
752.985	749.39
753.17	726.86
753.354	819.02
753.538	823.11
753.722	855.88
753.907	665.42
754.091	679.75
754.275	870.22
754.459	759.63
754.643	667.47
754.828	776.01
755.012	722.76
755.196	694.09
755.38	745.29
755.564	712.52
755.748	675.66
755.932	689.99
756.116	730.95
756.3	696.14
756.484	681.8
756.668	780.11
756.852	689.99
757.036	681.8
757.22	681.8
757.404	665.42
757.588	626.51
757.772	681.8
757.956	653.13
758.14	683.85
758.323	681.8
758.507	599.88
758.691	636.75
758.875	575.31
759.059	649.04
759.242	569.16
759.426	638.8
759.61	593.74
759.794	622.41
759.977	610.12
760.161	642.89
760.345	657.23
760.528	585.55
760.712	550.73
760.895	538.45
761.079	659.28
761.263	661.32
761.446	581.45
761.63	640.84
761.813	597.84
761.997	644.94
762.18	661.32
762.364	612.17
762.547	542.54
762.731	538.45
762.914	575.31
763.098	546.64
763.281	563.02
763.464	554.83
763.648	591.69
763.831	532.3
764.015	546.64
764.198	538.45
764.381	589.64
764.564	603.98
764.748	565.07
764.931	554.83
765.114	575.31
765.297	575.31
765.481	534.35
765.664	554.83
765.847	515.92
766.03	612.17
766.213	603.98
766.397	526.16
766.58	485.2
766.763	497.49
766.946	515.92
767.129	511.82
767.312	464.72
767.495	507.73
767.678	560.97
767.861	501.58
768.044	507.73
768.227	550.73
768.41	489.29
768.593	505.68
768.776	499.53
768.959	403.28
769.142	575.31
769.324	552.78
769.507	462.67
769.69	532.3
769.873	431.95
770.056	522.06
770.239	454.48
770.421	483.15
770.604	538.45
770.787	536.4
770.97	499.53
771.152	479.05
771.335	501.58
771.518	462.67
771.7	372.56
771.883	423.76
772.066	446.29
772.248	421.71
772.431	501.58
772.613	350.03
772.796	468.81
772.978	497.49
773.161	388.94
773.343	434
773.526	376.66
773.708	485.2
773.891	382.8
774.073	411.47
774.256	472.91
774.438	472.91
774.621	376.66
774.803	415.57
774.985	399.18
775.168	485.2
775.35	427.85
775.532	429.9
775.715	483.15
775.897	388.94
776.079	403.28
776.261	370.51
776.444	397.14
776.626	421.71
776.808	382.8
776.99	352.08
777.173	395.09
777.355	380.75
777.537	423.76
777.719	370.51
777.901	421.71
778.083	341.84
778.265	444.24
778.447	393.04
778.629	403.28
778.811	472.91
778.993	333.65
779.175	489.29
779.357	368.46
779.539	337.74
779.721	325.46
779.903	366.42
780.085	329.55
780.267	362.32
780.449	362.32
780.631	356.18
780.812	331.6
780.994	358.22
781.176	298.83
781.358	329.55
781.54	321.36
781.721	327.5
781.903	239.44
782.085	327.5
782.267	323.41
782.448	280.4
782.63	366.42
782.812	319.31
782.993	290.64
783.175	298.83
783.357	309.07
783.538	376.66
783.72	331.6
783.901	227.15
784.083	266.07
784.264	333.65
784.446	315.22
784.627	311.12
784.809	208.72
784.99	347.98
785.172	296.78
785.353	280.4
785.535	339.79
785.716	341.84
785.897	192.34
786.079	223.06
786.26	206.67
786.441	288.59
786.623	266.07
786.804	280.4
786.985	276.31
787.167	212.82
787.348	290.64
787.529	272.21
787.71	266.07
787.891	280.4
788.073	247.63
788.254	304.98
788.435	235.35
788.616	276.31
788.797	192.34
788.978	280.4
789.159	229.2
789.34	251.73
789.522	257.87
789.703	272.21
789.884	268.11
790.065	276.31
790.246	237.39
790.427	243.54
790.607	225.11
790.788	186.19
790.969	159.57
791.15	204.63
791.331	184.15
791.512	247.63
791.693	245.59
791.874	186.19
792.054	296.78
792.235	182.1
792.416	178
792.597	202.58
792.778	149.33
792.958	261.97
793.139	223.06
793.32	135
793.5	141.14
793.681	241.49
793.862	108.37
794.042	161.62
794.223	198.48
794.404	112.47
794.584	149.33
794.765	206.67
794.945	182.1
795.126	231.25
795.306	229.2
795.487	227.15
795.667	204.63
795.848	223.06
796.028	169.81
796.209	208.72
796.389	167.76
796.57	182.1
796.75	206.67
796.93	135
797.111	143.19
797.291	184.15
797.471	202.58
797.652	216.91
797.832	116.56
798.012	223.06
798.192	118.61
798.373	153.43
798.553	141.14
798.733	75.6
798.913	153.43
799.093	151.38
799.274	163.67
799.454	151.38
799.634	175.95
799.814	132.95
799.994	151.38
800.174	216.91
800.354	169.81
800.534	190.29
800.714	192.34
800.894	149.33
801.074	171.86
801.254	202.58
801.434	180.05
801.614	151.38
801.794	77.65
801.974	345.94
802.154	225.11
802.334	208.72
802.514	118.61
802.693	75.6
802.873	128.85
803.053	200.53
803.233	225.11
803.413	124.76
803.592	151.38
803.772	126.8
803.952	137.04
804.131	81.75
804.311	53.08
804.491	137.04
804.67	171.86
804.85	143.19
805.03	137.04
805.209	161.62
805.389	91.99
805.568	173.91
805.748	135
805.928	165.71
806.107	110.42
806.287	100.18
806.466	108.37
806.646	108.37
806.825	91.99
807.004	89.94
807.184	157.52
807.363	61.27
807.543	182.1
807.722	71.51
807.901	157.52
808.081	91.99
808.26	173.91
808.439	81.75
808.619	124.76
808.798	161.62
808.977	130.9
809.156	114.52
809.336	79.7
809.515	81.75
809.694	180.05
809.873	81.75
810.052	81.75
810.231	53.08
810.411	91.99
810.59	22.36
810.769	91.99
810.948	118.61
811.127	69.46
811.306	96.08
811.485	94.04
811.664	116.56
811.843	137.04
812.022	116.56
812.201	159.57
812.38	57.17
812.559	91.99
812.737	104.28
812.916	28.5
813.095	55.12
813.274	12.12
813.453	108.37
813.632	44.88
813.811	106.32
813.989	124.76
814.168	69.46
814.347	28.5
814.526	141.14
814.704	102.23
814.883	135
815.062	20.31
815.24	137.04
815.419	-4.27
815.598	102.23
815.776	141.14
815.955	100.18
816.133	100.18
816.312	110.42
816.49	59.22
816.669	132.95
816.847	94.04
817.026	8.02
817.204	100.18
817.383	51.03
817.561	96.08
817.74	147.28
817.918	83.8
818.097	10.07
818.275	59.22
818.453	96.08
818.632	112.47
818.81	44.88
818.988	75.6
819.167	53.08
819.345	59.22
819.523	116.56
819.701	69.46
819.879	102.23
820.058	24.4
820.236	22.36
820.414	36.69
820.592	34.64
820.77	87.89
820.948	77.65
821.127	73.56
821.305	57.17
821.483	38.74
821.661	48.98
821.839	55.12
822.017	61.27
822.195	30.55
822.373	-16.55
822.551	65.36
822.729	161.62
822.907	59.22
823.085	128.85
823.262	-30.89
823.44	59.22
823.618	61.27
823.796	71.51
823.974	36.69
824.152	55.12
824.329	53.08
824.507	112.47
824.685	141.14
824.863	53.08
825.04	51.03
825.218	100.18
825.396	22.36
825.574	59.22
825.751	77.65
825.929	77.65
826.107	128.85
826.284	16.21
826.462	69.46
826.639	110.42
826.817	143.19
826.994	59.22
827.172	36.69
827.349	83.8
827.527	83.8
827.704	91.99
827.882	110.42
828.059	42.84
828.237	69.46
828.414	61.27
828.591	30.55
828.769	98.13
828.946	26.45
829.124	102.23
829.301	79.7
829.478	63.32
829.655	85.84
829.833	79.7
830.01	132.95
830.187	36.69
830.364	44.88
830.542	77.65
830.719	79.7
830.896	18.26
831.073	24.4
831.25	65.36
831.427	53.08
831.604	91.99
831.782	67.41
831.959	73.56
832.136	-16.55
832.313	38.74
832.49	63.32
832.667	20.31
832.844	48.98
833.021	85.84
833.198	-18.6
833.374	53.08
833.551	91.99
833.728	12.12
833.905	22.36
834.082	44.88
834.259	85.84
834.436	34.64
834.612	28.5
834.789	3.93
834.966	55.12
835.143	38.74
835.319	28.5
835.496	55.12
835.673	102.23
835.85	59.22
836.026	44.88
836.203	141.14
836.38	1.88
836.556	46.93
836.733	-4.27
836.909	14.17
837.086	38.74
837.262	28.5
837.439	34.64
837.616	26.45
837.792	55.12
837.968	100.18
838.145	48.98
838.321	38.74
838.498	1.88
838.674	108.37
838.851	71.51
839.027	77.65
839.203	8.02
839.38	91.99
839.556	96.08
839.732	36.69
839.909	89.94
840.085	51.03
840.261	-22.7
840.437	75.6
840.614	102.23
840.79	42.84
840.966	40.79
841.142	18.26
841.318	100.18
841.494	48.98
841.671	14.17
841.847	-2.22
842.023	59.22
842.199	67.41
842.375	59.22
842.551	46.93
842.727	51.03
842.903	89.94
843.079	3.93
843.255	75.6
843.431	59.22
843.607	10.07
843.783	61.27
843.959	51.03
844.134	40.79
844.31	118.61
844.486	79.7
844.662	-22.7
844.838	108.37
845.013	83.8
845.189	77.65
845.365	34.64
845.541	51.03
845.716	1.88
845.892	38.74
846.068	14.17
846.244	-18.6
846.419	5.97
846.595	8.02
846.77	71.51
846.946	-0.17
847.122	-30.89
847.297	26.45
847.473	65.36
847.648	38.74
847.824	34.64
847.999	-18.6
848.175	36.69
848.35	-12.46
848.526	96.08
848.701	71.51
848.876	83.8
849.052	-6.31
849.227	-14.51
849.403	30.55
849.578	34.64
849.753	77.65
849.929	61.27
850.104	71.51
850.279	38.74
850.454	12.12
850.63	63.32
850.805	77.65
850.98	20.31
851.155	10.07
851.33	10.07
851.505	-0.17
851.681	102.23
851.856	-22.7
852.031	53.08
852.206	20.31
852.381	57.17
852.556	51.03
852.731	55.12
852.906	-69.8
853.081	100.18
853.256	65.36
853.431	44.88
853.606	67.41
853.781	34.64
853.956	-2.22
854.131	55.12
854.305	69.46
854.48	12.12
854.655	3.93
854.83	100.18
855.005	16.21
855.18	114.52
855.354	38.74
855.529	26.45
855.704	36.69
855.879	12.12
856.053	85.84
856.228	-6.31
856.403	28.5
856.577	8.02
856.752	-47.27
856.926	22.36
857.101	-6.31
857.276	8.02
857.45	24.4
857.625	-37.03
857.799	26.45
857.974	44.88
858.148	71.51
858.323	1.88
858.497	28.5
858.672	22.36
858.846	18.26
859.02	77.65
859.195	114.52
859.369	-37.03
859.543	51.03
859.718	-26.79
859.892	22.36
860.066	16.21
860.241	-92.33
860.415	79.7
860.589	36.69
860.763	24.4
860.938	59.22
861.112	-59.56
861.286	-55.47
861.46	91.99
861.634	-43.18
861.808	44.88
861.982	24.4
862.157	53.08
862.331	10.07
862.505	59.22
862.679	67.41
862.853	32.6
863.027	36.69
863.201	46.93
863.375	65.36
863.549	32.6
863.722	106.32
863.896	96.08
864.07	34.64
864.244	51.03
864.418	22.36
864.592	22.36
864.766	-10.41
864.939	-34.99
865.113	1.88
865.287	61.27
865.461	-39.08
865.634	34.64
865.808	57.17
865.982	1.88
866.156	-8.36
866.329	51.03
866.503	-102.57
866.676	59.22
866.85	14.17
867.024	73.56
867.197	36.69
867.371	36.69
867.544	12.12
867.718	28.5
867.891	14.17
868.065	-10.41
868.238	73.56
868.412	59.22
868.585	51.03
868.759	-45.23
868.932	-57.51
869.105	24.4
869.279	8.02
869.452	106.32
869.625	34.64
869.799	12.12
869.972	34.64
870.145	75.6
870.319	-16.55
870.492	65.36
870.665	-22.7
870.838	44.88
871.011	79.7
871.185	-8.36
871.358	8.02
871.531	34.64
871.704	3.93
871.877	42.84
872.05	-6.31
872.223	-2.22
872.396	3.93
872.569	51.03
872.742	51.03
872.915	18.26
873.088	26.45
873.261	-63.66
873.434	12.12
873.607	-12.46
873.78	51.03
873.953	20.31
874.126	14.17
874.299	8.02
874.471	-8.36
874.644	38.74
874.817	53.08
874.99	69.46
875.163	-14.51
875.335	55.12
875.508	14.17
875.681	-0.17
875.853	51.03
876.026	55.12
876.199	53.08
876.371	18.26
876.544	20.31
876.717	-73.9
876.889	-39.08
877.062	-49.32
877.234	-0.17
877.407	-6.31
877.579	-22.7
877.752	46.93
877.924	42.84
878.097	-30.89
878.269	30.55
878.442	51.03
878.614	-22.7
878.786	26.45
878.959	57.17
879.131	-18.6
879.303	71.51
879.476	-30.89
879.648	85.84
879.82	61.27
879.993	-34.99
880.165	10.07
880.337	-2.22
880.509	51.03
880.681	61.27
880.854	53.08
881.026	-14.51
881.198	-67.75
881.37	-14.51
881.542	48.98
881.714	-4.27
881.886	-28.84
882.058	-0.17
882.23	-26.79
882.402	10.07
882.574	-18.6
882.746	36.69
882.918	-22.7
883.09	28.5
883.262	36.69
883.434	-26.79
883.606	42.84
883.778	61.27
883.95	63.32
884.122	10.07
884.293	34.64
884.465	3.93
884.637	-6.31
884.809	30.55
884.98	3.93
885.152	30.55
885.324	18.26
885.496	-18.6
885.667	91.99
885.839	-16.55
886.011	36.69
886.182	48.98
886.354	16.21
886.525	-45.23
886.697	44.88
886.869	24.4
887.04	100.18
887.212	28.5
887.383	69.46
887.555	79.7
887.726	36.69
887.897	65.36
888.069	-18.6
888.24	61.27
888.412	-112.81
888.583	18.26
888.754	40.79
888.926	79.7
889.097	46.93
889.268	-22.7
889.44	46.93
889.611	-53.42
889.782	-98.47
889.953	-37.03
890.125	-39.08
890.296	-20.65
890.467	-2.22
890.638	-22.7
890.809	51.03
890.98	-4.27
891.151	57.17
891.323	1.88
891.494	-12.46
891.665	53.08
891.836	34.64
892.007	-43.18
892.178	77.65
892.349	12.12
892.52	-45.23
892.691	34.64
892.862	112.47
893.032	-4.27
893.203	-10.41
893.374	26.45
893.545	-4.27
893.716	32.6
893.887	22.36
894.057	-2.22
894.228	28.5
894.399	10.07
894.57	26.45
894.74	32.6
894.911	46.93
895.082	3.93
895.253	34.64
895.423	61.27
895.594	36.69
895.764	-10.41
895.935	130.9
896.106	61.27
896.276	38.74
896.447	26.45
896.617	12.12
896.788	34.64
896.958	28.5
897.129	-14.51
897.299	55.12
897.47	42.84
897.64	55.12
897.81	-24.75
897.981	38.74
898.151	16.21
898.322	1.88
898.492	-18.6
898.662	-22.7
898.832	-28.84
899.003	-6.31
899.173	26.45
899.343	71.51
899.513	-14.51
