Data from USB4F104151__218__14-00-10-963.txt Node

Date: Thu Mar 13 14:00:10 EDT 2025
User: louis
Spectrometer: USB4F10415
Trigger mode: 4
Integration Time (sec): 1.000000E-2
Scans to average: 1
Electric dark correction enabled: true
Nonlinearity correction enabled: false
Boxcar width: 0
XAxis mode: Wavelengths
Number of Pixels in Spectrum: 3648
>>>>>Begin Spectral Data<<<<<
178.204	-38.06
178.424	-38.06
178.644	-38.06
178.864	-72.87
179.084	-7.34
179.304	29.52
179.524	9.05
179.744	-40.11
179.964	-31.91
180.184	-5.29
180.404	43.86
180.624	-48.3
180.844	-25.77
181.064	27.48
181.283	0.85
181.503	80.72
181.723	-40.11
181.943	-25.77
182.163	72.53
182.383	47.96
182.602	56.15
182.822	64.34
183.042	70.48
183.262	2.9
183.482	31.57
183.701	31.57
183.921	88.92
184.141	-7.34
184.361	33.62
184.58	23.38
184.8	66.39
185.02	-7.34
185.239	-17.58
185.459	50
185.679	-1.19
185.898	-7.34
186.118	131.92
186.338	15.19
186.557	-7.34
186.777	31.57
186.997	31.57
187.216	-23.72
187.436	82.77
187.655	17.24
187.875	86.87
188.095	-9.39
188.314	93.01
188.534	-29.87
188.753	35.67
188.973	64.34
189.192	19.29
189.412	-23.72
189.631	-68.78
189.851	-1.19
190.07	39.76
190.29	31.57
190.509	-40.11
190.729	70.48
190.948	7
191.168	70.48
191.387	-3.24
191.607	64.34
191.826	-19.63
192.045	-44.2
192.265	11.09
192.484	19.29
192.704	41.81
192.923	-19.63
193.142	41.81
193.362	-27.82
193.581	0.85
193.8	39.76
194.02	-33.96
194.239	-58.54
194.458	68.44
194.678	-15.53
194.897	-7.34
195.116	-5.29
195.335	-23.72
195.555	76.63
195.774	23.38
195.993	15.19
196.212	0.85
196.432	7
196.651	-23.72
196.87	60.24
197.089	93.01
197.308	9.05
197.528	15.19
197.747	-3.24
197.966	-9.39
198.185	17.24
198.404	7
198.623	54.1
198.842	64.34
199.062	23.38
199.281	88.92
199.5	11.09
199.719	-50.35
199.938	66.39
200.157	11.09
200.376	-38.06
200.595	72.53
200.814	21.33
201.033	27.48
201.252	-27.82
201.471	-9.39
201.69	70.48
201.909	90.96
202.128	-9.39
202.347	39.76
202.566	19.29
202.785	17.24
203.004	23.38
203.223	31.57
203.442	9.05
203.661	9.05
203.879	21.33
204.098	107.35
204.317	4.95
204.536	15.19
204.755	47.96
204.974	90.96
205.193	15.19
205.411	58.2
205.63	60.24
205.849	54.1
206.068	-46.25
206.287	80.72
206.505	39.76
206.724	31.57
206.943	43.86
207.162	39.76
207.381	-9.39
207.599	27.48
207.818	31.57
208.037	13.14
208.255	-13.48
208.474	54.1
208.693	-13.48
208.911	21.33
209.13	-7.34
209.349	80.72
209.567	35.67
209.786	37.72
210.005	-23.72
210.223	-7.34
210.442	52.05
210.661	82.77
210.879	31.57
211.098	31.57
211.316	66.39
211.535	23.38
211.753	-31.91
211.972	7
212.191	35.67
212.409	58.2
212.628	37.72
212.846	19.29
213.065	15.19
213.283	27.48
213.502	43.86
213.72	-9.39
213.938	19.29
214.157	-19.63
214.375	29.52
214.594	4.95
214.812	70.48
215.031	-13.48
215.249	-54.44
215.467	43.86
215.686	4.95
215.904	9.05
216.122	23.38
216.341	66.39
216.559	21.33
216.778	15.19
216.996	33.62
217.214	-17.58
217.432	39.76
217.651	39.76
217.869	-19.63
218.087	25.43
218.306	31.57
218.524	45.91
218.742	2.9
218.96	-3.24
219.179	-9.39
219.397	107.35
219.615	33.62
219.833	50
220.051	-17.58
220.27	117.59
220.488	39.76
220.706	19.29
220.924	0.85
221.142	15.19
221.36	-13.48
221.578	31.57
221.796	74.58
222.015	-17.58
222.233	33.62
222.451	76.63
222.669	41.81
222.887	11.09
223.105	-5.29
223.323	56.15
223.541	-9.39
223.759	35.67
223.977	-13.48
224.195	-38.06
224.413	86.87
224.631	60.24
224.849	-1.19
225.067	66.39
225.285	-7.34
225.503	99.16
225.721	-95.4
225.939	23.38
226.157	21.33
226.375	31.57
226.592	56.15
226.81	80.72
227.028	-17.58
227.246	117.59
227.464	58.2
227.682	23.38
227.9	-1.19
228.117	90.96
228.335	62.29
228.553	-11.43
228.771	-19.63
228.989	41.81
229.206	52.05
229.424	66.39
229.642	11.09
229.86	-5.29
230.077	76.63
230.295	121.68
230.513	43.86
230.731	-11.43
230.948	37.72
231.166	62.29
231.384	25.43
231.601	52.05
231.819	131.92
232.037	21.33
232.254	15.19
232.472	2.9
232.689	58.2
232.907	31.57
233.125	-15.53
233.342	50
233.56	35.67
233.777	27.48
233.995	7
234.213	60.24
234.43	50
234.648	-7.34
234.865	43.86
235.083	-17.58
235.3	2.9
235.518	39.76
235.735	56.15
235.953	15.19
236.17	35.67
236.388	15.19
236.605	25.43
236.822	74.58
237.04	56.15
237.257	-11.43
237.475	-11.43
237.692	23.38
237.909	72.53
238.127	-9.39
238.344	74.58
238.562	84.82
238.779	-13.48
238.996	-9.39
239.214	17.24
239.431	-42.15
239.648	17.24
239.865	-17.58
240.083	31.57
240.3	-5.29
240.517	90.96
240.735	15.19
240.952	76.63
241.169	29.52
241.386	50
241.603	-3.24
241.821	13.14
242.038	39.76
242.255	-29.87
242.472	52.05
242.689	97.11
242.907	88.92
243.124	27.48
243.341	76.63
243.558	43.86
243.775	43.86
243.992	15.19
244.209	72.53
244.426	31.57
244.643	13.14
244.86	-15.53
245.078	9.05
245.295	23.38
245.512	19.29
245.729	-33.96
245.946	-52.39
246.163	9.05
246.38	88.92
246.597	-11.43
246.814	43.86
247.031	60.24
247.248	109.4
247.464	52.05
247.681	52.05
247.898	-7.34
248.115	21.33
248.332	82.77
248.549	88.92
248.766	2.9
248.983	64.34
249.2	43.86
249.417	45.91
249.633	13.14
249.85	43.86
250.067	15.19
250.284	64.34
250.501	31.57
250.717	90.96
250.934	-36.01
251.151	37.72
251.368	-29.87
251.585	80.72
251.801	21.33
252.018	17.24
252.235	9.05
252.451	15.19
252.668	56.15
252.885	58.2
253.102	23.38
253.318	39.76
253.535	76.63
253.752	2.9
253.968	-21.67
254.185	-33.96
254.401	21.33
254.618	117.59
254.835	-64.68
255.051	23.38
255.268	74.58
255.484	56.15
255.701	29.52
255.917	25.43
256.134	-11.43
256.351	25.43
256.567	-21.67
256.784	80.72
257	41.81
257.217	15.19
257.433	66.39
257.65	27.48
257.866	80.72
258.082	-5.29
258.299	21.33
258.515	9.05
258.732	25.43
258.948	7
259.165	41.81
259.381	35.67
259.597	58.2
259.814	39.76
260.03	-38.06
260.246	-66.73
260.463	76.63
260.679	2.9
260.895	74.58
261.112	56.15
261.328	0.85
261.544	-9.39
261.761	84.82
261.977	58.2
262.193	-23.72
262.409	72.53
262.626	-1.19
262.842	109.4
263.058	-1.19
263.274	0.85
263.49	39.76
263.707	39.76
263.923	90.96
264.139	119.64
264.355	31.57
264.571	39.76
264.787	45.91
265.004	56.15
265.22	64.34
265.436	37.72
265.652	39.76
265.868	78.68
266.084	39.76
266.3	33.62
266.516	43.86
266.732	33.62
266.948	35.67
267.164	27.48
267.38	17.24
267.596	66.39
267.812	27.48
268.028	60.24
268.244	0.85
268.46	45.91
268.676	43.86
268.892	72.53
269.108	25.43
269.324	58.2
269.54	-15.53
269.756	43.86
269.972	72.53
270.188	50
270.403	-17.58
270.619	23.38
270.835	47.96
271.051	50
271.267	31.57
271.483	27.48
271.698	-5.29
271.914	64.34
272.13	39.76
272.346	-1.19
272.562	64.34
272.777	60.24
272.993	0.85
273.209	47.96
273.425	31.57
273.64	129.88
273.856	19.29
274.072	-33.96
274.287	31.57
274.503	129.88
274.719	31.57
274.934	11.09
275.15	50
275.366	56.15
275.581	31.57
275.797	56.15
276.012	4.95
276.228	39.76
276.444	45.91
276.659	78.68
276.875	86.87
277.09	97.11
277.306	0.85
277.521	43.86
277.737	37.72
277.952	29.52
278.168	29.52
278.383	43.86
278.599	39.76
278.814	35.67
279.03	-17.58
279.245	80.72
279.461	45.91
279.676	90.96
279.892	31.57
280.107	101.2
280.322	19.29
280.538	-9.39
280.753	117.59
280.969	56.15
281.184	-21.67
281.399	4.95
281.615	82.77
281.83	-5.29
282.045	68.44
282.26	62.29
282.476	39.76
282.691	54.1
282.906	19.29
283.122	50
283.337	66.39
283.552	107.35
283.767	88.92
283.983	0.85
284.198	17.24
284.413	25.43
284.628	-46.25
284.843	35.67
285.058	19.29
285.274	93.01
285.489	19.29
285.704	-74.92
285.919	60.24
286.134	39.76
286.349	70.48
286.564	-19.63
286.779	97.11
286.995	115.54
287.21	33.62
287.425	17.24
287.64	7
287.855	68.44
288.07	19.29
288.285	123.73
288.5	60.24
288.715	52.05
288.93	25.43
289.145	50
289.36	35.67
289.575	29.52
289.79	-3.24
290.004	41.81
290.219	17.24
290.434	58.2
290.649	-46.25
290.864	56.15
291.079	39.76
291.294	90.96
291.509	-11.43
291.724	93.01
291.938	47.96
292.153	43.86
292.368	23.38
292.583	31.57
292.798	66.39
293.012	58.2
293.227	58.2
293.442	72.53
293.657	33.62
293.871	68.44
294.086	52.05
294.301	117.59
294.516	41.81
294.73	115.54
294.945	23.38
295.16	41.81
295.374	43.86
295.589	13.14
295.804	64.34
296.018	35.67
296.233	56.15
296.447	99.16
296.662	35.67
296.877	23.38
297.091	103.25
297.306	88.92
297.52	50
297.735	23.38
297.949	-3.24
298.164	58.2
298.378	45.91
298.593	64.34
298.807	58.2
299.022	88.92
299.236	101.2
299.451	39.76
299.665	62.29
299.88	90.96
300.094	9.05
300.309	50
300.523	62.29
300.737	111.44
300.952	19.29
301.166	62.29
301.381	82.77
301.595	50
301.809	72.53
302.024	45.91
302.238	21.33
302.452	62.29
302.667	-21.67
302.881	105.3
303.095	19.29
303.309	-9.39
303.524	50
303.738	7
303.952	13.14
304.166	39.76
304.381	-52.39
304.595	47.96
304.809	2.9
305.023	-23.72
305.237	52.05
305.452	62.29
305.666	62.29
305.88	78.68
306.094	39.76
306.308	66.39
306.522	39.76
306.736	54.1
306.95	29.52
307.164	-5.29
307.379	4.95
307.593	-46.25
307.807	-3.24
308.021	90.96
308.235	50
308.449	11.09
308.663	66.39
308.877	2.9
309.091	47.96
309.305	80.72
309.519	-21.67
309.733	-3.24
309.947	13.14
310.161	-33.96
310.374	23.38
310.588	41.81
310.802	-23.72
311.016	80.72
311.23	39.76
311.444	-21.67
311.658	2.9
311.872	37.72
312.085	52.05
312.299	25.43
312.513	-42.15
312.727	66.39
312.941	60.24
313.154	37.72
313.368	25.43
313.582	72.53
313.796	58.2
314.009	50
314.223	47.96
314.437	64.34
314.651	-9.39
314.864	66.39
315.078	31.57
315.292	60.24
315.505	-42.15
315.719	86.87
315.933	47.96
316.146	-1.19
316.36	90.96
316.573	99.16
316.787	31.57
317.001	37.72
317.214	50
317.428	35.67
317.641	82.77
317.855	68.44
318.068	43.86
318.282	142.16
318.495	-33.96
318.709	99.16
318.922	0.85
319.136	93.01
319.349	162.64
319.563	47.96
319.776	72.53
319.99	21.33
320.203	-52.39
320.417	115.54
320.63	80.72
320.843	56.15
321.057	80.72
321.27	54.1
321.483	93.01
321.697	47.96
321.91	23.38
322.124	56.15
322.337	-17.58
322.55	56.15
322.763	56.15
322.977	23.38
323.19	7
323.403	58.2
323.617	-9.39
323.83	13.14
324.043	80.72
324.256	82.77
324.469	-17.58
324.683	-17.58
324.896	66.39
325.109	72.53
325.322	-17.58
325.535	21.33
325.748	13.14
325.962	64.34
326.175	72.53
326.388	41.81
326.601	2.9
326.814	52.05
327.027	60.24
327.24	19.29
327.453	76.63
327.666	-11.43
327.879	25.43
328.092	11.09
328.305	33.62
328.518	80.72
328.731	52.05
328.944	74.58
329.157	93.01
329.37	31.57
329.583	60.24
329.796	74.58
330.009	13.14
330.222	99.16
330.435	2.9
330.648	39.76
330.861	52.05
331.073	74.58
331.286	31.57
331.499	76.63
331.712	29.52
331.925	97.11
332.138	9.05
332.35	-5.29
332.563	45.91
332.776	72.53
332.989	60.24
333.202	76.63
333.414	-3.24
333.627	25.43
333.84	7
334.053	80.72
334.265	31.57
334.478	95.06
334.691	64.34
334.903	88.92
335.116	-9.39
335.329	4.95
335.541	45.91
335.754	25.43
335.966	7
336.179	109.4
336.392	23.38
336.604	27.48
336.817	80.72
337.029	15.19
337.242	43.86
337.454	50
337.667	72.53
337.88	47.96
338.092	0.85
338.305	33.62
338.517	47.96
338.729	58.2
338.942	70.48
339.154	88.92
339.367	66.39
339.579	17.24
339.792	88.92
340.004	50
340.217	19.29
340.429	72.53
340.641	-17.58
340.854	52.05
341.066	74.58
341.278	41.81
341.491	43.86
341.703	9.05
341.915	43.86
342.128	7
342.34	25.43
342.552	62.29
342.764	47.96
342.977	31.57
343.189	60.24
343.401	58.2
343.613	115.54
343.826	41.81
344.038	4.95
344.25	64.34
344.462	41.81
344.674	72.53
344.886	-1.19
345.099	39.76
345.311	78.68
345.523	50
345.735	37.72
345.947	80.72
346.159	39.76
346.371	56.15
346.583	52.05
346.795	64.34
347.007	-33.96
347.219	88.92
347.431	0.85
347.643	72.53
347.855	15.19
348.067	64.34
348.279	70.48
348.491	107.35
348.703	9.05
348.915	66.39
349.127	37.72
349.339	-36.01
349.551	27.48
349.763	43.86
349.975	39.76
350.187	47.96
350.399	99.16
350.61	101.2
350.822	56.15
351.034	43.86
351.246	37.72
351.458	-15.53
351.669	17.24
351.881	43.86
352.093	74.58
352.305	72.53
352.517	68.44
352.728	103.25
352.94	-3.24
353.152	-3.24
353.363	-5.29
353.575	74.58
353.787	140.12
353.999	33.62
354.21	68.44
354.422	52.05
354.633	29.52
354.845	60.24
355.057	37.72
355.268	76.63
355.48	52.05
355.692	86.87
355.903	86.87
356.115	60.24
356.326	50
356.538	58.2
356.749	11.09
356.961	52.05
357.172	0.85
357.384	68.44
357.595	74.58
357.807	103.25
358.018	23.38
358.23	52.05
358.441	93.01
358.653	35.67
358.864	31.57
359.075	25.43
359.287	43.86
359.498	23.38
359.709	97.11
359.921	97.11
360.132	54.1
360.344	88.92
360.555	0.85
360.766	68.44
360.977	25.43
361.189	60.24
361.4	103.25
361.611	111.44
361.823	101.2
362.034	25.43
362.245	17.24
362.456	72.53
362.667	74.58
362.879	109.4
363.09	50
363.301	99.16
363.512	76.63
363.723	25.43
363.935	76.63
364.146	90.96
364.357	86.87
364.568	82.77
364.779	2.9
364.99	-15.53
365.201	27.48
365.412	84.82
365.623	56.15
365.834	58.2
366.045	17.24
366.256	15.19
366.467	-7.34
366.678	64.34
366.889	99.16
367.1	0.85
367.311	9.05
367.522	113.49
367.733	58.2
367.944	45.91
368.155	4.95
368.366	9.05
368.577	84.82
368.788	62.29
368.999	2.9
369.209	-15.53
369.42	45.91
369.631	64.34
369.842	101.2
370.053	17.24
370.264	33.62
370.474	54.1
370.685	2.9
370.896	56.15
371.107	56.15
371.317	35.67
371.528	68.44
371.739	7
371.95	27.48
372.16	47.96
372.371	45.91
372.582	88.92
372.792	27.48
373.003	64.34
373.214	101.2
373.424	70.48
373.635	41.81
373.846	62.29
374.056	58.2
374.267	50
374.477	72.53
374.688	82.77
374.898	-19.63
375.109	13.14
375.319	121.68
375.53	131.92
375.74	52.05
375.951	103.25
376.161	111.44
376.372	43.86
376.582	72.53
376.793	2.9
377.003	-3.24
377.214	35.67
377.424	9.05
377.635	64.34
377.845	41.81
378.055	90.96
378.266	-25.77
378.476	35.67
378.686	54.1
378.897	52.05
379.107	47.96
379.317	105.3
379.528	29.52
379.738	80.72
379.948	39.76
380.158	107.35
380.369	103.25
380.579	101.2
380.789	11.09
380.999	80.72
381.21	29.52
381.42	7
381.63	2.9
381.84	56.15
382.05	41.81
382.261	123.73
382.471	25.43
382.681	80.72
382.891	15.19
383.101	80.72
383.311	88.92
383.521	50
383.731	80.72
383.941	74.58
384.151	76.63
384.361	107.35
384.571	68.44
384.781	47.96
384.991	43.86
385.201	99.16
385.411	43.86
385.621	101.2
385.831	52.05
386.041	45.91
386.251	39.76
386.461	103.25
386.671	117.59
386.881	60.24
387.091	50
387.301	39.76
387.511	21.33
387.72	31.57
387.93	86.87
388.14	90.96
388.35	62.29
388.56	105.3
388.769	45.91
388.979	23.38
389.189	37.72
389.399	88.92
389.609	113.49
389.818	129.88
390.028	72.53
390.238	156.5
390.447	39.76
390.657	43.86
390.867	19.29
391.076	76.63
391.286	56.15
391.496	66.39
391.705	17.24
391.915	119.64
392.125	121.68
392.334	74.58
392.544	41.81
392.753	78.68
392.963	168.79
393.172	76.63
393.382	41.81
393.591	123.73
393.801	58.2
394.01	107.35
394.22	52.05
394.429	84.82
394.639	33.62
394.848	82.77
395.058	117.59
395.267	131.92
395.477	45.91
395.686	152.4
395.895	140.12
396.105	123.73
396.314	54.1
396.524	95.06
396.733	72.53
396.942	176.98
397.152	125.78
397.361	74.58
397.57	70.48
397.78	66.39
397.989	121.68
398.198	136.02
398.407	66.39
398.617	150.36
398.826	31.57
399.035	68.44
399.244	88.92
399.453	136.02
399.663	93.01
399.872	99.16
400.081	144.21
400.29	113.49
400.499	99.16
400.708	121.68
400.917	70.48
401.127	101.2
401.336	82.77
401.545	166.74
401.754	103.25
401.963	185.17
402.172	140.12
402.381	174.93
402.59	136.02
402.799	62.29
403.008	150.36
403.217	107.35
403.426	117.59
403.635	109.4
403.844	121.68
404.053	115.54
404.262	209.75
404.471	138.07
404.68	127.83
404.888	195.41
405.097	246.61
405.306	176.98
405.515	181.07
405.724	179.03
405.933	164.69
406.142	179.03
406.35	117.59
406.559	176.98
406.768	183.12
406.977	201.55
407.185	215.89
407.394	230.23
407.603	228.18
407.812	308.05
408.02	236.37
408.229	197.46
408.438	260.95
408.646	283.47
408.855	248.66
409.064	219.99
409.272	228.18
409.481	291.66
409.69	318.29
409.898	301.9
410.107	342.86
410.315	398.16
410.524	308.05
410.733	330.58
410.941	359.25
411.15	420.69
411.358	355.15
411.567	389.97
411.775	340.82
411.984	449.36
412.192	455.5
412.401	480.08
412.609	473.93
412.818	506.7
413.026	529.23
413.234	541.52
413.443	545.61
413.651	551.76
413.86	527.18
414.068	678.73
414.276	605
414.485	539.47
414.693	629.58
414.901	658.25
415.11	674.64
415.318	688.97
415.526	805.71
415.734	721.74
415.943	772.94
416.151	875.34
416.359	834.38
416.567	901.96
416.776	844.62
416.984	957.25
417.192	992.07
417.4	1020.74
417.608	1053.51
417.817	1026.89
418.025	1063.75
418.233	1133.38
418.441	1073.99
418.649	1231.68
418.857	1276.74
419.065	1334.08
419.273	1315.65
419.481	1411.9
419.689	1342.27
419.897	1489.73
420.105	1575.74
420.313	1483.58
420.521	1577.79
420.729	1669.95
420.937	1628.99
421.145	1723.2
421.353	1934.14
421.561	1948.47
421.769	1958.71
421.977	2003.77
422.185	1909.56
422.393	2181.94
422.601	2288.43
422.809	2222.9
423.017	2308.91
423.224	2333.49
423.432	2407.22
423.64	2435.89
423.848	2714.41
424.056	2626.35
424.263	2800.43
424.471	2685.74
424.679	2843.43
424.887	2972.46
425.094	3058.47
425.302	3177.25
425.51	3228.45
425.718	3341.09
425.925	3408.67
426.133	3400.48
426.341	3765.02
426.548	3822.36
426.756	3873.56
426.964	3996.44
427.171	4211.48
427.379	4227.86
427.586	4340.5
427.794	4487.95
428.001	4698.89
428.209	4801.29
428.417	4698.89
428.624	5045
428.832	5131.02
429.039	4922.12
429.247	4932.36
429.454	5622.53
429.662	5896.96
429.869	5522.18
430.076	5970.68
430.284	5561.09
430.491	6009.59
430.699	6359.8
430.906	6308.6
431.114	6337.27
431.321	6650.61
431.528	6759.15
431.736	7344.87
431.943	7486.18
432.15	7330.53
432.358	7289.57
432.565	7848.67
432.772	7799.52
432.979	8327.89
433.187	8375
433.394	8522.45
433.601	8917.71
433.808	8940.24
434.016	8784.59
434.223	9306.82
434.43	9888.45
434.637	9769.66
434.844	10343.1
435.052	10771.12
435.259	10334.9
435.466	10556.08
435.673	10345.14
435.88	10988.21
436.087	11856.54
436.294	11645.6
436.501	11387.56
436.708	11473.57
436.915	11983.52
437.122	12597.91
437.329	12368.54
437.537	12860.05
437.743	12995.22
437.95	12825.23
438.157	13769.35
438.364	13828.74
438.571	14180.99
438.778	14058.11
438.985	15501.93
439.192	14895.73
439.399	15348.33
439.606	15153.77
439.813	16165.47
440.02	16786.01
440.227	16495.19
440.433	16446.04
440.64	16976.47
440.847	16640.6
441.054	17062.48
441.261	18457.15
441.467	18078.27
441.674	18358.85
441.881	18971.19
442.088	18995.76
442.294	18809.4
442.501	19360.3
442.708	19694.12
442.914	20582.94
443.121	21355.02
443.328	20699.67
443.534	22176.26
443.741	21828.1
443.948	21279.25
444.154	23046.65
444.361	22815.23
444.568	22782.46
444.774	22854.14
444.981	23366.13
445.187	23720.43
445.394	24750.56
445.6	24629.73
445.807	27046.33
446.013	25575.89
446.22	26481.09
446.426	27236.79
446.633	27298.23
446.839	28256.68
447.046	27214.26
447.252	28776.86
447.459	28895.64
447.665	28602.78
447.871	29837.71
448.078	31162.75
448.284	29878.67
448.491	30445.96
448.697	31635.83
448.903	32412.01
449.11	32242.03
449.316	31615.35
449.522	32145.77
449.728	33188.19
449.935	33349.98
450.141	33378.65
450.347	34443.59
450.553	32899.42
450.76	33628.5
450.966	34615.62
451.172	34353.48
451.378	35023.17
451.584	34265.42
451.791	35146.05
451.997	35084.61
452.203	35774.77
452.409	35453.24
452.615	35410.23
452.821	34163.02
453.027	34068.81
453.233	35676.47
453.44	34470.22
453.646	34562.37
453.852	34961.73
454.058	35346.75
454.264	33962.32
454.47	34730.31
454.676	34173.26
454.882	35334.46
455.088	32328.04
455.294	32788.83
455.5	33171.8
455.705	33470.81
455.911	32362.86
456.117	31605.11
456.323	31215.99
456.529	29378.97
456.735	30861.69
456.941	29817.23
457.147	29770.13
457.352	28572.07
457.558	28111.27
457.764	28498.34
457.97	27982.25
458.176	27093.43
458.381	27734.45
458.587	25680.33
458.793	26126.79
458.999	24545.76
459.204	26366.4
459.41	25397.71
459.616	24039.91
459.821	24216.04
460.027	23761.39
460.233	23325.17
460.438	22174.21
460.644	22761.98
460.85	21395.98
461.055	21199.38
461.261	21264.91
461.466	19507.76
461.672	19118.64
461.878	20415.01
462.083	18872.89
462.289	18448.96
462.494	18504.25
462.7	17449.55
462.905	17336.91
463.111	17816.13
463.316	17885.76
463.522	17424.97
463.727	17738.31
463.932	17447.5
464.138	17457.74
464.343	17373.77
464.549	16786.01
464.754	17502.79
464.959	17252.94
465.165	17132.11
465.37	16468.57
465.575	16038.5
465.781	16585.3
465.986	17177.17
466.191	16153.18
466.397	15643.24
466.602	15030.9
466.807	15659.62
467.012	15690.34
467.218	15501.93
467.423	15454.83
467.628	15626.85
467.833	16202.33
468.038	15766.12
468.244	14979.7
468.449	15753.83
468.654	15053.42
468.859	15133.29
469.064	15176.3
469.269	14256.76
469.474	14713.46
469.679	14981.74
469.885	14484.09
470.09	14635.64
470.295	14879.35
470.5	14131.84
470.705	14230.14
470.91	14246.52
471.115	13648.52
471.32	13955.71
471.525	13953.66
471.73	13494.92
471.935	13331.08
472.139	12974.74
472.344	13265.55
472.549	13042.32
472.754	12991.12
472.959	12542.61
473.164	12298.91
473.369	12149.4
473.574	12925.58
473.778	12708.5
473.983	12475.03
474.188	12630.68
474.393	11895.46
474.598	11887.26
474.802	11842.21
475.007	11641.51
475.212	11754.15
475.417	11328.17
475.621	11336.36
475.826	11514.53
476.031	11150
476.235	10928.81
476.44	11397.8
476.645	10937.01
476.849	10857.14
477.054	10963.63
477.259	10574.52
477.463	10470.07
477.668	10330.81
477.872	10527.41
478.077	10343.1
478.282	10212.03
478.486	10066.62
478.691	9808.58
478.895	9870.01
479.1	9818.82
479.304	9923.26
479.509	9441.99
479.713	9558.72
479.918	9587.4
480.122	9403.08
480.326	9614.02
480.531	9593.54
480.735	9294.54
480.94	9304.78
481.144	9706.18
481.348	9126.6
481.553	9102.03
481.757	8811.21
481.961	9034.44
482.166	9269.96
482.37	9171.66
482.574	9007.82
482.778	8973
482.983	9284.3
483.187	9089.74
483.391	9093.83
483.595	9204.42
483.8	8907.47
484.004	9290.44
484.208	9161.42
484.412	8975.05
484.616	9165.51
484.821	9030.35
485.025	8985.29
485.229	9304.78
485.433	8966.86
485.637	9067.21
485.841	9112.27
486.045	9097.93
486.249	9075.4
486.453	8999.63
486.657	8970.96
486.861	9099.98
487.065	8702.67
487.269	9061.07
487.473	9081.55
487.677	9001.68
487.881	9138.89
488.085	9272.01
488.289	9204.42
488.493	9140.94
488.697	9132.75
488.901	9272.01
489.105	9067.21
489.309	9315.02
489.512	9179.85
489.716	9433.8
489.92	9155.27
490.124	9218.76
490.328	9384.65
490.531	9188.04
490.735	9380.55
490.939	9306.82
491.143	9163.47
491.346	9460.42
491.55	9554.63
491.754	9675.46
491.958	9708.23
492.161	9441.99
492.365	9802.43
492.569	9534.15
492.772	9779.9
492.976	9874.11
493.18	9900.73
493.383	10134.2
493.587	9890.49
493.79	10169.02
493.994	9874.11
494.197	9882.3
494.401	10050.24
494.605	10107.58
494.808	10445.49
495.012	10525.36
495.215	10308.28
495.419	10613.43
495.622	10474.17
495.825	10597.04
496.029	10545.84
496.232	11039.4
496.436	10805.94
496.639	11063.98
496.843	11123.37
497.046	11414.18
497.249	11430.57
497.453	11555.49
497.656	11674.28
497.859	11618.98
498.063	11625.12
498.266	11995.81
498.469	12063.39
498.673	12135.07
498.876	12350.1
499.079	12552.85
499.282	12481.17
499.485	12688.02
499.689	12819.09
499.892	12894.86
500.095	13050.51
500.298	13380.23
500.501	13136.52
500.705	13632.13
500.908	13863.55
501.111	14105.21
501.314	14209.66
501.517	14310.01
501.72	14508.66
501.923	14647.93
502.126	15063.66
502.329	14922.35
502.532	15182.45
502.735	15086.19
502.938	15542.89
503.141	15565.42
503.344	15792.74
503.547	15948.39
503.75	16216.67
503.953	16573.02
504.156	16456.28
504.359	16861.78
504.562	16900.69
504.765	17349.2
504.968	17416.78
505.17	17613.38
505.373	17859.14
505.576	17941.06
505.779	18299.45
505.982	18328.13
506.185	18850.36
506.387	18975.28
506.59	19122.74
506.793	19696.17
506.996	19548.72
507.198	20171.3
507.401	19851.81
507.604	20212.26
507.807	20441.63
508.009	20865.56
508.212	20812.31
508.415	21176.85
508.617	21533.2
508.82	21658.12
509.022	21846.54
509.225	22571.52
509.428	22288.9
509.63	22659.58
509.833	22528.51
510.035	23499.25
510.238	23181.81
510.44	23712.24
510.643	24369.63
510.845	24158.69
511.048	23986.66
511.25	24973.78
511.453	24984.02
511.655	25518.54
511.858	25516.5
512.06	25993.67
512.262	26042.82
512.465	26139.08
512.667	26730.94
512.87	27070.9
513.072	27083.19
513.274	27943.34
513.477	27900.33
513.679	28141.99
513.881	28905.88
514.084	29006.23
514.286	29043.1
514.488	29454.74
514.69	30130.57
514.893	30208.39
515.095	30480.77
515.297	30747.01
515.499	30914.94
515.701	31375.73
515.904	32000.37
516.106	32141.67
516.308	32309.61
516.51	32924
516.712	32889.18
516.914	33028.45
517.116	33694.04
517.318	33839.44
517.52	34210.12
517.722	34351.43
517.925	34922.82
518.127	35356.99
518.329	35684.66
518.531	35789.11
518.733	36235.56
518.935	36555.05
519.136	36460.84
519.338	37234.97
519.54	37732.63
519.742	37875.99
519.944	37945.62
520.146	38973.7
520.348	38717.7
520.55	39653.62
520.752	39250.17
520.954	40087.79
521.155	39350.52
521.357	40349.93
521.559	40583.4
521.761	41402.59
521.963	41269.47
522.164	41758.94
522.366	41939.16
522.568	42008.79
522.77	42739.91
522.971	42655.95
523.173	43063.49
523.375	43280.58
523.576	43090.12
523.778	43532.48
523.98	44279.99
524.181	44339.38
524.383	44480.69
524.584	44914.86
524.786	45107.37
524.988	44990.63
525.189	45039.78
525.391	45871.26
525.592	46217.36
525.794	46598.29
525.995	46327.95
526.197	46567.57
526.398	46794.89
526.6	46975.11
526.801	46891.15
527.003	47679.61
527.204	47360.13
527.406	48052.34
527.607	47933.56
527.808	48046.2
528.01	47327.36
528.211	48275.57
528.412	49176.68
528.614	48177.27
528.815	48978.03
529.016	49358.95
529.218	48853.1
529.419	49270.89
529.62	49256.55
529.822	49123.43
530.023	49440.87
530.224	49438.82
530.425	49178.73
530.626	49307.75
530.828	49098.86
531.029	50546.77
531.23	49999.96
531.431	49975.39
531.632	50102.36
531.833	50583.63
532.035	50053.21
532.236	50194.52
532.437	50311.25
532.638	50487.38
532.839	50755.66
533.04	50301.01
533.241	50278.49
533.442	51175.5
533.643	50696.27
533.844	50597.97
534.045	51071.05
534.246	50245.72
534.447	50663.5
534.648	50360.4
534.849	50868.3
535.05	50571.35
535.251	50870.35
535.451	50745.42
535.652	50597.97
535.853	50997.32
536.054	51044.43
536.255	50917.45
536.456	50282.58
536.657	51083.34
536.857	50767.95
537.058	50966.6
537.259	50966.6
537.46	50716.75
537.66	50849.87
537.861	50937.93
538.062	50899.02
538.263	51433.54
538.463	50630.74
538.664	50720.85
538.865	51093.58
539.065	51275.85
539.266	50460.76
539.466	51120.2
539.667	50663.5
539.868	51546.18
540.068	51128.39
540.269	50569.3
540.469	51380.29
540.67	50864.21
540.87	50718.8
541.071	51028.04
541.271	50966.6
541.472	51136.59
541.672	50655.31
541.873	50907.21
542.073	50471
542.274	50894.92
542.474	50841.68
542.675	50755.66
542.875	51343.43
543.075	50825.29
543.276	50227.29
543.476	51114.06
543.676	50694.22
543.877	51193.93
544.077	50870.35
544.277	50683.98
544.478	50655.31
544.678	50800.72
544.878	50931.79
545.078	50548.82
545.279	50427.99
545.479	50366.55
545.679	50835.53
545.879	50333.78
546.079	50810.96
546.28	50673.74
546.48	50661.46
546.68	50872.4
546.88	51241.03
547.08	51152.97
547.28	51021.9
547.48	50223.19
547.68	50800.72
547.88	50389.08
548.081	50856.01
548.281	50722.9
548.481	50626.64
548.681	50612.31
548.881	50350.17
549.081	50626.64
549.28	50284.63
549.48	50669.65
549.68	50317.4
549.88	51017.8
550.08	50339.93
550.28	50841.68
550.48	50128.98
550.68	50765.9
550.88	50241.62
551.08	50401.36
551.279	51060.81
551.479	49854.56
551.679	50759.76
551.879	50399.32
552.079	50845.77
552.278	50503.76
552.478	50356.31
552.678	50401.36
552.878	50647.12
553.077	50540.63
553.277	50233.43
553.477	50780.24
553.676	50348.12
553.876	50507.86
554.076	50174.04
554.275	49500.26
554.475	49586.27
554.674	50151.51
554.874	50176.09
555.074	49793.12
555.273	50139.22
555.473	50690.13
555.672	50098.26
555.872	49653.86
556.071	49899.61
556.271	50004.06
556.47	49836.12
556.67	49418.34
556.869	49479.78
557.068	49653.86
557.268	49741.92
557.467	49649.76
557.667	49522.79
557.866	49465.44
558.065	49279.08
558.265	48980.07
558.464	48650.35
558.663	49612.9
558.863	48398.45
559.062	49389.67
559.261	48859.24
559.461	49371.24
559.66	48803.95
559.859	48511.09
560.058	48760.94
560.258	48889.96
560.457	48162.93
560.656	48900.2
560.855	48115.83
561.054	48715.89
561.253	48101.5
561.453	48550
561.652	48595.06
561.851	48617.58
562.05	48388.21
562.249	47851.64
562.448	48693.36
562.647	48228.47
562.846	47933.56
563.045	48089.21
563.244	47638.65
563.443	48234.61
563.642	47378.56
563.841	47698.05
564.04	47618.17
564.239	48121.98
564.438	47329.41
564.637	47810.68
564.836	47478.91
565.035	47114.37
565.234	47816.83
565.432	47270.02
565.631	47011.98
565.83	47419.52
566.029	47227.01
566.228	46905.48
566.427	47208.58
566.625	46586
566.824	46100.63
567.023	46909.58
567.222	46084.25
567.42	46586
567.619	46325.91
567.818	46413.97
568.016	45811.87
568.215	46639.25
568.414	46033.05
568.612	46342.29
568.811	45676.7
569.01	46090.39
569.208	45338.79
569.407	45994.14
569.605	45338.79
569.804	45672.6
570.002	44986.53
570.201	45590.69
570.4	44906.66
570.598	44556.46
570.797	44593.32
570.995	44937.38
571.193	44439.73
571.392	44769.45
571.59	44531.89
571.789	44796.07
571.987	44245.17
572.186	44511.41
572.384	44191.92
572.582	44298.42
572.781	44159.16
572.979	43673.79
573.177	43772.09
573.376	44107.96
573.574	43161.79
573.772	43604.16
573.971	43378.88
574.169	43147.46
574.367	43145.41
574.565	42950.85
574.763	42596.56
574.962	43002.05
575.16	42596.56
575.358	42717.39
575.556	42467.53
575.754	42903.75
575.952	42076.37
576.151	42612.94
576.349	41896.15
576.547	41773.27
576.745	41695.45
576.943	42086.61
577.141	41537.76
577.339	41181.41
577.537	41472.22
577.735	41431.26
577.933	40769.77
578.131	41101.54
578.329	41091.3
578.527	40474.86
578.725	40466.67
578.923	41007.33
579.121	40745.19
579.319	40331.5
579.516	40732.9
579.714	40411.37
579.912	40210.67
580.11	40212.72
580.308	39971.06
580.506	39997.68
580.704	39624.95
580.901	39688.44
581.099	39883
581.297	39172.35
581.495	39147.78
581.692	39145.73
581.89	38656.26
582.088	39250.17
582.285	38787.33
582.483	38783.24
582.681	38992.13
582.878	39037.19
583.076	38263.05
583.274	38877.44
583.471	37808.4
583.669	38482.19
583.866	38078.74
584.064	38033.68
584.262	37730.58
584.459	37812.5
584.657	37808.4
584.854	38009.11
585.052	37044.51
585.249	37499.16
585.447	37361.95
585.644	36899.11
585.841	37161.25
586.039	37247.26
586.236	36596.01
586.434	36677.93
586.631	36522.28
586.828	36757.8
587.026	36284.72
587.223	36208.94
587.42	35920.18
587.618	36286.76
587.815	35973.42
588.012	35887.41
588.21	35567.93
588.407	35901.75
588.604	35868.98
588.801	35279.16
588.999	35537.21
589.196	35047.74
589.393	35858.74
589.59	35100.99
589.787	35088.7
589.984	35455.29
590.182	34642.24
590.379	34916.67
590.576	34834.75
590.773	34715.97
590.97	34677.06
591.167	34148.68
591.364	34077.01
591.561	34212.17
591.758	33788.24
591.955	33915.22
592.152	33997.13
592.349	33630.55
592.546	33831.25
592.743	33689.94
592.94	33304.92
593.137	33284.44
593.334	33929.55
593.531	32829.79
593.727	33184.09
593.924	33321.3
594.121	32848.22
594.318	33005.92
594.515	32733.54
594.712	33167.71
594.908	32450.92
595.105	32758.11
595.302	32440.68
595.499	32473.45
595.696	32266.6
595.892	31773.04
596.089	32233.83
596.286	32590.18
596.482	32088.43
596.679	31715.7
596.876	31805.81
597.072	31660.4
597.269	31494.52
597.466	31494.52
597.662	31465.85
597.859	31271.29
598.055	31521.14
598.252	31027.58
598.448	31052.16
598.645	31117.69
598.841	30632.32
599.038	30898.56
599.234	30955.9
599.431	30409.09
599.627	30493.06
599.824	30794.11
600.02	30228.87
600.217	30472.58
600.413	29933.96
600.609	30138.76
600.806	29845.9
601.002	29966.73
601.198	29356.44
601.395	29729.17
601.591	29153.69
601.787	29485.46
601.984	29229.46
602.18	29589.91
602.376	29481.36
602.572	29118.87
602.769	29112.73
602.965	28873.12
603.161	29002.14
603.357	28854.69
603.553	28336.55
603.75	28869.02
603.946	28707.23
604.142	28742.05
604.338	27929
604.534	28205.48
604.73	27822.51
604.926	27941.29
605.122	28035.5
605.318	27783.6
605.514	27896.24
605.71	27216.31
605.906	27320.76
606.102	27384.24
606.298	27548.08
606.494	27582.9
606.69	27345.33
606.886	27130.3
607.082	26915.26
607.278	27326.9
607.474	26438.08
607.67	26765.76
607.866	26563.01
608.062	26892.73
608.257	26509.76
608.453	26589.63
608.649	26616.26
608.845	25940.43
609.041	26089.93
609.236	26456.51
609.432	26200.52
609.628	26008.01
609.824	25825.74
610.019	25719.24
610.215	25780.68
610.411	25979.34
610.606	25420.24
610.802	25321.94
610.998	25450.96
611.193	25446.87
611.389	25528.78
611.584	25471.44
611.78	25301.46
611.976	25248.21
612.171	25115.09
612.367	24830.43
612.562	24914.39
612.758	24637.92
612.953	24773.08
613.149	25037.27
613.344	24717.79
613.539	25145.81
613.735	24578.53
613.93	25014.74
614.126	24467.94
614.321	24623.58
614.517	24529.38
614.712	24467.94
614.907	24293.86
615.103	24340.96
615.298	23826.92
615.493	24375.78
615.688	23745
615.884	24375.78
616.079	23607.79
616.274	23697.9
616.47	23788.01
616.665	23865.83
616.86	23695.85
617.055	23519.73
617.25	23808.49
617.445	23253.49
617.641	23198.2
617.836	23327.22
618.031	23183.86
618.226	23814.63
618.421	22870.52
618.616	23443.95
618.811	22493.69
619.006	23056.89
619.201	22686.2
619.396	22581.76
619.591	22389.25
619.786	22446.59
619.981	22110.72
620.176	22336
620.371	21850.63
620.566	22030.85
620.761	21860.87
620.956	22024.71
621.151	21527.05
621.346	21537.29
621.541	21146.13
621.735	21479.95
621.93	21062.16
622.125	21111.32
622.32	20642.33
622.515	20955.67
622.709	20711.96
622.904	20740.63
623.099	20699.67
623.294	20435.49
623.488	20406.81
623.683	20447.77
623.878	20075.04
624.072	20044.32
624.267	20204.07
624.462	19907.11
624.656	19429.93
624.851	19819.05
625.046	19563.05
625.24	19458.6
625.435	19067.44
625.629	19309.1
625.824	19112.5
626.018	19184.18
626.213	18762.3
626.407	18776.63
626.602	18831.93
626.796	18569.79
626.991	18467.39
627.185	18487.87
627.38	18582.07
627.574	18205.25
627.768	18485.82
627.963	17973.83
628.157	17941.06
628.352	17994.31
628.546	17678.92
628.74	17910.34
628.935	17422.92
629.129	17605.19
629.323	17248.85
629.517	17154.64
629.712	17375.82
629.906	17068.62
630.1	16796.25
630.294	17087.06
630.489	16786.01
630.683	16841.3
630.877	16808.53
631.071	16640.6
631.265	16693.85
631.459	16525.91
631.653	16372.32
631.848	16368.22
632.042	16061.02
632.236	16390.75
632.43	16013.92
632.624	16048.74
632.818	15938.15
633.012	15729.25
633.206	15723.11
633.4	15833.7
633.594	15721.06
633.788	15794.79
633.982	15493.74
634.176	15385.19
634.369	15252.08
634.563	15258.22
634.757	15196.78
634.951	15100.53
635.145	15110.77
635.339	15041.14
635.533	14826.1
635.726	14842.48
635.92	14785.14
636.114	14697.08
636.308	14393.98
636.501	14492.28
636.695	14492.28
636.889	14338.68
637.083	14285.44
637.276	14117.5
637.47	13965.95
637.664	14230.14
637.857	13924.99
638.051	13752.96
638.244	13898.37
638.438	13621.89
638.632	13771.4
638.825	13699.72
639.019	13486.73
639.212	13415.05
639.406	13388.43
639.599	13226.64
639.793	13335.18
639.986	13058.7
640.18	13019.79
640.373	12872.34
640.567	12692.12
640.76	12839.57
640.954	12704.4
641.147	12931.73
641.34	12716.69
641.534	12655.25
641.727	12464.79
641.92	12438.17
642.114	12282.52
642.307	12395.16
642.5	12284.57
642.694	11868.83
642.887	11995.81
643.08	12157.6
643.273	11872.93
643.467	11907.74
643.66	11836.06
643.853	11686.56
644.046	11414.18
644.239	11569.83
644.432	11498.15
644.626	11465.38
644.819	11387.56
645.012	11526.82
645.205	11301.54
645.398	11043.5
645.591	11117.23
645.784	11037.36
645.977	10951.34
646.17	11100.84
646.363	11006.64
646.556	10834.61
646.749	10863.28
646.942	10633.91
647.135	10705.59
647.328	10646.19
647.521	10402.49
647.714	10279.61
647.907	10316.47
648.099	10252.98
648.292	10367.67
648.485	10259.13
648.678	9980.61
648.871	10070.72
649.064	10048.19
649.256	10107.58
649.449	9816.77
649.642	9935.55
649.835	9718.47
650.027	9525.96
650.22	9581.25
650.413	9792.19
650.605	9640.64
650.798	9376.45
650.991	9183.95
651.183	9468.61
651.376	9394.89
651.568	9161.42
651.761	9263.82
651.954	9136.84
652.146	9282.25
652.339	8751.82
652.531	8960.72
652.724	8833.74
652.916	8774.35
653.109	8807.12
653.301	8872.65
653.494	8905.42
653.686	8643.28
653.879	8641.23
654.071	8526.55
654.263	8317.65
654.456	8520.4
654.648	8334.04
654.84	8213.21
655.033	8311.51
655.225	8325.85
655.417	8125.15
655.61	8055.51
655.802	8055.51
655.994	8055.51
656.186	8004.32
656.379	7754.46
656.571	7996.12
656.763	7824.09
656.955	7727.84
657.148	7629.54
657.34	7701.22
657.532	7553.76
657.724	7555.81
657.916	7471.84
658.108	7363.3
658.3	7297.77
658.492	7367.4
658.684	7273.19
658.876	7258.85
659.068	7103.21
659.26	7211.75
659.452	7131.88
659.644	7082.73
659.836	6918.89
660.028	6920.94
660.22	6759.15
660.412	6906.6
660.604	6685.42
660.796	6626.03
660.988	6730.48
661.18	6449.91
661.372	6548.21
661.563	6593.26
661.755	6595.31
661.947	6503.15
662.139	6531.83
662.331	6380.28
662.522	6490.87
662.714	6193.91
662.906	6165.24
663.097	6118.14
663.289	6245.11
663.481	6101.75
663.673	6093.56
663.864	6142.71
664.056	5942.01
664.247	6097.66
664.439	5853.95
664.631	5978.87
664.822	5876.48
665.014	5917.44
665.205	5843.71
665.397	5710.59
665.588	5757.69
665.78	5528.32
665.971	5651.2
666.163	5526.27
666.354	5747.45
666.546	5540.61
666.737	5516.03
666.929	5581.57
667.12	5427.97
667.311	5415.68
667.503	5393.16
667.694	5413.63
667.885	5139.21
668.077	5276.42
668.268	5241.61
668.459	5208.84
668.651	5065.48
668.842	4989.71
669.033	5073.67
669.224	5126.92
669.416	5020.42
669.607	5034.76
669.798	5022.47
669.989	5059.34
670.18	5020.42
670.371	4950.79
670.563	4936.46
670.754	4805.39
670.945	4756.24
671.136	4858.64
671.327	4772.62
671.518	4743.95
671.709	4653.84
671.9	4838.16
672.091	4707.09
672.282	4606.74
672.473	4612.88
672.664	4565.78
672.855	4614.93
673.046	4692.75
673.237	4512.53
673.428	4594.45
673.619	4528.91
673.809	4426.51
674	4422.42
674.191	4393.75
674.382	4481.81
674.573	4395.79
674.764	4342.55
674.954	4438.8
675.145	4330.26
675.336	4277.01
675.527	4358.93
675.717	4311.83
675.908	4193.05
676.099	4295.44
676.289	4340.5
676.48	4311.83
676.671	4186.9
676.861	4176.66
677.052	4141.85
677.243	4176.66
677.433	4162.33
677.624	4305.68
677.814	4035.35
678.005	4219.67
678.195	4113.17
678.386	3932.95
678.576	4039.45
678.767	4041.5
678.957	3900.19
679.148	3908.38
679.338	3844.89
679.529	3914.52
679.719	3924.76
679.909	4066.07
680.1	3857.18
680.29	3965.72
680.481	3881.75
680.671	3855.13
680.861	3848.99
681.052	3928.86
681.242	3777.31
681.432	3855.13
681.622	3924.76
681.813	3838.75
682.003	3695.39
682.193	3769.12
682.383	3779.36
682.573	3818.27
682.764	3603.23
682.954	3724.06
683.144	3748.64
683.334	3773.21
683.524	3771.16
683.714	3672.86
683.904	3734.3
684.094	3650.33
684.284	3728.16
684.474	3734.3
684.664	3603.23
684.854	3633.95
685.044	3619.61
685.234	3672.86
685.424	3570.46
685.614	3584.8
685.804	3590.94
685.994	3578.65
686.184	3783.45
686.374	3681.05
686.564	3496.74
686.753	3582.75
686.943	3515.17
687.133	3654.43
687.323	3611.42
687.513	3500.83
687.702	3521.31
687.892	3410.72
688.082	3478.3
688.272	3619.61
688.461	3531.55
688.651	3599.13
688.841	3521.31
689.03	3447.58
689.22	3443.49
689.41	3597.09
689.599	3599.13
689.789	3511.07
689.979	3435.3
690.168	3549.98
690.358	3308.32
690.547	3418.91
690.737	3545.89
690.926	3519.26
691.116	3423.01
691.305	3529.5
691.495	3300.13
691.684	3369.76
691.874	3396.39
692.063	3388.19
692.252	3412.77
692.442	3433.25
692.631	3361.57
692.82	3349.28
693.01	3392.29
693.199	3357.47
693.388	3513.12
693.578	3412.77
693.767	3361.57
693.956	3289.89
694.146	3400.48
694.335	3230.5
694.524	3455.78
694.713	3353.38
694.902	3205.92
695.092	3369.76
695.281	3310.37
695.47	3382.05
695.659	3373.86
695.848	3291.94
696.037	3336.99
696.226	3293.99
696.415	3332.9
696.604	3332.9
696.793	3312.42
696.982	3328.8
697.171	3343.14
697.36	3412.77
697.549	3257.12
697.738	3349.28
697.927	3242.79
698.116	3308.32
698.305	3242.79
698.494	3375.91
698.683	3205.92
698.872	3279.65
699.061	3218.21
699.25	3349.28
699.438	3242.79
699.627	3291.94
699.816	3234.6
700.005	3242.79
700.193	3320.61
700.382	3314.47
700.571	3167.01
700.76	3261.22
700.948	3158.82
701.137	3103.53
701.326	3068.71
701.514	3064.61
701.703	2994.98
701.892	3048.23
702.08	3081
702.269	3167.01
702.457	3091.24
702.646	3074.85
702.834	3027.75
703.023	3058.47
703.212	3193.64
703.4	3107.62
703.589	3029.8
703.777	3099.43
703.965	2972.46
704.154	2941.74
704.342	2933.54
704.531	3099.43
704.719	2911.02
704.907	2886.44
705.096	2943.78
705.284	3029.8
705.472	2976.55
705.661	2941.74
705.849	2913.06
706.037	2870.06
706.226	2849.58
706.414	2898.73
706.602	2841.39
706.79	2779.95
706.979	2882.35
707.167	2833.19
707.355	2898.73
707.543	2827.05
707.731	2759.47
707.919	2806.57
708.107	2804.52
708.296	2732.84
708.484	2792.23
708.672	2792.23
708.86	2726.7
709.048	2661.16
709.236	2736.94
709.424	2831.15
709.612	2806.57
709.8	2702.12
709.988	2581.29
710.176	2712.36
710.364	2712.36
710.551	2661.16
710.739	2675.5
710.927	2589.49
711.115	2546.48
711.303	2669.36
711.491	2560.81
711.679	2556.72
711.866	2542.38
712.054	2439.98
712.242	2513.71
712.43	2556.72
712.617	2616.11
712.805	2476.85
712.993	2427.7
713.181	2476.85
713.368	2466.61
713.556	2388.78
713.744	2425.65
713.931	2356.02
714.119	2456.37
714.306	2419.5
714.494	2388.78
714.682	2358.07
714.869	2429.74
715.057	2409.26
715.244	2265.91
715.432	2243.38
715.619	2491.18
715.807	2351.92
715.994	2270
716.182	2155.32
716.369	2345.78
716.556	2319.15
716.744	2192.18
716.931	2267.95
717.119	2372.4
717.306	2247.48
717.493	2108.21
717.681	2272.05
717.868	2218.8
718.055	2200.37
718.242	2138.93
718.43	2186.04
718.617	2190.13
718.804	2108.21
718.991	2165.56
719.179	2208.56
719.366	2048.82
719.553	2128.69
719.74	2022.2
719.927	2065.21
720.114	2079.54
720.301	2028.34
720.488	2138.93
720.676	1999.67
720.863	2007.86
721.05	2042.68
721.237	2067.25
721.424	2138.93
721.611	2003.77
721.798	1962.81
721.985	2057.01
722.172	1841.98
722.358	1977.14
722.545	1874.74
722.732	1909.56
722.919	1930.04
723.106	1966.9
723.293	1884.98
723.48	1938.23
723.667	1870.65
723.853	1811.26
724.04	1848.12
724.227	1852.22
724.414	1823.55
724.6	1827.64
724.787	1778.49
724.974	1809.21
725.161	1846.07
725.347	1841.98
725.534	1809.21
725.72	1721.15
725.907	1768.25
726.094	1882.94
726.28	1717.05
726.467	1751.87
726.653	1706.81
726.84	1733.43
727.027	1788.73
727.213	1633.08
727.4	1674.04
727.586	1653.56
727.773	1694.52
727.959	1786.68
728.145	1743.67
728.332	1645.37
728.518	1594.17
728.705	1590.08
728.891	1622.84
729.077	1661.76
729.264	1590.08
729.45	1680.19
729.636	1577.79
729.823	1602.36
730.009	1672
730.195	1579.84
730.382	1628.99
730.568	1604.41
730.754	1631.04
730.94	1536.83
731.126	1526.59
731.313	1583.93
731.499	1583.93
731.685	1514.3
731.871	1518.4
732.057	1489.73
732.243	1450.82
732.429	1583.93
732.615	1463.1
732.801	1510.21
732.987	1481.53
733.173	1440.58
733.359	1444.67
733.545	1481.53
733.731	1350.46
733.917	1397.57
734.103	1465.15
734.289	1528.64
734.475	1391.42
734.661	1461.06
734.847	1375.04
735.033	1397.57
735.219	1379.14
735.404	1377.09
735.59	1338.18
735.776	1491.77
735.962	1401.66
736.148	1399.62
736.333	1416
736.519	1375.04
736.705	1346.37
736.89	1348.42
737.076	1262.4
737.262	1370.94
737.447	1383.23
737.633	1350.46
737.819	1356.61
738.004	1317.7
738.19	1270.59
738.375	1180.48
738.561	1254.21
738.747	1266.5
738.932	1301.31
739.118	1211.2
739.303	1252.16
739.489	1303.36
739.674	1182.53
739.859	1309.51
740.045	1227.59
740.23	1254.21
740.416	1219.39
740.601	1280.83
740.786	1291.07
740.972	1270.59
741.157	1178.44
741.342	1262.4
741.528	1121.09
741.713	1170.24
741.898	1223.49
742.084	1225.54
742.269	1145.67
742.454	1258.31
742.639	1268.55
742.824	1168.2
743.01	1098.56
743.195	1098.56
743.38	1143.62
743.565	1110.85
743.75	1033.03
743.935	1112.9
744.12	1133.38
744.305	938.82
744.49	1061.7
744.675	1041.22
744.86	1047.37
745.045	1051.46
745.23	971.59
745.415	1014.6
745.6	1045.32
745.785	985.93
745.97	1043.27
746.155	1030.98
746.34	1033.03
746.525	1039.17
746.71	987.97
746.895	1041.22
747.079	944.97
747.264	1014.6
747.449	928.58
747.634	926.54
747.819	944.97
748.003	977.73
748.188	998.21
748.373	983.88
748.557	924.49
748.742	951.11
748.927	957.25
749.111	887.62
749.296	916.3
749.481	846.66
749.665	987.97
749.85	944.97
750.034	883.53
750.219	901.96
750.404	850.76
750.588	879.43
750.773	848.71
750.957	953.16
751.141	928.58
751.326	955.21
751.51	762.7
751.695	895.82
751.879	897.86
752.064	850.76
752.248	846.66
752.432	867.14
752.617	703.31
752.801	836.42
752.985	678.73
753.17	820.04
753.354	826.18
753.538	834.38
753.722	803.66
753.907	764.75
754.091	768.84
754.275	764.75
754.459	711.5
754.643	801.61
754.828	826.18
755.012	705.35
755.196	736.07
755.38	754.51
755.564	809.8
755.748	625.48
755.932	727.88
756.116	727.88
756.3	652.11
756.484	781.13
756.668	785.23
756.852	617.29
757.036	684.87
757.22	770.89
757.404	650.06
757.588	695.11
757.772	676.68
757.956	787.27
758.14	738.12
758.323	711.5
758.507	664.4
758.691	621.39
758.875	668.49
759.059	590.67
759.242	627.53
759.426	699.21
759.61	686.92
759.794	643.92
759.977	695.11
760.161	701.26
760.345	527.18
760.528	523.09
760.712	691.02
760.895	625.48
761.079	580.43
761.263	568.14
761.446	637.77
761.63	631.63
761.813	598.86
761.997	621.39
762.18	572.24
762.364	615.24
762.547	582.48
762.731	580.43
762.914	639.82
763.098	531.28
763.281	627.53
763.464	600.91
763.648	574.28
763.831	580.43
764.015	566.09
764.198	627.53
764.381	566.09
764.564	582.48
764.748	516.94
764.931	498.51
765.114	512.85
765.297	564.04
765.481	572.24
765.664	523.09
765.847	555.85
766.03	525.13
766.213	484.17
766.397	514.89
766.58	559.95
766.763	566.09
766.946	576.33
767.129	482.13
767.312	535.37
767.495	574.28
767.678	533.33
767.861	562
768.044	508.75
768.227	582.48
768.41	543.57
768.593	521.04
768.776	490.32
768.959	484.17
769.142	518.99
769.324	549.71
769.507	568.14
769.69	498.51
769.873	572.24
770.056	588.62
770.239	498.51
770.421	572.24
770.604	559.95
770.787	512.85
770.97	447.31
771.152	492.37
771.335	465.74
771.518	533.33
771.7	441.17
771.883	455.5
772.066	518.99
772.248	469.84
772.431	609.1
772.613	514.89
772.796	422.73
772.978	500.56
773.161	514.89
773.343	392.02
773.526	494.41
773.708	494.41
773.891	326.48
774.073	473.93
774.256	424.78
774.438	449.36
774.621	506.7
774.803	502.61
774.985	400.21
775.168	400.21
775.35	385.87
775.532	373.58
775.715	404.3
775.897	414.54
776.079	437.07
776.261	486.22
776.444	392.02
776.626	359.25
776.808	387.92
776.99	375.63
777.173	498.51
777.355	420.69
777.537	398.16
777.719	412.5
777.901	502.61
778.083	383.82
778.265	379.73
778.447	400.21
778.629	400.21
778.811	357.2
778.993	379.73
779.175	361.3
779.357	414.54
779.539	336.72
779.721	353.1
779.903	367.44
780.085	353.1
780.267	359.25
780.449	414.54
780.631	439.12
780.812	449.36
780.994	334.67
781.176	365.39
781.358	340.82
781.54	359.25
781.721	383.82
781.903	387.92
782.085	269.14
782.267	306
782.448	400.21
782.63	310.1
782.812	314.19
782.993	353.1
783.175	375.63
783.357	328.53
783.538	316.24
783.72	344.91
783.901	351.06
784.083	279.38
784.264	310.1
784.446	334.67
784.627	318.29
784.809	265.04
784.99	326.48
785.172	262.99
785.353	287.57
785.535	297.81
785.716	289.62
785.897	269.14
786.079	359.25
786.26	330.58
786.441	267.09
786.623	242.51
786.804	244.56
786.985	326.48
787.167	297.81
787.348	244.56
787.529	244.56
787.71	205.65
787.891	179.03
788.073	262.99
788.254	222.03
788.435	277.33
788.616	281.43
788.797	267.09
788.978	252.75
789.159	285.52
789.34	172.88
789.522	256.85
789.703	205.65
789.884	164.69
790.065	299.86
790.246	301.9
790.427	254.8
790.607	205.65
790.788	242.51
790.969	299.86
791.15	287.57
791.331	207.7
791.512	222.03
791.693	267.09
791.874	228.18
792.054	256.85
792.235	234.32
792.416	215.89
792.597	205.65
792.778	269.14
792.958	248.66
793.139	222.03
793.32	205.65
793.5	154.45
793.681	236.37
793.862	199.51
794.042	203.6
794.223	244.56
794.404	299.86
794.584	199.51
794.765	213.84
794.945	154.45
795.126	254.8
795.306	183.12
795.487	150.36
795.667	154.45
795.848	226.13
796.028	133.97
796.209	234.32
796.389	166.74
796.57	269.14
796.75	228.18
796.93	179.03
797.111	189.27
797.291	162.64
797.471	199.51
797.652	209.75
797.832	197.46
798.012	162.64
798.192	174.93
798.373	207.7
798.553	174.93
798.733	158.55
798.913	131.92
799.093	232.27
799.274	172.88
799.454	183.12
799.634	226.13
799.814	119.64
799.994	207.7
800.174	174.93
800.354	185.17
800.534	138.07
800.714	168.79
800.894	144.21
801.074	121.68
801.254	131.92
801.434	205.65
801.614	172.88
801.794	174.93
801.974	334.67
802.154	170.83
802.334	166.74
802.514	197.46
802.693	142.16
802.873	80.72
803.053	179.03
803.233	115.54
803.413	170.83
803.592	88.92
803.772	170.83
803.952	179.03
804.131	168.79
804.311	185.17
804.491	138.07
804.67	209.75
804.85	109.4
805.03	148.31
805.209	152.4
805.389	72.53
805.568	146.26
805.748	129.88
805.928	113.49
806.107	117.59
806.287	103.25
806.466	101.2
806.646	138.07
806.825	64.34
807.004	72.53
807.184	222.03
807.363	146.26
807.543	107.35
807.722	105.3
807.901	154.45
808.081	138.07
808.26	148.31
808.439	138.07
808.619	109.4
808.798	54.1
808.977	103.25
809.156	142.16
809.336	179.03
809.515	142.16
809.694	121.68
809.873	162.64
810.052	133.97
810.231	97.11
810.411	113.49
810.59	117.59
810.769	78.68
810.948	142.16
811.127	115.54
811.306	115.54
811.485	179.03
811.664	97.11
811.843	43.86
812.022	146.26
812.201	78.68
812.38	131.92
812.559	80.72
812.737	117.59
812.916	43.86
813.095	76.63
813.274	109.4
813.453	119.64
813.632	144.21
813.811	162.64
813.989	74.58
814.168	84.82
814.347	72.53
814.526	76.63
814.704	138.07
814.883	103.25
815.062	127.83
815.24	90.96
815.419	121.68
815.598	60.24
815.776	88.92
815.955	52.05
816.133	117.59
816.312	47.96
816.49	162.64
816.669	74.58
816.847	115.54
817.026	97.11
817.204	109.4
817.383	154.45
817.561	90.96
817.74	113.49
817.918	-7.34
818.097	86.87
818.275	72.53
818.453	119.64
818.632	131.92
818.81	144.21
818.988	64.34
819.167	60.24
819.345	70.48
819.523	105.3
819.701	123.73
819.879	9.05
820.058	97.11
820.236	82.77
820.414	82.77
820.592	121.68
820.77	88.92
820.948	117.59
821.127	90.96
821.305	123.73
821.483	-13.48
821.661	99.16
821.839	52.05
822.017	82.77
822.195	70.48
822.373	131.92
822.551	41.81
822.729	-3.24
822.907	95.06
823.085	82.77
823.262	37.72
823.44	56.15
823.618	45.91
823.796	121.68
823.974	76.63
824.152	113.49
824.329	35.67
824.507	64.34
824.685	140.12
824.863	68.44
825.04	82.77
825.218	101.2
825.396	146.26
825.574	80.72
825.751	47.96
825.929	113.49
826.107	158.55
826.284	154.45
826.462	68.44
826.639	56.15
826.817	58.2
826.994	66.39
827.172	74.58
827.349	41.81
827.527	45.91
827.704	109.4
827.882	29.52
828.059	97.11
828.237	47.96
828.414	31.57
828.591	29.52
828.769	60.24
828.946	58.2
829.124	54.1
829.301	35.67
829.478	76.63
829.655	21.33
829.833	25.43
830.01	50
830.187	80.72
830.364	47.96
830.542	76.63
830.719	148.31
830.896	60.24
831.073	62.29
831.25	45.91
831.427	144.21
831.604	80.72
831.782	56.15
831.959	121.68
832.136	84.82
832.313	123.73
832.49	31.57
832.667	39.76
832.844	33.62
833.021	58.2
833.198	103.25
833.374	82.77
833.551	-15.53
833.728	39.76
833.905	60.24
834.082	50
834.259	82.77
834.436	19.29
834.612	86.87
834.789	105.3
834.966	60.24
835.143	72.53
835.319	35.67
835.496	84.82
835.673	23.38
835.85	68.44
836.026	60.24
836.203	52.05
836.38	68.44
836.556	9.05
836.733	111.44
836.909	37.72
837.086	93.01
837.262	70.48
837.439	-23.72
837.616	66.39
837.792	-44.2
837.968	19.29
838.145	-42.15
838.321	88.92
838.498	74.58
838.674	29.52
838.851	52.05
839.027	31.57
839.203	103.25
839.38	60.24
839.556	66.39
839.732	41.81
839.909	29.52
840.085	13.14
840.261	37.72
840.437	80.72
840.614	93.01
840.79	-17.58
840.966	64.34
841.142	58.2
841.318	15.19
841.494	9.05
841.671	74.58
841.847	4.95
842.023	27.48
842.199	19.29
842.375	86.87
842.551	54.1
842.727	15.19
842.903	11.09
843.079	64.34
843.255	72.53
843.431	11.09
843.607	58.2
843.783	21.33
843.959	64.34
844.134	52.05
844.31	86.87
844.486	105.3
844.662	68.44
844.838	80.72
845.013	70.48
845.189	11.09
845.365	70.48
845.541	27.48
845.716	50
845.892	115.54
846.068	25.43
846.244	23.38
846.419	-1.19
846.595	35.67
846.77	76.63
846.946	21.33
847.122	86.87
847.297	4.95
847.473	113.49
847.648	-38.06
847.824	-13.48
847.999	-13.48
848.175	19.29
848.35	-40.11
848.526	25.43
848.701	45.91
848.876	-21.67
849.052	7
849.227	76.63
849.403	-36.01
849.578	23.38
849.753	9.05
849.929	33.62
850.104	60.24
850.279	19.29
850.454	11.09
850.63	68.44
850.805	35.67
850.98	25.43
851.155	-11.43
851.33	-7.34
851.505	-25.77
851.681	41.81
851.856	-9.39
852.031	52.05
852.206	54.1
852.381	21.33
852.556	25.43
852.731	82.77
852.906	17.24
853.081	54.1
853.256	64.34
853.431	43.86
853.606	41.81
853.781	9.05
853.956	-33.96
854.131	39.76
854.305	11.09
854.48	7
854.655	74.58
854.83	47.96
855.005	27.48
855.18	33.62
855.354	7
855.529	-3.24
855.704	23.38
855.879	47.96
856.053	60.24
856.228	52.05
856.403	56.15
856.577	41.81
856.752	23.38
856.926	-36.01
857.101	45.91
857.276	25.43
857.45	-9.39
857.625	82.77
857.799	25.43
857.974	82.77
858.148	-13.48
858.323	23.38
858.497	11.09
858.672	88.92
858.846	7
859.02	97.11
859.195	47.96
859.369	11.09
859.543	66.39
859.718	99.16
859.892	54.1
860.066	4.95
860.241	7
860.415	-23.72
860.589	-5.29
860.763	-36.01
860.938	39.76
861.112	43.86
861.286	-50.35
861.46	41.81
861.634	-44.2
861.808	60.24
861.982	21.33
862.157	9.05
862.331	17.24
862.505	39.76
862.679	-48.3
862.853	27.48
863.027	-11.43
863.201	88.92
863.375	-52.39
863.549	9.05
863.722	64.34
863.896	4.95
864.07	21.33
864.244	7
864.418	4.95
864.592	121.68
864.766	23.38
864.939	74.58
865.113	23.38
865.287	-5.29
865.461	-40.11
865.634	0.85
865.808	39.76
865.982	21.33
866.156	-17.58
866.329	-23.72
866.503	37.72
866.676	-40.11
866.85	33.62
867.024	19.29
867.197	43.86
867.371	90.96
867.544	27.48
867.718	64.34
867.891	39.76
868.065	-27.82
868.238	-9.39
868.412	-17.58
868.585	19.29
868.759	-27.82
868.932	15.19
869.105	-66.73
869.279	-7.34
869.452	-3.24
869.625	27.48
869.799	21.33
869.972	31.57
870.145	-13.48
870.319	15.19
870.492	68.44
870.665	62.29
870.838	-13.48
871.011	-15.53
871.185	-25.77
871.358	35.67
871.531	72.53
871.704	-7.34
871.877	-58.54
872.05	-50.35
872.223	-33.96
872.396	52.05
872.569	43.86
872.742	25.43
872.915	125.78
873.088	-23.72
873.261	-7.34
873.434	-48.3
873.607	-1.19
873.78	52.05
873.953	-33.96
874.126	-29.87
874.299	25.43
874.471	33.62
874.644	11.09
874.817	29.52
874.99	31.57
875.163	-5.29
875.335	17.24
875.508	7
875.681	50
875.853	-5.29
876.026	15.19
876.199	45.91
876.371	17.24
876.544	41.81
876.717	17.24
876.889	0.85
877.062	11.09
877.234	-1.19
877.407	39.76
877.579	15.19
877.752	-56.49
877.924	-9.39
878.097	9.05
878.269	-11.43
878.442	50
878.614	-29.87
878.786	15.19
878.959	-23.72
879.131	21.33
879.303	64.34
879.476	33.62
879.648	25.43
879.82	29.52
879.993	-5.29
880.165	45.91
880.337	-29.87
880.509	17.24
880.681	-52.39
880.854	25.43
881.026	15.19
881.198	52.05
881.37	11.09
881.542	27.48
881.714	-17.58
881.886	11.09
882.058	35.67
882.23	56.15
882.402	58.2
882.574	27.48
882.746	25.43
882.918	58.2
883.09	2.9
883.262	68.44
883.434	11.09
883.606	9.05
883.778	17.24
883.95	58.2
884.122	-21.67
884.293	-11.43
884.465	4.95
884.637	47.96
884.809	-25.77
884.98	-23.72
885.152	-21.67
885.324	29.52
885.496	27.48
885.667	58.2
885.839	23.38
886.011	47.96
886.182	52.05
886.354	54.1
886.525	39.76
886.697	23.38
886.869	15.19
887.04	-5.29
887.212	27.48
887.383	37.72
887.555	-27.82
887.726	74.58
887.897	-1.19
888.069	93.01
888.24	9.05
888.412	11.09
888.583	50
888.754	50
888.926	-36.01
889.097	2.9
889.268	39.76
889.44	-19.63
889.611	-7.34
889.782	11.09
889.953	-52.39
890.125	2.9
890.296	52.05
890.467	39.76
890.638	17.24
890.809	4.95
890.98	-33.96
891.151	52.05
891.323	74.58
891.494	62.29
891.665	23.38
891.836	-25.77
892.007	-42.15
892.178	-17.58
892.349	-74.92
892.52	21.33
892.691	-13.48
892.862	52.05
893.032	33.62
893.203	31.57
893.374	76.63
893.545	41.81
893.716	35.67
893.887	88.92
894.057	9.05
894.228	56.15
894.399	19.29
894.57	-27.82
894.74	-27.82
894.911	43.86
895.082	-44.2
895.253	25.43
895.423	52.05
895.594	35.67
895.764	29.52
895.935	43.86
896.106	-31.91
896.276	-15.53
896.447	39.76
896.617	39.76
896.788	-44.2
896.958	103.25
897.129	-3.24
897.299	-56.49
897.47	-11.43
897.64	-33.96
897.81	0.85
897.981	41.81
898.151	7
898.322	50
898.492	23.38
898.662	-62.63
898.832	-44.2
899.003	-21.67
899.173	-29.87
899.343	39.76
899.513	62.29
