Data from USB4F104151__30__13-52-45-162.txt Node

Date: Thu Mar 13 13:52:45 EDT 2025
User: louis
Spectrometer: USB4F10415
Trigger mode: 4
Integration Time (sec): 1.000000E-2
Scans to average: 1
Electric dark correction enabled: true
Nonlinearity correction enabled: false
Boxcar width: 0
XAxis mode: Wavelengths
Number of Pixels in Spectrum: 3648
>>>>>Begin Spectral Data<<<<<
178.204	-10.58
178.424	-10.58
178.644	-10.58
178.864	-49.49
179.084	-2.39
179.304	5.8
179.524	-51.54
179.744	-8.53
179.964	20.14
180.184	-59.73
180.404	-35.16
180.624	11.95
180.844	-12.63
181.064	42.67
181.283	50.86
181.503	-8.53
181.723	44.71
181.943	9.9
182.163	59.05
182.383	5.8
182.602	63.15
182.822	48.81
183.042	73.39
183.262	32.43
183.482	97.96
183.701	89.77
183.921	65.19
184.141	11.95
184.361	52.91
184.58	18.09
184.8	32.43
185.02	18.09
185.239	93.87
185.459	-0.34
185.679	59.05
185.898	20.14
186.118	61.1
186.338	30.38
186.557	24.23
186.777	5.8
186.997	36.52
187.216	-12.63
187.436	42.67
187.655	34.47
187.875	52.91
188.095	11.95
188.314	116.39
188.534	69.29
188.753	-26.96
188.973	20.14
189.192	52.91
189.412	77.48
189.631	118.44
189.851	1.71
190.07	93.87
190.29	-2.39
190.509	81.58
190.729	9.9
190.948	93.87
191.168	102.06
191.387	32.43
191.607	40.62
191.826	52.91
192.045	30.38
192.265	32.43
192.484	46.76
192.704	57
192.923	-16.73
193.142	73.39
193.362	16.04
193.581	106.15
193.8	102.06
194.02	36.52
194.239	28.33
194.458	79.53
194.678	50.86
194.897	77.48
195.116	75.43
195.335	9.9
195.555	95.91
195.774	65.19
195.993	-0.34
196.212	40.62
196.432	108.2
196.651	61.1
196.87	-26.96
197.089	108.2
197.308	65.19
197.528	9.9
197.747	-4.44
197.966	-0.34
198.185	118.44
198.404	95.91
198.623	30.38
198.842	61.1
199.062	50.86
199.281	54.95
199.5	16.04
199.719	30.38
199.938	26.28
200.157	81.58
200.376	-10.58
200.595	5.8
200.814	48.81
201.033	83.63
201.252	40.62
201.471	44.71
201.69	30.38
201.909	-6.49
202.128	116.39
202.347	46.76
202.566	63.15
202.785	120.49
203.004	106.15
203.223	57
203.442	16.04
203.661	122.54
203.879	79.53
204.098	110.25
204.317	18.09
204.536	24.23
204.755	54.95
204.974	134.82
205.193	102.06
205.411	40.62
205.63	54.95
205.849	-4.44
206.068	16.04
206.287	100.01
206.505	106.15
206.724	30.38
206.943	1.71
207.162	36.52
207.381	128.68
207.599	73.39
207.818	73.39
208.037	1.71
208.255	48.81
208.474	75.43
208.693	-20.82
208.911	16.04
209.13	18.09
209.349	46.76
209.567	102.06
209.786	34.47
210.005	52.91
210.223	42.67
210.442	11.95
210.661	36.52
210.879	38.57
211.098	32.43
211.316	26.28
211.535	34.47
211.753	65.19
211.972	87.72
212.191	89.77
212.409	69.29
212.628	79.53
212.846	46.76
213.065	42.67
213.283	110.25
213.502	110.25
213.72	106.15
213.938	63.15
214.157	61.1
214.375	-4.44
214.594	73.39
214.812	132.78
215.031	3.75
215.249	38.57
215.467	50.86
215.686	63.15
215.904	73.39
216.122	87.72
216.341	26.28
216.559	91.82
216.778	63.15
216.996	87.72
217.214	65.19
217.432	87.72
217.651	-43.35
217.869	65.19
218.087	16.04
218.306	18.09
218.524	16.04
218.742	81.58
218.96	67.24
219.179	-31.06
219.397	65.19
219.615	83.63
219.833	63.15
220.051	11.95
220.27	34.47
220.488	24.23
220.706	57
220.924	30.38
221.142	50.86
221.36	32.43
221.578	36.52
221.796	108.2
222.015	44.71
222.233	-12.63
222.451	22.19
222.669	26.28
222.887	20.14
223.105	79.53
223.323	42.67
223.541	52.91
223.759	46.76
223.977	38.57
224.195	69.29
224.413	44.71
224.631	85.67
224.849	89.77
225.067	40.62
225.285	30.38
225.503	63.15
225.721	44.71
225.939	24.23
226.157	5.8
226.375	59.05
226.592	40.62
226.81	50.86
227.028	54.95
227.246	81.58
227.464	46.76
227.682	22.19
227.9	54.95
228.117	9.9
228.335	79.53
228.553	34.47
228.771	63.15
228.989	59.05
229.206	16.04
229.424	22.19
229.642	42.67
229.86	114.34
230.077	26.28
230.295	89.77
230.513	77.48
230.731	26.28
230.948	71.34
231.166	63.15
231.384	132.78
231.601	104.11
231.819	77.48
232.037	95.91
232.254	24.23
232.472	11.95
232.689	1.71
232.907	30.38
233.125	-12.63
233.342	63.15
233.56	16.04
233.777	5.8
233.995	22.19
234.213	63.15
234.43	28.33
234.648	57
234.865	57
235.083	-33.11
235.3	9.9
235.518	75.43
235.735	18.09
235.953	52.91
236.17	87.72
236.388	-4.44
236.605	40.62
236.822	11.95
237.04	77.48
237.257	30.38
237.475	18.09
237.692	73.39
237.909	69.29
238.127	-20.82
238.344	63.15
238.562	59.05
238.779	36.52
238.996	36.52
239.214	102.06
239.431	100.01
239.648	104.11
239.865	-20.82
240.083	5.8
240.3	114.34
240.517	136.87
240.735	130.73
240.952	89.77
241.169	89.77
241.386	75.43
241.603	-6.49
241.821	48.81
242.038	28.33
242.255	122.54
242.472	57
242.689	18.09
242.907	126.63
243.124	30.38
243.341	46.76
243.558	50.86
243.775	65.19
243.992	48.81
244.209	28.33
244.426	126.63
244.643	50.86
244.86	114.34
245.078	59.05
245.295	11.95
245.512	77.48
245.729	38.57
245.946	128.68
246.163	128.68
246.38	54.95
246.597	38.57
246.814	134.82
247.031	83.63
247.248	85.67
247.464	44.71
247.681	75.43
247.898	77.48
248.115	75.43
248.332	32.43
248.549	71.34
248.766	106.15
248.983	106.15
249.2	36.52
249.417	73.39
249.633	46.76
249.85	69.29
250.067	77.48
250.284	32.43
250.501	13.99
250.717	65.19
250.934	71.34
251.151	102.06
251.368	69.29
251.585	83.63
251.801	42.67
252.018	-6.49
252.235	24.23
252.451	-16.73
252.668	85.67
252.885	108.2
253.102	-41.3
253.318	54.95
253.535	93.87
253.752	18.09
253.968	11.95
254.185	73.39
254.401	91.82
254.618	71.34
254.835	36.52
255.051	102.06
255.268	57
255.484	81.58
255.701	65.19
255.917	28.33
256.134	9.9
256.351	-67.92
256.567	59.05
256.784	5.8
257	65.19
257.217	75.43
257.433	38.57
257.65	38.57
257.866	30.38
258.082	26.28
258.299	34.47
258.515	22.19
258.732	13.99
258.948	34.47
259.165	63.15
259.381	20.14
259.597	100.01
259.814	46.76
260.03	42.67
260.246	145.06
260.463	63.15
260.679	63.15
260.895	-31.06
261.112	13.99
261.328	63.15
261.544	57
261.761	65.19
261.977	-2.39
262.193	77.48
262.409	81.58
262.626	57
262.842	5.8
263.058	-37.2
263.274	106.15
263.49	13.99
263.707	57
263.923	-0.34
264.139	32.43
264.355	106.15
264.571	61.1
264.787	30.38
265.004	36.52
265.22	81.58
265.436	75.43
265.652	59.05
265.868	65.19
266.084	59.05
266.3	30.38
266.516	18.09
266.732	52.91
266.948	32.43
267.164	95.91
267.38	122.54
267.596	3.75
267.812	32.43
268.028	50.86
268.244	67.24
268.46	89.77
268.676	46.76
268.892	116.39
269.108	67.24
269.324	36.52
269.54	67.24
269.756	95.91
269.972	24.23
270.188	104.11
270.403	73.39
270.619	18.09
270.835	22.19
271.051	104.11
271.267	54.95
271.483	110.25
271.698	67.24
271.914	69.29
272.13	26.28
272.346	57
272.562	106.15
272.777	-8.53
272.993	40.62
273.209	52.91
273.425	40.62
273.64	77.48
273.856	54.95
274.072	26.28
274.287	89.77
274.503	40.62
274.719	83.63
274.934	48.81
275.15	-2.39
275.366	63.15
275.581	16.04
275.797	36.52
276.012	48.81
276.228	59.05
276.444	81.58
276.659	34.47
276.875	54.95
277.09	102.06
277.306	30.38
277.521	120.49
277.737	20.14
277.952	136.87
278.168	34.47
278.383	28.33
278.599	20.14
278.814	26.28
279.03	20.14
279.245	42.67
279.461	13.99
279.676	50.86
279.892	-2.39
280.107	11.95
280.322	24.23
280.538	59.05
280.753	67.24
280.969	40.62
281.184	136.87
281.399	69.29
281.615	-53.59
281.83	54.95
282.045	77.48
282.26	61.1
282.476	95.91
282.691	100.01
282.906	11.95
283.122	30.38
283.337	77.48
283.552	87.72
283.767	-33.11
283.983	9.9
284.198	-39.25
284.413	34.47
284.628	85.67
284.843	-2.39
285.058	67.24
285.274	13.99
285.489	57
285.704	54.95
285.919	83.63
286.134	102.06
286.349	57
286.564	65.19
286.779	63.15
286.995	110.25
287.21	69.29
287.425	108.2
287.64	20.14
287.855	3.75
288.07	22.19
288.285	75.43
288.5	67.24
288.715	24.23
288.93	57
289.145	42.67
289.36	61.1
289.575	110.25
289.79	46.76
290.004	44.71
290.219	118.44
290.434	89.77
290.649	16.04
290.864	73.39
291.079	93.87
291.294	108.2
291.509	36.52
291.724	52.91
291.938	79.53
292.153	71.34
292.368	28.33
292.583	32.43
292.798	59.05
293.012	85.67
293.227	71.34
293.442	22.19
293.657	122.54
293.871	-0.34
294.086	40.62
294.301	57
294.516	71.34
294.73	16.04
294.945	38.57
295.16	108.2
295.374	89.77
295.589	34.47
295.804	5.8
296.018	50.86
296.233	163.5
296.447	77.48
296.662	83.63
296.877	16.04
297.091	57
297.306	104.11
297.52	52.91
297.735	30.38
297.949	73.39
298.164	67.24
298.378	63.15
298.593	73.39
298.807	61.1
299.022	106.15
299.236	13.99
299.451	63.15
299.665	54.95
299.88	81.58
300.094	77.48
300.309	79.53
300.523	-12.63
300.737	91.82
300.952	34.47
301.166	71.34
301.381	26.28
301.595	81.58
301.809	57
302.024	93.87
302.238	22.19
302.452	116.39
302.667	81.58
302.881	36.52
303.095	40.62
303.309	57
303.524	13.99
303.738	110.25
303.952	32.43
304.166	104.11
304.381	-2.39
304.595	52.91
304.809	32.43
305.023	75.43
305.237	24.23
305.452	71.34
305.666	50.86
305.88	102.06
306.094	-20.82
306.308	26.28
306.522	48.81
306.736	26.28
306.95	50.86
307.164	20.14
307.379	81.58
307.593	40.62
307.807	59.05
308.021	40.62
308.235	87.72
308.449	61.1
308.663	61.1
308.877	75.43
309.091	87.72
309.305	83.63
309.519	26.28
309.733	120.49
309.947	69.29
310.161	57
310.374	20.14
310.588	11.95
310.802	9.9
311.016	97.96
311.23	-4.44
311.444	130.73
311.658	57
311.872	73.39
312.085	28.33
312.299	67.24
312.513	120.49
312.727	85.67
312.941	81.58
313.154	18.09
313.368	-31.06
313.582	69.29
313.796	46.76
314.009	42.67
314.223	89.77
314.437	95.91
314.651	67.24
314.864	54.95
315.078	140.97
315.292	40.62
315.505	22.19
315.719	40.62
315.933	34.47
316.146	69.29
316.36	108.2
316.573	-4.44
316.787	50.86
317.001	38.57
317.214	-16.73
317.428	110.25
317.641	63.15
317.855	50.86
318.068	-16.73
318.282	48.81
318.495	24.23
318.709	69.29
318.922	89.77
319.136	97.96
319.349	112.3
319.563	16.04
319.776	67.24
319.99	5.8
320.203	3.75
320.417	-0.34
320.63	34.47
320.843	36.52
321.057	89.77
321.27	1.71
321.483	28.33
321.697	81.58
321.91	120.49
322.124	-24.92
322.337	112.3
322.55	11.95
322.763	42.67
322.977	89.77
323.19	128.68
323.403	52.91
323.617	20.14
323.83	3.75
324.043	75.43
324.256	63.15
324.469	18.09
324.683	77.48
324.896	30.38
325.109	-33.11
325.322	100.01
325.535	28.33
325.748	16.04
325.962	38.57
326.175	57
326.388	-57.68
326.601	75.43
326.814	93.87
327.027	34.47
327.24	116.39
327.453	-0.34
327.666	73.39
327.879	65.19
328.092	46.76
328.305	-12.63
328.518	85.67
328.731	40.62
328.944	44.71
329.157	13.99
329.37	34.47
329.583	61.1
329.796	63.15
330.009	7.85
330.222	95.91
330.435	34.47
330.648	24.23
330.861	-0.34
331.073	100.01
331.286	63.15
331.499	91.82
331.712	52.91
331.925	120.49
332.138	102.06
332.35	42.67
332.563	73.39
332.776	54.95
332.989	57
333.202	73.39
333.414	61.1
333.627	26.28
333.84	73.39
334.053	87.72
334.265	69.29
334.478	83.63
334.691	104.11
334.903	83.63
335.116	42.67
335.329	52.91
335.541	79.53
335.754	57
335.966	85.67
336.179	79.53
336.392	24.23
336.604	77.48
336.817	71.34
337.029	67.24
337.242	46.76
337.454	69.29
337.667	-37.2
337.88	81.58
338.092	20.14
338.305	77.48
338.517	44.71
338.729	54.95
338.942	122.54
339.154	91.82
339.367	50.86
339.579	-14.68
339.792	30.38
340.004	91.82
340.217	-24.92
340.429	104.11
340.641	36.52
340.854	-0.34
341.066	89.77
341.278	83.63
341.491	81.58
341.703	147.11
341.915	26.28
342.128	81.58
342.34	50.86
342.552	73.39
342.764	85.67
342.977	44.71
343.189	-8.53
343.401	28.33
343.613	42.67
343.826	104.11
344.038	73.39
344.25	85.67
344.462	30.38
344.674	128.68
344.886	48.81
345.099	83.63
345.311	3.75
345.523	50.86
345.735	42.67
345.947	67.24
346.159	67.24
346.371	-8.53
346.583	91.82
346.795	67.24
347.007	95.91
347.219	63.15
347.431	42.67
347.643	118.44
347.855	71.34
348.067	97.96
348.279	52.91
348.491	3.75
348.703	46.76
348.915	30.38
349.127	-12.63
349.339	54.95
349.551	46.76
349.763	93.87
349.975	46.76
350.187	126.63
350.399	50.86
350.61	71.34
350.822	122.54
351.034	57
351.246	38.57
351.458	97.96
351.669	110.25
351.881	118.44
352.093	32.43
352.305	136.87
352.517	34.47
352.728	93.87
352.94	40.62
353.152	20.14
353.363	93.87
353.575	91.82
353.787	102.06
353.999	128.68
354.21	83.63
354.422	130.73
354.633	89.77
354.845	85.67
355.057	22.19
355.268	48.81
355.48	9.9
355.692	71.34
355.903	67.24
356.115	77.48
356.326	65.19
356.538	67.24
356.749	50.86
356.961	106.15
357.172	114.34
357.384	104.11
357.595	116.39
357.807	48.81
358.018	85.67
358.23	26.28
358.441	143.02
358.653	145.06
358.864	65.19
359.075	106.15
359.287	110.25
359.498	67.24
359.709	120.49
359.921	57
360.132	20.14
360.344	46.76
360.555	67.24
360.766	73.39
360.977	-4.44
361.189	79.53
361.4	120.49
361.611	112.3
361.823	38.57
362.034	120.49
362.245	97.96
362.456	130.73
362.667	9.9
362.879	59.05
363.09	7.85
363.301	24.23
363.512	83.63
363.723	65.19
363.935	73.39
364.146	93.87
364.357	16.04
364.568	102.06
364.779	93.87
364.99	147.11
365.201	63.15
365.412	145.06
365.623	46.76
365.834	77.48
366.045	59.05
366.256	75.43
366.467	79.53
366.678	87.72
366.889	-16.73
367.1	59.05
367.311	106.15
367.522	138.92
367.733	46.76
367.944	95.91
368.155	71.34
368.366	36.52
368.577	71.34
368.788	32.43
368.999	67.24
369.209	32.43
369.42	112.3
369.631	93.87
369.842	61.1
370.053	93.87
370.264	102.06
370.474	89.77
370.685	104.11
370.896	106.15
371.107	77.48
371.317	36.52
371.528	26.28
371.739	20.14
371.95	120.49
372.16	63.15
372.371	63.15
372.582	71.34
372.792	-0.34
373.003	26.28
373.214	85.67
373.424	77.48
373.635	57
373.846	155.3
374.056	-4.44
374.267	81.58
374.477	91.82
374.688	75.43
374.898	87.72
375.109	40.62
375.319	50.86
375.53	124.58
375.74	145.06
375.951	57
376.161	38.57
376.372	26.28
376.582	32.43
376.793	122.54
377.003	97.96
377.214	79.53
377.424	95.91
377.635	128.68
377.845	122.54
378.055	102.06
378.266	63.15
378.476	104.11
378.686	106.15
378.897	140.97
379.107	83.63
379.317	85.67
379.528	44.71
379.738	87.72
379.948	120.49
380.158	67.24
380.369	69.29
380.579	73.39
380.789	106.15
380.999	79.53
381.21	-6.49
381.42	104.11
381.63	83.63
381.84	54.95
382.05	104.11
382.261	112.3
382.471	5.8
382.681	89.77
382.891	77.48
383.101	93.87
383.311	79.53
383.521	89.77
383.731	54.95
383.941	63.15
384.151	36.52
384.361	151.21
384.571	69.29
384.781	83.63
384.991	89.77
385.201	106.15
385.411	26.28
385.621	50.86
385.831	136.87
386.041	40.62
386.251	118.44
386.461	116.39
386.671	73.39
386.881	87.72
387.091	28.33
387.301	122.54
387.511	134.82
387.72	79.53
387.93	134.82
388.14	28.33
388.35	-4.44
388.56	114.34
388.769	81.58
388.979	106.15
389.189	38.57
389.399	108.2
389.609	138.92
389.818	128.68
390.028	75.43
390.238	132.78
390.447	67.24
390.657	34.47
390.867	65.19
391.076	118.44
391.286	67.24
391.496	48.81
391.705	65.19
391.915	130.73
392.125	104.11
392.334	143.02
392.544	50.86
392.753	44.71
392.963	89.77
393.172	122.54
393.382	50.86
393.591	87.72
393.801	67.24
394.01	120.49
394.22	120.49
394.429	81.58
394.639	67.24
394.848	112.3
395.058	79.53
395.267	175.78
395.477	116.39
395.686	143.02
395.895	93.87
396.105	93.87
396.314	116.39
396.524	87.72
396.733	112.3
396.942	108.2
397.152	67.24
397.361	89.77
397.57	42.67
397.78	65.19
397.989	116.39
398.198	124.58
398.407	97.96
398.617	73.39
398.826	183.98
399.035	59.05
399.244	114.34
399.453	28.33
399.663	124.58
399.872	65.19
400.081	102.06
400.29	165.54
400.499	157.35
400.708	106.15
400.917	120.49
401.127	100.01
401.336	159.4
401.545	181.93
401.754	149.16
401.963	145.06
402.172	108.2
402.381	147.11
402.59	149.16
402.799	93.87
403.008	100.01
403.217	75.43
403.426	181.93
403.635	118.44
403.844	61.1
404.053	145.06
404.262	71.34
404.471	171.69
404.68	165.54
404.888	161.45
405.097	147.11
405.306	159.4
405.515	171.69
405.724	198.31
405.933	126.63
406.142	153.26
406.35	104.11
406.559	198.31
406.768	194.22
406.977	161.45
407.185	261.8
407.394	100.01
407.603	198.31
407.812	247.46
408.02	192.17
408.229	173.74
408.438	186.02
408.646	263.85
408.855	188.07
409.064	229.03
409.272	261.8
409.481	263.85
409.69	222.89
409.898	274.09
410.107	241.32
410.315	313
410.524	286.37
410.733	280.23
410.941	269.99
411.15	343.72
411.358	274.09
411.567	360.1
411.775	294.57
411.984	343.72
412.192	374.44
412.401	368.29
412.609	310.95
412.818	403.11
413.026	384.68
413.234	376.48
413.443	396.96
413.651	485.03
413.86	374.44
414.068	495.27
414.276	478.88
414.485	448.16
414.693	544.42
414.901	593.57
415.11	507.55
415.318	554.66
415.526	560.8
415.734	648.86
415.943	583.33
416.151	622.24
416.359	710.3
416.567	581.28
416.776	724.64
416.984	655.01
417.192	779.93
417.4	741.02
417.608	784.03
417.817	806.56
418.025	841.37
418.233	882.33
418.441	800.41
418.649	806.56
418.857	933.53
419.065	1033.88
419.273	898.72
419.481	980.64
419.689	1152.67
419.897	1037.98
420.105	1140.38
420.313	1087.13
420.521	1177.24
420.729	1222.3
420.937	1226.39
421.145	1361.56
421.353	1226.39
421.561	1418.9
421.769	1390.23
421.977	1457.81
422.185	1453.72
422.393	1597.07
422.601	1658.51
422.809	1638.03
423.017	1658.51
423.224	1767.06
423.432	1783.44
423.64	1752.72
423.848	2031.24
424.056	1783.44
424.263	1963.66
424.471	1943.18
424.679	2051.72
424.887	2133.64
425.094	2285.19
425.302	2301.58
425.51	2348.68
425.718	2436.74
425.925	2381.45
426.133	2524.8
426.341	2596.48
426.548	2883.2
426.756	2768.51
426.964	2938.49
427.171	2963.07
427.379	3153.53
427.586	3094.14
427.794	3321.46
428.001	3387
428.209	3466.87
428.417	3399.29
428.624	3667.57
428.832	3700.34
429.039	3649.14
429.247	3688.05
429.454	4107.88
429.662	4284.01
429.869	4028.01
430.076	4302.44
430.284	4169.32
430.491	4384.36
430.699	4679.27
430.906	4568.68
431.114	4613.73
431.321	4818.53
431.528	4873.82
431.736	5240.41
431.943	5342.81
432.15	5324.38
432.358	5422.68
432.565	5879.38
432.772	5729.88
432.979	5856.85
433.187	6012.49
433.394	6051.41
433.601	6442.57
433.808	6497.86
434.016	6626.89
434.223	6727.24
434.43	7126.59
434.637	7001.66
434.844	7407.16
435.052	7454.26
435.259	7417.4
435.466	7593.53
435.673	7544.38
435.88	8009.26
436.087	8410.67
436.294	8302.12
436.501	8281.64
436.708	8240.68
436.915	8705.57
437.122	9043.49
437.329	9016.87
437.537	9432.6
437.743	9350.68
437.95	9338.4
438.157	9991.7
438.364	10356.24
438.571	10288.65
438.778	10251.79
438.985	11101.7
439.192	10774.02
439.399	11261.44
439.606	10784.26
439.813	11355.65
440.02	11900.41
440.227	11955.7
440.433	11824.63
440.64	12176.88
440.847	12133.87
441.054	12479.98
441.261	13008.36
441.467	12946.92
441.674	13250.02
441.881	13989.33
442.088	13970.9
442.294	13698.52
442.501	14421.45
442.708	14669.26
442.914	14783.95
443.121	15482.3
443.328	14937.54
443.534	16264.63
443.741	15840.7
443.948	15740.35
444.154	16711.08
444.361	16600.49
444.568	16739.76
444.774	16774.57
444.981	16854.44
445.187	17290.66
445.394	18005.4
445.6	17943.96
445.807	19662.21
446.013	18611.6
446.22	19125.64
446.426	19756.41
446.633	19940.73
446.839	20591.98
447.046	19942.78
447.252	20804.97
447.459	20856.17
447.665	20802.93
447.871	21663.07
448.078	22830.41
448.284	21812.57
448.491	22177.11
448.697	22887.76
448.903	23432.52
449.11	23409.99
449.316	23332.17
449.522	23594.31
449.728	24134.97
449.935	24362.29
450.141	24055.1
450.347	24761.65
450.553	23792.96
450.76	24227.13
450.966	25208.11
451.172	24870.19
451.378	25300.26
451.584	24802.61
451.791	25574.69
451.997	25615.65
452.203	25945.37
452.409	25888.03
452.615	25642.28
452.821	24606
453.027	24438.07
453.233	25888.03
453.44	24763.7
453.646	24974.64
453.852	25249.07
454.058	25451.81
454.264	24587.57
454.47	25212.2
454.676	24315.19
454.882	25378.09
455.088	23086.41
455.294	23246.15
455.5	23659.84
455.705	24106.3
455.911	22893.9
456.117	22555.99
456.323	22189.4
456.529	21056.87
456.735	22107.48
456.941	21620.06
457.147	21026.15
457.352	20438.39
457.558	19944.83
457.764	19993.98
457.97	19881.34
458.176	19381.63
458.381	19514.75
458.587	18302.36
458.793	18326.93
458.999	17401.25
459.204	18560.4
459.41	18107.8
459.616	16854.44
459.821	17003.94
460.027	17096.1
460.233	16432.56
460.438	15795.64
460.644	16252.34
460.85	15138.24
461.055	15056.32
461.261	15029.7
461.466	13864.41
461.672	13454.81
461.878	14366.16
462.083	13434.33
462.289	13088.23
462.494	12922.34
462.7	12406.25
462.905	12056.05
463.111	12656.11
463.316	12717.54
463.522	12484.08
463.727	12396.01
463.932	12459.5
464.138	12211.7
464.343	12013.04
464.549	12195.31
464.754	12367.34
464.959	12187.12
465.165	12162.55
465.37	11591.16
465.575	11425.28
465.781	11984.37
465.986	11994.61
466.191	11644.41
466.397	11585.02
466.602	10620.42
466.807	10968.58
467.012	11136.51
467.218	11111.94
467.423	10989.06
467.628	10968.58
467.833	11470.33
468.038	10853.89
468.244	10745.35
468.449	11120.13
468.654	10743.3
468.859	10794.5
469.064	10866.18
469.269	10161.68
469.474	10290.7
469.679	10688.01
469.885	10026.51
470.09	10229.26
470.295	10200.59
470.5	10049.04
470.705	10001.94
470.91	9866.77
471.115	9885.2
471.32	9985.55
471.525	9952.79
471.73	9616.92
471.935	9537.05
472.139	9356.83
472.344	9465.37
472.549	9199.13
472.754	9305.63
472.959	9041.44
473.164	9035.3
473.369	8537.64
473.574	8984.1
473.778	8961.57
473.983	8836.64
474.188	8726.05
474.393	8492.59
474.598	8611.37
474.802	8435.24
475.007	8279.6
475.212	8232.49
475.417	8058.42
475.621	8046.13
475.826	8044.08
476.031	7966.26
476.235	7761.46
476.44	7882.29
476.645	7579.19
476.849	7761.46
477.054	7540.28
477.259	7593.53
477.463	7720.5
477.668	7286.33
477.872	7427.64
478.077	7401.02
478.282	7020.1
478.486	7067.2
478.691	7095.87
478.895	7138.88
479.1	6907.46
479.304	7061.05
479.509	6817.35
479.713	6946.37
479.918	6565.45
480.122	6721.09
480.326	6776.39
480.531	6919.75
480.735	6526.54
480.94	6708.8
481.144	6919.75
481.348	6409.8
481.553	6653.51
481.757	6469.19
481.961	6432.33
482.166	6571.59
482.37	6563.4
482.574	6450.76
482.778	6381.13
482.983	6604.36
483.187	6504.01
483.391	6555.21
483.595	6473.29
483.8	6411.85
484.004	6524.49
484.208	6633.03
484.412	6364.75
484.616	6538.82
484.821	6600.26
485.025	6248.01
485.229	6661.7
485.433	6372.94
485.637	6411.85
485.841	6538.82
486.045	6442.57
486.249	6592.07
486.453	6571.59
486.657	6510.15
486.861	6440.52
487.065	6448.71
487.269	6264.4
487.473	6393.42
487.677	6590.02
487.881	6612.55
488.085	6491.72
488.289	6544.97
488.493	6458.95
488.697	6497.86
488.901	6510.15
489.105	6549.06
489.309	6497.86
489.512	6555.21
489.716	6831.68
489.92	6487.62
490.124	6647.37
490.328	6743.62
490.531	6841.92
490.735	6600.26
490.939	6798.91
491.143	6702.66
491.346	6633.03
491.55	6819.39
491.754	6753.86
491.958	6833.73
492.161	6825.54
492.365	6944.32
492.569	6954.56
492.772	6876.74
492.976	6987.33
493.18	7099.97
493.383	7157.31
493.587	7032.38
493.79	7048.77
493.994	7224.89
494.197	7298.62
494.401	7368.25
494.605	7321.15
494.808	7255.61
495.012	7583.29
495.215	7419.45
495.419	7583.29
495.622	7669.3
495.825	7626.29
496.029	7648.82
496.232	7790.13
496.436	7749.17
496.639	7999.02
496.843	7992.88
497.046	8150.57
497.249	8300.08
497.453	8283.69
497.656	8381.99
497.859	8513.06
498.063	8427.05
498.266	8719.91
498.469	8746.53
498.673	8930.85
498.876	8908.32
499.079	9072.16
499.282	9209.37
499.485	9147.94
499.689	9344.54
499.892	9545.24
500.095	9614.87
500.298	9930.26
500.501	9565.72
500.705	10067.47
500.908	10071.57
501.111	10057.23
501.314	10227.21
501.517	10515.98
501.72	10642.95
501.923	10530.31
502.126	10759.69
502.329	10913.28
502.532	11195.9
502.735	11025.92
502.938	11234.82
503.141	11503.1
503.344	11578.87
503.547	11517.43
503.75	11777.53
503.953	12099.06
504.156	12248.56
504.359	12410.35
504.562	12596.71
504.765	12584.43
504.968	12717.54
505.17	12774.89
505.373	13155.81
505.576	13139.43
505.779	13346.27
505.982	13379.04
506.185	13999.57
506.387	13970.9
506.59	13983.19
506.793	14259.67
506.996	14413.26
507.198	14607.82
507.401	14626.25
507.604	14898.63
507.807	15420.86
508.009	15480.25
508.212	15402.43
508.415	15871.42
508.617	15635.9
508.82	16313.78
509.022	16061.88
509.225	16795.05
509.428	16561.58
509.63	16954.79
509.833	17069.48
510.035	17505.7
510.238	17499.55
510.44	17782.17
510.643	17800.6
510.845	18101.65
511.048	17956.25
511.25	18611.6
511.453	18732.43
511.655	19457.41
511.858	19008.9
512.06	19250.56
512.262	19856.76
512.465	19639.68
512.667	19991.93
512.87	20292.98
513.072	20313.46
513.274	20815.21
513.477	21022.06
513.679	21460.32
513.881	21771.61
514.084	21839.2
514.286	21744.99
514.488	21892.44
514.69	22912.33
514.893	22639.95
515.095	22809.93
515.297	23106.89
515.499	23240.01
515.701	23735.62
515.904	24061.24
516.106	24333.62
516.308	24626.48
516.51	24913.2
516.712	25095.47
516.914	25279.78
517.116	25638.18
517.318	25656.61
517.52	26076.44
517.722	26281.24
517.925	26707.22
518.127	27194.64
518.329	27192.59
518.531	27178.25
518.733	27686.15
518.935	27907.33
519.136	28316.92
519.338	28833.01
519.54	28779.76
519.742	28953.84
519.944	29414.63
520.146	29959.39
520.348	29910.24
520.55	30164.19
520.752	30373.08
520.954	30991.57
521.155	30586.07
521.357	31382.73
521.559	31120.59
521.761	31933.64
521.963	32304.32
522.164	32316.61
522.366	32650.42
522.568	33045.68
522.77	33014.96
522.971	33422.51
523.173	33414.32
523.375	33825.96
523.576	33830.05
523.778	33801.38
523.98	34376.86
524.181	34198.69
524.383	34669.72
524.584	34890.9
524.786	35464.33
524.988	35034.26
525.189	35533.96
525.391	35691.66
525.592	36263.04
525.794	36326.53
525.995	36457.6
526.197	36361.34
526.398	36916.34
526.6	37221.49
526.801	37123.19
527.003	37368.94
527.204	37049.46
527.406	37729.39
527.607	37588.08
527.808	37809.26
528.01	37454.96
528.211	37725.29
528.412	38769.76
528.614	38372.45
528.815	38505.57
529.016	38884.44
529.218	38374.5
529.419	38687.84
529.62	38614.11
529.822	38782.04
530.023	38958.17
530.224	39142.49
530.425	39142.49
530.626	38855.77
530.828	39005.27
531.029	39844.94
531.23	39400.53
531.431	39459.92
531.632	39302.23
531.833	39695.44
532.035	39634
532.236	39652.43
532.437	39996.49
532.638	39570.51
532.839	39982.15
533.04	39810.12
533.241	39261.27
533.442	40096.84
533.643	40027.21
533.844	39963.72
534.045	40119.37
534.246	39472.21
534.447	40551.49
534.648	39994.44
534.849	40240.2
535.05	39998.54
535.251	40254.53
535.451	39853.13
535.652	40195.14
535.853	40520.77
536.054	40227.91
536.255	40500.29
536.456	39990.34
536.657	40909.88
536.857	39920.71
537.058	40354.88
537.259	40684.61
537.46	40481.86
537.66	40500.29
537.861	40574.02
538.062	40205.38
538.263	40625.21
538.463	41012.28
538.664	40502.34
538.865	40506.43
539.065	40606.78
539.266	40057.93
539.466	41043
539.667	40170.57
539.868	41053.24
540.068	40655.93
540.269	40401.99
540.469	40524.86
540.67	40406.08
540.87	40322.12
541.071	40535.1
541.271	40778.81
541.472	40465.47
541.672	40352.83
541.873	40490.05
542.073	40037.45
542.274	41114.68
542.474	40225.86
542.675	40162.37
542.875	40870.97
543.075	40346.69
543.276	40215.62
543.476	41063.48
543.676	40260.68
543.877	40547.39
544.077	40428.61
544.277	40289.35
544.478	40541.25
544.678	40461.38
544.878	40291.4
545.078	40342.6
545.279	40420.42
545.479	39978.06
545.679	40424.51
545.879	40795.2
546.079	40387.65
546.28	40289.35
546.48	40383.55
546.68	40526.91
546.88	40651.84
547.08	40610.88
547.28	40258.63
547.48	40156.23
547.68	40696.89
547.88	39775.31
548.081	40262.72
548.281	40332.36
548.481	40328.26
548.681	40617.02
548.881	40272.96
549.081	40363.07
549.28	39918.67
549.48	40553.54
549.68	40340.55
549.88	40893.5
550.08	40223.81
550.28	40600.64
550.48	40084.55
550.68	40485.95
550.88	40272.96
551.08	40436.8
551.279	40182.85
551.479	39953.48
551.679	40465.47
551.879	40080.46
552.079	40256.58
552.278	40209.48
552.478	40201.29
552.678	39396.43
552.878	40133.7
553.077	40356.93
553.277	39537.74
553.477	40494.14
553.676	40010.82
553.876	40154.18
554.076	40006.73
554.275	39881.8
554.475	39480.4
554.674	39988.3
554.874	39947.34
555.074	39892.04
555.273	39707.72
555.473	40119.37
555.672	39644.24
555.872	39615.57
556.071	39689.29
556.271	39865.42
556.47	39683.15
556.67	39337.04
556.869	39474.26
557.068	39791.69
557.268	38878.3
557.467	38892.63
557.667	39074.9
557.866	39089.24
558.065	39224.4
558.265	38779.99
558.464	38579.29
558.663	39208.02
558.863	38372.45
559.062	39351.38
559.261	38421.6
559.461	39165.01
559.66	38480.99
559.859	38851.67
560.058	38358.11
560.258	38712.41
560.457	38126.69
560.656	38548.57
560.855	38200.42
561.054	38360.16
561.253	38141.03
561.453	38130.79
561.652	38610.01
561.851	38141.03
562.05	38112.36
562.249	37729.39
562.448	37762.15
562.647	38020.2
562.846	38210.66
563.045	37860.46
563.244	37401.71
563.443	38300.77
563.642	37465.2
563.841	37799.02
564.04	37940.33
564.239	37940.33
564.438	37287.03
564.637	37588.08
564.836	37692.52
565.035	36490.37
565.234	37414
565.432	37319.79
565.631	37024.89
565.83	37225.59
566.029	36973.69
566.228	37129.33
566.427	36703.35
566.625	36648.06
566.824	35941.51
567.023	36560
567.222	36078.72
567.42	36711.55
567.619	36263.04
567.818	36527.23
568.016	36160.64
568.215	36428.93
568.414	36064.39
568.612	36437.12
568.811	36361.34
569.01	36156.55
569.208	35636.36
569.407	35755.15
569.605	35452.05
569.804	35847.3
570.002	35456.14
570.201	35714.19
570.4	35032.21
570.598	34946.2
570.797	35071.12
570.995	35116.18
571.193	34854.04
571.392	34993.3
571.59	34886.81
571.789	34462.88
571.987	34391.2
572.186	34581.66
572.384	34112.67
572.582	34243.74
572.781	34593.95
572.979	33797.29
573.177	33893.54
573.376	34108.58
573.574	34018.47
573.772	33705.13
573.971	33332.4
574.169	33279.15
574.367	33254.58
574.565	33391.79
574.763	32974
574.962	33332.4
575.16	32957.62
575.358	33283.25
575.556	32548.03
575.754	32877.75
575.952	32466.11
576.151	32588.99
576.349	31919.3
576.547	32249.02
576.745	32478.4
576.943	32351.42
577.141	32367.8
577.339	32349.37
577.537	31864
577.735	31947.97
577.933	31286.48
578.131	32111.81
578.329	31517.9
578.527	31534.28
578.725	31294.67
578.923	31239.37
579.121	30946.51
579.319	31028.43
579.516	31274.19
579.714	31075.54
579.912	30870.74
580.11	30858.45
580.308	30786.77
580.506	30825.68
580.704	30076.13
580.901	30672.09
581.099	30332.12
581.297	30041.31
581.495	30008.54
581.692	30381.28
581.89	29953.25
582.088	30049.5
582.285	29842.66
582.483	29949.15
582.681	29478.12
582.878	29693.16
583.076	29398.25
583.274	29689.06
583.471	29209.84
583.669	29351.15
583.866	28976.37
584.064	28998.9
584.262	28884.21
584.459	28976.37
584.657	28876.02
584.854	28982.51
585.052	28536.06
585.249	28634.36
585.447	28542.2
585.644	28105.98
585.841	28253.44
586.039	28912.88
586.236	27841.79
586.434	28089.6
586.631	27936
586.828	28062.97
587.026	28077.31
587.223	27925.76
587.42	27583.75
587.618	27448.58
587.815	27229.45
588.012	27499.78
588.21	27018.51
588.407	27632.9
588.604	27165.96
588.801	26848.53
588.999	27137.29
589.196	26750.23
589.393	26983.69
589.59	27041.04
589.787	27016.46
589.984	26629.4
590.182	26510.61
590.379	26357.02
590.576	25861.41
590.773	26404.12
590.97	26115.36
591.167	26395.93
591.364	25756.96
591.561	26273.05
591.758	25668.9
591.955	25541.92
592.152	26039.58
592.349	25335.08
592.546	25527.59
592.743	25619.75
592.94	25351.46
593.137	25599.27
593.334	25500.97
593.531	25140.52
593.727	25199.91
593.924	25148.71
594.121	24761.65
594.318	25343.27
594.515	24618.29
594.712	25036.08
594.908	24757.55
595.105	24657.2
595.302	24345.91
595.499	24790.32
595.696	24450.36
595.892	24251.7
596.089	24630.58
596.286	24626.48
596.482	24192.31
596.679	23938.37
596.876	24157.5
597.072	23971.13
597.269	23967.04
597.466	23889.21
597.662	23676.23
597.859	23954.75
598.055	23856.45
598.252	23270.73
598.448	23541.06
598.645	23524.68
598.841	23270.73
599.038	23096.65
599.234	23553.35
599.431	23024.97
599.627	23207.24
599.824	23420.23
600.02	22887.76
600.217	23237.96
600.413	22932.81
600.609	22613.33
600.806	22723.92
601.002	22642
601.198	22515.03
601.395	22271.32
601.591	22242.65
601.787	22330.71
601.984	22039.9
602.18	22074.71
602.376	21919.07
602.572	21931.36
602.769	22191.45
602.965	22082.91
603.161	21906.78
603.357	21638.5
603.553	21542.24
603.75	21460.32
603.946	21552.48
604.142	21542.24
604.338	21388.64
604.534	21374.31
604.73	21140.84
604.926	21212.52
605.122	21200.23
605.318	20993.39
605.514	20905.32
605.71	20921.71
605.906	20977
606.102	20776.3
606.298	20667.76
606.494	20532.59
606.69	20524.4
606.886	20571.5
607.082	20186.49
607.278	20481.39
607.474	19967.35
607.67	20370.8
607.866	19922.3
608.062	20239.73
608.257	19862.91
608.453	20188.53
608.649	19936.63
608.845	19758.46
609.041	19551.62
609.236	19832.19
609.432	19584.38
609.628	19615.1
609.824	19705.21
610.019	19582.34
610.215	19461.51
610.411	19463.55
610.606	19211.65
610.802	19387.78
610.998	19271.04
611.193	19008.9
611.389	19119.49
611.584	19117.45
611.78	19043.72
611.976	19123.59
612.171	18793.87
612.367	19076.49
612.562	18877.83
612.758	18562.45
612.953	18394.51
613.149	18867.59
613.344	18253.2
613.539	18666.89
613.735	18578.83
613.93	18513.3
614.126	18216.34
614.321	18431.38
614.517	18288.02
614.712	18445.71
614.907	18077.08
615.103	18152.85
615.298	18068.89
615.493	18441.62
615.688	17941.91
615.884	18345.36
616.079	17847.71
616.274	18007.45
616.47	17698.2
616.665	17890.71
616.86	17290.66
617.055	17622.43
617.25	17620.38
617.445	17759.64
617.641	17415.58
617.836	17565.09
618.031	17591.71
618.226	17571.23
618.421	17180.07
618.616	17397.15
618.811	17135.01
619.006	17315.23
619.201	16899.5
619.396	17110.44
619.591	16684.46
619.786	16786.86
619.981	16561.58
620.176	16762.28
620.371	16489.9
620.566	16534.96
620.761	16342.45
620.956	16457.14
621.151	16199.09
621.346	16313.78
621.541	15973.81
621.735	15857.08
621.93	15877.56
622.125	15721.91
622.32	15666.62
622.515	15756.73
622.709	15633.85
622.904	15654.33
623.099	15369.66
623.294	15400.38
623.488	15181.25
623.683	15328.7
623.878	14865.86
624.072	14994.89
624.267	15148.48
624.462	14829
624.656	14775.75
624.851	14603.72
625.046	14484.94
625.24	14339.54
625.435	14601.68
625.629	14181.84
625.824	14159.31
626.018	14300.62
626.213	13981.14
626.407	14300.62
626.602	13798.87
626.796	14069.2
626.991	14042.58
627.185	13497.82
627.38	13700.57
627.574	13645.27
627.768	13436.38
627.963	13401.57
628.157	13250.02
628.352	13213.15
628.546	13198.82
628.74	13157.86
628.935	13196.77
629.129	12981.73
629.323	12883.43
629.517	13010.4
629.712	12828.13
629.906	12926.44
630.1	12594.67
630.294	12387.82
630.489	12508.65
630.683	12602.86
630.877	12234.22
631.071	12410.35
631.265	12576.23
631.459	12164.59
631.653	12066.29
631.848	12037.62
632.042	12082.67
632.236	12047.86
632.43	12140.02
632.624	11728.38
632.818	11793.91
633.012	11808.25
633.206	11585.02
633.4	11765.24
633.594	11554.3
633.788	11421.18
633.982	11290.11
634.176	11445.76
634.369	11312.64
634.563	11236.86
634.757	11247.1
634.951	11138.56
635.145	11150.85
635.339	10987.01
635.533	10862.08
635.726	10923.52
635.92	10804.74
636.114	10817.03
636.308	10677.77
636.501	10724.87
636.695	10786.31
636.889	10522.12
637.083	10532.36
637.276	10284.56
637.47	10554.89
637.664	10481.16
637.857	10323.47
638.051	10294.8
638.244	10126.86
638.438	10253.84
638.632	10022.42
638.825	9885.2
639.019	9817.62
639.212	9721.37
639.406	9807.38
639.599	9831.96
639.793	9741.85
639.986	9700.89
640.18	9606.68
640.373	9598.49
640.567	9469.47
640.76	9711.13
640.954	9365.02
641.147	9348.64
641.34	9358.88
641.534	9381.4
641.727	9401.88
641.92	9387.55
642.114	9119.26
642.307	9225.76
642.5	9121.31
642.694	8982.05
642.887	8842.79
643.08	8922.66
643.273	8865.32
643.467	8703.53
643.66	8545.83
643.853	8773.16
644.046	8572.46
644.239	8644.13
644.432	8578.6
644.626	8418.86
644.819	8338.99
645.012	8517.16
645.205	8377.9
645.398	8230.45
645.591	8158.77
645.784	8228.4
645.977	8191.53
646.17	8101.42
646.363	7876.15
646.556	7921.2
646.749	7919.15
646.942	8003.12
647.135	7827
647.328	7810.61
647.521	7720.5
647.714	7390.78
647.907	7538.23
648.099	7611.96
648.292	7564.86
648.485	7515.7
648.678	7323.19
648.871	7300.67
649.064	7347.77
649.256	7284.28
649.449	7200.32
649.642	7253.56
649.835	7157.31
650.027	7085.63
650.22	7212.6
650.413	7042.62
650.605	7016
650.798	6907.46
650.991	6872.64
651.183	6837.83
651.376	6807.11
651.568	6866.5
651.761	6760
651.954	6659.65
652.146	6682.18
652.339	6590.02
652.531	6559.3
652.724	6598.21
652.916	6442.57
653.109	6440.52
653.301	6501.96
653.494	6489.67
653.686	6334.03
653.879	6260.3
654.071	6080.08
654.263	6264.4
654.456	6174.28
654.648	6186.57
654.84	6037.07
655.033	6032.97
655.225	5924.43
655.417	6043.21
655.61	5928.53
655.802	6010.45
655.994	5838.42
656.186	5930.58
656.379	5697.11
656.571	5690.96
656.763	5680.72
656.955	5656.15
657.148	5508.69
657.34	5559.89
657.532	5707.35
657.724	5561.94
657.916	5523.03
658.108	5377.62
658.3	5371.48
658.492	5293.66
658.684	5228.12
658.876	5207.64
659.068	5342.81
659.26	5113.44
659.452	5238.36
659.644	5217.88
659.836	5107.29
660.028	5246.55
660.22	5066.33
660.412	4906.59
660.604	4873.82
660.796	4820.58
660.988	4896.35
661.18	4855.39
661.372	4902.5
661.563	4947.55
661.755	4660.84
661.947	4623.97
662.139	4810.34
662.331	4675.17
662.522	4589.16
662.714	4642.4
662.906	4562.53
663.097	4566.63
663.289	4417.13
663.481	4576.87
663.673	4505.19
663.864	4417.13
664.056	4284.01
664.247	4365.93
664.439	4243.05
664.631	4241
664.822	4335.21
665.014	4251.24
665.205	4314.73
665.397	4204.14
665.588	4103.79
665.78	4054.64
665.971	4161.13
666.163	3935.85
666.354	4025.97
666.546	4040.3
666.737	3948.14
666.929	3972.72
667.12	4052.59
667.311	3942
667.503	3823.22
667.694	3944.05
667.885	3974.77
668.077	3933.81
668.268	3788.4
668.459	3774.07
668.651	3755.63
668.842	3815.02
669.033	3782.26
669.224	3638.9
669.416	3704.43
669.607	3817.07
669.798	3647.09
669.989	3665.52
670.18	3616.37
670.371	3638.9
670.563	3622.52
670.754	3612.28
670.945	3569.27
671.136	3563.12
671.327	3456.63
671.518	3456.63
671.709	3602.04
671.9	3538.55
672.091	3540.6
672.282	3370.62
672.473	3511.93
672.664	3477.11
672.855	3454.58
673.046	3335.8
673.237	3384.95
673.428	3276.41
673.619	3321.46
673.809	3348.09
674	3272.31
674.191	3303.03
674.382	3393.14
674.573	3356.28
674.764	3155.58
674.954	3233.4
675.145	3343.99
675.336	3257.98
675.527	3243.64
675.717	3284.6
675.908	3214.97
676.099	3085.95
676.289	3124.86
676.48	3198.59
676.671	3231.35
676.861	3075.71
677.052	3192.44
677.243	3026.56
677.433	3047.04
677.624	3116.67
677.814	3116.67
678.005	3088
678.195	3153.53
678.386	2930.3
678.576	3030.65
678.767	3038.84
678.957	3163.77
679.148	2997.88
679.338	3001.98
679.529	3016.32
679.719	2956.93
679.909	3020.41
680.1	2946.69
680.29	2918.01
680.481	2997.88
680.671	3065.47
680.861	3006.08
681.052	2973.31
681.242	2979.45
681.432	2907.77
681.622	2793.09
681.813	2958.97
682.003	2899.58
682.193	2915.97
682.383	3030.65
682.573	2829.95
682.764	2891.39
682.954	2924.16
683.144	2840.19
683.334	2897.53
683.524	3018.36
683.714	2850.43
683.904	2770.56
684.094	2926.21
684.284	2854.53
684.474	2760.32
684.664	2811.52
684.854	2856.58
685.044	2842.24
685.234	2811.52
685.424	2829.95
685.614	2762.37
685.804	2856.58
685.994	2799.23
686.184	2713.22
686.374	2758.27
686.564	2760.32
686.753	2760.32
686.943	2815.62
687.133	2860.67
687.323	2690.69
687.513	2721.41
687.702	2655.87
687.892	2608.77
688.082	2672.26
688.272	2729.6
688.461	2752.13
688.651	2717.31
688.841	2727.55
689.03	2754.18
689.22	2692.74
689.41	2688.64
689.599	2739.84
689.789	2725.51
689.979	2690.69
690.168	2807.42
690.358	2690.69
690.547	2799.23
690.737	2819.71
690.926	2686.59
691.116	2698.88
691.305	2762.37
691.495	2715.27
691.684	2621.06
691.874	2705.03
692.063	2647.68
692.252	2776.7
692.442	2723.46
692.631	2664.07
692.82	2619.01
693.01	2696.83
693.199	2592.39
693.388	2756.22
693.578	2678.4
693.767	2735.74
693.956	2625.15
694.146	2700.93
694.335	2698.88
694.524	2764.42
694.713	2709.12
694.902	2621.06
695.092	2748.03
695.281	2678.4
695.47	2645.63
695.659	2707.07
695.848	2684.55
696.037	2700.93
696.226	2715.27
696.415	2788.99
696.604	2608.77
696.793	2750.08
696.982	2664.07
697.171	2686.59
697.36	2606.72
697.549	2567.81
697.738	2666.11
697.927	2752.13
698.116	2694.79
698.305	2741.89
698.494	2702.98
698.683	2705.03
698.872	2678.4
699.061	2633.35
699.25	2659.97
699.438	2698.88
699.627	2641.54
699.816	2670.21
700.005	2647.68
700.193	2659.97
700.382	2571.91
700.571	2698.88
700.76	2633.35
700.948	2672.26
701.137	2582.15
701.326	2721.41
701.514	2594.44
701.703	2723.46
701.892	2557.57
702.08	2655.87
702.269	2604.67
702.457	2565.76
702.646	2707.07
702.834	2614.91
703.023	2629.25
703.212	2641.54
703.4	2526.85
703.589	2487.94
703.777	2510.47
703.965	2553.48
704.154	2598.53
704.342	2444.93
704.531	2418.31
704.719	2520.71
704.907	2520.71
705.096	2455.17
705.284	2608.77
705.472	2596.48
705.661	2453.13
705.849	2524.8
706.037	2576
706.226	2444.93
706.414	2518.66
706.602	2399.88
706.79	2438.79
706.979	2375.3
707.167	2537.09
707.355	2408.07
707.543	2408.07
707.731	2315.91
707.919	2393.73
708.107	2385.54
708.296	2360.97
708.484	2410.12
708.672	2487.94
708.86	2301.58
709.048	2328.2
709.236	2324.1
709.424	2375.3
709.612	2305.67
709.8	2494.08
709.988	2352.77
710.176	2262.66
710.364	2176.65
710.551	2283.14
710.739	2264.71
710.927	2219.66
711.115	2262.66
711.303	2367.11
711.491	2262.66
711.679	2186.89
711.866	2270.86
712.054	2283.14
712.242	2141.83
712.43	2229.9
712.617	2250.38
712.805	2240.14
712.993	2199.18
713.181	2100.87
713.368	2123.4
713.556	2127.5
713.744	2119.31
713.931	2174.6
714.119	2072.2
714.306	2219.66
714.494	2125.45
714.682	2160.27
714.869	2111.11
715.057	2064.01
715.244	2084.49
715.432	2051.72
715.619	2104.97
715.807	2035.34
715.994	2043.53
716.182	2027.15
716.369	2107.02
716.556	1988.24
716.744	1965.71
716.931	2002.57
717.119	1998.48
717.306	2010.76
717.493	1914.51
717.681	1980.04
717.868	2055.82
718.055	1957.52
718.242	1978
718.43	1949.32
718.617	1918.61
718.804	1797.78
718.991	1914.51
719.179	1994.38
719.366	1910.41
719.553	1861.26
719.74	1918.61
719.927	1826.45
720.114	1894.03
720.301	1820.3
720.488	1824.4
720.676	1861.26
720.863	1824.4
721.05	1867.41
721.237	1922.7
721.424	1818.25
721.611	1801.87
721.798	1791.63
721.985	1824.4
722.172	1769.1
722.358	1732.24
722.545	1736.34
722.732	1717.9
722.919	1832.59
723.106	1812.11
723.293	1762.96
723.48	1717.9
723.667	1664.66
723.853	1699.47
724.04	1658.51
724.227	1742.48
724.414	1676.95
724.6	1707.66
724.787	1658.51
724.974	1687.18
725.161	1707.66
725.347	1705.62
725.534	1586.83
725.72	1584.79
725.907	1574.55
726.094	1543.83
726.28	1672.85
726.467	1631.89
726.653	1539.73
726.84	1603.22
727.027	1652.37
727.213	1494.68
727.4	1574.55
727.586	1586.83
727.773	1662.61
727.959	1525.4
728.145	1466
728.332	1562.26
728.518	1644.18
728.705	1564.31
728.891	1474.2
729.077	1474.2
729.264	1443.48
729.45	1511.06
729.636	1431.19
729.823	1379.99
730.009	1470.1
730.195	1468.05
730.382	1445.52
730.568	1423
730.754	1474.2
730.94	1435.28
731.126	1560.21
731.313	1310.36
731.499	1552.02
731.685	1480.34
731.871	1379.99
732.057	1390.23
732.243	1425.04
732.429	1560.21
732.615	1455.76
732.801	1533.59
732.987	1357.46
733.173	1318.55
733.359	1500.82
733.545	1369.75
733.731	1472.15
733.917	1459.86
734.103	1394.33
734.289	1379.99
734.475	1373.85
734.661	1439.38
734.847	1382.04
735.033	1257.11
735.219	1410.71
735.404	1293.97
735.59	1291.93
735.776	1277.59
735.962	1345.17
736.148	1300.12
736.333	1175.19
736.519	1214.1
736.705	1271.45
736.89	1222.3
737.076	1326.74
737.262	1343.13
737.447	1343.13
737.633	1304.21
737.819	1283.74
738.004	1257.11
738.19	1312.41
738.375	1347.22
738.561	1287.83
738.747	1210.01
738.932	1275.54
739.118	1212.06
739.303	1259.16
739.489	1226.39
739.674	1263.26
739.859	1248.92
740.045	1216.15
740.23	1289.88
740.416	1134.23
740.601	1246.87
740.786	1261.21
740.972	1203.86
741.157	1136.28
741.342	1109.66
741.528	1173.14
741.713	1126.04
741.898	1230.49
742.084	1146.52
742.269	1134.23
742.454	1085.08
742.639	1171.1
742.824	1152.67
743.01	1033.88
743.195	1072.79
743.38	1107.61
743.565	1056.41
743.75	1042.07
743.935	992.92
744.12	1103.51
744.305	1033.88
744.49	1140.38
744.675	1050.27
744.86	980.64
745.045	1164.95
745.23	1048.22
745.415	978.59
745.6	1007.26
745.785	1076.89
745.97	1074.84
746.155	1001.12
746.34	1027.74
746.525	1066.65
746.71	1121.95
746.895	1003.16
747.079	1093.27
747.264	1040.03
747.449	990.88
747.634	990.88
747.819	960.16
748.003	956.06
748.188	937.63
748.373	1013.4
748.557	919.2
748.742	890.53
748.927	943.77
749.111	921.24
749.296	1044.12
749.481	917.15
749.665	904.86
749.85	890.53
750.034	929.44
750.219	951.96
750.404	945.82
750.588	937.63
750.773	845.47
750.957	919.2
751.141	911
751.326	855.71
751.51	831.13
751.695	835.23
751.879	827.04
752.064	904.86
752.248	880.29
752.432	876.19
752.617	816.8
752.801	908.96
752.985	831.13
753.17	816.8
753.354	798.37
753.538	765.6
753.722	779.93
753.907	794.27
754.091	769.69
754.275	757.41
754.459	802.46
754.643	775.84
754.828	773.79
755.012	775.84
755.196	710.3
755.38	687.78
755.564	745.12
755.748	777.89
755.932	868
756.116	698.02
756.3	657.06
756.484	693.92
756.668	640.67
756.852	655.01
757.036	777.89
757.22	751.26
757.404	650.91
757.588	747.17
757.772	677.54
757.956	689.82
758.14	706.21
758.323	716.45
758.507	724.64
758.691	728.74
758.875	599.71
759.059	700.06
759.242	689.82
759.426	665.25
759.61	710.3
759.794	630.43
759.977	677.54
760.161	685.73
760.345	636.58
760.528	589.47
760.712	659.1
760.895	620.19
761.079	679.58
761.263	663.2
761.446	591.52
761.63	568.99
761.813	663.2
761.997	583.33
762.18	593.57
762.364	605.86
762.547	546.47
762.731	630.43
762.914	581.28
763.098	501.41
763.281	585.38
763.464	648.86
763.648	605.86
763.831	581.28
764.015	544.42
764.198	581.28
764.381	614.05
764.564	568.99
764.748	534.18
764.931	575.14
765.114	573.09
765.297	544.42
765.481	566.95
765.664	612
765.847	427.68
766.03	501.41
766.213	630.43
766.397	487.08
766.58	622.24
766.763	550.56
766.946	544.42
767.129	534.18
767.312	591.52
767.495	612
767.678	595.62
767.861	571.04
768.044	566.95
768.227	530.08
768.41	573.09
768.593	566.95
768.776	487.08
768.959	534.18
769.142	583.33
769.324	552.61
769.507	470.69
769.69	542.37
769.873	599.71
770.056	515.75
770.239	517.79
770.421	542.37
770.604	515.75
770.787	544.42
770.97	552.61
771.152	534.18
771.335	493.22
771.518	534.18
771.7	513.7
771.883	573.09
772.066	454.31
772.248	562.85
772.431	482.98
772.613	536.23
772.796	495.27
772.978	499.36
773.161	478.88
773.343	509.6
773.526	396.96
773.708	505.51
773.891	472.74
774.073	380.58
774.256	450.21
774.438	474.79
774.621	442.02
774.803	515.75
774.985	444.07
775.168	425.64
775.35	470.69
775.532	439.97
775.715	419.49
775.897	464.55
776.079	368.29
776.261	384.68
776.444	401.06
776.626	480.93
776.808	339.62
776.99	415.4
777.173	497.32
777.355	388.77
777.537	456.36
777.719	446.12
777.901	417.44
778.083	386.72
778.265	401.06
778.447	417.44
778.629	386.72
778.811	396.96
778.993	351.91
779.175	448.16
779.357	425.64
779.539	437.92
779.721	403.11
779.903	409.25
780.085	341.67
780.267	349.86
780.449	296.61
780.631	386.72
780.812	450.21
780.994	425.64
781.176	343.72
781.358	302.76
781.54	315.05
781.721	405.16
781.903	378.53
782.085	390.82
782.267	315.05
782.448	399.01
782.63	331.43
782.812	335.53
782.993	370.34
783.175	364.2
783.357	351.91
783.538	413.35
783.72	372.39
783.901	265.89
784.083	341.67
784.264	313
784.446	343.72
784.627	247.46
784.809	345.77
784.99	282.28
785.172	304.81
785.353	296.61
785.535	278.18
785.716	349.86
785.897	284.33
786.079	317.09
786.26	251.56
786.441	255.65
786.623	296.61
786.804	296.61
786.985	302.76
787.167	267.94
787.348	325.29
787.529	370.34
787.71	276.13
787.891	313
788.073	292.52
788.254	280.23
788.435	298.66
788.616	263.85
788.797	269.99
788.978	235.18
789.159	276.13
789.34	253.61
789.522	208.55
789.703	212.65
789.884	306.85
790.065	290.47
790.246	259.75
790.427	214.7
790.607	249.51
790.788	243.37
790.969	210.6
791.15	331.43
791.331	177.83
791.512	163.5
791.693	231.08
791.874	253.61
792.054	194.22
792.235	218.79
792.416	226.98
792.597	245.41
792.778	220.84
792.958	237.22
793.139	214.7
793.32	243.37
793.5	167.59
793.681	251.56
793.862	255.65
794.042	192.17
794.223	153.26
794.404	306.85
794.584	202.41
794.765	251.56
794.945	249.51
795.126	206.5
795.306	159.4
795.487	241.32
795.667	249.51
795.848	183.98
796.028	196.26
796.209	212.65
796.389	179.88
796.57	181.93
796.75	255.65
796.93	171.69
797.111	169.64
797.291	179.88
797.471	208.55
797.652	274.09
797.832	212.65
798.012	186.02
798.192	143.02
798.373	128.68
798.553	224.94
798.733	200.36
798.913	198.31
799.093	175.78
799.274	229.03
799.454	243.37
799.634	161.45
799.814	198.31
799.994	177.83
800.174	136.87
800.354	247.46
800.534	151.21
800.714	167.59
800.894	126.63
801.074	97.96
801.254	175.78
801.434	169.64
801.614	169.64
801.794	126.63
801.974	292.52
802.154	147.11
802.334	151.21
802.514	69.29
802.693	124.58
802.873	108.2
803.053	255.65
803.233	194.22
803.413	175.78
803.592	181.93
803.772	194.22
803.952	226.98
804.131	151.21
804.311	122.54
804.491	128.68
804.67	151.21
804.85	130.73
805.03	190.12
805.209	118.44
805.389	208.55
805.568	149.16
805.748	134.82
805.928	163.5
806.107	132.78
806.287	194.22
806.466	77.48
806.646	108.2
806.825	114.34
807.004	143.02
807.184	157.35
807.363	104.11
807.543	186.02
807.722	102.06
807.901	218.79
808.081	118.44
808.26	110.25
808.439	157.35
808.619	171.69
808.798	116.39
808.977	106.15
809.156	136.87
809.336	161.45
809.515	102.06
809.694	124.58
809.873	186.02
810.052	140.97
810.231	204.46
810.411	106.15
810.59	128.68
810.769	177.83
810.948	226.98
811.127	140.97
811.306	200.36
811.485	177.83
811.664	149.16
811.843	210.6
812.022	181.93
812.201	59.05
812.38	147.11
812.559	120.49
812.737	97.96
812.916	138.92
813.095	120.49
813.274	108.2
813.453	163.5
813.632	91.82
813.811	104.11
813.989	97.96
814.168	122.54
814.347	153.26
814.526	136.87
814.704	83.63
814.883	124.58
815.062	128.68
815.24	138.92
815.419	83.63
815.598	79.53
815.776	124.58
815.955	93.87
816.133	106.15
816.312	179.88
816.49	57
816.669	124.58
816.847	112.3
817.026	145.06
817.204	97.96
817.383	124.58
817.561	102.06
817.74	165.54
817.918	102.06
818.097	124.58
818.275	87.72
818.453	61.1
818.632	89.77
818.81	134.82
818.988	126.63
819.167	108.2
819.345	112.3
819.523	159.4
819.701	63.15
819.879	102.06
820.058	87.72
820.236	48.81
820.414	132.78
820.592	110.25
820.77	116.39
820.948	97.96
821.127	122.54
821.305	116.39
821.483	44.71
821.661	100.01
821.839	136.87
822.017	161.45
822.195	145.06
822.373	124.58
822.551	34.47
822.729	130.73
822.907	81.58
823.085	130.73
823.262	132.78
823.44	118.44
823.618	100.01
823.796	100.01
823.974	116.39
824.152	110.25
824.329	110.25
824.507	104.11
824.685	73.39
824.863	24.23
825.04	36.52
825.218	89.77
825.396	134.82
825.574	65.19
825.751	85.67
825.929	61.1
826.107	110.25
826.284	89.77
826.462	134.82
826.639	34.47
826.817	145.06
826.994	163.5
827.172	67.24
827.349	36.52
827.527	91.82
827.704	91.82
827.882	118.44
828.059	100.01
828.237	147.11
828.414	77.48
828.591	30.38
828.769	79.53
828.946	28.33
829.124	11.95
829.301	81.58
829.478	77.48
829.655	48.81
829.833	91.82
830.01	-4.44
830.187	93.87
830.364	89.77
830.542	73.39
830.719	79.53
830.896	5.8
831.073	46.76
831.25	40.62
831.427	130.73
831.604	149.16
831.782	118.44
831.959	126.63
832.136	69.29
832.313	65.19
832.49	126.63
832.667	65.19
832.844	75.43
833.021	118.44
833.198	59.05
833.374	147.11
833.551	13.99
833.728	102.06
833.905	151.21
834.082	112.3
834.259	75.43
834.436	104.11
834.612	34.47
834.789	138.92
834.966	106.15
835.143	104.11
835.319	46.76
835.496	46.76
835.673	93.87
835.85	122.54
836.026	143.02
836.203	97.96
836.38	18.09
836.556	93.87
836.733	32.43
836.909	87.72
837.086	57
837.262	50.86
837.439	28.33
837.616	69.29
837.792	38.57
837.968	59.05
838.145	63.15
838.321	57
838.498	93.87
838.674	38.57
838.851	114.34
839.027	42.67
839.203	36.52
839.38	95.91
839.556	89.77
839.732	85.67
839.909	71.34
840.085	112.3
840.261	3.75
840.437	-39.25
840.614	95.91
840.79	151.21
840.966	124.58
841.142	83.63
841.318	48.81
841.494	132.78
841.671	81.58
841.847	24.23
842.023	100.01
842.199	93.87
842.375	28.33
842.551	11.95
842.727	34.47
842.903	149.16
843.079	34.47
843.255	104.11
843.431	108.2
843.607	81.58
843.783	20.14
843.959	87.72
844.134	13.99
844.31	38.57
844.486	73.39
844.662	108.2
844.838	57
845.013	97.96
845.189	91.82
845.365	44.71
845.541	112.3
845.716	34.47
845.892	18.09
846.068	85.67
846.244	75.43
846.419	73.39
846.595	83.63
846.77	71.34
846.946	59.05
847.122	106.15
847.297	54.95
847.473	91.82
847.648	97.96
847.824	46.76
847.999	52.91
848.175	63.15
848.35	73.39
848.526	26.28
848.701	89.77
848.876	65.19
849.052	59.05
849.227	34.47
849.403	63.15
849.578	34.47
849.753	77.48
849.929	155.3
850.104	42.67
850.279	48.81
850.454	69.29
850.63	81.58
850.805	46.76
850.98	11.95
851.155	65.19
851.33	26.28
851.505	22.19
851.681	118.44
851.856	-24.92
852.031	3.75
852.206	81.58
852.381	95.91
852.556	38.57
852.731	11.95
852.906	22.19
853.081	97.96
853.256	9.9
853.431	46.76
853.606	44.71
853.781	77.48
853.956	63.15
854.131	91.82
854.305	22.19
854.48	11.95
854.655	104.11
854.83	61.1
855.005	46.76
855.18	59.05
855.354	95.91
855.529	122.54
855.704	-16.73
855.879	46.76
856.053	48.81
856.228	108.2
856.403	65.19
856.577	32.43
856.752	128.68
856.926	57
857.101	100.01
857.276	52.91
857.45	36.52
857.625	91.82
857.799	87.72
857.974	93.87
858.148	57
858.323	108.2
858.497	-2.39
858.672	7.85
858.846	-57.68
859.02	106.15
859.195	120.49
859.369	42.67
859.543	32.43
859.718	79.53
859.892	22.19
860.066	63.15
860.241	-26.96
860.415	24.23
860.589	63.15
860.763	136.87
860.938	77.48
861.112	36.52
861.286	24.23
861.46	59.05
861.634	93.87
861.808	95.91
861.982	-2.39
862.157	65.19
862.331	87.72
862.505	71.34
862.679	26.28
862.853	5.8
863.027	69.29
863.201	116.39
863.375	44.71
863.549	97.96
863.722	36.52
863.896	73.39
864.07	13.99
864.244	54.95
864.418	97.96
864.592	118.44
864.766	-39.25
864.939	52.91
865.113	13.99
865.287	44.71
865.461	61.1
865.634	77.48
865.808	54.95
865.982	-16.73
866.156	20.14
866.329	59.05
866.503	73.39
866.676	59.05
866.85	-2.39
867.024	61.1
867.197	26.28
867.371	48.81
867.544	-2.39
867.718	89.77
867.891	85.67
868.065	20.14
868.238	-12.63
868.412	85.67
868.585	73.39
868.759	13.99
868.932	63.15
869.105	42.67
869.279	46.76
869.452	89.77
869.625	9.9
869.799	71.34
869.972	67.24
870.145	59.05
870.319	57
870.492	32.43
870.665	7.85
870.838	57
871.011	11.95
871.185	-16.73
871.358	71.34
871.531	71.34
871.704	13.99
871.877	97.96
872.05	-0.34
872.223	28.33
872.396	48.81
872.569	57
872.742	50.86
872.915	85.67
873.088	65.19
873.261	20.14
873.434	-18.77
873.607	7.85
873.78	69.29
873.953	48.81
874.126	65.19
874.299	50.86
874.471	40.62
874.644	20.14
874.817	69.29
874.99	71.34
875.163	44.71
875.335	28.33
875.508	52.91
875.681	65.19
875.853	3.75
876.026	36.52
876.199	38.57
876.371	50.86
876.544	22.19
876.717	81.58
876.889	16.04
877.062	5.8
877.234	54.95
877.407	54.95
877.579	108.2
877.752	97.96
877.924	97.96
878.097	126.63
878.269	102.06
878.442	77.48
878.614	40.62
878.786	24.23
878.959	36.52
879.131	85.67
879.303	42.67
879.476	36.52
879.648	138.92
879.82	9.9
879.993	28.33
880.165	38.57
880.337	63.15
880.509	59.05
880.681	63.15
880.854	-31.06
881.026	54.95
881.198	42.67
881.37	38.57
881.542	38.57
881.714	30.38
881.886	91.82
882.058	106.15
882.23	42.67
882.402	132.78
882.574	65.19
882.746	93.87
882.918	34.47
883.09	5.8
883.262	3.75
883.434	71.34
883.606	40.62
883.778	75.43
883.95	75.43
884.122	-14.68
884.293	65.19
884.465	3.75
884.637	52.91
884.809	38.57
884.98	95.91
885.152	13.99
885.324	9.9
885.496	34.47
885.667	54.95
885.839	-14.68
886.011	59.05
886.182	100.01
886.354	44.71
886.525	28.33
886.697	48.81
886.869	16.04
887.04	48.81
887.212	24.23
887.383	7.85
887.555	-22.87
887.726	81.58
887.897	13.99
888.069	13.99
888.24	20.14
888.412	36.52
888.583	-47.44
888.754	-4.44
888.926	57
889.097	46.76
889.268	44.71
889.44	48.81
889.611	13.99
889.782	46.76
889.953	5.8
890.125	83.63
890.296	75.43
890.467	9.9
890.638	36.52
890.809	81.58
890.98	-6.49
891.151	-12.63
891.323	77.48
891.494	5.8
891.665	63.15
891.836	44.71
892.007	24.23
892.178	30.38
892.349	61.1
892.52	-26.96
892.691	28.33
892.862	26.28
893.032	83.63
893.203	11.95
893.374	5.8
893.545	32.43
893.716	26.28
893.887	61.1
894.057	50.86
894.228	67.24
894.399	40.62
894.57	46.76
894.74	73.39
894.911	57
895.082	61.1
895.253	36.52
895.423	71.34
895.594	67.24
895.764	26.28
895.935	-26.96
896.106	89.77
896.276	-6.49
896.447	11.95
896.617	85.67
896.788	11.95
896.958	61.1
897.129	28.33
897.299	52.91
897.47	16.04
897.64	11.95
897.81	24.23
897.981	5.8
898.151	54.95
898.322	83.63
898.492	65.19
898.662	81.58
898.832	38.57
899.003	91.82
899.173	-2.39
899.343	-12.63
899.513	28.33
