Data from USB4F104151__176__13-59-00-031.txt Node

Date: Thu Mar 13 13:59:00 EDT 2025
User: louis
Spectrometer: USB4F10415
Trigger mode: 4
Integration Time (sec): 1.000000E-2
Scans to average: 1
Electric dark correction enabled: true
Nonlinearity correction enabled: false
Boxcar width: 0
XAxis mode: Wavelengths
Number of Pixels in Spectrum: 3648
>>>>>Begin Spectral Data<<<<<
178.204	-40.96
178.424	-40.96
178.644	-40.96
178.864	-53.25
179.084	-69.63
179.304	10.24
179.524	-18.43
179.744	-2.05
179.964	32.77
180.184	36.86
180.404	-14.34
180.624	-73.73
180.844	40.96
181.064	12.29
181.283	18.43
181.503	-34.82
181.723	-8.19
181.943	-59.39
182.163	36.86
182.383	98.3
182.602	32.77
182.822	86.01
183.042	28.67
183.262	32.77
183.482	0
183.701	6.14
183.921	10.24
184.141	57.34
184.361	34.82
184.58	-8.19
184.8	-10.24
185.02	26.62
185.239	88.06
185.459	57.34
185.679	92.16
185.898	-40.96
186.118	36.86
186.338	77.82
186.557	10.24
186.777	43.01
186.997	-16.38
187.216	69.63
187.436	65.54
187.655	40.96
187.875	61.44
188.095	61.44
188.314	28.67
188.534	79.87
188.753	30.72
188.973	51.2
189.192	92.16
189.412	20.48
189.631	34.82
189.851	-24.58
190.07	51.2
190.29	-71.68
190.509	10.24
190.729	92.16
190.948	79.87
191.168	75.77
191.387	18.43
191.607	26.62
191.826	20.48
192.045	65.54
192.265	108.54
192.484	108.54
192.704	34.82
192.923	4.1
193.142	24.58
193.362	106.49
193.581	83.97
193.8	-8.19
194.02	26.62
194.239	-2.05
194.458	51.2
194.678	65.54
194.897	22.53
195.116	24.58
195.335	-40.96
195.555	90.11
195.774	57.34
195.993	59.39
196.212	0
196.432	57.34
196.651	40.96
196.87	106.49
197.089	32.77
197.308	2.05
197.528	-2.05
197.747	-24.58
197.966	51.2
198.185	26.62
198.404	45.06
198.623	20.48
198.842	38.91
199.062	-16.38
199.281	47.1
199.5	30.72
199.719	63.49
199.938	8.19
200.157	0
200.376	81.92
200.595	96.25
200.814	133.12
201.033	47.1
201.252	45.06
201.471	32.77
201.69	-14.34
201.909	79.87
202.128	-10.24
202.347	32.77
202.566	32.77
202.785	57.34
203.004	30.72
203.223	10.24
203.442	34.82
203.661	-14.34
203.879	4.1
204.098	114.69
204.317	-67.58
204.536	-16.38
204.755	22.53
204.974	69.63
205.193	40.96
205.411	90.11
205.63	6.14
205.849	-30.72
206.068	47.1
206.287	100.35
206.505	81.92
206.724	102.4
206.943	6.14
207.162	-43.01
207.381	32.77
207.599	24.58
207.818	-2.05
208.037	49.15
208.255	8.19
208.474	-2.05
208.693	26.62
208.911	65.54
209.13	-18.43
209.349	47.1
209.567	36.86
209.786	79.87
210.005	57.34
210.223	90.11
210.442	-4.1
210.661	100.35
210.879	2.05
211.098	67.58
211.316	57.34
211.535	-26.62
211.753	47.1
211.972	32.77
212.191	34.82
212.409	83.97
212.628	12.29
212.846	8.19
213.065	96.25
213.283	24.58
213.502	28.67
213.72	-30.72
213.938	92.16
214.157	8.19
214.375	38.91
214.594	49.15
214.812	36.86
215.031	49.15
215.249	24.58
215.467	53.25
215.686	26.62
215.904	49.15
216.122	-12.29
216.341	49.15
216.559	73.73
216.778	38.91
216.996	28.67
217.214	0
217.432	69.63
217.651	53.25
217.869	-32.77
218.087	-26.62
218.306	-16.38
218.524	22.53
218.742	61.44
218.96	24.58
219.179	-47.1
219.397	40.96
219.615	65.54
219.833	167.93
220.051	92.16
220.27	-16.38
220.488	59.39
220.706	26.62
220.924	98.3
221.142	24.58
221.36	47.1
221.578	34.82
221.796	18.43
222.015	30.72
222.233	-24.58
222.451	79.87
222.669	-8.19
222.887	102.4
223.105	20.48
223.323	36.86
223.541	69.63
223.759	94.21
223.977	45.06
224.195	36.86
224.413	32.77
224.631	81.92
224.849	-6.14
225.067	47.1
225.285	28.67
225.503	16.38
225.721	8.19
225.939	65.54
226.157	75.77
226.375	102.4
226.592	55.3
226.81	26.62
227.028	-40.96
227.246	108.54
227.464	34.82
227.682	73.73
227.9	63.49
228.117	26.62
228.335	81.92
228.553	-6.14
228.771	86.01
228.989	12.29
229.206	38.91
229.424	2.05
229.642	18.43
229.86	67.58
230.077	14.34
230.295	34.82
230.513	86.01
230.731	10.24
230.948	49.15
231.166	83.97
231.384	86.01
231.601	71.68
231.819	20.48
232.037	38.91
232.254	-4.1
232.472	-24.58
232.689	88.06
232.907	45.06
233.125	4.1
233.342	34.82
233.56	-12.29
233.777	2.05
233.995	-14.34
234.213	81.92
234.43	86.01
234.648	20.48
234.865	129.02
235.083	24.58
235.3	-43.01
235.518	16.38
235.735	14.34
235.953	57.34
236.17	-10.24
236.388	26.62
236.605	-28.67
236.822	-4.1
237.04	32.77
237.257	40.96
237.475	98.3
237.692	73.73
237.909	98.3
238.127	43.01
238.344	73.73
238.562	51.2
238.779	0
238.996	59.39
239.214	61.44
239.431	67.58
239.648	73.73
239.865	47.1
240.083	88.06
240.3	6.14
240.517	49.15
240.735	90.11
240.952	67.58
241.169	24.58
241.386	30.72
241.603	61.44
241.821	43.01
242.038	98.3
242.255	45.06
242.472	-16.38
242.689	90.11
242.907	43.01
243.124	49.15
243.341	69.63
243.558	124.93
243.775	28.67
243.992	77.82
244.209	-12.29
244.426	16.38
244.643	86.01
244.86	12.29
245.078	-4.1
245.295	79.87
245.512	53.25
245.729	49.15
245.946	24.58
246.163	22.53
246.38	32.77
246.597	69.63
246.814	47.1
247.031	92.16
247.248	-28.67
247.464	-26.62
247.681	88.06
247.898	36.86
248.115	61.44
248.332	57.34
248.549	57.34
248.766	67.58
248.983	102.4
249.2	28.67
249.417	6.14
249.633	-65.54
249.85	32.77
250.067	34.82
250.284	102.4
250.501	45.06
250.717	38.91
250.934	-22.53
251.151	-6.14
251.368	18.43
251.585	-4.1
251.801	79.87
252.018	24.58
252.235	53.25
252.451	-2.05
252.668	24.58
252.885	110.59
253.102	40.96
253.318	8.19
253.535	-6.14
253.752	32.77
253.968	26.62
254.185	71.68
254.401	38.91
254.618	71.68
254.835	51.2
255.051	28.67
255.268	45.06
255.484	51.2
255.701	65.54
255.917	61.44
256.134	26.62
256.351	81.92
256.567	32.77
256.784	12.29
257	81.92
257.217	81.92
257.433	-2.05
257.65	26.62
257.866	75.77
258.082	102.4
258.299	67.58
258.515	149.5
258.732	38.91
258.948	61.44
259.165	24.58
259.381	26.62
259.597	65.54
259.814	18.43
260.03	-10.24
260.246	8.19
260.463	51.2
260.679	65.54
260.895	24.58
261.112	71.68
261.328	67.58
261.544	-6.14
261.761	102.4
261.977	73.73
262.193	0
262.409	45.06
262.626	-12.29
262.842	57.34
263.058	34.82
263.274	98.3
263.49	-2.05
263.707	45.06
263.923	-45.06
264.139	47.1
264.355	-4.1
264.571	-32.77
264.787	100.35
265.004	63.49
265.22	-10.24
265.436	116.73
265.652	18.43
265.868	28.67
266.084	135.17
266.3	40.96
266.516	43.01
266.732	-8.19
266.948	16.38
267.164	8.19
267.38	61.44
267.596	-30.72
267.812	-10.24
268.028	98.3
268.244	61.44
268.46	40.96
268.676	59.39
268.892	67.58
269.108	-24.58
269.324	67.58
269.54	45.06
269.756	102.4
269.972	-38.91
270.188	73.73
270.403	26.62
270.619	45.06
270.835	40.96
271.051	28.67
271.267	34.82
271.483	-2.05
271.698	65.54
271.914	75.77
272.13	30.72
272.346	32.77
272.562	22.53
272.777	-8.19
272.993	96.25
273.209	49.15
273.425	92.16
273.64	49.15
273.856	30.72
274.072	40.96
274.287	67.58
274.503	51.2
274.719	81.92
274.934	108.54
275.15	47.1
275.366	45.06
275.581	45.06
275.797	77.82
276.012	69.63
276.228	69.63
276.444	47.1
276.659	10.24
276.875	83.97
277.09	67.58
277.306	67.58
277.521	40.96
277.737	24.58
277.952	0
278.168	32.77
278.383	53.25
278.599	53.25
278.814	30.72
279.03	57.34
279.245	86.01
279.461	51.2
279.676	0
279.892	28.67
280.107	30.72
280.322	6.14
280.538	43.01
280.753	75.77
280.969	40.96
281.184	34.82
281.399	45.06
281.615	-34.82
281.83	16.38
282.045	47.1
282.26	47.1
282.476	61.44
282.691	4.1
282.906	28.67
283.122	4.1
283.337	118.78
283.552	139.26
283.767	36.86
283.983	79.87
284.198	61.44
284.413	32.77
284.628	-4.1
284.843	18.43
285.058	81.92
285.274	83.97
285.489	-6.14
285.704	30.72
285.919	24.58
286.134	49.15
286.349	69.63
286.564	28.67
286.779	81.92
286.995	36.86
287.21	16.38
287.425	24.58
287.64	90.11
287.855	102.4
288.07	79.87
288.285	34.82
288.5	24.58
288.715	83.97
288.93	81.92
289.145	24.58
289.36	104.45
289.575	-6.14
289.79	55.3
290.004	26.62
290.219	81.92
290.434	-32.77
290.649	-4.1
290.864	61.44
291.079	45.06
291.294	96.25
291.509	28.67
291.724	2.05
291.938	108.54
292.153	57.34
292.368	79.87
292.583	45.06
292.798	40.96
293.012	57.34
293.227	2.05
293.442	32.77
293.657	65.54
293.871	-38.91
294.086	28.67
294.301	36.86
294.516	57.34
294.73	-16.38
294.945	26.62
295.16	77.82
295.374	55.3
295.589	-32.77
295.804	61.44
296.018	0
296.233	4.1
296.447	30.72
296.662	110.59
296.877	-22.53
297.091	79.87
297.306	51.2
297.52	-20.48
297.735	2.05
297.949	32.77
298.164	18.43
298.378	18.43
298.593	126.97
298.807	26.62
299.022	79.87
299.236	90.11
299.451	34.82
299.665	30.72
299.88	71.68
300.094	61.44
300.309	67.58
300.523	92.16
300.737	40.96
300.952	-20.48
301.166	65.54
301.381	24.58
301.595	71.68
301.809	71.68
302.024	2.05
302.238	49.15
302.452	14.34
302.667	86.01
302.881	49.15
303.095	94.21
303.309	8.19
303.524	57.34
303.738	83.97
303.952	0
304.166	69.63
304.381	83.97
304.595	67.58
304.809	90.11
305.023	75.77
305.237	65.54
305.452	100.35
305.666	90.11
305.88	67.58
306.094	73.73
306.308	102.4
306.522	51.2
306.736	116.73
306.95	2.05
307.164	32.77
307.379	92.16
307.593	38.91
307.807	79.87
308.021	65.54
308.235	73.73
308.449	20.48
308.663	86.01
308.877	118.78
309.091	18.43
309.305	45.06
309.519	45.06
309.733	14.34
309.947	26.62
310.161	26.62
310.374	110.59
310.588	149.5
310.802	63.49
311.016	51.2
311.23	71.68
311.444	59.39
311.658	71.68
311.872	86.01
312.085	98.3
312.299	73.73
312.513	67.58
312.727	43.01
312.941	88.06
313.154	24.58
313.368	-34.82
313.582	34.82
313.796	90.11
314.009	102.4
314.223	102.4
314.437	-20.48
314.651	51.2
314.864	90.11
315.078	83.97
315.292	40.96
315.505	40.96
315.719	61.44
315.933	18.43
316.146	77.82
316.36	49.15
316.573	43.01
316.787	81.92
317.001	45.06
317.214	51.2
317.428	32.77
317.641	20.48
317.855	16.38
318.068	24.58
318.282	126.97
318.495	67.58
318.709	61.44
318.922	12.29
319.136	40.96
319.349	18.43
319.563	49.15
319.776	57.34
319.99	53.25
320.203	6.14
320.417	38.91
320.63	6.14
320.843	53.25
321.057	59.39
321.27	16.38
321.483	77.82
321.697	79.87
321.91	81.92
322.124	26.62
322.337	143.36
322.55	73.73
322.763	55.3
322.977	28.67
323.19	36.86
323.403	116.73
323.617	90.11
323.83	126.97
324.043	90.11
324.256	18.43
324.469	61.44
324.683	126.97
324.896	61.44
325.109	2.05
325.322	143.36
325.535	104.45
325.748	102.4
325.962	65.54
326.175	36.86
326.388	-43.01
326.601	47.1
326.814	61.44
327.027	16.38
327.24	-28.67
327.453	53.25
327.666	65.54
327.879	28.67
328.092	106.49
328.305	67.58
328.518	40.96
328.731	-38.91
328.944	36.86
329.157	24.58
329.37	75.77
329.583	131.07
329.796	75.77
330.009	49.15
330.222	92.16
330.435	65.54
330.648	24.58
330.861	18.43
331.073	104.45
331.286	88.06
331.499	12.29
331.712	10.24
331.925	43.01
332.138	-4.1
332.35	57.34
332.563	38.91
332.776	22.53
332.989	55.3
333.202	61.44
333.414	67.58
333.627	36.86
333.84	45.06
334.053	49.15
334.265	40.96
334.478	51.2
334.691	-8.19
334.903	90.11
335.116	53.25
335.329	69.63
335.541	90.11
335.754	53.25
335.966	2.05
336.179	100.35
336.392	51.2
336.604	-10.24
336.817	8.19
337.029	102.4
337.242	51.2
337.454	0
337.667	47.1
337.88	81.92
338.092	-12.29
338.305	2.05
338.517	16.38
338.729	-4.1
338.942	71.68
339.154	38.91
339.367	0
339.579	43.01
339.792	135.17
340.004	65.54
340.217	43.01
340.429	24.58
340.641	53.25
340.854	51.2
341.066	26.62
341.278	65.54
341.491	131.07
341.703	-10.24
341.915	45.06
342.128	32.77
342.34	-2.05
342.552	34.82
342.764	6.14
342.977	0
343.189	43.01
343.401	83.97
343.613	28.67
343.826	108.54
344.038	73.73
344.25	36.86
344.462	49.15
344.674	67.58
344.886	94.21
345.099	73.73
345.311	124.93
345.523	90.11
345.735	45.06
345.947	57.34
346.159	-30.72
346.371	67.58
346.583	77.82
346.795	8.19
347.007	83.97
347.219	106.49
347.431	16.38
347.643	92.16
347.855	38.91
348.067	22.53
348.279	-4.1
348.491	122.88
348.703	47.1
348.915	65.54
349.127	-28.67
349.339	79.87
349.551	28.67
349.763	100.35
349.975	49.15
350.187	147.45
350.399	16.38
350.61	49.15
350.822	110.59
351.034	73.73
351.246	124.93
351.458	-6.14
351.669	108.54
351.881	40.96
352.093	28.67
352.305	116.73
352.517	22.53
352.728	20.48
352.94	77.82
353.152	75.77
353.363	86.01
353.575	59.39
353.787	71.68
353.999	40.96
354.21	81.92
354.422	90.11
354.633	22.53
354.845	47.1
355.057	32.77
355.268	36.86
355.48	49.15
355.692	104.45
355.903	65.54
356.115	40.96
356.326	112.64
356.538	137.21
356.749	2.05
356.961	59.39
357.172	102.4
357.384	57.34
357.595	45.06
357.807	47.1
358.018	40.96
358.23	86.01
358.441	38.91
358.653	55.3
358.864	-2.05
359.075	6.14
359.287	65.54
359.498	145.41
359.709	59.39
359.921	45.06
360.132	51.2
360.344	45.06
360.555	57.34
360.766	98.3
360.977	118.78
361.189	53.25
361.4	32.77
361.611	32.77
361.823	79.87
362.034	26.62
362.245	14.34
362.456	55.3
362.667	98.3
362.879	38.91
363.09	59.39
363.301	49.15
363.512	14.34
363.723	43.01
363.935	116.73
364.146	77.82
364.357	79.87
364.568	100.35
364.779	53.25
364.99	83.97
365.201	18.43
365.412	114.69
365.623	0
365.834	86.01
366.045	14.34
366.256	88.06
366.467	45.06
366.678	114.69
366.889	96.25
367.1	59.39
367.311	0
367.522	65.54
367.733	90.11
367.944	55.3
368.155	36.86
368.366	61.44
368.577	61.44
368.788	120.83
368.999	12.29
369.209	49.15
369.42	131.07
369.631	120.83
369.842	49.15
370.053	2.05
370.264	88.06
370.474	126.97
370.685	53.25
370.896	49.15
371.107	55.3
371.317	45.06
371.528	100.35
371.739	100.35
371.95	20.48
372.16	69.63
372.371	92.16
372.582	-2.05
372.792	79.87
373.003	94.21
373.214	45.06
373.424	55.3
373.635	45.06
373.846	79.87
374.056	100.35
374.267	51.2
374.477	81.92
374.688	116.73
374.898	83.97
375.109	86.01
375.319	59.39
375.53	139.26
375.74	32.77
375.951	100.35
376.161	53.25
376.372	114.69
376.582	8.19
376.793	90.11
377.003	114.69
377.214	67.58
377.424	-6.14
377.635	73.73
377.845	71.68
378.055	100.35
378.266	30.72
378.476	71.68
378.686	86.01
378.897	122.88
379.107	77.82
379.317	38.91
379.528	98.3
379.738	49.15
379.948	12.29
380.158	94.21
380.369	16.38
380.579	63.49
380.789	94.21
380.999	59.39
381.21	26.62
381.42	133.12
381.63	38.91
381.84	63.49
382.05	45.06
382.261	69.63
382.471	73.73
382.681	32.77
382.891	83.97
383.101	122.88
383.311	102.4
383.521	73.73
383.731	75.77
383.941	38.91
384.151	45.06
384.361	133.12
384.571	149.5
384.781	61.44
384.991	51.2
385.201	51.2
385.411	57.34
385.621	83.97
385.831	57.34
386.041	122.88
386.251	90.11
386.461	92.16
386.671	122.88
386.881	131.07
387.091	67.58
387.301	65.54
387.511	57.34
387.72	92.16
387.93	90.11
388.14	120.83
388.35	49.15
388.56	135.17
388.769	67.58
388.979	57.34
389.189	24.58
389.399	22.53
389.609	81.92
389.818	81.92
390.028	86.01
390.238	73.73
390.447	-8.19
390.657	126.97
390.867	86.01
391.076	104.45
391.286	67.58
391.496	143.36
391.705	6.14
391.915	137.21
392.125	32.77
392.334	92.16
392.544	94.21
392.753	71.68
392.963	69.63
393.172	67.58
393.382	155.65
393.591	137.21
393.801	57.34
394.01	71.68
394.22	36.86
394.429	8.19
394.639	83.97
394.848	86.01
395.058	86.01
395.267	-14.34
395.477	147.45
395.686	100.35
395.895	59.39
396.105	112.64
396.314	79.87
396.524	116.73
396.733	163.84
396.942	120.83
397.152	61.44
397.361	90.11
397.57	163.84
397.78	114.69
397.989	112.64
398.198	110.59
398.407	116.73
398.617	83.97
398.826	73.73
399.035	75.77
399.244	141.31
399.453	83.97
399.663	73.73
399.872	124.93
400.081	2.05
400.29	94.21
400.499	131.07
400.708	131.07
400.917	172.03
401.127	96.25
401.336	147.45
401.545	157.69
401.754	143.36
401.963	116.73
402.172	108.54
402.381	94.21
402.59	122.88
402.799	75.77
403.008	106.49
403.217	88.06
403.426	90.11
403.635	120.83
403.844	143.36
404.053	163.84
404.262	110.59
404.471	155.65
404.68	167.93
404.888	149.5
405.097	104.45
405.306	174.08
405.515	53.25
405.724	153.6
405.933	139.26
406.142	124.93
406.35	118.78
406.559	231.42
406.768	272.38
406.977	229.37
407.185	165.89
407.394	190.46
407.603	221.18
407.812	188.41
408.02	165.89
408.229	210.94
408.438	206.84
408.646	233.47
408.855	266.24
409.064	299
409.272	264.19
409.481	256
409.69	299
409.898	299
410.107	186.37
410.315	337.91
410.524	303.1
410.733	311.29
410.941	288.76
411.15	321.53
411.358	333.82
411.567	237.56
411.775	415.74
411.984	393.21
412.192	370.68
412.401	454.65
412.609	389.11
412.818	450.55
413.026	389.11
413.234	516.09
413.443	477.18
413.651	428.03
413.86	397.31
414.068	552.95
414.276	493.56
414.485	493.56
414.693	667.64
414.901	598.01
415.11	661.49
415.318	604.15
415.526	604.15
415.734	708.6
415.943	751.6
416.151	747.51
416.359	708.6
416.567	727.03
416.776	817.14
416.984	819.19
417.192	872.43
417.4	864.24
417.608	845.81
417.817	976.88
418.025	950.26
418.233	1015.79
418.441	995.31
418.649	987.12
418.857	1161.2
419.065	1185.77
419.273	1181.68
419.481	1089.52
419.689	1314.8
419.897	1294.32
420.105	1261.55
420.313	1392.62
420.521	1298.41
420.729	1320.94
420.937	1435.63
421.145	1468.39
421.353	1693.67
421.561	1583.08
421.769	1701.86
421.977	1681.38
422.185	1720.29
422.393	1851.36
422.601	1943.52
422.809	1923.04
423.017	1890.28
423.224	2064.35
423.432	2166.75
423.64	2199.52
423.848	2285.53
424.056	2293.72
424.263	2465.75
424.471	2277.34
424.679	2508.76
424.887	2654.17
425.094	2736.09
425.302	2740.18
425.51	2885.59
425.718	2807.77
425.925	2895.83
426.133	3028.95
426.341	3086.29
426.548	3350.48
426.756	3401.68
426.964	3424.2
427.171	3698.63
427.379	3809.22
427.586	3751.88
427.794	3735.49
428.001	4093.89
428.209	4067.27
428.417	4171.71
428.624	4460.48
428.832	4548.54
429.039	4261.82
429.247	4466.62
429.454	4665.27
429.662	5144.5
429.869	4769.72
430.076	5128.11
430.284	4929.46
430.491	5109.68
430.699	5494.7
430.906	5457.84
431.114	5623.72
431.321	5820.33
431.528	6039.46
431.736	6385.57
431.943	6664.09
432.15	6389.66
432.358	6424.48
432.565	6819.74
432.772	6819.74
432.979	7077.78
433.187	7251.86
433.394	7309.2
433.601	7671.69
433.808	7987.08
434.016	7835.53
434.223	8017.8
434.43	8454.01
434.637	8460.16
434.844	8859.51
435.052	9090.93
435.259	8943.48
435.466	9207.67
435.673	9025.4
435.88	9521.01
436.087	9965.42
436.294	10162.02
436.501	9756.52
436.708	9981.8
436.915	10461.02
437.122	10805.08
437.329	10987.35
437.537	10995.54
437.743	11331.41
437.95	11282.26
438.157	12017.48
438.364	12218.18
438.571	12171.08
438.778	12484.42
438.985	13424.44
439.192	12650.3
439.399	13256.5
439.606	12894.01
439.813	13655.86
440.02	14632.74
440.227	14333.73
440.433	14047.02
440.64	14628.64
440.847	14380.84
441.054	14999.32
441.261	15740.69
441.467	15804.17
441.674	15931.15
441.881	16670.47
442.088	16576.26
442.294	16514.82
442.501	16705.28
442.708	17053.44
442.914	18022.12
443.121	18460.39
443.328	17958.64
443.534	19465.94
443.741	18845.41
443.948	18466.53
444.154	20022.99
444.361	19810
444.568	20190.92
444.774	19967.7
444.981	20211.4
445.187	20821.7
445.394	21685.94
445.6	21321.4
445.807	23455.39
446.013	22396.59
446.22	22974.11
446.426	23713.43
446.633	24006.29
446.839	24866.44
447.046	23553.69
447.252	24770.18
447.459	25040.51
447.665	24807.05
447.871	25771.64
448.078	27283.04
448.284	25798.26
448.491	26513
448.697	27491.93
448.903	27860.57
449.11	28231.25
449.316	27764.31
449.522	28079.7
449.728	28702.28
449.935	29023.81
450.141	29068.87
450.347	29896.25
450.553	28595.79
450.76	29500.99
450.966	30373.42
451.172	29474.37
451.378	30539.31
451.584	29793.85
451.791	30625.32
451.997	30490.16
452.203	31186.47
452.409	30987.82
452.615	30629.42
452.821	29740.6
453.027	29515.33
453.233	30895.66
453.44	29791.8
453.646	29976.12
453.852	30402.1
454.058	30584.37
454.264	29556.28
454.47	30527.02
454.676	29490.75
454.882	30520.88
455.088	27895.38
455.294	28393.04
455.5	28741.19
455.705	29576.76
455.911	27792.98
456.117	27358.81
456.323	27237.98
456.529	25575.03
456.735	26740.33
456.941	26138.23
457.147	25482.88
457.352	24997.51
457.558	24829.57
457.764	24534.67
457.97	24047.25
458.176	23559.83
458.381	23568.02
458.587	22460.07
458.793	22314.67
458.999	21415.61
459.204	23002.78
459.41	22468.27
459.616	20670.15
459.821	20651.72
460.027	20752.07
460.233	20356.81
460.438	19148.51
460.644	19580.63
460.85	18587.36
461.055	18357.99
461.261	18253.55
461.466	16779.01
461.672	16623.36
461.878	17549.04
462.083	16518.92
462.289	16254.73
462.494	15888.14
462.7	15370.01
462.905	14964.51
463.111	15544.08
463.316	15339.29
463.522	15187.74
463.727	15327
463.932	15159.06
464.138	15042.33
464.343	15015.71
464.549	14702.37
464.754	15132.44
464.959	14845.73
465.165	14847.77
465.37	14149.42
465.575	14157.61
465.781	14563.11
465.986	14614.3
466.191	13870.89
466.397	13635.38
466.602	13043.51
466.807	13770.54
467.012	13647.66
467.218	13641.52
467.423	13360.95
467.628	13475.63
467.833	13995.82
468.038	13512.5
468.244	12971.83
468.449	13643.57
468.654	13389.62
468.859	13133.62
469.064	13176.63
469.269	12574.53
469.474	12697.41
469.679	13066.04
469.885	12511.04
470.09	12814.14
470.295	12513.09
470.5	12302.15
470.705	12523.33
470.91	12103.5
471.115	12029.77
471.32	12136.26
471.525	12197.7
471.73	11839.31
471.935	11618.13
472.139	11751.24
472.344	11392.85
472.549	11423.57
472.754	11229.01
472.959	11194.2
473.164	10782.56
473.369	10628.96
473.574	11077.46
473.778	11108.18
473.983	11028.31
474.188	10725.21
474.393	10364.77
474.598	10477.41
474.802	10282.85
475.007	10301.28
475.212	10397.54
475.417	9840.49
475.621	9807.72
475.826	9920.36
476.031	9711.47
476.235	9578.35
476.44	9609.07
476.645	9453.42
476.849	9512.81
477.054	9523.05
477.259	9187.19
477.463	9404.27
477.668	8961.91
477.872	9211.76
478.077	9004.92
478.282	8920.95
478.486	8810.36
478.691	8714.11
478.895	8773.5
479.1	8515.45
479.304	8824.7
479.509	8513.41
479.713	8542.08
479.918	8177.54
480.122	8314.75
480.326	8564.61
480.531	8355.71
480.735	8204.16
480.94	8062.85
481.144	8400.77
481.348	8034.18
481.553	8120.2
481.757	7933.83
481.961	8183.68
482.166	8341.38
482.37	8107.91
482.574	7978.89
482.778	7962.5
482.983	8112
483.187	8130.44
483.391	7993.22
483.595	7946.12
483.8	7948.17
484.004	7884.68
484.208	8261.51
484.412	8058.76
484.616	8093.57
484.821	8150.92
485.025	7890.82
485.229	8177.54
485.433	7919.5
485.637	8056.71
485.841	7989.13
486.045	8069
486.249	7978.89
486.453	7905.16
486.657	8001.41
486.861	8128.39
487.065	7958.41
487.269	7968.65
487.473	7810.95
487.677	8132.48
487.881	8023.94
488.085	7860.1
488.289	7970.69
488.493	7843.72
488.697	8077.19
488.901	8206.21
489.105	8101.76
489.309	8036.23
489.512	8261.51
489.716	8275.84
489.92	8134.53
490.124	8142.72
490.328	8331.14
490.531	8284.03
490.735	8347.52
490.939	8347.52
491.143	8273.79
491.346	8329.09
491.55	8554.37
491.754	8339.33
491.958	8413.06
492.161	8329.09
492.365	8621.95
492.569	8333.18
492.772	8556.41
492.976	8695.68
493.18	8728.44
493.383	8722.3
493.587	8916.86
493.79	8857.46
493.994	8691.58
494.197	8822.65
494.401	8990.58
494.605	8906.62
494.808	9230.2
495.012	9181.04
495.215	9082.74
495.419	9191.28
495.622	9461.62
495.825	9670.51
496.029	9690.99
496.232	9668.46
496.436	9592.69
496.639	9871.21
496.843	9989.99
497.046	9951.08
497.249	10102.63
497.453	10033
497.656	10059.62
497.859	10295.14
498.063	10616.67
498.266	10579.81
498.469	10702.68
498.673	10671.97
498.876	10907.48
499.079	11167.57
499.282	11028.31
499.485	11501.39
499.689	11347.79
499.892	11685.71
500.095	11724.62
500.298	11937.61
500.501	11816.78
500.705	12121.93
500.908	12500.8
501.111	12427.07
501.314	12611.39
501.517	12738.37
501.72	12924.73
501.923	12988.22
502.126	13180.73
502.329	13426.48
502.532	13549.36
502.735	13764.4
502.938	13887.28
503.141	13868.84
503.344	14133.03
503.547	14311.21
503.75	14399.27
503.953	14933.79
504.156	14923.55
504.359	14769.95
504.562	15181.59
504.765	15496.98
504.968	15605.52
505.17	15736.59
505.373	15949.58
505.576	16168.71
505.779	16152.33
505.982	16189.19
506.185	16871.17
506.387	16760.58
506.59	17235.7
506.793	17358.58
506.996	17372.92
507.198	17725.17
507.401	17798.9
507.604	17927.92
507.807	18349.8
508.009	18577.12
508.212	18849.5
508.415	18890.46
508.617	19304.15
508.82	19187.42
509.022	19228.38
509.225	19769.04
509.428	20008.65
509.63	20266.7
509.833	20195.02
510.035	20694.72
510.238	20833.99
510.44	21137.09
510.643	21499.58
510.845	21722.8
511.048	21888.69
511.25	22306.48
511.453	22251.18
511.655	22849.19
511.858	23015.07
512.06	23121.57
512.262	23514.78
512.465	23463.58
512.667	24127.12
512.87	24120.98
513.072	24053.39
513.274	24835.72
513.477	25255.55
513.679	25362.04
513.881	25996.92
514.084	25699.96
514.286	25853.56
514.488	25945.72
514.69	26895.97
514.893	26826.34
515.095	27074.15
515.297	27422.3
515.499	27489.88
515.701	28178
515.904	28622.41
516.106	28460.62
516.308	29253.19
516.51	29263.43
516.712	29347.39
516.914	29636.16
517.116	30246.45
517.318	30342.7
517.52	30537.26
517.722	30672.43
517.925	31120.93
518.127	31669.79
518.329	31731.23
518.531	31919.64
518.733	32421.39
518.935	32769.55
519.136	33209.86
519.338	32910.86
519.54	33375.75
519.742	34027
519.944	34094.58
520.146	34655.73
520.348	34618.86
520.55	34954.73
520.752	35347.94
520.954	36066.78
521.155	35712.48
521.357	36142.55
521.559	36138.46
521.761	37336.52
521.963	36976.08
522.164	37336.52
522.366	37213.64
522.568	37891.52
522.77	38149.56
522.971	38129.08
523.173	38475.19
523.375	38923.69
523.576	38837.68
523.778	39488.93
523.98	39497.13
524.181	39779.75
524.383	40002.97
524.584	40590.74
524.786	40580.5
524.988	40476.05
525.189	40926.61
525.391	41057.68
525.592	41438.6
525.794	41563.53
525.995	41688.45
526.197	42186.11
526.398	41983.36
526.6	42466.68
526.801	42005.89
527.003	43160.94
527.204	42988.91
527.406	43320.68
527.607	42923.38
527.808	43900.26
528.01	42675.57
528.211	42831.22
528.412	44074.34
528.614	44201.31
528.815	43761
529.016	44483.93
529.218	44391.77
529.419	44076.38
529.62	43896.16
529.822	43990.37
530.023	44264.8
530.224	44598.62
530.425	44541.27
530.626	44250.46
530.828	44281.18
531.029	45313.36
531.23	44678.49
531.431	45102.42
531.632	45106.51
531.833	45319.5
532.035	45120.85
532.236	45565.26
532.437	44848.47
532.638	44852.56
532.839	45634.89
533.04	45557.06
533.241	45210.96
533.442	46314.81
533.643	45800.77
533.844	45829.44
534.045	45802.82
534.246	45237.58
534.447	45792.58
534.648	45481.29
534.849	45874.5
535.05	45919.56
535.251	45874.5
535.451	45835.59
535.652	46507.32
535.853	45585.74
536.054	45845.83
536.255	46089.54
536.456	45866.31
536.657	46351.68
536.857	46519.61
537.058	45790.53
537.259	46163.26
537.46	46220.61
537.66	45933.89
537.861	46101.82
538.062	46120.26
538.263	46124.35
538.463	45677.9
538.664	46011.71
538.865	45952.32
539.065	46470.46
539.266	46005.57
539.466	46486.84
539.667	45813.06
539.868	46632.25
540.068	46112.06
540.269	45964.61
540.469	46337.34
540.67	45794.63
540.87	46187.84
541.071	46126.4
541.271	46069.06
541.472	45651.27
541.672	46001.47
541.873	45970.75
542.073	45841.73
542.274	46140.74
542.474	46046.53
542.675	45536.59
542.875	46566.71
543.075	45708.61
543.276	45741.38
543.476	46308.67
543.676	45815.11
543.877	45772.1
544.077	46298.43
544.277	45880.64
544.478	46046.53
544.678	46425.4
544.878	45966.66
545.078	45892.93
545.279	45985.09
545.479	46013.76
545.679	46644.54
545.879	45976.9
546.079	45698.37
546.28	46165.31
546.48	45632.84
546.68	46159.17
546.88	46124.35
547.08	45956.42
547.28	45815.11
547.48	45374.8
547.68	46048.58
547.88	45645.13
548.081	46159.17
548.281	46259.52
548.481	45765.96
548.681	46447.93
548.881	45954.37
549.081	45741.38
549.28	45722.95
549.48	45798.73
549.68	45946.18
549.88	46607.67
550.08	45833.54
550.28	46105.92
550.48	45778.25
550.68	45897.03
550.88	45313.36
551.08	45964.61
551.279	45643.08
551.479	45843.78
551.679	46073.15
551.879	45825.35
552.079	46019.91
552.278	45966.66
552.478	45514.06
552.678	45593.93
552.878	45645.13
553.077	45647.18
553.277	45299.02
553.477	46079.3
553.676	45407.56
553.876	45055.31
554.076	45606.22
554.275	45292.88
554.475	44909.91
554.674	45776.2
554.874	45499.72
555.074	45024.59
555.273	45776.2
555.473	45456.71
555.672	45151.57
555.872	45337.93
556.071	45532.49
556.271	45239.63
556.47	44754.26
556.67	45030.74
556.869	44662.1
557.068	45288.78
557.268	44979.54
557.467	45088.08
557.667	44660.05
557.866	44727.64
558.065	44881.24
558.265	44672.34
558.464	44379.48
558.663	44944.72
558.863	44125.53
559.062	45155.66
559.261	44395.87
559.461	44684.63
559.66	43920.74
559.859	44291.42
560.058	43654.5
560.258	44754.26
560.457	43797.86
560.656	44465.5
560.855	43801.96
561.054	44186.97
561.253	43660.65
561.453	44051.81
561.652	44033.38
561.851	44180.83
562.05	43965.79
562.249	43330.92
562.448	43722.08
562.647	43601.25
562.846	43613.54
563.045	43461.99
563.244	43322.73
563.443	43601.25
563.642	43253.1
563.841	43195.76
564.04	43306.35
564.239	43812.2
564.438	43015.54
564.637	43292.01
564.836	43525.48
565.035	42628.47
565.234	42759.54
565.432	43083.12
565.631	42499.45
565.83	42808.69
566.029	42458.49
566.228	42687.86
566.427	42247.55
566.625	42728.82
566.824	41702.79
567.023	42413.43
567.222	42014.08
567.42	42622.33
567.619	42212.73
567.818	42255.74
568.016	41618.82
568.215	42102.14
568.414	41880.96
568.612	42038.65
568.811	41579.91
569.01	41723.27
569.208	41248.14
569.407	41743.75
569.605	41323.91
569.804	41285
570.002	41024.91
570.201	41344.39
570.4	41016.72
570.598	40684.95
570.797	40795.54
570.995	40723.86
571.193	40392.09
571.392	40824.21
571.59	40404.38
571.789	40476.05
571.987	40226.2
572.186	40252.83
572.384	40111.52
572.582	39900.58
572.781	40134.04
572.979	39306.66
573.177	39574.95
573.376	39382.44
573.574	39574.95
573.772	39409.06
573.971	39476.65
574.169	39269.8
574.367	38813.1
574.565	39079.34
574.763	38686.13
574.962	38827.44
575.16	38585.78
575.358	38833.58
575.556	38518.2
575.754	38489.52
575.952	38143.42
576.151	38643.12
576.349	38211
576.547	37950.91
576.745	37557.7
576.943	37981.63
577.141	37752.26
577.339	37694.91
577.537	37400.01
577.735	37516.74
577.933	37141.96
578.131	37395.91
578.329	37006.8
578.527	36664.78
578.725	37154.25
578.923	37086.67
579.121	36357.59
579.319	36160.98
579.516	37031.37
579.714	36781.52
579.912	36298.2
580.11	36371.93
580.308	36259.29
580.506	36353.49
580.704	35648.99
580.901	35835.36
581.099	36298.2
581.297	35655.14
581.495	35368.42
581.692	35718.62
581.89	35237.35
582.088	35388.9
582.285	35397.09
582.483	35587.55
582.681	35272.17
582.878	35100.14
583.076	34772.46
583.274	35014.12
583.471	34405.88
583.669	34942.44
583.866	34657.78
584.064	34801.13
584.262	34514.42
584.459	34547.18
584.657	34237.94
584.854	34639.34
585.052	33603.07
585.249	34082.3
585.447	33838.59
585.644	33543.68
585.841	33932.79
586.039	33965.56
586.236	33125.89
586.434	33330.69
586.631	33138.18
586.828	33074.7
587.026	33203.72
587.223	33052.17
587.42	33003.02
587.618	32814.6
587.815	32677.39
588.012	32554.51
588.21	32435.73
588.407	32896.52
588.604	32423.44
588.801	32306.71
588.999	32187.92
589.196	32275.99
589.393	32251.41
589.59	32157.21
589.787	31796.76
589.984	31794.71
590.182	31395.36
590.379	31983.13
590.576	31387.17
590.773	31387.17
590.97	31262.24
591.167	31401.5
591.364	31000.1
591.561	31112.74
591.758	30764.59
591.955	30885.42
592.152	30795.31
592.349	30608.94
592.546	30989.86
592.743	30631.47
592.94	30271.03
593.137	30584.37
593.334	30791.21
593.531	30049.85
593.727	30412.34
593.924	29990.45
594.121	29847.1
594.318	30271.03
594.515	29498.94
594.712	29914.68
594.908	29730.36
595.105	29492.8
595.302	29609.53
595.499	29611.58
595.696	29302.34
595.892	28749.39
596.089	29240.9
596.286	29142.6
596.482	29058.63
596.679	29105.73
596.876	29132.36
597.072	28886.6
597.269	28968.52
597.466	28431.95
597.662	28405.33
597.859	28683.85
598.055	28491.34
598.252	28448.33
598.448	28282.45
598.645	28083.8
598.841	27919.96
599.038	28204.63
599.234	28032.6
599.431	27737.69
599.627	27493.98
599.824	27922.01
600.02	27336.29
600.217	27534.94
600.413	27299.42
600.609	27192.93
600.806	26965.6
601.002	27178.59
601.198	26936.93
601.395	27049.57
601.591	26752.62
601.787	26928.74
601.984	26728.04
602.18	26918.5
602.376	26631.79
602.572	26513
602.769	26508.91
602.965	25943.67
603.161	26562.15
603.357	26082.93
603.553	26123.89
603.75	26001.01
603.946	25796.21
604.142	25798.26
604.338	25566.84
604.534	25785.97
604.73	25441.92
604.926	25601.66
605.122	25613.95
605.318	25255.55
605.514	25063.04
605.71	24952.45
605.906	24993.41
606.102	24813.19
606.298	25165.44
606.494	24979.07
606.69	24833.67
606.886	24667.78
607.082	24192.65
607.278	24917.64
607.474	24297.1
607.67	24522.38
607.866	24018.58
608.062	24288.91
608.257	24028.82
608.453	24106.64
608.649	24274.57
608.845	24098.45
609.041	23783.06
609.236	23824.02
609.432	23901.84
609.628	23742.1
609.824	23514.78
610.019	23803.54
610.215	23494.3
610.411	23314.08
610.606	23406.23
610.802	23520.92
610.998	23697.05
611.193	23260.83
611.389	23051.94
611.584	23070.37
611.78	23262.88
611.976	23047.84
612.171	23109.28
612.367	22910.63
612.562	22652.58
612.758	22648.49
612.953	22746.79
613.149	22654.63
613.344	22175.41
613.539	22660.77
613.735	22298.28
613.93	22288.04
614.126	22226.6
614.321	22541.99
614.517	22298.28
614.712	22154.93
614.907	22070.96
615.103	22023.86
615.298	22087.34
615.493	22093.49
615.688	21792.44
615.884	22283.95
616.079	21817.01
616.274	21847.73
616.47	21700.28
616.665	21544.63
616.86	21522.1
617.055	21202.62
617.25	21487.29
617.445	21513.91
617.641	21335.74
617.836	21231.29
618.031	20790.98
618.226	21151.42
618.421	20831.94
618.616	21378.75
618.811	20780.74
619.006	21196.48
619.201	20528.84
619.396	20782.79
619.591	20227.79
619.786	20465.35
619.981	20229.84
620.176	20367.05
620.371	19881.68
620.566	20166.35
620.761	19990.22
620.956	19961.55
621.151	19685.08
621.346	19832.53
621.541	19445.46
621.735	19560.15
621.93	19150.56
622.125	19457.75
622.32	19322.59
622.515	19250.91
622.709	19044.06
622.904	18747.11
623.099	18818.78
623.294	18876.13
623.488	18638.56
623.683	18712.29
623.878	18120.43
624.072	18482.92
624.267	18444.01
624.462	18091.76
624.656	18132.72
624.851	18161.39
625.046	17874.67
625.24	17616.63
625.435	17649.39
625.629	17788.66
625.824	17456.89
626.018	17411.83
626.213	17108.73
626.407	17338.1
626.602	16967.42
626.796	17010.43
626.991	17256.18
627.185	16641.79
627.38	16891.65
627.574	16711.42
627.768	16465.67
627.963	16611.07
628.157	16506.63
628.352	16457.48
628.546	16054.03
628.74	16330.5
628.935	16160.52
629.129	16097.03
629.323	15990.54
629.517	15724.3
629.712	16023.31
629.906	15638.29
630.1	15513.36
630.294	15470.36
630.489	15507.22
630.683	15482.64
630.877	15249.18
631.071	15236.89
631.265	15478.55
631.459	15081.24
631.653	14901.02
631.848	15136.54
632.042	14767.9
632.236	14681.89
632.43	14647.07
632.624	14556.96
632.818	14665.5
633.012	14231.33
633.206	14495.52
633.4	14401.32
633.594	14247.72
633.788	14278.44
633.982	14071.59
634.176	14280.49
634.369	13967.15
634.563	14149.42
634.757	13850.41
634.951	13707.05
635.145	13799.21
635.339	13889.32
635.533	13489.97
635.726	13627.18
635.92	13442.87
636.114	13201.21
636.308	13190.97
636.501	13207.35
636.695	13174.58
636.889	13043.51
637.083	13035.32
637.276	12961.59
637.47	13135.67
637.664	12764.99
637.857	12951.35
638.051	12607.3
638.244	12691.26
638.438	12601.15
638.632	12453.7
638.825	12488.51
639.019	12275.52
639.212	12355.4
639.406	12427.07
639.599	12242.76
639.793	12023.62
639.986	12193.61
640.18	12019.53
640.373	11921.23
640.567	11962.19
640.76	11978.57
640.954	11751.24
641.147	11585.36
641.34	11730.76
641.534	11632.46
641.727	11554.64
641.92	11458.39
642.114	11515.73
642.307	11353.94
642.5	11198.29
642.694	11112.28
642.887	11097.94
643.08	11054.94
643.273	11056.98
643.467	10970.97
643.66	11007.83
643.853	10846.04
644.046	10510.18
644.239	10690.4
644.432	10706.78
644.626	10643.29
644.819	10604.38
645.012	10428.26
645.205	10170.21
645.398	10258.28
645.591	10223.46
645.784	10207.08
645.977	10295.14
646.17	10235.75
646.363	9779.05
646.556	9869.16
646.749	9973.61
646.942	9854.83
647.135	9774.95
647.328	9828.2
647.521	9564.01
647.714	9639.79
647.907	9602.93
648.099	9434.99
648.292	9529.2
648.485	9412.46
648.678	9332.59
648.871	9074.55
649.064	9289.59
649.256	9279.35
649.449	9025.4
649.642	9140.08
649.835	8882.04
650.027	8957.82
650.22	8959.86
650.413	8882.04
650.605	8890.23
650.798	8789.88
650.991	8695.68
651.183	8830.84
651.376	8675.2
651.568	8501.12
651.761	8662.91
651.954	8466.3
652.146	8388.48
652.339	8198.02
652.531	8302.47
652.724	8294.27
652.916	8183.68
653.109	8183.68
653.301	8243.07
653.494	8216.45
653.686	7765.9
653.879	8083.33
654.071	8091.52
654.263	7737.23
654.456	7892.87
654.648	7632.78
654.84	7659.4
655.033	7614.35
655.225	7696.27
655.417	7663.5
655.61	7544.72
655.802	7569.29
655.994	7501.71
656.186	7511.95
656.379	7274.39
656.571	7229.33
656.763	7307.15
656.955	7198.61
657.148	7335.82
657.34	7069.59
657.532	7034.77
657.724	6985.62
657.916	7118.74
658.108	6885.27
658.3	6834.07
658.492	6758.3
658.684	6635.42
658.876	6612.89
659.068	6539.16
659.26	6590.36
659.452	6688.67
659.644	6545.31
659.836	6524.83
660.028	6539.16
660.22	6391.71
660.412	6270.88
660.604	6305.7
660.796	6242.21
660.988	6209.44
661.18	6250.4
661.372	6195.11
661.563	6168.48
661.755	6016.93
661.947	6080.42
662.139	6072.23
662.331	5836.71
662.522	6021.03
662.714	5834.66
662.906	5822.38
663.097	5822.38
663.289	5779.37
663.481	5719.98
663.673	5676.97
663.864	5664.68
664.056	5556.14
664.247	5578.67
664.439	5511.08
664.631	5498.8
664.822	5418.93
665.014	5638.06
665.205	5439.4
665.397	5351.34
665.588	5402.54
665.78	5287.86
665.971	5474.22
666.163	5418.93
666.354	5160.88
666.546	5193.65
666.737	5095.35
666.929	5128.11
667.12	5191.6
667.311	5107.63
667.503	4876.21
667.694	4945.84
667.885	4997.04
668.077	4968.37
668.268	4870.07
668.459	4900.79
668.651	4933.56
668.842	5076.91
669.033	4888.5
669.224	4814.77
669.416	4747.19
669.607	4626.36
669.798	4712.38
669.989	4757.43
670.18	4794.29
670.371	4759.48
670.563	4616.12
670.754	4480.96
670.945	4612.03
671.136	4583.35
671.327	4679.61
671.518	4440
671.709	4487.1
671.9	4562.87
672.091	4569.02
672.282	4454.33
672.473	4231.1
672.664	4345.79
672.855	4392.89
673.046	4237.25
673.237	4425.66
673.428	4282.3
673.619	4372.41
673.809	4198.34
674	4245.44
674.191	4274.11
674.382	4134.85
674.573	4222.91
674.764	4032.45
674.954	4153.28
675.145	4192.19
675.336	4196.29
675.527	4212.67
675.717	4038.59
675.908	3950.53
676.099	3999.68
676.289	4011.97
676.48	4048.83
676.671	3891.14
676.861	4034.5
677.052	3950.53
677.243	3930.05
677.433	3979.2
677.624	3919.81
677.814	3913.67
678.005	4046.79
678.195	3778.5
678.386	3907.52
678.576	3768.26
678.767	3839.94
678.957	3760.07
679.148	3856.33
679.338	3827.65
679.529	3700.68
679.719	3815.37
679.909	3745.73
680.1	3751.88
680.29	3631.05
680.481	3776.45
680.671	3696.58
680.861	3549.13
681.052	3629
681.242	3684.3
681.432	3669.96
681.622	3618.76
681.813	3629
682.003	3551.18
682.193	3618.76
682.383	3622.86
682.573	3602.38
682.764	3629
682.954	3639.24
683.144	3647.43
683.334	3491.79
683.524	3510.22
683.714	3456.97
683.904	3432.4
684.094	3489.74
684.284	3579.85
684.474	3481.55
684.664	3397.58
684.854	3438.54
685.044	3237.84
685.234	3350.48
685.424	3536.84
685.614	3336.14
685.804	3354.57
685.994	3327.95
686.184	3403.72
686.374	3399.63
686.564	3334.09
686.753	3389.39
686.943	3340.24
687.133	3418.06
687.323	3389.39
687.513	3252.17
687.702	3295.18
687.892	3289.04
688.082	3278.8
688.272	3375.05
688.461	3352.52
688.651	3340.24
688.841	3213.26
689.03	3250.13
689.22	3358.67
689.41	3297.23
689.599	3291.09
689.789	3358.67
689.979	3248.08
690.168	3307.47
690.358	3254.22
690.547	3211.21
690.737	3198.93
690.926	3262.41
691.116	3260.37
691.305	3278.8
691.495	3209.17
691.684	3125.2
691.874	3194.83
692.063	3252.17
692.252	3289.04
692.442	3237.84
692.631	3131.34
692.82	3211.21
693.01	3164.11
693.199	3170.26
693.388	3194.83
693.578	3157.97
693.767	3303.37
693.956	3274.7
694.146	3121.1
694.335	3145.68
694.524	3284.94
694.713	3209.17
694.902	3100.62
695.092	3086.29
695.281	3117.01
695.47	3043.28
695.659	3139.54
695.848	3080.14
696.037	3129.3
696.226	3018.71
696.415	3069.91
696.604	3119.06
696.793	3096.53
696.982	3080.14
697.171	2918.36
697.36	3160.02
697.549	3082.19
697.738	3069.91
697.927	3026.9
698.116	3143.63
698.305	3098.58
698.494	3127.25
698.683	3020.75
698.872	3022.8
699.061	2971.6
699.25	3112.91
699.438	3137.49
699.627	3071.95
699.816	3069.91
700.005	2977.75
700.193	3059.67
700.382	3059.67
700.571	3121.1
700.76	3018.71
700.948	3010.51
701.137	3041.23
701.326	2947.03
701.514	2871.25
701.703	3059.67
701.892	2873.3
702.08	2961.36
702.269	2959.31
702.457	2858.96
702.646	2899.92
702.834	2992.08
703.023	2842.58
703.212	2877.4
703.4	2760.66
703.589	2838.48
703.777	2779.09
703.965	2908.12
704.154	2820.05
704.342	2820.05
704.531	2895.83
704.719	2762.71
704.907	2805.72
705.096	2865.11
705.284	2879.44
705.472	2725.85
705.661	2863.06
705.849	2779.09
706.037	2678.74
706.226	2752.47
706.414	2858.96
706.602	2637.78
706.79	2807.77
706.979	2633.69
707.167	2701.27
707.355	2576.34
707.543	2668.5
707.731	2719.7
707.919	2652.12
708.107	2539.48
708.296	2582.49
708.484	2650.07
708.672	2566.1
708.86	2547.67
709.048	2605.02
709.236	2719.7
709.424	2645.98
709.612	2531.29
709.8	2602.97
709.988	2629.59
710.176	2443.23
710.364	2549.72
710.551	2559.96
710.739	2488.28
710.927	2549.72
711.115	2326.49
711.303	2367.45
711.491	2475.99
711.679	2465.75
711.866	2326.49
712.054	2310.11
712.242	2459.61
712.43	2416.6
712.617	2373.6
712.805	2439.13
712.993	2293.72
713.181	2344.92
713.368	2375.64
713.556	2340.83
713.744	2445.27
713.931	2330.59
714.119	2220
714.306	2334.68
714.494	2285.53
714.682	2275.29
714.869	2234.33
715.057	2224.09
715.244	2140.13
715.432	2279.39
715.619	2279.39
715.807	2158.56
715.994	2236.38
716.182	2181.09
716.369	2156.51
716.556	2111.46
716.744	2082.78
716.931	2256.86
717.119	2072.54
717.306	2072.54
717.493	2093.02
717.681	2117.6
717.868	2121.7
718.055	2064.35
718.242	2068.45
718.43	2052.06
718.617	2009.06
718.804	1998.82
718.991	2138.08
719.179	2111.46
719.366	2039.78
719.553	1986.53
719.74	2066.4
719.927	1955.81
720.114	1933.28
720.301	1910.75
720.488	2064.35
720.676	1955.81
720.863	2039.78
721.05	1855.46
721.237	1886.18
721.424	1890.28
721.611	1826.79
721.798	1826.79
721.985	1828.84
722.172	1863.65
722.358	1798.12
722.545	1859.56
722.732	1882.08
722.919	1837.03
723.106	1769.44
723.293	1888.23
723.48	1812.45
723.667	1740.77
723.853	1744.87
724.04	1810.4
724.227	1775.59
724.414	1845.22
724.6	1648.61
724.787	1740.77
724.974	1695.72
725.161	1882.08
725.347	1636.33
725.534	1720.29
725.72	1765.35
725.907	1779.68
726.094	1671.14
726.28	1746.92
726.467	1667.05
726.653	1699.81
726.84	1581.03
727.027	1746.92
727.213	1681.38
727.4	1724.39
727.586	1681.38
727.773	1568.74
727.959	1710.05
728.145	1552.36
728.332	1646.57
728.518	1669.09
728.705	1642.47
728.891	1597.42
729.077	1572.84
729.264	1468.39
729.45	1587.18
729.636	1548.26
729.823	1568.74
730.009	1601.51
730.195	1472.49
730.382	1423.34
730.568	1542.12
730.754	1492.97
730.94	1540.07
731.126	1503.21
731.313	1505.26
731.499	1531.88
731.685	1585.13
731.871	1513.45
732.057	1507.31
732.243	1546.22
732.429	1452.01
732.615	1523.69
732.801	1413.1
732.987	1466.35
733.173	1509.35
733.359	1425.39
733.545	1370.09
733.731	1370.09
733.917	1472.49
734.103	1482.73
734.289	1439.72
734.475	1421.29
734.661	1392.62
734.847	1370.09
735.033	1341.42
735.219	1454.06
735.404	1353.71
735.59	1423.34
735.776	1402.86
735.962	1388.52
736.148	1392.62
736.333	1368.04
736.519	1392.62
736.705	1310.7
736.89	1286.12
737.076	1325.04
737.262	1294.32
737.447	1288.17
737.633	1294.32
737.819	1239.02
738.004	1316.84
738.19	1290.22
738.375	1337.32
738.561	1318.89
738.747	1251.31
738.932	1163.25
739.118	1298.41
739.303	1288.17
739.489	1191.92
739.674	1193.97
739.859	1253.36
740.045	1214.45
740.23	1212.4
740.416	1208.3
740.601	1259.5
740.786	1126.38
740.972	1155.05
741.157	1097.71
741.342	1077.23
741.528	1157.1
741.713	1234.93
741.898	1161.2
742.084	1140.72
742.269	1167.34
742.454	1175.53
742.639	1159.15
742.824	1126.38
743.01	1105.9
743.195	1157.1
743.38	1075.18
743.565	1089.52
743.75	1099.76
743.935	1089.52
744.12	1136.62
744.305	1095.66
744.49	1060.85
744.675	1114.1
744.86	1058.8
745.045	1181.68
745.23	1091.57
745.415	1107.95
745.6	978.93
745.785	1028.08
745.97	1069.04
746.155	1007.6
746.34	1048.56
746.525	940.02
746.71	1050.61
746.895	952.31
747.079	933.87
747.264	1095.66
747.449	991.22
747.634	987.12
747.819	974.83
748.003	1056.75
748.188	864.24
748.373	974.83
748.557	909.3
748.742	897.01
748.927	937.97
749.111	927.73
749.296	874.48
749.481	980.98
749.665	987.12
749.85	937.97
750.034	925.68
750.219	782.32
750.404	888.82
750.588	827.38
750.773	858.1
750.957	843.76
751.141	890.87
751.326	860.15
751.51	821.24
751.695	876.53
751.879	786.42
752.064	806.9
752.248	839.67
752.432	888.82
752.617	778.23
752.801	770.04
752.985	862.19
753.17	851.96
753.354	718.84
753.538	753.65
753.722	770.04
753.907	729.08
754.091	780.28
754.275	727.03
754.459	720.88
754.643	749.56
754.828	755.7
755.012	696.31
755.196	720.88
755.38	782.32
755.564	718.84
755.748	708.6
755.932	704.5
756.116	827.38
756.3	708.6
756.484	739.32
756.668	620.53
756.852	718.84
757.036	702.45
757.22	677.88
757.404	628.73
757.588	602.1
757.772	651.25
757.956	651.25
758.14	659.45
758.323	745.46
758.507	604.15
758.691	626.68
758.875	694.26
759.059	593.91
759.242	663.54
759.426	612.34
759.61	634.87
759.794	647.16
759.977	663.54
760.161	684.02
760.345	610.29
760.528	647.16
760.712	600.05
760.895	612.34
761.079	673.78
761.263	575.48
761.446	626.68
761.63	622.58
761.813	606.2
761.997	548.86
762.18	575.48
762.364	536.57
762.547	595.96
762.731	651.25
762.914	598.01
763.098	581.62
763.281	598.01
763.464	567.29
763.648	583.67
763.831	571.38
764.015	552.95
764.198	612.34
764.381	565.24
764.564	565.24
764.748	571.38
764.931	563.19
765.114	675.83
765.297	532.47
765.481	507.9
765.664	589.81
765.847	552.95
766.03	493.56
766.213	524.28
766.397	528.38
766.58	528.38
766.763	593.91
766.946	563.19
767.129	579.58
767.312	499.7
767.495	567.29
767.678	479.22
767.861	555
768.044	479.22
768.227	468.98
768.41	475.13
768.593	530.42
768.776	530.42
768.959	565.24
769.142	395.26
769.324	514.04
769.507	561.14
769.69	483.32
769.873	522.23
770.056	468.98
770.239	559.1
770.421	505.85
770.604	442.36
770.787	442.36
770.97	528.38
771.152	487.42
771.335	473.08
771.518	501.75
771.7	606.2
771.883	493.56
772.066	520.18
772.248	446.46
772.431	487.42
772.613	530.42
772.796	489.46
772.978	479.22
773.161	462.84
773.343	460.79
773.526	489.46
773.708	489.46
773.891	442.36
774.073	497.66
774.256	491.51
774.438	403.45
774.621	421.88
774.803	366.59
774.985	436.22
775.168	444.41
775.35	436.22
775.532	491.51
775.715	391.16
775.897	483.32
776.079	417.79
776.261	401.4
776.444	401.4
776.626	372.73
776.808	399.35
776.99	385.02
777.173	460.79
777.355	389.11
777.537	397.31
777.719	434.17
777.901	364.54
778.083	413.69
778.265	405.5
778.447	444.41
778.629	358.39
778.811	339.96
778.993	329.72
779.175	337.91
779.357	380.92
779.539	370.68
779.721	444.41
779.903	372.73
780.085	434.17
780.267	368.63
780.449	380.92
780.631	362.49
780.812	372.73
780.994	411.64
781.176	428.03
781.358	319.48
781.54	356.35
781.721	325.63
781.903	397.31
782.085	372.73
782.267	376.83
782.448	258.04
782.63	286.72
782.812	301.05
782.993	407.55
783.175	296.96
783.357	342.01
783.538	350.2
783.72	260.09
783.901	331.77
784.083	307.2
784.264	335.87
784.446	315.39
784.627	245.76
784.809	368.63
784.99	339.96
785.172	268.28
785.353	356.35
785.535	284.67
785.716	354.3
785.897	204.8
786.079	274.43
786.26	315.39
786.441	282.62
786.623	282.62
786.804	284.67
786.985	233.47
787.167	272.38
787.348	323.58
787.529	172.03
787.71	294.91
787.891	276.48
788.073	313.34
788.254	305.15
788.435	266.24
788.616	251.9
788.797	206.84
788.978	288.76
789.159	233.47
789.34	266.24
789.522	305.15
789.703	190.46
789.884	161.79
790.065	372.73
790.246	192.51
790.427	296.96
790.607	303.1
790.788	270.33
790.969	172.03
791.15	172.03
791.331	225.28
791.512	249.85
791.693	258.04
791.874	178.17
792.054	217.08
792.235	235.52
792.416	313.34
792.597	272.38
792.778	198.65
792.958	258.04
793.139	196.61
793.32	237.56
793.5	167.93
793.681	249.85
793.862	172.03
794.042	229.37
794.223	274.43
794.404	301.05
794.584	188.41
794.765	278.52
794.945	165.89
795.126	239.61
795.306	212.99
795.487	260.09
795.667	206.84
795.848	147.45
796.028	235.52
796.209	225.28
796.389	169.98
796.57	147.45
796.75	147.45
796.93	198.65
797.111	112.64
797.291	172.03
797.471	182.27
797.652	276.48
797.832	145.41
798.012	145.41
798.192	131.07
798.373	163.84
798.553	126.97
798.733	237.56
798.913	192.51
799.093	200.7
799.274	176.13
799.454	249.85
799.634	196.61
799.814	202.75
799.994	260.09
800.174	219.13
800.354	198.65
800.534	212.99
800.714	192.51
800.894	131.07
801.074	288.76
801.254	206.84
801.434	260.09
801.614	81.92
801.794	215.04
801.974	395.26
802.154	114.69
802.334	192.51
802.514	102.4
802.693	137.21
802.873	157.69
803.053	184.32
803.233	65.54
803.413	176.13
803.592	225.28
803.772	86.01
803.952	149.5
804.131	141.31
804.311	110.59
804.491	159.74
804.67	231.42
804.85	159.74
805.03	163.84
805.209	151.55
805.389	200.7
805.568	182.27
805.748	102.4
805.928	126.97
806.107	155.65
806.287	149.5
806.466	104.45
806.646	57.34
806.825	147.45
807.004	159.74
807.184	178.17
807.363	174.08
807.543	61.44
807.722	118.78
807.901	133.12
808.081	159.74
808.26	108.54
808.439	192.51
808.619	100.35
808.798	165.89
808.977	157.69
809.156	153.6
809.336	151.55
809.515	155.65
809.694	145.41
809.873	110.59
810.052	122.88
810.231	163.84
810.411	114.69
810.59	139.26
810.769	161.79
810.948	135.17
811.127	57.34
811.306	167.93
811.485	43.01
811.664	200.7
811.843	45.06
812.022	98.3
812.201	124.93
812.38	141.31
812.559	98.3
812.737	75.77
812.916	83.97
813.095	34.82
813.274	98.3
813.453	102.4
813.632	139.26
813.811	75.77
813.989	122.88
814.168	65.54
814.347	65.54
814.526	106.49
814.704	151.55
814.883	172.03
815.062	83.97
815.24	124.93
815.419	174.08
815.598	172.03
815.776	139.26
815.955	90.11
816.133	133.12
816.312	106.49
816.49	90.11
816.669	75.77
816.847	131.07
817.026	116.73
817.204	159.74
817.383	112.64
817.561	49.15
817.74	163.84
817.918	155.65
818.097	73.73
818.275	94.21
818.453	112.64
818.632	110.59
818.81	73.73
818.988	172.03
819.167	45.06
819.345	24.58
819.523	120.83
819.701	73.73
819.879	172.03
820.058	98.3
820.236	67.58
820.414	137.21
820.592	51.2
820.77	135.17
820.948	57.34
821.127	98.3
821.305	30.72
821.483	45.06
821.661	151.55
821.839	69.63
822.017	24.58
822.195	-20.48
822.373	151.55
822.551	65.54
822.729	67.58
822.907	34.82
823.085	143.36
823.262	118.78
823.44	90.11
823.618	47.1
823.796	73.73
823.974	53.25
824.152	36.86
824.329	57.34
824.507	145.41
824.685	40.96
824.863	-4.1
825.04	-16.38
825.218	79.87
825.396	77.82
825.574	100.35
825.751	61.44
825.929	118.78
826.107	57.34
826.284	61.44
826.462	69.63
826.639	108.54
826.817	143.36
826.994	57.34
827.172	92.16
827.349	122.88
827.527	81.92
827.704	133.12
827.882	57.34
828.059	114.69
828.237	53.25
828.414	81.92
828.591	26.62
828.769	114.69
828.946	73.73
829.124	155.65
829.301	55.3
829.478	122.88
829.655	90.11
829.833	79.87
830.01	40.96
830.187	71.68
830.364	100.35
830.542	114.69
830.719	118.78
830.896	40.96
831.073	45.06
831.25	114.69
831.427	135.17
831.604	0
831.782	116.73
831.959	94.21
832.136	63.49
832.313	0
832.49	-26.62
832.667	81.92
832.844	65.54
833.021	40.96
833.198	51.2
833.374	57.34
833.551	106.49
833.728	126.97
833.905	98.3
834.082	96.25
834.259	63.49
834.436	71.68
834.612	28.67
834.789	126.97
834.966	36.86
835.143	16.38
835.319	38.91
835.496	126.97
835.673	126.97
835.85	151.55
836.026	57.34
836.203	24.58
836.38	98.3
836.556	63.49
836.733	102.4
836.909	114.69
837.086	73.73
837.262	30.72
837.439	116.73
837.616	51.2
837.792	102.4
837.968	139.26
838.145	135.17
838.321	86.01
838.498	30.72
838.674	-14.34
838.851	57.34
839.027	30.72
839.203	49.15
839.38	81.92
839.556	34.82
839.732	83.97
839.909	26.62
840.085	22.53
840.261	59.39
840.437	49.15
840.614	79.87
840.79	18.43
840.966	34.82
841.142	73.73
841.318	43.01
841.494	122.88
841.671	49.15
841.847	79.87
842.023	-16.38
842.199	12.29
842.375	69.63
842.551	57.34
842.727	26.62
842.903	120.83
843.079	-26.62
843.255	16.38
843.431	110.59
843.607	163.84
843.783	116.73
843.959	110.59
844.134	67.58
844.31	65.54
844.486	51.2
844.662	65.54
844.838	-24.58
845.013	32.77
845.189	51.2
845.365	51.2
845.541	-6.14
845.716	67.58
845.892	59.39
846.068	32.77
846.244	61.44
846.419	59.39
846.595	-53.25
846.77	6.14
846.946	24.58
847.122	32.77
847.297	30.72
847.473	61.44
847.648	22.53
847.824	43.01
847.999	102.4
848.175	65.54
848.35	67.58
848.526	32.77
848.701	92.16
848.876	65.54
849.052	65.54
849.227	34.82
849.403	30.72
849.578	79.87
849.753	-8.19
849.929	22.53
850.104	-18.43
850.279	47.1
850.454	-34.82
850.63	102.4
850.805	-24.58
850.98	12.29
851.155	124.93
851.33	34.82
851.505	45.06
851.681	86.01
851.856	53.25
852.031	65.54
852.206	36.86
852.381	57.34
852.556	20.48
852.731	71.68
852.906	57.34
853.081	73.73
853.256	28.67
853.431	40.96
853.606	45.06
853.781	79.87
853.956	28.67
854.131	0
854.305	77.82
854.48	32.77
854.655	10.24
854.83	8.19
855.005	79.87
855.18	-8.19
855.354	14.34
855.529	18.43
855.704	124.93
855.879	16.38
856.053	0
856.228	34.82
856.403	18.43
856.577	98.3
856.752	-4.1
856.926	100.35
857.101	28.67
857.276	8.19
857.45	-12.29
857.625	45.06
857.799	-32.77
857.974	45.06
858.148	63.49
858.323	49.15
858.497	24.58
858.672	112.64
858.846	2.05
859.02	26.62
859.195	104.45
859.369	-45.06
859.543	8.19
859.718	83.97
859.892	26.62
860.066	-43.01
860.241	43.01
860.415	34.82
860.589	16.38
860.763	32.77
860.938	79.87
861.112	106.49
861.286	-20.48
861.46	108.54
861.634	79.87
861.808	36.86
861.982	40.96
862.157	51.2
862.331	69.63
862.505	14.34
862.679	59.39
862.853	24.58
863.027	53.25
863.201	73.73
863.375	83.97
863.549	79.87
863.722	47.1
863.896	-16.38
864.07	59.39
864.244	24.58
864.418	57.34
864.592	26.62
864.766	8.19
864.939	43.01
865.113	98.3
865.287	49.15
865.461	28.67
865.634	-8.19
865.808	36.86
865.982	61.44
866.156	22.53
866.329	90.11
866.503	75.77
866.676	155.65
866.85	67.58
867.024	65.54
867.197	20.48
867.371	77.82
867.544	28.67
867.718	-53.25
867.891	8.19
868.065	49.15
868.238	8.19
868.412	-12.29
868.585	30.72
868.759	-6.14
868.932	20.48
869.105	88.06
869.279	-2.05
869.452	28.67
869.625	-8.19
869.799	28.67
869.972	2.05
870.145	38.91
870.319	90.11
870.492	26.62
870.665	67.58
870.838	2.05
871.011	49.15
871.185	-20.48
871.358	114.69
871.531	57.34
871.704	83.97
871.877	8.19
872.05	47.1
872.223	57.34
872.396	65.54
872.569	18.43
872.742	75.77
872.915	100.35
873.088	-16.38
873.261	-131.07
873.434	-14.34
873.607	49.15
873.78	8.19
873.953	-4.1
874.126	-55.3
874.299	98.3
874.471	-45.06
874.644	8.19
874.817	98.3
874.99	36.86
875.163	38.91
875.335	8.19
875.508	14.34
875.681	77.82
875.853	2.05
876.026	22.53
876.199	-69.63
876.371	-8.19
876.544	30.72
876.717	2.05
876.889	36.86
877.062	40.96
877.234	55.3
877.407	22.53
877.579	-24.58
877.752	75.77
877.924	49.15
878.097	59.39
878.269	65.54
878.442	43.01
878.614	-65.54
878.786	-10.24
878.959	34.82
879.131	0
879.303	43.01
879.476	28.67
879.648	81.92
879.82	-10.24
879.993	26.62
880.165	18.43
880.337	-14.34
880.509	40.96
880.681	0
880.854	30.72
881.026	18.43
881.198	55.3
881.37	53.25
881.542	36.86
881.714	12.29
881.886	32.77
882.058	12.29
882.23	55.3
882.402	8.19
882.574	0
882.746	10.24
882.918	14.34
883.09	-38.91
883.262	0
883.434	4.1
883.606	16.38
883.778	28.67
883.95	36.86
884.122	8.19
884.293	38.91
884.465	18.43
884.637	18.43
884.809	45.06
884.98	63.49
885.152	45.06
885.324	102.4
885.496	24.58
885.667	49.15
885.839	81.92
886.011	98.3
886.182	8.19
886.354	-8.19
886.525	32.77
886.697	2.05
886.869	26.62
887.04	20.48
887.212	40.96
887.383	22.53
887.555	22.53
887.726	28.67
887.897	-4.1
888.069	86.01
888.24	4.1
888.412	65.54
888.583	30.72
888.754	2.05
888.926	14.34
889.097	-24.58
889.268	28.67
889.44	77.82
889.611	34.82
889.782	12.29
889.953	6.14
890.125	59.39
890.296	-6.14
890.467	-22.53
890.638	8.19
890.809	59.39
890.98	24.58
891.151	-28.67
891.323	73.73
891.494	0
891.665	36.86
891.836	-4.1
892.007	38.91
892.178	53.25
892.349	77.82
892.52	53.25
892.691	34.82
892.862	90.11
893.032	57.34
893.203	30.72
893.374	-2.05
893.545	96.25
893.716	65.54
893.887	63.49
894.057	45.06
894.228	43.01
894.399	18.43
894.57	30.72
894.74	59.39
894.911	4.1
895.082	90.11
895.253	73.73
895.423	-34.82
895.594	65.54
895.764	22.53
895.935	-8.19
896.106	-12.29
896.276	16.38
896.447	-6.14
896.617	-20.48
896.788	67.58
896.958	-26.62
897.129	-53.25
897.299	59.39
897.47	61.44
897.64	51.2
897.81	-2.05
897.981	-40.96
898.151	-38.91
898.322	-57.34
898.492	22.53
898.662	40.96
898.832	53.25
899.003	55.3
899.173	10.24
899.343	-32.77
899.513	-8.19
