Data from USB4F104151__261__14-01-42-923.txt Node

Date: Thu Mar 13 14:01:42 EDT 2025
User: louis
Spectrometer: USB4F10415
Trigger mode: 4
Integration Time (sec): 1.000000E-2
Scans to average: 1
Electric dark correction enabled: true
Nonlinearity correction enabled: false
Boxcar width: 0
XAxis mode: Wavelengths
Number of Pixels in Spectrum: 3648
>>>>>Begin Spectral Data<<<<<
178.204	-24.06
178.424	-24.06
178.644	-24.06
178.864	-1.54
179.084	-24.06
179.304	25.09
179.524	14.85
179.744	39.42
179.964	14.85
180.184	-83.45
180.404	33.28
180.624	12.8
180.844	20.99
181.064	-9.73
181.283	41.47
181.503	-36.35
181.723	-73.21
181.943	29.18
182.163	-9.73
182.383	-17.92
182.602	-3.58
182.822	57.86
183.042	-3.58
183.262	25.09
183.482	25.09
183.701	6.66
183.921	33.28
184.141	-44.54
184.361	72.19
184.58	-48.64
184.8	57.86
185.02	10.75
185.239	0.51
185.459	39.42
185.679	-11.78
185.898	-24.06
186.118	6.66
186.338	37.38
186.557	47.62
186.777	-3.58
186.997	72.19
187.216	-15.87
187.436	31.23
187.655	-24.06
187.875	14.85
188.095	8.7
188.314	12.8
188.534	25.09
188.753	0.51
188.973	23.04
189.192	-5.63
189.412	45.57
189.631	72.19
189.851	-48.64
190.07	-11.78
190.29	-9.73
190.509	-9.73
190.729	14.85
190.948	-40.45
191.168	41.47
191.387	59.9
191.607	-13.82
191.826	14.85
192.045	-30.21
192.265	16.9
192.484	-42.5
192.704	-38.4
192.923	47.62
193.142	8.7
193.362	80.38
193.581	-42.5
193.8	27.14
194.02	25.09
194.239	-7.68
194.458	66.05
194.678	8.7
194.897	33.28
195.116	20.99
195.335	-1.54
195.555	47.62
195.774	47.62
195.993	23.04
196.212	82.43
196.432	-32.26
196.651	121.34
196.87	-26.11
197.089	-40.45
197.308	-5.63
197.528	76.29
197.747	14.85
197.966	35.33
198.185	6.66
198.404	0.51
198.623	-56.83
198.842	23.04
199.062	-28.16
199.281	98.81
199.5	12.8
199.719	74.24
199.938	20.99
200.157	-65.02
200.376	14.85
200.595	33.28
200.814	25.09
201.033	-24.06
201.252	-17.92
201.471	-24.06
201.69	-1.54
201.909	8.7
202.128	-26.11
202.347	72.19
202.566	-13.82
202.785	23.04
203.004	-50.69
203.223	20.99
203.442	47.62
203.661	2.56
203.879	37.38
204.098	-9.73
204.317	33.28
204.536	-19.97
204.755	14.85
204.974	-15.87
205.193	64
205.411	57.86
205.63	68.09
205.849	-3.58
206.068	6.66
206.287	-22.02
206.505	0.51
206.724	-83.45
206.943	-9.73
207.162	31.23
207.381	10.75
207.599	59.9
207.818	23.04
208.037	43.52
208.255	-13.82
208.474	-34.3
208.693	-9.73
208.911	68.09
209.13	31.23
209.349	16.9
209.567	-13.82
209.786	2.56
210.005	-3.58
210.223	-13.82
210.442	-32.26
210.661	14.85
210.879	-28.16
211.098	20.99
211.316	10.75
211.535	59.9
211.753	49.66
211.972	-17.92
212.191	14.85
212.409	-9.73
212.628	2.56
212.846	57.86
213.065	8.7
213.283	6.66
213.502	31.23
213.72	39.42
213.938	72.19
214.157	4.61
214.375	23.04
214.594	29.18
214.812	29.18
215.031	35.33
215.249	-40.45
215.467	14.85
215.686	12.8
215.904	66.05
216.122	-17.92
216.341	96.77
216.559	-50.69
216.778	4.61
216.996	39.42
217.214	72.19
217.432	55.81
217.651	23.04
217.869	2.56
218.087	-15.87
218.306	8.7
218.524	76.29
218.742	-34.3
218.96	37.38
219.179	47.62
219.397	39.42
219.615	16.9
219.833	-17.92
220.051	-17.92
220.27	-75.26
220.488	47.62
220.706	27.14
220.924	35.33
221.142	33.28
221.36	76.29
221.578	-19.97
221.796	20.99
222.015	-26.11
222.233	14.85
222.451	8.7
222.669	-15.87
222.887	35.33
223.105	8.7
223.323	27.14
223.541	-34.3
223.759	86.53
223.977	20.99
224.195	2.56
224.413	102.91
224.631	-17.92
224.849	64
225.067	-15.87
225.285	-22.02
225.503	6.66
225.721	18.94
225.939	41.47
226.157	6.66
226.375	37.38
226.592	-7.68
226.81	-24.06
227.028	-26.11
227.246	43.52
227.464	-1.54
227.682	80.38
227.9	-5.63
228.117	43.52
228.335	-5.63
228.553	4.61
228.771	-1.54
228.989	47.62
229.206	47.62
229.424	10.75
229.642	14.85
229.86	59.9
230.077	68.09
230.295	0.51
230.513	-13.82
230.731	4.61
230.948	-1.54
231.166	12.8
231.384	-9.73
231.601	-7.68
231.819	33.28
232.037	-26.11
232.254	-9.73
232.472	-22.02
232.689	-69.12
232.907	-9.73
233.125	78.33
233.342	-1.54
233.56	-17.92
233.777	14.85
233.995	2.56
234.213	43.52
234.43	6.66
234.648	-9.73
234.865	37.38
235.083	-77.31
235.3	-1.54
235.518	12.8
235.735	-40.45
235.953	14.85
236.17	-30.21
236.388	53.76
236.605	-83.45
236.822	96.77
237.04	20.99
237.257	2.56
237.475	-30.21
237.692	-79.36
237.909	37.38
238.127	-22.02
238.344	18.94
238.562	-15.87
238.779	-50.69
238.996	20.99
239.214	-26.11
239.431	35.33
239.648	14.85
239.865	-11.78
240.083	23.04
240.3	14.85
240.517	51.71
240.735	-22.02
240.952	-24.06
241.169	10.75
241.386	-5.63
241.603	-13.82
241.821	10.75
242.038	6.66
242.255	74.24
242.472	47.62
242.689	51.71
242.907	6.66
243.124	59.9
243.341	4.61
243.558	33.28
243.775	-36.35
243.992	47.62
244.209	66.05
244.426	55.81
244.643	8.7
244.86	29.18
245.078	90.62
245.295	23.04
245.512	14.85
245.729	-15.87
245.946	-15.87
246.163	57.86
246.38	39.42
246.597	33.28
246.814	23.04
247.031	-9.73
247.248	27.14
247.464	-32.26
247.681	0.51
247.898	4.61
248.115	0.51
248.332	49.66
248.549	16.9
248.766	51.71
248.983	-46.59
249.2	47.62
249.417	14.85
249.633	31.23
249.85	37.38
250.067	-85.5
250.284	88.57
250.501	-40.45
250.717	47.62
250.934	66.05
251.151	2.56
251.368	-38.4
251.585	39.42
251.801	-46.59
252.018	33.28
252.235	0.51
252.451	16.9
252.668	35.33
252.885	47.62
253.102	-30.21
253.318	10.75
253.535	43.52
253.752	47.62
253.968	-11.78
254.185	0.51
254.401	55.81
254.618	33.28
254.835	12.8
255.051	0.51
255.268	-42.5
255.484	-1.54
255.701	-5.63
255.917	31.23
256.134	37.38
256.351	33.28
256.567	47.62
256.784	2.56
257	-28.16
257.217	29.18
257.433	4.61
257.65	68.09
257.866	-34.3
258.082	8.7
258.299	-42.5
258.515	18.94
258.732	45.57
258.948	-15.87
259.165	-5.63
259.381	66.05
259.597	113.15
259.814	18.94
260.03	-17.92
260.246	23.04
260.463	33.28
260.679	55.81
260.895	64
261.112	0.51
261.328	37.38
261.544	6.66
261.761	-48.64
261.977	-1.54
262.193	-38.4
262.409	59.9
262.626	-11.78
262.842	39.42
263.058	-34.3
263.274	27.14
263.49	23.04
263.707	0.51
263.923	-7.68
264.139	55.81
264.355	-34.3
264.571	43.52
264.787	-17.92
265.004	53.76
265.22	29.18
265.436	-7.68
265.652	49.66
265.868	59.9
266.084	8.7
266.3	4.61
266.516	-5.63
266.732	37.38
266.948	0.51
267.164	41.47
267.38	35.33
267.596	25.09
267.812	84.48
268.028	16.9
268.244	64
268.46	59.9
268.676	-7.68
268.892	35.33
269.108	16.9
269.324	70.14
269.54	6.66
269.756	-7.68
269.972	-42.5
270.188	31.23
270.403	-28.16
270.619	92.67
270.835	35.33
271.051	47.62
271.267	-9.73
271.483	31.23
271.698	-50.69
271.914	41.47
272.13	12.8
272.346	-7.68
272.562	12.8
272.777	2.56
272.993	43.52
273.209	-77.31
273.425	8.7
273.64	84.48
273.856	-40.45
274.072	49.66
274.287	16.9
274.503	-5.63
274.719	55.81
274.934	20.99
275.15	-1.54
275.366	10.75
275.581	-71.17
275.797	-24.06
276.012	41.47
276.228	-13.82
276.444	18.94
276.659	47.62
276.875	2.56
277.09	37.38
277.306	8.7
277.521	-56.83
277.737	-1.54
277.952	27.14
278.168	-9.73
278.383	6.66
278.599	-7.68
278.814	43.52
279.03	6.66
279.245	14.85
279.461	0.51
279.676	14.85
279.892	-93.69
280.107	-7.68
280.322	-15.87
280.538	70.14
280.753	49.66
280.969	45.57
281.184	25.09
281.399	25.09
281.615	-26.11
281.83	61.95
282.045	-26.11
282.26	16.9
282.476	39.42
282.691	23.04
282.906	31.23
283.122	-1.54
283.337	-91.65
283.552	43.52
283.767	8.7
283.983	-1.54
284.198	-26.11
284.413	-1.54
284.628	12.8
284.843	-1.54
285.058	39.42
285.274	68.09
285.489	-87.55
285.704	18.94
285.919	31.23
286.134	2.56
286.349	35.33
286.564	-26.11
286.779	78.33
286.995	25.09
287.21	-48.64
287.425	41.47
287.64	-9.73
287.855	-1.54
288.07	14.85
288.285	-5.63
288.5	-30.21
288.715	45.57
288.93	-71.17
289.145	-15.87
289.36	-17.92
289.575	23.04
289.79	10.75
290.004	10.75
290.219	18.94
290.434	10.75
290.649	-7.68
290.864	-28.16
291.079	66.05
291.294	68.09
291.509	-9.73
291.724	6.66
291.938	-7.68
292.153	8.7
292.368	0.51
292.583	-32.26
292.798	6.66
293.012	31.23
293.227	117.25
293.442	-34.3
293.657	33.28
293.871	-48.64
294.086	25.09
294.301	72.19
294.516	53.76
294.73	41.47
294.945	80.38
295.16	-5.63
295.374	6.66
295.589	33.28
295.804	31.23
296.018	41.47
296.233	2.56
296.447	37.38
296.662	47.62
296.877	41.47
297.091	-1.54
297.306	16.9
297.52	-7.68
297.735	43.52
297.949	-1.54
298.164	39.42
298.378	-42.5
298.593	6.66
298.807	-28.16
299.022	-22.02
299.236	-19.97
299.451	47.62
299.665	2.56
299.88	33.28
300.094	57.86
300.309	-22.02
300.523	-5.63
300.737	31.23
300.952	12.8
301.166	6.66
301.381	49.66
301.595	20.99
301.809	-9.73
302.024	-38.4
302.238	-11.78
302.452	47.62
302.667	14.85
302.881	55.81
303.095	20.99
303.309	49.66
303.524	2.56
303.738	-28.16
303.952	-3.58
304.166	4.61
304.381	41.47
304.595	14.85
304.809	-15.87
305.023	12.8
305.237	4.61
305.452	14.85
305.666	16.9
305.88	-30.21
306.094	-65.02
306.308	35.33
306.522	14.85
306.736	23.04
306.95	25.09
307.164	31.23
307.379	16.9
307.593	-19.97
307.807	45.57
308.021	-42.5
308.235	10.75
308.449	45.57
308.663	64
308.877	64
309.091	10.75
309.305	8.7
309.519	-13.82
309.733	20.99
309.947	20.99
310.161	25.09
310.374	47.62
310.588	-50.69
310.802	-9.73
311.016	-1.54
311.23	23.04
311.444	66.05
311.658	4.61
311.872	-28.16
312.085	14.85
312.299	-13.82
312.513	68.09
312.727	-34.3
312.941	-34.3
313.154	0.51
313.368	8.7
313.582	55.81
313.796	57.86
314.009	27.14
314.223	31.23
314.437	-48.64
314.651	-7.68
314.864	18.94
315.078	-44.54
315.292	70.14
315.505	12.8
315.719	-3.58
315.933	-42.5
316.146	4.61
316.36	-34.3
316.573	49.66
316.787	-5.63
317.001	98.81
317.214	18.94
317.428	49.66
317.641	14.85
317.855	57.86
318.068	10.75
318.282	92.67
318.495	-5.63
318.709	27.14
318.922	88.57
319.136	55.81
319.349	49.66
319.563	55.81
319.776	14.85
319.99	29.18
320.203	74.24
320.417	14.85
320.63	-22.02
320.843	141.82
321.057	49.66
321.27	88.57
321.483	45.57
321.697	66.05
321.91	39.42
322.124	55.81
322.337	-3.58
322.55	39.42
322.763	0.51
322.977	14.85
323.19	-48.64
323.403	45.57
323.617	16.9
323.83	2.56
324.043	12.8
324.256	0.51
324.469	-22.02
324.683	61.95
324.896	57.86
325.109	18.94
325.322	-42.5
325.535	-7.68
325.748	6.66
325.962	27.14
326.175	-32.26
326.388	84.48
326.601	96.77
326.814	57.86
327.027	-5.63
327.24	45.57
327.453	-30.21
327.666	-11.78
327.879	-1.54
328.092	55.81
328.305	88.57
328.518	18.94
328.731	27.14
328.944	31.23
329.157	41.47
329.37	47.62
329.583	18.94
329.796	2.56
330.009	-22.02
330.222	39.42
330.435	92.67
330.648	6.66
330.861	20.99
331.073	35.33
331.286	-3.58
331.499	88.57
331.712	10.75
331.925	-17.92
332.138	8.7
332.35	27.14
332.563	41.47
332.776	113.15
332.989	-7.68
333.202	55.81
333.414	-58.88
333.627	-44.54
333.84	25.09
334.053	68.09
334.265	80.38
334.478	-34.3
334.691	20.99
334.903	88.57
335.116	2.56
335.329	84.48
335.541	-50.69
335.754	33.28
335.966	-11.78
336.179	16.9
336.392	0.51
336.604	14.85
336.817	-19.97
337.029	35.33
337.242	4.61
337.454	88.57
337.667	16.9
337.88	43.52
338.092	49.66
338.305	25.09
338.517	78.33
338.729	43.52
338.942	51.71
339.154	94.72
339.367	-1.54
339.579	29.18
339.792	-46.59
340.004	23.04
340.217	16.9
340.429	14.85
340.641	0.51
340.854	70.14
341.066	-9.73
341.278	-28.16
341.491	78.33
341.703	-38.4
341.915	-38.4
342.128	88.57
342.34	10.75
342.552	33.28
342.764	-1.54
342.977	86.53
343.189	-24.06
343.401	-3.58
343.613	68.09
343.826	27.14
344.038	-5.63
344.25	59.9
344.462	43.52
344.674	-1.54
344.886	2.56
345.099	43.52
345.311	39.42
345.523	33.28
345.735	12.8
345.947	27.14
346.159	23.04
346.371	-7.68
346.583	-5.63
346.795	57.86
347.007	-5.63
347.219	31.23
347.431	-22.02
347.643	59.9
347.855	-5.63
348.067	33.28
348.279	104.96
348.491	33.28
348.703	-26.11
348.915	-28.16
349.127	51.71
349.339	14.85
349.551	8.7
349.763	72.19
349.975	80.38
350.187	35.33
350.399	66.05
350.61	68.09
350.822	0.51
351.034	70.14
351.246	49.66
351.458	84.48
351.669	18.94
351.881	-34.3
352.093	90.62
352.305	14.85
352.517	4.61
352.728	27.14
352.94	16.9
353.152	31.23
353.363	-48.64
353.575	14.85
353.787	80.38
353.999	-22.02
354.21	76.29
354.422	27.14
354.633	16.9
354.845	-1.54
355.057	18.94
355.268	25.09
355.48	-24.06
355.692	33.28
355.903	-30.21
356.115	16.9
356.326	-24.06
356.538	31.23
356.749	6.66
356.961	104.96
357.172	-5.63
357.384	88.57
357.595	18.94
357.807	88.57
358.018	-3.58
358.23	92.67
358.441	82.43
358.653	25.09
358.864	-60.93
359.075	27.14
359.287	16.9
359.498	0.51
359.709	70.14
359.921	-32.26
360.132	-34.3
360.344	41.47
360.555	-22.02
360.766	-15.87
360.977	6.66
361.189	66.05
361.4	-7.68
361.611	123.39
361.823	-7.68
362.034	-13.82
362.245	59.9
362.456	35.33
362.667	43.52
362.879	20.99
363.09	-9.73
363.301	29.18
363.512	72.19
363.723	20.99
363.935	-50.69
364.146	49.66
364.357	-5.63
364.568	20.99
364.779	78.33
364.99	6.66
365.201	-62.98
365.412	16.9
365.623	6.66
365.834	55.81
366.045	31.23
366.256	23.04
366.467	49.66
366.678	29.18
366.889	51.71
367.1	59.9
367.311	6.66
367.522	-1.54
367.733	64
367.944	57.86
368.155	14.85
368.366	57.86
368.577	51.71
368.788	66.05
368.999	23.04
369.209	72.19
369.42	18.94
369.631	14.85
369.842	-11.78
370.053	41.47
370.264	45.57
370.474	-22.02
370.685	59.9
370.896	55.81
371.107	2.56
371.317	31.23
371.528	14.85
371.739	14.85
371.95	-34.3
372.16	47.62
372.371	14.85
372.582	33.28
372.792	8.7
373.003	31.23
373.214	8.7
373.424	66.05
373.635	12.8
373.846	45.57
374.056	35.33
374.267	92.67
374.477	4.61
374.688	41.47
374.898	-7.68
375.109	61.95
375.319	16.9
375.53	51.71
375.74	55.81
375.951	18.94
376.161	35.33
376.372	88.57
376.582	33.28
376.793	-26.11
377.003	-13.82
377.214	53.76
377.424	29.18
377.635	8.7
377.845	-1.54
378.055	-5.63
378.266	4.61
378.476	82.43
378.686	51.71
378.897	74.24
379.107	66.05
379.317	-7.68
379.528	35.33
379.738	33.28
379.948	-26.11
380.158	64
380.369	8.7
380.579	-1.54
380.789	29.18
380.999	16.9
381.21	80.38
381.42	41.47
381.63	41.47
381.84	23.04
382.05	64
382.261	51.71
382.471	78.33
382.681	-19.97
382.891	88.57
383.101	162.3
383.311	88.57
383.521	-38.4
383.731	39.42
383.941	90.62
384.151	45.57
384.361	-110.08
384.571	98.81
384.781	39.42
384.991	72.19
385.201	55.81
385.411	8.7
385.621	59.9
385.831	-30.21
386.041	31.23
386.251	57.86
386.461	100.86
386.671	98.81
386.881	25.09
387.091	39.42
387.301	0.51
387.511	25.09
387.72	78.33
387.93	23.04
388.14	25.09
388.35	66.05
388.56	47.62
388.769	129.53
388.979	-9.73
389.189	82.43
389.399	84.48
389.609	12.8
389.818	123.39
390.028	23.04
390.238	31.23
390.447	-13.82
390.657	6.66
390.867	80.38
391.076	41.47
391.286	111.1
391.496	111.1
391.705	-38.4
391.915	59.9
392.125	31.23
392.334	129.53
392.544	41.47
392.753	68.09
392.963	-24.06
393.172	55.81
393.382	16.9
393.591	96.77
393.801	74.24
394.01	35.33
394.22	-5.63
394.429	47.62
394.639	6.66
394.848	76.29
395.058	45.57
395.267	53.76
395.477	39.42
395.686	78.33
395.895	-58.88
396.105	61.95
396.314	82.43
396.524	80.38
396.733	94.72
396.942	-1.54
397.152	94.72
397.361	74.24
397.57	23.04
397.78	94.72
397.989	-9.73
398.198	33.28
398.407	66.05
398.617	74.24
398.826	27.14
399.035	104.96
399.244	64
399.453	31.23
399.663	70.14
399.872	68.09
400.081	47.62
400.29	102.91
400.499	113.15
400.708	96.77
400.917	150.01
401.127	41.47
401.336	10.75
401.545	98.81
401.754	121.34
401.963	16.9
402.172	115.2
402.381	92.67
402.59	80.38
402.799	82.43
403.008	16.9
403.217	131.58
403.426	76.29
403.635	45.57
403.844	145.92
404.053	27.14
404.262	80.38
404.471	143.87
404.68	117.25
404.888	154.11
405.097	80.38
405.306	94.72
405.515	70.14
405.724	115.2
405.933	74.24
406.142	109.05
406.35	55.81
406.559	162.3
406.768	178.69
406.977	193.02
407.185	117.25
407.394	137.73
407.603	121.34
407.812	129.53
408.02	150.01
408.229	113.15
408.438	139.77
408.646	133.63
408.855	199.16
409.064	199.16
409.272	190.97
409.481	195.07
409.69	186.88
409.898	219.64
410.107	229.88
410.315	252.41
410.524	201.21
410.733	197.12
410.941	211.45
411.15	252.41
411.358	270.84
411.567	342.52
411.775	301.56
411.984	266.75
412.192	291.32
412.401	283.13
412.609	342.52
412.818	377.34
413.026	330.23
413.234	350.71
413.443	373.24
413.651	399.87
413.86	440.83
414.068	434.68
414.276	389.63
414.485	424.44
414.693	436.73
414.901	434.68
415.11	539.13
415.318	512.5
415.526	489.98
415.734	532.98
415.943	563.7
416.151	623.09
416.359	621.05
416.567	530.94
416.776	731.64
416.984	748.02
417.192	741.88
417.4	727.54
417.608	727.54
417.817	719.35
418.025	727.54
418.233	866.8
418.441	813.56
418.649	866.8
418.857	969.2
419.065	918
419.273	836.08
419.481	918
419.689	1124.85
419.897	1106.42
420.105	1096.18
420.313	1071.6
420.521	1149.42
420.729	1133.04
420.937	1128.94
421.145	1300.97
421.353	1337.84
421.561	1429.99
421.769	1460.71
421.977	1530.34
422.185	1429.99
422.393	1452.52
422.601	1690.09
422.809	1636.84
423.017	1702.37
423.224	1692.13
423.432	1735.14
423.64	1792.48
423.848	1999.33
424.056	1888.74
424.263	2048.48
424.471	1987.04
424.679	2114.02
424.887	2218.46
425.094	2218.46
425.302	2128.35
425.51	2365.92
425.718	2494.94
425.925	2386.4
426.133	2505.18
426.341	2681.3
426.548	2857.43
426.756	2752.98
426.964	2795.99
427.171	3017.17
427.379	3000.79
427.586	3140.05
427.794	3183.06
428.001	3314.13
428.209	3553.74
428.417	3432.91
428.624	3580.36
428.832	3623.37
429.039	3801.54
429.247	3768.77
429.454	4098.5
429.662	4102.59
429.869	3963.33
430.076	4233.66
430.284	4155.84
430.491	4307.39
430.699	4549.05
430.906	4614.59
431.114	4458.94
431.321	4686.26
431.528	4999.6
431.736	5224.88
431.943	5519.79
432.15	5292.46
432.358	5480.88
432.565	5720.49
432.772	5700.01
432.979	5986.72
433.187	6111.65
433.394	5947.81
433.601	6420.89
433.808	6592.92
434.016	6371.74
434.223	6865.3
434.43	7027.09
434.637	6932.89
434.844	7532.94
435.052	7567.76
435.259	7520.65
435.466	7588.24
435.673	7412.11
435.88	8157.57
436.087	8257.92
436.294	8606.08
436.501	8270.21
436.708	8518.01
436.915	8745.34
437.122	9163.12
437.329	9064.82
437.537	9353.59
437.743	9478.51
437.95	9386.35
438.157	9904.49
438.364	10322.27
438.571	10127.72
438.778	10357.09
438.985	11342.16
439.192	10735.96
439.399	11069.78
439.606	10676.57
439.813	11540.82
440.02	12257.6
440.227	11882.83
440.433	11917.64
440.64	12343.62
440.847	11907.4
441.054	12704.06
441.261	13199.67
441.467	13095.22
441.674	13572.4
441.881	13769.01
442.088	13951.28
442.294	13599.02
442.501	14037.29
442.708	14416.16
442.914	14954.78
443.121	15624.47
443.328	14995.74
443.534	16324.87
443.741	15902.99
443.948	15468.82
444.154	16574.72
444.361	16703.75
444.568	16580.87
444.774	16646.4
444.981	17037.56
445.187	17223.93
445.394	18225.39
445.6	17856.75
445.807	19577.05
446.013	18825.44
446.22	18985.18
446.426	19835.09
446.633	19912.91
446.839	20447.43
447.046	19775.7
447.252	20680.9
447.459	20854.98
447.665	20844.74
447.871	21735.6
448.078	22429.87
448.284	21627.06
448.491	22124.72
448.697	22933.67
448.903	23046.3
449.11	23543.96
449.316	22894.75
449.522	23439.51
449.728	24217.74
449.935	24060.05
450.141	24172.69
450.347	25057.41
450.553	24094.86
450.76	24250.51
450.966	24909.96
451.172	24727.69
451.378	25462.91
451.584	24854.66
451.791	25534.59
451.997	25294.97
452.203	26011.76
452.409	26185.84
452.615	25532.54
452.821	24696.97
453.027	24477.83
453.233	25755.77
453.44	24553.61
453.646	24899.72
453.852	25063.55
454.058	25571.45
454.264	24686.73
454.47	25368.7
454.676	24637.58
454.882	25387.13
455.088	23206.05
455.294	23912.6
455.5	23808.15
455.705	23918.74
455.911	23109.79
456.117	22540.46
456.323	22503.59
456.529	21348.54
456.735	21983.41
456.941	21661.88
457.147	21258.43
457.352	20666.56
457.558	20527.3
457.764	20543.69
457.97	19900.62
458.176	19544.28
458.381	19433.69
458.587	18761.95
458.793	18872.54
458.999	17645.81
459.204	19075.29
459.41	18434.28
459.616	17424.63
459.821	17381.62
460.027	17268.98
460.233	16627.97
460.438	15937.8
460.644	16023.82
460.85	15712.53
461.055	15171.86
461.261	15208.73
461.466	14086.44
461.672	13680.94
461.878	14596.39
462.083	13449.52
462.289	13291.83
462.494	13340.98
462.7	12728.64
462.905	12280.13
463.111	12769.6
463.316	13080.89
463.522	12718.4
463.727	12712.25
463.932	12468.55
464.138	12568.9
464.343	12554.56
464.549	12140.87
464.754	12667.2
464.959	12630.34
465.165	12360
465.37	11753.8
465.575	11460.95
465.781	12204.36
465.986	12190.02
466.191	11665.74
466.397	11422.03
466.602	10871.13
466.807	11362.64
467.012	11340.11
467.218	11385.17
467.423	11000.15
467.628	11202.9
467.833	11645.26
468.038	11012.44
468.244	11028.82
468.449	11139.41
468.654	10932.57
468.859	10774.88
469.064	10930.52
469.269	10508.64
469.474	10459.49
469.679	10699.1
469.885	10228.07
470.09	10768.73
470.295	10326.37
470.5	10209.64
470.705	10172.77
470.91	9920.87
471.115	9931.11
471.32	9970.02
471.525	9951.59
471.73	9851.24
471.935	9705.84
472.139	9245.04
472.344	9468.27
472.549	9458.03
472.754	9464.18
472.959	9365.87
473.164	8900.98
473.369	8608.12
473.574	9023.86
473.778	8905.08
473.983	8956.28
474.188	9079.16
474.393	8634.75
474.598	8644.99
474.802	8526.21
475.007	8444.29
475.212	8311.17
475.417	8225.15
475.621	8159.62
475.826	8208.77
476.031	8094.08
476.235	7954.82
476.44	8157.57
476.645	7911.82
476.849	7846.28
477.054	7854.47
477.259	7696.78
477.463	7784.84
477.668	7483.79
477.872	7387.54
478.077	7362.96
478.282	7389.58
478.486	7006.61
478.691	7125.4
478.895	7233.94
479.1	7098.77
479.304	7162.26
479.509	7115.16
479.713	7047.57
479.918	6767
480.122	6830.49
480.326	6842.78
480.531	6990.23
480.735	6818.2
480.94	6777.24
481.144	6918.55
481.348	6631.83
481.553	6781.34
481.757	6564.25
481.961	6465.95
482.166	6767
482.37	6810.01
482.574	6637.98
482.778	6556.06
482.983	6656.41
483.187	6570.4
483.391	6551.96
483.595	6615.45
483.8	6511
484.004	6623.64
484.208	6519.2
484.412	6672.79
484.616	6609.31
484.821	6541.72
485.025	6574.49
485.229	6660.51
485.433	6689.18
485.637	6676.89
485.841	6492.57
486.045	6445.47
486.249	6594.97
486.453	6572.44
486.657	6627.74
486.861	6691.23
487.065	6572.44
487.269	6523.29
487.473	6431.13
487.677	6541.72
487.881	6756.76
488.085	6558.11
488.289	6711.71
488.493	6474.14
488.697	6627.74
488.901	6582.68
489.105	6623.64
489.309	6613.4
489.512	6709.66
489.716	6531.48
489.92	6674.84
490.124	6689.18
490.328	6750.62
490.531	6728.09
490.735	6775.19
490.939	6949.27
491.143	6754.71
491.346	6855.06
491.55	7080.34
491.754	7033.24
491.958	7027.09
492.161	7053.72
492.365	7018.9
492.569	7088.53
492.772	7184.79
492.976	7143.83
493.18	7219.6
493.383	7115.16
493.587	7125.4
493.79	7254.42
493.994	7313.81
494.197	7324.05
494.401	7444.88
494.605	7319.95
494.808	7430.54
495.012	7586.19
495.215	7537.04
495.419	7567.76
495.622	7563.66
495.825	7829.9
496.029	7743.88
496.232	7854.47
496.436	7981.45
496.639	8194.43
496.843	8085.89
497.046	8268.16
497.249	8292.74
497.453	8386.94
497.656	8638.84
497.859	8460.67
498.063	8432
498.266	8812.92
498.469	8855.93
498.673	8849.78
498.876	8980.85
499.079	9003.38
499.282	8989.05
499.485	9199.99
499.689	9199.99
499.892	9496.94
500.095	9513.33
500.298	9666.92
500.501	9625.97
500.705	9906.54
500.908	9902.44
501.111	10019.18
501.314	10043.75
501.517	10144.1
501.72	10467.68
501.923	10482.02
502.126	10684.76
502.329	10867.03
502.532	10901.85
502.735	11067.74
502.938	10905.95
503.141	11305.3
503.344	11313.49
503.547	11286.87
503.75	11551.06
503.953	11712.85
504.156	11682.13
504.359	11987.27
504.562	11981.13
504.765	12474.69
504.968	12480.83
505.17	12575.04
505.373	12677.44
505.576	13203.77
505.779	13117.75
505.982	13154.62
506.185	13166.9
506.387	13599.02
506.59	13672.75
506.793	13902.12
506.996	13705.52
507.198	14305.57
507.401	14108.97
507.604	14354.72
507.807	14668.06
508.009	14838.05
508.212	14811.42
508.415	15087.9
508.617	15169.82
508.82	15198.49
509.022	15276.31
509.225	15706.38
509.428	15837.45
509.63	15915.28
509.833	16345.35
510.035	16632.07
510.238	16593.15
510.44	16625.92
510.643	16959.74
510.845	17109.24
511.048	17115.39
511.25	17307.9
511.453	17705.2
511.655	18059.5
511.858	18323.69
512.06	18002.16
512.262	18634.98
512.465	18434.28
512.667	18594.02
512.87	18913.5
513.072	18983.13
513.274	19730.64
513.477	19720.4
513.679	20064.46
513.881	20062.41
514.084	20367.56
514.286	20285.64
514.488	20259.02
514.69	21137.6
514.893	21086.4
515.095	21280.96
515.297	21412.03
515.499	21774.52
515.701	21616.82
515.904	22139.05
516.106	22110.38
516.308	22616.23
516.51	22671.53
516.712	22923.43
516.914	23273.63
517.116	23623.83
517.318	23586.97
517.52	23861.4
517.722	23744.66
517.925	24303.76
518.127	24533.13
518.329	24727.69
518.531	24795.27
518.733	25403.52
518.935	25737.34
519.136	25591.93
519.338	26116.21
519.54	26189.94
519.742	26294.38
519.944	26452.08
520.146	26921.06
520.348	27011.17
520.55	27066.47
520.752	27388
520.954	27678.81
521.155	27742.3
521.357	28198.99
521.559	28465.23
521.761	28813.38
521.963	29055.04
522.164	29034.56
522.366	29339.71
522.568	29319.23
522.77	29573.18
522.971	29958.2
523.173	30115.89
523.375	30302.26
523.576	30306.35
523.778	30548.01
523.98	30722.09
524.181	30937.13
524.383	31043.62
524.584	31434.78
524.786	31234.08
524.988	31318.05
525.189	32131.09
525.391	32266.26
525.592	32073.75
525.794	32233.49
525.995	32636.94
526.197	32575.5
526.398	32892.94
526.6	32970.76
526.801	32989.19
527.003	33112.07
527.204	33142.79
527.406	33574.91
527.607	33650.69
527.808	33798.14
528.01	33245.19
528.211	33347.59
528.412	34412.53
528.614	34136.06
528.815	34181.11
529.016	34541.55
529.218	34240.5
529.419	34422.77
529.62	34504.69
529.822	34392.05
530.023	34678.77
530.224	34924.52
530.425	34463.73
530.626	34248.69
530.828	34760.69
531.029	35076.07
531.23	34523.12
531.431	35176.42
531.632	35305.45
531.833	35237.86
532.035	34893.8
532.236	35078.12
532.437	35436.52
532.638	35184.62
532.839	35145.7
533.04	35641.31
533.241	35182.57
533.442	36046.81
533.643	35497.95
533.844	35506.15
534.045	35870.68
534.246	35397.6
534.447	35940.32
534.648	35651.55
534.849	35934.17
535.05	35297.25
535.251	35559.39
535.451	35631.07
535.652	36161.5
535.853	35766.24
536.054	36100.06
536.255	35944.41
536.456	35459.04
536.657	35991.51
536.857	36132.82
537.058	35807.2
537.259	36169.69
537.46	35725.28
537.66	36050.91
537.861	35878.88
538.062	36028.38
538.263	35981.27
538.463	35690.46
538.664	36159.45
538.865	35665.89
539.065	35844.06
539.266	35098.6
539.466	36122.58
539.667	35649.5
539.868	36337.62
540.068	35960.8
540.269	35932.12
540.469	36149.21
540.67	35833.82
540.87	35631.07
541.071	35610.59
541.271	36022.23
541.472	35796.96
541.672	35594.21
541.873	35799.01
542.073	35330.02
542.274	35766.24
542.474	35692.51
542.675	35418.08
542.875	36259.8
543.075	35973.08
543.276	35461.09
543.476	35794.91
543.676	35434.47
543.877	36059.1
544.077	35686.37
544.277	35618.78
544.478	35692.51
544.678	35739.61
544.878	36069.34
545.078	35839.97
545.279	35540.96
545.479	35497.95
545.679	35624.93
545.879	35635.17
546.079	35885.02
546.28	35657.7
546.48	35805.15
546.68	36059.1
546.88	36009.95
547.08	35645.41
547.28	35938.27
547.48	35702.75
547.68	35895.26
547.88	35710.94
548.081	35954.65
548.281	35733.47
548.481	35651.55
548.681	35823.58
548.881	35536.87
549.081	35653.6
549.28	35805.15
549.48	35772.38
549.68	35782.62
549.88	35842.01
550.08	35403.75
550.28	35641.31
550.48	35491.81
550.68	35907.55
550.88	35352.55
551.08	35577.83
551.279	35702.75
551.479	35305.45
551.679	35842.01
551.879	35622.88
552.079	35643.36
552.278	35534.82
552.478	35588.06
552.678	35403.75
552.878	35915.74
553.077	35581.92
553.277	35520.48
553.477	36036.57
553.676	35557.35
553.876	35395.56
554.076	35434.47
554.275	35430.37
554.475	35037.16
554.674	35442.66
554.874	35471.33
555.074	35196.9
555.273	35121.13
555.473	35487.71
555.672	35305.45
555.872	35188.71
556.071	35459.04
556.271	35508.19
556.47	35002.35
556.67	34721.77
556.869	34629.62
557.068	34895.85
557.268	35344.36
557.467	35067.88
557.667	34887.66
557.866	35094.5
558.065	35063.78
558.265	34580.46
558.464	34508.79
558.663	35176.42
558.863	34523.12
559.062	34985.96
559.261	34498.55
559.461	35033.07
559.66	34443.25
559.859	34301.94
560.058	34109.43
560.258	34725.87
560.457	34353.14
560.656	34285.56
560.855	34234.36
561.054	34220.02
561.253	34002.94
561.453	34148.34
561.652	34099.19
561.851	34174.97
562.05	33703.93
562.249	33550.34
562.448	33875.96
562.647	34066.42
562.846	33763.32
563.045	33808.38
563.244	33812.48
563.443	33916.92
563.642	33335.3
563.841	33734.65
564.04	33529.86
564.239	33601.54
564.438	33396.74
564.637	33314.82
564.836	33546.24
565.035	32964.62
565.234	33601.54
565.432	33241.09
565.631	33087.5
565.83	33175.56
566.029	32788.49
566.228	33124.36
566.427	32710.67
566.625	32868.36
566.824	32342.03
567.023	32778.25
567.222	32159.77
567.42	32786.44
567.619	32401.43
567.818	32251.92
568.016	32495.63
568.215	32768.01
568.414	32274.45
568.612	32485.39
568.811	32161.81
569.01	32167.96
569.208	31791.13
569.407	32098.33
569.605	31844.38
569.804	32081.94
570.002	31836.19
570.201	31846.43
570.4	31350.82
570.598	31283.23
570.797	31535.13
570.995	31356.96
571.193	30640.17
571.392	31500.32
571.59	30994.47
571.789	31002.66
571.987	30816.3
572.186	30791.72
572.384	30777.39
572.582	30965.8
572.781	30761
572.979	30285.87
573.177	30502.96
573.376	30771.24
573.574	30025.78
573.772	30203.96
573.971	29902.9
574.169	30124.08
574.367	30083.12
574.565	30173.24
574.763	29878.33
574.962	29689.91
575.16	29691.96
575.358	30181.43
575.556	29204.55
575.754	29646.91
575.952	29468.73
576.151	29481.02
576.349	28948.55
576.547	28977.22
576.745	29528.13
576.943	29577.28
577.141	28905.54
577.339	28792.9
577.537	28663.88
577.735	28735.56
577.933	28506.19
578.131	29040.71
578.329	28612.68
578.527	28418.13
578.725	28203.09
578.923	28649.55
579.121	28112.98
579.319	28039.25
579.516	28119.12
579.714	28004.44
579.912	27861.08
580.11	27969.62
580.308	27803.74
580.506	27568.22
580.704	27244.64
580.901	27529.31
581.099	27607.13
581.297	27129.95
581.495	27258.98
581.692	27308.13
581.89	27039.84
582.088	27455.58
582.285	27091.04
582.483	27035.75
582.681	27175.01
582.878	26921.06
583.076	26656.87
583.274	26859.62
583.471	26202.22
583.669	26347.63
583.866	26191.98
584.064	26732.65
584.262	26310.77
584.459	26585.19
584.657	26239.09
584.854	26529.9
585.052	25600.12
585.249	25933.94
585.447	25942.13
585.644	25770.1
585.841	25774.2
586.039	25639.03
586.236	25139.33
586.434	25667.7
586.631	25520.25
586.828	25536.63
587.026	25376.89
587.223	25454.72
587.42	24979.59
587.618	25264.25
587.815	25104.51
588.012	24940.68
588.21	24930.44
588.407	24887.43
588.604	24957.06
588.801	24352.91
588.999	24549.51
589.196	24305.81
589.393	24864.9
589.59	24592.52
589.787	24371.34
589.984	24176.78
590.182	23855.25
590.379	24238.22
590.576	24197.26
590.773	23984.27
590.97	24115.34
591.167	23849.11
591.364	23662.74
591.561	24135.82
591.758	23453.85
591.955	23574.68
592.152	23724.18
592.349	23654.55
592.546	23359.64
592.743	23503
592.94	23322.78
593.137	23191.71
593.334	23167.13
593.531	22907.04
593.727	22925.47
593.924	23060.64
594.121	22681.77
594.318	22898.85
594.515	22718.63
594.712	23285.92
594.908	22927.52
595.105	22638.76
595.302	22171.82
595.499	22599.85
595.696	22343.85
595.892	22292.65
596.089	22290.6
596.286	22530.22
596.482	21936.31
596.679	22073.52
596.876	22261.93
597.072	21803.19
597.269	22059.18
597.466	21878.96
597.662	21659.83
597.859	21940.4
598.055	21659.83
598.252	21543.1
598.448	21409.98
598.645	21561.53
598.841	21596.34
599.038	21461.18
599.234	21129.41
599.431	21180.6
599.627	21016.77
599.824	21221.56
600.02	21059.77
600.217	21379.26
600.413	21094.59
600.609	20781.25
600.806	20814.02
601.002	21016.77
601.198	20330.7
601.395	20461.77
601.591	20506.82
601.787	20476.1
601.984	20469.96
602.18	20592.84
602.376	20302.03
602.572	20033.74
602.769	19769.55
602.965	19923.15
603.161	20097.23
603.357	19785.94
603.553	19880.14
603.75	20082.89
603.946	19874
604.142	19955.92
604.338	19615.96
604.534	19681.49
604.73	19314.91
604.926	19409.11
605.122	19384.54
605.318	19224.79
605.514	19103.96
605.71	19175.64
605.906	19364.06
606.102	19120.35
606.298	19054.81
606.494	18815.2
606.69	18995.42
606.886	19060.96
607.082	18866.4
607.278	19052.77
607.474	18458.85
607.67	18764
607.866	18583.78
608.062	18673.89
608.257	18798.82
608.453	18655.46
608.649	18538.73
608.845	18395.37
609.041	18233.58
609.236	18362.6
609.432	18477.29
609.628	18163.95
609.824	18067.69
610.019	18094.32
610.215	17963.25
610.411	18008.3
610.606	17920.24
610.802	17871.09
610.998	17785.07
611.193	17996.01
611.389	17819.89
611.584	17783.02
611.78	17385.72
611.976	17676.53
612.171	17707.25
612.367	17635.57
612.562	17381.62
612.758	17422.58
612.953	17404.15
613.149	17606.9
613.344	17119.48
613.539	17524.98
613.735	17246.46
613.93	17424.63
614.126	17199.35
614.321	17311.99
614.517	17275.13
614.712	17053.95
614.907	16967.93
615.103	17144.06
615.298	17002.75
615.493	16904.45
615.688	16675.07
615.884	16859.39
616.079	16777.47
616.274	16726.27
616.47	16759.04
616.665	16783.62
616.86	16783.62
617.055	16607.49
617.25	16734.46
617.445	16636.16
617.641	16343.3
617.836	16578.82
618.031	16228.62
618.226	16578.82
618.421	16378.12
618.616	16539.91
618.811	16292.1
619.006	16091.4
619.201	15921.42
619.396	16046.35
619.591	15700.24
619.786	15878.41
619.981	15706.38
620.176	15735.06
620.371	15540.5
620.566	15616.27
620.761	15483.16
620.956	15646.99
621.151	15294.74
621.346	15528.21
621.541	15040.79
621.735	15063.32
621.93	15091.99
622.125	14983.45
622.32	14815.52
622.515	15145.24
622.709	14680.35
622.904	14745.89
623.099	14639.39
623.294	14735.65
623.488	14393.64
623.683	14555.43
623.878	14156.07
624.072	14270.76
624.267	13990.19
624.462	14176.55
624.656	14076.2
624.851	13895.98
625.046	13873.45
625.24	13785.39
625.435	13545.78
625.629	13799.73
625.824	13367.6
626.018	13451.57
626.213	13074.74
626.407	13402.42
626.602	13314.36
626.796	13498.67
626.991	13068.6
627.185	13035.83
627.38	13015.35
627.574	12923.19
627.768	12884.28
627.963	12710.21
628.157	12599.62
628.352	12697.92
628.546	12552.51
628.74	12503.36
628.935	12378.44
629.129	12564.8
629.323	12278.08
629.517	12376.39
629.712	12190.02
629.906	12241.22
630.1	11872.59
630.294	12163.4
630.489	11983.18
630.683	11952.46
630.877	11712.85
631.071	11934.03
631.265	11596.11
631.459	11561.3
631.653	11610.45
631.848	11376.98
632.042	11295.06
632.236	11581.78
632.43	11299.16
632.624	11516.24
632.818	11276.63
633.012	11120.98
633.206	11129.17
633.4	11002.2
633.594	11016.54
633.788	11077.97
633.982	10951
634.176	10844.51
634.369	10781.02
634.563	10869.08
634.757	10604.89
634.951	10690.91
635.145	10641.76
635.339	10541.41
635.533	10508.64
635.726	10576.22
635.92	10537.31
636.114	10549.6
636.308	10393.95
636.501	10461.54
636.695	10279.27
636.889	10031.46
637.083	10092.9
637.276	10195.3
637.47	9970.02
637.664	10074.47
637.857	9884.01
638.051	9933.16
638.244	9822.57
638.438	9585.01
638.632	9630.06
638.825	9599.34
639.019	9752.94
639.212	9433.46
639.406	9363.83
639.599	9431.41
639.793	9372.02
639.986	9275.76
640.18	9410.93
640.373	9183.6
640.567	9185.65
640.76	9148.79
640.954	9050.49
641.147	8927.61
641.34	9009.53
641.534	8845.69
641.727	8780.15
641.92	8855.93
642.114	8759.67
642.307	8630.65
642.5	8745.34
642.694	8343.94
642.887	8438.14
643.08	8649.08
643.273	8407.42
643.467	8571.26
643.66	8325.5
643.853	8366.46
644.046	8163.72
644.239	8309.12
644.432	8188.29
644.626	7983.49
644.819	8098.18
645.012	8200.58
645.205	8124.8
645.398	7920.01
645.591	7985.54
645.784	7862.66
645.977	7764.36
646.17	7784.84
646.363	7807.37
646.556	7747.98
646.749	7750.03
646.942	7569.8
647.135	7567.76
647.328	7506.32
647.521	7485.84
647.714	7360.91
647.907	7448.97
648.099	7272.85
648.292	7266.71
648.485	7217.55
648.678	7319.95
648.871	7201.17
649.064	6977.94
649.256	7149.97
649.449	6883.73
649.642	7002.52
649.835	6920.6
650.027	6924.69
650.22	7002.52
650.413	6820.25
650.605	6861.21
650.798	6803.86
650.991	6599.07
651.183	6762.9
651.376	6633.88
651.568	6592.92
651.761	6511
651.954	6640.03
652.146	6670.75
652.339	6523.29
652.531	6445.47
652.724	6506.91
652.916	6255.01
653.109	6406.56
653.301	6375.84
653.494	6341.02
653.686	6222.24
653.879	6255.01
654.071	6181.28
654.263	6191.52
654.456	6019.49
654.648	6076.84
654.84	5876.13
655.033	5964.2
655.225	5982.63
655.417	5986.72
655.61	5925.29
655.802	5704.1
655.994	5650.86
656.186	5904.81
656.379	5536.17
656.571	5618.09
656.763	5767.59
656.955	5546.41
657.148	5599.66
657.34	5491.12
657.532	5560.75
657.724	5573.03
657.916	5566.89
658.108	5435.82
658.3	5538.22
658.492	5310.89
658.684	5407.15
658.876	5319.09
659.068	5175.73
659.26	5194.16
659.452	5325.23
659.644	5208.5
659.836	5200.3
660.028	5159.35
660.22	5015.99
660.412	5181.87
660.604	4966.84
660.796	5085.62
660.988	5036.47
661.18	4872.63
661.372	4899.25
661.563	4944.31
661.755	5005.75
661.947	4880.82
662.139	4962.74
662.331	4741.56
662.522	4698.55
662.714	4774.33
662.906	4688.31
663.097	4647.35
663.289	4708.79
663.481	4633.02
663.673	4633.02
663.864	4559.29
664.056	4489.66
664.247	4569.53
664.439	4706.74
664.631	4456.89
664.822	4454.84
665.014	4325.82
665.205	4436.41
665.397	4520.38
665.588	4266.43
665.78	4442.56
665.971	4348.35
666.163	4360.64
666.354	4186.56
666.546	4329.92
666.737	4264.38
666.929	4139.46
667.12	4135.36
667.311	4182.46
667.503	4129.22
667.694	4131.26
667.885	3975.62
668.077	4035.01
668.268	4057.54
668.459	3977.67
668.651	4047.3
668.842	4057.54
669.033	3971.52
669.224	3918.28
669.416	3910.08
669.607	3860.93
669.798	3938.76
669.989	3817.93
670.18	3832.26
670.371	3727.82
670.563	3717.58
670.754	3836.36
670.945	3783.11
671.136	3797.45
671.327	3699.14
671.518	3736.01
671.709	3664.33
671.9	3750.34
672.091	3807.69
672.282	3690.95
672.473	3819.97
672.664	3752.39
672.855	3553.74
673.046	3539.4
673.237	3668.42
673.428	3588.55
673.619	3506.63
673.809	3486.15
674	3611.08
674.191	3541.45
674.382	3559.88
674.573	3504.59
674.764	3537.35
674.954	3494.35
675.145	3328.46
675.336	3424.72
675.527	3475.91
675.717	3355.08
675.908	3332.56
676.099	3568.07
676.289	3394
676.48	3305.93
676.671	3391.95
676.861	3371.47
677.052	3279.31
677.243	3230.16
677.433	3316.17
677.624	3277.26
677.814	3150.29
678.005	3178.96
678.195	3160.53
678.386	3152.34
678.576	3111.38
678.767	3176.91
678.957	3221.97
679.148	3039.7
679.338	3201.49
679.529	3307.98
679.719	3254.73
679.909	3178.96
680.1	3303.89
680.29	3135.95
680.481	3176.91
680.671	3142.1
680.861	3156.43
681.052	3039.7
681.242	3013.07
681.432	3201.49
681.622	2984.4
681.813	3025.36
682.003	3146.19
682.193	3029.46
682.383	3111.38
682.573	3164.62
682.764	2886.1
682.954	2920.92
683.144	3037.65
683.334	3054.03
683.524	2914.77
683.714	3033.55
683.904	2904.53
684.094	2927.06
684.284	2859.48
684.474	3056.08
684.664	3015.12
684.854	2900.44
685.044	2906.58
685.234	2912.72
685.424	2910.68
685.614	2884.05
685.804	2925.01
685.994	2916.82
686.184	2849.24
686.374	2916.82
686.564	2836.95
686.753	2963.92
686.943	2804.18
687.133	2795.99
687.323	2806.23
687.513	2701.78
687.702	2779.61
687.892	2832.85
688.082	2798.04
688.272	2814.42
688.461	2679.26
688.651	2714.07
688.841	2728.41
689.03	2832.85
689.22	2683.35
689.41	2867.67
689.599	2857.43
689.789	2607.58
689.979	2736.6
690.168	2759.13
690.358	2669.02
690.547	2617.82
690.737	2628.06
690.926	2654.68
691.116	2648.54
691.305	2802.13
691.495	2699.73
691.684	2687.45
691.874	2566.62
692.063	2660.82
692.252	2712.02
692.442	2601.43
692.631	2591.19
692.82	2703.83
693.01	2646.49
693.199	2648.54
693.388	2556.38
693.578	2632.15
693.767	2537.95
693.956	2646.49
694.146	2709.97
694.335	2558.42
694.524	2542.04
694.713	2683.35
694.902	2722.26
695.092	2595.29
695.281	2556.38
695.47	2628.06
695.659	2583
695.848	2554.33
696.037	2507.23
696.226	2552.28
696.415	2595.29
696.604	2664.92
696.793	2593.24
696.982	2531.8
697.171	2490.84
697.36	2548.19
697.549	2583
697.738	2480.6
697.927	2441.69
698.116	2517.47
698.305	2513.37
698.494	2515.42
698.683	2542.04
698.872	2677.21
699.061	2542.04
699.25	2546.14
699.438	2595.29
699.627	2521.56
699.816	2589.14
700.005	2505.18
700.193	2533.85
700.382	2562.52
700.571	2472.41
700.76	2482.65
700.948	2519.51
701.137	2402.78
701.326	2566.62
701.514	2359.77
701.703	2494.94
701.892	2480.6
702.08	2515.42
702.269	2384.35
702.457	2415.07
702.646	2353.63
702.834	2488.79
703.023	2374.11
703.212	2482.65
703.4	2451.93
703.589	2427.35
703.777	2372.06
703.965	2353.63
704.154	2365.92
704.342	2423.26
704.531	2370.01
704.719	2349.53
704.907	2396.64
705.096	2343.39
705.284	2410.97
705.472	2367.96
705.661	2265.57
705.849	2337.24
706.037	2298.33
706.226	2353.63
706.414	2322.91
706.602	2357.72
706.79	2351.58
706.979	2357.72
707.167	2243.04
707.355	2300.38
707.543	2210.27
707.731	2288.09
707.919	2376.16
708.107	2316.76
708.296	2161.12
708.484	2154.98
708.672	2120.16
708.86	2189.79
709.048	2216.41
709.236	2167.26
709.424	2267.61
709.612	2255.33
709.8	2220.51
709.988	2185.69
710.176	2187.74
710.364	2200.03
710.551	2175.45
710.739	2091.49
710.927	2171.36
711.115	2111.97
711.303	2130.4
711.491	2030.05
711.679	2202.08
711.866	2140.64
712.054	2167.26
712.242	2073.06
712.43	2128.35
712.617	2105.82
712.805	2025.95
712.993	2075.1
713.181	1901.03
713.368	2064.86
713.556	2109.92
713.744	1956.32
713.931	2128.35
714.119	2015.71
714.306	1989.09
714.494	2019.81
714.682	1991.14
714.869	1917.41
715.057	1935.84
715.244	1878.5
715.432	1958.37
715.619	1944.03
715.807	1860.07
715.994	1956.32
716.182	1937.89
716.369	1898.98
716.556	1817.06
716.744	1769.96
716.931	1862.12
717.119	1903.07
717.306	1757.67
717.493	1833.44
717.681	1845.73
717.868	1812.96
718.055	1913.31
718.242	1819.11
718.43	1872.36
718.617	1819.11
718.804	1765.86
718.991	1878.5
719.179	1812.96
719.366	1839.59
719.553	1792.48
719.74	1726.95
719.927	1841.64
720.114	1749.48
720.301	1757.67
720.488	1700.33
720.676	1679.85
720.863	1802.72
721.05	1815.01
721.237	1761.77
721.424	1786.34
721.611	1688.04
721.798	1741.29
721.985	1726.95
722.172	1612.26
722.358	1710.57
722.545	1642.98
722.732	1749.48
722.919	1602.02
723.106	1679.85
723.293	1516.01
723.48	1581.54
723.667	1642.98
723.853	1608.17
724.04	1561.06
724.227	1681.89
724.414	1610.22
724.6	1595.88
724.787	1548.78
724.974	1483.24
725.161	1473
725.347	1622.5
725.534	1546.73
725.72	1497.58
725.907	1522.15
726.094	1567.21
726.28	1550.82
726.467	1534.44
726.653	1585.64
726.84	1493.48
727.027	1546.73
727.213	1524.2
727.4	1540.58
727.586	1528.3
727.773	1481.19
727.959	1489.39
728.145	1442.28
728.332	1497.58
728.518	1429.99
728.705	1499.63
728.891	1419.75
729.077	1475.05
729.264	1458.67
729.45	1534.44
729.636	1403.37
729.823	1358.32
730.009	1380.84
730.195	1440.23
730.382	1411.56
730.568	1401.32
730.754	1407.47
730.94	1489.39
731.126	1452.52
731.313	1473
731.499	1425.9
731.685	1425.9
731.871	1364.46
732.057	1454.57
732.243	1284.59
732.429	1415.66
732.615	1372.65
732.801	1372.65
732.987	1337.84
733.173	1278.44
733.359	1294.83
733.545	1358.32
733.731	1231.34
733.917	1321.45
734.103	1374.7
734.289	1333.74
734.475	1309.16
734.661	1399.27
734.847	1374.7
735.033	1313.26
735.219	1247.72
735.404	1309.16
735.59	1305.07
735.776	1343.98
735.962	1284.59
736.148	1354.22
736.333	1280.49
736.519	1243.63
736.705	1204.72
736.89	1339.88
737.076	1198.57
737.262	1159.66
737.447	1307.12
737.633	1264.11
737.819	1276.4
738.004	1227.25
738.19	1270.25
738.375	1270.25
738.561	1247.72
738.747	1294.83
738.932	1249.77
739.118	1221.1
739.303	1163.76
739.489	1214.96
739.674	1286.64
739.859	1253.87
740.045	1190.38
740.23	1147.37
740.416	1186.29
740.601	1239.53
740.786	1225.2
740.972	1161.71
741.157	1151.47
741.342	1169.9
741.528	1120.75
741.713	1167.85
741.898	1284.59
742.084	1186.29
742.269	1161.71
742.454	1120.75
742.639	1114.61
742.824	1130.99
743.01	1065.46
743.195	1182.19
743.38	1096.18
743.565	1073.65
743.75	1133.04
743.935	1075.7
744.12	1102.32
744.305	1161.71
744.49	1042.93
744.675	1010.16
744.86	969.2
745.045	1059.31
745.23	1049.07
745.415	1044.98
745.6	911.86
745.785	1001.97
745.97	985.58
746.155	985.58
746.34	961.01
746.525	1067.5
746.71	1061.36
746.895	895.47
747.079	1047.02
747.264	938.48
747.449	973.3
747.634	911.86
747.819	997.87
748.003	901.62
748.188	956.91
748.373	1047.02
748.557	983.54
748.742	913.91
748.927	918
749.111	956.91
749.296	903.67
749.481	948.72
749.665	920.05
749.85	881.14
750.034	909.81
750.219	860.66
750.404	911.86
750.588	926.19
750.773	885.23
750.957	897.52
751.141	840.18
751.326	899.57
751.51	862.71
751.695	866.8
751.879	850.42
752.064	866.8
752.248	831.99
752.432	758.26
752.617	815.6
752.801	795.12
752.985	866.8
753.17	752.12
753.354	805.36
753.538	795.12
753.722	827.89
753.907	676.34
754.091	809.46
754.275	801.27
754.459	756.21
754.643	834.04
754.828	725.49
755.012	680.44
755.196	788.98
755.38	745.97
755.564	668.15
755.748	752.12
755.932	788.98
756.116	737.78
756.3	686.58
756.484	686.58
756.668	707.06
756.852	739.83
757.036	696.82
757.22	639.48
757.404	672.25
757.588	737.78
757.772	676.34
757.956	639.48
758.14	686.58
758.323	719.35
758.507	723.44
758.691	686.58
758.875	657.91
759.059	645.62
759.242	649.72
759.426	604.66
759.61	686.58
759.794	612.85
759.977	647.67
760.161	565.75
760.345	610.81
760.528	596.47
760.712	645.62
760.895	623.09
761.079	608.76
761.263	518.65
761.446	621.05
761.63	571.9
761.813	592.37
761.997	592.37
762.18	541.18
762.364	639.48
762.547	535.03
762.731	545.27
762.914	584.18
763.098	608.76
763.281	561.66
763.464	584.18
763.648	541.18
763.831	629.24
764.015	526.84
764.198	575.99
764.381	528.89
764.564	567.8
764.748	575.99
764.931	569.85
765.114	516.6
765.297	555.51
765.481	551.42
765.664	504.31
765.847	514.55
766.03	590.33
766.213	573.94
766.397	590.33
766.58	567.8
766.763	494.07
766.946	481.78
767.129	516.6
767.312	598.52
767.495	598.52
767.678	559.61
767.861	520.7
768.044	498.17
768.227	563.7
768.41	530.94
768.593	518.65
768.776	551.42
768.959	559.61
769.142	532.98
769.324	535.03
769.507	528.89
769.69	479.74
769.873	449.02
770.056	424.44
770.239	440.83
770.421	512.5
770.604	449.02
770.787	496.12
770.97	600.57
771.152	459.26
771.335	489.98
771.518	428.54
771.7	477.69
771.883	496.12
772.066	444.92
772.248	489.98
772.431	434.68
772.613	457.21
772.796	455.16
772.978	547.32
773.161	373.24
773.343	475.64
773.526	344.57
773.708	373.24
773.891	455.16
774.073	473.59
774.256	422.39
774.438	424.44
774.621	393.72
774.803	418.3
774.985	410.11
775.168	387.58
775.35	467.45
775.532	432.63
775.715	438.78
775.897	432.63
776.079	367.1
776.261	467.45
776.444	406.01
776.626	424.44
776.808	401.91
776.99	350.71
777.173	342.52
777.355	373.24
777.537	442.87
777.719	301.56
777.901	393.72
778.083	375.29
778.265	334.33
778.447	365.05
778.629	350.71
778.811	420.35
778.993	352.76
779.175	432.63
779.357	430.59
779.539	326.14
779.721	291.32
779.903	438.78
780.085	371.19
780.267	426.49
780.449	295.42
780.631	311.8
780.812	324.09
780.994	342.52
781.176	369.15
781.358	303.61
781.54	307.71
781.721	344.57
781.903	342.52
782.085	262.65
782.267	289.28
782.448	311.8
782.63	295.42
782.812	326.14
782.993	340.47
783.175	334.33
783.357	297.47
783.538	317.95
783.72	279.04
783.901	301.56
784.083	270.84
784.264	262.65
784.446	293.37
784.627	242.17
784.809	313.85
784.99	254.46
785.172	307.71
785.353	201.21
785.535	244.22
785.716	231.93
785.897	213.5
786.079	248.32
786.26	264.7
786.441	209.4
786.623	170.49
786.804	313.85
786.985	217.6
787.167	240.12
787.348	264.7
787.529	260.6
787.71	297.47
787.891	211.45
788.073	246.27
788.254	211.45
788.435	266.75
788.616	272.89
788.797	221.69
788.978	258.56
789.159	217.6
789.34	236.03
789.522	190.97
789.703	219.64
789.884	162.3
790.065	238.08
790.246	311.8
790.427	254.46
790.607	287.23
790.788	188.93
790.969	203.26
791.15	150.01
791.331	154.11
791.512	174.59
791.693	195.07
791.874	96.77
792.054	207.36
792.235	162.3
792.416	244.22
792.597	244.22
792.778	137.73
792.958	168.45
793.139	147.97
793.32	252.41
793.5	190.97
793.681	137.73
793.862	233.98
794.042	246.27
794.223	123.39
794.404	193.02
794.584	154.11
794.765	170.49
794.945	182.78
795.126	197.12
795.306	158.21
795.487	174.59
795.667	182.78
795.848	240.12
796.028	186.88
796.209	195.07
796.389	129.53
796.57	197.12
796.75	57.86
796.93	170.49
797.111	113.15
797.291	158.21
797.471	213.5
797.652	170.49
797.832	160.25
798.012	152.06
798.192	174.59
798.373	178.69
798.553	219.64
798.733	145.92
798.913	90.62
799.093	244.22
799.274	170.49
799.454	84.48
799.634	113.15
799.814	158.21
799.994	172.54
800.174	154.11
800.354	96.77
800.534	98.81
800.714	186.88
800.894	90.62
801.074	166.4
801.254	123.39
801.434	133.63
801.614	135.68
801.794	170.49
801.974	363
802.154	147.97
802.334	113.15
802.514	180.73
802.693	121.34
802.873	129.53
803.053	139.77
803.233	104.96
803.413	215.55
803.592	139.77
803.772	147.97
803.952	74.24
804.131	123.39
804.311	139.77
804.491	98.81
804.67	117.25
804.85	100.86
805.03	162.3
805.209	172.54
805.389	111.1
805.568	96.77
805.748	57.86
805.928	193.02
806.107	59.9
806.287	117.25
806.466	59.9
806.646	27.14
806.825	98.81
807.004	129.53
807.184	117.25
807.363	113.15
807.543	76.29
807.722	127.49
807.901	201.21
808.081	104.96
808.26	90.62
808.439	121.34
808.619	121.34
808.798	72.19
808.977	129.53
809.156	66.05
809.336	61.95
809.515	84.48
809.694	74.24
809.873	111.1
810.052	90.62
810.231	145.92
810.411	96.77
810.59	107.01
810.769	96.77
810.948	88.57
811.127	18.94
811.306	96.77
811.485	47.62
811.664	98.81
811.843	104.96
812.022	158.21
812.201	68.09
812.38	55.81
812.559	98.81
812.737	145.92
812.916	70.14
813.095	129.53
813.274	127.49
813.453	96.77
813.632	96.77
813.811	61.95
813.989	119.29
814.168	70.14
814.347	72.19
814.526	72.19
814.704	137.73
814.883	127.49
815.062	45.57
815.24	143.87
815.419	35.33
815.598	100.86
815.776	150.01
815.955	47.62
816.133	45.57
816.312	78.33
816.49	78.33
816.669	100.86
816.847	98.81
817.026	129.53
817.204	49.66
817.383	90.62
817.561	78.33
817.74	66.05
817.918	39.42
818.097	92.67
818.275	123.39
818.453	137.73
818.632	66.05
818.81	64
818.988	64
819.167	70.14
819.345	57.86
819.523	-1.54
819.701	41.47
819.879	49.66
820.058	82.43
820.236	31.23
820.414	-5.63
820.592	23.04
820.77	86.53
820.948	76.29
821.127	4.61
821.305	117.25
821.483	74.24
821.661	59.9
821.839	76.29
822.017	39.42
822.195	39.42
822.373	82.43
822.551	127.49
822.729	78.33
822.907	64
823.085	66.05
823.262	55.81
823.44	-26.11
823.618	74.24
823.796	43.52
823.974	68.09
824.152	111.1
824.329	82.43
824.507	78.33
824.685	82.43
824.863	27.14
825.04	121.34
825.218	76.29
825.396	25.09
825.574	23.04
825.751	64
825.929	84.48
826.107	8.7
826.284	102.91
826.462	57.86
826.639	76.29
826.817	10.75
826.994	104.96
827.172	88.57
827.349	-24.06
827.527	92.67
827.704	82.43
827.882	51.71
828.059	84.48
828.237	86.53
828.414	55.81
828.591	47.62
828.769	80.38
828.946	66.05
829.124	111.1
829.301	61.95
829.478	-32.26
829.655	55.81
829.833	12.8
830.01	23.04
830.187	76.29
830.364	55.81
830.542	23.04
830.719	41.47
830.896	39.42
831.073	6.66
831.25	121.34
831.427	41.47
831.604	68.09
831.782	-11.78
831.959	51.71
832.136	14.85
832.313	57.86
832.49	49.66
832.667	78.33
832.844	66.05
833.021	41.47
833.198	-58.88
833.374	43.52
833.551	14.85
833.728	88.57
833.905	41.47
834.082	27.14
834.259	43.52
834.436	14.85
834.612	29.18
834.789	51.71
834.966	-93.69
835.143	66.05
835.319	113.15
835.496	6.66
835.673	20.99
835.85	53.76
836.026	64
836.203	39.42
836.38	70.14
836.556	14.85
836.733	27.14
836.909	59.9
837.086	25.09
837.262	96.77
837.439	47.62
837.616	-30.21
837.792	2.56
837.968	-15.87
838.145	29.18
838.321	31.23
838.498	-26.11
838.674	47.62
838.851	-1.54
839.027	6.66
839.203	49.66
839.38	-9.73
839.556	14.85
839.732	-11.78
839.909	33.28
840.085	33.28
840.261	-3.58
840.437	59.9
840.614	51.71
840.79	39.42
840.966	49.66
841.142	113.15
841.318	31.23
841.494	57.86
841.671	16.9
841.847	51.71
842.023	33.28
842.199	80.38
842.375	33.28
842.551	49.66
842.727	-9.73
842.903	47.62
843.079	31.23
843.255	0.51
843.431	61.95
843.607	49.66
843.783	-9.73
843.959	23.04
844.134	-3.58
844.31	-62.98
844.486	72.19
844.662	-58.88
844.838	49.66
845.013	57.86
845.189	33.28
845.365	76.29
845.541	16.9
845.716	-7.68
845.892	68.09
846.068	41.47
846.244	27.14
846.419	57.86
846.595	-40.45
846.77	-52.74
846.946	49.66
847.122	-46.59
847.297	-7.68
847.473	51.71
847.648	-5.63
847.824	18.94
847.999	4.61
848.175	25.09
848.35	-38.4
848.526	10.75
848.701	-46.59
848.876	68.09
849.052	-5.63
849.227	41.47
849.403	61.95
849.578	31.23
849.753	2.56
849.929	-28.16
850.104	-22.02
850.279	14.85
850.454	45.57
850.63	-36.35
850.805	23.04
850.98	25.09
851.155	57.86
851.33	39.42
851.505	-56.83
851.681	-1.54
851.856	-65.02
852.031	94.72
852.206	43.52
852.381	23.04
852.556	16.9
852.731	88.57
852.906	35.33
853.081	25.09
853.256	33.28
853.431	49.66
853.606	31.23
853.781	14.85
853.956	0.51
854.131	-26.11
854.305	2.56
854.48	41.47
854.655	23.04
854.83	10.75
855.005	-71.17
855.18	-13.82
855.354	-11.78
855.529	74.24
855.704	-5.63
855.879	10.75
856.053	12.8
856.228	8.7
856.403	98.81
856.577	-15.87
856.752	-32.26
856.926	45.57
857.101	-5.63
857.276	14.85
857.45	-28.16
857.625	43.52
857.799	84.48
857.974	59.9
858.148	-22.02
858.323	31.23
858.497	-58.88
858.672	-48.64
858.846	8.7
859.02	10.75
859.195	4.61
859.369	10.75
859.543	16.9
859.718	-28.16
859.892	6.66
860.066	4.61
860.241	-17.92
860.415	-26.11
860.589	-11.78
860.763	10.75
860.938	25.09
861.112	14.85
861.286	-15.87
861.46	10.75
861.634	31.23
861.808	20.99
861.982	82.43
862.157	12.8
862.331	0.51
862.505	-75.26
862.679	41.47
862.853	39.42
863.027	33.28
863.201	8.7
863.375	-69.12
863.549	-38.4
863.722	-56.83
863.896	41.47
864.07	39.42
864.244	74.24
864.418	12.8
864.592	-26.11
864.766	104.96
864.939	-30.21
865.113	-15.87
865.287	20.99
865.461	23.04
865.634	80.38
865.808	-5.63
865.982	25.09
866.156	-17.92
866.329	47.62
866.503	25.09
866.676	64
866.85	45.57
867.024	0.51
867.197	47.62
867.371	14.85
867.544	8.7
867.718	25.09
867.891	-62.98
868.065	-19.97
868.238	64
868.412	88.57
868.585	12.8
868.759	-40.45
868.932	-17.92
869.105	-15.87
869.279	-89.6
869.452	-7.68
869.625	-19.97
869.799	-34.3
869.972	-24.06
870.145	-54.78
870.319	2.56
870.492	27.14
870.665	-34.3
870.838	-40.45
871.011	-52.74
871.185	14.85
871.358	55.81
871.531	47.62
871.704	16.9
871.877	49.66
872.05	-5.63
872.223	8.7
872.396	18.94
872.569	-9.73
872.742	6.66
872.915	8.7
873.088	-32.26
873.261	14.85
873.434	10.75
873.607	18.94
873.78	-32.26
873.953	27.14
874.126	90.62
874.299	4.61
874.471	49.66
874.644	39.42
874.817	90.62
874.99	25.09
875.163	-50.69
875.335	8.7
875.508	-54.78
875.681	27.14
875.853	41.47
876.026	-24.06
876.199	55.81
876.371	35.33
876.544	-5.63
876.717	-1.54
876.889	2.56
877.062	-22.02
877.234	6.66
877.407	10.75
877.579	14.85
877.752	-9.73
877.924	8.7
878.097	-15.87
878.269	-13.82
878.442	55.81
878.614	6.66
878.786	-32.26
878.959	-17.92
879.131	-7.68
879.303	4.61
879.476	-32.26
879.648	-22.02
879.82	80.38
879.993	-38.4
880.165	-58.88
880.337	-34.3
880.509	59.9
880.681	-13.82
880.854	53.76
881.026	-44.54
881.198	55.81
881.37	23.04
881.542	-13.82
881.714	-22.02
881.886	47.62
882.058	-5.63
882.23	39.42
882.402	86.53
882.574	23.04
882.746	-46.59
882.918	64
883.09	-32.26
883.262	18.94
883.434	20.99
883.606	-7.68
883.778	-22.02
883.95	31.23
884.122	39.42
884.293	14.85
884.465	66.05
884.637	-46.59
884.809	0.51
884.98	0.51
885.152	10.75
885.324	10.75
885.496	-28.16
885.667	31.23
885.839	-13.82
886.011	68.09
886.182	-17.92
886.354	-17.92
886.525	-1.54
886.697	25.09
886.869	-46.59
887.04	4.61
887.212	31.23
887.383	-54.78
887.555	0.51
887.726	-11.78
887.897	51.71
888.069	68.09
888.24	2.56
888.412	-17.92
888.583	-67.07
888.754	-3.58
888.926	4.61
889.097	-50.69
889.268	-75.26
889.44	-1.54
889.611	-75.26
889.782	61.95
889.953	57.86
890.125	-3.58
890.296	-36.35
890.467	-1.54
890.638	64
890.809	66.05
890.98	43.52
891.151	8.7
891.323	43.52
891.494	14.85
891.665	-38.4
891.836	25.09
892.007	-69.12
892.178	27.14
892.349	0.51
892.52	27.14
892.691	-28.16
892.862	-24.06
893.032	-28.16
893.203	-83.45
893.374	-9.73
893.545	-1.54
893.716	-40.45
893.887	4.61
894.057	4.61
894.228	0.51
894.399	12.8
894.57	-9.73
894.74	8.7
894.911	-40.45
895.082	33.28
895.253	-36.35
895.423	-15.87
895.594	0.51
895.764	39.42
895.935	76.29
896.106	-26.11
896.276	-11.78
896.447	-65.02
896.617	-34.3
896.788	16.9
896.958	25.09
897.129	-91.65
897.299	0.51
897.47	-15.87
897.64	57.86
897.81	6.66
897.981	12.8
898.151	20.99
898.322	-9.73
898.492	-28.16
898.662	-48.64
898.832	-26.11
899.003	-52.74
899.173	-24.06
899.343	-26.11
899.513	-1.54
