Data from USB4F104151__237__14-00-55-518.txt Node

Date: Thu Mar 13 14:00:55 EDT 2025
User: louis
Spectrometer: USB4F10415
Trigger mode: 4
Integration Time (sec): 1.000000E-2
Scans to average: 1
Electric dark correction enabled: true
Nonlinearity correction enabled: false
Boxcar width: 0
XAxis mode: Wavelengths
Number of Pixels in Spectrum: 3648
>>>>>Begin Spectral Data<<<<<
178.204	-71.17
178.424	-71.17
178.644	-71.17
178.864	-52.74
179.084	-38.4
179.304	41.47
179.524	2.56
179.744	29.18
179.964	-5.63
180.184	-42.5
180.404	10.75
180.624	41.47
180.844	-38.4
181.064	27.14
181.283	10.75
181.503	-108.03
181.723	31.23
181.943	-77.31
182.163	16.9
182.383	6.66
182.602	-1.54
182.822	51.71
183.042	43.52
183.262	-75.26
183.482	10.75
183.701	-1.54
183.921	43.52
184.141	2.56
184.361	51.71
184.58	8.7
184.8	-17.92
185.02	37.38
185.239	27.14
185.459	-52.74
185.679	23.04
185.898	2.56
186.118	0.51
186.338	-17.92
186.557	59.9
186.777	4.61
186.997	64
187.216	-3.58
187.436	72.19
187.655	39.42
187.875	53.76
188.095	51.71
188.314	-30.21
188.534	76.29
188.753	18.94
188.973	14.85
189.192	45.57
189.412	-56.83
189.631	-13.82
189.851	-1.54
190.07	4.61
190.29	31.23
190.509	20.99
190.729	-3.58
190.948	152.06
191.168	51.71
191.387	14.85
191.607	-11.78
191.826	0.51
192.045	61.95
192.265	6.66
192.484	-7.68
192.704	16.9
192.923	-32.26
193.142	78.33
193.362	18.94
193.581	2.56
193.8	51.71
194.02	-28.16
194.239	-17.92
194.458	20.99
194.678	104.96
194.897	47.62
195.116	68.09
195.335	4.61
195.555	-54.78
195.774	57.86
195.993	-26.11
196.212	49.66
196.432	23.04
196.651	29.18
196.87	-15.87
197.089	-5.63
197.308	6.66
197.528	-13.82
197.747	10.75
197.966	45.57
198.185	-11.78
198.404	-17.92
198.623	-13.82
198.842	47.62
199.062	-9.73
199.281	-11.78
199.5	-11.78
199.719	2.56
199.938	70.14
200.157	31.23
200.376	35.33
200.595	76.29
200.814	-15.87
201.033	10.75
201.252	66.05
201.471	2.56
201.69	2.56
201.909	-60.93
202.128	35.33
202.347	55.81
202.566	59.9
202.785	6.66
203.004	-40.45
203.223	76.29
203.442	6.66
203.661	39.42
203.879	8.7
204.098	68.09
204.317	61.95
204.536	45.57
204.755	4.61
204.974	70.14
205.193	-24.06
205.411	12.8
205.63	-22.02
205.849	43.52
206.068	33.28
206.287	12.8
206.505	18.94
206.724	-30.21
206.943	49.66
207.162	4.61
207.381	-50.69
207.599	70.14
207.818	-71.17
208.037	18.94
208.255	-5.63
208.474	0.51
208.693	61.95
208.911	-9.73
209.13	64
209.349	25.09
209.567	-62.98
209.786	20.99
210.005	-60.93
210.223	-7.68
210.442	78.33
210.661	68.09
210.879	27.14
211.098	-9.73
211.316	35.33
211.535	-13.82
211.753	61.95
211.972	20.99
212.191	12.8
212.409	-3.58
212.628	41.47
212.846	27.14
213.065	0.51
213.283	119.29
213.502	25.09
213.72	61.95
213.938	-7.68
214.157	-22.02
214.375	-38.4
214.594	-34.3
214.812	55.81
215.031	14.85
215.249	37.38
215.467	12.8
215.686	18.94
215.904	86.53
216.122	10.75
216.341	29.18
216.559	29.18
216.778	25.09
216.996	-19.97
217.214	39.42
217.432	-13.82
217.651	-9.73
217.869	-7.68
218.087	-9.73
218.306	-65.02
218.524	23.04
218.742	-7.68
218.96	92.67
219.179	27.14
219.397	-13.82
219.615	16.9
219.833	8.7
220.051	23.04
220.27	18.94
220.488	-7.68
220.706	-26.11
220.924	-1.54
221.142	84.48
221.36	2.56
221.578	-32.26
221.796	-11.78
222.015	10.75
222.233	14.85
222.451	18.94
222.669	33.28
222.887	18.94
223.105	45.57
223.323	-9.73
223.541	-40.45
223.759	-52.74
223.977	-52.74
224.195	-9.73
224.413	123.39
224.631	-3.58
224.849	16.9
225.067	-19.97
225.285	-15.87
225.503	-15.87
225.721	16.9
225.939	37.38
226.157	23.04
226.375	-38.4
226.592	-7.68
226.81	59.9
227.028	-17.92
227.246	66.05
227.464	16.9
227.682	51.71
227.9	61.95
228.117	51.71
228.335	-5.63
228.553	20.99
228.771	35.33
228.989	76.29
229.206	-11.78
229.424	33.28
229.642	53.76
229.86	-17.92
230.077	-40.45
230.295	20.99
230.513	-26.11
230.731	-13.82
230.948	-11.78
231.166	-19.97
231.384	68.09
231.601	-1.54
231.819	35.33
232.037	20.99
232.254	-3.58
232.472	35.33
232.689	64
232.907	31.23
233.125	27.14
233.342	12.8
233.56	-30.21
233.777	35.33
233.995	47.62
234.213	10.75
234.43	74.24
234.648	61.95
234.865	2.56
235.083	55.81
235.3	25.09
235.518	-5.63
235.735	8.7
235.953	109.05
236.17	39.42
236.388	-3.58
236.605	6.66
236.822	53.76
237.04	4.61
237.257	-17.92
237.475	12.8
237.692	10.75
237.909	23.04
238.127	31.23
238.344	-30.21
238.562	-30.21
238.779	-3.58
238.996	-3.58
239.214	-30.21
239.431	47.62
239.648	-13.82
239.865	31.23
240.083	18.94
240.3	-34.3
240.517	-9.73
240.735	12.8
240.952	29.18
241.169	37.38
241.386	-11.78
241.603	-22.02
241.821	55.81
242.038	35.33
242.255	0.51
242.472	-3.58
242.689	49.66
242.907	59.9
243.124	39.42
243.341	61.95
243.558	-11.78
243.775	-11.78
243.992	-62.98
244.209	92.67
244.426	-7.68
244.643	-7.68
244.86	0.51
245.078	51.71
245.295	27.14
245.512	33.28
245.729	-32.26
245.946	-9.73
246.163	29.18
246.38	27.14
246.597	18.94
246.814	-71.17
247.031	33.28
247.248	31.23
247.464	20.99
247.681	-11.78
247.898	64
248.115	43.52
248.332	35.33
248.549	43.52
248.766	45.57
248.983	-3.58
249.2	51.71
249.417	47.62
249.633	68.09
249.85	55.81
250.067	2.56
250.284	72.19
250.501	-30.21
250.717	-60.93
250.934	2.56
251.151	-15.87
251.368	49.66
251.585	78.33
251.801	29.18
252.018	-7.68
252.235	53.76
252.451	-1.54
252.668	-3.58
252.885	25.09
253.102	16.9
253.318	45.57
253.535	0.51
253.752	37.38
253.968	-5.63
254.185	-11.78
254.401	10.75
254.618	-58.88
254.835	51.71
255.051	-3.58
255.268	29.18
255.484	20.99
255.701	18.94
255.917	55.81
256.134	10.75
256.351	66.05
256.567	57.86
256.784	57.86
257	-1.54
257.217	61.95
257.433	-38.4
257.65	-77.31
257.866	-26.11
258.082	-30.21
258.299	-77.31
258.515	29.18
258.732	12.8
258.948	39.42
259.165	2.56
259.381	-26.11
259.597	27.14
259.814	68.09
260.03	-19.97
260.246	-9.73
260.463	27.14
260.679	72.19
260.895	-5.63
261.112	-1.54
261.328	12.8
261.544	-13.82
261.761	55.81
261.977	14.85
262.193	-7.68
262.409	68.09
262.626	-5.63
262.842	18.94
263.058	-3.58
263.274	66.05
263.49	49.66
263.707	-15.87
263.923	35.33
264.139	61.95
264.355	2.56
264.571	33.28
264.787	2.56
265.004	59.9
265.22	8.7
265.436	-7.68
265.652	18.94
265.868	18.94
266.084	-11.78
266.3	47.62
266.516	59.9
266.732	43.52
266.948	-17.92
267.164	64
267.38	16.9
267.596	16.9
267.812	25.09
268.028	-1.54
268.244	23.04
268.46	14.85
268.676	2.56
268.892	61.95
269.108	-3.58
269.324	39.42
269.54	-11.78
269.756	2.56
269.972	-3.58
270.188	12.8
270.403	37.38
270.619	43.52
270.835	8.7
271.051	8.7
271.267	55.81
271.483	37.38
271.698	-46.59
271.914	-13.82
272.13	12.8
272.346	61.95
272.562	-3.58
272.777	55.81
272.993	-54.78
273.209	-9.73
273.425	53.76
273.64	68.09
273.856	53.76
274.072	78.33
274.287	55.81
274.503	8.7
274.719	10.75
274.934	35.33
275.15	-36.35
275.366	47.62
275.581	20.99
275.797	-44.54
276.012	35.33
276.228	41.47
276.444	31.23
276.659	84.48
276.875	-17.92
277.09	-11.78
277.306	-11.78
277.521	55.81
277.737	127.49
277.952	96.77
278.168	84.48
278.383	80.38
278.599	59.9
278.814	84.48
279.03	-48.64
279.245	78.33
279.461	68.09
279.676	37.38
279.892	-3.58
280.107	-17.92
280.322	-26.11
280.538	-44.54
280.753	-3.58
280.969	45.57
281.184	70.14
281.399	-15.87
281.615	39.42
281.83	8.7
282.045	-1.54
282.26	59.9
282.476	-9.73
282.691	-17.92
282.906	-15.87
283.122	57.86
283.337	39.42
283.552	-13.82
283.767	51.71
283.983	6.66
284.198	25.09
284.413	104.96
284.628	20.99
284.843	-22.02
285.058	27.14
285.274	-54.78
285.489	0.51
285.704	72.19
285.919	45.57
286.134	18.94
286.349	72.19
286.564	23.04
286.779	10.75
286.995	86.53
287.21	2.56
287.425	-15.87
287.64	64
287.855	6.66
288.07	47.62
288.285	47.62
288.5	47.62
288.715	31.23
288.93	-30.21
289.145	-54.78
289.36	43.52
289.575	-9.73
289.79	39.42
290.004	23.04
290.219	90.62
290.434	16.9
290.649	55.81
290.864	43.52
291.079	-3.58
291.294	37.38
291.509	-11.78
291.724	-3.58
291.938	-36.35
292.153	39.42
292.368	18.94
292.583	-1.54
292.798	12.8
293.012	45.57
293.227	-3.58
293.442	27.14
293.657	-62.98
293.871	10.75
294.086	53.76
294.301	8.7
294.516	-26.11
294.73	39.42
294.945	23.04
295.16	20.99
295.374	4.61
295.589	29.18
295.804	10.75
296.018	-22.02
296.233	2.56
296.447	-3.58
296.662	90.62
296.877	-5.63
297.091	8.7
297.306	-30.21
297.52	0.51
297.735	51.71
297.949	18.94
298.164	27.14
298.378	-19.97
298.593	23.04
298.807	8.7
299.022	-22.02
299.236	27.14
299.451	43.52
299.665	25.09
299.88	-38.4
300.094	125.44
300.309	-9.73
300.523	51.71
300.737	78.33
300.952	-7.68
301.166	-5.63
301.381	10.75
301.595	14.85
301.809	31.23
302.024	25.09
302.238	18.94
302.452	59.9
302.667	-9.73
302.881	39.42
303.095	96.77
303.309	45.57
303.524	-54.78
303.738	92.67
303.952	-30.21
304.166	49.66
304.381	14.85
304.595	25.09
304.809	31.23
305.023	12.8
305.237	111.1
305.452	10.75
305.666	64
305.88	57.86
306.094	-32.26
306.308	102.91
306.522	20.99
306.736	47.62
306.95	-9.73
307.164	18.94
307.379	33.28
307.593	-30.21
307.807	64
308.021	47.62
308.235	98.81
308.449	29.18
308.663	59.9
308.877	43.52
309.091	-1.54
309.305	25.09
309.519	-40.45
309.733	45.57
309.947	-11.78
310.161	2.56
310.374	55.81
310.588	61.95
310.802	6.66
311.016	-32.26
311.23	53.76
311.444	-34.3
311.658	18.94
311.872	94.72
312.085	-48.64
312.299	59.9
312.513	16.9
312.727	23.04
312.941	-26.11
313.154	64
313.368	29.18
313.582	20.99
313.796	18.94
314.009	-28.16
314.223	111.1
314.437	70.14
314.651	-26.11
314.864	18.94
315.078	-15.87
315.292	-13.82
315.505	2.56
315.719	51.71
315.933	39.42
316.146	39.42
316.36	39.42
316.573	-1.54
316.787	8.7
317.001	16.9
317.214	-26.11
317.428	61.95
317.641	-71.17
317.855	41.47
318.068	35.33
318.282	57.86
318.495	-24.06
318.709	-1.54
318.922	8.7
319.136	27.14
319.349	57.86
319.563	-30.21
319.776	39.42
319.99	-17.92
320.203	88.57
320.417	82.43
320.63	20.99
320.843	-26.11
321.057	-19.97
321.27	20.99
321.483	14.85
321.697	86.53
321.91	8.7
322.124	53.76
322.337	10.75
322.55	45.57
322.763	2.56
322.977	78.33
323.19	14.85
323.403	12.8
323.617	41.47
323.83	96.77
324.043	-3.58
324.256	45.57
324.469	45.57
324.683	31.23
324.896	23.04
325.109	43.52
325.322	20.99
325.535	10.75
325.748	27.14
325.962	27.14
326.175	2.56
326.388	33.28
326.601	-1.54
326.814	23.04
327.027	12.8
327.24	47.62
327.453	70.14
327.666	45.57
327.879	-15.87
328.092	92.67
328.305	-30.21
328.518	70.14
328.731	10.75
328.944	43.52
329.157	45.57
329.37	31.23
329.583	47.62
329.796	74.24
330.009	10.75
330.222	20.99
330.435	35.33
330.648	53.76
330.861	29.18
331.073	29.18
331.286	-60.93
331.499	94.72
331.712	-42.5
331.925	-24.06
332.138	29.18
332.35	6.66
332.563	39.42
332.776	51.71
332.989	51.71
333.202	-1.54
333.414	10.75
333.627	76.29
333.84	18.94
334.053	-3.58
334.265	-17.92
334.478	27.14
334.691	6.66
334.903	10.75
335.116	92.67
335.329	-22.02
335.541	61.95
335.754	10.75
335.966	31.23
336.179	18.94
336.392	55.81
336.604	-7.68
336.817	59.9
337.029	72.19
337.242	53.76
337.454	70.14
337.667	8.7
337.88	2.56
338.092	55.81
338.305	64
338.517	10.75
338.729	-24.06
338.942	47.62
339.154	-50.69
339.367	-69.12
339.579	53.76
339.792	14.85
340.004	4.61
340.217	-34.3
340.429	18.94
340.641	-19.97
340.854	57.86
341.066	10.75
341.278	35.33
341.491	45.57
341.703	84.48
341.915	-5.63
342.128	59.9
342.34	55.81
342.552	-30.21
342.764	78.33
342.977	-7.68
343.189	23.04
343.401	-7.68
343.613	35.33
343.826	18.94
344.038	-19.97
344.25	86.53
344.462	59.9
344.674	10.75
344.886	-34.3
345.099	-38.4
345.311	88.57
345.523	78.33
345.735	-15.87
345.947	4.61
346.159	35.33
346.371	-7.68
346.583	8.7
346.795	94.72
347.007	8.7
347.219	35.33
347.431	4.61
347.643	53.76
347.855	37.38
348.067	55.81
348.279	6.66
348.491	12.8
348.703	72.19
348.915	78.33
349.127	23.04
349.339	-30.21
349.551	-28.16
349.763	27.14
349.975	-7.68
350.187	-28.16
350.399	-38.4
350.61	18.94
350.822	43.52
351.034	16.9
351.246	59.9
351.458	-5.63
351.669	25.09
351.881	-15.87
352.093	66.05
352.305	70.14
352.517	-11.78
352.728	-3.58
352.94	-3.58
353.152	80.38
353.363	10.75
353.575	39.42
353.787	-13.82
353.999	43.52
354.21	119.29
354.422	0.51
354.633	25.09
354.845	20.99
355.057	0.51
355.268	84.48
355.48	-11.78
355.692	18.94
355.903	-26.11
356.115	111.1
356.326	-3.58
356.538	84.48
356.749	6.66
356.961	76.29
357.172	25.09
357.384	64
357.595	14.85
357.807	2.56
358.018	16.9
358.23	20.99
358.441	51.71
358.653	43.52
358.864	43.52
359.075	12.8
359.287	43.52
359.498	59.9
359.709	78.33
359.921	64
360.132	-5.63
360.344	102.91
360.555	-11.78
360.766	-26.11
360.977	-42.5
361.189	145.92
361.4	51.71
361.611	18.94
361.823	43.52
362.034	47.62
362.245	31.23
362.456	18.94
362.667	6.66
362.879	66.05
363.09	-30.21
363.301	39.42
363.512	80.38
363.723	76.29
363.935	49.66
364.146	78.33
364.357	53.76
364.568	29.18
364.779	64
364.99	31.23
365.201	41.47
365.412	68.09
365.623	55.81
365.834	66.05
366.045	39.42
366.256	39.42
366.467	39.42
366.678	59.9
366.889	-48.64
367.1	-1.54
367.311	119.29
367.522	23.04
367.733	90.62
367.944	18.94
368.155	-5.63
368.366	70.14
368.577	55.81
368.788	80.38
368.999	18.94
369.209	6.66
369.42	57.86
369.631	94.72
369.842	18.94
370.053	45.57
370.264	8.7
370.474	51.71
370.685	35.33
370.896	59.9
371.107	16.9
371.317	61.95
371.528	86.53
371.739	64
371.95	4.61
372.16	90.62
372.371	14.85
372.582	84.48
372.792	70.14
373.003	-5.63
373.214	-5.63
373.424	20.99
373.635	35.33
373.846	127.49
374.056	-9.73
374.267	-28.16
374.477	43.52
374.688	6.66
374.898	-11.78
375.109	18.94
375.319	100.86
375.53	-7.68
375.74	-1.54
375.951	39.42
376.161	10.75
376.372	74.24
376.582	23.04
376.793	4.61
377.003	33.28
377.214	47.62
377.424	-5.63
377.635	92.67
377.845	68.09
378.055	37.38
378.266	-26.11
378.476	72.19
378.686	37.38
378.897	115.2
379.107	-26.11
379.317	68.09
379.528	43.52
379.738	2.56
379.948	-1.54
380.158	55.81
380.369	35.33
380.579	68.09
380.789	12.8
380.999	45.57
381.21	111.1
381.42	86.53
381.63	-28.16
381.84	61.95
382.05	31.23
382.261	107.01
382.471	41.47
382.681	-9.73
382.891	37.38
383.101	8.7
383.311	-13.82
383.521	98.81
383.731	10.75
383.941	68.09
384.151	47.62
384.361	55.81
384.571	-24.06
384.781	64
384.991	59.9
385.201	76.29
385.411	100.86
385.621	6.66
385.831	6.66
386.041	23.04
386.251	-5.63
386.461	39.42
386.671	74.24
386.881	45.57
387.091	33.28
387.301	39.42
387.511	33.28
387.72	94.72
387.93	47.62
388.14	64
388.35	-30.21
388.56	100.86
388.769	25.09
388.979	0.51
389.189	64
389.399	123.39
389.609	37.38
389.818	66.05
390.028	8.7
390.238	0.51
390.447	18.94
390.657	59.9
390.867	61.95
391.076	-3.58
391.286	59.9
391.496	39.42
391.705	18.94
391.915	59.9
392.125	64
392.334	29.18
392.544	29.18
392.753	92.67
392.963	10.75
393.172	70.14
393.382	35.33
393.591	39.42
393.801	-7.68
394.01	57.86
394.22	47.62
394.429	78.33
394.639	37.38
394.848	76.29
395.058	57.86
395.267	64
395.477	55.81
395.686	117.25
395.895	96.77
396.105	64
396.314	-19.97
396.524	86.53
396.733	2.56
396.942	109.05
397.152	53.76
397.361	-7.68
397.57	41.47
397.78	-5.63
397.989	104.96
398.198	41.47
398.407	39.42
398.617	29.18
398.826	61.95
399.035	72.19
399.244	-26.11
399.453	100.86
399.663	47.62
399.872	141.82
400.081	78.33
400.29	84.48
400.499	86.53
400.708	94.72
400.917	82.43
401.127	59.9
401.336	98.81
401.545	102.91
401.754	88.57
401.963	115.2
402.172	35.33
402.381	135.68
402.59	100.86
402.799	-3.58
403.008	37.38
403.217	117.25
403.426	70.14
403.635	125.44
403.844	117.25
404.053	150.01
404.262	172.54
404.471	160.25
404.68	178.69
404.888	92.67
405.097	154.11
405.306	168.45
405.515	27.14
405.724	78.33
405.933	162.3
406.142	170.49
406.35	133.63
406.559	51.71
406.768	143.87
406.977	135.68
407.185	100.86
407.394	164.35
407.603	150.01
407.812	174.59
408.02	195.07
408.229	84.48
408.438	166.4
408.646	174.59
408.855	172.54
409.064	186.88
409.272	188.93
409.481	178.69
409.69	176.64
409.898	205.31
410.107	260.6
410.315	154.11
410.524	150.01
410.733	154.11
410.941	242.17
411.15	229.88
411.358	289.28
411.567	272.89
411.775	203.26
411.984	289.28
412.192	313.85
412.401	293.37
412.609	283.13
412.818	320
413.026	307.71
413.234	340.47
413.443	338.43
413.651	356.86
413.86	315.9
414.068	434.68
414.276	397.82
414.485	416.25
414.693	420.35
414.901	408.06
415.11	442.87
415.318	440.83
415.526	502.26
415.734	504.31
415.943	457.21
416.151	575.99
416.359	614.9
416.567	592.37
416.776	631.29
416.984	623.09
417.192	578.04
417.4	698.87
417.608	727.54
417.817	668.15
418.025	735.73
418.233	803.32
418.441	780.79
418.649	739.83
418.857	852.47
419.065	827.89
419.273	950.77
419.481	866.8
419.689	885.23
419.897	993.78
420.105	954.87
420.313	889.33
420.521	1065.46
420.729	1067.5
420.937	1090.03
421.145	1200.62
421.353	1221.1
421.561	1251.82
421.769	1325.55
421.977	1286.64
422.185	1270.25
422.393	1425.9
422.601	1495.53
422.809	1444.33
423.017	1497.58
423.224	1616.36
423.432	1731.05
423.64	1620.46
423.848	1759.72
424.056	1739.24
424.263	1845.73
424.471	1905.12
424.679	1858.02
424.887	2097.63
425.094	2036.19
425.302	2154.98
425.51	2111.97
425.718	2126.3
425.925	2294.24
426.133	2288.09
426.341	2365.92
426.548	2478.55
426.756	2572.76
426.964	2626.01
427.171	2804.18
427.379	2824.66
427.586	2767.32
427.794	2822.61
428.001	3152.34
428.209	3156.43
428.417	3240.4
428.624	3389.9
428.832	3418.57
429.039	3238.35
429.247	3406.28
429.454	3615.18
429.662	3748.29
429.869	3602.89
430.076	3899.84
430.284	3666.38
430.491	3899.84
430.699	4032.96
430.906	4221.38
431.114	4272.57
431.321	4409.79
431.528	4604.35
431.736	4827.57
431.943	5026.23
432.15	4825.53
432.358	4815.29
432.565	5159.35
432.772	5054.9
432.979	5339.57
433.187	5493.16
433.394	5640.62
433.601	5925.29
433.808	5732.78
434.016	5796.26
434.223	6205.86
434.43	6379.93
434.637	6318.5
434.844	6844.82
435.052	6871.45
435.259	6746.52
435.466	6898.07
435.673	6695.32
435.88	7274.9
436.087	7651.72
436.294	7745.93
436.501	7512.46
436.708	7604.62
436.915	7858.57
437.122	8145.28
437.329	8280.45
437.537	8386.94
437.743	8515.97
437.95	8497.53
438.157	9161.08
438.364	9220.47
438.571	9349.49
438.778	9365.87
438.985	10090.85
439.192	9888.11
439.399	9927.02
439.606	9742.7
439.813	10191.2
440.02	10963.29
440.227	10844.51
440.433	10711.39
440.64	11045.21
440.847	10975.58
441.054	11430.23
441.261	11999.56
441.467	12007.75
441.674	11995.46
441.881	12513.6
442.088	12734.78
442.294	12310.85
442.501	12613.95
442.708	12953.91
442.914	13252.92
443.121	13916.46
443.328	13412.66
443.534	14887.2
443.741	14225.7
443.948	13820.21
444.154	15053.08
444.361	15014.17
444.568	15249.69
444.774	14758.17
444.981	15239.45
445.187	15663.38
445.394	16281.86
445.6	16013.58
445.807	17598.71
446.013	17062.14
446.22	17203.45
446.426	17836.27
446.633	17754.35
446.839	18606.31
447.046	18051.31
447.252	18618.6
447.459	18882.78
447.665	18534.63
447.871	19689.68
448.078	20650.18
448.284	19417.3
448.491	20205.77
448.697	20840.64
448.903	20947.14
449.11	21172.41
449.316	20967.62
449.522	21149.89
449.728	21565.62
449.935	21805.24
450.141	22071.47
450.347	22354.09
450.553	21686.45
450.76	21934.26
450.966	22587.56
451.172	22343.85
451.378	22798.5
451.584	22325.42
451.791	23201.95
451.997	23163.04
452.203	23367.84
452.409	23455.9
452.615	23462.04
452.821	22280.36
453.027	22210.73
453.233	23283.87
453.44	22331.56
453.646	22759.59
453.852	22681.77
454.058	23052.45
454.264	22024.37
454.47	22880.42
454.676	22214.83
454.882	22892.71
455.088	21059.77
455.294	21135.55
455.5	21375.16
455.705	21700.79
455.911	20768.96
456.117	20197.58
456.323	20338.89
456.529	19253.47
456.735	20170.96
456.941	19448.02
457.147	19243.23
457.352	18460.9
457.558	18415.85
457.764	18585.83
457.97	17975.53
458.176	17613.04
458.381	17789.17
458.587	16851.2
458.793	16791.81
458.999	15870.22
459.204	17352.95
459.41	16630.02
459.616	15384.85
459.821	15649.04
460.027	15429.91
460.233	14981.4
460.438	14401.83
460.644	14549.28
460.85	13936.94
461.055	13771.05
461.261	13674.8
461.466	12620.1
461.672	12486.98
461.878	13136.18
462.083	12462.4
462.289	12151.11
462.494	11989.32
462.7	11278.68
462.905	11123.03
463.111	11520.34
463.316	11653.45
463.522	11217.24
463.727	11155.8
463.932	11366.74
464.138	11274.58
464.343	11317.59
464.549	10891.61
464.754	11264.34
464.959	11186.52
465.165	11059.54
465.37	10877.27
465.575	10320.23
465.781	10629.47
465.986	10828.12
466.191	10324.32
466.397	10264.93
466.602	9800.04
466.807	10021.22
467.012	10344.8
467.218	10365.28
467.423	9980.26
467.628	10037.61
467.833	10479.97
468.038	9992.55
468.244	9820.52
468.449	10117.48
468.654	9843.05
468.859	9818.47
469.064	9750.89
469.269	9429.36
469.474	9482.61
469.679	9785.71
469.885	9179.51
470.09	9382.26
470.295	9224.56
470.5	9316.72
470.705	9019.77
470.91	8917.37
471.115	8966.52
471.32	9052.53
471.525	8927.61
471.73	8778.11
471.935	8638.84
472.139	8319.36
472.344	8573.31
472.549	8507.77
472.754	8292.74
472.959	8235.39
473.164	8110.47
473.369	7926.15
473.574	8360.32
473.778	8049.03
473.983	7989.64
474.188	8110.47
474.393	7688.59
474.598	7604.62
474.802	7643.53
475.007	7614.86
475.212	7614.86
475.417	7223.7
475.621	7156.11
475.826	7408.01
476.031	7276.94
476.235	7195.03
476.44	7244.18
476.645	7115.16
476.849	7231.89
477.054	6973.85
477.259	6758.81
477.463	6996.37
477.668	6717.85
477.872	6777.24
478.077	6834.58
478.282	6353.31
478.486	6410.65
478.691	6506.91
478.895	6400.41
479.1	6412.7
479.304	6379.93
479.509	6195.62
479.713	6257.06
479.918	6099.36
480.122	6125.99
480.326	6089.12
480.531	6113.7
480.735	6150.56
480.94	6015.4
481.144	6128.03
481.348	6011.3
481.553	6158.75
481.757	5892.52
481.961	5886.37
482.166	6150.56
482.37	5921.19
482.574	5806.5
482.778	6015.4
482.983	5953.96
483.187	5947.81
483.391	5945.77
483.595	5833.13
483.8	5892.52
484.004	5939.62
484.208	6191.52
484.412	5986.72
484.616	6027.68
484.821	5888.42
485.025	5861.8
485.229	6023.59
485.433	5927.33
485.637	5798.31
485.841	5941.67
486.045	5804.46
486.249	6031.78
486.453	5884.33
486.657	5869.99
486.861	5986.72
487.065	5826.98
487.269	5745.06
487.473	5867.94
487.677	5941.67
487.881	5876.13
488.085	5964.2
488.289	6097.31
488.493	5951.91
488.697	5921.19
488.901	6105.51
489.105	6042.02
489.309	6052.26
489.512	6058.4
489.716	6015.4
489.92	5999.01
490.124	5861.8
490.328	6089.12
490.531	6037.92
490.735	6330.78
490.939	6222.24
491.143	6031.78
491.346	6132.13
491.55	6234.53
491.754	6240.67
491.958	6242.72
492.161	6027.68
492.365	6179.23
492.569	6168.99
492.772	6347.17
492.976	6459.81
493.18	6363.55
493.383	6449.57
493.587	6379.93
493.79	6492.57
493.994	6508.96
494.197	6648.22
494.401	6726.04
494.605	6695.32
494.808	6666.65
495.012	6723.99
495.215	6717.85
495.419	6932.89
495.622	6932.89
495.825	6984.09
496.029	6939.03
496.232	7111.06
496.436	7340.43
496.639	7174.55
496.843	7360.91
497.046	7244.18
497.249	7500.17
497.453	7403.92
497.656	7580.04
497.859	7637.39
498.063	7655.82
498.266	7870.86
498.469	7707.02
498.673	7911.82
498.876	8266.11
499.079	8235.39
499.282	8186.24
499.485	8219.01
499.689	8325.5
499.892	8356.22
500.095	8470.91
500.298	8671.61
500.501	8843.64
500.705	9118.07
500.908	9081.21
501.111	9337.2
501.314	9251.19
501.517	9329.01
501.72	9245.04
501.923	9290.1
502.126	9668.97
502.329	9843.05
502.532	9793.9
502.735	9875.82
502.938	10168.68
503.141	10336.61
503.344	10197.35
503.547	10322.27
503.75	10357.09
503.953	10709.34
504.156	10858.84
504.359	11008.34
504.562	11135.32
504.765	11172.18
504.968	11479.38
505.17	11483.47
505.373	11651.41
505.576	11747.66
505.779	12038.47
505.982	11843.92
506.185	12116.3
506.387	12450.11
506.59	12345.67
506.793	12491.07
506.996	12529.98
507.198	12892.48
507.401	12796.22
507.604	13058.36
507.807	13308.21
508.009	13429.04
508.212	13875.5
508.415	13775.15
508.617	14154.02
508.82	14104.87
509.022	13979.95
509.225	14545.19
509.428	14473.51
509.63	14768.41
509.833	14608.67
510.035	15063.32
510.238	15081.75
510.44	15495.44
510.643	15726.86
510.845	15776.02
511.048	15542.55
511.25	16169.23
511.453	16310.54
511.655	16697.6
511.858	16738.56
512.06	16748.8
512.262	16904.45
512.465	16865.53
512.667	17262.84
512.87	17697.01
513.072	17479.93
513.274	18049.26
513.477	18301.16
513.679	18311.4
513.881	18569.44
514.084	18776.29
514.286	18888.93
514.488	19007.71
514.69	19425.5
514.893	19835.09
515.095	19665.11
515.297	19884.24
515.499	19917.01
515.701	20363.47
515.904	20441.29
516.106	20918.46
516.308	20836.55
516.51	21272.76
516.712	21557.43
516.914	21567.67
517.116	22010.03
517.318	21991.6
517.52	22495.4
517.722	22145.2
517.925	22698.15
518.127	23167.13
518.329	23236.77
518.531	23324.83
518.733	23709.85
518.935	24092.82
519.136	23971.99
519.338	24467.59
519.54	24541.32
519.742	24733.83
519.944	25088.13
520.146	25364.6
520.348	25421.95
520.55	25942.13
520.752	25964.66
520.954	26249.33
521.155	26087.54
521.357	26517.61
521.559	27058.28
521.761	27160.67
521.963	27240.54
522.164	27527.26
522.366	27736.15
522.568	27756.63
522.77	27918.42
522.971	28418.13
523.173	28307.54
523.375	28475.47
523.576	28487.76
523.778	29030.47
523.98	29175.87
524.181	29352
524.383	29517.89
524.584	29997.11
524.786	30214.19
524.988	29810.75
525.189	29911.1
525.391	30130.23
525.592	30554.16
525.794	30818.35
525.995	31006.76
526.197	30924.84
526.398	30904.36
526.6	31215.65
526.801	31592.48
527.003	31557.66
527.204	31508.51
527.406	32227.35
527.607	32053.27
527.808	32249.88
528.01	31422.5
528.211	32227.35
528.412	32786.44
528.614	32399.38
528.815	32434.19
529.016	33224.71
529.218	32636.94
529.419	32942.09
529.62	33054.73
529.822	33171.46
530.023	32956.43
530.224	32995.34
530.425	33366.02
530.626	32905.23
530.828	33159.17
531.029	33929.21
531.23	33150.98
531.431	33282.05
531.632	33398.79
531.833	33746.94
532.035	33632.25
532.236	33558.53
532.437	33957.88
532.638	33382.4
532.839	33998.84
533.04	33853.44
533.241	33468.42
533.442	34119.67
533.643	33994.75
533.844	33984.51
534.045	34205.69
534.246	33669.12
534.447	34457.59
534.648	33931.26
534.849	34091
535.05	33937.4
535.251	34297.84
535.451	34023.42
535.652	34342.9
535.853	34084.86
536.054	34605.04
536.255	34129.91
536.456	33658.88
536.657	34861.04
536.857	34459.63
537.058	34119.67
537.259	34607.09
537.46	34127.86
537.66	34211.83
537.861	34232.31
538.062	34066.42
538.263	34465.78
538.463	34029.56
538.664	34166.77
538.865	34320.37
539.065	34201.59
539.266	34398.2
539.466	34207.73
539.667	33796.09
539.868	34482.16
540.068	34177.01
540.269	34205.69
540.469	34410.48
540.67	34117.62
540.87	34179.06
541.071	34045.94
541.271	34160.63
541.472	34488.31
541.672	34070.52
541.873	34035.7
542.073	33794.04
542.274	34387.96
542.474	34576.37
542.675	33812.48
542.875	34572.27
543.075	34318.32
543.276	33794.04
543.476	34314.23
543.676	33722.37
543.877	34428.91
544.077	34138.1
544.277	33982.46
544.478	34115.58
544.678	34373.62
544.878	34144.25
545.078	33957.88
545.279	33984.51
545.479	33961.98
545.679	34349.04
545.879	34248.69
546.079	34351.09
546.28	34088.95
546.48	33781.76
546.68	34177.01
546.88	34371.57
547.08	34328.56
547.28	33888.25
547.48	33890.3
547.68	33955.83
547.88	33990.65
548.081	34396.15
548.281	34457.59
548.481	33480.71
548.681	34289.65
548.881	34099.19
549.081	33787.9
549.28	33959.93
549.48	34093.05
549.68	34072.57
549.88	34648.05
550.08	33708.03
550.28	34369.52
550.48	33988.6
550.68	34142.2
550.88	33972.22
551.08	33705.98
551.279	34236.41
551.479	33689.6
551.679	34000.89
551.879	33900.54
552.079	34303.99
552.278	33882.11
552.478	34138.1
552.678	33898.49
552.878	33890.3
553.077	33701.89
553.277	33904.63
553.477	34052.09
553.676	33990.65
553.876	33769.47
554.076	33759.23
554.275	33845.24
554.475	33523.71
554.674	33941.5
554.874	33615.87
555.074	33486.85
555.273	33501.18
555.473	33677.31
555.672	33579.01
555.872	33722.37
556.071	33716.22
556.271	33871.87
556.47	33443.84
556.67	33177.61
556.869	33026.06
557.068	33449.99
557.268	32981
557.467	33140.74
557.667	32931.85
557.866	33339.4
558.065	33404.93
558.265	33198.09
558.464	33089.54
558.663	33187.85
558.863	32489.49
559.062	33648.64
559.261	32522.26
559.461	32962.57
559.66	32489.49
559.859	33042.44
560.058	32600.08
560.258	32722.96
560.457	32229.4
560.656	32473.1
560.855	32489.49
561.054	32565.26
561.253	32591.89
561.453	32536.59
561.652	32452.62
561.851	32583.69
562.05	32321.55
562.249	31981.59
562.448	32626.7
562.647	32221.2
562.846	31991.83
563.045	32069.65
563.244	31784.99
563.443	32327.7
563.642	31350.82
563.841	31827.99
564.04	31911.96
564.239	31909.91
564.438	31031.33
564.637	31723.55
564.836	31500.32
565.035	31285.28
565.234	31426.59
565.432	31246.37
565.631	31201.32
565.83	31369.25
566.029	31252.52
566.228	31209.51
566.427	31021.09
566.625	30740.52
566.824	30562.35
567.023	30941.22
567.222	30392.37
567.42	31094.82
567.619	30773.29
567.818	30709.8
568.016	30648.36
568.215	30558.25
568.414	30388.27
568.612	30720.04
568.811	30584.88
569.01	30476.33
569.208	29950.01
569.407	30099.51
569.605	29573.18
569.804	30144.56
570.002	29544.51
570.201	29947.96
570.4	29722.68
570.598	29550.65
570.797	29386.82
570.995	29440.06
571.193	29153.35
571.392	29737.02
571.59	29227.07
571.789	29128.77
571.987	29190.21
572.186	28979.27
572.384	28739.66
572.582	28760.14
572.781	28926.02
572.979	28491.85
573.177	28590.16
573.376	28551.24
573.574	28500.05
573.772	28256.34
573.971	28061.78
574.169	28313.68
574.367	27916.37
574.565	28100.69
574.763	27748.44
574.962	27801.69
575.16	27533.4
575.358	27506.78
575.556	27498.59
575.754	27750.49
575.952	27052.13
576.151	27672.67
576.349	27129.95
576.547	27162.72
576.745	27322.46
576.943	27322.46
577.141	27191.39
577.339	27086.95
577.537	26710.12
577.735	26769.51
577.933	26615.91
578.131	26587.24
578.329	26431.6
578.527	26548.33
578.725	26579.05
578.923	26218.61
579.121	26536.04
579.319	26321.01
579.516	26454.12
579.714	25952.37
579.912	25999.48
580.11	25956.47
580.308	25684.09
580.506	25694.33
580.704	25297.02
580.901	25675.9
581.099	25948.28
581.297	25430.14
581.495	25233.53
581.692	25387.13
581.89	25016.45
582.088	25356.41
582.285	24936.58
582.483	25634.94
582.681	24596.62
582.878	24940.68
583.076	24682.63
583.274	25020.55
583.471	24449.16
583.669	24709.25
583.866	24348.81
584.064	24471.69
584.262	24082.58
584.459	24737.93
584.657	24039.57
584.854	24469.64
585.052	24103.06
585.249	24047.76
585.447	24258.7
585.644	23873.68
585.841	24193.17
586.039	24148.11
586.236	23773.33
586.434	23601.3
586.631	23445.66
586.828	23414.94
587.026	23218.33
587.223	23494.81
587.42	23095.46
587.618	23351.45
587.815	23208.09
588.012	22706.34
588.21	22929.57
588.407	23226.53
588.604	22968.48
588.801	22739.11
588.999	22853.8
589.196	22618.28
589.393	22778.02
589.59	22366.38
589.787	22491.3
589.984	22296.75
590.182	22147.25
590.379	22415.53
590.576	22061.23
590.773	22286.51
590.97	22149.29
591.167	22231.21
591.364	21727.41
591.561	22020.27
591.758	22012.08
591.955	21637.3
592.152	21917.87
592.349	21704.88
592.546	21588.15
592.743	21657.78
592.94	21328.06
593.137	21385.4
593.334	21561.53
593.531	21039.29
593.727	21266.62
593.924	21317.82
594.121	20854.98
594.318	21274.81
594.515	20904.13
594.712	21008.58
594.908	20818.11
595.105	20773.06
595.302	20535.49
595.499	20709.57
595.696	20773.06
595.892	20437.19
596.089	20771.01
596.286	20297.93
596.482	20279.5
596.679	20592.84
596.876	20371.66
597.072	20289.74
597.269	19884.24
597.466	20132.04
597.662	20037.84
597.859	19986.64
598.055	19837.14
598.252	19779.79
598.448	19888.34
598.645	19798.23
598.841	19636.44
599.038	19783.89
599.234	19833.04
599.431	19294.43
599.627	19460.31
599.824	19636.44
600.02	19445.98
600.217	19288.28
600.413	19130.59
600.609	19036.38
600.806	19079.39
601.002	19106.01
601.198	18669.8
601.395	18811.1
601.591	18942.17
601.787	18698.47
601.984	18835.68
602.18	18966.75
602.376	18630.88
602.572	18661.6
602.769	18395.37
602.965	18098.41
603.161	18460.9
603.357	18352.36
603.553	18041.07
603.75	18155.75
603.946	17928.43
604.142	18114.8
604.338	17895.66
604.534	17967.34
604.73	17580.28
604.926	17735.92
605.122	18002.16
605.318	17664.24
605.514	17709.3
605.71	17254.65
605.906	17404.15
606.102	17611
606.298	17623.28
606.494	17342.71
606.69	17424.63
606.886	17385.72
607.082	17213.69
607.278	17060.09
607.474	16990.46
607.67	17131.77
607.866	16679.17
608.062	17234.17
608.257	16984.32
608.453	16822.53
608.649	16978.17
608.845	16759.04
609.041	16722.18
609.236	16718.08
609.432	16654.59
609.628	16601.35
609.824	16843.01
610.019	16435.46
610.215	16474.37
610.411	16318.73
610.606	16290.06
610.802	16355.59
610.998	16294.15
611.193	16199.94
611.389	16163.08
611.584	16064.78
611.78	16009.48
611.976	16021.77
612.171	16034.06
612.367	15976.72
612.562	15890.7
612.758	15534.35
612.953	15501.59
613.149	15843.6
613.344	15714.58
613.539	15989
613.735	15782.16
613.93	15616.27
614.126	15640.85
614.321	15767.82
614.517	15696.14
614.712	15434
614.907	15286.55
615.103	15132.95
615.298	15124.76
615.493	15540.5
615.688	15001.88
615.884	15544.59
616.079	14950.68
616.274	15096.09
616.47	15323.41
616.665	15235.35
616.86	14911.77
617.055	15057.18
617.25	14969.12
617.445	15034.65
617.641	14559.52
617.836	15071.51
618.031	14799.13
618.226	14682.4
618.421	14600.48
618.616	14653.73
618.811	14551.33
619.006	14520.61
619.201	14297.38
619.396	14723.36
619.591	14356.77
619.786	14043.43
619.981	14098.73
620.176	14139.69
620.371	14022.95
620.566	13947.18
620.761	13766.96
620.956	13973.8
621.151	13805.87
621.346	13750.57
621.541	13515.06
621.735	13572.4
621.93	13601.07
622.125	13457.71
622.32	13062.46
622.515	13271.35
622.709	13234.49
622.904	13203.77
623.099	13154.62
623.294	13119.8
623.488	12949.82
623.683	12833.08
623.878	12826.94
624.072	12822.84
624.267	12824.89
624.462	12677.44
624.656	12398.91
624.851	12591.42
625.046	12585.28
625.24	12339.52
625.435	12136.77
625.629	12413.25
625.824	12282.18
626.018	12132.68
626.213	11874.63
626.407	11819.34
626.602	11893.07
626.796	11964.75
626.991	11745.61
627.185	11778.38
627.38	11790.67
627.574	11774.28
627.768	11506
627.963	11639.12
628.157	11344.21
628.352	11655.5
628.546	11137.37
628.74	11288.92
628.935	11225.43
629.129	11012.44
629.323	10948.95
629.517	10979.67
629.712	11080.02
629.906	10883.42
630.1	10811.74
630.294	10961.24
630.489	10627.42
630.683	10576.22
630.877	10410.34
631.071	10500.45
631.265	10570.08
631.459	10537.31
631.653	10522.98
631.848	10668.38
632.042	10240.36
632.236	10301.79
632.43	10264.93
632.624	10084.71
632.818	10017.13
633.012	9967.98
633.206	9982.31
633.4	10010.98
633.594	9806.19
633.788	9890.15
633.982	9935.21
634.176	9818.47
634.369	9613.68
634.563	9775.47
634.757	9542
634.951	9412.98
635.145	9382.26
635.339	9585.01
635.533	9347.44
635.726	9322.87
635.92	9277.81
636.114	9365.87
636.308	9228.66
636.501	9279.86
636.695	9034.1
636.889	9107.83
637.083	8874.36
637.276	8857.98
637.47	8939.9
637.664	8741.24
637.857	8946.04
638.051	8860.02
638.244	8636.8
638.438	8636.8
638.632	8538.49
638.825	8595.84
639.019	8458.62
639.212	8493.44
639.406	8524.16
639.599	8278.4
639.793	8341.89
639.986	8130.95
640.18	8302.98
640.373	8309.12
640.567	8092.04
640.76	8159.62
640.954	8178.05
641.147	8010.12
641.34	8022.41
641.534	7920.01
641.727	7846.28
641.92	7934.34
642.114	8003.97
642.307	7633.29
642.5	7915.91
642.694	7559.56
642.887	7614.86
643.08	7629.2
643.273	7422.35
643.467	7496.08
643.66	7479.69
643.853	7319.95
644.046	7377.3
644.239	7342.48
644.432	7174.55
644.626	7219.6
644.819	7358.86
645.012	7172.5
645.205	7256.47
645.398	6990.23
645.591	7068.05
645.784	6988.18
645.977	6990.23
646.17	6844.82
646.363	6881.69
646.556	6793.62
646.749	6810.01
646.942	6814.1
647.135	6664.6
647.328	6721.95
647.521	6435.23
647.714	6437.28
647.907	6429.09
648.099	6472.09
648.292	6500.76
648.485	6592.92
648.678	6295.97
648.871	6461.85
649.064	6267.3
649.256	6304.16
649.449	6226.34
649.642	6050.21
649.835	6193.57
650.027	6099.36
650.22	6150.56
650.413	5956.01
650.605	5972.39
650.798	5818.79
650.991	5802.41
651.183	5906.85
651.376	5843.37
651.568	5972.39
651.761	5722.54
651.954	5632.43
652.146	5820.84
652.339	5806.5
652.531	5753.26
652.724	5517.74
652.916	5546.41
653.109	5493.16
653.301	5493.16
653.494	5550.51
653.686	5583.27
653.879	5448.11
654.071	5378.48
654.263	5358
654.456	5308.85
654.648	5200.3
654.84	5196.21
655.033	5376.43
655.225	5124.53
655.417	5097.91
655.61	5153.2
655.802	5038.52
655.994	5155.25
656.186	4977.08
656.379	5163.44
656.571	4975.03
656.763	4868.53
656.955	4923.83
657.148	4723.13
657.34	5061.04
657.532	4786.61
657.724	4774.33
657.916	4639.16
658.108	4874.68
658.3	4860.34
658.492	4577.72
658.684	4798.9
658.876	4622.78
659.068	4557.24
659.26	4696.5
659.452	4592.06
659.644	4504
659.836	4673.98
660.028	4397.5
660.22	4256.19
660.412	4522.43
660.604	4469.18
660.796	4282.81
660.988	4297.15
661.18	4348.35
661.372	4325.82
661.563	4262.33
661.755	4346.3
661.947	4319.68
662.139	4245.95
662.331	4180.42
662.522	4239.81
662.714	4012.48
662.906	4028.87
663.097	4172.22
663.289	3979.72
663.481	3887.56
663.673	3946.95
663.864	4004.29
664.056	3844.55
664.247	3905.99
664.439	3893.7
664.631	3875.27
664.822	3711.43
665.014	3819.97
665.205	3852.74
665.397	3932.61
665.588	3875.27
665.78	3606.98
665.971	3643.85
666.163	3588.55
666.354	3631.56
666.546	3672.52
666.737	3609.03
666.929	3629.51
667.12	3590.6
667.311	3457.48
667.503	3621.32
667.694	3350.99
667.885	3570.12
668.077	3512.78
668.268	3584.46
668.459	3459.53
668.651	3467.72
668.842	3463.63
669.033	3471.82
669.224	3451.34
669.416	3434.96
669.607	3273.17
669.798	3215.82
669.989	3328.46
670.18	3389.9
670.371	3322.32
670.563	3312.08
670.754	3353.04
670.945	3242.45
671.136	3183.06
671.327	3146.19
671.518	3154.38
671.709	3340.75
671.9	3248.59
672.091	3248.59
672.282	3088.85
672.473	3115.47
672.664	3146.19
672.855	3092.94
673.046	3125.71
673.237	3051.99
673.428	3193.3
673.619	3103.18
673.809	3054.03
674	2982.35
674.191	3090.9
674.382	2927.06
674.573	2912.72
674.764	3092.94
674.954	3135.95
675.145	3099.09
675.336	2920.92
675.527	2945.49
675.717	3064.27
675.908	2931.16
676.099	2888.15
676.289	2941.4
676.48	2857.43
676.671	2906.58
676.861	2814.42
677.052	2888.15
677.243	2892.24
677.433	2806.23
677.624	3015.12
677.814	2845.14
678.005	2824.66
678.195	2814.42
678.386	2863.57
678.576	2800.09
678.767	2718.17
678.957	2839
679.148	2734.55
679.338	2693.59
679.529	2818.52
679.719	2755.03
679.909	2709.97
680.1	2679.26
680.29	2742.74
680.481	2750.93
680.671	2697.69
680.861	2730.45
681.052	2701.78
681.242	2826.71
681.432	2712.02
681.622	2669.02
681.813	2748.89
682.003	2691.54
682.193	2697.69
682.383	2617.82
682.573	2705.88
682.764	2697.69
682.954	2648.54
683.144	2724.31
683.334	2621.91
683.524	2732.5
683.714	2628.06
683.904	2656.73
684.094	2654.68
684.284	2513.37
684.474	2652.63
684.664	2617.82
684.854	2533.85
685.044	2564.57
685.234	2529.75
685.424	2626.01
685.614	2539.99
685.804	2550.23
685.994	2484.7
686.184	2593.24
686.374	2466.27
686.564	2603.48
686.753	2677.21
686.943	2400.73
687.133	2517.47
687.323	2429.4
687.513	2496.99
687.702	2398.68
687.892	2429.4
688.082	2443.74
688.272	2492.89
688.461	2587.1
688.651	2529.75
688.841	2466.27
689.03	2517.47
689.22	2482.65
689.41	2439.64
689.599	2507.23
689.789	2539.99
689.979	2363.87
690.168	2447.83
690.358	2394.59
690.547	2466.27
690.737	2490.84
690.926	2566.62
691.116	2265.57
691.305	2470.36
691.495	2388.44
691.684	2394.59
691.874	2433.5
692.063	2460.12
692.252	2349.53
692.442	2492.89
692.631	2361.82
692.82	2474.46
693.01	2417.12
693.199	2402.78
693.388	2355.68
693.578	2273.76
693.767	2400.73
693.956	2394.59
694.146	2378.2
694.335	2353.63
694.524	2365.92
694.713	2290.14
694.902	2406.88
695.092	2359.77
695.281	2488.79
695.47	2359.77
695.659	2306.52
695.848	2361.82
696.037	2404.83
696.226	2392.54
696.415	2380.25
696.604	2443.74
696.793	2380.25
696.982	2382.3
697.171	2355.68
697.36	2357.72
697.549	2410.97
697.738	2365.92
697.927	2421.21
698.116	2443.74
698.305	2380.25
698.494	2329.05
698.683	2306.52
698.872	2300.38
699.061	2410.97
699.25	2300.38
699.438	2376.16
699.627	2404.83
699.816	2419.16
700.005	2294.24
700.193	2251.23
700.382	2230.75
700.571	2304.48
700.76	2384.35
700.948	2386.4
701.137	2275.81
701.326	2361.82
701.514	2372.06
701.703	2351.58
701.892	2288.09
702.08	2333.15
702.269	2210.27
702.457	2415.07
702.646	2265.57
702.834	2222.56
703.023	2261.47
703.212	2265.57
703.4	2269.66
703.589	2240.99
703.777	2349.53
703.965	2181.6
704.154	2200.03
704.342	2320.86
704.531	2261.47
704.719	2165.21
704.907	2296.28
705.096	2163.17
705.284	2222.56
705.472	2329.05
705.661	2191.84
705.849	2157.02
706.037	2195.93
706.226	2273.76
706.414	2189.79
706.602	2097.63
706.79	2142.69
706.979	2263.52
707.167	2099.68
707.355	2095.58
707.543	2038.24
707.731	2120.16
707.919	2103.78
708.107	2128.35
708.296	2175.45
708.484	2132.45
708.672	1995.23
708.86	2132.45
709.048	2075.1
709.236	2062.82
709.424	1989.09
709.612	2159.07
709.8	2028
709.988	2109.92
710.176	2032.1
710.364	1980.9
710.551	1989.09
710.739	2040.29
710.927	2111.97
711.115	1886.69
711.303	2036.19
711.491	2034.14
711.679	2011.62
711.866	2056.67
712.054	1946.08
712.242	1952.23
712.43	1976.8
712.617	1905.12
712.805	1946.08
712.993	1927.65
713.181	1868.26
713.368	2009.57
713.556	1909.22
713.744	1855.97
713.931	1964.51
714.119	1976.8
714.306	1864.16
714.494	1835.49
714.682	1868.26
714.869	1858.02
715.057	1911.27
715.244	1903.07
715.432	1868.26
715.619	1870.31
715.807	1892.84
715.994	1858.02
716.182	1890.79
716.369	1845.73
716.556	1778.15
716.744	1841.64
716.931	1772
717.119	1774.05
717.306	1765.86
717.493	1706.47
717.681	1862.12
717.868	1790.44
718.055	1659.37
718.242	1741.29
718.43	1788.39
718.617	1753.57
718.804	1782.24
718.991	1685.99
719.179	1647.08
719.366	1765.86
719.553	1663.46
719.74	1593.83
719.927	1688.04
720.114	1602.02
720.301	1669.61
720.488	1651.17
720.676	1690.09
720.863	1632.74
721.05	1608.17
721.237	1602.02
721.424	1612.26
721.611	1679.85
721.798	1575.4
721.985	1556.97
722.172	1505.77
722.358	1599.98
722.545	1653.22
722.732	1583.59
722.919	1587.69
723.106	1569.26
723.293	1571.3
723.48	1548.78
723.667	1454.57
723.853	1548.78
724.04	1569.26
724.227	1509.86
724.414	1505.77
724.6	1569.26
724.787	1616.36
724.974	1407.47
725.161	1491.43
725.347	1524.2
725.534	1573.35
725.72	1491.43
725.907	1497.58
726.094	1460.71
726.28	1493.48
726.467	1468.91
726.653	1389.03
726.84	1585.64
727.027	1399.27
727.213	1448.43
727.4	1442.28
727.586	1542.63
727.773	1440.23
727.959	1460.71
728.145	1407.47
728.332	1432.04
728.518	1538.54
728.705	1438.19
728.891	1581.54
729.077	1436.14
729.264	1407.47
729.45	1454.57
729.636	1327.6
729.823	1362.41
730.009	1378.79
730.195	1403.37
730.382	1417.71
730.568	1409.51
730.754	1335.79
730.94	1327.6
731.126	1360.36
731.313	1296.88
731.499	1323.5
731.685	1429.99
731.871	1321.45
732.057	1307.12
732.243	1399.27
732.429	1370.6
732.615	1466.86
732.801	1286.64
732.987	1303.02
733.173	1260.01
733.359	1321.45
733.545	1264.11
733.731	1346.03
733.917	1405.42
734.103	1303.02
734.289	1362.41
734.475	1280.49
734.661	1292.78
734.847	1321.45
735.033	1288.68
735.219	1346.03
735.404	1219.05
735.59	1210.86
735.776	1296.88
735.962	1249.77
736.148	1212.91
736.333	1266.16
736.519	1194.48
736.705	1110.51
736.89	1278.44
737.076	1192.43
737.262	1245.68
737.447	1182.19
737.633	1165.81
737.819	1315.31
738.004	1225.2
738.19	1128.94
738.375	1178.09
738.561	1198.57
738.747	1190.38
738.932	1167.85
739.118	1237.49
739.303	1128.94
739.489	1124.85
739.674	1182.19
739.859	1077.74
740.045	1200.62
740.23	1194.48
740.416	1139.18
740.601	1192.43
740.786	1182.19
740.972	1055.22
741.157	1155.57
741.342	1077.74
741.528	1106.42
741.713	1139.18
741.898	1102.32
742.084	1087.98
742.269	1135.09
742.454	1104.37
742.639	1159.66
742.824	989.68
743.01	1065.46
743.195	1133.04
743.38	987.63
743.565	1014.26
743.75	1071.6
743.935	1030.64
744.12	1061.36
744.305	1071.6
744.49	963.06
744.675	958.96
744.86	1018.35
745.045	1053.17
745.23	940.53
745.415	1042.93
745.6	1096.18
745.785	928.24
745.97	981.49
746.155	1051.12
746.34	1001.97
746.525	915.95
746.71	979.44
746.895	944.63
747.079	928.24
747.264	942.58
747.449	1018.35
747.634	948.72
747.819	950.77
748.003	911.86
748.188	862.71
748.373	963.06
748.557	905.71
748.742	997.87
748.927	885.23
749.111	879.09
749.296	940.53
749.481	829.94
749.665	827.89
749.85	913.91
750.034	805.36
750.219	883.19
750.404	940.53
750.588	791.03
750.773	862.71
750.957	813.56
751.141	872.95
751.326	870.9
751.51	752.12
751.695	809.46
751.879	782.84
752.064	858.61
752.248	834.04
752.432	776.69
752.617	817.65
752.801	748.02
752.985	807.41
753.17	805.36
753.354	807.41
753.538	748.02
753.722	774.64
753.907	719.35
754.091	715.25
754.275	719.35
754.459	809.46
754.643	748.02
754.828	715.25
755.012	717.3
755.196	729.59
755.38	731.64
755.564	719.35
755.748	678.39
755.932	733.68
756.116	676.34
756.3	696.82
756.484	762.36
756.668	678.39
756.852	655.86
757.036	666.1
757.22	731.64
757.404	582.14
757.588	690.68
757.772	702.97
757.956	692.73
758.14	586.23
758.323	678.39
758.507	608.76
758.691	692.73
758.875	686.58
759.059	643.57
759.242	588.28
759.426	578.04
759.61	610.81
759.794	584.18
759.977	641.53
760.161	586.23
760.345	573.94
760.528	637.43
760.712	596.47
760.895	600.57
761.079	518.65
761.263	592.37
761.446	504.31
761.63	535.03
761.813	600.57
761.997	555.51
762.18	506.36
762.364	557.56
762.547	500.22
762.731	532.98
762.914	537.08
763.098	600.57
763.281	514.55
763.464	610.81
763.648	461.3
763.831	565.75
764.015	524.79
764.198	586.23
764.381	612.85
764.564	549.37
764.748	514.55
764.931	584.18
765.114	532.98
765.297	578.04
765.481	510.46
765.664	524.79
765.847	518.65
766.03	483.83
766.213	489.98
766.397	498.17
766.58	477.69
766.763	500.22
766.946	449.02
767.129	492.02
767.312	530.94
767.495	543.22
767.678	532.98
767.861	512.5
768.044	528.89
768.227	543.22
768.41	532.98
768.593	455.16
768.776	502.26
768.959	528.89
769.142	514.55
769.324	444.92
769.507	461.3
769.69	539.13
769.873	483.83
770.056	438.78
770.239	397.82
770.421	430.59
770.604	471.54
770.787	498.17
770.97	492.02
771.152	526.84
771.335	463.35
771.518	496.12
771.7	520.7
771.883	481.78
772.066	379.39
772.248	457.21
772.431	481.78
772.613	457.21
772.796	412.15
772.978	420.35
773.161	459.26
773.343	397.82
773.526	356.86
773.708	422.39
773.891	406.01
774.073	434.68
774.256	444.92
774.438	412.15
774.621	412.15
774.803	467.45
774.985	369.15
775.168	485.88
775.35	403.96
775.532	363
775.715	369.15
775.897	467.45
776.079	354.81
776.261	434.68
776.444	473.59
776.626	444.92
776.808	489.98
776.99	354.81
777.173	365.05
777.355	487.93
777.537	309.76
777.719	387.58
777.901	381.43
778.083	393.72
778.265	328.19
778.447	379.39
778.629	307.71
778.811	428.54
778.993	307.71
779.175	344.57
779.357	309.76
779.539	350.71
779.721	270.84
779.903	406.01
780.085	297.47
780.267	313.85
780.449	369.15
780.631	365.05
780.812	272.89
780.994	209.4
781.176	313.85
781.358	266.75
781.54	383.48
781.721	305.66
781.903	311.8
782.085	238.08
782.267	303.61
782.448	211.45
782.63	322.04
782.812	258.56
782.993	264.7
783.175	291.32
783.357	301.56
783.538	324.09
783.72	248.32
783.901	303.61
784.083	295.42
784.264	317.95
784.446	242.17
784.627	233.98
784.809	219.64
784.99	193.02
785.172	250.36
785.353	207.36
785.535	299.52
785.716	184.83
785.897	264.7
786.079	291.32
786.26	268.8
786.441	313.85
786.623	248.32
786.804	281.08
786.985	248.32
787.167	236.03
787.348	276.99
787.529	272.89
787.71	178.69
787.891	225.79
788.073	250.36
788.254	238.08
788.435	231.93
788.616	231.93
788.797	211.45
788.978	242.17
789.159	283.13
789.34	248.32
789.522	229.88
789.703	195.07
789.884	219.64
790.065	281.08
790.246	156.16
790.427	209.4
790.607	225.79
790.788	221.69
790.969	168.45
791.15	186.88
791.331	166.4
791.512	143.87
791.693	176.64
791.874	180.73
792.054	190.97
792.235	135.68
792.416	188.93
792.597	240.12
792.778	186.88
792.958	217.6
793.139	190.97
793.32	231.93
793.5	119.29
793.681	174.59
793.862	168.45
794.042	231.93
794.223	248.32
794.404	78.33
794.584	152.06
794.765	137.73
794.945	133.63
795.126	170.49
795.306	270.84
795.487	127.49
795.667	100.86
795.848	127.49
796.028	174.59
796.209	176.64
796.389	84.48
796.57	207.36
796.75	193.02
796.93	193.02
797.111	125.44
797.291	111.1
797.471	133.63
797.652	172.54
797.832	154.11
798.012	92.67
798.192	174.59
798.373	133.63
798.553	104.96
798.733	162.3
798.913	53.76
799.093	137.73
799.274	164.35
799.454	127.49
799.634	129.53
799.814	92.67
799.994	84.48
800.174	35.33
800.354	152.06
800.534	117.25
800.714	188.93
800.894	125.44
801.074	133.63
801.254	78.33
801.434	135.68
801.614	135.68
801.794	109.05
801.974	344.57
802.154	164.35
802.334	176.64
802.514	92.67
802.693	119.29
802.873	217.6
803.053	190.97
803.233	137.73
803.413	102.91
803.592	160.25
803.772	111.1
803.952	100.86
804.131	80.38
804.311	61.95
804.491	61.95
804.67	70.14
804.85	23.04
805.03	61.95
805.209	129.53
805.389	68.09
805.568	86.53
805.748	143.87
805.928	133.63
806.107	125.44
806.287	61.95
806.466	137.73
806.646	109.05
806.825	147.97
807.004	107.01
807.184	94.72
807.363	131.58
807.543	158.21
807.722	143.87
807.901	127.49
808.081	147.97
808.26	59.9
808.439	147.97
808.619	123.39
808.798	119.29
808.977	100.86
809.156	127.49
809.336	98.81
809.515	25.09
809.694	82.43
809.873	154.11
810.052	164.35
810.231	53.76
810.411	109.05
810.59	-5.63
810.769	84.48
810.948	86.53
811.127	84.48
811.306	172.54
811.485	104.96
811.664	92.67
811.843	147.97
812.022	92.67
812.201	98.81
812.38	84.48
812.559	100.86
812.737	127.49
812.916	70.14
813.095	72.19
813.274	119.29
813.453	68.09
813.632	111.1
813.811	68.09
813.989	84.48
814.168	82.43
814.347	12.8
814.526	76.29
814.704	-5.63
814.883	115.2
815.062	102.91
815.24	145.92
815.419	8.7
815.598	109.05
815.776	80.38
815.955	76.29
816.133	10.75
816.312	35.33
816.49	74.24
816.669	76.29
816.847	102.91
817.026	80.38
817.204	117.25
817.383	51.71
817.561	8.7
817.74	61.95
817.918	31.23
818.097	127.49
818.275	59.9
818.453	113.15
818.632	59.9
818.81	96.77
818.988	18.94
819.167	76.29
819.345	51.71
819.523	92.67
819.701	55.81
819.879	86.53
820.058	31.23
820.236	61.95
820.414	82.43
820.592	35.33
820.77	137.73
820.948	12.8
821.127	18.94
821.305	84.48
821.483	-17.92
821.661	84.48
821.839	2.56
822.017	37.38
822.195	64
822.373	119.29
822.551	31.23
822.729	100.86
822.907	-22.02
823.085	96.77
823.262	109.05
823.44	84.48
823.618	76.29
823.796	92.67
823.974	37.38
824.152	76.29
824.329	121.34
824.507	41.47
824.685	72.19
824.863	78.33
825.04	59.9
825.218	70.14
825.396	29.18
825.574	76.29
825.751	86.53
825.929	115.2
826.107	45.57
826.284	119.29
826.462	59.9
826.639	80.38
826.817	12.8
826.994	82.43
827.172	37.38
827.349	96.77
827.527	96.77
827.704	25.09
827.882	80.38
828.059	2.56
828.237	53.76
828.414	37.38
828.591	39.42
828.769	109.05
828.946	-54.78
829.124	47.62
829.301	55.81
829.478	107.01
829.655	29.18
829.833	64
830.01	49.66
830.187	41.47
830.364	20.99
830.542	98.81
830.719	12.8
830.896	68.09
831.073	100.86
831.25	74.24
831.427	90.62
831.604	94.72
831.782	76.29
831.959	51.71
832.136	72.19
832.313	59.9
832.49	0.51
832.667	43.52
832.844	45.57
833.021	45.57
833.198	-9.73
833.374	51.71
833.551	20.99
833.728	35.33
833.905	66.05
834.082	29.18
834.259	-65.02
834.436	141.82
834.612	14.85
834.789	53.76
834.966	43.52
835.143	86.53
835.319	123.39
835.496	76.29
835.673	68.09
835.85	37.38
836.026	82.43
836.203	102.91
836.38	109.05
836.556	-1.54
836.733	18.94
836.909	92.67
837.086	64
837.262	10.75
837.439	59.9
837.616	76.29
837.792	10.75
837.968	35.33
838.145	-40.45
838.321	10.75
838.498	20.99
838.674	-9.73
838.851	0.51
839.027	27.14
839.203	27.14
839.38	43.52
839.556	45.57
839.732	78.33
839.909	70.14
840.085	14.85
840.261	31.23
840.437	-13.82
840.614	6.66
840.79	12.8
840.966	33.28
841.142	104.96
841.318	-36.35
841.494	76.29
841.671	14.85
841.847	33.28
842.023	12.8
842.199	96.77
842.375	-13.82
842.551	-1.54
842.727	64
842.903	-7.68
843.079	61.95
843.255	4.61
843.431	70.14
843.607	-30.21
843.783	8.7
843.959	27.14
844.134	-48.64
844.31	92.67
844.486	84.48
844.662	-34.3
844.838	-30.21
845.013	-5.63
845.189	27.14
845.365	25.09
845.541	111.1
845.716	-46.59
845.892	27.14
846.068	72.19
846.244	35.33
846.419	45.57
846.595	-3.58
846.77	43.52
846.946	41.47
847.122	-1.54
847.297	53.76
847.473	100.86
847.648	-46.59
847.824	29.18
847.999	-24.06
848.175	23.04
848.35	45.57
848.526	6.66
848.701	143.87
848.876	25.09
849.052	66.05
849.227	20.99
849.403	53.76
849.578	43.52
849.753	45.57
849.929	8.7
850.104	23.04
850.279	29.18
850.454	61.95
850.63	-7.68
850.805	39.42
850.98	-15.87
851.155	37.38
851.33	31.23
851.505	0.51
851.681	12.8
851.856	4.61
852.031	57.86
852.206	25.09
852.381	66.05
852.556	12.8
852.731	18.94
852.906	-48.64
853.081	-17.92
853.256	33.28
853.431	10.75
853.606	-22.02
853.781	10.75
853.956	-11.78
854.131	-3.58
854.305	94.72
854.48	-30.21
854.655	10.75
854.83	76.29
855.005	41.47
855.18	51.71
855.354	-3.58
855.529	23.04
855.704	-5.63
855.879	14.85
856.053	59.9
856.228	61.95
856.403	0.51
856.577	25.09
856.752	35.33
856.926	45.57
857.101	-9.73
857.276	18.94
857.45	-9.73
857.625	53.76
857.799	8.7
857.974	-22.02
858.148	-19.97
858.323	12.8
858.497	-17.92
858.672	-30.21
858.846	-22.02
859.02	92.67
859.195	-22.02
859.369	-7.68
859.543	-34.3
859.718	12.8
859.892	-7.68
860.066	-71.17
860.241	18.94
860.415	-36.35
860.589	31.23
860.763	86.53
860.938	2.56
861.112	6.66
861.286	64
861.46	39.42
861.634	53.76
861.808	64
861.982	55.81
862.157	27.14
862.331	4.61
862.505	-75.26
862.679	-32.26
862.853	35.33
863.027	104.96
863.201	-19.97
863.375	61.95
863.549	70.14
863.722	68.09
863.896	100.86
864.07	-5.63
864.244	39.42
864.418	-13.82
864.592	107.01
864.766	8.7
864.939	64
865.113	41.47
865.287	4.61
865.461	68.09
865.634	37.38
865.808	14.85
865.982	84.48
866.156	16.9
866.329	-85.5
866.503	-34.3
866.676	-17.92
866.85	51.71
867.024	-1.54
867.197	35.33
867.371	-1.54
867.544	-48.64
867.718	-48.64
867.891	70.14
868.065	-28.16
868.238	16.9
868.412	-15.87
868.585	-13.82
868.759	59.9
868.932	-7.68
869.105	51.71
869.279	14.85
869.452	-3.58
869.625	12.8
869.799	0.51
869.972	18.94
870.145	-22.02
870.319	-32.26
870.492	12.8
870.665	25.09
870.838	10.75
871.011	-1.54
871.185	31.23
871.358	8.7
871.531	84.48
871.704	37.38
871.877	-5.63
872.05	20.99
872.223	-9.73
872.396	18.94
872.569	-73.21
872.742	-50.69
872.915	55.81
873.088	-30.21
873.261	61.95
873.434	-13.82
873.607	41.47
873.78	-58.88
873.953	-3.58
874.126	-19.97
874.299	107.01
874.471	10.75
874.644	29.18
874.817	51.71
874.99	31.23
875.163	12.8
875.335	47.62
875.508	33.28
875.681	80.38
875.853	10.75
876.026	-3.58
876.199	-17.92
876.371	39.42
876.544	-32.26
876.717	-48.64
876.889	6.66
877.062	27.14
877.234	-54.78
877.407	23.04
877.579	-19.97
877.752	16.9
877.924	2.56
878.097	4.61
878.269	-3.58
878.442	35.33
878.614	-1.54
878.786	-15.87
878.959	10.75
879.131	51.71
879.303	-38.4
879.476	4.61
879.648	41.47
879.82	-26.11
879.993	23.04
880.165	66.05
880.337	-22.02
880.509	61.95
880.681	35.33
880.854	18.94
881.026	14.85
881.198	2.56
881.37	23.04
881.542	-19.97
881.714	12.8
881.886	10.75
882.058	43.52
882.23	20.99
882.402	-99.84
882.574	45.57
882.746	37.38
882.918	20.99
883.09	16.9
883.262	-75.26
883.434	-3.58
883.606	43.52
883.778	14.85
883.95	-75.26
884.122	31.23
884.293	8.7
884.465	-52.74
884.637	35.33
884.809	-3.58
884.98	127.49
885.152	35.33
885.324	14.85
885.496	-3.58
885.667	2.56
885.839	45.57
886.011	-54.78
886.182	27.14
886.354	14.85
886.525	6.66
886.697	-9.73
886.869	4.61
887.04	6.66
887.212	27.14
887.383	18.94
887.555	-22.02
887.726	-3.58
887.897	84.48
888.069	33.28
888.24	4.61
888.412	51.71
888.583	4.61
888.754	45.57
888.926	-48.64
889.097	43.52
889.268	20.99
889.44	-11.78
889.611	-13.82
889.782	-11.78
889.953	-42.5
890.125	45.57
890.296	57.86
890.467	29.18
890.638	-5.63
890.809	27.14
890.98	31.23
891.151	10.75
891.323	6.66
891.494	2.56
891.665	72.19
891.836	66.05
892.007	80.38
892.178	-13.82
892.349	29.18
892.52	-30.21
892.691	107.01
892.862	-22.02
893.032	0.51
893.203	-1.54
893.374	-28.16
893.545	29.18
893.716	-34.3
893.887	-17.92
894.057	72.19
894.228	33.28
894.399	51.71
894.57	-32.26
894.74	102.91
894.911	0.51
895.082	10.75
895.253	-19.97
895.423	-17.92
895.594	-38.4
895.764	6.66
895.935	6.66
896.106	-36.35
896.276	27.14
896.447	2.56
896.617	-67.07
896.788	33.28
896.958	49.66
897.129	-11.78
897.299	-5.63
897.47	2.56
897.64	76.29
897.81	-13.82
897.981	-26.11
898.151	-15.87
898.322	-1.54
898.492	-26.11
898.662	-38.4
898.832	76.29
899.003	45.57
899.173	72.19
899.343	14.85
899.513	29.18
