Data from USB4F104151__196__13-59-39-747.txt Node

Date: Thu Mar 13 13:59:39 EDT 2025
User: louis
Spectrometer: USB4F10415
Trigger mode: 4
Integration Time (sec): 1.000000E-2
Scans to average: 1
Electric dark correction enabled: true
Nonlinearity correction enabled: false
Boxcar width: 0
XAxis mode: Wavelengths
Number of Pixels in Spectrum: 3648
>>>>>Begin Spectral Data<<<<<
178.204	-89.26
178.424	-89.26
178.644	-89.26
178.864	-5.29
179.084	-105.64
179.304	-13.48
179.524	31.57
179.744	-68.78
179.964	31.57
180.184	-50.35
180.404	19.29
180.624	-15.53
180.844	-17.58
181.064	0.85
181.283	7
181.503	29.52
181.723	45.91
181.943	-83.11
182.163	37.72
182.383	-74.92
182.602	58.2
182.822	-25.77
183.042	2.9
183.262	0.85
183.482	-15.53
183.701	-7.34
183.921	39.76
184.141	29.52
184.361	47.96
184.58	-9.39
184.8	-38.06
185.02	-29.87
185.239	-3.24
185.459	11.09
185.679	27.48
185.898	11.09
186.118	70.48
186.338	-19.63
186.557	35.67
186.777	11.09
186.997	-11.43
187.216	-56.49
187.436	45.91
187.655	11.09
187.875	37.72
188.095	-1.19
188.314	35.67
188.534	39.76
188.753	-79.02
188.973	39.76
189.192	19.29
189.412	-58.54
189.631	50
189.851	9.05
190.07	-27.82
190.29	7
190.509	-50.35
190.729	84.82
190.948	31.57
191.168	84.82
191.387	47.96
191.607	-5.29
191.826	-17.58
192.045	11.09
192.265	-48.3
192.484	-11.43
192.704	0.85
192.923	-15.53
193.142	15.19
193.362	54.1
193.581	11.09
193.8	21.33
194.02	64.34
194.239	-33.96
194.458	-54.44
194.678	-23.72
194.897	-42.15
195.116	-48.3
195.335	-31.91
195.555	-19.63
195.774	37.72
195.993	13.14
196.212	41.81
196.432	-58.54
196.651	17.24
196.87	39.76
197.089	-25.77
197.308	64.34
197.528	64.34
197.747	50
197.966	-33.96
198.185	56.15
198.404	-7.34
198.623	-31.91
198.842	13.14
199.062	-56.49
199.281	31.57
199.5	-38.06
199.719	31.57
199.938	-21.67
200.157	15.19
200.376	41.81
200.595	43.86
200.814	-15.53
201.033	-1.19
201.252	-40.11
201.471	17.24
201.69	-33.96
201.909	13.14
202.128	-56.49
202.347	0.85
202.566	23.38
202.785	43.86
203.004	68.44
203.223	45.91
203.442	15.19
203.661	88.92
203.879	7
204.098	7
204.317	39.76
204.536	39.76
204.755	70.48
204.974	31.57
205.193	39.76
205.411	47.96
205.63	72.53
205.849	66.39
206.068	25.43
206.287	-15.53
206.505	-56.49
206.724	-13.48
206.943	15.19
207.162	-62.63
207.381	142.16
207.599	23.38
207.818	-11.43
208.037	-31.91
208.255	-17.58
208.474	50
208.693	21.33
208.911	31.57
209.13	43.86
209.349	17.24
209.567	11.09
209.786	50
210.005	39.76
210.223	56.15
210.442	60.24
210.661	37.72
210.879	13.14
211.098	11.09
211.316	66.39
211.535	84.82
211.753	-23.72
211.972	13.14
212.191	-15.53
212.409	58.2
212.628	7
212.846	-56.49
213.065	-5.29
213.283	37.72
213.502	25.43
213.72	-7.34
213.938	-42.15
214.157	-21.67
214.375	-9.39
214.594	31.57
214.812	43.86
215.031	-11.43
215.249	15.19
215.467	-46.25
215.686	-13.48
215.904	33.62
216.122	-5.29
216.341	74.58
216.559	41.81
216.778	74.58
216.996	2.9
217.214	33.62
217.432	25.43
217.651	84.82
217.869	88.92
218.087	64.34
218.306	41.81
218.524	23.38
218.742	23.38
218.96	-38.06
219.179	66.39
219.397	50
219.615	2.9
219.833	21.33
220.051	25.43
220.27	7
220.488	0.85
220.706	17.24
220.924	-46.25
221.142	74.58
221.36	0.85
221.578	-17.58
221.796	4.95
222.015	25.43
222.233	-5.29
222.451	15.19
222.669	-1.19
222.887	99.16
223.105	-13.48
223.323	72.53
223.541	7
223.759	37.72
223.977	-1.19
224.195	15.19
224.413	2.9
224.631	52.05
224.849	2.9
225.067	41.81
225.285	-19.63
225.503	62.29
225.721	27.48
225.939	-33.96
226.157	-62.63
226.375	58.2
226.592	-23.72
226.81	47.96
227.028	37.72
227.246	58.2
227.464	58.2
227.682	17.24
227.9	72.53
228.117	60.24
228.335	17.24
228.553	0.85
228.771	37.72
228.989	47.96
229.206	7
229.424	-48.3
229.642	-7.34
229.86	52.05
230.077	-9.39
230.295	-29.87
230.513	64.34
230.731	41.81
230.948	74.58
231.166	54.1
231.384	-23.72
231.601	27.48
231.819	-21.67
232.037	-31.91
232.254	97.11
232.472	78.68
232.689	45.91
232.907	-48.3
233.125	19.29
233.342	13.14
233.56	37.72
233.777	23.38
233.995	15.19
234.213	76.63
234.43	27.48
234.648	-50.35
234.865	13.14
235.083	29.52
235.3	21.33
235.518	-17.58
235.735	11.09
235.953	33.62
236.17	-9.39
236.388	-17.58
236.605	23.38
236.822	-23.72
237.04	31.57
237.257	47.96
237.475	47.96
237.692	17.24
237.909	62.29
238.127	47.96
238.344	15.19
238.562	33.62
238.779	-17.58
238.996	19.29
239.214	56.15
239.431	7
239.648	-17.58
239.865	-36.01
240.083	7
240.3	17.24
240.517	-64.68
240.735	33.62
240.952	93.01
241.169	9.05
241.386	-58.54
241.603	19.29
241.821	0.85
242.038	-27.82
242.255	4.95
242.472	99.16
242.689	11.09
242.907	29.52
243.124	39.76
243.341	-33.96
243.558	-3.24
243.775	52.05
243.992	-31.91
244.209	64.34
244.426	50
244.643	-83.11
244.86	-25.77
245.078	-13.48
245.295	25.43
245.512	-91.31
245.729	-1.19
245.946	105.3
246.163	11.09
246.38	7
246.597	7
246.814	17.24
247.031	76.63
247.248	52.05
247.464	-1.19
247.681	13.14
247.898	-33.96
248.115	25.43
248.332	7
248.549	39.76
248.766	7
248.983	-33.96
249.2	-9.39
249.417	64.34
249.633	-11.43
249.85	29.52
250.067	7
250.284	-13.48
250.501	31.57
250.717	31.57
250.934	80.72
251.151	52.05
251.368	56.15
251.585	41.81
251.801	-64.68
252.018	15.19
252.235	31.57
252.451	27.48
252.668	25.43
252.885	-7.34
253.102	37.72
253.318	-33.96
253.535	-74.92
253.752	17.24
253.968	45.91
254.185	2.9
254.401	78.68
254.618	47.96
254.835	-72.87
255.051	15.19
255.268	23.38
255.484	64.34
255.701	4.95
255.917	-1.19
256.134	7
256.351	56.15
256.567	-17.58
256.784	93.01
257	25.43
257.217	56.15
257.433	23.38
257.65	50
257.866	50
258.082	105.3
258.299	17.24
258.515	7
258.732	-33.96
258.948	-31.91
259.165	0.85
259.381	2.9
259.597	7
259.814	101.2
260.03	72.53
260.246	21.33
260.463	27.48
260.679	0.85
260.895	29.52
261.112	0.85
261.328	-23.72
261.544	4.95
261.761	58.2
261.977	7
262.193	43.86
262.409	27.48
262.626	-42.15
262.842	-11.43
263.058	-7.34
263.274	-19.63
263.49	39.76
263.707	52.05
263.923	17.24
264.139	78.68
264.355	2.9
264.571	107.35
264.787	-1.19
265.004	103.25
265.22	17.24
265.436	54.1
265.652	13.14
265.868	64.34
266.084	7
266.3	72.53
266.516	103.25
266.732	41.81
266.948	-17.58
267.164	-33.96
267.38	47.96
267.596	-23.72
267.812	23.38
268.028	13.14
268.244	-1.19
268.46	-9.39
268.676	52.05
268.892	4.95
269.108	2.9
269.324	21.33
269.54	-46.25
269.756	68.44
269.972	-1.19
270.188	41.81
270.403	25.43
270.619	37.72
270.835	35.67
271.051	9.05
271.267	23.38
271.483	-15.53
271.698	27.48
271.914	-1.19
272.13	-23.72
272.346	52.05
272.562	-17.58
272.777	-5.29
272.993	-5.29
273.209	-52.39
273.425	66.39
273.64	88.92
273.856	31.57
274.072	68.44
274.287	37.72
274.503	13.14
274.719	29.52
274.934	47.96
275.15	-5.29
275.366	-5.29
275.581	-7.34
275.797	-7.34
276.012	27.48
276.228	-9.39
276.444	15.19
276.659	23.38
276.875	-15.53
277.09	58.2
277.306	72.53
277.521	64.34
277.737	-46.25
277.952	39.76
278.168	39.76
278.383	47.96
278.599	62.29
278.814	15.19
279.03	-21.67
279.245	9.05
279.461	33.62
279.676	56.15
279.892	-21.67
280.107	47.96
280.322	15.19
280.538	56.15
280.753	-11.43
280.969	54.1
281.184	21.33
281.399	41.81
281.615	-15.53
281.83	119.64
282.045	-48.3
282.26	31.57
282.476	-38.06
282.691	119.64
282.906	60.24
283.122	66.39
283.337	15.19
283.552	17.24
283.767	43.86
283.983	58.2
284.198	9.05
284.413	39.76
284.628	35.67
284.843	11.09
285.058	56.15
285.274	-15.53
285.489	-17.58
285.704	13.14
285.919	54.1
286.134	21.33
286.349	2.9
286.564	64.34
286.779	2.9
286.995	-17.58
287.21	37.72
287.425	0.85
287.64	11.09
287.855	84.82
288.07	7
288.285	64.34
288.5	66.39
288.715	17.24
288.93	2.9
289.145	33.62
289.36	-33.96
289.575	33.62
289.79	21.33
290.004	11.09
290.219	31.57
290.434	82.77
290.649	-19.63
290.864	-17.58
291.079	31.57
291.294	-23.72
291.509	66.39
291.724	70.48
291.938	19.29
292.153	21.33
292.368	11.09
292.583	56.15
292.798	31.57
293.012	9.05
293.227	72.53
293.442	66.39
293.657	4.95
293.871	50
294.086	23.38
294.301	39.76
294.516	-13.48
294.73	52.05
294.945	-25.77
295.16	97.11
295.374	-56.49
295.589	-9.39
295.804	-68.78
296.018	45.91
296.233	111.44
296.447	33.62
296.662	64.34
296.877	66.39
297.091	62.29
297.306	35.67
297.52	-3.24
297.735	31.57
297.949	39.76
298.164	21.33
298.378	35.67
298.593	23.38
298.807	64.34
299.022	27.48
299.236	33.62
299.451	60.24
299.665	-7.34
299.88	78.68
300.094	50
300.309	31.57
300.523	19.29
300.737	95.06
300.952	0.85
301.166	140.12
301.381	64.34
301.595	58.2
301.809	-9.39
302.024	15.19
302.238	-7.34
302.452	-3.24
302.667	9.05
302.881	70.48
303.095	15.19
303.309	84.82
303.524	86.87
303.738	70.48
303.952	-13.48
304.166	68.44
304.381	-21.67
304.595	47.96
304.809	-7.34
305.023	-9.39
305.237	35.67
305.452	56.15
305.666	31.57
305.88	-17.58
306.094	64.34
306.308	31.57
306.522	-3.24
306.736	80.72
306.95	109.4
307.164	7
307.379	23.38
307.593	56.15
307.807	4.95
308.021	15.19
308.235	-3.24
308.449	93.01
308.663	52.05
308.877	2.9
309.091	97.11
309.305	19.29
309.519	43.86
309.733	27.48
309.947	-29.87
310.161	113.49
310.374	21.33
310.588	60.24
310.802	27.48
311.016	103.25
311.23	52.05
311.444	39.76
311.658	84.82
311.872	76.63
312.085	66.39
312.299	-50.35
312.513	52.05
312.727	99.16
312.941	31.57
313.154	64.34
313.368	43.86
313.582	31.57
313.796	15.19
314.009	39.76
314.223	136.02
314.437	76.63
314.651	60.24
314.864	11.09
315.078	-23.72
315.292	29.52
315.505	-17.58
315.719	50
315.933	86.87
316.146	47.96
316.36	-13.48
316.573	17.24
316.787	21.33
317.001	47.96
317.214	39.76
317.428	0.85
317.641	17.24
317.855	27.48
318.068	86.87
318.282	23.38
318.495	17.24
318.709	58.2
318.922	62.29
319.136	-23.72
319.349	93.01
319.563	56.15
319.776	86.87
319.99	31.57
320.203	64.34
320.417	58.2
320.63	70.48
320.843	31.57
321.057	-21.67
321.27	7
321.483	19.29
321.697	43.86
321.91	21.33
322.124	15.19
322.337	15.19
322.55	39.76
322.763	54.1
322.977	19.29
323.19	88.92
323.403	47.96
323.617	74.58
323.83	64.34
324.043	35.67
324.256	88.92
324.469	35.67
324.683	76.63
324.896	-9.39
325.109	-1.19
325.322	45.91
325.535	107.35
325.748	-1.19
325.962	-29.87
326.175	29.52
326.388	37.72
326.601	19.29
326.814	74.58
327.027	64.34
327.24	50
327.453	39.76
327.666	7
327.879	29.52
328.092	109.4
328.305	31.57
328.518	-9.39
328.731	60.24
328.944	93.01
329.157	-3.24
329.37	29.52
329.583	41.81
329.796	-44.2
330.009	-25.77
330.222	41.81
330.435	82.77
330.648	43.86
330.861	64.34
331.073	58.2
331.286	39.76
331.499	70.48
331.712	7
331.925	43.86
332.138	68.44
332.35	-33.96
332.563	11.09
332.776	29.52
332.989	43.86
333.202	160.59
333.414	-7.34
333.627	66.39
333.84	17.24
334.053	58.2
334.265	-17.58
334.478	70.48
334.691	47.96
334.903	45.91
335.116	64.34
335.329	7
335.541	35.67
335.754	97.11
335.966	39.76
336.179	17.24
336.392	-42.15
336.604	25.43
336.817	82.77
337.029	-1.19
337.242	97.11
337.454	13.14
337.667	88.92
337.88	39.76
338.092	-81.07
338.305	23.38
338.517	37.72
338.729	84.82
338.942	70.48
339.154	64.34
339.367	60.24
339.579	76.63
339.792	72.53
340.004	41.81
340.217	66.39
340.429	37.72
340.641	45.91
340.854	50
341.066	86.87
341.278	29.52
341.491	101.2
341.703	45.91
341.915	29.52
342.128	90.96
342.34	-11.43
342.552	56.15
342.764	52.05
342.977	7
343.189	-9.39
343.401	19.29
343.613	29.52
343.826	72.53
344.038	54.1
344.25	-38.06
344.462	-23.72
344.674	76.63
344.886	27.48
345.099	74.58
345.311	-3.24
345.523	25.43
345.735	11.09
345.947	15.19
346.159	52.05
346.371	-11.43
346.583	101.2
346.795	19.29
347.007	19.29
347.219	99.16
347.431	-17.58
347.643	-27.82
347.855	99.16
348.067	125.78
348.279	29.52
348.491	50
348.703	45.91
348.915	0.85
349.127	-9.39
349.339	45.91
349.551	58.2
349.763	47.96
349.975	-48.3
350.187	64.34
350.399	43.86
350.61	68.44
350.822	9.05
351.034	-31.91
351.246	101.2
351.458	93.01
351.669	86.87
351.881	64.34
352.093	99.16
352.305	31.57
352.517	23.38
352.728	103.25
352.94	47.96
353.152	-25.77
353.363	72.53
353.575	31.57
353.787	50
353.999	-5.29
354.21	105.3
354.422	41.81
354.633	-5.29
354.845	-13.48
355.057	7
355.268	99.16
355.48	-5.29
355.692	86.87
355.903	76.63
356.115	82.77
356.326	-15.53
356.538	70.48
356.749	-36.01
356.961	29.52
357.172	27.48
357.384	21.33
357.595	99.16
357.807	45.91
358.018	76.63
358.23	31.57
358.441	47.96
358.653	64.34
358.864	72.53
359.075	-3.24
359.287	52.05
359.498	70.48
359.709	0.85
359.921	15.19
360.132	50
360.344	23.38
360.555	58.2
360.766	39.76
360.977	-33.96
361.189	72.53
361.4	19.29
361.611	33.62
361.823	45.91
362.034	47.96
362.245	111.44
362.456	-5.29
362.667	-5.29
362.879	41.81
363.09	50
363.301	99.16
363.512	-21.67
363.723	17.24
363.935	78.68
364.146	70.48
364.357	56.15
364.568	78.68
364.779	-25.77
364.99	35.67
365.201	60.24
365.412	17.24
365.623	-21.67
365.834	66.39
366.045	21.33
366.256	39.76
366.467	41.81
366.678	23.38
366.889	97.11
367.1	43.86
367.311	45.91
367.522	23.38
367.733	101.2
367.944	60.24
368.155	17.24
368.366	101.2
368.577	25.43
368.788	80.72
368.999	52.05
369.209	64.34
369.42	15.19
369.631	158.55
369.842	47.96
370.053	-13.48
370.264	9.05
370.474	86.87
370.685	37.72
370.896	88.92
371.107	19.29
371.317	15.19
371.528	21.33
371.739	-7.34
371.95	72.53
372.16	105.3
372.371	-29.87
372.582	82.77
372.792	70.48
373.003	54.1
373.214	58.2
373.424	0.85
373.635	45.91
373.846	56.15
374.056	-11.43
374.267	33.62
374.477	72.53
374.688	101.2
374.898	56.15
375.109	64.34
375.319	99.16
375.53	70.48
375.74	2.9
375.951	2.9
376.161	82.77
376.372	107.35
376.582	-31.91
376.793	66.39
377.003	39.76
377.214	84.82
377.424	62.29
377.635	66.39
377.845	9.05
378.055	88.92
378.266	58.2
378.476	95.06
378.686	35.67
378.897	131.92
379.107	78.68
379.317	-5.29
379.528	25.43
379.738	111.44
379.948	84.82
380.158	19.29
380.369	43.86
380.579	58.2
380.789	101.2
380.999	27.48
381.21	33.62
381.42	54.1
381.63	-23.72
381.84	74.58
382.05	41.81
382.261	23.38
382.471	154.45
382.681	25.43
382.891	60.24
383.101	27.48
383.311	-21.67
383.521	60.24
383.731	-1.19
383.941	-29.87
384.151	80.72
384.361	78.68
384.571	52.05
384.781	17.24
384.991	119.64
385.201	39.76
385.411	76.63
385.621	56.15
385.831	54.1
386.041	29.52
386.251	56.15
386.461	88.92
386.671	39.76
386.881	90.96
387.091	127.83
387.301	23.38
387.511	9.05
387.72	72.53
387.93	9.05
388.14	47.96
388.35	109.4
388.56	78.68
388.769	56.15
388.979	31.57
389.189	105.3
389.399	78.68
389.609	54.1
389.818	93.01
390.028	58.2
390.238	80.72
390.447	7
390.657	93.01
390.867	56.15
391.076	115.54
391.286	133.97
391.496	72.53
391.705	70.48
391.915	74.58
392.125	93.01
392.334	113.49
392.544	54.1
392.753	84.82
392.963	47.96
393.172	183.12
393.382	23.38
393.591	66.39
393.801	156.5
394.01	74.58
394.22	86.87
394.429	68.44
394.639	27.48
394.848	166.74
395.058	33.62
395.267	17.24
395.477	47.96
395.686	105.3
395.895	123.73
396.105	99.16
396.314	109.4
396.524	43.86
396.733	158.55
396.942	103.25
397.152	82.77
397.361	125.78
397.57	82.77
397.78	97.11
397.989	170.83
398.198	90.96
398.407	113.49
398.617	95.06
398.826	109.4
399.035	60.24
399.244	142.16
399.453	50
399.663	125.78
399.872	172.88
400.081	82.77
400.29	97.11
400.499	64.34
400.708	146.26
400.917	150.36
401.127	99.16
401.336	131.92
401.545	232.27
401.754	181.07
401.963	47.96
402.172	158.55
402.381	158.55
402.59	103.25
402.799	119.64
403.008	117.59
403.217	179.03
403.426	88.92
403.635	125.78
403.844	199.51
404.053	148.31
404.262	101.2
404.471	162.64
404.68	181.07
404.888	146.26
405.097	95.06
405.306	154.45
405.515	228.18
405.724	131.92
405.933	146.26
406.142	179.03
406.35	262.99
406.559	219.99
406.768	222.03
406.977	201.55
407.185	181.07
407.394	230.23
407.603	226.13
407.812	275.28
408.02	215.89
408.229	246.61
408.438	250.71
408.646	238.42
408.855	281.43
409.064	262.99
409.272	353.1
409.481	338.77
409.69	308.05
409.898	254.8
410.107	322.38
410.315	289.62
410.524	387.92
410.733	443.21
410.941	375.63
411.15	426.83
411.358	359.25
411.567	428.88
411.775	441.17
411.984	445.26
412.192	498.51
412.401	492.37
412.609	551.76
412.818	551.76
413.026	617.29
413.234	574.28
413.443	637.77
413.651	611.15
413.86	600.91
414.068	729.93
414.276	711.5
414.485	695.11
414.693	764.75
414.901	740.17
415.11	756.55
415.318	768.84
415.526	873.29
415.734	850.76
415.943	854.86
416.151	926.54
416.359	953.16
416.567	961.35
416.776	963.4
416.984	1006.41
417.192	1020.74
417.4	1094.47
417.608	1098.56
417.817	1205.06
418.025	1194.82
418.233	1260.35
418.441	1246.02
418.649	1381.18
418.857	1483.58
419.065	1516.35
419.273	1461.06
419.481	1553.21
419.689	1669.95
419.897	1680.19
420.105	1751.87
420.313	1721.15
420.521	1827.64
420.729	1864.5
420.937	1956.66
421.145	1960.76
421.353	2091.83
421.561	2235.19
421.769	2161.46
421.977	2292.53
422.185	2253.62
422.393	2452.27
422.601	2700.08
422.809	2566.96
423.017	2577.2
423.224	2712.36
423.432	2882.35
423.64	2880.3
423.848	3033.9
424.056	3099.43
424.263	3150.63
424.471	3191.59
424.679	3316.51
424.887	3611.42
425.094	3570.46
425.302	3638.05
425.51	3672.86
425.718	3885.85
425.925	3799.84
426.133	4104.98
426.341	4154.13
426.548	4403.99
426.756	4410.13
426.964	4442.9
427.171	4899.59
427.379	4889.35
427.586	4905.74
427.794	5161.73
428.001	5274.37
428.209	5509.89
428.417	5516.03
428.624	5853.95
428.832	5831.42
429.039	5833.47
429.247	5888.76
429.454	6482.67
429.662	6656.75
429.869	6288.12
430.076	6634.22
430.284	6580.98
430.491	6896.36
430.699	7457.51
430.906	7463.65
431.114	7363.3
431.321	7699.17
431.528	7813.85
431.736	8420.05
431.943	8587.99
432.15	8583.89
432.358	8657.62
432.565	8964.81
432.772	9040.59
432.979	9495.24
433.187	9620.16
433.394	9464.52
433.601	10306.23
433.808	10443.45
434.016	10232.51
434.223	10607.28
434.43	11188.91
434.637	11283.11
434.844	11721.38
435.052	12206.75
435.259	11848.35
435.466	12100.25
435.673	12008.09
435.88	12843.67
436.087	13306.51
436.294	13400.71
436.501	12821.14
436.708	13425.29
436.915	13714.05
437.122	14271.1
437.329	14353.02
437.537	14940.79
437.743	15000.18
437.95	14879.35
438.157	15651.43
438.364	16292.44
438.571	16056.93
438.778	16271.97
438.985	17707.59
439.192	16867.92
439.399	17648.2
439.606	17175.12
439.813	18235.97
440.02	19292.72
440.227	18950.71
440.433	18684.47
440.64	19325.49
440.847	19171.89
441.054	19931.69
441.261	21076.5
441.467	20892.18
441.674	21506.57
441.881	22000.13
442.088	22196.74
442.294	21674.51
442.501	22346.24
442.708	22897.14
442.914	23736.81
443.121	24586.72
443.328	23714.28
443.534	25579.98
443.741	24533.47
443.948	24492.51
444.154	26329.54
444.361	26364.36
444.568	26542.53
444.774	26393.03
444.981	26833.34
445.187	27677.1
445.394	28858.78
445.6	28080.55
445.807	30982.52
446.013	29782.41
446.22	30208.39
446.426	31359.35
446.633	31955.31
446.839	33255.77
447.046	31437.17
447.252	33159.52
447.459	33540.44
447.665	33147.23
447.871	34591.05
448.078	36276.52
448.284	34339.15
448.491	35244.35
448.697	36788.52
448.903	36997.41
449.11	37222.69
449.316	36866.34
449.522	37302.56
449.728	37918.99
449.935	38807.81
450.141	38897.92
450.347	39559.42
450.553	38142.22
450.76	39010.56
450.966	40147.18
451.172	39139.58
451.378	40700.14
451.584	39737.59
451.791	40827.11
451.997	40468.72
452.203	41158.88
452.409	41380.06
452.615	41238.75
452.821	39346.43
453.027	39213.31
453.233	41238.75
453.44	40018.16
453.646	40028.4
453.852	40114.42
454.058	41074.91
454.264	39682.3
454.47	40509.68
454.676	39856.37
454.882	41126.11
455.088	37407
455.294	38250.77
455.5	38498.57
455.705	39076.1
455.911	37419.29
456.117	36761.89
456.323	36399.4
456.529	34330.95
456.735	35549.49
456.941	35197.24
457.147	34335.05
457.352	33665.36
457.558	33075.55
457.764	33190.23
457.97	32475.49
458.176	31756.66
458.381	31672.69
458.587	30325.13
458.793	30194.06
458.999	28647.84
459.204	30548.36
459.41	29864.33
459.616	28107.18
459.821	27947.43
460.027	27695.53
460.233	27318.71
460.438	26026.44
460.644	26515.9
460.85	25278.93
461.055	24820.19
461.261	24543.71
461.466	22911.48
461.672	22274.56
461.878	23720.43
462.083	21996.04
462.289	22041.09
462.494	21649.93
462.7	20898.33
462.905	20116
463.111	20976.15
463.316	20927
463.522	20478.49
463.727	20503.07
463.932	20505.12
464.138	20554.27
464.343	20273.7
464.549	19767.85
464.754	20310.56
464.959	20269.6
465.165	20197.92
465.37	19415.6
465.575	18676.28
465.781	19380.78
465.986	19907.11
466.191	18750.01
466.397	18571.83
466.602	17539.66
466.807	18225.73
467.012	18440.76
467.218	18233.92
467.423	18004.55
467.628	18014.79
467.833	18989.62
468.038	18268.73
468.244	17701.45
468.449	18553.4
468.654	17609.29
468.859	17502.79
469.064	17480.27
469.269	16921.17
469.474	17037.91
469.679	17234.51
469.885	16933.46
470.09	17152.59
470.295	16851.54
470.5	16558.68
470.705	16699.99
470.91	16452.19
471.115	16024.16
471.32	16374.36
471.525	16403.04
471.73	16108.13
471.935	15616.62
472.139	15444.59
472.344	15663.72
472.549	15436.39
472.754	15121.01
472.959	15053.42
473.164	14635.64
473.369	14158.46
473.574	14967.41
473.778	14666.36
473.983	14699.13
474.188	14670.45
474.393	13965.95
474.598	14023.3
474.802	13898.37
475.007	13873.79
475.212	13738.63
475.417	13345.42
475.621	13114
475.826	13492.87
476.031	12911.25
476.235	12860.05
476.44	13011.6
476.645	12814.99
476.849	12677.78
477.054	12403.35
477.259	12421.78
477.463	12300.95
477.668	12073.63
477.872	12245.66
478.077	12014.24
478.282	11549.35
478.486	11627.17
478.691	11623.08
478.895	11645.6
479.1	11698.85
479.304	11446.95
479.509	11139.76
479.713	11492.01
479.918	11121.32
480.122	11088.56
480.326	11328.17
480.531	11215.53
480.735	10934.96
480.94	10732.21
481.144	11360.94
481.348	10767.03
481.553	10810.03
481.757	10539.7
481.961	10681.01
482.166	10842.8
482.37	10732.21
482.574	10721.97
482.778	10638
482.983	10906.29
483.187	10551.99
483.391	10701.49
483.595	10592.95
483.8	10422.97
484.004	10519.22
484.208	10648.24
484.412	10494.65
484.616	10584.76
484.821	10543.8
485.025	10480.31
485.229	10615.48
485.433	10525.36
485.637	10537.65
485.841	10664.63
486.045	10558.13
486.249	10468.02
486.453	10619.57
486.657	10468.02
486.861	10721.97
487.065	10250.94
487.269	10506.93
487.473	10334.9
487.677	10566.32
487.881	10635.96
488.085	10664.63
488.289	10762.93
488.493	10527.41
488.697	10674.87
488.901	10580.66
489.105	10707.63
489.309	10771.12
489.512	10781.36
489.716	10595
489.92	10521.27
490.124	10697.39
490.328	11078.32
490.531	10928.81
490.735	10910.38
490.939	10902.19
491.143	10795.7
491.346	10894
491.55	11127.47
491.754	11094.7
491.958	11172.52
492.161	11188.91
492.365	11463.33
492.569	11121.32
492.772	11207.34
492.976	11420.33
493.18	11528.87
493.383	11573.92
493.587	11754.15
493.79	11887.26
493.994	11774.63
494.197	11838.11
494.401	12130.97
494.605	11946.66
494.808	12094.11
495.012	12178.08
495.215	12364.44
495.419	12464.79
495.622	12688.02
495.825	12372.63
496.029	12683.92
496.232	13134.48
496.436	12771.99
496.639	13105.81
496.843	13189.77
497.046	13406.86
497.249	13513.35
497.453	13537.93
497.656	13632.13
497.859	13658.76
498.063	13986.43
498.266	14023.3
498.469	14273.15
498.673	14340.73
498.876	14584.44
499.079	14932.59
499.282	14723.7
499.485	15321.71
499.689	15379.05
499.892	15387.24
500.095	15659.62
500.298	15938.15
500.501	15608.42
500.705	16181.85
500.908	16568.92
501.111	16714.33
501.314	16441.95
501.517	16958.03
501.72	17140.3
501.923	16943.7
502.126	17496.65
502.329	17949.25
502.532	17910.34
502.735	18053.7
502.938	18448.96
503.141	18426.43
503.344	19044.91
503.547	18817.59
503.75	19372.59
503.953	19673.64
504.156	19550.76
504.359	19900.97
504.562	20210.21
504.765	20603.42
504.968	20879.89
505.17	21107.22
505.373	21355.02
505.576	21455.37
505.779	21654.03
505.982	21948.93
506.185	22456.83
506.387	22678.01
506.59	22712.83
506.793	23151.09
506.996	23202.29
507.198	23865.83
507.401	23732.72
507.604	24144.36
507.807	24685.02
508.009	25184.73
508.212	25100.76
508.415	25319.89
508.617	25477.58
508.82	26044.87
509.022	25915.85
509.225	26528.19
509.428	26966.46
509.63	27308.47
509.833	27394.48
510.035	28041.64
510.238	28090.79
510.44	28510.63
510.643	28639.65
510.845	29397.4
511.048	29225.37
511.25	29671.82
511.453	29940.11
511.655	30828.93
511.858	30726.53
512.06	31263.1
512.262	31213.95
512.465	31345.02
512.667	31938.93
512.87	32362.86
513.072	32592.23
513.274	32827.74
513.477	33610.07
513.679	33753.43
513.881	33880.4
514.084	34853.19
514.286	34576.71
514.488	34976.06
514.69	36380.97
514.893	36368.68
515.095	35924.27
515.297	37089.57
515.499	36895.01
515.701	37525.78
515.904	38070.54
516.106	38412.56
516.308	38840.58
516.51	38942.98
516.712	39213.31
516.914	39387.39
517.116	39991.54
517.318	40376.56
517.52	40853.73
517.722	41025.76
517.925	41421.02
518.127	42082.52
518.329	42189.01
518.531	41867.48
518.733	42909.89
518.935	43489.47
519.136	43485.37
519.338	44083.38
519.54	44597.42
519.742	44822.7
519.944	45287.59
520.146	45549.73
520.348	46409.87
520.55	46319.76
520.752	46526.61
520.954	47515.78
521.155	47169.67
521.357	47825.02
521.559	48081.02
521.761	48406.64
521.963	48738.41
522.164	49143.91
522.366	49498.21
522.568	49870.94
522.77	50387.03
522.971	50927.69
523.173	50657.36
523.375	50745.42
523.576	50874.45
523.778	51277.89
523.98	52246.58
524.181	52289.59
524.383	52561.97
524.584	53063.72
524.786	53014.57
524.988	52504.63
525.189	53491.75
525.391	53940.25
525.592	54093.85
525.794	54464.53
525.995	54380.57
526.197	54308.89
526.398	54759.44
526.6	55054.35
526.801	55351.3
527.003	55595.01
527.204	55683.08
527.406	56070.14
527.607	55838.72
527.808	56489.98
528.01	56018.94
528.211	56504.31
528.412	57114.61
528.614	56842.23
528.815	56768.5
529.016	57704.42
529.218	56887.28
529.419	57638.89
529.62	57429.99
529.822	57219.05
530.023	57518.06
530.224	57698.28
530.425	57217
530.626	57323.5
530.828	57188.33
531.029	58617.81
531.23	58017.76
531.431	58240.99
531.632	58243.04
531.833	58517.46
532.035	58681.3
532.236	58644.44
532.437	58765.27
532.638	58171.36
532.839	58750.93
533.04	58980.31
533.241	57980.9
533.442	59221.97
533.643	58875.86
533.844	58587.1
534.045	59422.67
534.246	58224.6
534.447	59221.97
534.648	58810.32
534.849	58599.38
535.05	58681.3
535.251	59271.12
535.451	58558.42
535.652	59113.42
535.853	59133.9
536.054	59211.73
536.255	59031.5
536.456	58537.94
536.657	59226.06
536.857	59006.93
537.058	58980.31
537.259	59926.47
537.46	59707.33
537.66	59418.57
537.861	59297.74
538.062	59125.71
538.263	59342.8
538.463	59234.25
538.664	59318.22
538.865	58918.87
539.065	59318.22
539.266	58879.95
539.466	59353.04
539.667	58927.06
539.868	59451.34
540.068	59183.05
540.269	58761.17
540.469	59234.25
540.67	59041.74
540.87	58746.84
541.071	59029.46
541.271	59426.76
541.472	58851.28
541.672	58421.21
541.873	58935.25
542.073	58603.48
542.274	59168.72
542.474	58841.04
542.675	58716.12
542.875	59111.38
543.075	59473.87
543.276	58238.94
543.476	59074.51
543.676	58490.84
543.877	59273.16
544.077	58795.99
544.277	59021.26
544.478	59119.57
544.678	58757.08
544.878	58779.6
545.078	58808.28
545.279	58855.38
545.479	58736.6
545.679	58804.18
545.879	58904.53
546.079	59103.18
546.28	58781.65
546.48	58523.61
546.68	59027.41
546.88	58361.82
547.08	58929.11
547.28	58773.46
547.48	57700.32
547.68	58857.43
547.88	58345.44
548.081	58752.98
548.281	58720.21
548.481	58337.24
548.681	58656.73
548.881	58689.49
549.081	58396.63
549.28	58378.2
549.48	58525.66
549.68	58494.94
549.88	59402.19
550.08	58247.13
550.28	58898.39
550.48	57884.64
550.68	59074.51
550.88	58286.04
551.08	58789.84
551.279	59070.42
551.479	58046.43
551.679	58232.8
551.879	58353.63
552.079	58974.16
552.278	58144.73
552.478	58284
552.678	58361.82
552.878	58509.27
553.077	58001.38
553.277	57675.75
553.477	58652.63
553.676	58279.9
553.876	57956.32
554.076	58019.81
554.275	57946.08
554.475	57509.86
554.674	58353.63
554.874	58415.07
555.074	58050.53
555.273	58111.97
555.473	58275.8
555.672	57456.62
555.872	57583.59
556.071	57653.22
556.271	57817.06
556.47	57724.9
556.67	57126.89
556.869	57327.59
557.068	57573.35
557.268	57059.31
557.467	57384.94
557.667	57477.1
557.866	57460.71
558.065	57481.19
558.265	56913.9
558.464	56553.46
558.663	57174
558.863	56428.54
559.062	57800.68
559.261	56575.99
559.461	57544.68
559.66	56098.81
559.859	56809.46
560.058	56266.75
560.258	56559.61
560.457	56483.83
560.656	57053.17
560.855	56424.44
561.054	56518.65
561.253	56342.52
561.453	56575.99
561.652	56524.79
561.851	56446.97
562.05	55824.39
562.249	55762.95
562.448	56190.97
562.647	56322.04
562.846	56168.44
563.045	55719.94
563.244	55578.63
563.443	55996.41
563.642	55181.32
563.841	55965.7
564.04	55414.79
564.239	55681.03
564.438	55175.18
564.637	55859.2
564.836	55783.43
565.035	54796.31
565.234	55169.04
565.432	55261.19
565.631	54867.98
565.83	55398.41
566.029	54706.19
566.228	54896.66
566.427	54411.29
566.625	54726.67
566.824	54505.49
567.023	54562.84
567.222	53823.52
567.42	54603.8
567.619	54046.75
567.818	53805.09
568.016	53989.41
568.215	54431.77
568.414	53829.66
568.612	54450.2
568.811	53884.96
569.01	54190.11
569.208	53172.27
569.407	53864.48
569.605	52832.3
569.804	53833.76
570.002	53379.11
570.201	53684.26
570.4	52807.73
570.598	53151.79
570.797	52860.97
570.995	52535.35
571.193	51566.66
571.392	52777.01
571.59	52299.83
571.789	52353.08
571.987	52211.77
572.186	52195.38
572.384	51894.33
572.582	52086.84
572.781	52228.15
572.979	51558.47
573.177	51341.38
573.376	51873.85
573.574	51085.39
573.772	51429.44
573.971	51128.39
574.169	51339.33
574.367	50808.91
574.565	51548.23
574.763	50544.72
574.962	50737.23
575.16	50059.35
575.358	50649.17
575.556	49662.05
575.754	50430.04
575.952	49864.8
576.151	50196.57
576.349	49320.04
576.547	49823.84
576.745	49864.8
576.943	49899.61
577.141	49428.58
577.339	49178.73
577.537	48849
577.735	49283.17
577.933	48496.75
578.131	48937.07
578.329	48607.34
578.527	48072.82
578.725	48599.15
578.923	48228.47
579.121	48541.81
579.319	48224.37
579.516	48138.36
579.714	47976.57
579.912	47782.01
580.11	47444.1
580.308	47399.04
580.506	47384.71
580.704	46803.08
580.901	47077.51
581.099	47601.79
581.297	46860.43
581.495	46833.8
581.692	47077.51
581.89	46420.11
582.088	46301.33
582.285	46301.33
582.483	46524.56
582.681	46350.48
582.878	46067.86
583.076	45539.49
583.274	45809.82
583.471	45535.39
583.669	45590.69
583.866	45480.1
584.064	45654.17
584.262	45009.06
584.459	45336.74
584.657	44980.39
584.854	45334.69
585.052	44282.03
585.249	44531.89
585.447	44562.61
585.644	44292.27
585.841	44185.78
586.039	44904.62
586.236	43458.75
586.434	44042.42
586.631	43622.59
586.828	43819.19
587.026	43692.22
587.223	43755.71
587.42	42905.8
587.618	43471.04
587.815	43081.92
588.012	42993.86
588.21	42584.27
588.407	43155.65
588.604	42498.25
588.801	42379.47
588.999	42543.31
589.196	42375.37
589.393	42432.72
589.59	42324.18
589.787	41963.73
589.984	41969.88
590.182	41515.23
590.379	42049.75
590.576	41267.42
590.773	41464.03
590.97	41244.9
591.167	41599.19
591.364	41181.41
591.561	41502.94
591.758	40276.21
591.955	40702.18
592.152	41093.35
592.349	40403.18
592.546	40843.49
592.743	40724.71
592.94	39913.72
593.137	40188.14
593.334	40278.25
593.531	39540.99
593.727	39831.8
593.924	39749.88
594.121	39418.11
594.318	39715.06
594.515	39219.45
594.712	39561.47
594.908	39311.61
595.105	39588.09
595.302	39045.38
595.499	38922.5
595.696	39110.91
595.892	38822.15
596.089	38684.94
596.286	38779.14
596.482	38557.96
596.679	38570.25
596.876	38359.31
597.072	37955.86
597.269	38215.95
597.466	37488.92
597.662	37816.6
597.859	38097.17
598.055	37851.41
598.252	37951.76
598.448	37462.3
598.645	37300.51
598.841	36923.68
599.038	36782.37
599.234	37099.81
599.431	36725.03
599.627	36858.15
599.824	36882.72
600.02	36600.1
600.217	36479.27
600.413	35967.28
600.609	35901.75
600.806	36137.26
601.002	35983.66
601.198	36022.58
601.395	36098.35
601.591	35776.82
601.787	35483.96
601.984	35313.98
602.18	35875.12
602.376	35387.71
602.572	34789.7
602.769	35035.45
602.965	34957.63
603.161	35002.69
603.357	34799.94
603.553	34322.76
603.75	34769.22
603.946	34038.09
604.142	34359.63
604.338	33694.04
604.534	34085.2
604.73	33734.99
604.926	33595.73
605.122	33511.77
605.318	33255.77
605.514	33333.59
605.71	33358.17
605.906	33296.73
606.102	33050.97
606.298	33134.94
606.494	33159.52
606.69	33073.5
606.886	32844.13
607.082	32444.77
607.278	32622.95
607.474	32102.76
607.67	32467.3
607.866	32211.31
608.062	32076.14
608.257	32104.81
608.453	32178.54
608.649	32192.87
608.845	31478.13
609.041	31328.63
609.236	31705.46
609.432	31351.16
609.628	31566.2
609.824	31265.14
610.019	31037.82
610.215	31431.03
610.411	31199.61
610.606	30867.84
610.802	30851.45
610.998	31099.26
611.193	30749.06
611.389	30595.46
611.584	30673.28
611.78	30259.59
611.976	30351.75
612.171	30601.6
612.367	30609.79
612.562	30151.05
612.758	29729.17
612.953	29931.92
613.149	30038.41
613.344	30075.27
613.539	30392.71
613.735	29731.22
613.93	30081.42
614.126	29731.22
614.321	29854.09
614.517	29630.87
614.712	29272.47
614.907	29151.64
615.103	29587.86
615.298	29036.95
615.493	29632.91
615.688	28608.93
615.884	29112.73
616.079	28922.27
616.274	29174.17
616.47	28699.04
616.665	28768.67
616.86	28455.33
617.055	28494.24
617.25	28076.46
617.445	28459.43
617.641	28060.07
617.836	28195.24
618.031	28129.7
618.226	28125.61
618.421	27697.58
618.616	28076.46
618.811	27449.78
619.006	28060.07
619.201	27212.21
619.396	27339.19
619.591	27437.49
619.786	27165.11
619.981	26755.52
620.176	27148.73
620.371	26702.27
620.566	26806.72
620.761	26907.07
620.956	26737.09
621.151	26055.11
621.346	26264
621.541	25766.35
621.735	26339.78
621.93	25635.28
622.125	25850.31
622.32	25416.15
622.515	25557.46
622.709	25127.38
622.904	25330.13
623.099	24998.36
623.294	24875.48
623.488	24424.93
623.683	24949.21
623.878	24332.77
624.072	24304.1
624.267	24453.6
624.462	24252.9
624.656	23683.56
624.851	24013.29
625.046	23683.56
625.24	23810.54
625.435	23415.28
625.629	23628.27
625.824	23011.83
626.018	23161.33
626.213	22817.27
626.407	23054.84
626.602	22522.37
626.796	22817.27
626.991	22618.62
627.185	22659.58
627.38	22221.31
627.574	22026.76
627.768	21912.07
627.963	21889.54
628.157	21570.06
628.352	21801.48
628.546	21248.53
628.74	21703.18
628.935	21375.5
629.129	21355.02
629.323	20965.91
629.517	20830.74
629.712	20982.29
629.906	20976.15
630.1	20529.69
630.294	20908.57
630.489	20226.59
630.683	20337.18
630.877	20091.43
631.071	20019.75
631.265	20521.5
631.459	20095.52
631.653	20079.14
631.848	19878.44
632.042	19812.9
632.236	19962.4
632.43	19618.35
632.624	19456.56
632.818	19350.06
633.012	19006
633.206	19116.59
633.4	19030.58
633.594	18729.53
633.788	18838.07
633.982	18956.85
634.176	18956.85
634.369	18483.77
634.563	18635.32
634.757	18549.31
634.951	18227.78
635.145	18055.75
635.339	18399.8
635.533	17865.28
635.726	18065.99
635.92	17769.03
636.114	17871.43
636.308	17513.03
636.501	17758.79
636.695	17496.65
636.889	17490.51
637.083	17281.61
637.276	17242.7
637.47	17252.94
637.664	17099.34
637.857	17181.26
638.051	16861.78
638.244	16695.89
638.438	16743
638.632	16454.23
638.825	16616.02
639.019	16532.06
639.212	16577.11
639.406	16259.68
639.599	16200.29
639.793	16366.17
639.986	15729.25
640.18	16026.21
640.373	15948.39
640.567	15733.35
640.76	15823.46
640.954	15338.09
641.147	15540.84
641.34	15399.53
641.534	15495.78
641.727	15266.41
641.92	15239.79
642.114	15137.39
642.307	15108.72
642.5	14942.83
642.694	14973.55
642.887	14684.79
643.08	14742.13
643.273	14752.37
643.467	14776.95
643.66	14557.82
643.853	14510.71
644.046	14203.52
644.239	14256.76
644.432	14346.87
644.626	14111.36
644.819	14099.07
645.012	13984.38
645.205	14183.04
645.398	13853.31
645.591	13779.59
645.784	13699.72
645.977	13572.74
646.17	13486.73
646.363	13345.42
646.556	13232.78
646.749	13120.14
646.942	13056.65
647.135	13245.07
647.328	13144.72
647.521	13107.85
647.714	12872.34
647.907	12776.08
648.099	12716.69
648.292	12511.89
648.485	12636.82
648.678	12368.54
648.871	12384.92
649.064	12241.56
649.256	12173.98
649.449	12350.1
649.642	12241.56
649.835	12018.33
650.027	11989.66
650.22	12042.91
650.413	11582.12
650.605	11727.52
650.798	11621.03
650.991	11483.81
651.183	11709.09
651.376	11528.87
651.568	11453.09
651.761	11197.1
651.954	11127.47
652.146	11195.05
652.339	10996.4
652.531	11172.52
652.724	11016.88
652.916	10908.33
653.109	10869.42
653.301	10705.59
653.494	10676.91
653.686	10406.58
653.879	10478.26
654.071	10500.79
654.263	10302.14
654.456	10410.68
654.648	10332.86
654.84	10003.13
655.033	10027.71
655.225	10007.23
655.417	9931.45
655.61	10027.71
655.802	9949.89
655.994	9806.53
656.186	9951.93
656.379	9757.38
656.571	9769.66
656.763	9550.53
656.955	9355.97
657.148	9487.04
657.34	9173.71
657.532	9108.17
657.724	9239.24
657.916	9251.53
658.108	9194.19
658.3	9087.69
658.492	9138.89
658.684	8839.89
658.876	8784.59
659.068	8858.32
659.26	8723.15
659.452	8737.49
659.644	8657.62
659.836	8395.48
660.028	8600.27
660.22	8499.92
660.412	8420.05
660.604	8268.5
660.796	8164.06
660.988	8147.67
661.18	7971.55
661.372	7791.33
661.563	7848.67
661.755	7871.2
661.947	7938.78
662.139	7873.25
662.331	7688.93
662.522	7766.75
662.714	7590.63
662.906	7553.76
663.097	7371.49
663.289	7338.73
663.481	7396.07
663.673	7447.27
663.864	7082.73
664.056	7154.41
664.247	7162.6
664.439	7064.3
664.631	7189.22
664.822	6988.52
665.014	6966
665.205	6959.85
665.397	7064.3
665.588	6753.01
665.78	6927.08
665.971	6501.11
666.163	6669.04
666.354	6478.58
666.546	6640.37
666.737	6478.58
666.929	6542.07
667.12	6425.33
667.311	6152.95
667.503	6310.65
667.694	6304.5
667.885	6241.01
668.077	6165.24
668.268	6232.82
668.459	6249.21
668.651	6062.84
668.842	6249.21
669.033	6036.22
669.224	5974.78
669.416	5954.3
669.607	5858.04
669.798	5911.29
669.989	5948.15
670.18	5735.17
670.371	5913.34
670.563	5722.88
670.754	5790.46
670.945	5690.11
671.136	5812.99
671.327	5825.28
671.518	5737.21
671.709	5595.9
671.9	5544.7
672.091	5401.35
672.282	5503.75
672.473	5368.58
672.664	5298.95
672.855	5440.26
673.046	5380.87
673.237	5372.68
673.428	5315.33
673.619	5323.52
673.809	5186.31
674	5247.75
674.191	5223.17
674.382	5206.79
674.573	5149.45
674.764	5227.27
674.954	5012.23
675.145	5178.12
675.336	5176.07
675.527	5137.16
675.717	5014.28
675.908	5028.62
676.099	4979.47
676.289	5094.15
676.48	4934.41
676.671	4979.47
676.861	4995.85
677.052	4897.55
677.243	4834.06
677.433	4893.45
677.624	4848.4
677.814	4981.51
678.005	4815.63
678.195	4989.71
678.386	4795.15
678.576	4725.52
678.767	4717.33
678.957	4680.46
679.148	4741.9
679.338	4578.06
679.529	4676.37
679.719	4702.99
679.909	4713.23
680.1	4571.92
680.29	4569.87
680.481	4707.09
680.671	4516.62
680.861	4469.52
681.052	4709.13
681.242	4557.58
681.432	4559.63
681.622	4457.23
681.813	4518.67
682.003	4524.82
682.193	4487.95
682.383	4354.83
682.573	4512.53
682.764	4350.74
682.954	4399.89
683.144	4432.66
683.334	4403.99
683.524	4373.27
683.714	4440.85
683.904	4406.03
684.094	4408.08
684.284	4172.57
684.474	4363.03
684.664	4322.07
684.854	4272.92
685.044	4240.15
685.234	4283.16
685.424	4375.31
685.614	4424.47
685.804	4252.44
685.994	4350.74
686.184	4395.79
686.374	4254.48
686.564	4201.24
686.753	4244.24
686.943	4125.46
687.133	4217.62
687.323	4145.94
687.513	4182.81
687.702	4070.17
687.892	4188.95
688.082	4057.88
688.272	4102.93
688.461	4158.23
688.651	4158.23
688.841	4121.37
689.03	4209.43
689.22	4256.53
689.41	4070.17
689.599	4111.13
689.789	3941.15
689.979	4143.89
690.168	4170.52
690.358	4096.79
690.547	4082.46
690.737	4074.26
690.926	4127.51
691.116	4080.41
691.305	4283.16
691.495	3937.05
691.684	3978.01
691.874	3965.72
692.063	4025.11
692.252	4008.73
692.442	3982.1
692.631	4086.55
692.82	4000.54
693.01	4086.55
693.199	3941.15
693.388	4025.11
693.578	3984.15
693.767	3963.67
693.956	3920.67
694.146	3982.1
694.335	4039.45
694.524	4053.78
694.713	4113.17
694.902	4008.73
695.092	3998.49
695.281	3982.1
695.47	4094.74
695.659	4047.64
695.848	3846.94
696.037	3803.93
696.226	3844.89
696.415	3840.79
696.604	3793.69
696.793	3701.53
696.982	3769.12
697.171	3756.83
697.36	3832.6
697.549	3808.03
697.738	3867.42
697.927	3791.64
698.116	3795.74
698.305	3793.69
698.494	3871.51
698.683	3945.24
698.872	3781.4
699.061	3670.81
699.25	3642.14
699.438	3732.25
699.627	3636
699.816	3676.96
700.005	3642.14
700.193	3664.67
700.382	3777.31
700.571	3586.85
700.76	3679.01
700.948	3662.62
701.137	3666.72
701.326	3752.73
701.514	3703.58
701.703	3623.71
701.892	3451.68
702.08	3681.05
702.269	3820.32
702.457	3359.52
702.646	3572.51
702.834	3564.32
703.023	3584.8
703.212	3509.02
703.4	3582.75
703.589	3484.45
703.777	3433.25
703.965	3369.76
704.154	3394.34
704.342	3482.4
704.531	3341.09
704.719	3310.37
704.907	3300.13
705.096	3445.54
705.284	3349.28
705.472	3293.99
705.661	3277.6
705.849	3257.12
706.037	3324.71
706.226	3158.82
706.414	3293.99
706.602	3228.45
706.79	3228.45
706.979	3124.01
707.167	3095.33
707.355	3263.27
707.543	3113.77
707.731	3181.35
707.919	3154.73
708.107	3025.7
708.296	3013.42
708.484	2974.5
708.672	3068.71
708.86	2956.07
709.048	3099.43
709.236	3128.1
709.424	2966.31
709.612	3029.8
709.8	3117.86
709.988	2888.49
710.176	2960.17
710.364	2997.03
710.551	3011.37
710.739	3037.99
710.927	2890.54
711.115	2915.11
711.303	2949.93
711.491	3005.22
711.679	2929.45
711.866	2900.78
712.054	2829.1
712.242	2777.9
712.43	2798.38
712.617	2835.24
712.805	2720.56
712.993	2822.95
713.181	2716.46
713.368	2743.08
713.556	2683.69
713.744	2730.8
713.931	2804.52
714.119	2632.49
714.306	2642.73
714.494	2734.89
714.682	2652.97
714.869	2646.83
715.057	2571.05
715.244	2437.94
715.432	2548.53
715.619	2468.66
715.807	2630.45
715.994	2411.31
716.182	2466.61
716.369	2536.24
716.556	2462.51
716.744	2480.94
716.931	2427.7
717.119	2468.66
717.306	2523.95
717.493	2423.6
717.681	2429.74
717.868	2419.5
718.055	2458.42
718.242	2333.49
718.43	2304.82
718.617	2376.5
718.804	2374.45
718.991	2353.97
719.179	2286.39
719.366	2278.19
719.553	2220.85
719.74	2282.29
719.927	2216.76
720.114	2192.18
720.301	2276.15
720.488	2179.89
720.676	2108.21
720.863	2202.42
721.05	2114.36
721.237	2241.33
721.424	2077.49
721.611	2124.6
721.798	2206.52
721.985	2108.21
722.172	2036.53
722.358	2140.98
722.545	2057.01
722.732	2097.97
722.919	2028.34
723.106	1952.57
723.293	2038.58
723.48	2087.73
723.667	1995.57
723.853	1999.67
724.04	1948.47
724.227	1936.18
724.414	2016.05
724.6	1903.42
724.787	1991.48
724.974	2001.72
725.161	1964.86
725.347	1925.94
725.534	1960.76
725.72	1860.41
725.907	1872.7
726.094	1956.66
726.28	2022.2
726.467	1940.28
726.653	1737.53
726.84	1841.98
727.027	1899.32
727.213	1801.02
727.4	1833.79
727.586	1809.21
727.773	1776.44
727.959	1891.13
728.145	1825.59
728.332	1641.28
728.518	1721.15
728.705	1743.67
728.891	1766.2
729.077	1745.72
729.264	1692.48
729.45	1755.96
729.636	1790.78
729.823	1608.51
730.009	1743.67
730.195	1768.25
730.382	1698.62
730.568	1633.08
730.754	1737.53
730.94	1702.72
731.126	1698.62
731.313	1698.62
731.499	1612.6
731.685	1696.57
731.871	1526.59
732.057	1600.32
732.243	1588.03
732.429	1614.65
732.615	1608.51
732.801	1614.65
732.987	1575.74
733.173	1563.45
733.359	1555.26
733.545	1471.29
733.731	1567.55
733.917	1616.7
734.103	1561.41
734.289	1459.01
734.475	1495.87
734.661	1510.21
734.847	1481.53
735.033	1471.29
735.219	1508.16
735.404	1485.63
735.59	1477.44
735.776	1485.63
735.962	1291.07
736.148	1559.36
736.333	1313.6
736.519	1452.86
736.705	1485.63
736.89	1497.92
737.076	1403.71
737.262	1243.97
737.447	1385.28
737.633	1350.46
737.819	1391.42
738.004	1375.04
738.19	1344.32
738.375	1266.5
738.561	1295.17
738.747	1416
738.932	1372.99
739.118	1377.09
739.303	1348.42
739.489	1342.27
739.674	1315.65
739.859	1432.38
740.045	1282.88
740.23	1418.05
740.416	1194.82
740.601	1399.62
740.786	1311.55
740.972	1203.01
741.157	1223.49
741.342	1297.22
741.528	1231.68
741.713	1241.92
741.898	1180.48
742.084	1254.21
742.269	1203.01
742.454	1246.02
742.639	1188.68
742.824	1200.96
743.01	1196.87
743.195	1180.48
743.38	1110.85
743.565	1121.09
743.75	1178.44
743.935	1133.38
744.12	1088.32
744.305	1172.29
744.49	1082.18
744.675	1119.04
744.86	1106.76
745.045	1203.01
745.23	1020.74
745.415	1153.86
745.6	1108.8
745.785	1063.75
745.97	1145.67
746.155	1153.86
746.34	1100.61
746.525	1112.9
746.71	1061.7
746.895	1098.56
747.079	1071.94
747.264	865.1
747.449	1022.79
747.634	1039.17
747.819	963.4
748.003	990.02
748.188	1069.89
748.373	957.25
748.557	944.97
748.742	947.01
748.927	1006.41
749.111	906.06
749.296	969.54
749.481	1024.84
749.665	981.83
749.85	893.77
750.034	953.16
750.219	893.77
750.404	852.81
750.588	1008.45
750.773	883.53
750.957	932.68
751.141	916.3
751.326	916.3
751.51	807.75
751.695	789.32
751.879	844.62
752.064	891.72
752.248	846.66
752.432	877.38
752.617	820.04
752.801	803.66
752.985	830.28
753.17	844.62
753.354	865.1
753.538	752.46
753.722	758.6
753.907	797.51
754.091	725.83
754.275	842.57
754.459	713.55
754.643	748.36
754.828	695.11
755.012	832.33
755.196	738.12
755.38	785.23
755.564	768.84
755.748	738.12
755.932	768.84
756.116	770.89
756.3	785.23
756.484	752.46
756.668	621.39
756.852	703.31
757.036	817.99
757.22	703.31
757.404	623.44
757.588	787.27
757.772	695.11
757.956	705.35
758.14	754.51
758.323	707.4
758.507	719.69
758.691	713.55
758.875	777.03
759.059	670.54
759.242	607.05
759.426	709.45
759.61	676.68
759.794	652.11
759.977	656.2
760.161	648.01
760.345	621.39
760.528	633.68
760.712	627.53
760.895	670.54
761.079	627.53
761.263	613.2
761.446	695.11
761.63	639.82
761.813	666.44
761.997	588.62
762.18	613.2
762.364	670.54
762.547	613.2
762.731	607.05
762.914	645.96
763.098	598.86
763.281	572.24
763.464	668.49
763.648	549.71
763.831	639.82
764.015	551.76
764.198	592.72
764.381	658.25
764.564	562
764.748	615.24
764.931	537.42
765.114	594.76
765.297	529.23
765.481	580.43
765.664	574.28
765.847	627.53
766.03	629.58
766.213	480.08
766.397	555.85
766.58	504.65
766.763	510.8
766.946	645.96
767.129	545.61
767.312	613.2
767.495	539.47
767.678	568.14
767.861	486.22
768.044	539.47
768.227	559.95
768.41	592.72
768.593	592.72
768.776	566.09
768.959	596.81
769.142	518.99
769.324	549.71
769.507	559.95
769.69	539.47
769.873	484.17
770.056	545.61
770.239	545.61
770.421	510.8
770.604	508.75
770.787	488.27
770.97	523.09
771.152	445.26
771.335	506.7
771.518	416.59
771.7	486.22
771.883	533.33
772.066	484.17
772.248	465.74
772.431	504.65
772.613	574.28
772.796	576.33
772.978	475.98
773.161	564.04
773.343	547.66
773.526	555.85
773.708	408.4
773.891	516.94
774.073	473.93
774.256	486.22
774.438	516.94
774.621	420.69
774.803	607.05
774.985	355.15
775.168	539.47
775.35	416.59
775.532	416.59
775.715	484.17
775.897	441.17
776.079	443.21
776.261	445.26
776.444	437.07
776.626	396.11
776.808	490.32
776.99	414.54
777.173	559.95
777.355	394.06
777.537	336.72
777.719	435.02
777.901	383.82
778.083	437.07
778.265	342.86
778.447	441.17
778.629	400.21
778.811	453.45
778.993	344.91
779.175	426.83
779.357	392.02
779.539	404.3
779.721	414.54
779.903	394.06
780.085	340.82
780.267	424.78
780.449	416.59
780.631	373.58
780.812	359.25
780.994	334.67
781.176	418.64
781.358	301.9
781.54	295.76
781.721	359.25
781.903	328.53
782.085	410.45
782.267	416.59
782.448	373.58
782.63	285.52
782.812	338.77
782.993	396.11
783.175	275.28
783.357	418.64
783.538	289.62
783.72	293.71
783.901	351.06
784.083	240.47
784.264	363.34
784.446	312.14
784.627	318.29
784.809	228.18
784.99	328.53
785.172	340.82
785.353	367.44
785.535	269.14
785.716	193.36
785.897	291.66
786.079	363.34
786.26	301.9
786.441	207.7
786.623	306
786.804	330.58
786.985	306
787.167	217.94
787.348	262.99
787.529	328.53
787.71	260.95
787.891	269.14
788.073	301.9
788.254	342.86
788.435	314.19
788.616	254.8
788.797	215.89
788.978	324.43
789.159	207.7
789.34	289.62
789.522	213.84
789.703	332.62
789.884	203.6
790.065	265.04
790.246	260.95
790.427	271.19
790.607	189.27
790.788	183.12
790.969	144.21
791.15	250.71
791.331	187.22
791.512	226.13
791.693	187.22
791.874	197.46
792.054	246.61
792.235	277.33
792.416	156.5
792.597	238.42
792.778	191.31
792.958	236.37
793.139	238.42
793.32	213.84
793.5	205.65
793.681	232.27
793.862	228.18
794.042	219.99
794.223	219.99
794.404	166.74
794.584	105.3
794.765	213.84
794.945	228.18
795.126	230.23
795.306	213.84
795.487	209.75
795.667	215.89
795.848	301.9
796.028	189.27
796.209	273.23
796.389	234.32
796.57	228.18
796.75	187.22
796.93	101.2
797.111	191.31
797.291	158.55
797.471	205.65
797.652	140.12
797.832	166.74
798.012	127.83
798.192	189.27
798.373	189.27
798.553	199.51
798.733	162.64
798.913	111.44
799.093	222.03
799.274	103.25
799.454	146.26
799.634	162.64
799.814	158.55
799.994	181.07
800.174	129.88
800.354	189.27
800.534	138.07
800.714	148.31
800.894	144.21
801.074	127.83
801.254	109.4
801.434	146.26
801.614	78.68
801.794	121.68
801.974	428.88
802.154	117.59
802.334	197.46
802.514	189.27
802.693	158.55
802.873	195.41
803.053	170.83
803.233	117.59
803.413	262.99
803.592	115.54
803.772	160.59
803.952	80.72
804.131	170.83
804.311	95.06
804.491	181.07
804.67	144.21
804.85	70.48
805.03	164.69
805.209	115.54
805.389	136.02
805.568	58.2
805.748	138.07
805.928	224.08
806.107	193.36
806.287	131.92
806.466	95.06
806.646	119.64
806.825	166.74
807.004	164.69
807.184	115.54
807.363	115.54
807.543	142.16
807.722	105.3
807.901	66.39
808.081	152.4
808.26	93.01
808.439	47.96
808.619	62.29
808.798	107.35
808.977	115.54
809.156	133.97
809.336	148.31
809.515	127.83
809.694	156.5
809.873	93.01
810.052	148.31
810.231	166.74
810.411	101.2
810.59	105.3
810.769	78.68
810.948	129.88
811.127	82.77
811.306	72.53
811.485	105.3
811.664	129.88
811.843	76.63
812.022	211.79
812.201	52.05
812.38	99.16
812.559	105.3
812.737	78.68
812.916	23.38
813.095	82.77
813.274	82.77
813.453	74.58
813.632	127.83
813.811	88.92
813.989	60.24
814.168	146.26
814.347	113.49
814.526	47.96
814.704	97.11
814.883	80.72
815.062	131.92
815.24	146.26
815.419	115.54
815.598	72.53
815.776	82.77
815.955	101.2
816.133	105.3
816.312	58.2
816.49	47.96
816.669	66.39
816.847	68.44
817.026	86.87
817.204	58.2
817.383	90.96
817.561	47.96
817.74	80.72
817.918	70.48
818.097	109.4
818.275	21.33
818.453	146.26
818.632	97.11
818.81	86.87
818.988	41.81
819.167	90.96
819.345	101.2
819.523	35.67
819.701	47.96
819.879	101.2
820.058	66.39
820.236	39.76
820.414	113.49
820.592	50
820.77	66.39
820.948	88.92
821.127	129.88
821.305	113.49
821.483	185.17
821.661	78.68
821.839	13.14
822.017	86.87
822.195	35.67
822.373	117.59
822.551	117.59
822.729	64.34
822.907	33.62
823.085	74.58
823.262	109.4
823.44	156.5
823.618	109.4
823.796	113.49
823.974	41.81
824.152	95.06
824.329	107.35
824.507	33.62
824.685	27.48
824.863	68.44
825.04	90.96
825.218	41.81
825.396	39.76
825.574	58.2
825.751	39.76
825.929	60.24
826.107	56.15
826.284	78.68
826.462	78.68
826.639	41.81
826.817	115.54
826.994	-74.92
827.172	66.39
827.349	64.34
827.527	125.78
827.704	45.91
827.882	101.2
828.059	47.96
828.237	99.16
828.414	13.14
828.591	66.39
828.769	58.2
828.946	95.06
829.124	105.3
829.301	74.58
829.478	35.67
829.655	88.92
829.833	117.59
830.01	76.63
830.187	60.24
830.364	17.24
830.542	47.96
830.719	64.34
830.896	115.54
831.073	45.91
831.25	23.38
831.427	76.63
831.604	21.33
831.782	-25.77
831.959	80.72
832.136	41.81
832.313	50
832.49	47.96
832.667	66.39
832.844	109.4
833.021	-54.44
833.198	29.52
833.374	68.44
833.551	56.15
833.728	80.72
833.905	47.96
834.082	52.05
834.259	25.43
834.436	56.15
834.612	68.44
834.789	60.24
834.966	82.77
835.143	80.72
835.319	50
835.496	64.34
835.673	47.96
835.85	35.67
836.026	17.24
836.203	31.57
836.38	27.48
836.556	43.86
836.733	-1.19
836.909	25.43
837.086	-5.29
837.262	13.14
837.439	78.68
837.616	52.05
837.792	127.83
837.968	2.9
838.145	97.11
838.321	45.91
838.498	-3.24
838.674	2.9
838.851	25.43
839.027	54.1
839.203	99.16
839.38	72.53
839.556	15.19
839.732	140.12
839.909	-25.77
840.085	7
840.261	-9.39
840.437	54.1
840.614	9.05
840.79	47.96
840.966	52.05
841.142	43.86
841.318	43.86
841.494	39.76
841.671	-46.25
841.847	-17.58
842.023	39.76
842.199	39.76
842.375	39.76
842.551	-13.48
842.727	-19.63
842.903	13.14
843.079	-13.48
843.255	86.87
843.431	29.52
843.607	15.19
843.783	-7.34
843.959	-64.68
844.134	33.62
844.31	72.53
844.486	0.85
844.662	7
844.838	-21.67
845.013	72.53
845.189	25.43
845.365	-48.3
845.541	31.57
845.716	21.33
845.892	37.72
846.068	41.81
846.244	-19.63
846.419	70.48
846.595	-1.19
846.77	35.67
846.946	121.68
847.122	56.15
847.297	54.1
847.473	56.15
847.648	45.91
847.824	29.52
847.999	37.72
848.175	39.76
848.35	-15.53
848.526	80.72
848.701	43.86
848.876	-74.92
849.052	23.38
849.227	9.05
849.403	39.76
849.578	45.91
849.753	4.95
849.929	60.24
850.104	31.57
850.279	19.29
850.454	-54.44
850.63	-17.58
850.805	-31.91
850.98	0.85
851.155	64.34
851.33	31.57
851.505	66.39
851.681	64.34
851.856	-58.54
852.031	68.44
852.206	-5.29
852.381	58.2
852.556	93.01
852.731	-52.39
852.906	37.72
853.081	103.25
853.256	68.44
853.431	7
853.606	29.52
853.781	19.29
853.956	43.86
854.131	9.05
854.305	17.24
854.48	27.48
854.655	-1.19
854.83	33.62
855.005	-58.54
855.18	-31.91
855.354	9.05
855.529	29.52
855.704	95.06
855.879	64.34
856.053	11.09
856.228	-11.43
856.403	-21.67
856.577	-25.77
856.752	39.76
856.926	17.24
857.101	-79.02
857.276	-46.25
857.45	-17.58
857.625	74.58
857.799	52.05
857.974	4.95
858.148	-3.24
858.323	-17.58
858.497	-64.68
858.672	-9.39
858.846	74.58
859.02	66.39
859.195	39.76
859.369	2.9
859.543	52.05
859.718	-54.44
859.892	47.96
860.066	50
860.241	50
860.415	15.19
860.589	-29.87
860.763	82.77
860.938	-27.82
861.112	0.85
861.286	-3.24
861.46	43.86
861.634	23.38
861.808	33.62
861.982	52.05
862.157	35.67
862.331	-23.72
862.505	-5.29
862.679	-52.39
862.853	-21.67
863.027	-17.58
863.201	19.29
863.375	17.24
863.549	39.76
863.722	29.52
863.896	7
864.07	-21.67
864.244	58.2
864.418	97.11
864.592	-13.48
864.766	25.43
864.939	37.72
865.113	-66.73
865.287	13.14
865.461	-40.11
865.634	-68.78
865.808	25.43
865.982	15.19
866.156	47.96
866.329	-31.91
866.503	27.48
866.676	9.05
866.85	13.14
867.024	15.19
867.197	-46.25
867.371	60.24
867.544	43.86
867.718	-15.53
867.891	-3.24
868.065	-17.58
868.238	80.72
868.412	64.34
868.585	80.72
868.759	9.05
868.932	-70.83
869.105	21.33
869.279	62.29
869.452	54.1
869.625	-58.54
869.799	64.34
869.972	7
870.145	-1.19
870.319	-9.39
870.492	21.33
870.665	19.29
870.838	-19.63
871.011	13.14
871.185	27.48
871.358	-21.67
871.531	125.78
871.704	-31.91
871.877	2.9
872.05	29.52
872.223	-17.58
872.396	-1.19
872.569	-17.58
872.742	-15.53
872.915	31.57
873.088	-1.19
873.261	-29.87
873.434	-15.53
873.607	9.05
873.78	31.57
873.953	-7.34
874.126	-7.34
874.299	-36.01
874.471	-79.02
874.644	-9.39
874.817	-23.72
874.99	-7.34
875.163	39.76
875.335	76.63
875.508	0.85
875.681	43.86
875.853	4.95
876.026	-27.82
876.199	23.38
876.371	31.57
876.544	39.76
876.717	45.91
876.889	17.24
877.062	-11.43
877.234	-15.53
877.407	-36.01
877.579	31.57
877.752	-17.58
877.924	-33.96
878.097	-9.39
878.269	17.24
878.442	-31.91
878.614	-33.96
878.786	-15.53
878.959	-11.43
879.131	35.67
879.303	-5.29
879.476	33.62
879.648	-33.96
879.82	15.19
879.993	64.34
880.165	-62.63
880.337	2.9
880.509	-9.39
880.681	39.76
880.854	-31.91
881.026	-42.15
881.198	33.62
881.37	-11.43
881.542	7
881.714	-56.49
881.886	72.53
882.058	64.34
882.23	52.05
882.402	-21.67
882.574	23.38
882.746	-64.68
882.918	74.58
883.09	-21.67
883.262	-7.34
883.434	-48.3
883.606	-97.45
883.778	-29.87
883.95	0.85
884.122	35.67
884.293	9.05
884.465	31.57
884.637	9.05
884.809	56.15
884.98	86.87
885.152	-72.87
885.324	21.33
885.496	45.91
885.667	50
885.839	-7.34
886.011	58.2
886.182	-17.58
886.354	19.29
886.525	27.48
886.697	0.85
886.869	-5.29
887.04	-9.39
887.212	-21.67
887.383	-15.53
887.555	39.76
887.726	-15.53
887.897	25.43
888.069	-1.19
888.24	-23.72
888.412	-54.44
888.583	-11.43
888.754	35.67
888.926	-3.24
889.097	27.48
889.268	-1.19
889.44	-13.48
889.611	-64.68
889.782	-48.3
889.953	-1.19
890.125	33.62
890.296	-31.91
890.467	15.19
890.638	0.85
890.809	21.33
890.98	-17.58
891.151	-9.39
891.323	-31.91
891.494	7
891.665	4.95
891.836	29.52
892.007	-3.24
892.178	-48.3
892.349	-89.26
892.52	-9.39
892.691	-40.11
892.862	-42.15
893.032	-25.77
893.203	-9.39
893.374	19.29
893.545	19.29
893.716	29.52
893.887	4.95
894.057	-5.29
894.228	9.05
894.399	-23.72
894.57	39.76
894.74	-66.73
894.911	19.29
895.082	-27.82
895.253	33.62
895.423	23.38
895.594	41.81
895.764	-38.06
895.935	-5.29
896.106	-3.24
896.276	74.58
896.447	-54.44
896.617	-44.2
896.788	29.52
896.958	54.1
897.129	0.85
897.299	7
897.47	-23.72
897.64	15.19
897.81	-29.87
897.981	-29.87
898.151	-58.54
898.322	27.48
898.492	-1.19
898.662	-38.06
898.832	-72.87
899.003	23.38
899.173	15.19
899.343	35.67
899.513	-70.83
