Data from USB4F104151__47__13-53-23-618.txt Node

Date: Thu Mar 13 13:53:23 EDT 2025
User: louis
Spectrometer: USB4F10415
Trigger mode: 4
Integration Time (sec): 1.000000E-2
Scans to average: 1
Electric dark correction enabled: true
Nonlinearity correction enabled: false
Boxcar width: 0
XAxis mode: Wavelengths
Number of Pixels in Spectrum: 3648
>>>>>Begin Spectral Data<<<<<
178.204	-127.14
178.424	-127.14
178.644	-127.14
178.864	-43.18
179.084	-59.56
179.304	34.64
179.524	-30.89
179.744	-51.37
179.964	14.17
180.184	-12.46
180.404	-39.08
180.624	26.45
180.844	36.69
181.064	-37.03
181.283	77.65
181.503	5.97
181.723	-24.75
181.943	28.5
182.163	77.65
182.383	-43.18
182.602	51.03
182.822	57.17
183.042	18.26
183.262	-8.36
183.482	36.69
183.701	-18.6
183.921	61.27
184.141	-0.17
184.361	12.12
184.58	1.88
184.8	-53.42
185.02	-28.84
185.239	-32.94
185.459	-14.51
185.679	65.36
185.898	-6.31
186.118	-0.17
186.338	-8.36
186.557	24.4
186.777	-0.17
186.997	1.88
187.216	-26.79
187.436	61.27
187.655	1.88
187.875	26.45
188.095	69.46
188.314	8.02
188.534	18.26
188.753	26.45
188.973	3.93
189.192	34.64
189.412	-16.55
189.631	-6.31
189.851	-8.36
190.07	46.93
190.29	5.97
190.509	16.21
190.729	-18.6
190.948	-16.55
191.168	96.08
191.387	40.79
191.607	73.56
191.826	-16.55
192.045	44.88
192.265	1.88
192.484	16.21
192.704	-2.22
192.923	55.12
193.142	24.4
193.362	-20.65
193.581	8.02
193.8	-51.37
194.02	44.88
194.239	-80.04
194.458	16.21
194.678	-55.47
194.897	12.12
195.116	110.42
195.335	42.84
195.555	18.26
195.774	-51.37
195.993	-26.79
196.212	38.74
196.432	-73.9
196.651	-49.32
196.87	1.88
197.089	5.97
197.308	-22.7
197.528	42.84
197.747	-55.47
197.966	12.12
198.185	55.12
198.404	73.56
198.623	-2.22
198.842	-39.08
199.062	-6.31
199.281	-10.41
199.5	-14.51
199.719	65.36
199.938	-12.46
200.157	55.12
200.376	-80.04
200.595	-37.03
200.814	22.36
201.033	28.5
201.252	-6.31
201.471	73.56
201.69	-14.51
201.909	-28.84
202.128	-24.75
202.347	46.93
202.566	14.17
202.785	-2.22
203.004	48.98
203.223	38.74
203.442	-2.22
203.661	16.21
203.879	30.55
204.098	85.84
204.317	26.45
204.536	18.26
204.755	-6.31
204.974	-47.27
205.193	-14.51
205.411	102.23
205.63	-53.42
205.849	22.36
206.068	1.88
206.287	32.6
206.505	-63.66
206.724	-8.36
206.943	-4.27
207.162	-8.36
207.381	-32.94
207.599	3.93
207.818	14.17
208.037	30.55
208.255	12.12
208.474	-34.99
208.693	46.93
208.911	65.36
209.13	55.12
209.349	63.32
209.567	46.93
209.786	89.94
210.005	-18.6
210.223	36.69
210.442	53.08
210.661	14.17
210.879	8.02
211.098	44.88
211.316	-8.36
211.535	-28.84
211.753	22.36
211.972	53.08
212.191	-12.46
212.409	-57.51
212.628	-10.41
212.846	-6.31
213.065	-43.18
213.283	53.08
213.502	1.88
213.72	-6.31
213.938	18.26
214.157	-6.31
214.375	3.93
214.594	36.69
214.812	3.93
215.031	65.36
215.249	-6.31
215.467	-8.36
215.686	46.93
215.904	24.4
216.122	38.74
216.341	38.74
216.559	-49.32
216.778	-0.17
216.996	12.12
217.214	24.4
217.432	-2.22
217.651	8.02
217.869	-39.08
218.087	-20.65
218.306	-24.75
218.524	-12.46
218.742	-30.89
218.96	44.88
219.179	5.97
219.397	53.08
219.615	79.7
219.833	16.21
220.051	28.5
220.27	36.69
220.488	-6.31
220.706	75.6
220.924	12.12
221.142	55.12
221.36	16.21
221.578	-22.7
221.796	-12.46
222.015	38.74
222.233	3.93
222.451	32.6
222.669	30.55
222.887	61.27
223.105	77.65
223.323	28.5
223.541	28.5
223.759	20.31
223.977	36.69
224.195	8.02
224.413	-71.85
224.631	30.55
224.849	5.97
225.067	46.93
225.285	69.46
225.503	-69.8
225.721	-6.31
225.939	12.12
226.157	-8.36
226.375	83.8
226.592	-2.22
226.81	32.6
227.028	10.07
227.246	3.93
227.464	-8.36
227.682	34.64
227.9	20.31
228.117	-2.22
228.335	36.69
228.553	-2.22
228.771	77.65
228.989	55.12
229.206	30.55
229.424	-26.79
229.642	-28.84
229.86	8.02
230.077	22.36
230.295	77.65
230.513	-20.65
230.731	51.03
230.948	-10.41
231.166	-55.47
231.384	-30.89
231.601	22.36
231.819	-86.19
232.037	-16.55
232.254	-12.46
232.472	46.93
232.689	-24.75
232.907	30.55
233.125	87.89
233.342	89.94
233.56	3.93
233.777	-75.95
233.995	42.84
234.213	48.98
234.43	-2.22
234.648	22.36
234.865	1.88
235.083	1.88
235.3	-63.66
235.518	-0.17
235.735	36.69
235.953	48.98
236.17	-57.51
236.388	-4.27
236.605	10.07
236.822	-41.13
237.04	106.32
237.257	-45.23
237.475	22.36
237.692	8.02
237.909	-2.22
238.127	12.12
238.344	26.45
238.562	28.5
238.779	10.07
238.996	-24.75
239.214	10.07
239.431	-2.22
239.648	-41.13
239.865	79.7
240.083	53.08
240.3	42.84
240.517	-4.27
240.735	-10.41
240.952	32.6
241.169	51.03
241.386	8.02
241.603	-6.31
241.821	8.02
242.038	63.32
242.255	48.98
242.472	10.07
242.689	42.84
242.907	-37.03
243.124	94.04
243.341	-8.36
243.558	91.99
243.775	42.84
243.992	-37.03
244.209	59.22
244.426	71.51
244.643	34.64
244.86	51.03
245.078	22.36
245.295	32.6
245.512	32.6
245.729	-37.03
245.946	16.21
246.163	-2.22
246.38	38.74
246.597	-16.55
246.814	-16.55
247.031	-49.32
247.248	48.98
247.464	24.4
247.681	-0.17
247.898	18.26
248.115	16.21
248.332	-2.22
248.549	-16.55
248.766	-2.22
248.983	8.02
249.2	36.69
249.417	5.97
249.633	14.17
249.85	59.22
250.067	-18.6
250.284	12.12
250.501	87.89
250.717	-28.84
250.934	-86.19
251.151	30.55
251.368	36.69
251.585	8.02
251.801	32.6
252.018	40.79
252.235	87.89
252.451	-4.27
252.668	-34.99
252.885	3.93
253.102	32.6
253.318	20.31
253.535	-30.89
253.752	-59.56
253.968	14.17
254.185	12.12
254.401	-30.89
254.618	20.31
254.835	55.12
255.051	-26.79
255.268	-49.32
255.484	48.98
255.701	36.69
255.917	51.03
256.134	-14.51
256.351	48.98
256.567	46.93
256.784	26.45
257	44.88
257.217	38.74
257.433	46.93
257.65	24.4
257.866	16.21
258.082	24.4
258.299	26.45
258.515	-18.6
258.732	24.4
258.948	-37.03
259.165	-22.7
259.381	85.84
259.597	-24.75
259.814	59.22
260.03	51.03
260.246	46.93
260.463	48.98
260.679	5.97
260.895	-6.31
261.112	8.02
261.328	34.64
261.544	1.88
261.761	46.93
261.977	16.21
262.193	22.36
262.409	26.45
262.626	65.36
262.842	16.21
263.058	34.64
263.274	34.64
263.49	-6.31
263.707	26.45
263.923	-6.31
264.139	-8.36
264.355	-2.22
264.571	22.36
264.787	-16.55
265.004	59.22
265.22	51.03
265.436	30.55
265.652	36.69
265.868	30.55
266.084	-6.31
266.3	34.64
266.516	-26.79
266.732	61.27
266.948	18.26
267.164	48.98
267.38	-16.55
267.596	-4.27
267.812	-0.17
268.028	65.36
268.244	-12.46
268.46	-12.46
268.676	-8.36
268.892	5.97
269.108	44.88
269.324	10.07
269.54	57.17
269.756	48.98
269.972	-55.47
270.188	3.93
270.403	-43.18
270.619	36.69
270.835	53.08
271.051	-24.75
271.267	-18.6
271.483	48.98
271.698	14.17
271.914	30.55
272.13	30.55
272.346	14.17
272.562	-39.08
272.777	48.98
272.993	5.97
273.209	40.79
273.425	57.17
273.64	14.17
273.856	10.07
274.072	63.32
274.287	-6.31
274.503	91.99
274.719	3.93
274.934	-39.08
275.15	-4.27
275.366	85.84
275.581	-10.41
275.797	10.07
276.012	-26.79
276.228	18.26
276.444	20.31
276.659	53.08
276.875	67.41
277.09	10.07
277.306	-0.17
277.521	-16.55
277.737	-8.36
277.952	65.36
278.168	-53.42
278.383	69.46
278.599	89.94
278.814	10.07
279.03	8.02
279.245	55.12
279.461	87.89
279.676	44.88
279.892	36.69
280.107	-4.27
280.322	-22.7
280.538	5.97
280.753	22.36
280.969	-12.46
281.184	57.17
281.399	40.79
281.615	-4.27
281.83	20.31
282.045	3.93
282.26	-55.47
282.476	38.74
282.691	16.21
282.906	5.97
283.122	26.45
283.337	-80.04
283.552	71.51
283.767	38.74
283.983	38.74
284.198	12.12
284.413	-22.7
284.628	-39.08
284.843	36.69
285.058	108.37
285.274	-4.27
285.489	-6.31
285.704	18.26
285.919	36.69
286.134	51.03
286.349	-12.46
286.564	73.56
286.779	22.36
286.995	14.17
287.21	-22.7
287.425	98.13
287.64	-57.51
287.855	46.93
288.07	24.4
288.285	42.84
288.5	-8.36
288.715	28.5
288.93	3.93
289.145	42.84
289.36	-6.31
289.575	51.03
289.79	10.07
290.004	-12.46
290.219	-14.51
290.434	-0.17
290.649	36.69
290.864	1.88
291.079	-26.79
291.294	16.21
291.509	-0.17
291.724	14.17
291.938	-6.31
292.153	-10.41
292.368	67.41
292.583	85.84
292.798	46.93
293.012	36.69
293.227	36.69
293.442	73.56
293.657	38.74
293.871	12.12
294.086	-12.46
294.301	128.85
294.516	20.31
294.73	26.45
294.945	85.84
295.16	75.6
295.374	48.98
295.589	-43.18
295.804	8.02
296.018	16.21
296.233	32.6
296.447	55.12
296.662	-6.31
296.877	-59.56
297.091	51.03
297.306	42.84
297.52	-28.84
297.735	-0.17
297.949	-22.7
298.164	77.65
298.378	-41.13
298.593	-10.41
298.807	8.02
299.022	26.45
299.236	40.79
299.451	-4.27
299.665	26.45
299.88	34.64
300.094	36.69
300.309	67.41
300.523	34.64
300.737	26.45
300.952	46.93
301.166	-8.36
301.381	16.21
301.595	-45.23
301.809	10.07
302.024	8.02
302.238	34.64
302.452	-16.55
302.667	40.79
302.881	-12.46
303.095	40.79
303.309	8.02
303.524	81.75
303.738	55.12
303.952	36.69
304.166	77.65
304.381	48.98
304.595	102.23
304.809	28.5
305.023	81.75
305.237	12.12
305.452	-57.51
305.666	20.31
305.88	16.21
306.094	-18.6
306.308	14.17
306.522	153.43
306.736	20.31
306.95	10.07
307.164	14.17
307.379	36.69
307.593	5.97
307.807	53.08
308.021	26.45
308.235	24.4
308.449	-4.27
308.663	10.07
308.877	-14.51
309.091	102.23
309.305	36.69
309.519	-24.75
309.733	1.88
309.947	-37.03
310.161	73.56
310.374	28.5
310.588	5.97
310.802	1.88
311.016	79.7
311.23	71.51
311.444	-18.6
311.658	89.94
311.872	79.7
312.085	79.7
312.299	-0.17
312.513	-61.61
312.727	-41.13
312.941	-4.27
313.154	38.74
313.368	28.5
313.582	30.55
313.796	-8.36
314.009	-6.31
314.223	32.6
314.437	65.36
314.651	-63.66
314.864	-6.31
315.078	22.36
315.292	16.21
315.505	26.45
315.719	10.07
315.933	53.08
316.146	-6.31
316.36	-6.31
316.573	-34.99
316.787	-12.46
317.001	36.69
317.214	-8.36
317.428	51.03
317.641	40.79
317.855	-6.31
318.068	12.12
318.282	53.08
318.495	46.93
318.709	20.31
318.922	26.45
319.136	83.8
319.349	-2.22
319.563	71.51
319.776	8.02
319.99	51.03
320.203	-10.41
320.417	69.46
320.63	20.31
320.843	32.6
321.057	24.4
321.27	81.75
321.483	8.02
321.697	22.36
321.91	-20.65
322.124	-4.27
322.337	51.03
322.55	38.74
322.763	83.8
322.977	24.4
323.19	24.4
323.403	5.97
323.617	-28.84
323.83	104.28
324.043	48.98
324.256	16.21
324.469	-39.08
324.683	-63.66
324.896	8.02
325.109	59.22
325.322	-32.94
325.535	3.93
325.748	-30.89
325.962	-0.17
326.175	46.93
326.388	26.45
326.601	48.98
326.814	-0.17
327.027	38.74
327.24	-22.7
327.453	53.08
327.666	81.75
327.879	20.31
328.092	79.7
328.305	36.69
328.518	67.41
328.731	30.55
328.944	51.03
329.157	20.31
329.37	40.79
329.583	26.45
329.796	22.36
330.009	-20.65
330.222	30.55
330.435	-16.55
330.648	5.97
330.861	46.93
331.073	28.5
331.286	-14.51
331.499	53.08
331.712	5.97
331.925	18.26
332.138	-6.31
332.35	59.22
332.563	10.07
332.776	55.12
332.989	20.31
333.202	79.7
333.414	16.21
333.627	51.03
333.84	118.61
334.053	32.6
334.265	1.88
334.478	85.84
334.691	-20.65
334.903	59.22
335.116	-18.6
335.329	77.65
335.541	10.07
335.754	-10.41
335.966	38.74
336.179	48.98
336.392	24.4
336.604	-45.23
336.817	-8.36
337.029	12.12
337.242	-18.6
337.454	22.36
337.667	48.98
337.88	55.12
338.092	-45.23
338.305	96.08
338.517	14.17
338.729	-16.55
338.942	61.27
339.154	-77.99
339.367	16.21
339.579	104.28
339.792	36.69
340.004	61.27
340.217	-22.7
340.429	89.94
340.641	44.88
340.854	59.22
341.066	10.07
341.278	12.12
341.491	81.75
341.703	77.65
341.915	16.21
342.128	36.69
342.34	8.02
342.552	63.32
342.764	14.17
342.977	16.21
343.189	28.5
343.401	36.69
343.613	22.36
343.826	12.12
344.038	24.4
344.25	-65.71
344.462	67.41
344.674	-49.32
344.886	-47.27
345.099	-8.36
345.311	1.88
345.523	-0.17
345.735	51.03
345.947	-8.36
346.159	51.03
346.371	81.75
346.583	55.12
346.795	-55.47
347.007	-34.99
347.219	38.74
347.431	3.93
347.643	57.17
347.855	30.55
348.067	65.36
348.279	18.26
348.491	-49.32
348.703	-26.79
348.915	-8.36
349.127	59.22
349.339	24.4
349.551	46.93
349.763	34.64
349.975	77.65
350.187	28.5
350.399	71.51
350.61	71.51
350.822	8.02
351.034	26.45
351.246	16.21
351.458	-10.41
351.669	61.27
351.881	28.5
352.093	32.6
352.305	67.41
352.517	-16.55
352.728	42.84
352.94	-6.31
353.152	-55.47
353.363	20.31
353.575	79.7
353.787	63.32
353.999	-24.75
354.21	26.45
354.422	-8.36
354.633	124.76
354.845	34.64
355.057	-47.27
355.268	55.12
355.48	-14.51
355.692	32.6
355.903	46.93
356.115	22.36
356.326	77.65
356.538	8.02
356.749	46.93
356.961	55.12
357.172	73.56
357.384	-57.51
357.595	51.03
357.807	-61.61
358.018	77.65
358.23	40.79
358.441	102.23
358.653	100.18
358.864	-8.36
359.075	28.5
359.287	46.93
359.498	63.32
359.709	89.94
359.921	3.93
360.132	55.12
360.344	10.07
360.555	5.97
360.766	61.27
360.977	-0.17
361.189	12.12
361.4	-45.23
361.611	18.26
361.823	5.97
362.034	3.93
362.245	24.4
362.456	-14.51
362.667	38.74
362.879	77.65
363.09	55.12
363.301	8.02
363.512	59.22
363.723	14.17
363.935	44.88
364.146	10.07
364.357	36.69
364.568	40.79
364.779	46.93
364.99	-30.89
365.201	24.4
365.412	79.7
365.623	51.03
365.834	-4.27
366.045	-30.89
366.256	51.03
366.467	-4.27
366.678	-22.7
366.889	-39.08
367.1	118.61
367.311	8.02
367.522	28.5
367.733	-10.41
367.944	-22.7
368.155	1.88
368.366	75.6
368.577	34.64
368.788	67.41
368.999	5.97
369.209	61.27
369.42	75.6
369.631	40.79
369.842	-14.51
370.053	59.22
370.264	32.6
370.474	-4.27
370.685	53.08
370.896	44.88
371.107	1.88
371.317	16.21
371.528	44.88
371.739	77.65
371.95	48.98
372.16	12.12
372.371	42.84
372.582	98.13
372.792	55.12
373.003	-37.03
373.214	-2.22
373.424	5.97
373.635	-12.46
373.846	-12.46
374.056	65.36
374.267	38.74
374.477	40.79
374.688	59.22
374.898	28.5
375.109	28.5
375.319	71.51
375.53	83.8
375.74	20.31
375.951	1.88
376.161	59.22
376.372	73.56
376.582	-32.94
376.793	-39.08
377.003	26.45
377.214	12.12
377.424	24.4
377.635	-24.75
377.845	-0.17
378.055	44.88
378.266	-0.17
378.476	55.12
378.686	48.98
378.897	5.97
379.107	48.98
379.317	73.56
379.528	5.97
379.738	-10.41
379.948	55.12
380.158	-65.71
380.369	3.93
380.579	71.51
380.789	-30.89
380.999	22.36
381.21	59.22
381.42	38.74
381.63	26.45
381.84	73.56
382.05	16.21
382.261	-26.79
382.471	30.55
382.681	38.74
382.891	22.36
383.101	53.08
383.311	30.55
383.521	57.17
383.731	-4.27
383.941	42.84
384.151	116.56
384.361	8.02
384.571	-8.36
384.781	83.8
384.991	-4.27
385.201	12.12
385.411	69.46
385.621	-6.31
385.831	46.93
386.041	14.17
386.251	130.9
386.461	83.8
386.671	20.31
386.881	53.08
387.091	42.84
387.301	42.84
387.511	1.88
387.72	5.97
387.93	59.22
388.14	48.98
388.35	-4.27
388.56	20.31
388.769	46.93
388.979	36.69
389.189	63.32
389.399	48.98
389.609	10.07
389.818	81.75
390.028	42.84
390.238	67.41
390.447	20.31
390.657	18.26
390.867	5.97
391.076	5.97
391.286	75.6
391.496	18.26
391.705	5.97
391.915	42.84
392.125	28.5
392.334	16.21
392.544	32.6
392.753	71.51
392.963	118.61
393.172	48.98
393.382	30.55
393.591	137.04
393.801	28.5
394.01	44.88
394.22	36.69
394.429	126.8
394.639	-28.84
394.848	18.26
395.058	26.45
395.267	10.07
395.477	-4.27
395.686	36.69
395.895	61.27
396.105	85.84
396.314	-4.27
396.524	149.33
396.733	30.55
396.942	77.65
397.152	8.02
397.361	61.27
397.57	102.23
397.78	79.7
397.989	69.46
398.198	3.93
398.407	83.8
398.617	81.75
398.826	65.36
399.035	77.65
399.244	67.41
399.453	98.13
399.663	-2.22
399.872	55.12
400.081	-0.17
400.29	53.08
400.499	75.6
400.708	81.75
400.917	87.89
401.127	77.65
401.336	51.03
401.545	128.85
401.754	63.32
401.963	44.88
402.172	94.04
402.381	8.02
402.59	91.99
402.799	36.69
403.008	26.45
403.217	73.56
403.426	59.22
403.635	106.32
403.844	77.65
404.053	48.98
404.262	184.15
404.471	69.46
404.68	100.18
404.888	83.8
405.097	79.7
405.306	48.98
405.515	79.7
405.724	114.52
405.933	75.6
406.142	139.09
406.35	128.85
406.559	141.14
406.768	153.43
406.977	194.39
407.185	38.74
407.394	81.75
407.603	61.27
407.812	139.09
408.02	83.8
408.229	118.61
408.438	46.93
408.646	94.04
408.855	149.33
409.064	184.15
409.272	151.38
409.481	157.52
409.69	104.28
409.898	153.43
410.107	175.95
410.315	151.38
410.524	178
410.733	149.33
410.941	118.61
411.15	212.82
411.358	175.95
411.567	264.02
411.775	231.25
411.984	249.68
412.192	288.59
412.401	204.63
412.609	208.72
412.818	261.97
413.026	247.63
413.234	335.7
413.443	264.02
413.651	339.79
413.86	282.45
414.068	403.28
414.276	354.13
414.485	378.7
414.693	388.94
414.901	448.33
415.11	462.67
415.318	309.07
415.526	444.24
415.734	436.05
415.943	431.95
416.151	507.73
416.359	499.53
416.567	485.2
416.776	472.91
416.984	524.11
417.192	587.6
417.4	515.92
417.608	444.24
417.817	575.31
418.025	571.21
418.233	591.69
418.441	667.47
418.649	657.23
418.857	737.1
419.065	649.04
419.273	685.9
419.481	784.2
419.689	767.82
419.897	839.5
420.105	886.6
420.313	909.13
420.521	849.74
420.729	919.37
420.937	886.6
421.145	925.51
421.353	1003.33
421.561	1038.15
421.769	1175.36
421.977	1075.01
422.185	1085.25
422.393	1232.71
422.601	1197.89
422.809	1314.63
423.017	1328.96
423.224	1333.06
423.432	1316.67
423.64	1449.79
423.848	1472.32
424.056	1587.01
424.263	1541.95
424.471	1580.86
424.679	1507.13
424.887	1769.27
425.094	1865.53
425.302	1734.46
425.51	1754.94
425.718	1947.45
425.925	1816.38
426.133	1910.58
426.341	2049.85
426.548	2135.86
426.756	2148.15
426.964	2193.2
427.171	2273.07
427.379	2279.22
427.586	2344.75
427.794	2455.34
428.001	2539.31
428.209	2774.83
428.417	2578.22
428.624	2953
428.832	2750.25
429.039	2678.57
429.247	2953
429.454	3106.6
429.662	3421.99
429.869	3165.99
430.076	3295.01
430.284	3256.1
430.491	3438.37
430.699	3508
430.906	3569.44
431.114	3671.84
431.321	3796.76
431.528	3933.98
431.736	3841.82
431.943	4097.81
432.15	4171.54
432.358	4048.66
432.565	4480.78
432.772	4456.21
432.979	4474.64
433.187	4579.09
433.394	4753.16
433.601	4968.2
433.808	4978.44
434.016	5046.02
434.223	5236.49
434.43	5469.95
434.637	5418.75
434.844	5748.48
435.052	5762.81
435.259	5764.86
435.466	5756.67
435.673	5758.72
435.88	6139.64
436.087	6364.92
436.294	6463.22
436.501	6303.48
436.708	6450.93
436.915	6659.82
437.122	6930.16
437.329	6938.35
437.537	7298.79
437.743	7354.09
437.95	7218.92
438.157	7702.24
438.364	7874.27
438.571	8007.39
438.778	7855.84
438.985	8855.25
439.192	8394.45
439.399	8605.39
439.606	8570.58
439.813	8812.24
440.02	9408.2
440.227	9236.17
440.433	9340.61
440.64	9408.2
440.847	9289.42
441.054	9688.77
441.261	10286.78
441.467	9897.66
441.674	10335.93
441.881	10694.32
442.088	10727.09
442.294	10647.22
442.501	10835.63
442.708	11097.77
442.914	11423.4
443.121	12086.94
443.328	11726.5
443.534	12658.32
443.741	12351.13
443.948	12093.08
444.154	13194.89
444.361	12646.04
444.568	13041.29
444.774	13086.35
444.981	13198.99
445.187	13354.63
445.394	13559.43
445.6	13954.69
445.807	15181.42
446.013	14548.6
446.22	14642.81
446.426	15498.86
446.633	15523.43
446.839	15935.07
447.046	15195.76
447.252	16170.59
447.459	16195.17
447.665	16150.11
447.871	16950.87
448.078	17606.22
448.284	16682.58
448.491	17299.02
448.697	17817.16
448.903	17980.99
449.11	18226.75
449.316	17718.85
449.522	18132.54
449.728	18689.59
449.935	18677.3
450.141	18705.98
450.347	19217.97
450.553	18785.85
450.76	18665.02
450.966	19469.87
451.172	19090.99
451.378	19576.36
451.584	19367.47
451.791	19775.02
451.997	19584.55
452.203	20053.54
452.409	19899.94
452.615	19803.69
452.821	19265.07
453.027	18923.06
453.233	19662.38
453.44	19152.43
453.646	19078.71
453.852	19400.24
454.058	19465.77
454.264	18806.33
454.47	19664.43
454.676	18843.19
454.882	19531.31
455.088	17919.56
455.294	18112.06
455.5	18327.1
455.705	18603.58
455.911	17935.94
456.117	17215.05
456.323	17112.66
456.529	16025.18
456.735	16694.87
456.941	16598.62
457.147	16305.76
457.352	15595.11
457.558	15597.16
457.764	15371.88
457.97	15158.89
458.176	14786.16
458.381	14923.38
458.587	14259.84
458.793	14190.2
458.999	13641.35
459.204	14044.8
459.41	13940.35
459.616	13235.85
459.821	13264.52
460.027	12994.19
460.233	12664.47
460.438	11923.1
460.644	12250.78
460.85	11681.44
461.055	11511.46
461.261	11441.83
461.466	10747.57
461.672	10036.92
461.878	10866.35
462.083	10344.12
462.289	10051.26
462.494	9955.01
462.7	9629.38
462.905	9338.57
463.111	9467.59
463.316	9877.18
463.522	9471.68
463.727	9449.16
463.932	9670.34
464.138	9404.1
464.343	9434.82
464.549	9092.81
464.754	9531.08
464.959	9340.61
465.165	9346.76
465.37	8922.83
465.575	8623.83
465.781	9180.87
465.986	9254.6
466.191	8652.5
466.397	8707.79
466.602	8298.2
466.807	8326.87
467.012	8503
467.218	8650.45
467.423	8365.78
467.628	8201.94
467.833	8578.77
468.038	8376.02
468.244	8097.5
468.449	8761.04
468.654	8232.66
468.859	8464.08
469.064	8363.73
469.269	7880.41
469.474	8107.74
469.679	7962.33
469.885	7741.15
470.09	8097.5
470.295	8050.39
470.5	7605.99
470.705	7757.53
470.91	7466.72
471.115	7407.33
471.32	7417.57
471.525	7585.51
471.73	7208.68
471.935	7270.12
472.139	7010.03
472.344	7163.62
472.549	7071.47
472.754	6973.16
472.959	6766.32
473.164	6893.29
473.369	6559.47
473.574	6801.13
473.778	6774.51
473.983	6661.87
474.188	6729.45
474.393	6444.79
474.598	6625.01
474.802	6305.53
475.007	6262.52
475.212	6256.37
475.417	6127.35
475.621	6188.79
475.826	6006.52
476.031	5945.08
476.235	6096.63
476.44	6049.53
476.645	5785.34
476.849	5979.9
477.054	5793.53
477.259	5811.96
477.463	5764.86
477.668	5590.78
477.872	5674.75
478.077	5676.8
478.282	5459.71
478.486	5465.86
478.691	5320.45
478.895	5474.05
479.1	5287.68
479.304	5338.88
479.509	5424.9
479.713	5359.36
479.918	5160.71
480.122	5181.19
480.326	5322.5
480.531	5193.48
480.735	5078.79
480.94	5046.02
481.144	5107.46
481.348	5099.27
481.553	5005.06
481.757	4855.56
481.961	5021.45
482.166	5086.98
482.37	5025.54
482.574	5023.5
482.778	5181.19
482.983	5060.36
483.187	5054.22
483.391	4878.09
483.595	4886.28
483.8	4859.66
484.004	5041.93
484.208	5107.46
484.412	5023.5
484.616	4839.18
484.821	4972.3
485.025	4929.29
485.229	5091.08
485.433	4888.33
485.637	4826.89
485.841	4931.34
486.045	4808.46
486.249	5093.13
486.453	4972.3
486.657	4949.77
486.861	5025.54
487.065	4923.15
487.269	4957.96
487.473	4917
487.677	5066.5
487.881	5107.46
488.085	4990.73
488.289	5201.67
488.493	4910.86
488.697	5062.41
488.901	4962.06
489.105	5105.42
489.309	5084.94
489.512	5183.24
489.716	5109.51
489.92	5170.95
490.124	5082.89
490.328	5144.33
490.531	5103.37
490.735	5072.65
490.939	5093.13
491.143	5095.18
491.346	5084.94
491.55	5173
491.754	5154.57
491.958	5211.91
492.161	5150.47
492.365	5226.25
492.569	5097.22
492.772	5281.54
492.976	5414.66
493.18	5287.68
493.383	5453.57
493.587	5388.04
493.79	5535.49
493.994	5459.71
494.197	5453.57
494.401	5504.77
494.605	5592.83
494.808	5701.37
495.012	5852.92
495.215	5648.13
495.419	5824.25
495.622	5709.57
495.825	5904.12
496.029	5863.16
496.232	6049.53
496.436	6031.1
496.639	6061.82
496.843	6076.15
497.046	6219.51
497.249	6201.08
497.453	6313.72
497.656	6473.46
497.859	6303.48
498.063	6483.7
498.266	6594.29
498.469	6588.14
498.673	6631.15
498.876	6868.72
499.079	7139.05
499.282	6944.49
499.485	7061.23
499.689	7241.45
499.892	7153.38
500.095	7079.66
500.298	7442.15
500.501	7343.85
500.705	7565.03
500.908	7470.82
501.111	7622.37
501.314	7737.06
501.517	7708.38
501.72	7960.28
501.923	7900.89
502.126	8021.72
502.329	8165.08
502.532	8247
502.735	8345.3
502.938	8621.78
503.141	8468.18
503.344	8883.92
503.547	8652.5
503.75	8939.21
503.953	9029.32
504.156	8969.93
504.359	9254.6
504.562	9498.31
504.765	9539.27
504.968	9479.88
505.17	9592.51
505.373	9871.04
505.576	10028.73
505.779	9907.9
505.982	10184.38
506.185	10176.19
506.387	10403.51
506.59	10454.71
506.793	10618.55
506.996	10573.49
507.198	10897.07
507.401	11120.3
507.604	11034.28
507.807	11247.27
508.009	11398.82
508.212	11503.27
508.415	11542.18
508.617	11792.03
508.82	11912.86
509.022	11736.74
509.225	12072.61
509.428	12154.52
509.63	12383.9
509.833	12684.95
510.035	12596.89
510.238	12850.83
510.44	12854.93
510.643	13067.92
510.845	13309.58
511.048	13215.37
511.25	13330.06
511.453	13452.94
511.655	14102.14
511.858	14048.89
512.06	14114.43
512.262	14419.58
512.465	14261.88
512.667	14571.13
512.87	14909.04
513.072	15083.12
513.274	15167.09
513.477	15281.77
513.679	15507.05
513.881	15631.97
514.084	16002.66
514.286	15591.02
514.488	15838.82
514.69	16426.59
514.893	16301.66
515.095	16459.35
515.297	16635.48
515.499	17116.75
515.701	17227.34
515.904	17229.39
516.106	17292.88
516.308	17700.42
516.51	17837.64
516.712	17952.32
516.914	18329.15
517.116	18507.32
517.318	18605.63
517.52	18650.68
517.722	18906.68
517.925	18884.15
518.127	19478.06
518.329	19861.03
518.531	19328.56
518.733	20071.97
518.935	20168.23
519.136	20145.7
519.338	20356.64
519.54	20528.67
519.742	20932.12
519.944	20928.02
520.146	21026.32
520.348	21378.58
520.55	21528.08
520.752	21724.68
520.954	22044.16
521.155	21939.72
521.357	22232.58
521.559	22369.79
521.761	22986.23
521.963	22597.12
522.164	23025.14
522.366	22973.94
522.568	23389.68
522.77	23385.58
522.971	24077.8
523.173	23844.33
523.375	24012.26
523.576	23940.58
523.778	23965.16
523.98	24370.66
524.181	24686.04
524.383	24739.29
524.584	25007.58
524.786	25066.97
524.988	25007.58
525.189	25361.87
525.391	25427.41
525.592	25636.3
525.794	25988.55
525.995	26000.84
526.197	26041.8
526.398	25996.74
526.6	26482.11
526.801	26305.99
527.003	26551.74
527.204	26600.9
527.406	26768.83
527.607	26770.88
527.808	27248.05
528.01	26537.41
528.211	26967.48
528.412	27710.89
528.614	27178.42
528.815	27483.57
529.016	27561.39
529.218	27207.09
529.419	27483.57
529.62	27483.57
529.822	27610.54
530.023	27876.78
530.224	27833.77
530.425	27696.56
530.626	27745.71
530.828	27737.52
531.029	28501.41
531.23	28102.06
531.431	27993.51
531.632	27921.84
531.833	28196.26
532.035	28218.79
532.236	28249.51
532.437	28310.95
532.638	28339.62
532.839	28407.2
533.04	28628.38
533.241	27968.94
533.442	28630.43
533.643	28521.89
533.844	28411.3
534.045	28659.1
534.246	28202.41
534.447	28945.82
534.648	28554.66
534.849	28720.54
535.05	28298.66
535.251	28968.35
535.451	28368.29
535.652	28704.16
535.853	28673.44
536.054	28554.66
536.255	28747.17
536.456	28630.43
536.657	29306.26
536.857	28718.5
537.058	28503.46
537.259	28792.22
537.46	28904.86
537.66	28749.21
537.861	29070.75
538.062	28579.23
538.263	28804.51
538.463	28679.58
538.664	28591.52
538.865	28777.89
539.065	29195.67
539.266	28614.05
539.466	29375.89
539.667	28761.5
539.868	29066.65
540.068	29048.22
540.269	28917.15
540.469	28853.66
540.67	28894.62
540.87	28908.96
541.071	28646.82
541.271	28786.08
541.472	28857.76
541.672	28538.27
541.873	28310.95
542.073	28208.55
542.274	29007.26
542.474	28503.46
542.675	28435.88
542.875	28892.57
543.075	28980.64
543.276	28726.69
543.476	28925.34
543.676	28870.04
543.877	28597.66
544.077	28872.09
544.277	28587.43
544.478	28554.66
544.678	28605.86
544.878	28648.86
545.078	28474.79
545.279	28540.32
545.479	28321.19
545.679	28827.04
545.879	28593.57
546.079	28579.23
546.28	28736.93
546.48	28530.08
546.68	28493.22
546.88	28929.44
547.08	28681.63
547.28	28923.29
547.48	28677.54
547.68	28652.96
547.88	28282.28
548.081	28800.41
548.281	28833.18
548.481	28859.8
548.681	28960.16
548.881	28720.54
549.081	28675.49
549.28	28698.02
549.48	28808.61
549.68	28519.84
549.88	29093.27
550.08	28628.38
550.28	28779.93
550.48	28427.68
550.68	28761.5
550.88	28482.98
551.08	28687.78
551.279	28753.31
551.479	28554.66
551.679	28532.13
551.879	28456.36
552.079	28614.05
552.278	28564.9
552.478	28568.99
552.678	28550.56
552.878	28585.38
553.077	28442.02
553.277	28263.85
553.477	28732.83
553.676	28347.81
553.876	28628.38
554.076	28323.24
554.275	28368.29
554.475	28413.35
554.674	28399.01
554.874	28308.9
555.074	28247.46
555.273	28296.61
555.473	28405.16
555.672	27911.6
555.872	28417.44
556.071	28237.22
556.271	28069.29
556.47	27923.88
556.67	27639.22
556.869	28265.89
557.068	28181.93
557.268	27688.37
557.467	28046.76
557.667	27829.68
557.866	27821.48
558.065	27534.77
558.265	27774.38
558.464	27594.16
558.663	27719.09
558.863	27499.95
559.062	27737.52
559.261	27549.1
559.461	28032.43
559.66	27338.16
559.859	27514.29
560.058	27207.09
560.258	27471.28
560.457	27338.16
560.656	27458.99
560.855	27512.24
561.054	27295.16
561.253	27184.57
561.453	27254.2
561.652	26803.64
561.851	27125.18
562.05	27125.18
562.249	26971.58
562.448	27209.14
562.647	26912.19
562.846	26707.39
563.045	26635.71
563.244	26551.74
563.443	26873.28
563.642	26402.24
563.841	26779.07
564.04	26785.21
564.239	26762.68
564.438	26525.12
564.637	26740.16
564.836	26502.59
565.035	26062.28
565.234	26611.14
565.432	26201.54
565.631	26262.98
565.83	26211.78
566.029	25968.07
566.228	25933.26
566.427	25970.12
566.625	25892.3
566.824	25775.56
567.023	26209.73
567.222	25437.65
567.42	25771.47
567.619	25830.86
567.818	25785.8
568.016	25562.58
568.215	25820.62
568.414	25316.82
568.612	25560.53
568.811	25279.96
569.01	25183.7
569.208	25443.79
569.407	25374.16
569.605	24939.99
569.804	24960.47
570.002	24944.09
570.201	24841.69
570.4	24675.8
570.598	24659.42
570.797	24266.21
570.995	24622.56
571.193	24282.59
571.392	24602.08
571.59	24317.41
571.789	24344.03
571.987	24180.2
572.186	24184.29
572.384	24022.5
572.582	24260.07
572.781	23967.21
572.979	23676.4
573.177	23707.12
573.376	23813.61
573.574	23815.66
573.772	23942.63
573.971	23641.58
574.169	23526.89
574.367	23270.9
574.565	23578.09
574.763	23172.6
574.962	23395.82
575.16	23213.56
575.358	23186.93
575.556	22853.11
575.754	22961.65
575.952	22937.08
576.151	23166.45
576.349	22636.03
576.547	22644.22
576.745	22717.95
576.943	22418.94
577.141	22552.06
577.339	22644.22
577.537	22351.36
577.735	22459.9
577.933	22015.49
578.131	22130.18
578.329	22058.5
578.527	21839.37
578.725	22021.64
578.923	22109.7
579.121	21886.47
579.319	21622.28
579.516	21894.66
579.714	21468.69
579.912	21505.55
580.11	21736.97
580.308	21296.66
580.506	21630.48
580.704	21188.11
580.901	21104.15
581.099	21507.6
581.297	21034.52
581.495	20977.17
581.692	21272.08
581.89	20925.97
582.088	21014.04
582.285	20844.06
582.483	21067.28
582.681	20950.55
582.878	20837.91
583.076	20606.49
583.274	20788.76
583.471	20289.06
583.669	20518.43
583.866	20198.95
584.064	20442.65
584.262	20108.83
584.459	20192.8
584.657	20227.62
584.854	20416.03
585.052	19996.2
585.249	20028.96
585.447	20104.74
585.644	19805.74
585.841	20172.32
586.039	20014.63
586.236	19820.07
586.434	19594.79
586.631	19635.75
586.828	19873.32
587.026	19465.77
587.223	19602.99
587.42	19387.95
587.618	19365.42
587.815	19166.77
588.012	19152.43
588.21	18830.9
588.407	19332.65
588.604	19107.38
588.801	18812.47
588.999	18937.4
589.196	18886.2
589.393	18769.46
589.59	18746.94
589.787	18535.99
589.984	18714.17
590.182	18648.63
590.379	18533.95
590.576	18456.12
590.773	18468.41
590.97	18568.76
591.167	18269.76
591.364	18243.13
591.561	18415.16
591.758	17948.23
591.955	17960.52
592.152	18081.35
592.349	17835.59
592.546	17796.68
592.743	17819.21
592.94	17548.87
593.137	17784.39
593.334	17714.76
593.531	17440.33
593.727	17731.14
593.924	17651.27
594.121	17501.77
594.318	17534.54
594.515	17258.06
594.712	17667.66
594.908	17301.07
595.105	17294.93
595.302	16979.54
595.499	17124.94
595.696	16993.87
595.892	17253.97
596.089	17126.99
596.286	17186.38
596.482	16885.33
596.679	16473.69
596.876	16926.29
597.072	16825.94
597.269	16758.36
597.466	16598.62
597.662	16662.1
597.859	16770.65
598.055	16596.57
598.252	16389.72
598.448	16416.35
598.645	16164.45
598.841	16279.13
599.038	16344.67
599.234	16227.93
599.431	16129.63
599.627	15939.17
599.824	16266.85
600.02	15951.46
600.217	15996.51
600.413	15744.61
600.609	16012.9
600.806	15793.76
601.002	15685.22
601.198	15943.27
601.395	15738.47
601.591	15378.03
601.787	15681.13
601.984	15347.31
602.18	15529.58
602.376	15279.72
602.572	15111.79
602.769	15224.43
602.965	15216.24
603.161	15304.3
603.357	15085.17
603.553	15263.34
603.75	15343.21
603.946	14952.05
604.142	15003.25
604.338	14757.49
604.534	14935.67
604.73	14691.96
604.926	14943.86
605.122	14757.49
605.318	14827.12
605.514	14634.61
605.71	14548.6
605.906	14452.34
606.102	14476.92
606.298	14403.19
606.494	14409.34
606.69	14272.12
606.886	14421.63
607.082	14067.33
607.278	14214.78
607.474	13983.36
607.67	14255.74
607.866	14122.62
608.062	14065.28
608.257	13864.58
608.453	13969.02
608.649	14147.2
608.845	13792.9
609.041	14040.7
609.236	13856.39
609.432	13737.6
609.628	13850.24
609.824	13864.58
610.019	13516.42
610.215	13842.05
610.411	13706.88
610.606	13547.14
610.802	13686.4
610.998	13536.9
611.193	13817.47
611.389	13319.82
611.584	13291.15
611.78	13184.65
611.976	13366.92
612.171	13409.93
612.367	13407.88
612.562	13375.11
612.758	13133.45
612.953	12951.18
613.149	13274.76
613.344	13198.99
613.539	13321.87
613.735	13227.66
613.93	12922.51
614.126	13043.34
614.321	12967.57
614.517	13074.06
614.712	12897.94
614.907	12967.57
615.103	12932.75
615.298	12801.68
615.493	12983.95
615.688	12758.67
615.884	13131.4
616.079	12562.07
616.274	12781.2
616.47	12676.76
616.665	12879.5
616.86	12426.9
617.055	12568.21
617.25	12654.23
617.445	12519.06
617.641	12267.16
617.836	12584.6
618.031	12041.89
618.226	12402.33
618.421	12398.23
618.616	12246.68
618.811	12140.19
619.006	12215.96
619.201	11937.44
619.396	12074.65
619.591	11839.14
619.786	11880.1
619.981	11798.18
620.176	11898.53
620.371	11722.4
620.566	12015.26
620.761	11679.4
620.956	11693.73
621.151	11470.5
621.346	11548.33
621.541	11523.75
621.735	11431.59
621.93	11269.8
622.125	11505.32
622.32	11110.06
622.515	11198.12
622.709	11099.82
622.904	10968.75
623.099	10956.46
623.294	10944.17
623.488	10950.32
623.683	10849.97
623.878	10581.68
624.072	10860.21
624.267	10714.8
624.462	10479.29
624.656	10579.64
624.851	10491.57
625.046	10354.36
625.24	10395.32
625.435	10258.1
625.629	10327.74
625.824	10069.69
626.018	10106.56
626.213	9754.3
626.407	9961.15
626.602	9848.51
626.796	9981.63
626.991	10057.4
627.185	9840.32
627.38	9690.82
627.574	9516.74
627.768	9688.77
627.963	9412.29
628.157	9666.24
628.352	9385.67
628.546	9455.3
628.74	9307.85
628.935	9230.02
629.129	9365.19
629.323	9166.54
629.517	9037.52
629.712	9010.89
629.906	9178.83
630.1	9031.37
630.294	8990.41
630.489	8820.43
630.683	8838.86
630.877	8810.19
631.071	8951.5
631.265	8664.79
631.459	8865.49
631.653	8642.26
631.848	8697.55
632.042	8609.49
632.236	8756.94
632.43	8593.11
632.624	8503
632.818	8429.27
633.012	8240.86
633.206	8369.88
633.4	8298.2
633.594	8275.67
633.788	8220.38
633.982	8130.27
634.176	7999.2
634.369	8158.94
634.563	7974.62
634.757	7970.52
634.951	7814.88
635.145	7696.1
635.339	7816.93
635.533	7919.32
635.726	7732.96
635.92	7597.79
636.114	7552.74
636.308	7601.89
636.501	7646.94
636.695	7630.56
636.889	7567.07
637.083	7317.22
637.276	7327.46
637.47	7429.86
637.664	7317.22
637.857	7190.25
638.051	7315.17
638.244	7225.06
638.438	7206.63
638.632	7239.4
638.825	7155.43
639.019	6993.64
639.212	6999.79
639.406	6940.4
639.599	6838
639.793	7020.27
639.986	6665.97
640.18	6917.87
640.373	6915.82
640.567	6723.31
640.76	6686.45
640.954	6665.97
641.147	6647.54
641.34	6584.05
641.534	6465.27
641.727	6369.01
641.92	6457.07
642.114	6362.87
642.307	6407.92
642.5	6162.17
642.694	6493.94
642.887	6305.53
643.08	6219.51
643.273	6278.9
643.467	6280.95
643.66	6094.58
643.853	6086.39
644.046	6057.72
644.239	6027
644.432	5945.08
644.626	5963.51
644.819	5887.74
645.012	5924.6
645.205	5777.15
645.398	5873.4
645.591	5689.09
645.784	5713.66
645.977	5818.11
646.17	5822.2
646.363	5588.74
646.556	5547.78
646.749	5447.43
646.942	5486.34
647.135	5373.7
647.328	5519.11
647.521	5598.98
647.714	5428.99
647.907	5310.21
648.099	5379.84
648.292	5291.78
648.485	5390.08
648.678	5164.81
648.871	5275.4
649.064	5158.66
649.256	5318.4
649.449	5213.96
649.642	5177.09
649.835	5011.21
650.027	5009.16
650.22	5121.8
650.413	4923.15
650.605	5009.16
650.798	5021.45
650.991	4857.61
651.183	4867.85
651.376	4847.37
651.568	4843.28
651.761	4996.87
651.954	4734.73
652.146	4863.76
652.339	4716.3
652.531	4640.53
652.724	4519.7
652.916	4665.1
653.109	4605.71
653.301	4609.81
653.494	4568.85
653.686	4466.45
653.879	4597.52
654.071	4552.46
654.263	4337.43
654.456	4585.23
654.648	4200.21
654.84	4359.95
655.033	4267.8
655.225	4249.36
655.417	4165.4
655.61	4345.62
655.802	4384.53
655.994	4114.2
656.186	4310.8
656.379	4142.87
656.571	4214.55
656.763	4052.76
656.955	4171.54
657.148	4124.44
657.34	4151.06
657.532	4177.69
657.724	3979.03
657.916	3831.58
658.108	3940.12
658.3	4046.62
658.492	4007.7
658.684	3929.88
658.876	3852.06
659.068	3874.59
659.26	3884.83
659.452	3839.77
659.644	3843.87
659.836	3663.65
660.028	3804.96
660.22	3702.56
660.412	3634.97
660.604	3618.59
660.796	3802.91
660.988	3581.73
661.18	3618.59
661.372	3522.34
661.563	3557.15
661.755	3532.58
661.947	3479.33
662.139	3542.82
662.331	3471.14
662.522	3424.03
662.714	3520.29
662.906	3413.79
663.097	3352.35
663.289	3376.93
663.481	3405.6
663.673	3329.83
663.864	3235.62
664.056	3276.58
664.247	3370.79
664.439	3299.11
664.631	3243.81
664.822	3219.24
665.014	3231.52
665.205	3252
665.397	3178.28
665.588	3163.94
665.78	3217.19
665.971	3245.86
666.163	3030.82
666.354	3114.79
666.546	2985.77
666.737	3145.51
666.929	3178.28
667.12	3161.89
667.311	3022.63
667.503	3008.3
667.694	3016.49
667.885	2914.09
668.077	2991.91
668.268	3006.25
668.459	2883.37
668.651	2918.18
668.842	2901.8
669.033	2909.99
669.224	2963.24
669.416	2809.64
669.607	2934.57
669.798	2938.66
669.989	2942.76
670.18	2840.36
670.371	2684.72
670.563	2823.98
670.754	2862.89
670.945	2713.39
671.136	2733.87
671.327	2740.01
671.518	2641.71
671.709	2723.63
671.9	2604.85
672.091	2641.71
672.282	2561.84
672.473	2705.2
672.664	2641.71
672.855	2729.77
673.046	2692.91
673.237	2688.81
673.428	2592.56
673.619	2596.65
673.809	2621.23
674	2580.27
674.191	2647.85
674.382	2645.8
674.573	2527.02
674.764	2543.41
674.954	2615.09
675.145	2516.78
675.336	2490.16
675.527	2510.64
675.717	2418.48
675.908	2508.59
676.099	2449.2
676.289	2551.6
676.48	2510.64
676.671	2424.62
676.861	2537.26
677.052	2379.57
677.243	2404.14
677.433	2465.58
677.624	2402.1
677.814	2477.87
678.005	2438.96
678.195	2543.41
678.386	2357.04
678.576	2424.62
678.767	2393.9
678.957	2363.19
679.148	2469.68
679.338	2416.43
679.529	2314.03
679.719	2391.86
679.909	2348.85
680.1	2395.95
680.29	2318.13
680.481	2422.58
680.671	2248.5
680.861	2330.42
681.052	2266.93
681.242	2303.79
681.432	2383.66
681.622	2305.84
681.813	2182.96
682.003	2340.66
682.193	2281.27
682.383	2277.17
682.573	2246.45
682.764	2207.54
682.954	2240.31
683.144	2295.6
683.334	2256.69
683.524	2260.79
683.714	2283.31
683.904	2275.12
684.094	2244.4
684.284	2375.47
684.474	2221.88
684.664	2291.51
684.854	2201.4
685.044	2144.05
685.234	2246.45
685.424	2254.64
685.614	2084.66
685.804	2209.59
685.994	2109.24
686.184	2244.4
686.374	2295.6
686.564	2201.4
686.753	2162.48
686.943	2162.48
687.133	2117.43
687.323	2254.64
687.513	2131.76
687.702	2246.45
687.892	2164.53
688.082	2121.52
688.272	2176.82
688.461	2080.57
688.651	2148.15
688.841	2047.8
689.03	2051.89
689.22	2121.52
689.41	2131.76
689.599	2150.2
689.789	2023.22
689.979	2182.96
690.168	2062.13
690.358	2117.43
690.547	2172.72
690.737	2074.42
690.926	2064.18
691.116	1986.36
691.305	2176.82
691.495	2039.61
691.684	2078.52
691.874	2096.95
692.063	2121.52
692.252	1996.6
692.442	2096.95
692.631	2041.65
692.82	1978.17
693.01	1957.69
693.199	2117.43
693.388	1992.5
693.578	2074.42
693.767	1939.26
693.956	2004.79
694.146	1965.88
694.335	2072.37
694.524	2072.37
694.713	2021.17
694.902	1959.74
695.092	2055.99
695.281	2010.93
695.47	1980.22
695.659	1908.54
695.848	2119.48
696.037	2035.51
696.226	2035.51
696.415	2031.41
696.604	2125.62
696.793	2045.75
696.982	1959.74
697.171	2004.79
697.36	2072.37
697.549	1986.36
697.738	2078.52
697.927	1994.55
698.116	1965.88
698.305	1980.22
698.494	2021.17
698.683	2002.74
698.872	2094.9
699.061	2117.43
699.25	2058.04
699.438	2015.03
699.627	1959.74
699.816	1935.16
700.005	1931.06
700.193	1892.15
700.382	2025.27
700.571	1974.07
700.76	2066.23
700.948	2012.98
701.137	2072.37
701.326	2025.27
701.514	1871.67
701.703	1922.87
701.892	2033.46
702.08	1935.16
702.269	1974.07
702.457	1912.63
702.646	1986.36
702.834	1939.26
703.023	1888.06
703.212	2023.22
703.4	1976.12
703.589	1941.3
703.777	1967.93
703.965	1898.3
704.154	1890.1
704.342	1853.24
704.531	1931.06
704.719	1951.54
704.907	1902.39
705.096	1892.15
705.284	2012.98
705.472	1857.34
705.661	1888.06
705.849	1951.54
706.037	1894.2
706.226	2012.98
706.414	1904.44
706.602	1886.01
706.79	1883.96
706.979	1912.63
707.167	1933.11
707.355	1832.76
707.543	1879.86
707.731	1949.5
707.919	1904.44
708.107	1789.75
708.296	1849.15
708.484	1945.4
708.672	1865.53
708.86	1855.29
709.048	1806.14
709.236	1808.19
709.424	1814.33
709.612	1904.44
709.8	1845.05
709.988	1769.27
710.176	1838.91
710.364	1795.9
710.551	1849.15
710.739	1711.93
710.927	1777.47
711.115	1673.02
711.303	1843
711.491	1775.42
711.679	1750.84
711.866	1732.41
712.054	1836.86
712.242	1812.28
712.43	1761.08
712.617	1726.27
712.805	1664.83
712.993	1724.22
713.181	1601.34
713.368	1744.7
713.556	1660.73
713.744	1656.64
713.931	1701.69
714.119	1744.7
714.306	1707.84
714.494	1677.12
714.682	1732.41
714.869	1675.07
715.057	1724.22
715.244	1632.06
715.432	1697.6
715.619	1701.69
715.807	1675.07
715.994	1691.45
716.182	1670.97
716.369	1621.82
716.556	1638.2
716.744	1634.11
716.931	1562.43
717.119	1658.68
717.306	1490.75
717.493	1558.33
717.681	1580.86
717.868	1595.2
718.055	1541.95
718.242	1597.24
718.43	1677.12
718.617	1619.77
718.804	1582.91
718.991	1595.2
719.179	1613.63
719.366	1636.16
719.553	1562.43
719.74	1634.11
719.927	1500.99
720.114	1468.22
720.301	1609.53
720.488	1457.98
720.676	1517.37
720.863	1464.13
721.05	1544
721.237	1421.12
721.424	1468.22
721.611	1523.52
721.798	1441.6
721.985	1431.36
722.172	1437.5
722.358	1353.54
722.545	1468.22
722.732	1443.65
722.919	1425.22
723.106	1500.99
723.293	1515.33
723.48	1455.94
723.667	1384.26
723.853	1337.15
724.04	1453.89
724.227	1353.54
724.414	1472.32
724.6	1400.64
724.787	1431.36
724.974	1468.22
725.161	1386.3
725.347	1349.44
725.534	1447.74
725.72	1310.53
725.907	1392.45
726.094	1392.45
726.28	1337.15
726.467	1314.63
726.653	1357.63
726.84	1367.87
727.027	1365.82
727.213	1443.65
727.4	1298.24
727.586	1384.26
727.773	1337.15
727.959	1363.78
728.145	1349.44
728.332	1369.92
728.518	1279.81
728.705	1335.1
728.891	1269.57
729.077	1255.23
729.264	1341.25
729.45	1285.95
729.636	1290.05
729.823	1251.14
730.009	1318.72
730.195	1333.06
730.382	1369.92
730.568	1347.39
730.754	1337.15
730.94	1265.47
731.126	1275.71
731.313	1320.77
731.499	1296.19
731.685	1185.6
731.871	1195.84
732.057	1189.7
732.243	1234.75
732.429	1163.08
732.615	1197.89
732.801	1277.76
732.987	1230.66
733.173	1269.57
733.359	1249.09
733.545	1226.56
733.731	1066.82
733.917	1210.18
734.103	1210.18
734.289	1234.75
734.475	1185.6
734.661	1242.95
734.847	1259.33
735.033	1154.88
735.219	1138.5
735.404	1288
735.59	1134.4
735.776	1169.22
735.962	1152.84
736.148	1167.17
736.333	1134.4
736.519	1236.8
736.705	1087.3
736.89	1193.8
737.076	1181.51
737.262	1177.41
737.447	1109.83
737.633	1253.19
737.819	1144.64
738.004	1099.59
738.19	1107.78
738.375	1107.78
738.561	1154.88
738.747	1210.18
738.932	1148.74
739.118	1189.7
739.303	1242.95
739.489	1234.75
739.674	1072.96
739.859	1193.8
740.045	1165.12
740.23	1126.21
740.416	1113.92
740.601	1152.84
740.786	1150.79
740.972	1093.44
741.157	1052.49
741.342	1013.57
741.528	1056.58
741.713	1099.59
741.898	1023.81
742.084	1085.25
742.269	1052.49
742.454	1126.21
742.639	1009.48
742.824	1054.53
743.01	1042.25
743.195	1056.58
743.38	997.19
743.565	1017.67
743.75	1025.86
743.935	984.9
744.12	984.9
744.305	986.95
744.49	950.09
744.675	1001.29
744.86	964.42
745.045	1001.29
745.23	954.18
745.415	945.99
745.6	921.42
745.785	960.33
745.97	902.98
746.155	976.71
746.34	896.84
746.525	1027.91
746.71	941.89
746.895	968.52
747.079	894.79
747.264	976.71
747.449	952.13
747.634	972.61
747.819	927.56
748.003	880.46
748.188	919.37
748.373	866.12
748.557	792.39
748.742	894.79
748.927	853.83
749.111	888.65
749.296	853.83
749.481	849.74
749.665	870.22
749.85	939.85
750.034	876.36
750.219	935.75
750.404	823.11
750.588	806.73
750.773	784.2
750.957	810.82
751.141	868.17
751.326	778.06
751.51	794.44
751.695	816.97
751.879	790.35
752.064	821.06
752.248	816.97
752.432	843.59
752.617	735.05
752.801	765.77
752.985	704.33
753.17	769.87
753.354	737.1
753.538	804.68
753.722	759.63
753.907	778.06
754.091	747.34
754.275	786.25
754.459	659.28
754.643	730.95
754.828	751.43
755.012	681.8
755.196	679.75
755.38	757.58
755.564	655.18
755.748	612.17
755.932	628.56
756.116	683.85
756.3	622.41
756.484	636.75
756.668	700.23
756.852	765.77
757.036	630.6
757.22	679.75
757.404	593.74
757.588	741.19
757.772	583.5
757.956	704.33
758.14	675.66
758.323	661.32
758.507	618.32
758.691	642.89
758.875	616.27
759.059	655.18
759.242	644.94
759.426	610.12
759.61	673.61
759.794	505.68
759.977	599.88
760.161	606.03
760.345	569.16
760.528	558.92
760.712	575.31
760.895	599.88
761.079	542.54
761.263	608.08
761.446	567.12
761.63	546.64
761.813	528.21
761.997	552.78
762.18	569.16
762.364	616.27
762.547	565.07
762.731	544.59
762.914	593.74
763.098	563.02
763.281	591.69
763.464	581.45
763.648	507.73
763.831	560.97
764.015	481.1
764.198	530.25
764.381	515.92
764.564	601.93
764.748	493.39
764.931	571.21
765.114	556.88
765.297	571.21
765.481	577.36
765.664	546.64
765.847	526.16
766.03	646.99
766.213	513.87
766.397	487.25
766.58	411.47
766.763	626.51
766.946	522.06
767.129	583.5
767.312	515.92
767.495	540.49
767.678	515.92
767.861	474.96
768.044	436.05
768.227	466.77
768.41	481.1
768.593	501.58
768.776	434
768.959	505.68
769.142	493.39
769.324	567.12
769.507	454.48
769.69	464.72
769.873	456.53
770.056	509.77
770.239	487.25
770.421	464.72
770.604	495.44
770.787	468.81
770.97	417.61
771.152	448.33
771.335	454.48
771.518	481.1
771.7	472.91
771.883	466.77
772.066	407.38
772.248	464.72
772.431	438.09
772.613	464.72
772.796	323.41
772.978	452.43
773.161	431.95
773.343	450.38
773.526	481.1
773.708	423.76
773.891	427.85
774.073	495.44
774.256	462.67
774.438	431.95
774.621	388.94
774.803	409.42
774.985	481.1
775.168	403.28
775.35	427.85
775.532	425.81
775.715	436.05
775.897	425.81
776.079	390.99
776.261	438.09
776.444	300.88
776.626	386.9
776.808	370.51
776.99	370.51
777.173	427.85
777.355	376.66
777.537	386.9
777.719	407.38
777.901	307.02
778.083	321.36
778.265	350.03
778.447	323.41
778.629	368.46
778.811	356.18
778.993	384.85
779.175	335.7
779.357	317.26
779.539	358.22
779.721	337.74
779.903	325.46
780.085	362.32
780.267	311.12
780.449	368.46
780.631	362.32
780.812	399.18
780.994	356.18
781.176	290.64
781.358	395.09
781.54	329.55
781.721	307.02
781.903	280.4
782.085	298.83
782.267	223.06
782.448	235.35
782.63	290.64
782.812	274.26
782.993	307.02
783.175	266.07
783.357	266.07
783.538	257.87
783.72	245.59
783.901	223.06
784.083	227.15
784.264	298.83
784.446	243.54
784.627	190.29
784.809	276.31
784.99	298.83
785.172	223.06
785.353	223.06
785.535	264.02
785.716	235.35
785.897	235.35
786.079	296.78
786.26	268.11
786.441	171.86
786.623	135
786.804	309.07
786.985	241.49
787.167	264.02
787.348	212.82
787.529	194.39
787.71	153.43
787.891	190.29
788.073	249.68
788.254	192.34
788.435	225.11
788.616	225.11
788.797	206.67
788.978	274.26
789.159	235.35
789.34	261.97
789.522	218.96
789.703	171.86
789.884	221.01
790.065	194.39
790.246	235.35
790.427	202.58
790.607	204.63
790.788	229.2
790.969	137.04
791.15	202.58
791.331	266.07
791.512	257.87
791.693	188.24
791.874	186.19
792.054	194.39
792.235	169.81
792.416	192.34
792.597	184.15
792.778	192.34
792.958	192.34
793.139	266.07
793.32	184.15
793.5	104.28
793.681	169.81
793.862	141.14
794.042	218.96
794.223	161.62
794.404	212.82
794.584	153.43
794.765	130.9
794.945	221.01
795.126	196.43
795.306	184.15
795.487	184.15
795.667	130.9
795.848	184.15
796.028	188.24
796.209	108.37
796.389	141.14
796.57	94.04
796.75	126.8
796.93	180.05
797.111	194.39
797.291	141.14
797.471	118.61
797.652	114.52
797.832	161.62
798.012	163.67
798.192	202.58
798.373	245.59
798.553	122.71
798.733	178
798.913	77.65
799.093	173.91
799.274	221.01
799.454	171.86
799.634	143.19
799.814	102.23
799.994	89.94
800.174	151.38
800.354	161.62
800.534	135
800.714	161.62
800.894	61.27
801.074	120.66
801.254	139.09
801.434	118.61
801.614	100.18
801.794	81.75
801.974	358.22
802.154	30.55
802.334	128.85
802.514	159.57
802.693	167.76
802.873	120.66
803.053	145.24
803.233	126.8
803.413	120.66
803.592	175.95
803.772	96.08
803.952	110.42
804.131	198.48
804.311	108.37
804.491	108.37
804.67	32.6
804.85	182.1
805.03	108.37
805.209	46.93
805.389	63.32
805.568	122.71
805.748	137.04
805.928	155.47
806.107	57.17
806.287	116.56
806.466	184.15
806.646	128.85
806.825	163.67
807.004	83.8
807.184	40.79
807.363	137.04
807.543	5.97
807.722	59.22
807.901	69.46
808.081	130.9
808.26	184.15
808.439	69.46
808.619	71.51
808.798	130.9
808.977	71.51
809.156	46.93
809.336	77.65
809.515	100.18
809.694	112.47
809.873	122.71
810.052	165.71
810.231	153.43
810.411	100.18
810.59	94.04
810.769	48.98
810.948	75.6
811.127	149.33
811.306	63.32
811.485	65.36
811.664	147.28
811.843	85.84
812.022	12.12
812.201	57.17
812.38	73.56
812.559	38.74
812.737	65.36
812.916	89.94
813.095	94.04
813.274	81.75
813.453	59.22
813.632	91.99
813.811	141.14
813.989	91.99
814.168	10.07
814.347	116.56
814.526	81.75
814.704	83.8
814.883	137.04
815.062	46.93
815.24	100.18
815.419	59.22
815.598	63.32
815.776	46.93
815.955	98.13
816.133	94.04
816.312	75.6
816.49	55.12
816.669	151.38
816.847	38.74
817.026	108.37
817.204	75.6
817.383	67.41
817.561	81.75
817.74	20.31
817.918	102.23
818.097	77.65
818.275	63.32
818.453	63.32
818.632	69.46
818.81	85.84
818.988	57.17
819.167	30.55
819.345	116.56
819.523	114.52
819.701	108.37
819.879	34.64
820.058	91.99
820.236	108.37
820.414	3.93
820.592	89.94
820.77	46.93
820.948	87.89
821.127	-20.65
821.305	110.42
821.483	40.79
821.661	40.79
821.839	22.36
822.017	87.89
822.195	83.8
822.373	16.21
822.551	100.18
822.729	81.75
822.907	108.37
823.085	112.47
823.262	40.79
823.44	8.02
823.618	14.17
823.796	18.26
823.974	137.04
824.152	94.04
824.329	98.13
824.507	38.74
824.685	42.84
824.863	73.56
825.04	59.22
825.218	46.93
825.396	3.93
825.574	57.17
825.751	77.65
825.929	73.56
826.107	122.71
826.284	59.22
826.462	104.28
826.639	96.08
826.817	14.17
826.994	102.23
827.172	28.5
827.349	104.28
827.527	42.84
827.704	81.75
827.882	16.21
828.059	104.28
828.237	61.27
828.414	-8.36
828.591	71.51
828.769	81.75
828.946	59.22
829.124	89.94
829.301	-0.17
829.478	1.88
829.655	16.21
829.833	94.04
830.01	118.61
830.187	-16.55
830.364	22.36
830.542	34.64
830.719	30.55
830.896	67.41
831.073	69.46
831.25	61.27
831.427	32.6
831.604	26.45
831.782	114.52
831.959	65.36
832.136	32.6
832.313	73.56
832.49	71.51
832.667	104.28
832.844	44.88
833.021	102.23
833.198	38.74
833.374	63.32
833.551	100.18
833.728	169.81
833.905	22.36
834.082	53.08
834.259	14.17
834.436	18.26
834.612	-12.46
834.789	24.4
834.966	48.98
835.143	-0.17
835.319	-10.41
835.496	53.08
835.673	122.71
835.85	51.03
836.026	53.08
836.203	65.36
836.38	55.12
836.556	-0.17
836.733	-2.22
836.909	46.93
837.086	26.45
837.262	57.17
837.439	8.02
837.616	22.36
837.792	16.21
837.968	26.45
838.145	67.41
838.321	38.74
838.498	81.75
838.674	55.12
838.851	65.36
839.027	81.75
839.203	36.69
839.38	85.84
839.556	22.36
839.732	89.94
839.909	61.27
840.085	30.55
840.261	48.98
840.437	-0.17
840.614	-41.13
840.79	18.26
840.966	40.79
841.142	14.17
841.318	46.93
841.494	51.03
841.671	55.12
841.847	55.12
842.023	69.46
842.199	116.56
842.375	53.08
842.551	12.12
842.727	-80.04
842.903	55.12
843.079	44.88
843.255	51.03
843.431	-32.94
843.607	44.88
843.783	-32.94
843.959	16.21
844.134	1.88
844.31	8.02
844.486	-28.84
844.662	26.45
844.838	16.21
845.013	63.32
845.189	-8.36
845.365	130.9
845.541	20.31
845.716	28.5
845.892	18.26
846.068	22.36
846.244	71.51
846.419	55.12
846.595	3.93
846.77	53.08
846.946	81.75
847.122	79.7
847.297	-22.7
847.473	59.22
847.648	12.12
847.824	34.64
847.999	55.12
848.175	51.03
848.35	16.21
848.526	46.93
848.701	10.07
848.876	-26.79
849.052	-30.89
849.227	-61.61
849.403	-20.65
849.578	20.31
849.753	8.02
849.929	-12.46
850.104	-10.41
850.279	30.55
850.454	116.56
850.63	-14.51
850.805	48.98
850.98	85.84
851.155	-26.79
851.33	34.64
851.505	-45.23
851.681	14.17
851.856	22.36
852.031	69.46
852.206	16.21
852.381	48.98
852.556	10.07
852.731	59.22
852.906	-28.84
853.081	67.41
853.256	-4.27
853.431	69.46
853.606	20.31
853.781	-26.79
853.956	-37.03
854.131	48.98
854.305	67.41
854.48	28.5
854.655	-14.51
854.83	18.26
855.005	34.64
855.18	22.36
855.354	14.17
855.529	42.84
855.704	40.79
855.879	46.93
856.053	-22.7
856.228	1.88
856.403	38.74
856.577	53.08
856.752	36.69
856.926	67.41
857.101	14.17
857.276	34.64
857.45	20.31
857.625	34.64
857.799	-22.7
857.974	71.51
858.148	-16.55
858.323	18.26
858.497	-69.8
858.672	24.4
858.846	67.41
859.02	51.03
859.195	5.97
859.369	-6.31
859.543	65.36
859.718	36.69
859.892	26.45
860.066	12.12
860.241	67.41
860.415	55.12
860.589	-53.42
860.763	28.5
860.938	1.88
861.112	8.02
861.286	12.12
861.46	42.84
861.634	20.31
861.808	28.5
861.982	57.17
862.157	91.99
862.331	28.5
862.505	-8.36
862.679	-69.8
862.853	40.79
863.027	14.17
863.201	-16.55
863.375	-65.71
863.549	10.07
863.722	38.74
863.896	53.08
864.07	22.36
864.244	44.88
864.418	8.02
864.592	20.31
864.766	-2.22
864.939	-18.6
865.113	26.45
865.287	96.08
865.461	44.88
865.634	-49.32
865.808	20.31
865.982	44.88
866.156	-8.36
866.329	14.17
866.503	-24.75
866.676	14.17
866.85	18.26
867.024	30.55
867.197	32.6
867.371	20.31
867.544	-45.23
867.718	26.45
867.891	-18.6
868.065	-18.6
868.238	100.18
868.412	-6.31
868.585	16.21
868.759	28.5
868.932	79.7
869.105	20.31
869.279	8.02
869.452	18.26
869.625	-12.46
869.799	61.27
869.972	-8.36
870.145	-6.31
870.319	-10.41
870.492	-55.47
870.665	-24.75
870.838	-6.31
871.011	40.79
871.185	-20.65
871.358	18.26
871.531	-8.36
871.704	-47.27
871.877	59.22
872.05	20.31
872.223	-10.41
872.396	44.88
872.569	-18.6
872.742	-16.55
872.915	46.93
873.088	-2.22
873.261	-12.46
873.434	10.07
873.607	46.93
873.78	-69.8
873.953	32.6
874.126	51.03
874.299	-12.46
874.471	71.51
874.644	44.88
874.817	5.97
874.99	22.36
875.163	28.5
875.335	34.64
875.508	-16.55
875.681	10.07
875.853	1.88
876.026	-20.65
876.199	24.4
876.371	-8.36
876.544	-61.61
876.717	10.07
876.889	34.64
877.062	14.17
877.234	-0.17
877.407	10.07
877.579	51.03
877.752	-10.41
877.924	-24.75
878.097	28.5
878.269	-14.51
878.442	42.84
878.614	-39.08
878.786	-10.41
878.959	46.93
879.131	34.64
879.303	42.84
879.476	34.64
879.648	-8.36
879.82	-22.7
879.993	-41.13
880.165	40.79
880.337	-0.17
880.509	-77.99
880.681	18.26
880.854	63.32
881.026	22.36
881.198	63.32
881.37	-61.61
881.542	-12.46
881.714	-18.6
881.886	5.97
882.058	51.03
882.23	65.36
882.402	-47.27
882.574	53.08
882.746	-18.6
882.918	20.31
883.09	24.4
883.262	22.36
883.434	-2.22
883.606	-2.22
883.778	10.07
883.95	96.08
884.122	-10.41
884.293	51.03
884.465	-41.13
884.637	14.17
884.809	-47.27
884.98	-63.66
885.152	-28.84
885.324	-16.55
885.496	36.69
885.667	-10.41
885.839	-16.55
886.011	48.98
886.182	-22.7
886.354	44.88
886.525	5.97
886.697	40.79
886.869	10.07
887.04	51.03
887.212	32.6
887.383	42.84
887.555	-49.32
887.726	104.28
887.897	8.02
888.069	-14.51
888.24	48.98
888.412	-18.6
888.583	24.4
888.754	-34.99
888.926	-12.46
889.097	-14.51
889.268	-2.22
889.44	-39.08
889.611	-55.47
889.782	-61.61
889.953	-22.7
890.125	-30.89
890.296	-24.75
890.467	22.36
890.638	-34.99
890.809	8.02
890.98	8.02
891.151	51.03
891.323	20.31
891.494	40.79
891.665	34.64
891.836	30.55
892.007	-39.08
892.178	-26.79
892.349	-8.36
892.52	48.98
892.691	-18.6
892.862	69.46
893.032	-59.56
893.203	-26.79
893.374	24.4
893.545	-47.27
893.716	-22.7
893.887	32.6
894.057	-24.75
894.228	-51.37
894.399	22.36
894.57	57.17
894.74	-43.18
894.911	-86.19
895.082	81.75
895.253	-2.22
895.423	-20.65
895.594	63.32
895.764	5.97
895.935	16.21
896.106	-26.79
896.276	36.69
896.447	44.88
896.617	55.12
896.788	-14.51
896.958	-77.99
897.129	10.07
897.299	-30.89
897.47	30.55
897.64	-59.56
897.81	5.97
897.981	57.17
898.151	32.6
898.322	3.93
898.492	1.88
898.662	26.45
898.832	16.21
899.003	32.6
899.173	67.41
899.343	-39.08
899.513	-16.55
