Data from USB4F104151__38__13-53-13-399.txt Node

Date: Thu Mar 13 13:53:13 EDT 2025
User: louis
Spectrometer: USB4F10415
Trigger mode: 4
Integration Time (sec): 1.000000E-2
Scans to average: 1
Electric dark correction enabled: true
Nonlinearity correction enabled: false
Boxcar width: 0
XAxis mode: Wavelengths
Number of Pixels in Spectrum: 3648
>>>>>Begin Spectral Data<<<<<
178.204	-27.48
178.424	-27.48
178.644	-27.48
178.864	-13.14
179.084	50.35
179.304	-52.05
179.524	-17.24
179.744	-43.86
179.964	-29.52
180.184	-0.85
180.404	25.77
180.624	5.29
180.844	33.96
181.064	-11.09
181.283	7.34
181.503	33.96
181.723	48.3
181.943	50.35
182.163	105.64
182.383	-27.48
182.602	9.39
182.822	13.48
183.042	27.82
183.262	21.67
183.482	21.67
183.701	72.87
183.921	64.68
184.141	50.35
184.361	81.07
184.58	1.19
184.8	29.87
185.02	-0.85
185.239	58.54
185.459	-4.95
185.679	81.07
185.898	-41.81
186.118	50.35
186.338	36.01
186.557	76.97
186.777	-4.95
186.997	72.87
187.216	21.67
187.436	15.53
187.655	-13.14
187.875	54.44
188.095	5.29
188.314	42.15
188.534	11.43
188.753	21.67
188.973	76.97
189.192	-11.09
189.412	66.73
189.631	44.2
189.851	58.54
190.07	-15.19
190.29	60.59
190.509	91.31
190.729	11.43
190.948	36.01
191.168	83.11
191.387	-9.05
191.607	66.73
191.826	-72.53
192.045	46.25
192.265	29.87
192.484	42.15
192.704	-4.95
192.923	74.92
193.142	64.68
193.362	31.91
193.581	-47.96
193.8	-13.14
194.02	27.82
194.239	-0.85
194.458	50.35
194.678	15.53
194.897	44.2
195.116	21.67
195.335	-33.62
195.555	-56.15
195.774	7.34
195.993	-37.72
196.212	68.78
196.432	36.01
196.651	81.07
196.87	-17.24
197.089	89.26
197.308	25.77
197.528	79.02
197.747	81.07
197.966	-27.48
198.185	60.59
198.404	54.44
198.623	25.77
198.842	50.35
199.062	-23.38
199.281	33.96
199.5	56.49
199.719	95.4
199.938	31.91
200.157	29.87
200.376	-7
200.595	21.67
200.814	-99.16
201.033	-2.9
201.252	7.34
201.471	-25.43
201.69	11.43
201.909	76.97
202.128	72.87
202.347	42.15
202.566	-72.53
202.785	44.2
203.004	19.63
203.223	19.63
203.442	-43.86
203.661	38.06
203.879	62.63
204.098	64.68
204.317	60.59
204.536	36.01
204.755	-11.09
204.974	33.96
205.193	9.39
205.411	3.24
205.63	-9.05
205.849	44.2
206.068	-33.62
206.287	40.11
206.505	-17.24
206.724	-0.85
206.943	87.21
207.162	64.68
207.381	3.24
207.599	64.68
207.818	36.01
208.037	54.44
208.255	36.01
208.474	-0.85
208.693	13.48
208.911	11.43
209.13	1.19
209.349	23.72
209.567	72.87
209.786	40.11
210.005	50.35
210.223	15.53
210.442	19.63
210.661	99.5
210.879	33.96
211.098	42.15
211.316	70.83
211.535	40.11
211.753	23.72
211.972	52.39
212.191	9.39
212.409	25.77
212.628	29.87
212.846	72.87
213.065	103.59
213.283	25.77
213.502	11.43
213.72	15.53
213.938	31.91
214.157	-4.95
214.375	-50
214.594	40.11
214.812	85.16
215.031	76.97
215.249	-37.72
215.467	-25.43
215.686	93.35
215.904	-25.43
216.122	-23.38
216.341	9.39
216.559	60.59
216.778	40.11
216.996	15.53
217.214	13.48
217.432	97.45
217.651	21.67
217.869	38.06
218.087	38.06
218.306	5.29
218.524	-7
218.742	72.87
218.96	-19.29
219.179	-50
219.397	23.72
219.615	5.29
219.833	97.45
220.051	21.67
220.27	19.63
220.488	7.34
220.706	36.01
220.924	31.91
221.142	64.68
221.36	62.63
221.578	52.39
221.796	7.34
222.015	-2.9
222.233	5.29
222.451	101.55
222.669	52.39
222.887	33.96
223.105	9.39
223.323	1.19
223.541	56.49
223.759	40.11
223.977	31.91
224.195	52.39
224.413	27.82
224.631	17.58
224.849	36.01
225.067	-19.29
225.285	72.87
225.503	9.39
225.721	11.43
225.939	72.87
226.157	-25.43
226.375	-25.43
226.592	42.15
226.81	66.73
227.028	48.3
227.246	68.78
227.464	-52.05
227.682	-2.9
227.9	-0.85
228.117	33.96
228.335	-17.24
228.553	66.73
228.771	48.3
228.989	44.2
229.206	19.63
229.424	11.43
229.642	33.96
229.86	3.24
230.077	38.06
230.295	-41.81
230.513	56.49
230.731	29.87
230.948	-7
231.166	-27.48
231.384	25.77
231.601	25.77
231.819	42.15
232.037	58.54
232.254	11.43
232.472	17.58
232.689	-19.29
232.907	44.2
233.125	-0.85
233.342	21.67
233.56	31.91
233.777	-41.81
233.995	-4.95
234.213	62.63
234.43	33.96
234.648	17.58
234.865	-4.95
235.083	52.39
235.3	91.31
235.518	46.25
235.735	-33.62
235.953	23.72
236.17	29.87
236.388	-2.9
236.605	76.97
236.822	50.35
237.04	-27.48
237.257	48.3
237.475	74.92
237.692	42.15
237.909	95.4
238.127	60.59
238.344	29.87
238.562	9.39
238.779	-9.05
238.996	-31.57
239.214	-88.92
239.431	29.87
239.648	-4.95
239.865	25.77
240.083	27.82
240.3	40.11
240.517	74.92
240.735	-41.81
240.952	-27.48
241.169	44.2
241.386	122.02
241.603	21.67
241.821	36.01
242.038	48.3
242.255	70.83
242.472	64.68
242.689	44.2
242.907	1.19
243.124	-13.14
243.341	105.64
243.558	31.91
243.775	-23.38
243.992	62.63
244.209	42.15
244.426	72.87
244.643	1.19
244.86	54.44
245.078	81.07
245.295	31.91
245.512	-29.52
245.729	-21.33
245.946	33.96
246.163	52.39
246.38	13.48
246.597	-50
246.814	42.15
247.031	-58.2
247.248	-31.57
247.464	13.48
247.681	-4.95
247.898	66.73
248.115	64.68
248.332	54.44
248.549	40.11
248.766	60.59
248.983	33.96
249.2	31.91
249.417	42.15
249.633	60.59
249.85	70.83
250.067	52.39
250.284	42.15
250.501	76.97
250.717	17.58
250.934	31.91
251.151	-31.57
251.368	70.83
251.585	-17.24
251.801	79.02
252.018	11.43
252.235	-29.52
252.451	-21.33
252.668	-68.44
252.885	25.77
253.102	52.39
253.318	89.26
253.535	29.87
253.752	-23.38
253.968	-66.39
254.185	-35.67
254.401	-13.14
254.618	-23.38
254.835	42.15
255.051	48.3
255.268	27.82
255.484	36.01
255.701	40.11
255.917	11.43
256.134	52.39
256.351	15.53
256.567	29.87
256.784	27.82
257	91.31
257.217	-7
257.433	36.01
257.65	44.2
257.866	36.01
258.082	31.91
258.299	-29.52
258.515	25.77
258.732	44.2
258.948	29.87
259.165	79.02
259.381	38.06
259.597	83.11
259.814	17.58
260.03	-47.96
260.246	83.11
260.463	7.34
260.679	23.72
260.895	-37.72
261.112	89.26
261.328	3.24
261.544	13.48
261.761	126.12
261.977	-11.09
262.193	38.06
262.409	66.73
262.626	31.91
262.842	99.5
263.058	54.44
263.274	-74.58
263.49	-31.57
263.707	46.25
263.923	17.58
264.139	15.53
264.355	-21.33
264.571	113.83
264.787	5.29
265.004	9.39
265.22	-33.62
265.436	46.25
265.652	-29.52
265.868	13.48
266.084	-21.33
266.3	95.4
266.516	68.78
266.732	-23.38
266.948	36.01
267.164	-7
267.38	5.29
267.596	-15.19
267.812	68.78
268.028	105.64
268.244	46.25
268.46	31.91
268.676	-4.95
268.892	36.01
269.108	-15.19
269.324	64.68
269.54	31.91
269.756	27.82
269.972	11.43
270.188	29.87
270.403	-37.72
270.619	13.48
270.835	31.91
271.051	33.96
271.267	15.53
271.483	70.83
271.698	50.35
271.914	-31.57
272.13	-9.05
272.346	15.53
272.562	19.63
272.777	21.67
272.993	29.87
273.209	48.3
273.425	27.82
273.64	54.44
273.856	-27.48
274.072	1.19
274.287	-31.57
274.503	13.48
274.719	-17.24
274.934	-2.9
275.15	9.39
275.366	66.73
275.581	-54.1
275.797	19.63
276.012	66.73
276.228	76.97
276.444	-41.81
276.659	-13.14
276.875	27.82
277.09	-7
277.306	-68.44
277.521	70.83
277.737	-35.67
277.952	79.02
278.168	48.3
278.383	52.39
278.599	9.39
278.814	48.3
279.03	-31.57
279.245	60.59
279.461	5.29
279.676	62.63
279.892	7.34
280.107	46.25
280.322	56.49
280.538	-19.29
280.753	64.68
280.969	19.63
281.184	25.77
281.399	128.17
281.615	36.01
281.83	60.59
282.045	-33.62
282.26	40.11
282.476	9.39
282.691	44.2
282.906	-11.09
283.122	50.35
283.337	17.58
283.552	19.63
283.767	15.53
283.983	70.83
284.198	31.91
284.413	50.35
284.628	17.58
284.843	48.3
285.058	21.67
285.274	42.15
285.489	54.44
285.704	11.43
285.919	9.39
286.134	38.06
286.349	40.11
286.564	36.01
286.779	31.91
286.995	31.91
287.21	21.67
287.425	40.11
287.64	76.97
287.855	23.72
288.07	60.59
288.285	-13.14
288.5	-9.05
288.715	103.59
288.93	31.91
289.145	-0.85
289.36	83.11
289.575	70.83
289.79	21.67
290.004	95.4
290.219	109.74
290.434	13.48
290.649	105.64
290.864	74.92
291.079	72.87
291.294	29.87
291.509	50.35
291.724	23.72
291.938	3.24
292.153	50.35
292.368	132.26
292.583	68.78
292.798	64.68
293.012	11.43
293.227	-41.81
293.442	46.25
293.657	56.49
293.871	13.48
294.086	-0.85
294.301	46.25
294.516	70.83
294.73	23.72
294.945	15.53
295.16	48.3
295.374	33.96
295.589	68.78
295.804	46.25
296.018	89.26
296.233	38.06
296.447	81.07
296.662	38.06
296.877	-7
297.091	50.35
297.306	83.11
297.52	50.35
297.735	15.53
297.949	-17.24
298.164	27.82
298.378	70.83
298.593	23.72
298.807	64.68
299.022	91.31
299.236	25.77
299.451	38.06
299.665	-47.96
299.88	21.67
300.094	68.78
300.309	44.2
300.523	-37.72
300.737	-9.05
300.952	7.34
301.166	46.25
301.381	48.3
301.595	19.63
301.809	-7
302.024	50.35
302.238	11.43
302.452	60.59
302.667	19.63
302.881	56.49
303.095	25.77
303.309	13.48
303.524	48.3
303.738	93.35
303.952	29.87
304.166	21.67
304.381	-11.09
304.595	-11.09
304.809	-33.62
305.023	36.01
305.237	-84.82
305.452	44.2
305.666	29.87
305.88	33.96
306.094	-27.48
306.308	95.4
306.522	-31.57
306.736	17.58
306.95	-25.43
307.164	44.2
307.379	128.17
307.593	-13.14
307.807	48.3
308.021	46.25
308.235	50.35
308.449	1.19
308.663	38.06
308.877	27.82
309.091	17.58
309.305	7.34
309.519	23.72
309.733	-0.85
309.947	3.24
310.161	5.29
310.374	23.72
310.588	-15.19
310.802	70.83
311.016	50.35
311.23	23.72
311.444	33.96
311.658	9.39
311.872	64.68
312.085	40.11
312.299	-2.9
312.513	81.07
312.727	85.16
312.941	-23.38
313.154	66.73
313.368	31.91
313.582	128.17
313.796	46.25
314.009	25.77
314.223	46.25
314.437	-21.33
314.651	42.15
314.864	13.48
315.078	44.2
315.292	29.87
315.505	-17.24
315.719	36.01
315.933	-2.9
316.146	54.44
316.36	64.68
316.573	38.06
316.787	-37.72
317.001	50.35
317.214	1.19
317.428	56.49
317.641	-15.19
317.855	13.48
318.068	31.91
318.282	-13.14
318.495	5.29
318.709	54.44
318.922	72.87
319.136	25.77
319.349	42.15
319.563	56.49
319.776	74.92
319.99	19.63
320.203	7.34
320.417	7.34
320.63	7.34
320.843	5.29
321.057	33.96
321.27	3.24
321.483	93.35
321.697	17.58
321.91	60.59
322.124	19.63
322.337	-33.62
322.55	36.01
322.763	46.25
322.977	40.11
323.19	31.91
323.403	3.24
323.617	21.67
323.83	76.97
324.043	66.73
324.256	93.35
324.469	-9.05
324.683	52.39
324.896	-15.19
325.109	-29.52
325.322	31.91
325.535	56.49
325.748	-17.24
325.962	91.31
326.175	15.53
326.388	128.17
326.601	56.49
326.814	23.72
327.027	64.68
327.24	74.92
327.453	9.39
327.666	31.91
327.879	81.07
328.092	-37.72
328.305	105.64
328.518	44.2
328.731	7.34
328.944	19.63
329.157	68.78
329.37	99.5
329.583	74.92
329.796	-7
330.009	-7
330.222	44.2
330.435	1.19
330.648	103.59
330.861	23.72
331.073	36.01
331.286	-39.76
331.499	52.39
331.712	7.34
331.925	27.82
332.138	3.24
332.35	27.82
332.563	40.11
332.776	66.73
332.989	31.91
333.202	50.35
333.414	99.5
333.627	-58.2
333.84	15.53
334.053	144.55
334.265	23.72
334.478	25.77
334.691	40.11
334.903	46.25
335.116	-62.29
335.329	54.44
335.541	81.07
335.754	83.11
335.966	85.16
336.179	-21.33
336.392	36.01
336.604	79.02
336.817	42.15
337.029	76.97
337.242	117.93
337.454	42.15
337.667	50.35
337.88	85.16
338.092	66.73
338.305	68.78
338.517	-47.96
338.729	1.19
338.942	31.91
339.154	-15.19
339.367	-13.14
339.579	79.02
339.792	72.87
340.004	64.68
340.217	-52.05
340.429	58.54
340.641	-25.43
340.854	36.01
341.066	31.91
341.278	50.35
341.491	-25.43
341.703	23.72
341.915	13.48
342.128	52.39
342.34	70.83
342.552	74.92
342.764	31.91
342.977	62.63
343.189	85.16
343.401	64.68
343.613	23.72
343.826	89.26
344.038	40.11
344.25	64.68
344.462	-4.95
344.674	3.24
344.886	70.83
345.099	40.11
345.311	115.88
345.523	5.29
345.735	-13.14
345.947	33.96
346.159	19.63
346.371	17.58
346.583	58.54
346.795	66.73
347.007	33.96
347.219	-50
347.431	66.73
347.643	52.39
347.855	97.45
348.067	70.83
348.279	48.3
348.491	148.65
348.703	31.91
348.915	27.82
349.127	42.15
349.339	52.39
349.551	23.72
349.763	-17.24
349.975	85.16
350.187	93.35
350.399	-2.9
350.61	87.21
350.822	-62.29
351.034	72.87
351.246	50.35
351.458	46.25
351.669	-45.91
351.881	31.91
352.093	-9.05
352.305	9.39
352.517	33.96
352.728	126.12
352.94	81.07
353.152	36.01
353.363	25.77
353.575	117.93
353.787	79.02
353.999	76.97
354.21	52.39
354.422	25.77
354.633	97.45
354.845	15.53
355.057	29.87
355.268	50.35
355.48	58.54
355.692	5.29
355.903	-4.95
356.115	9.39
356.326	-45.91
356.538	31.91
356.749	38.06
356.961	60.59
357.172	17.58
357.384	3.24
357.595	50.35
357.807	74.92
358.018	74.92
358.23	7.34
358.441	52.39
358.653	46.25
358.864	11.43
359.075	-17.24
359.287	48.3
359.498	58.54
359.709	60.59
359.921	29.87
360.132	15.53
360.344	-29.52
360.555	38.06
360.766	44.2
360.977	95.4
361.189	124.07
361.4	-25.43
361.611	27.82
361.823	19.63
362.034	76.97
362.245	9.39
362.456	-7
362.667	19.63
362.879	111.78
363.09	66.73
363.301	91.31
363.512	66.73
363.723	70.83
363.935	25.77
364.146	46.25
364.357	9.39
364.568	29.87
364.779	5.29
364.99	89.26
365.201	-52.05
365.412	81.07
365.623	15.53
365.834	83.11
366.045	-31.57
366.256	91.31
366.467	48.3
366.678	13.48
366.889	81.07
367.1	1.19
367.311	48.3
367.522	-35.67
367.733	36.01
367.944	97.45
368.155	15.53
368.366	93.35
368.577	42.15
368.788	54.44
368.999	-17.24
369.209	44.2
369.42	31.91
369.631	48.3
369.842	31.91
370.053	19.63
370.264	-17.24
370.474	11.43
370.685	40.11
370.896	17.58
371.107	25.77
371.317	19.63
371.528	-9.05
371.739	91.31
371.95	19.63
372.16	5.29
372.371	-15.19
372.582	44.2
372.792	-7
373.003	66.73
373.214	9.39
373.424	54.44
373.635	9.39
373.846	-7
374.056	64.68
374.267	42.15
374.477	36.01
374.688	17.58
374.898	62.63
375.109	48.3
375.319	-9.05
375.53	89.26
375.74	31.91
375.951	107.69
376.161	132.26
376.372	-2.9
376.582	7.34
376.793	-45.91
377.003	29.87
377.214	66.73
377.424	103.59
377.635	115.88
377.845	48.3
378.055	81.07
378.266	-43.86
378.476	25.77
378.686	-21.33
378.897	50.35
379.107	52.39
379.317	60.59
379.528	7.34
379.738	58.54
379.948	36.01
380.158	70.83
380.369	66.73
380.579	50.35
380.789	52.39
380.999	-7
381.21	31.91
381.42	-25.43
381.63	33.96
381.84	52.39
382.05	5.29
382.261	42.15
382.471	52.39
382.681	23.72
382.891	105.64
383.101	87.21
383.311	64.68
383.521	87.21
383.731	52.39
383.941	50.35
384.151	42.15
384.361	17.58
384.571	64.68
384.781	89.26
384.991	38.06
385.201	87.21
385.411	93.35
385.621	29.87
385.831	1.19
386.041	42.15
386.251	54.44
386.461	95.4
386.671	7.34
386.881	109.74
387.091	-27.48
387.301	56.49
387.511	66.73
387.72	101.55
387.93	-11.09
388.14	72.87
388.35	52.39
388.56	66.73
388.769	56.49
388.979	36.01
389.189	46.25
389.399	101.55
389.609	74.92
389.818	68.78
390.028	-17.24
390.238	60.59
390.447	124.07
390.657	19.63
390.867	17.58
391.076	52.39
391.286	25.77
391.496	56.49
391.705	46.25
391.915	97.45
392.125	-2.9
392.334	95.4
392.544	27.82
392.753	95.4
392.963	97.45
393.172	87.21
393.382	-2.9
393.591	79.02
393.801	66.73
394.01	115.88
394.22	89.26
394.429	64.68
394.639	81.07
394.848	66.73
395.058	81.07
395.267	27.82
395.477	103.59
395.686	95.4
395.895	15.53
396.105	113.83
396.314	97.45
396.524	25.77
396.733	66.73
396.942	72.87
397.152	103.59
397.361	70.83
397.57	70.83
397.78	81.07
397.989	42.15
398.198	113.83
398.407	-27.48
398.617	72.87
398.826	72.87
399.035	101.55
399.244	56.49
399.453	142.5
399.663	111.78
399.872	5.29
400.081	132.26
400.29	134.31
400.499	76.97
400.708	122.02
400.917	33.96
401.127	99.5
401.336	79.02
401.545	95.4
401.754	17.58
401.963	158.89
402.172	64.68
402.381	58.54
402.59	68.78
402.799	91.31
403.008	66.73
403.217	54.44
403.426	76.97
403.635	150.7
403.844	91.31
404.053	113.83
404.262	124.07
404.471	87.21
404.68	103.59
404.888	85.16
405.097	52.39
405.306	124.07
405.515	156.84
405.724	152.74
405.933	119.98
406.142	107.69
406.35	113.83
406.559	117.93
406.768	58.54
406.977	160.94
407.185	97.45
407.394	115.88
407.603	148.65
407.812	140.46
408.02	191.66
408.229	189.61
408.438	154.79
408.646	189.61
408.855	197.8
409.064	142.5
409.272	169.13
409.481	242.85
409.69	228.52
409.898	195.75
410.107	249
410.315	283.81
410.524	189.61
410.733	242.85
410.941	212.14
411.15	263.33
411.358	332.97
411.567	292.01
411.775	261.29
411.984	210.09
412.192	300.2
412.401	410.79
412.609	353.45
412.818	390.31
413.026	318.63
413.234	457.89
413.443	347.3
413.651	371.88
413.86	328.87
414.068	396.45
414.276	345.25
414.485	429.22
414.693	394.4
414.901	556.19
415.11	482.47
415.318	521.38
415.526	445.6
415.734	500.9
415.943	398.5
416.151	533.67
416.359	607.39
416.567	588.96
416.776	609.44
416.984	654.5
417.192	636.06
417.4	760.99
417.608	654.5
417.817	677.02
418.025	674.98
418.233	760.99
418.441	746.66
418.649	724.13
418.857	785.57
419.065	904.35
419.273	838.81
419.481	896.16
419.689	1019.04
419.897	984.22
420.105	1078.43
420.313	1014.94
420.521	1096.86
420.729	1105.05
420.937	1197.21
421.145	1133.72
421.353	1244.31
421.561	1244.31
421.769	1324.18
421.977	1524.88
422.185	1254.55
422.393	1526.93
422.601	1516.69
422.809	1508.5
423.017	1559.7
423.224	1625.23
423.432	1725.58
423.64	1715.34
423.848	1811.6
424.056	1754.26
424.263	1887.37
424.471	2008.2
424.679	1932.43
424.887	2094.22
425.094	2143.37
425.302	2249.86
425.51	2311.3
425.718	2266.25
425.925	2276.49
426.133	2477.19
426.341	2501.76
426.548	2679.94
426.756	2612.35
426.964	2653.31
427.171	2872.45
427.379	2897.02
427.586	2849.92
427.794	3058.81
428.001	3083.39
428.209	3406.97
428.417	3234.94
428.624	3400.82
428.832	3556.47
429.039	3517.56
429.247	3437.69
429.454	3878
429.662	3970.16
429.869	3740.79
430.076	4066.41
430.284	3970.16
430.491	4107.37
430.699	4369.51
430.906	4484.2
431.114	4381.8
431.321	4594.79
431.528	4619.36
431.736	4856.93
431.943	5307.48
432.15	5137.5
432.358	5078.11
432.565	5330.01
432.772	5590.1
432.979	5551.19
433.187	5858.39
433.394	5831.76
433.601	6057.04
433.808	6081.61
434.016	6085.71
434.223	6372.43
434.43	6734.92
434.637	6702.15
434.844	7083.07
435.052	7130.17
435.259	7121.98
435.466	7085.12
435.673	7042.11
435.88	7636.02
436.087	7949.36
436.294	7975.98
436.501	7812.15
436.708	7920.69
436.915	8021.04
437.122	8795.17
437.329	8649.77
437.537	8793.12
437.743	8993.83
437.95	8893.47
438.157	9354.27
438.364	9671.7
438.571	9729.05
438.778	9933.84
438.985	10671.11
439.192	10177.55
439.399	10535.95
439.606	10306.57
439.813	10769.41
440.02	11392
440.227	11322.37
440.433	11394.04
440.64	11674.62
440.847	11555.83
441.054	11996.15
441.261	12684.27
441.467	12545
441.674	12768.23
441.881	13034.47
442.088	13239.26
442.294	12919.78
442.501	13300.7
442.708	13718.49
442.914	14355.41
443.121	14689.23
443.328	14298.06
443.534	15442.88
443.741	14941.13
443.948	14980.04
444.154	15983.54
444.361	15748.03
444.568	15680.44
444.774	15948.73
444.981	15909.82
445.187	16460.72
445.394	17210.28
445.6	17107.88
445.807	18963.34
446.013	17771.42
446.22	18193.3
446.426	19014.54
446.633	19094.41
446.839	19780.48
447.046	18934.67
447.252	19823.48
447.459	19895.16
447.665	19854.2
447.871	20855.66
448.078	21316.45
448.284	20491.12
448.491	20992.87
448.697	21853.02
448.903	22172.5
449.11	22295.38
449.316	22068.06
449.522	22328.15
449.728	23186.25
449.935	23038.8
450.141	23151.43
450.347	23659.33
450.553	22786.89
450.76	23462.72
450.966	23831.36
451.172	23604.03
451.378	24154.94
451.584	23724.86
451.791	24427.32
451.997	24224.57
452.203	24372.02
452.409	24247.1
452.615	24400.69
452.821	23601.99
453.027	23219.02
453.233	24640.31
453.44	23628.61
453.646	23802.69
453.852	23694.15
454.058	24447.8
454.264	23505.73
454.47	23923.52
454.676	23229.26
454.882	24161.08
455.088	22195.03
455.294	22373.21
455.5	22319.96
455.705	22979.4
455.911	21769.05
456.117	21435.24
456.323	21107.56
456.529	19970.94
456.735	21046.12
456.941	20216.69
457.147	20050.81
457.352	19514.24
457.558	19022.73
457.764	19368.84
457.97	19041.16
458.176	18506.64
458.381	18318.23
458.587	17474.46
458.793	17548.19
458.999	16661.42
459.204	17879.96
459.41	17179.56
459.616	16272.31
459.821	16092.09
460.027	16403.38
460.233	15553.47
460.438	15082.44
460.644	15145.92
460.85	14562.25
461.055	14418.89
461.261	14285.78
461.466	13319.14
461.672	12805.1
461.878	13757.4
462.083	12766.18
462.289	12383.21
462.494	12518.38
462.7	12014.58
462.905	11695.1
463.111	12149.75
463.316	12149.75
463.522	11670.52
463.727	11897.85
463.932	11656.18
464.138	11777.01
464.343	11588.6
464.549	11435
464.754	11760.63
464.959	11781.11
465.165	11684.86
465.37	10814.47
465.575	10750.98
465.781	11258.88
465.986	11252.73
466.191	10865.67
466.397	10521.61
466.602	10122.26
466.807	10671.11
467.012	10605.58
467.218	10382.35
467.423	10456.08
467.628	10394.64
467.833	10800.13
468.038	10421.26
468.244	10327.05
468.449	10535.95
468.654	10302.48
468.859	10363.92
469.064	10179.6
469.269	9737.24
469.474	9669.66
469.679	10030.1
469.885	9620.5
470.09	9778.2
470.295	9884.69
470.5	9593.88
470.705	9626.65
470.91	9346.08
471.115	9391.13
471.32	9376.8
471.525	9233.44
471.73	9217.05
471.935	9272.35
472.139	8789.03
472.344	8827.94
472.549	8780.84
472.754	8670.25
472.959	8584.23
473.164	8279.08
473.369	8299.56
473.574	8535.08
473.778	8424.49
473.983	8266.8
474.188	8479.79
474.393	7978.03
474.598	8000.56
474.802	7908.4
475.007	7818.29
475.212	7953.46
475.417	7543.86
475.621	7451.7
475.826	7564.34
476.031	7529.53
476.235	7332.92
476.44	7355.45
476.645	7347.26
476.849	7496.76
477.054	7160.89
477.259	7283.77
477.463	7060.54
477.668	6870.08
477.872	6945.86
478.077	6982.72
478.282	6761.54
478.486	6782.02
478.691	6753.35
478.895	6698.05
479.1	6583.37
479.304	6663.24
479.509	6327.37
479.713	6599.75
479.918	6421.58
480.122	6343.75
480.326	6265.93
480.531	6380.62
480.735	6224.97
480.94	6052.94
481.144	6464.58
481.348	6263.88
481.553	6231.12
481.757	6128.72
481.961	6243.4
482.166	6204.49
482.37	6237.26
482.574	6153.29
482.778	5991.5
482.983	6231.12
483.187	6175.82
483.391	6050.89
483.595	5975.12
483.8	6171.72
484.004	6108.24
484.208	6186.06
484.412	6075.47
484.616	6145.1
484.821	6087.76
485.025	6063.18
485.229	6192.2
485.433	6106.19
485.637	6020.17
485.841	6016.08
486.045	6192.2
486.249	6255.69
486.453	6128.72
486.657	6040.65
486.861	6136.91
487.065	5936.21
487.269	6003.79
487.473	5956.69
487.677	6077.52
487.881	6157.39
488.085	6079.57
488.289	6067.28
488.493	6132.81
488.697	6108.24
488.901	6196.3
489.105	6104.14
489.309	6024.27
489.512	6349.9
489.716	6098
489.92	6304.84
490.124	6263.88
490.328	6280.27
490.531	6147.15
490.735	6321.23
490.939	6294.6
491.143	6151.24
491.346	6141
491.55	6478.92
491.754	6376.52
491.958	6370.38
492.161	6296.65
492.365	6351.95
492.569	6331.47
492.772	6530.12
492.976	6618.18
493.18	6624.33
493.383	6747.2
493.587	6681.67
493.79	6831.17
493.994	6616.13
494.197	6687.81
494.401	6718.53
494.605	6704.2
494.808	7035.97
495.012	6947.9
495.215	7005.25
495.419	7052.35
495.622	6999.1
495.825	7171.13
496.029	7064.64
496.232	7261.24
496.436	7341.11
496.639	7359.55
496.843	7345.21
497.046	7672.89
497.249	7750.71
497.453	7765.04
497.656	7734.32
497.859	7763
498.063	7926.83
498.266	7955.51
498.469	8045.62
498.673	7980.08
498.876	8100.91
499.079	8219.69
499.282	8404.01
499.485	8594.47
499.689	8664.1
499.892	8725.54
500.095	8651.81
500.298	9002.02
500.501	8913.95
500.705	9196.57
500.908	9296.92
501.111	9364.51
501.314	9415.71
501.517	9577.5
501.72	9569.3
501.923	9688.09
502.126	9796.63
502.329	10046.48
502.532	10159.12
502.735	10275.85
502.938	10544.14
503.141	10411.02
503.344	10589.19
503.547	10755.08
503.75	10961.92
503.953	11088.9
504.156	10894.34
504.359	11330.56
504.562	11363.33
504.765	11705.34
504.968	11666.42
505.17	11762.68
505.373	11834.36
505.576	11959.28
505.779	12284.91
505.982	12403.69
506.185	12471.28
506.387	12516.33
506.59	12712.94
506.793	12874.73
506.996	12948.45
507.198	13337.57
507.401	13149.15
507.604	13532.12
507.807	13837.27
508.009	13738.97
508.212	13960.15
508.415	13919.19
508.617	14189.52
508.82	14152.66
509.022	14205.91
509.225	14730.19
509.428	14826.44
509.63	15143.88
509.833	15238.08
510.035	15508.41
510.238	15461.31
510.44	15700.92
510.643	15987.64
510.845	16212.92
511.048	16075.7
511.25	16311.22
511.453	16501.68
511.655	17015.72
511.858	16995.24
512.06	16898.98
512.262	17292.19
512.465	17034.15
512.667	17599.39
512.87	17855.39
513.072	17843.1
513.274	18185.11
513.477	18527.12
513.679	18572.18
513.881	18752.4
514.084	19110.79
514.286	19262.34
514.488	19258.24
514.69	20124.54
514.893	19960.7
515.095	20276.09
515.297	20214.65
515.499	20364.15
515.701	20652.91
515.904	21109.61
516.106	21134.18
516.308	21330.79
516.51	21703.52
516.712	21656.42
516.914	21783.39
517.116	22514.52
517.318	22371.16
517.52	22358.87
517.722	22598.48
517.925	23016.27
518.127	23196.49
518.329	23712.58
518.531	23532.36
518.733	23966.52
518.935	24507.19
519.136	24279.86
519.338	24619.83
519.54	24865.58
519.742	24884.01
519.944	25115.44
520.146	25652
520.348	25756.45
520.55	26051.36
520.752	26143.52
520.954	26309.4
521.155	26411.8
521.357	26895.12
521.559	27210.51
521.761	27554.57
521.963	27697.92
522.164	27646.72
522.366	27941.63
522.568	28312.31
522.77	28269.31
522.971	28656.37
523.173	28531.45
523.375	28885.75
523.576	29082.35
523.778	29115.12
523.98	29582.06
524.181	29516.52
524.383	29901.54
524.584	29934.31
524.786	30249.69
524.988	29874.91
525.189	30376.67
525.391	30708.44
525.592	31165.14
525.794	31097.55
525.995	30827.22
526.197	31245.01
526.398	31347.4
526.6	31816.39
526.801	31908.55
527.003	32039.62
527.204	31810.25
527.406	32350.91
527.607	32152.26
527.808	32590.52
528.01	31959.75
528.211	32309.95
528.412	33028.79
528.614	32635.58
528.815	33157.81
529.016	33188.53
529.218	33014.45
529.419	33231.54
529.62	33016.5
529.822	33063.6
530.023	33239.73
530.224	33442.48
530.425	33802.92
530.626	33387.18
530.828	33368.75
531.029	33784.49
531.23	33606.31
531.431	33653.42
531.632	33616.55
531.833	34042.53
532.035	33772.2
532.236	34187.94
532.437	34124.45
532.638	33536.68
532.839	34658.97
533.04	34267.81
533.241	33835.69
533.442	34476.7
533.643	34402.97
533.844	34345.63
534.045	34656.92
534.246	34079.39
534.447	34575
534.648	34226.85
534.849	34667.16
535.05	34327.2
535.251	34456.22
535.451	34280.1
535.652	34392.73
535.853	34544.28
536.054	34343.58
536.255	34626.2
536.456	34327.2
536.657	34798.23
536.857	34310.82
537.058	34464.41
537.259	34863.77
537.46	34636.44
537.66	34468.51
537.861	34843.29
538.062	34869.91
538.263	34792.09
538.463	34564.76
538.664	34529.95
538.865	34910.87
539.065	35005.08
539.266	34097.83
539.466	34890.39
539.667	34083.49
539.868	34747.03
540.068	34521.76
540.269	34736.79
540.469	34900.63
540.67	34794.14
540.87	34564.76
541.071	34415.26
541.271	34591.39
541.472	34577.05
541.672	34398.88
541.873	34554.52
542.073	34333.34
542.274	34892.44
542.474	35070.61
542.675	34470.56
542.875	34642.59
543.075	34542.24
543.276	34337.44
543.476	34568.86
543.676	34529.95
543.877	34867.86
544.077	34581.15
544.277	34443.93
544.478	34239.14
544.678	34370.21
544.878	34626.2
545.078	34165.41
545.279	34247.33
545.479	34169.51
545.679	34501.28
545.879	34609.82
546.079	34202.27
546.28	34661.02
546.48	33999.52
546.68	34591.39
546.88	34265.76
547.08	34667.16
547.28	34321.05
547.48	34405.02
547.68	34241.18
547.88	34329.25
548.081	34488.99
548.281	34443.93
548.481	34308.77
548.681	34691.74
548.881	34075.3
549.081	34232.99
549.28	34214.56
549.48	34634.39
549.68	34349.73
549.88	34726.55
550.08	34237.09
550.28	34587.29
550.48	33954.47
550.68	34697.88
550.88	34101.92
551.08	34386.59
551.279	34253.47
551.479	34036.39
551.679	34173.6
551.879	34427.55
552.079	34566.81
552.278	34054.82
552.478	34273.95
552.678	34558.62
552.878	34534.04
553.077	33944.23
553.277	33866.41
553.477	34271.9
553.676	34181.79
553.876	34390.69
554.076	33886.89
554.275	33983.14
554.475	33946.28
554.674	33977
554.874	34163.36
555.074	33841.83
555.273	34185.89
555.473	34112.16
555.672	33630.89
555.872	33983.14
556.071	34161.31
556.271	33708.71
556.47	33565.35
556.67	33602.22
556.869	33448.62
557.068	33680.04
557.268	33428.14
557.467	33419.95
557.667	33514.16
557.866	33354.41
558.065	33616.55
558.265	33026.74
558.464	33262.26
558.663	33389.23
558.863	32967.35
559.062	33514.16
559.261	32551.61
559.461	33395.37
559.66	32785.08
559.859	33145.52
560.058	32641.72
560.258	32715.45
560.457	32565.95
560.656	33108.66
560.855	32586.43
561.054	32619.19
561.253	32463.55
561.453	32754.36
561.652	32692.92
561.851	32709.3
562.05	32234.17
562.249	32383.68
562.448	32907.96
562.647	32012.99
562.846	32199.36
563.045	32473.79
563.244	31941.32
563.443	32344.77
563.642	31691.46
563.841	31910.6
564.04	31845.06
564.239	32064.19
564.438	31664.84
564.637	31957.7
564.836	31699.65
565.035	31449.8
565.234	31673.03
565.432	31503.05
565.631	31351.5
565.83	31699.65
566.029	31212.24
566.228	31335.12
566.427	31111.89
566.625	31077.07
566.824	30825.17
567.023	31277.77
567.222	30558.94
567.42	30991.06
567.619	30925.52
567.818	30560.98
568.016	30851.8
568.215	30845.65
568.414	30544.6
568.612	30995.15
568.811	30100.19
569.01	30276.32
569.208	29991.65
569.407	30548.7
569.605	29678.31
569.804	29866.72
570.002	29922.02
570.201	30075.62
570.4	29934.31
570.598	29573.86
570.797	29522.66
570.995	29784.8
571.193	28963.57
571.392	29657.83
571.59	29346.54
571.789	29328.11
571.987	29102.83
572.186	29074.16
572.384	29004.53
572.582	29061.87
572.781	28861.17
572.979	28617.46
573.177	28445.43
573.376	28754.68
573.574	28349.18
573.772	28717.81
573.971	28418.81
574.169	28537.59
574.367	28058.37
574.565	27988.74
574.763	27947.78
574.962	28089.09
575.16	27646.72
575.358	28171
575.556	27642.63
575.754	27798.27
575.952	27409.16
576.151	27730.69
576.349	27656.96
576.547	27476.74
576.745	27220.75
576.943	27220.75
577.141	27013.9
577.339	27210.51
577.537	26923.79
577.735	26979.09
577.933	26614.55
578.131	27089.68
578.329	26653.46
578.527	26716.95
578.725	26247.96
578.923	26331.93
579.121	26555.16
579.319	26282.78
579.516	26344.22
579.714	26053.41
579.912	26047.26
580.11	26241.82
580.308	25893.66
580.506	25834.27
580.704	25609
580.901	25793.31
581.099	25594.66
581.297	25375.53
581.495	25535.27
581.692	25510.69
581.89	25185.07
582.088	25453.35
582.285	25203.5
582.483	24947.5
582.681	24816.43
582.878	24974.13
583.076	24779.57
583.274	24927.02
583.471	24523.57
583.669	24716.08
583.866	24542
584.064	24613.68
584.262	24161.08
584.459	24449.85
584.657	24171.32
584.854	24412.98
585.052	23909.18
585.249	24093.5
585.447	23923.52
585.644	23767.87
585.841	23710.53
586.039	23769.92
586.236	23628.61
586.434	23731.01
586.631	23513.92
586.828	23814.98
587.026	23470.92
587.223	23583.55
587.42	23522.12
587.618	23124.81
587.815	23094.09
588.012	23108.43
588.21	22909.77
588.407	23112.52
588.604	22600.53
588.801	22592.34
588.999	22590.29
589.196	22508.37
589.393	22668.11
589.59	22618.96
589.787	22625.11
589.984	22342.49
590.182	22252.38
590.379	22680.4
590.576	22248.28
590.773	22242.14
590.97	22051.67
591.167	22055.77
591.364	21941.08
591.561	22059.87
591.758	21840.73
591.955	21613.41
592.152	22035.29
592.349	21486.43
592.546	21664.61
592.743	21592.93
592.94	21244.77
593.137	21480.29
593.334	21521.25
593.531	21103.46
593.727	21326.69
593.924	21160.81
594.121	20988.78
594.318	21185.38
594.515	20812.65
594.712	21035.88
594.908	20898.67
595.105	20939.63
595.302	20581.23
595.499	20548.47
595.696	20675.44
595.892	20482.93
596.089	20546.42
596.286	20544.37
596.482	20536.18
596.679	20413.3
596.876	20394.87
597.072	20290.42
597.269	20120.44
597.466	19893.12
597.662	20011.9
597.859	20042.62
598.055	20001.66
598.252	19985.27
598.448	19760
598.645	19807.1
598.841	19481.47
599.038	19616.64
599.234	19653.5
599.431	19575.68
599.627	19254.15
599.824	19671.93
600.02	18967.43
600.217	19284.87
600.413	19004.3
600.609	19121.03
600.806	19037.06
601.002	19071.88
601.198	19133.32
601.395	19059.59
601.591	19180.42
601.787	18946.95
601.984	18674.57
602.18	18961.29
602.376	18353.04
602.572	18465.68
602.769	18604.94
602.965	18453.39
603.161	18201.49
603.357	18357.14
603.553	18193.3
603.75	18291.6
603.946	17879.96
604.142	18031.51
604.338	17765.28
604.534	17986.46
604.73	17900.44
604.926	17839
605.122	17855.39
605.318	17679.26
605.514	17642.4
605.71	17519.52
605.906	17472.42
606.102	17453.98
606.298	17632.16
606.494	17400.74
606.69	17114.02
606.886	17304.48
607.082	17144.74
607.278	17271.72
607.474	17015.72
607.67	17167.27
607.866	16886.7
608.062	17138.6
608.257	16950.18
608.453	16753.58
608.649	16559.02
608.845	16786.35
609.041	16808.87
609.236	17097.64
609.432	16739.24
609.628	16475.06
609.824	16640.94
610.019	16356.27
610.215	16524.21
610.411	16616.37
610.606	16327.6
610.802	16548.78
610.998	16319.41
611.193	16233.39
611.389	16155.57
611.584	16294.83
611.78	16210.87
611.976	16151.48
612.171	16016.31
612.367	15883.19
612.562	16118.71
612.758	15866.81
612.953	15709.11
613.149	16141.24
613.344	15745.98
613.539	16212.92
613.735	15846.33
613.93	15817.66
614.126	15565.76
614.321	15809.47
614.517	15606.72
614.712	15606.72
614.907	15535.04
615.103	15723.45
615.298	15330.24
615.493	15461.31
615.688	15354.82
615.884	15668.16
616.079	15166.4
616.274	15403.97
616.47	15268.8
616.665	15418.3
616.86	15164.36
617.055	15199.17
617.25	15018.95
617.445	15053.76
617.641	14832.58
617.836	15152.07
618.031	14701.51
618.226	14891.98
618.421	14898.12
618.616	14834.63
618.811	14691.27
619.006	14955.46
619.201	14453.71
619.396	14437.33
619.591	14230.48
619.786	14490.57
619.981	14414.8
620.176	14439.37
620.371	14140.37
620.566	14203.86
620.761	13581.28
620.956	14205.91
621.151	14056.4
621.346	13964.25
621.541	13523.93
621.735	13786.07
621.93	13646.81
622.125	13501.4
622.32	13431.77
622.515	13575.13
622.709	13261.79
622.904	13325.28
623.099	13196.26
623.294	13253.6
623.488	13157.35
623.683	13108.19
623.878	13110.24
624.072	13046.76
624.267	12854.25
624.462	12786.66
624.656	12592.11
624.851	12749.8
625.046	12803.05
625.24	12315.63
625.435	12465.13
625.629	12391.41
625.824	12006.39
626.018	12399.6
626.213	11760.63
626.407	12127.22
626.602	12045.3
626.796	11992.05
626.991	12012.53
627.185	11942.9
627.38	11822.07
627.574	11615.23
627.768	11635.71
627.963	11803.64
628.157	11543.55
628.352	11645.94
628.546	11340.8
628.74	11312.13
628.935	11201.54
629.129	11277.31
629.323	11287.55
629.517	11289.6
629.712	11111.43
629.906	11070.47
630.1	10785.8
630.294	10847.24
630.489	10814.47
630.683	10828.81
630.877	10628.1
631.071	10734.6
631.265	10765.32
631.459	10542.09
631.653	10413.07
631.848	10380.3
632.042	10128.4
632.236	10345.48
632.43	10177.55
632.624	10216.46
632.818	10296.33
633.012	10062.87
633.206	10112.02
633.4	9999.38
633.594	9788.44
633.788	9972.75
633.982	9825.3
634.176	9970.71
634.369	9688.09
634.563	9591.83
634.757	9522.2
634.951	9772.05
635.145	9434.14
635.339	9602.07
635.533	9403.42
635.726	9636.89
635.92	9030.69
636.114	9217.05
636.308	9204.77
636.501	9262.11
636.695	9126.94
636.889	9126.94
637.083	9032.74
637.276	8637.48
637.47	8905.76
637.664	8997.92
637.857	8823.84
638.051	8885.28
638.244	8799.27
638.438	8739.88
638.632	8565.8
638.825	8485.93
639.019	8318
639.212	8549.42
639.406	8391.72
639.599	8459.31
639.793	8440.87
639.986	8186.93
640.18	8227.89
640.373	8326.19
640.567	8135.73
640.76	8154.16
640.954	7996.46
641.147	7988.27
641.34	7953.46
641.534	7894.07
641.727	7836.72
641.92	7812.15
642.114	7822.39
642.307	7851.06
642.5	7767.09
642.694	7519.29
642.887	7486.52
643.08	7584.82
643.273	7638.07
643.467	7281.72
643.66	7599.16
643.853	7228.48
644.046	7339.07
644.239	7416.89
644.432	7281.72
644.626	7265.34
644.819	7208
645.012	7148.61
645.205	7126.08
645.398	7281.72
645.591	7208
645.784	7011.39
645.977	6814.79
646.17	6736.96
646.363	6857.79
646.556	6761.54
646.749	6794.31
646.942	6634.57
647.135	6771.78
647.328	6726.72
647.521	6593.61
647.714	6548.55
647.907	6435.91
648.099	6384.71
648.292	6478.92
648.485	6405.19
648.678	6411.34
648.871	6364.23
649.064	6302.79
649.256	6298.7
649.449	6235.21
649.642	6052.94
649.835	6157.39
650.027	6095.95
650.22	5952.59
650.413	5979.22
650.605	5950.54
650.798	5977.17
650.991	5934.16
651.183	5858.39
651.376	5801.04
651.568	5899.34
651.761	5694.55
651.954	5815.38
652.146	5798.99
652.339	5850.19
652.531	5739.6
652.724	5643.35
652.916	5569.62
653.109	5426.26
653.301	5540.95
653.494	5502.04
653.686	5334.11
653.879	5559.38
654.071	5516.37
654.263	5471.32
654.456	5434.46
654.648	5319.77
654.84	5303.39
655.033	5190.75
655.225	5078.11
655.417	5110.88
655.61	5303.39
655.802	5186.65
655.994	5086.3
656.186	5182.56
656.379	5033.05
656.571	5178.46
656.763	5020.77
656.955	4875.36
657.148	5055.58
657.34	4942.94
657.532	4897.89
657.724	4793.44
657.916	4781.15
658.108	4893.79
658.3	4871.26
658.492	4838.5
658.684	4596.84
658.876	4566.12
659.068	4746.34
659.26	4701.28
659.452	4693.09
659.644	4498.53
659.836	4420.71
660.028	4514.92
660.22	4387.94
660.412	4359.27
660.604	4351.08
660.796	4359.27
660.988	4361.32
661.18	4267.11
661.372	4385.9
661.563	4183.15
661.755	4322.41
661.947	4254.83
662.139	4185.19
662.331	4060.27
662.522	4082.8
662.714	4152.43
662.906	4142.19
663.097	4027.5
663.289	4011.12
663.481	4045.93
663.673	3921.01
663.864	4015.21
664.056	3968.11
664.247	3912.81
664.439	3986.54
664.631	3738.74
664.822	3968.11
665.014	3808.37
665.205	3826.8
665.397	3789.94
665.588	3884.14
665.78	3873.9
665.971	3818.61
666.163	3794.03
666.354	3671.15
666.546	3693.68
666.737	3556.47
666.929	3652.72
667.12	3632.24
667.311	3626.1
667.503	3492.98
667.694	3720.31
667.885	3548.28
668.077	3603.57
668.268	3398.77
668.459	3527.8
668.651	3492.98
668.842	3449.97
669.033	3398.77
669.224	3507.32
669.416	3400.82
669.607	3427.45
669.798	3335.29
669.989	3392.63
670.18	3236.99
670.371	3390.58
670.563	3239.03
670.754	3388.53
670.945	3279.99
671.136	3318.9
671.327	3218.55
671.518	3325.05
671.709	3308.66
671.9	3316.86
672.091	3314.81
672.282	3187.83
672.473	3267.7
672.664	3169.4
672.855	3116.16
673.046	3177.59
673.237	3234.94
673.428	3138.68
673.619	3091.58
673.809	3165.31
674	3148.92
674.191	3044.48
674.382	3024
674.573	3042.43
674.764	3001.47
674.954	3019.9
675.145	2962.56
675.336	3005.56
675.527	2880.64
675.717	2968.7
675.908	3044.48
676.099	3019.9
676.289	2962.56
676.48	2833.54
676.671	2823.3
676.861	2933.89
677.052	2892.93
677.243	2854.02
677.433	2901.12
677.624	2921.6
677.814	2909.31
678.005	2700.42
678.195	2849.92
678.386	2890.88
678.576	2776.19
678.767	2643.07
678.957	2657.41
679.148	2745.47
679.338	2849.92
679.529	2819.2
679.719	2739.33
679.909	2718.85
680.1	2806.91
680.29	2679.94
680.481	2784.38
680.671	2710.66
680.861	2649.22
681.052	2731.14
681.242	2761.86
681.432	2770.05
681.622	2708.61
681.813	2698.37
682.003	2729.09
682.193	2663.55
682.383	2589.83
682.573	2618.5
682.764	2743.42
682.954	2706.56
683.144	2649.22
683.334	2667.65
683.524	2559.11
683.714	2630.79
683.904	2643.07
684.094	2585.73
684.284	2598.02
684.474	2657.41
684.664	2559.11
684.854	2481.28
685.044	2557.06
685.234	2464.9
685.424	2585.73
685.614	2456.71
685.804	2604.16
685.994	2591.88
686.184	2538.63
686.374	2360.45
686.564	2473.09
686.753	2530.44
686.943	2534.53
687.133	2466.95
687.323	2514.05
687.513	2530.44
687.702	2475.14
687.892	2512
688.082	2401.41
688.272	2489.48
688.461	2450.57
688.651	2483.33
688.841	2376.84
689.03	2395.27
689.22	2460.81
689.41	2423.94
689.599	2366.6
689.789	2428.04
689.979	2368.65
690.168	2339.97
690.358	2280.58
690.547	2274.44
690.737	2350.21
690.926	2333.83
691.116	2315.4
691.305	2438.28
691.495	2401.41
691.684	2421.89
691.874	2337.93
692.063	2317.45
692.252	2483.33
692.442	2307.21
692.631	2296.97
692.82	2376.84
693.01	2280.58
693.199	2315.4
693.388	2225.29
693.578	2366.6
693.767	2354.31
693.956	2342.02
694.146	2243.72
694.335	2432.13
694.524	2362.5
694.713	2364.55
694.902	2206.86
695.092	2321.54
695.281	2303.11
695.47	2399.37
695.659	2268.3
695.848	2385.03
696.037	2376.84
696.226	2393.22
696.415	2411.65
696.604	2307.21
696.793	2405.51
696.982	2464.9
697.171	2387.08
697.36	2301.06
697.549	2280.58
697.738	2231.43
697.927	2278.54
698.116	2270.34
698.305	2362.5
698.494	2342.02
698.683	2247.82
698.872	2307.21
699.061	2397.32
699.25	2260.1
699.438	2307.21
699.627	2397.32
699.816	2213
700.005	2260.1
700.193	2282.63
700.382	2368.65
700.571	2362.5
700.76	2329.74
700.948	2161.8
701.137	2348.17
701.326	2286.73
701.514	2184.33
701.703	2380.93
701.892	2284.68
702.08	2262.15
702.269	2264.2
702.457	2266.25
702.646	2356.36
702.834	2292.87
703.023	2233.48
703.212	2239.62
703.4	2112.65
703.589	2245.77
703.777	2270.34
703.965	2198.67
704.154	2122.89
704.342	2280.58
704.531	2110.6
704.719	2147.47
704.907	2235.53
705.096	2198.67
705.284	2260.1
705.472	2311.3
705.661	2204.81
705.849	2122.89
706.037	2217.1
706.226	2286.73
706.414	2237.58
706.602	2174.09
706.79	2098.31
706.979	2131.08
707.167	2229.38
707.355	2356.36
707.543	2077.83
707.731	2210.95
707.919	2104.46
708.107	2184.33
708.296	2165.9
708.484	2182.28
708.672	2086.03
708.86	2186.38
709.048	2143.37
709.236	2030.73
709.424	2079.88
709.612	2030.73
709.8	2006.16
709.988	2137.23
710.176	2065.55
710.364	2118.79
710.551	2118.79
710.739	2133.13
710.927	2081.93
711.115	2077.83
711.303	1952.91
711.491	2036.88
711.679	2038.92
711.866	1983.63
712.054	1989.77
712.242	1997.96
712.43	1918.09
712.617	1942.67
712.805	1942.67
712.993	2069.64
713.181	1961.1
713.368	1950.86
713.556	1875.09
713.744	1924.24
713.931	2022.54
714.119	1938.57
714.306	1860.75
714.494	1963.15
714.682	1827.98
714.869	1909.9
715.057	1868.94
715.244	1875.09
715.432	1952.91
715.619	1924.24
715.807	1770.64
715.994	1889.42
716.182	1838.22
716.369	1823.89
716.556	1825.93
716.744	1844.37
716.931	1791.12
717.119	1815.69
717.306	1748.11
717.493	1864.85
717.681	1784.98
717.868	1756.3
718.055	1754.26
718.242	1823.89
718.43	1836.17
718.617	1748.11
718.804	1772.69
718.991	1780.88
719.179	1893.52
719.366	1713.3
719.553	1793.17
719.74	1666.19
719.927	1780.88
720.114	1703.06
720.301	1631.38
720.488	1590.42
720.676	1662.1
720.863	1698.96
721.05	1741.97
721.237	1686.67
721.424	1899.66
721.611	1776.78
721.798	1612.95
721.985	1651.86
722.172	1703.06
722.358	1623.19
722.545	1682.58
722.732	1653.91
722.919	1653.91
723.106	1705.1
723.293	1639.57
723.48	1678.48
723.667	1623.19
723.853	1543.32
724.04	1549.46
724.227	1500.31
724.414	1598.61
724.6	1561.75
724.787	1612.95
724.974	1664.15
725.161	1524.88
725.347	1633.43
725.534	1606.8
725.72	1576.08
725.907	1502.36
726.094	1514.64
726.28	1455.25
726.467	1451.16
726.653	1520.79
726.84	1555.6
727.027	1596.56
727.213	1557.65
727.4	1424.53
727.586	1608.85
727.773	1467.54
727.959	1442.96
728.145	1526.93
728.332	1465.49
728.518	1428.63
728.705	1492.12
728.891	1365.14
729.077	1522.84
729.264	1410.2
729.45	1504.4
729.636	1475.73
729.823	1506.45
730.009	1414.29
730.195	1459.35
730.382	1457.3
730.568	1406.1
730.754	1408.15
730.94	1404.05
731.126	1518.74
731.313	1410.2
731.499	1483.92
731.685	1399.96
731.871	1465.49
732.057	1359
732.243	1395.86
732.429	1422.48
732.615	1350.81
732.801	1436.82
732.987	1275.03
733.173	1361.05
733.359	1465.49
733.545	1457.3
733.731	1338.52
733.917	1361.05
734.103	1342.61
734.289	1344.66
734.475	1342.61
734.661	1297.56
734.847	1334.42
735.033	1348.76
735.219	1328.28
735.404	1428.63
735.59	1279.13
735.776	1221.78
735.962	1309.85
736.148	1346.71
736.333	1420.44
736.519	1285.27
736.705	1387.67
736.89	1322.13
737.076	1256.6
737.262	1225.88
737.447	1361.05
737.633	1182.87
737.819	1281.18
738.004	1260.7
738.19	1254.55
738.375	1199.26
738.561	1332.37
738.747	1240.22
738.932	1313.94
739.118	1238.17
739.303	1229.98
739.489	1250.46
739.674	1324.18
739.859	1150.11
740.045	1275.03
740.23	1254.55
740.416	1260.7
740.601	1191.06
740.786	1172.63
740.972	1199.26
741.157	1180.82
741.342	1199.26
741.528	1264.79
741.713	1111.19
741.898	1191.06
742.084	1164.44
742.269	1033.37
742.454	1133.72
742.639	1064.09
742.824	1256.6
743.01	1133.72
743.195	1193.11
743.38	1092.76
743.565	1119.39
743.75	1072.28
743.935	1029.27
744.12	1131.67
744.305	1125.53
744.49	1037.47
744.675	1033.37
744.86	1033.37
745.045	1043.61
745.23	1059.99
745.415	1092.76
745.6	1045.66
745.785	1016.99
745.97	1002.65
746.155	1068.19
746.34	1107.1
746.525	986.27
746.71	1000.6
746.895	984.22
747.079	1021.08
747.264	982.17
747.449	1033.37
747.634	1016.99
747.819	994.46
748.003	943.26
748.188	980.12
748.373	941.21
748.557	945.31
748.742	949.4
748.927	1014.94
749.111	971.93
749.296	947.36
749.481	908.44
749.665	920.73
749.85	885.92
750.034	961.69
750.219	904.35
750.404	945.31
750.588	1016.99
750.773	804
750.957	816.29
751.141	912.54
751.326	760.99
751.51	871.58
751.695	918.68
751.879	814.24
752.064	857.25
752.248	801.95
752.432	830.62
752.617	789.66
752.801	808.09
752.985	791.71
753.17	894.11
753.354	838.81
753.538	822.43
753.722	771.23
753.907	834.72
754.091	863.39
754.275	720.03
754.459	824.48
754.643	808.09
754.828	838.81
755.012	791.71
755.196	806.05
755.38	820.38
755.564	791.71
755.748	738.46
755.932	705.7
756.116	697.5
756.3	756.9
756.484	767.13
756.668	773.28
756.852	720.03
757.036	724.13
757.22	746.66
757.404	695.46
757.588	769.18
757.772	683.17
757.956	658.59
758.14	681.12
758.323	707.74
758.507	699.55
758.691	689.31
758.875	699.55
759.059	730.27
759.242	711.84
759.426	705.7
759.61	650.4
759.794	750.75
759.977	724.13
760.161	658.59
760.345	574.63
760.528	619.68
760.712	564.39
760.895	615.59
761.079	574.63
761.263	654.5
761.446	707.74
761.63	650.4
761.813	619.68
761.997	615.59
762.18	593.06
762.364	668.83
762.547	619.68
762.731	586.91
762.914	556.19
763.098	625.83
763.281	603.3
763.464	674.98
763.648	621.73
763.831	545.95
764.015	550.05
764.198	574.63
764.381	566.43
764.564	545.95
764.748	656.54
764.931	601.25
765.114	482.47
765.297	554.15
765.481	517.28
765.664	640.16
765.847	603.3
766.03	615.59
766.213	603.3
766.397	625.83
766.58	568.48
766.763	552.1
766.946	509.09
767.129	525.47
767.312	603.3
767.495	521.38
767.678	537.76
767.861	511.14
768.044	576.67
768.227	515.23
768.41	488.61
768.593	525.47
768.776	513.19
768.959	552.1
769.142	474.28
769.324	525.47
769.507	523.43
769.69	490.66
769.873	398.5
770.056	498.85
770.239	484.52
770.421	509.09
770.604	511.14
770.787	550.05
770.97	511.14
771.152	486.56
771.335	531.62
771.518	472.23
771.7	461.99
771.883	457.89
772.066	418.98
772.248	484.52
772.431	488.61
772.613	570.53
772.796	453.8
772.978	418.98
773.161	519.33
773.343	445.6
773.526	410.79
773.708	406.69
773.891	437.41
774.073	445.6
774.256	447.65
774.438	507.04
774.621	439.46
774.803	449.7
774.985	390.31
775.168	488.61
775.35	443.56
775.532	414.88
775.715	447.65
775.897	490.66
776.079	418.98
776.261	353.45
776.444	408.74
776.626	386.21
776.808	429.22
776.99	361.64
777.173	406.69
777.355	429.22
777.537	373.92
777.719	359.59
777.901	318.63
778.083	457.89
778.265	451.75
778.447	453.8
778.629	308.39
778.811	345.25
778.993	390.31
779.175	380.07
779.357	349.35
779.539	418.98
779.721	398.5
779.903	380.07
780.085	355.49
780.267	347.3
780.449	382.12
780.631	326.82
780.812	361.64
780.994	242.85
781.176	382.12
781.358	392.36
781.54	330.92
781.721	371.88
781.903	367.78
782.085	365.73
782.267	388.26
782.448	365.73
782.63	275.62
782.812	324.77
782.993	244.9
783.175	271.53
783.357	341.16
783.538	318.63
783.72	320.68
783.901	375.97
784.083	224.42
784.264	275.62
784.446	306.34
784.627	310.44
784.809	294.05
784.99	326.82
785.172	267.43
785.353	201.9
785.535	234.66
785.716	341.16
785.897	261.29
786.079	349.35
786.26	234.66
786.441	218.28
786.623	287.91
786.804	246.95
786.985	179.37
787.167	210.09
787.348	261.29
787.529	238.76
787.71	255.14
787.891	271.53
788.073	230.57
788.254	244.9
788.435	218.28
788.616	253.09
788.797	199.85
788.978	189.61
789.159	302.25
789.34	308.39
789.522	169.13
789.703	255.14
789.884	203.94
790.065	193.7
790.246	279.72
790.427	257.19
790.607	232.62
790.788	214.18
790.969	208.04
791.15	189.61
791.331	189.61
791.512	214.18
791.693	246.95
791.874	216.23
792.054	199.85
792.235	169.13
792.416	269.48
792.597	189.61
792.778	185.51
792.958	185.51
793.139	232.62
793.32	191.66
793.5	222.38
793.681	232.62
793.862	191.66
794.042	195.75
794.223	214.18
794.404	222.38
794.584	195.75
794.765	189.61
794.945	122.02
795.126	240.81
795.306	185.51
795.487	162.98
795.667	212.14
795.848	236.71
796.028	169.13
796.209	257.19
796.389	113.83
796.57	187.56
796.75	212.14
796.93	193.7
797.111	246.95
797.291	189.61
797.471	160.94
797.652	203.94
797.832	134.31
798.012	212.14
798.192	158.89
798.373	158.89
798.553	156.84
798.733	160.94
798.913	189.61
799.093	109.74
799.274	64.68
799.454	232.62
799.634	193.7
799.814	167.08
799.994	138.41
800.174	238.76
800.354	130.22
800.534	167.08
800.714	214.18
800.894	201.9
801.074	136.36
801.254	111.78
801.434	154.79
801.614	136.36
801.794	109.74
801.974	326.82
802.154	177.32
802.334	158.89
802.514	160.94
802.693	187.56
802.873	72.87
803.053	201.9
803.233	158.89
803.413	126.12
803.592	244.9
803.772	111.78
803.952	132.26
804.131	115.88
804.311	138.41
804.491	136.36
804.67	148.65
804.85	50.35
805.03	169.13
805.209	179.37
805.389	214.18
805.568	93.35
805.748	48.3
805.928	185.51
806.107	150.7
806.287	72.87
806.466	169.13
806.646	56.49
806.825	126.12
807.004	66.73
807.184	122.02
807.363	76.97
807.543	97.45
807.722	113.83
807.901	144.55
808.081	142.5
808.26	99.5
808.439	171.18
808.619	99.5
808.798	93.35
808.977	72.87
809.156	132.26
809.336	146.6
809.515	144.55
809.694	93.35
809.873	79.02
810.052	152.74
810.231	142.5
810.411	179.37
810.59	124.07
810.769	148.65
810.948	76.97
811.127	126.12
811.306	132.26
811.485	146.6
811.664	130.22
811.843	81.07
812.022	89.26
812.201	150.7
812.38	158.89
812.559	101.55
812.737	140.46
812.916	76.97
813.095	107.69
813.274	74.92
813.453	124.07
813.632	70.83
813.811	140.46
813.989	138.41
814.168	146.6
814.347	66.73
814.526	148.65
814.704	85.16
814.883	146.6
815.062	91.31
815.24	58.54
815.419	56.49
815.598	93.35
815.776	52.39
815.955	50.35
816.133	101.55
816.312	85.16
816.49	156.84
816.669	44.2
816.847	64.68
817.026	148.65
817.204	89.26
817.383	134.31
817.561	111.78
817.74	195.75
817.918	62.63
818.097	103.59
818.275	60.59
818.453	93.35
818.632	148.65
818.81	81.07
818.988	115.88
819.167	68.78
819.345	46.25
819.523	17.58
819.701	64.68
819.879	31.91
820.058	62.63
820.236	99.5
820.414	97.45
820.592	29.87
820.77	115.88
820.948	79.02
821.127	91.31
821.305	72.87
821.483	19.63
821.661	79.02
821.839	68.78
822.017	81.07
822.195	81.07
822.373	93.35
822.551	138.41
822.729	64.68
822.907	111.78
823.085	40.11
823.262	103.59
823.44	48.3
823.618	64.68
823.796	68.78
823.974	31.91
824.152	105.64
824.329	33.96
824.507	66.73
824.685	25.77
824.863	113.83
825.04	64.68
825.218	-2.9
825.396	79.02
825.574	117.93
825.751	74.92
825.929	74.92
826.107	99.5
826.284	46.25
826.462	62.63
826.639	117.93
826.817	103.59
826.994	93.35
827.172	101.55
827.349	52.39
827.527	76.97
827.704	60.59
827.882	83.11
828.059	52.39
828.237	89.26
828.414	72.87
828.591	85.16
828.769	21.67
828.946	50.35
829.124	64.68
829.301	81.07
829.478	117.93
829.655	97.45
829.833	60.59
830.01	60.59
830.187	72.87
830.364	68.78
830.542	83.11
830.719	-2.9
830.896	68.78
831.073	11.43
831.25	130.22
831.427	25.77
831.604	91.31
831.782	36.01
831.959	58.54
832.136	17.58
832.313	89.26
832.49	17.58
832.667	109.74
832.844	87.21
833.021	85.16
833.198	46.25
833.374	140.46
833.551	13.48
833.728	42.15
833.905	74.92
834.082	68.78
834.259	68.78
834.436	105.64
834.612	-2.9
834.789	72.87
834.966	62.63
835.143	91.31
835.319	-0.85
835.496	79.02
835.673	95.4
835.85	58.54
836.026	56.49
836.203	91.31
836.38	50.35
836.556	58.54
836.733	27.82
836.909	60.59
837.086	-29.52
837.262	89.26
837.439	52.39
837.616	60.59
837.792	-11.09
837.968	21.67
838.145	36.01
838.321	76.97
838.498	-13.14
838.674	48.3
838.851	124.07
839.027	60.59
839.203	13.48
839.38	99.5
839.556	93.35
839.732	-13.14
839.909	52.39
840.085	7.34
840.261	-43.86
840.437	17.58
840.614	60.59
840.79	40.11
840.966	111.78
841.142	-9.05
841.318	25.77
841.494	23.72
841.671	29.87
841.847	101.55
842.023	62.63
842.199	-19.29
842.375	13.48
842.551	62.63
842.727	29.87
842.903	48.3
843.079	13.48
843.255	60.59
843.431	-15.19
843.607	50.35
843.783	38.06
843.959	70.83
844.134	21.67
844.31	74.92
844.486	25.77
844.662	56.49
844.838	113.83
845.013	52.39
845.189	83.11
845.365	70.83
845.541	79.02
845.716	17.58
845.892	44.2
846.068	23.72
846.244	19.63
846.419	-17.24
846.595	-25.43
846.77	93.35
846.946	27.82
847.122	25.77
847.297	81.07
847.473	72.87
847.648	-4.95
847.824	11.43
847.999	27.82
848.175	99.5
848.35	46.25
848.526	21.67
848.701	38.06
848.876	134.31
849.052	66.73
849.227	11.43
849.403	-2.9
849.578	70.83
849.753	105.64
849.929	58.54
850.104	21.67
850.279	-27.48
850.454	-17.24
850.63	-17.24
850.805	19.63
850.98	17.58
851.155	3.24
851.33	85.16
851.505	46.25
851.681	50.35
851.856	-52.05
852.031	-23.38
852.206	74.92
852.381	11.43
852.556	48.3
852.731	31.91
852.906	54.44
853.081	93.35
853.256	7.34
853.431	79.02
853.606	-35.67
853.781	48.3
853.956	1.19
854.131	44.2
854.305	-15.19
854.48	-64.34
854.655	-52.05
854.83	-23.38
855.005	62.63
855.18	-2.9
855.354	11.43
855.529	-25.43
855.704	36.01
855.879	40.11
856.053	-33.62
856.228	70.83
856.403	25.77
856.577	74.92
856.752	-11.09
856.926	9.39
857.101	72.87
857.276	42.15
857.45	-50
857.625	99.5
857.799	74.92
857.974	9.39
858.148	-45.91
858.323	42.15
858.497	44.2
858.672	-21.33
858.846	-33.62
859.02	-37.72
859.195	29.87
859.369	52.39
859.543	13.48
859.718	-27.48
859.892	27.82
860.066	-35.67
860.241	9.39
860.415	1.19
860.589	29.87
860.763	11.43
860.938	13.48
861.112	9.39
861.286	64.68
861.46	44.2
861.634	52.39
861.808	44.2
861.982	33.96
862.157	33.96
862.331	74.92
862.505	-11.09
862.679	33.96
862.853	74.92
863.027	-17.24
863.201	85.16
863.375	66.73
863.549	95.4
863.722	25.77
863.896	-4.95
864.07	42.15
864.244	11.43
864.418	46.25
864.592	13.48
864.766	81.07
864.939	58.54
865.113	-15.19
865.287	15.53
865.461	36.01
865.634	74.92
865.808	79.02
865.982	62.63
866.156	-21.33
866.329	38.06
866.503	-17.24
866.676	44.2
866.85	-41.81
867.024	81.07
867.197	11.43
867.371	-0.85
867.544	-25.43
867.718	-2.9
867.891	122.02
868.065	44.2
868.238	52.39
868.412	72.87
868.585	-31.57
868.759	1.19
868.932	40.11
869.105	-11.09
869.279	-0.85
869.452	95.4
869.625	23.72
869.799	42.15
869.972	-15.19
870.145	11.43
870.319	48.3
870.492	46.25
870.665	-50
870.838	23.72
871.011	-2.9
871.185	-39.76
871.358	-2.9
871.531	50.35
871.704	54.44
871.877	-21.33
872.05	54.44
872.223	27.82
872.396	62.63
872.569	70.83
872.742	11.43
872.915	5.29
873.088	81.07
873.261	-4.95
873.434	-54.1
873.607	5.29
873.78	29.87
873.953	113.83
874.126	-52.05
874.299	36.01
874.471	42.15
874.644	3.24
874.817	5.29
874.99	-13.14
875.163	33.96
875.335	1.19
875.508	-15.19
875.681	64.68
875.853	66.73
876.026	1.19
876.199	62.63
876.371	-58.2
876.544	11.43
876.717	25.77
876.889	1.19
877.062	44.2
877.234	-11.09
877.407	-7
877.579	48.3
877.752	-37.72
877.924	19.63
878.097	15.53
878.269	99.5
878.442	33.96
878.614	-21.33
878.786	-54.1
878.959	29.87
879.131	5.29
879.303	48.3
879.476	3.24
879.648	31.91
879.82	3.24
879.993	72.87
880.165	11.43
880.337	58.54
880.509	-9.05
880.681	-41.81
880.854	66.73
881.026	13.48
881.198	81.07
881.37	-25.43
881.542	33.96
881.714	36.01
881.886	-17.24
882.058	79.02
882.23	85.16
882.402	-0.85
882.574	13.48
882.746	23.72
882.918	44.2
883.09	44.2
883.262	56.49
883.434	66.73
883.606	-9.05
883.778	27.82
883.95	-15.19
884.122	36.01
884.293	-2.9
884.465	-13.14
884.637	40.11
884.809	-15.19
884.98	33.96
885.152	44.2
885.324	68.78
885.496	5.29
885.667	27.82
885.839	3.24
886.011	29.87
886.182	56.49
886.354	23.72
886.525	25.77
886.697	48.3
886.869	50.35
887.04	-15.19
887.212	62.63
887.383	81.07
887.555	-43.86
887.726	54.44
887.897	-33.62
888.069	-2.9
888.24	-21.33
888.412	27.82
888.583	56.49
888.754	25.77
888.926	-27.48
889.097	-15.19
889.268	15.53
889.44	19.63
889.611	7.34
889.782	-93.01
889.953	-31.57
890.125	1.19
890.296	11.43
890.467	54.44
890.638	5.29
890.809	81.07
890.98	-39.76
891.151	54.44
891.323	-33.62
891.494	-0.85
891.665	19.63
891.836	91.31
892.007	-0.85
892.178	11.43
892.349	38.06
892.52	93.35
892.691	31.91
892.862	48.3
893.032	21.67
893.203	60.59
893.374	-70.48
893.545	54.44
893.716	23.72
893.887	83.11
894.057	117.93
894.228	-0.85
894.399	7.34
894.57	-37.72
894.74	46.25
894.911	70.83
895.082	-45.91
895.253	31.91
895.423	19.63
895.594	17.58
895.764	17.58
895.935	17.58
896.106	-41.81
896.276	-4.95
896.447	17.58
896.617	74.92
896.788	9.39
896.958	-68.44
897.129	-41.81
897.299	-54.1
897.47	56.49
897.64	52.39
897.81	33.96
897.981	-19.29
898.151	74.92
898.322	-9.05
898.492	115.88
898.662	-43.86
898.832	79.02
899.003	85.16
899.173	25.77
899.343	-17.24
899.513	-43.86
