Data from USB4F104151__44__13-53-18-858.txt Node

Date: Thu Mar 13 13:53:18 EDT 2025
User: louis
Spectrometer: USB4F10415
Trigger mode: 4
Integration Time (sec): 1.000000E-2
Scans to average: 1
Electric dark correction enabled: true
Nonlinearity correction enabled: false
Boxcar width: 0
XAxis mode: Wavelengths
Number of Pixels in Spectrum: 3648
>>>>>Begin Spectral Data<<<<<
178.204	0
178.424	0
178.644	0
178.864	-43.01
179.084	-34.82
179.304	-47.1
179.524	28.67
179.744	-24.58
179.964	59.39
180.184	-2.05
180.404	-18.43
180.624	22.53
180.844	-4.1
181.064	-34.82
181.283	30.72
181.503	-43.01
181.723	32.77
181.943	57.34
182.163	47.1
182.383	28.67
182.602	4.1
182.822	22.53
183.042	28.67
183.262	-10.24
183.482	57.34
183.701	-2.05
183.921	8.19
184.141	24.58
184.361	-2.05
184.58	-38.91
184.8	20.48
185.02	-71.68
185.239	8.19
185.459	4.1
185.679	100.35
185.898	22.53
186.118	-6.14
186.338	6.14
186.557	-26.62
186.777	-65.53
186.997	81.92
187.216	-8.19
187.436	28.67
187.655	32.77
187.875	14.34
188.095	47.1
188.314	61.44
188.534	38.91
188.753	-6.14
188.973	6.14
189.192	69.63
189.412	22.53
189.631	-2.05
189.851	20.48
190.07	34.82
190.29	2.05
190.509	24.58
190.729	49.15
190.948	26.62
191.168	51.2
191.387	65.54
191.607	-71.68
191.826	36.86
192.045	-4.1
192.265	22.53
192.484	-8.19
192.704	12.29
192.923	-26.62
193.142	63.49
193.362	22.53
193.581	-12.29
193.8	22.53
194.02	16.38
194.239	36.86
194.458	-77.82
194.678	28.67
194.897	14.34
195.116	22.53
195.335	0
195.555	24.58
195.774	4.1
195.993	14.34
196.212	55.3
196.432	-14.34
196.651	57.34
196.87	38.91
197.089	100.35
197.308	30.72
197.528	30.72
197.747	-4.1
197.966	57.34
198.185	36.86
198.404	18.43
198.623	40.96
198.842	-2.05
199.062	-47.1
199.281	10.24
199.5	51.2
199.719	86.01
199.938	28.67
200.157	69.63
200.376	77.82
200.595	49.15
200.814	4.1
201.033	43.01
201.252	47.1
201.471	77.82
201.69	20.48
201.909	59.39
202.128	-14.34
202.347	18.43
202.566	-28.67
202.785	-10.24
203.004	0
203.223	59.39
203.442	63.49
203.661	28.67
203.879	-24.58
204.098	81.92
204.317	57.34
204.536	34.82
204.755	51.2
204.974	94.21
205.193	-16.38
205.411	53.25
205.63	-2.05
205.849	24.58
206.068	30.72
206.287	49.15
206.505	30.72
206.724	-20.48
206.943	14.34
207.162	24.58
207.381	20.48
207.599	43.01
207.818	43.01
208.037	90.11
208.255	-8.19
208.474	38.91
208.693	61.44
208.911	36.86
209.13	55.3
209.349	65.54
209.567	-55.3
209.786	71.68
210.005	-26.62
210.223	26.62
210.442	-49.15
210.661	55.3
210.879	4.1
211.098	51.2
211.316	47.1
211.535	43.01
211.753	34.82
211.972	8.19
212.191	38.91
212.409	43.01
212.628	55.3
212.846	34.82
213.065	4.1
213.283	-4.1
213.502	32.77
213.72	-16.38
213.938	30.72
214.157	-20.48
214.375	83.97
214.594	59.39
214.812	-8.19
215.031	-22.53
215.249	47.1
215.467	43.01
215.686	-2.05
215.904	49.15
216.122	24.58
216.341	28.67
216.559	90.11
216.778	4.1
216.996	14.34
217.214	12.29
217.432	20.48
217.651	-32.77
217.869	36.86
218.087	2.05
218.306	45.06
218.524	92.16
218.742	49.15
218.96	40.96
219.179	14.34
219.397	61.44
219.615	-22.53
219.833	-47.1
220.051	-2.05
220.27	73.73
220.488	14.34
220.706	81.92
220.924	-20.48
221.142	-6.14
221.36	-2.05
221.578	0
221.796	45.06
222.015	18.43
222.233	32.77
222.451	47.1
222.669	40.96
222.887	38.91
223.105	30.72
223.323	34.82
223.541	47.1
223.759	-8.19
223.977	57.34
224.195	100.35
224.413	73.73
224.631	6.14
224.849	34.82
225.067	96.25
225.285	49.15
225.503	4.1
225.721	-12.29
225.939	24.58
226.157	69.63
226.375	-10.24
226.592	-12.29
226.81	57.34
227.028	-12.29
227.246	40.96
227.464	-2.05
227.682	40.96
227.9	12.29
228.117	-2.05
228.335	0
228.553	18.43
228.771	4.1
228.989	28.67
229.206	43.01
229.424	-24.58
229.642	34.82
229.86	4.1
230.077	94.21
230.295	6.14
230.513	-16.38
230.731	22.53
230.948	-8.19
231.166	-28.67
231.384	-18.43
231.601	-30.72
231.819	30.72
232.037	-30.72
232.254	36.86
232.472	18.43
232.689	-47.1
232.907	16.38
233.125	22.53
233.342	-12.29
233.56	4.1
233.777	45.06
233.995	-26.62
234.213	-38.91
234.43	10.24
234.648	-2.05
234.865	32.77
235.083	83.97
235.3	16.38
235.518	34.82
235.735	-28.67
235.953	16.38
236.17	96.25
236.388	-12.29
236.605	10.24
236.822	47.1
237.04	6.14
237.257	51.2
237.475	26.62
237.692	10.24
237.909	92.16
238.127	49.15
238.344	26.62
238.562	-28.67
238.779	16.38
238.996	-8.19
239.214	26.62
239.431	110.59
239.648	55.3
239.865	26.62
240.083	24.58
240.3	12.29
240.517	40.96
240.735	81.92
240.952	-53.25
241.169	30.72
241.386	-57.34
241.603	18.43
241.821	47.1
242.038	57.34
242.255	-14.34
242.472	6.14
242.689	45.06
242.907	14.34
243.124	18.43
243.341	90.11
243.558	-14.34
243.775	-40.96
243.992	22.53
244.209	32.77
244.426	30.72
244.643	-51.2
244.86	-53.25
245.078	6.14
245.295	63.49
245.512	32.77
245.729	38.91
245.946	32.77
246.163	71.68
246.38	36.86
246.597	38.91
246.814	-4.1
247.031	10.24
247.248	18.43
247.464	6.14
247.681	-4.1
247.898	8.19
248.115	-30.72
248.332	-22.53
248.549	26.62
248.766	100.35
248.983	40.96
249.2	14.34
249.417	18.43
249.633	36.86
249.85	-86.01
250.067	16.38
250.284	-43.01
250.501	4.1
250.717	79.87
250.934	59.39
251.151	90.11
251.368	63.49
251.585	67.58
251.801	0
252.018	-22.53
252.235	38.91
252.451	22.53
252.668	6.14
252.885	77.82
253.102	34.82
253.318	30.72
253.535	-18.43
253.752	-6.14
253.968	79.87
254.185	36.86
254.401	-20.48
254.618	8.19
254.835	-28.67
255.051	38.91
255.268	-6.14
255.484	86.01
255.701	51.2
255.917	28.67
256.134	-61.44
256.351	73.73
256.567	67.58
256.784	71.68
257	-6.14
257.217	51.2
257.433	75.77
257.65	22.53
257.866	36.86
258.082	4.1
258.299	90.11
258.515	36.86
258.732	28.67
258.948	14.34
259.165	2.05
259.381	0
259.597	18.43
259.814	14.34
260.03	-2.05
260.246	12.29
260.463	-6.14
260.679	2.05
260.895	36.86
261.112	20.48
261.328	24.58
261.544	-14.34
261.761	94.21
261.977	-32.77
262.193	75.77
262.409	-34.82
262.626	71.68
262.842	-90.11
263.058	26.62
263.274	73.73
263.49	26.62
263.707	55.3
263.923	45.06
264.139	43.01
264.355	6.14
264.571	67.58
264.787	24.58
265.004	73.73
265.22	90.11
265.436	32.77
265.652	77.82
265.868	28.67
266.084	34.82
266.3	10.24
266.516	116.73
266.732	67.58
266.948	34.82
267.164	61.44
267.38	43.01
267.596	-71.68
267.812	28.67
268.028	-34.82
268.244	-18.43
268.46	45.06
268.676	-71.68
268.892	59.39
269.108	67.58
269.324	47.1
269.54	2.05
269.756	24.58
269.972	0
270.188	10.24
270.403	108.54
270.619	38.91
270.835	-40.96
271.051	63.49
271.267	22.53
271.483	47.1
271.698	40.96
271.914	10.24
272.13	-53.25
272.346	2.05
272.562	26.62
272.777	43.01
272.993	-38.91
273.209	96.25
273.425	73.73
273.64	-40.96
273.856	38.91
274.072	36.86
274.287	-61.44
274.503	53.25
274.719	34.82
274.934	73.73
275.15	8.19
275.366	-43.01
275.581	43.01
275.797	20.48
276.012	57.34
276.228	63.49
276.444	30.72
276.659	2.05
276.875	-32.77
277.09	57.34
277.306	22.53
277.521	73.73
277.737	18.43
277.952	32.77
278.168	-32.77
278.383	-63.49
278.599	36.86
278.814	65.54
279.03	-12.29
279.245	40.96
279.461	16.38
279.676	40.96
279.892	14.34
280.107	-40.96
280.322	-38.91
280.538	88.06
280.753	71.68
280.969	61.44
281.184	10.24
281.399	51.2
281.615	6.14
281.83	38.91
282.045	57.34
282.26	-38.91
282.476	18.43
282.691	55.3
282.906	-8.19
283.122	8.19
283.337	20.48
283.552	94.21
283.767	24.58
283.983	90.11
284.198	98.3
284.413	40.96
284.628	6.14
284.843	108.54
285.058	51.2
285.274	14.34
285.489	30.72
285.704	28.67
285.919	-34.82
286.134	-32.77
286.349	63.49
286.564	-4.1
286.779	34.82
286.995	47.1
287.21	-10.24
287.425	55.3
287.64	-18.43
287.855	14.34
288.07	-32.77
288.285	0
288.5	26.62
288.715	83.97
288.93	-26.62
289.145	51.2
289.36	45.06
289.575	-10.24
289.79	32.77
290.004	10.24
290.219	36.86
290.434	71.68
290.649	22.53
290.864	-18.43
291.079	-26.62
291.294	90.11
291.509	53.25
291.724	-4.1
291.938	43.01
292.153	38.91
292.368	69.63
292.583	43.01
292.798	-6.14
293.012	51.2
293.227	-2.05
293.442	86.01
293.657	10.24
293.871	20.48
294.086	20.48
294.301	18.43
294.516	-4.1
294.73	-57.34
294.945	43.01
295.16	69.63
295.374	28.67
295.589	67.58
295.804	153.6
296.018	63.49
296.233	-12.29
296.447	90.11
296.662	-10.24
296.877	61.44
297.091	57.34
297.306	36.86
297.52	-36.86
297.735	100.35
297.949	-14.34
298.164	8.19
298.378	0
298.593	45.06
298.807	14.34
299.022	43.01
299.236	6.14
299.451	18.43
299.665	2.05
299.88	38.91
300.094	16.38
300.309	-16.38
300.523	12.29
300.737	77.82
300.952	2.05
301.166	34.82
301.381	-22.53
301.595	28.67
301.809	53.25
302.024	86.01
302.238	10.24
302.452	-10.24
302.667	112.64
302.881	4.1
303.095	47.1
303.309	49.15
303.524	-22.53
303.738	92.16
303.952	-38.91
304.166	47.1
304.381	-4.1
304.595	51.2
304.809	20.48
305.023	8.19
305.237	0
305.452	43.01
305.666	-14.34
305.88	-20.48
306.094	36.86
306.308	57.34
306.522	90.11
306.736	34.82
306.95	0
307.164	10.24
307.379	36.86
307.593	26.62
307.807	10.24
308.021	2.05
308.235	43.01
308.449	53.25
308.663	6.14
308.877	45.06
309.091	10.24
309.305	16.38
309.519	77.82
309.733	92.16
309.947	-14.34
310.161	20.48
310.374	38.91
310.588	16.38
310.802	24.58
311.016	53.25
311.23	26.62
311.444	-4.1
311.658	-22.53
311.872	47.1
312.085	69.63
312.299	81.92
312.513	67.58
312.727	96.25
312.941	-8.19
313.154	34.82
313.368	100.35
313.582	2.05
313.796	53.25
314.009	96.25
314.223	34.82
314.437	77.82
314.651	43.01
314.864	67.58
315.078	73.73
315.292	16.38
315.505	14.34
315.719	53.25
315.933	-16.38
316.146	-14.34
316.36	6.14
316.573	53.25
316.787	34.82
317.001	151.55
317.214	24.58
317.428	69.63
317.641	20.48
317.855	32.77
318.068	32.77
318.282	38.91
318.495	14.34
318.709	77.82
318.922	67.58
319.136	61.44
319.349	55.3
319.563	69.63
319.776	118.78
319.99	26.62
320.203	18.43
320.417	38.91
320.63	8.19
320.843	6.14
321.057	59.39
321.27	2.05
321.483	32.77
321.697	24.58
321.91	-20.48
322.124	36.86
322.337	16.38
322.55	49.15
322.763	63.49
322.977	18.43
323.19	20.48
323.403	55.3
323.617	-26.62
323.83	18.43
324.043	40.96
324.256	14.34
324.469	-2.05
324.683	8.19
324.896	-2.05
325.109	61.44
325.322	34.82
325.535	40.96
325.748	-14.34
325.962	49.15
326.175	24.58
326.388	59.39
326.601	83.97
326.814	18.43
327.027	36.86
327.24	151.55
327.453	53.25
327.666	-28.67
327.879	-18.43
328.092	24.58
328.305	34.82
328.518	63.49
328.731	47.1
328.944	12.29
329.157	114.69
329.37	57.34
329.583	40.96
329.796	18.43
330.009	45.06
330.222	16.38
330.435	-16.38
330.648	94.21
330.861	69.63
331.073	43.01
331.286	94.21
331.499	32.77
331.712	61.44
331.925	22.53
332.138	57.34
332.35	47.1
332.563	-4.1
332.776	61.44
332.989	120.83
333.202	20.48
333.414	30.72
333.627	49.15
333.84	-51.2
334.053	75.77
334.265	51.2
334.478	45.06
334.691	24.58
334.903	-10.24
335.116	40.96
335.329	43.01
335.541	61.44
335.754	57.34
335.966	51.2
336.179	30.72
336.392	51.2
336.604	-2.05
336.817	108.54
337.029	47.1
337.242	83.97
337.454	86.01
337.667	59.39
337.88	94.21
338.092	59.39
338.305	63.49
338.517	79.87
338.729	106.49
338.942	47.1
339.154	26.62
339.367	-12.29
339.579	88.06
339.792	61.44
340.004	32.77
340.217	20.48
340.429	-14.34
340.641	-6.14
340.854	-55.3
341.066	24.58
341.278	67.58
341.491	24.58
341.703	-6.14
341.915	-40.96
342.128	22.53
342.34	22.53
342.552	51.2
342.764	67.58
342.977	114.69
343.189	-20.48
343.401	55.3
343.613	-24.58
343.826	26.62
344.038	65.54
344.25	32.77
344.462	55.3
344.674	38.91
344.886	30.72
345.099	104.45
345.311	47.1
345.523	71.68
345.735	34.82
345.947	38.91
346.159	55.3
346.371	6.14
346.583	-24.58
346.795	24.58
347.007	69.63
347.219	26.62
347.431	131.07
347.643	-40.96
347.855	10.24
348.067	-12.29
348.279	22.53
348.491	20.48
348.703	71.68
348.915	-20.48
349.127	14.34
349.339	49.15
349.551	12.29
349.763	32.77
349.975	6.14
350.187	55.3
350.399	34.82
350.61	57.34
350.822	79.87
351.034	14.34
351.246	-8.19
351.458	-36.86
351.669	47.1
351.881	49.15
352.093	-8.19
352.305	53.25
352.517	43.01
352.728	26.62
352.94	28.67
353.152	79.87
353.363	-6.14
353.575	98.3
353.787	36.86
353.999	45.06
354.21	36.86
354.422	32.77
354.633	102.4
354.845	65.54
355.057	16.38
355.268	8.19
355.48	49.15
355.692	8.19
355.903	51.2
356.115	26.62
356.326	47.1
356.538	92.16
356.749	43.01
356.961	55.3
357.172	24.58
357.384	20.48
357.595	34.82
357.807	24.58
358.018	-6.14
358.23	-16.38
358.441	88.06
358.653	77.82
358.864	-22.53
359.075	-2.05
359.287	10.24
359.498	16.38
359.709	10.24
359.921	61.44
360.132	71.68
360.344	24.58
360.555	26.62
360.766	2.05
360.977	112.64
361.189	51.2
361.4	81.92
361.611	51.2
361.823	-34.82
362.034	45.06
362.245	16.38
362.456	51.2
362.667	10.24
362.879	63.49
363.09	-59.39
363.301	61.44
363.512	14.34
363.723	36.86
363.935	40.96
364.146	61.44
364.357	43.01
364.568	-6.14
364.779	-10.24
364.99	135.17
365.201	104.45
365.412	-8.19
365.623	-2.05
365.834	22.53
366.045	59.39
366.256	147.45
366.467	28.67
366.678	51.2
366.889	69.63
367.1	28.67
367.311	49.15
367.522	-36.86
367.733	28.67
367.944	24.58
368.155	6.14
368.366	24.58
368.577	86.01
368.788	106.49
368.999	12.29
369.209	22.53
369.42	63.49
369.631	88.06
369.842	12.29
370.053	88.06
370.264	22.53
370.474	2.05
370.685	8.19
370.896	14.34
371.107	2.05
371.317	141.31
371.528	104.45
371.739	16.38
371.95	43.01
372.16	28.67
372.371	57.34
372.582	51.2
372.792	65.54
373.003	18.43
373.214	8.19
373.424	96.25
373.635	-4.1
373.846	61.44
374.056	22.53
374.267	-59.39
374.477	10.24
374.688	16.38
374.898	30.72
375.109	38.91
375.319	57.34
375.53	129.02
375.74	-49.15
375.951	59.39
376.161	32.77
376.372	32.77
376.582	30.72
376.793	18.43
377.003	16.38
377.214	65.54
377.424	10.24
377.635	112.64
377.845	0
378.055	-24.58
378.266	28.67
378.476	63.49
378.686	81.92
378.897	6.14
379.107	38.91
379.317	32.77
379.528	69.63
379.738	116.73
379.948	24.58
380.158	137.21
380.369	32.77
380.579	-10.24
380.789	96.25
380.999	81.92
381.21	40.96
381.42	59.39
381.63	71.68
381.84	55.3
382.05	20.48
382.261	-12.29
382.471	69.63
382.681	2.05
382.891	36.86
383.101	47.1
383.311	10.24
383.521	2.05
383.731	40.96
383.941	43.01
384.151	16.38
384.361	108.54
384.571	40.96
384.781	10.24
384.991	36.86
385.201	18.43
385.411	59.39
385.621	4.1
385.831	51.2
386.041	38.91
386.251	47.1
386.461	104.45
386.671	63.49
386.881	47.1
387.091	14.34
387.301	10.24
387.511	108.54
387.72	65.54
387.93	139.26
388.14	28.67
388.35	49.15
388.56	-18.43
388.769	10.24
388.979	22.53
389.189	61.44
389.399	86.01
389.609	161.79
389.818	28.67
390.028	18.43
390.238	22.53
390.447	14.34
390.657	22.53
390.867	43.01
391.076	98.3
391.286	59.39
391.496	98.3
391.705	63.49
391.915	120.83
392.125	116.73
392.334	79.87
392.544	71.68
392.753	53.25
392.963	59.39
393.172	102.4
393.382	79.87
393.591	83.97
393.801	57.34
394.01	100.35
394.22	61.44
394.429	6.14
394.639	40.96
394.848	102.4
395.058	61.44
395.267	26.62
395.477	61.44
395.686	116.73
395.895	112.64
396.105	104.45
396.314	38.91
396.524	69.63
396.733	59.39
396.942	28.67
397.152	104.45
397.361	81.92
397.57	94.21
397.78	92.16
397.989	73.73
398.198	28.67
398.407	49.15
398.617	45.06
398.826	137.21
399.035	57.34
399.244	45.06
399.453	-2.05
399.663	55.3
399.872	38.91
400.081	73.73
400.29	110.59
400.499	45.06
400.708	131.07
400.917	83.97
401.127	83.97
401.336	106.49
401.545	153.6
401.754	75.77
401.963	63.49
402.172	135.17
402.381	100.35
402.59	94.21
402.799	86.01
403.008	49.15
403.217	108.54
403.426	133.12
403.635	38.91
403.844	135.17
404.053	139.26
404.262	67.58
404.471	75.77
404.68	129.02
404.888	147.45
405.097	102.4
405.306	137.21
405.515	112.64
405.724	112.64
405.933	92.16
406.142	83.97
406.35	63.49
406.559	167.93
406.768	100.35
406.977	165.89
407.185	77.82
407.394	135.17
407.603	178.17
407.812	151.55
408.02	178.17
408.229	149.5
408.438	229.37
408.646	167.93
408.855	182.27
409.064	159.74
409.272	215.04
409.481	190.46
409.69	174.08
409.898	186.37
410.107	167.93
410.315	208.89
410.524	235.52
410.733	264.19
410.941	227.32
411.15	149.5
411.358	206.84
411.567	169.98
411.775	290.81
411.984	315.39
412.192	280.57
412.401	270.33
412.609	243.71
412.818	358.39
413.026	270.33
413.234	321.53
413.443	247.8
413.651	294.91
413.86	262.14
414.068	364.54
414.276	462.84
414.485	442.36
414.693	391.16
414.901	356.35
415.11	391.16
415.318	444.41
415.526	481.27
415.734	409.59
415.943	430.07
416.151	516.09
416.359	528.38
416.567	569.34
416.776	438.27
416.984	569.34
417.192	569.34
417.4	514.04
417.608	591.86
417.817	571.38
418.025	593.91
418.233	751.6
418.441	649.21
418.649	657.4
418.857	739.32
419.065	694.26
419.273	747.51
419.481	868.34
419.689	864.24
419.897	804.85
420.105	798.71
420.313	835.57
420.521	935.92
420.729	948.21
420.937	997.36
421.145	1015.79
421.353	1036.27
421.561	1073.14
421.769	1167.34
421.977	1193.97
422.185	1146.86
422.393	1177.58
422.601	1267.69
422.809	1320.94
423.017	1304.56
423.224	1454.06
423.432	1376.24
423.64	1411.05
423.848	1638.38
424.056	1511.4
424.263	1581.03
424.471	1601.51
424.679	1634.28
424.887	1712.1
425.094	1830.88
425.302	1802.21
425.51	1941.47
425.718	1816.55
425.925	1902.56
426.133	2025.44
426.341	2086.88
426.548	2152.42
426.756	2260.96
426.964	2250.72
427.171	2377.69
427.379	2455.51
427.586	2418.65
427.794	2545.63
428.001	2619.35
428.209	2738.13
428.417	2658.26
428.624	2924.5
428.832	2969.55
429.039	2879.44
429.247	3053.52
429.454	3225.55
429.662	3375.05
429.869	3104.72
430.076	3440.59
430.284	3270.61
430.491	3528.65
430.699	3661.77
430.906	3614.66
431.114	3669.96
431.321	3700.68
431.528	3846.09
431.736	4124.61
431.943	4337.6
432.15	4169.66
432.358	4349.89
432.565	4607.93
432.772	4519.87
432.979	4827.06
433.187	4917.17
433.394	4923.32
433.601	5146.55
433.808	5197.74
434.016	5220.27
434.223	5435.31
434.43	5656.49
434.637	5621.67
434.844	5867.43
435.052	6039.46
435.259	6072.23
435.466	6076.32
435.673	5912.49
435.88	6440.86
436.087	6811.54
436.294	6758.3
436.501	6588.32
436.708	6840.22
436.915	6915.99
437.122	7221.14
437.329	7206.8
437.537	7518.09
437.743	7735.18
437.95	7550.86
438.157	7995.27
438.364	8050.57
438.571	8165.25
438.778	8333.18
438.985	8853.37
439.192	8748.92
439.399	9152.37
439.606	8781.69
439.813	9277.3
440.02	9727.85
440.227	9529.2
440.433	9545.58
440.64	9820.01
440.847	9768.81
441.054	10061.67
441.261	10731.36
441.467	10391.39
441.674	10780.51
441.881	11093.85
442.088	11003.74
442.294	11042.65
442.501	11216.72
442.708	11659.09
442.914	11718.48
443.121	12527.42
443.328	12205.89
443.534	12916.54
443.741	12797.76
443.948	12271.43
444.154	13211.45
444.361	13213.49
444.568	13492.02
444.774	13346.61
444.981	13485.87
445.187	14026.54
445.394	14571.3
445.6	14288.68
445.807	15882
446.013	15073.05
446.22	15210.26
446.426	15884.05
446.633	15910.67
446.839	16723.71
447.046	15970.06
447.252	17028.86
447.459	16766.72
447.665	16875.26
447.871	17536.76
448.078	18265.83
448.284	17352.44
448.491	17925.87
448.697	18476.77
448.903	19130.08
449.11	18583.27
449.316	18611.94
449.522	19017.44
449.728	19412.7
449.935	19615.44
450.141	19459.8
450.347	20039.37
450.553	19021.53
450.76	19379.93
450.966	20223.69
451.172	19979.98
451.378	20383.43
451.584	19910.35
451.791	20577.99
451.997	20401.86
452.203	20897.47
452.409	20739.78
452.615	20532.93
452.821	19853.01
453.027	19578.58
453.233	20565.7
453.44	19562.2
453.646	20033.23
453.852	20219.6
454.058	20491.98
454.264	19492.57
454.47	20303.56
454.676	19865.3
454.882	20446.92
455.088	18544.36
455.294	18812.64
455.5	19095.26
455.705	19322.59
455.911	18468.58
456.117	18061.04
456.323	17753.84
456.529	16813.82
456.735	17540.85
456.941	17153.79
457.147	17178.36
457.352	16422.66
457.558	16193.29
457.764	16412.42
457.97	16219.91
458.176	15718.16
458.381	15658.77
458.587	14903.07
458.793	15134.49
458.999	14014.25
459.204	15083.29
459.41	14702.37
459.616	13834.03
459.821	13754.16
460.027	13766.45
460.233	13377.33
460.438	12879.68
460.644	12803.9
460.85	12193.61
461.055	12345.16
461.261	12250.95
461.466	11267.92
461.672	10973.02
461.878	11505.49
462.083	10815.32
462.289	10858.33
462.494	10612.57
462.7	10213.22
462.905	9961.32
463.111	10223.46
463.316	10391.39
463.522	9875.31
463.727	10004.33
463.932	10012.52
464.138	9824.11
464.343	9992.04
464.549	9688.94
464.754	10053.48
464.959	9938.79
465.165	9832.3
465.37	9389.94
465.575	9236.34
465.781	9510.77
465.986	9785.19
466.191	9275.25
466.397	9066.36
466.602	8697.72
466.807	9117.56
467.012	8916.86
467.218	8920.95
467.423	8959.86
467.628	8818.55
467.833	9209.72
468.038	8961.91
468.244	8613.76
468.449	9002.87
468.654	8753.02
468.859	8740.73
469.064	8660.86
469.269	8134.53
469.474	8402.82
469.679	8411.01
469.885	8193.92
470.09	8124.29
470.295	8296.32
470.5	8339.33
470.705	7995.27
470.91	8095.62
471.115	7874.44
471.32	7903.11
471.525	7939.97
471.73	7706.51
471.935	7645.07
472.139	7507.85
472.344	7593.87
472.549	7362.45
472.754	7380.88
472.959	7182.23
473.164	7163.79
473.369	6940.57
473.574	7268.24
473.778	7161.75
473.983	7214.99
474.188	7100.31
474.393	6926.23
474.598	6750.11
474.802	6844.31
475.007	6696.86
475.212	6746.01
475.417	6424.48
475.621	6479.77
475.826	6537.12
476.031	6317.98
476.235	6227.87
476.44	6397.85
476.645	6231.97
476.849	6274.98
477.054	6055.84
477.259	6119.33
477.463	5982.12
477.668	6021.03
477.872	6045.6
478.077	6016.93
478.282	5691.31
478.486	5584.81
478.691	5810.09
478.895	5767.08
479.1	5613.48
479.304	5668.78
479.509	5595.05
479.713	5556.14
479.918	5410.73
480.122	5441.45
480.326	5457.84
480.531	5390.25
480.735	5431.21
480.94	5468.08
481.144	5433.26
481.348	5275.57
481.553	5273.52
481.757	5146.55
481.961	5263.28
482.166	5373.87
482.37	5281.71
482.574	5210.03
482.778	5298.1
482.983	5365.68
483.187	5083.06
483.391	5242.8
483.595	5228.46
483.8	5246.9
484.004	5273.52
484.208	5384.11
484.412	5287.86
484.616	5226.42
484.821	5257.14
485.025	5103.54
485.229	5277.62
485.433	5189.55
485.637	5162.93
485.841	5261.23
486.045	5287.86
486.249	5199.79
486.453	5191.6
486.657	5203.89
486.861	5291.95
487.065	5128.11
487.269	5345.2
487.473	5234.61
487.677	5265.33
487.881	5244.85
488.085	5396.4
488.289	5255.09
488.493	5392.3
488.697	5324.72
488.901	5320.62
489.105	5224.37
489.309	5390.25
489.512	5248.94
489.716	5476.27
489.92	5250.99
490.124	5195.7
490.328	5343.15
490.531	5277.62
490.735	5498.8
490.939	5369.77
491.143	5441.45
491.346	5447.6
491.55	5554.09
491.754	5466.03
491.958	5433.26
492.161	5558.19
492.365	5605.29
492.569	5498.8
492.772	5656.49
492.976	5736.36
493.18	5586.86
493.383	5756.84
493.587	5797.8
493.79	5986.21
493.994	5640.11
494.197	5762.98
494.401	5836.71
494.605	5851.05
494.808	5980.07
495.012	5918.63
495.215	6033.32
495.419	6199.2
495.622	6135.71
495.825	6180.77
496.029	6117.28
496.232	6336.42
496.436	6332.32
496.639	6573.98
496.843	6465.44
497.046	6518.68
497.249	6727.58
497.453	6686.62
497.656	6786.97
497.859	6629.27
498.063	6862.74
498.266	6950.81
498.469	6846.36
498.673	7004.05
498.876	7036.82
499.079	7190.42
499.282	7313.3
499.485	7503.76
499.689	7419.79
499.892	7595.92
500.095	7735.18
500.298	7743.37
500.501	7784.33
500.705	7847.82
500.908	8023.94
501.111	7927.69
501.314	8257.41
501.517	8249.22
501.72	8466.3
501.923	8429.44
502.126	8642.43
502.329	8728.44
502.532	8658.81
502.735	8886.14
502.938	8982.39
503.141	9099.13
503.344	9260.91
503.547	9363.31
503.75	9361.27
503.953	9590.64
504.156	9717.61
504.359	9707.37
504.562	9901.93
504.765	10121.06
504.968	10272.61
505.17	10454.88
505.373	10311.52
505.576	10426.21
505.779	10518.37
505.982	10710.88
506.185	11011.93
506.387	10979.16
506.59	11036.5
506.793	11263.83
506.996	11437.91
507.198	11550.54
507.401	11626.32
507.604	11745.1
507.807	12166.98
508.009	12113.74
508.212	12148.55
508.415	12504.9
508.617	12629.82
508.82	12592.96
509.022	12982.07
509.225	13174.58
509.428	13158.2
509.63	13336.37
509.833	13510.45
510.035	13893.42
510.238	13590.32
510.44	13664.05
510.643	14122.79
510.845	14262.05
511.048	14229.29
511.25	14632.74
511.453	14552.87
511.655	15132.44
511.858	15167.26
512.06	15157.02
512.262	15632.15
512.465	15671.06
512.667	15896.33
512.87	15937.29
513.072	16117.51
513.274	16529.16
513.477	16523.01
513.679	16664.32
513.881	16996.09
514.084	17172.22
514.286	17260.28
514.488	17495.8
514.69	17968.88
514.893	17792.75
515.095	17966.83
515.297	18417.38
515.499	18380.52
515.701	18601.7
515.904	18628.32
516.106	19113.69
516.308	19234.52
516.51	19650.26
516.712	19476.18
516.914	19834.58
517.116	20100.81
517.318	20139.72
517.52	20553.41
517.722	20698.82
517.925	21087.93
518.127	21180.09
518.329	21485.24
518.531	21464.76
518.733	21878.45
518.935	22109.87
519.136	22089.39
519.338	22711.97
519.54	22574.76
519.742	22779.56
519.944	22861.48
520.146	23547.54
520.348	23465.63
520.55	23684.76
520.752	23961.23
520.954	24305.29
521.155	24225.42
521.357	24788.61
521.559	24606.34
521.761	24989.31
521.963	25251.45
522.164	25636.47
522.366	25552.51
522.568	25915
522.77	25970.29
522.971	26531.44
523.173	26261.1
523.375	26777.19
523.576	26801.77
523.778	26963.56
523.98	27102.82
524.181	27313.76
524.383	27350.62
524.584	27747.93
524.786	27807.32
524.988	27760.22
525.189	28012.12
525.391	28407.37
525.592	28571.21
525.794	28681.8
525.995	28769.86
526.197	28706.38
526.398	28978.76
526.6	29333.06
526.801	29484.61
527.003	29247.04
527.204	29484.61
527.406	30170.68
527.607	29935.16
527.808	30094.9
528.01	29773.37
528.211	30105.14
528.412	30731.82
528.614	30109.24
528.815	30588.46
529.016	30998.05
529.218	30602.8
529.419	30799.4
529.62	30924.33
529.822	30785.07
530.023	31067.69
530.224	31073.83
530.425	31202.85
530.626	31008.29
530.828	31309.35
531.029	31542.81
531.23	31063.59
531.431	31262.24
531.632	31391.26
531.833	31901.21
532.035	31614.49
532.236	31874.59
532.437	31907.35
532.638	31624.73
532.839	32169.49
533.04	31786.52
533.241	31594.01
533.442	32480.78
533.643	32063
533.844	31663.64
534.045	32071.19
534.246	31575.58
534.447	32298.52
534.648	31841.82
534.849	32325.14
535.05	31872.54
535.251	32042.52
535.451	32130.58
535.652	32249.36
535.853	32042.52
536.054	32333.33
536.255	32337.43
536.456	31882.78
536.657	32730.64
536.857	32187.92
537.058	32441.87
537.259	32593.42
537.46	32450.06
537.66	32095.77
537.861	32296.47
538.062	32185.88
538.263	32175.64
538.463	31995.42
538.664	32202.26
538.865	32235.03
539.065	32318.99
539.266	32112.15
539.466	32556.56
539.667	31874.59
539.868	32556.56
540.068	32351.76
540.269	32304.66
540.469	32529.94
540.67	32302.61
540.87	32294.42
541.071	32173.59
541.271	32546.32
541.472	32413.2
541.672	32534.03
541.873	32058.9
542.073	32009.75
542.274	32712.2
542.474	32466.45
542.675	32134.68
542.875	32548.37
543.075	32513.55
543.276	32030.23
543.476	32278.04
543.676	32110.1
543.877	32251.41
544.077	32222.74
544.277	32386.58
544.478	32063
544.678	32165.4
544.878	32433.68
545.078	32787.98
545.279	32288.28
545.479	32052.76
545.679	32564.75
545.879	32382.48
546.079	32097.81
546.28	31850.01
546.48	32034.33
546.68	32130.58
546.88	32421.39
547.08	32353.81
547.28	32089.62
547.48	31761.95
547.68	32153.11
547.88	31886.87
548.081	32253.46
548.281	32474.64
548.481	31850.01
548.681	32409.11
548.881	32259.6
549.081	31753.76
549.28	32232.98
549.48	32228.88
549.68	31796.76
549.88	32157.21
550.08	31823.39
550.28	31839.77
550.48	32089.62
550.68	32327.19
550.88	32003.61
551.08	32161.3
551.279	32030.23
551.479	31757.85
551.679	32101.91
551.879	31962.65
552.079	32093.72
552.278	32067.09
552.478	32075.29
552.678	32228.88
552.878	32202.26
553.077	31972.89
553.277	31727.13
553.477	32296.47
553.676	31733.28
553.876	31856.15
554.076	31585.82
554.275	31815.19
554.475	31381.03
554.674	32024.09
554.874	32218.64
555.074	31778.33
555.273	31979.03
555.473	32232.98
555.672	31620.64
555.872	31677.98
556.071	31737.37
556.271	31575.58
556.47	31555.1
556.67	31213.09
556.869	31491.62
557.068	31706.65
557.268	31321.63
557.467	31346.21
557.667	31735.32
557.866	31489.57
558.065	31118.89
558.265	30916.14
558.464	31079.97
558.663	31348.26
558.863	30373.42
559.062	31206.95
559.261	31016.49
559.461	31127.08
559.66	30918.18
559.859	31235.62
560.058	30588.46
560.258	30809.64
560.457	30567.98
560.656	30789.16
560.855	30248.5
561.054	30811.69
561.253	30268.98
561.453	30465.58
561.652	30346.8
561.851	30815.79
562.05	30346.8
562.249	30068.28
562.448	30381.62
562.647	30490.16
562.846	30451.25
563.045	30404.14
563.244	29904.44
563.443	30074.42
563.642	29580.86
563.841	30084.66
564.04	30017.08
564.239	29765.18
564.438	29394.5
564.637	29974.07
564.836	30031.41
565.035	29527.61
565.234	29496.89
565.432	29462.08
565.631	29288
565.83	29578.81
566.029	29222.47
566.228	29371.97
566.427	28847.69
566.625	29249.09
566.824	28966.47
567.023	29032
567.222	28438.09
567.42	29126.21
567.619	28597.84
567.818	28655.18
568.016	28563.02
568.215	28825.16
568.414	28620.36
568.612	28587.6
568.811	28266.06
569.01	28745.29
569.208	28233.3
569.407	28390.99
569.605	28083.8
569.804	28003.92
570.002	27344.48
570.201	28055.12
570.4	27870.81
570.598	27688.54
570.797	27661.91
570.995	27598.43
571.193	27582.04
571.392	27678.3
571.59	27338.33
571.789	27340.38
571.987	27135.59
572.186	26912.36
572.384	26750.57
572.582	27141.73
572.781	26895.97
572.979	26572.39
573.177	26902.12
573.376	26910.31
573.574	26846.82
573.772	26738.28
573.971	26228.34
574.169	26193.52
574.367	26218.1
574.565	26017.39
574.763	25927.28
574.962	25659
575.16	25669.24
575.358	25822.84
575.556	25640.57
575.754	25996.92
575.952	25423.48
576.151	25661.05
576.349	25527.93
576.547	25417.34
576.745	25482.88
576.943	25050.75
577.141	25290.37
577.339	25273.98
577.537	24944.26
577.735	24999.55
577.933	24860.29
578.131	24667.78
578.329	24751.75
578.527	24163.98
578.725	24649.35
578.923	24569.48
579.121	24669.83
579.319	24313.48
579.516	24780.42
579.714	24528.52
579.912	23994
580.11	24139.41
580.308	24192.65
580.506	24127.12
580.704	23789.2
580.901	23592.6
581.099	23953.04
581.297	23416.47
581.495	23539.35
581.692	23545.5
581.89	23623.32
582.088	23309.98
582.285	23205.53
582.483	23312.03
582.681	23375.52
582.878	23178.91
583.076	22793.89
583.274	23330.46
583.471	22726.31
583.669	22642.34
583.866	22468.27
584.064	22857.38
584.262	22271.66
584.459	22881.95
584.657	22546.09
584.854	22845.09
585.052	22353.58
585.249	22421.16
585.447	22384.3
585.644	22165.17
585.841	22173.36
586.039	22283.95
586.236	21681.85
586.434	21735.09
586.631	21692.08
586.828	21790.39
587.026	21872.31
587.223	21774
587.42	21335.74
587.618	21540.54
587.815	21151.42
588.012	21149.37
588.21	21159.61
588.407	21550.78
588.604	21163.71
588.801	21044.93
588.999	21014.21
589.196	20999.87
589.393	20893.38
589.59	21184.19
589.787	20573.89
589.984	20713.16
590.182	20850.37
590.379	20819.65
590.576	20270.79
590.773	20639.43
590.97	20119.24
591.167	20575.94
591.364	20192.97
591.561	20209.36
591.758	20358.86
591.955	20025.04
592.152	19816.15
592.349	20027.09
592.546	19957.46
592.743	20080.33
592.94	19736.27
593.137	19637.97
593.334	20252.36
593.531	19531.48
593.727	19963.6
593.924	19549.91
594.121	19537.62
594.318	19652.31
594.515	19547.86
594.712	19474.13
594.908	19111.64
595.105	19521.24
595.302	19007.2
595.499	19361.5
595.696	18771.68
595.892	18857.7
596.089	18730.72
596.286	18865.89
596.482	19095.26
596.679	18589.41
596.876	18665.19
597.072	18583.27
597.269	18652.9
597.466	18558.69
597.662	18536.17
597.859	18558.69
598.055	18525.93
598.252	18128.62
598.448	18185.96
598.645	18343.66
598.841	17999.6
599.038	18441.96
599.234	18095.85
599.431	17815.28
599.627	17637.11
599.824	17850.1
600.02	17645.3
600.217	17850.1
600.413	17745.65
600.609	17671.92
600.806	17637.11
601.002	17544.95
601.198	17499.89
601.395	17563.38
601.591	17338.1
601.787	17364.73
601.984	17284.86
602.18	17266.42
602.376	17139.45
602.572	17022.72
602.769	17233.66
602.965	16813.82
603.161	16787.2
603.357	16889.6
603.553	16590.59
603.75	16731.9
603.946	16338.69
604.142	16654.08
604.338	16658.18
604.534	16473.86
604.73	16437
604.926	16459.52
605.122	16432.9
605.318	16350.98
605.514	16189.19
605.71	16162.57
605.906	16058.12
606.102	16215.82
606.298	16035.6
606.494	15795.98
606.69	16037.64
606.886	15965.96
607.082	15640.34
607.278	15869.71
607.474	15642.39
607.67	15898.38
607.866	15509.27
608.062	15748.88
608.257	15544.08
608.453	15494.93
608.649	15552.27
608.845	15427.35
609.041	15245.08
609.236	15263.51
609.432	15333.14
609.628	15376.15
609.824	15114.01
610.019	14980.89
610.215	15116.06
610.411	15159.06
610.606	15011.61
610.802	15099.67
610.998	14786.33
611.193	15087.39
611.389	14765.85
611.584	14776.09
611.78	14661.41
611.976	14894.88
612.171	14937.88
612.367	14604.07
612.562	14561.06
612.758	14386.98
612.953	14335.78
613.149	14694.18
613.344	14575.39
613.539	14466.85
613.735	14227.24
613.93	14231.33
614.126	14112.55
614.321	14200.62
614.517	14147.37
614.712	14475.04
614.907	14294.82
615.103	14350.12
615.298	14057.26
615.493	14153.51
615.688	13952.81
615.884	13946.67
616.079	13772.59
616.274	13971.24
616.47	13862.7
616.665	13866.8
616.86	13668.14
617.055	13750.06
617.25	13696.81
617.445	13731.63
617.641	13563.7
617.836	13375.28
618.031	13477.68
618.226	13299.51
618.421	13453.11
618.616	13598.51
618.811	13256.5
619.006	13391.67
619.201	13254.45
619.396	13520.69
619.591	12984.12
619.786	13172.53
619.981	13039.42
620.176	13059.9
620.371	12967.74
620.566	12658.49
620.761	12943.16
620.956	12715.84
621.151	12613.44
621.346	12678.97
621.541	12400.45
621.735	12562.24
621.93	12382.02
622.125	12373.83
622.32	12015.43
622.515	12263.24
622.709	12097.35
622.904	12068.68
623.099	12044.1
623.294	12109.64
623.488	11640.65
623.683	11978.57
623.878	11882.31
624.072	11738.96
624.267	11855.69
624.462	11642.7
624.656	11437.91
624.851	11609.93
625.046	11480.91
625.24	11550.54
625.435	11386.71
625.629	11229.01
625.824	10958.68
626.018	11018.07
626.213	10993.5
626.407	10960.73
626.602	10899.29
626.796	10737.5
626.991	10878.81
627.185	10962.78
627.38	10700.64
627.574	10571.61
627.768	10622.81
627.963	10581.85
628.157	10358.63
628.352	10334.05
628.546	10225.51
628.74	10446.69
628.935	10024.81
629.129	10143.59
629.323	9901.93
629.517	9940.84
629.712	9897.83
629.906	10006.38
630.1	9758.57
630.294	9901.93
630.489	9686.89
630.683	9674.6
630.877	9541.49
631.071	9490.29
631.265	9752.43
631.459	9752.43
631.653	9496.43
631.848	9500.53
632.042	9426.8
632.236	9453.42
632.43	9121.65
632.624	9424.75
632.818	9082.74
633.012	9295.73
633.206	9156.47
633.4	9060.21
633.594	9176.95
633.788	8925.05
633.982	9133.94
634.176	9041.78
634.369	8763.26
634.563	8972.15
634.757	8884.09
634.951	8738.68
635.145	8593.28
635.339	8392.58
635.533	8578.94
635.726	8777.59
635.92	8464.25
636.114	8345.47
636.308	8529.79
636.501	8243.07
636.695	8347.52
636.889	8167.3
637.083	8183.68
637.276	8161.16
637.47	8259.46
637.664	8003.46
637.857	8120.2
638.051	8167.3
638.244	7970.69
638.438	7886.73
638.632	7847.82
638.825	7868.3
639.019	7673.74
639.212	7706.51
639.406	7729.03
639.599	7573.39
639.793	7509.9
639.986	7395.22
640.18	7282.58
640.373	7311.25
640.567	7323.54
640.76	7489.42
640.954	7339.92
641.147	7229.33
641.34	7174.03
641.534	7307.15
641.727	7004.05
641.92	7038.87
642.114	7210.9
642.307	7042.96
642.5	6940.57
642.694	6881.18
642.887	6852.5
643.08	6901.65
643.273	6932.37
643.467	6682.52
643.66	6659.99
643.853	6604.7
644.046	6512.54
644.239	6631.32
644.432	6668.19
644.626	6313.89
644.819	6561.69
645.012	6412.19
645.205	6412.19
645.398	6350.75
645.591	6453.15
645.784	6174.63
645.977	6076.32
646.17	6133.67
646.363	6135.71
646.556	5984.16
646.749	6168.48
646.942	6109.09
647.135	6035.36
647.328	5894.05
647.521	5918.63
647.714	5701.55
647.907	5881.77
648.099	5783.46
648.292	5734.31
648.485	5838.76
648.678	5601.19
648.871	5537.71
649.064	5578.67
649.256	5656.49
649.449	5468.08
649.642	5552.04
649.835	5517.23
650.027	5588.91
650.22	5371.82
650.413	5394.35
650.605	5382.06
650.798	5236.66
650.991	5175.22
651.183	5273.52
651.376	5257.14
651.568	5134.26
651.761	5232.56
651.954	5113.78
652.146	5052.34
652.339	4931.51
652.531	5091.25
652.724	4966.32
652.916	5021.62
653.109	4777.91
653.301	5003.19
653.494	5023.67
653.686	4886.45
653.879	4769.72
654.071	4843.45
654.263	4732.86
654.456	4837.3
654.648	4726.71
654.84	4679.61
655.033	4685.75
655.225	4763.58
655.417	4667.32
655.61	4485.05
655.802	4542.39
655.994	4493.24
656.186	4622.27
656.379	4501.44
656.571	4425.66
656.763	4415.42
656.955	4306.88
657.148	4403.13
657.34	4417.47
657.532	4120.51
657.724	4310.97
657.916	4272.06
658.108	4257.73
658.3	4102.08
658.492	4216.77
658.684	4259.78
658.876	4147.14
659.068	3936.2
659.26	4200.38
659.452	4214.72
659.644	4069.31
659.836	4171.71
660.028	3973.06
660.22	4020.16
660.412	3966.92
660.604	3923.91
660.796	3907.52
660.988	3854.28
661.18	3803.08
661.372	3815.37
661.563	3946.44
661.755	3749.83
661.947	3721.16
662.139	3696.58
662.331	3690.44
662.522	3516.36
662.714	3610.57
662.906	3567.56
663.097	3655.62
663.289	3622.86
663.481	3626.95
663.673	3573.71
663.864	3516.36
664.056	3440.59
664.247	3508.17
664.439	3475.4
664.631	3459.02
664.822	3436.49
665.014	3356.62
665.205	3422.16
665.397	3416.01
665.588	3389.39
665.78	3184.59
665.971	3295.18
666.163	3231.69
666.354	3297.23
666.546	3225.55
666.737	3325.9
666.929	3231.69
667.12	3198.93
667.311	3305.42
667.503	3000.27
667.694	3192.78
667.885	3196.88
668.077	3170.26
668.268	3112.91
668.459	3088.34
668.651	2975.7
668.842	3059.67
669.033	3047.38
669.224	3026.9
669.416	2987.99
669.607	3053.52
669.798	2889.68
669.989	2994.13
670.18	2936.79
670.371	2983.89
670.563	2951.12
670.754	2932.69
670.945	3016.66
671.136	2844.63
671.327	2965.46
671.518	2879.44
671.709	2875.35
671.9	2834.39
672.091	2844.63
672.282	2764.76
672.473	2797.53
672.664	2779.09
672.855	2795.48
673.046	2869.2
673.237	2701.27
673.428	2772.95
673.619	2783.19
673.809	2648.02
674	2815.96
674.191	2750.42
674.382	2750.42
674.573	2750.42
674.764	2725.85
674.954	2639.83
675.145	2672.6
675.336	2570.2
675.527	2619.35
675.717	2762.71
675.908	2693.08
676.099	2662.36
676.289	2666.46
676.48	2621.4
676.671	2559.96
676.861	2539.48
677.052	2611.16
677.243	2641.88
677.433	2564.06
677.624	2658.26
677.814	2602.97
678.005	2525.15
678.195	2482.14
678.386	2422.75
678.576	2576.34
678.767	2443.23
678.957	2668.5
679.148	2539.48
679.338	2562.01
679.529	2594.78
679.719	2445.27
679.909	2451.42
680.1	2502.62
680.29	2519
680.481	2453.47
680.671	2508.76
680.861	2510.81
681.052	2525.15
681.242	2537.43
681.432	2539.48
681.622	2400.22
681.813	2496.47
682.003	2418.65
682.193	2453.47
682.383	2379.74
682.573	2465.75
682.764	2410.46
682.954	2408.41
683.144	2357.21
683.334	2435.03
683.524	2383.84
683.714	2473.95
683.904	2410.46
684.094	2463.71
684.284	2240.48
684.474	2473.95
684.664	2385.88
684.854	2387.93
685.044	2287.58
685.234	2375.64
685.424	2375.64
685.614	2445.27
685.804	2439.13
685.994	2320.35
686.184	2400.22
686.374	2308.06
686.564	2412.51
686.753	2342.88
686.943	2377.69
687.133	2475.99
687.323	2338.78
687.513	2426.84
687.702	2344.92
687.892	2340.83
688.082	2363.36
688.272	2357.21
688.461	2316.25
688.651	2316.25
688.841	2363.36
689.03	2287.58
689.22	2340.83
689.41	2230.24
689.599	2285.53
689.789	2213.85
689.979	2285.53
690.168	2297.82
690.358	2140.13
690.547	2246.62
690.737	2209.76
690.926	2224.09
691.116	2209.76
691.305	2291.68
691.495	2340.83
691.684	2279.39
691.874	2185.18
692.063	2281.44
692.252	2205.66
692.442	2230.24
692.631	2285.53
692.82	2187.23
693.01	2285.53
693.199	2158.56
693.388	2244.57
693.578	2303.96
693.767	2295.77
693.956	2258.91
694.146	2316.25
694.335	2230.24
694.524	2328.54
694.713	2301.92
694.902	2269.15
695.092	2312.16
695.281	2236.38
695.47	2301.92
695.659	2312.16
695.848	2267.1
696.037	2314.2
696.226	2230.24
696.415	2330.59
696.604	2273.25
696.793	2355.16
696.982	2201.57
697.171	2430.94
697.36	2306.01
697.549	2252.77
697.738	2267.1
697.927	2189.28
698.116	2269.15
698.305	2338.78
698.494	2242.53
698.683	2222.05
698.872	2217.95
699.061	2138.08
699.25	2236.38
699.438	2256.86
699.627	2398.17
699.816	2179.04
700.005	2306.01
700.193	2289.63
700.382	2289.63
700.571	2238.43
700.76	2189.28
700.948	2330.59
701.137	2275.29
701.326	2172.89
701.514	2246.62
701.703	2336.73
701.892	2314.2
702.08	2246.62
702.269	2342.88
702.457	2174.94
702.646	2275.29
702.834	2189.28
703.023	2193.37
703.212	2195.42
703.4	2234.33
703.589	2244.57
703.777	2269.15
703.965	2170.85
704.154	2193.37
704.342	2248.67
704.531	2232.29
704.719	2211.81
704.907	2158.56
705.096	2140.13
705.284	2271.2
705.472	2185.18
705.661	2228.19
705.849	2140.13
706.037	2195.42
706.226	2154.46
706.414	2168.8
706.602	2222.05
706.79	2123.74
706.979	2136.03
707.167	2080.74
707.355	2148.32
707.543	2183.13
707.731	2166.75
707.919	2146.27
708.107	2058.21
708.296	2103.26
708.484	1992.67
708.672	2074.59
708.86	2123.74
709.048	2000.87
709.236	2082.78
709.424	1988.58
709.612	2070.5
709.8	1970.15
709.988	1941.47
710.176	2041.82
710.364	2095.07
710.551	2023.39
710.739	2021.35
710.927	2047.97
711.115	2023.39
711.303	1945.57
711.491	1992.67
711.679	1964
711.866	1966.05
712.054	2099.17
712.242	1937.38
712.43	1933.28
712.617	1996.77
712.805	1929.19
712.993	1880.04
713.181	1935.33
713.368	1894.37
713.556	1961.95
713.744	1867.75
713.931	1830.88
714.119	1888.23
714.306	1982.43
714.494	1832.93
714.682	1902.56
714.869	1918.95
715.057	1894.37
715.244	1808.36
715.432	1824.74
715.619	1820.64
715.807	1789.92
715.994	1851.36
716.182	1753.06
716.369	1761.25
716.556	1800.16
716.744	1785.83
716.931	1812.45
717.119	1755.11
717.306	1699.81
717.493	1753.06
717.681	1787.88
717.868	1806.31
718.055	1720.29
718.242	1740.77
718.43	1777.64
718.617	1708.01
718.804	1693.67
718.991	1761.25
719.179	1820.64
719.366	1757.16
719.553	1716.2
719.74	1767.4
719.927	1714.15
720.114	1578.98
720.301	1757.16
720.488	1652.71
720.676	1650.66
720.863	1687.53
721.05	1714.15
721.237	1660.9
721.424	1656.81
721.611	1552.36
721.798	1636.33
721.985	1585.13
722.172	1542.12
722.358	1583.08
722.545	1648.61
722.732	1538.02
722.919	1562.6
723.106	1548.26
723.293	1617.9
723.48	1482.73
723.667	1572.84
723.853	1574.89
724.04	1560.55
724.227	1626.09
724.414	1585.13
724.6	1593.32
724.787	1466.35
724.974	1511.4
725.161	1517.54
725.347	1613.8
725.534	1445.87
725.72	1505.26
725.907	1548.26
726.094	1501.16
726.28	1482.73
726.467	1499.11
726.653	1542.12
726.84	1511.4
727.027	1402.86
727.213	1468.39
727.4	1460.2
727.586	1480.68
727.773	1433.58
727.959	1454.06
728.145	1441.77
728.332	1431.53
728.518	1492.97
728.705	1427.43
728.891	1468.39
729.077	1382.38
729.264	1366
729.45	1363.95
729.636	1411.05
729.823	1425.39
730.009	1492.97
730.195	1425.39
730.382	1402.86
730.568	1429.48
730.754	1439.72
730.94	1449.96
731.126	1415.15
731.313	1341.42
731.499	1392.62
731.685	1331.18
731.871	1327.08
732.057	1441.77
732.243	1355.76
732.429	1269.74
732.615	1312.75
732.801	1302.51
732.987	1273.84
733.173	1279.98
733.359	1388.52
733.545	1259.5
733.731	1327.08
733.917	1366
734.103	1368.04
734.289	1458.15
734.475	1263.6
734.661	1374.19
734.847	1300.46
735.033	1310.7
735.219	1282.03
735.404	1228.78
735.59	1320.94
735.776	1292.27
735.962	1251.31
736.148	1282.03
736.333	1216.49
736.519	1224.69
736.705	1329.13
736.89	1265.64
737.076	1277.93
737.262	1132.53
737.447	1273.84
737.633	1271.79
737.819	1210.35
738.004	1142.77
738.19	1214.45
738.375	1232.88
738.561	1288.17
738.747	1222.64
738.932	1126.38
739.118	1243.12
739.303	1251.31
739.489	1232.88
739.674	1155.05
739.859	1204.21
740.045	1226.73
740.23	1181.68
740.416	1103.86
740.601	1132.53
740.786	1144.81
740.972	1206.25
741.157	1128.43
741.342	1153.01
741.528	1138.67
741.713	1118.19
741.898	1101.81
742.084	1134.57
742.269	1122.29
742.454	1101.81
742.639	1120.24
742.824	1114.1
743.01	1054.7
743.195	1079.28
743.38	1214.45
743.565	1105.9
743.75	1155.05
743.935	1083.38
744.12	1058.8
744.305	1120.24
744.49	1089.52
744.675	1099.76
744.86	1140.72
745.045	1040.37
745.23	927.73
745.415	1062.9
745.6	1054.7
745.785	1079.28
745.97	1075.18
746.155	1048.56
746.34	962.55
746.525	987.12
746.71	1011.7
746.895	907.25
747.079	964.59
747.264	935.92
747.449	1009.65
747.634	1013.74
747.819	974.83
748.003	933.87
748.188	1001.46
748.373	942.07
748.557	935.92
748.742	921.59
748.927	860.15
749.111	923.63
749.296	960.5
749.481	923.63
749.665	907.25
749.85	860.15
750.034	899.06
750.219	933.87
750.404	839.67
750.588	917.49
750.773	815.09
750.957	921.59
751.141	860.15
751.326	845.81
751.51	825.33
751.695	897.01
751.879	749.56
752.064	874.48
752.248	817.14
752.432	839.67
752.617	811
752.801	753.65
752.985	864.24
753.17	772.08
753.354	808.95
753.538	794.61
753.722	722.93
753.907	757.75
754.091	735.22
754.275	778.23
754.459	788.47
754.643	716.79
754.828	751.6
755.012	739.32
755.196	757.75
755.38	716.79
755.564	686.07
755.748	796.66
755.932	767.99
756.116	696.31
756.3	690.17
756.484	714.74
756.668	692.21
756.852	669.69
757.036	653.3
757.22	737.27
757.404	634.87
757.588	677.88
757.772	753.65
757.956	706.55
758.14	782.32
758.323	624.63
758.507	704.5
758.691	618.49
758.875	698.36
759.059	616.44
759.242	550.9
759.426	608.25
759.61	686.07
759.794	626.68
759.977	567.29
760.161	720.89
760.345	571.38
760.528	608.25
760.712	579.58
760.895	575.48
761.079	532.47
761.263	647.16
761.446	663.54
761.63	536.57
761.813	516.09
761.997	585.72
762.18	565.24
762.364	595.96
762.547	614.39
762.731	643.06
762.914	534.52
763.098	540.66
763.281	602.1
763.464	591.86
763.648	587.77
763.831	595.96
764.015	589.82
764.198	573.43
764.381	542.71
764.564	585.72
764.748	505.85
764.931	571.38
765.114	514.04
765.297	542.71
765.481	565.24
765.664	524.28
765.847	565.24
766.03	532.47
766.213	565.24
766.397	559.1
766.58	495.61
766.763	552.95
766.946	557.05
767.129	495.61
767.312	524.28
767.495	542.71
767.678	479.22
767.861	524.28
768.044	514.04
768.227	546.81
768.41	524.28
768.593	552.95
768.776	575.48
768.959	567.29
769.142	505.85
769.324	532.47
769.507	505.85
769.69	511.99
769.873	542.71
770.056	534.52
770.239	534.52
770.421	522.23
770.604	550.9
770.787	493.56
770.97	509.94
771.152	526.33
771.335	546.81
771.518	442.36
771.7	491.51
771.883	495.61
772.066	497.66
772.248	438.27
772.431	524.28
772.613	425.98
772.796	454.65
772.978	450.55
773.161	417.79
773.343	444.41
773.526	448.51
773.708	438.27
773.891	432.12
774.073	487.42
774.256	522.23
774.438	456.7
774.621	487.42
774.803	509.94
774.985	358.39
775.168	477.18
775.35	452.6
775.532	483.32
775.715	495.61
775.897	354.3
776.079	411.64
776.261	362.49
776.444	452.6
776.626	421.88
776.808	544.76
776.99	454.65
777.173	350.2
777.355	456.7
777.537	311.29
777.719	442.36
777.901	385.02
778.083	368.63
778.265	344.06
778.447	346.11
778.629	393.21
778.811	460.79
778.993	382.97
779.175	342.01
779.357	382.97
779.539	370.68
779.721	319.48
779.903	368.63
780.085	325.63
780.267	356.35
780.449	391.16
780.631	423.93
780.812	278.52
780.994	368.63
781.176	342.01
781.358	309.24
781.54	401.4
781.721	387.07
781.903	311.29
782.085	278.52
782.267	339.96
782.448	335.87
782.63	368.63
782.812	327.68
782.993	301.05
783.175	329.72
783.357	358.39
783.538	342.01
783.72	368.63
783.901	366.59
784.083	325.63
784.264	299
784.446	325.63
784.627	256
784.809	286.72
784.99	247.8
785.172	258.04
785.353	276.48
785.535	235.52
785.716	270.33
785.897	278.52
786.079	221.18
786.26	292.86
786.441	307.2
786.623	296.96
786.804	256
786.985	169.98
787.167	288.76
787.348	215.04
787.529	233.47
787.71	272.38
787.891	256
788.073	266.24
788.254	227.32
788.435	235.52
788.616	221.18
788.797	149.5
788.978	212.99
789.159	251.9
789.34	292.86
789.522	215.04
789.703	245.76
789.884	227.32
790.065	198.65
790.246	288.76
790.427	253.95
790.607	299
790.788	256
790.969	264.19
791.15	176.13
791.331	233.47
791.512	278.52
791.693	186.37
791.874	167.93
792.054	153.6
792.235	219.13
792.416	235.52
792.597	235.52
792.778	215.04
792.958	260.09
793.139	229.37
793.32	149.5
793.5	264.19
793.681	200.7
793.862	237.56
794.042	167.93
794.223	137.21
794.404	129.02
794.584	262.14
794.765	225.28
794.945	182.27
795.126	165.89
795.306	188.41
795.487	131.07
795.667	94.21
795.848	155.65
796.028	210.94
796.209	225.28
796.389	245.76
796.57	161.79
796.75	169.98
796.93	192.51
797.111	206.84
797.291	57.34
797.471	169.98
797.652	139.26
797.832	249.85
798.012	163.84
798.192	198.65
798.373	143.36
798.553	149.5
798.733	102.4
798.913	161.79
799.093	190.46
799.274	196.61
799.454	206.84
799.634	129.02
799.814	108.54
799.994	190.46
800.174	200.7
800.354	137.21
800.534	147.45
800.714	100.35
800.894	133.12
801.074	104.45
801.254	194.56
801.434	98.3
801.614	129.02
801.794	92.16
801.974	317.44
802.154	155.65
802.334	161.79
802.514	112.64
802.693	165.89
802.873	145.41
803.053	167.93
803.233	151.55
803.413	145.41
803.592	196.61
803.772	108.54
803.952	71.68
804.131	210.94
804.311	174.08
804.491	167.93
804.67	100.35
804.85	178.17
805.03	108.54
805.209	163.84
805.389	90.11
805.568	106.49
805.748	169.98
805.928	122.88
806.107	153.6
806.287	192.51
806.466	108.54
806.646	137.21
806.825	106.49
807.004	100.35
807.184	55.3
807.363	182.27
807.543	116.73
807.722	124.93
807.901	83.97
808.081	149.5
808.26	133.12
808.439	139.26
808.619	124.93
808.798	57.34
808.977	139.26
809.156	137.21
809.336	94.21
809.515	126.97
809.694	73.73
809.873	149.5
810.052	196.61
810.231	143.36
810.411	55.3
810.59	155.65
810.769	90.11
810.948	120.83
811.127	59.39
811.306	47.1
811.485	116.73
811.664	116.73
811.843	100.35
812.022	0
812.201	135.17
812.38	96.25
812.559	210.94
812.737	73.73
812.916	112.64
813.095	67.58
813.274	67.58
813.453	92.16
813.632	126.97
813.811	90.11
813.989	120.83
814.168	75.77
814.347	61.44
814.526	73.73
814.704	92.16
814.883	71.68
815.062	55.3
815.24	110.59
815.419	131.07
815.598	63.49
815.776	79.87
815.955	112.64
816.133	75.77
816.312	145.41
816.49	126.97
816.669	73.73
816.847	83.97
817.026	94.21
817.204	77.82
817.383	30.72
817.561	34.82
817.74	135.17
817.918	65.54
818.097	71.68
818.275	135.17
818.453	112.64
818.632	43.01
818.81	71.68
818.988	57.34
819.167	92.16
819.345	88.06
819.523	69.63
819.701	73.73
819.879	32.77
820.058	133.12
820.236	135.17
820.414	106.49
820.592	92.16
820.77	65.54
820.948	57.34
821.127	6.14
821.305	73.73
821.483	34.82
821.661	73.73
821.839	12.29
822.017	108.54
822.195	65.54
822.373	30.72
822.551	47.1
822.729	116.73
822.907	38.91
823.085	55.3
823.262	57.34
823.44	96.25
823.618	55.3
823.796	4.1
823.974	12.29
824.152	90.11
824.329	24.58
824.507	32.77
824.685	75.77
824.863	14.34
825.04	75.77
825.218	79.87
825.396	61.44
825.574	-34.82
825.751	69.63
825.929	59.39
826.107	79.87
826.284	59.39
826.462	110.59
826.639	67.58
826.817	22.53
826.994	55.3
827.172	38.91
827.349	10.24
827.527	96.25
827.704	77.82
827.882	10.24
828.059	57.34
828.237	61.44
828.414	122.88
828.591	16.38
828.769	104.45
828.946	34.82
829.124	100.35
829.301	57.34
829.478	-6.14
829.655	45.06
829.833	161.79
830.01	104.45
830.187	12.29
830.364	65.54
830.542	65.54
830.719	90.11
830.896	96.25
831.073	12.29
831.25	73.73
831.427	55.3
831.604	77.82
831.782	6.14
831.959	61.44
832.136	38.91
832.313	71.68
832.49	32.77
832.667	131.07
832.844	34.82
833.021	45.06
833.198	45.06
833.374	57.34
833.551	94.21
833.728	34.82
833.905	77.82
834.082	73.73
834.259	116.73
834.436	96.25
834.612	14.34
834.789	86.01
834.966	92.16
835.143	120.83
835.319	26.62
835.496	90.11
835.673	57.34
835.85	73.73
836.026	81.92
836.203	45.06
836.38	100.35
836.556	-2.05
836.733	71.68
836.909	112.64
837.086	34.82
837.262	59.39
837.439	53.25
837.616	45.06
837.792	43.01
837.968	59.39
838.145	47.1
838.321	26.62
838.498	24.58
838.674	28.67
838.851	10.24
839.027	26.62
839.203	61.44
839.38	6.14
839.556	28.67
839.732	88.06
839.909	16.38
840.085	114.69
840.261	20.48
840.437	2.05
840.614	-24.58
840.79	30.72
840.966	-6.14
841.142	65.54
841.318	67.58
841.494	124.93
841.671	49.15
841.847	98.3
842.023	51.2
842.199	55.3
842.375	100.35
842.551	67.58
842.727	32.77
842.903	26.62
843.079	88.06
843.255	96.25
843.431	81.92
843.607	16.38
843.783	49.15
843.959	20.48
844.134	-34.82
844.31	36.86
844.486	-4.1
844.662	59.39
844.838	30.72
845.013	79.87
845.189	38.91
845.365	79.87
845.541	53.25
845.716	32.77
845.892	71.68
846.068	47.1
846.244	30.72
846.419	-24.58
846.595	81.92
846.77	65.54
846.946	61.44
847.122	34.82
847.297	79.87
847.473	12.29
847.648	73.73
847.824	73.73
847.999	20.48
848.175	-8.19
848.35	36.86
848.526	69.63
848.701	-12.29
848.876	-49.15
849.052	30.72
849.227	14.34
849.403	2.05
849.578	53.25
849.753	-30.72
849.929	14.34
850.104	-6.14
850.279	-38.91
850.454	38.91
850.63	-16.38
850.805	47.1
850.98	26.62
851.155	34.82
851.33	79.87
851.505	12.29
851.681	12.29
851.856	86.01
852.031	79.87
852.206	12.29
852.381	24.58
852.556	-4.1
852.731	43.01
852.906	69.63
853.081	43.01
853.256	69.63
853.431	38.91
853.606	-18.43
853.781	71.68
853.956	22.53
854.131	16.38
854.305	2.05
854.48	16.38
854.655	28.67
854.83	-24.58
855.005	36.86
855.18	55.3
855.354	67.58
855.529	49.15
855.704	-22.53
855.879	26.62
856.053	59.39
856.228	34.82
856.403	2.05
856.577	10.24
856.752	10.24
856.926	-32.77
857.101	10.24
857.276	-4.1
857.45	14.34
857.625	55.3
857.799	14.34
857.974	-24.58
858.148	-32.77
858.323	59.39
858.497	-20.48
858.672	38.91
858.846	-36.86
859.02	8.19
859.195	6.14
859.369	-22.53
859.543	63.49
859.718	14.34
859.892	-2.05
860.066	65.54
860.241	53.25
860.415	47.1
860.589	67.58
860.763	86.01
860.938	43.01
861.112	-38.91
861.286	24.58
861.46	98.3
861.634	28.67
861.808	-10.24
861.982	-43.01
862.157	-2.05
862.331	49.15
862.505	49.15
862.679	-36.86
862.853	-51.2
863.027	-32.77
863.201	71.68
863.375	49.15
863.549	2.05
863.722	51.2
863.896	30.72
864.07	24.58
864.244	12.29
864.418	36.86
864.592	34.82
864.766	55.3
864.939	6.14
865.113	-59.39
865.287	43.01
865.461	-53.25
865.634	65.54
865.808	38.91
865.982	-16.38
866.156	16.38
866.329	0
866.503	2.05
866.676	79.87
866.85	30.72
867.024	2.05
867.197	51.2
867.371	34.82
867.544	18.43
867.718	-10.24
867.891	-4.1
868.065	-49.15
868.238	10.24
868.412	-6.14
868.585	53.25
868.759	79.87
868.932	10.24
869.105	73.73
869.279	24.58
869.452	63.49
869.625	45.06
869.799	-24.58
869.972	57.34
870.145	-36.86
870.319	-28.67
870.492	-69.63
870.665	22.53
870.838	79.87
871.011	47.1
871.185	20.48
871.358	-43.01
871.531	65.54
871.704	-30.72
871.877	73.73
872.05	38.91
872.223	4.1
872.396	-47.1
872.569	20.48
872.742	8.19
872.915	36.86
873.088	10.24
873.261	40.96
873.434	-2.05
873.607	-30.72
873.78	-8.19
873.953	45.06
874.126	12.29
874.299	57.34
874.471	14.34
874.644	-4.1
874.817	2.05
874.99	24.58
875.163	6.14
875.335	32.77
875.508	36.86
875.681	-22.53
875.853	38.91
876.026	10.24
876.199	49.15
876.371	55.3
876.544	6.14
876.717	18.43
876.889	22.53
877.062	75.77
877.234	4.1
877.407	-20.48
877.579	10.24
877.752	8.19
877.924	55.3
878.097	92.16
878.269	-4.1
878.442	8.19
878.614	71.68
878.786	-20.48
878.959	-16.38
879.131	16.38
879.303	-8.19
879.476	28.67
879.648	24.58
879.82	24.58
879.993	18.43
880.165	2.05
880.337	47.1
880.509	-63.49
880.681	4.1
880.854	32.77
881.026	-51.2
881.198	65.54
881.37	4.1
881.542	-20.48
881.714	36.86
881.886	-4.1
882.058	71.68
882.23	40.96
882.402	45.06
882.574	49.15
882.746	59.39
882.918	24.58
883.09	-8.19
883.262	47.1
883.434	28.67
883.606	2.05
883.778	43.01
883.95	-20.48
884.122	63.49
884.293	71.68
884.465	-55.3
884.637	51.2
884.809	2.05
884.98	57.34
885.152	-2.05
885.324	10.24
885.496	-45.06
885.667	-12.29
885.839	77.82
886.011	6.14
886.182	12.29
886.354	65.54
886.525	40.96
886.697	61.44
886.869	-34.82
887.04	67.58
887.212	106.49
887.383	14.34
887.555	22.53
887.726	43.01
887.897	-8.19
888.069	0
888.24	-28.67
888.412	45.06
888.583	-20.48
888.754	22.53
888.926	-40.96
889.097	-26.62
889.268	-49.15
889.44	131.07
889.611	51.2
889.782	10.24
889.953	24.58
890.125	-14.34
890.296	-24.58
890.467	32.77
890.638	-22.53
890.809	-57.34
890.98	30.72
891.151	53.25
891.323	8.19
891.494	2.05
891.665	-67.58
891.836	40.96
892.007	-38.91
892.178	8.19
892.349	38.91
892.52	102.4
892.691	40.96
892.862	-14.34
893.032	32.77
893.203	75.77
893.374	-55.3
893.545	32.77
893.716	6.14
893.887	-38.91
894.057	43.01
894.228	16.38
894.399	106.49
894.57	81.92
894.74	40.96
894.911	-28.67
895.082	8.19
895.253	26.62
895.423	-2.05
895.594	61.44
895.764	6.14
895.935	-32.77
896.106	26.62
896.276	79.87
896.447	77.82
896.617	-10.24
896.788	14.34
896.958	57.34
897.129	-14.34
897.299	8.19
897.47	-2.05
897.64	-18.43
897.81	-10.24
897.981	6.14
898.151	12.29
898.322	-10.24
898.492	-71.68
898.662	22.53
898.832	-43.01
899.003	47.1
899.173	45.06
899.343	51.2
899.513	-2.05
