Data from USB4F104151__87__13-54-27-730.txt Node

Date: Thu Mar 13 13:54:27 EDT 2025
User: louis
Spectrometer: USB4F10415
Trigger mode: 4
Integration Time (sec): 1.000000E-2
Scans to average: 1
Electric dark correction enabled: true
Nonlinearity correction enabled: false
Boxcar width: 0
XAxis mode: Wavelengths
Number of Pixels in Spectrum: 3648
>>>>>Begin Spectral Data<<<<<
178.204	-37.38
178.424	-37.38
178.644	-37.38
178.864	32.26
179.084	-10.75
179.304	-23.04
179.524	-29.18
179.744	-23.04
179.964	17.92
180.184	-55.81
180.404	34.3
180.624	-98.81
180.844	26.11
181.064	13.82
181.283	105.98
181.503	26.11
181.723	5.63
181.943	-35.33
182.163	75.26
182.383	32.26
182.602	-23.04
182.822	7.68
183.042	110.08
183.262	-18.94
183.482	28.16
183.701	5.63
183.921	-0.51
184.141	28.16
184.361	65.02
184.58	-31.23
184.8	-0.51
185.02	36.35
185.239	42.5
185.459	50.69
185.679	-23.04
185.898	-14.85
186.118	19.97
186.338	-12.8
186.557	-6.66
186.777	71.17
186.997	36.35
187.216	-18.94
187.436	69.12
187.655	-4.61
187.875	50.69
188.095	-6.66
188.314	87.55
188.534	19.97
188.753	30.21
188.973	-37.38
189.192	71.17
189.412	-23.04
189.631	50.69
189.851	26.11
190.07	71.17
190.29	-2.56
190.509	-10.75
190.729	-2.56
190.948	-0.51
191.168	26.11
191.387	17.92
191.607	-20.99
191.826	97.79
192.045	54.78
192.265	15.87
192.484	36.35
192.704	71.17
192.923	-29.18
193.142	83.45
193.362	93.69
193.581	69.12
193.8	44.54
194.02	-18.94
194.239	-109.05
194.458	65.02
194.678	52.74
194.897	11.78
195.116	60.93
195.335	-0.51
195.555	65.02
195.774	-8.7
195.993	-8.7
196.212	15.87
196.432	34.3
196.651	77.31
196.87	13.82
197.089	-16.9
197.308	13.82
197.528	42.5
197.747	30.21
197.966	71.17
198.185	73.21
198.404	38.4
198.623	-10.75
198.842	42.5
199.062	79.36
199.281	26.11
199.5	15.87
199.719	60.93
199.938	11.78
200.157	40.45
200.376	11.78
200.595	-33.28
200.814	89.6
201.033	71.17
201.252	40.45
201.471	-14.85
201.69	42.5
201.909	93.69
202.128	26.11
202.347	-4.61
202.566	3.58
202.785	46.59
203.004	17.92
203.223	62.98
203.442	5.63
203.661	19.97
203.879	11.78
204.098	91.65
204.317	32.26
204.536	15.87
204.755	54.78
204.974	116.22
205.193	28.16
205.411	91.65
205.63	65.02
205.849	-4.61
206.068	11.78
206.287	15.87
206.505	52.74
206.724	-8.7
206.943	-0.51
207.162	-8.7
207.381	22.02
207.599	101.89
207.818	62.98
208.037	46.59
208.255	17.92
208.474	110.08
208.693	-29.18
208.911	32.26
209.13	30.21
209.349	28.16
209.567	15.87
209.786	11.78
210.005	-18.94
210.223	73.21
210.442	-25.09
210.661	19.97
210.879	3.58
211.098	38.4
211.316	9.73
211.535	36.35
211.753	22.02
211.972	56.83
212.191	-0.51
212.409	-31.23
212.628	-8.7
212.846	58.88
213.065	-23.04
213.283	38.4
213.502	62.98
213.72	22.02
213.938	73.21
214.157	46.59
214.375	73.21
214.594	15.87
214.812	-74.24
215.031	30.21
215.249	-18.94
215.467	7.68
215.686	15.87
215.904	95.74
216.122	-8.7
216.341	105.98
216.559	54.78
216.778	44.54
216.996	58.88
217.214	32.26
217.432	52.74
217.651	50.69
217.869	-2.56
218.087	-12.8
218.306	15.87
218.524	7.68
218.742	42.5
218.96	75.26
219.179	32.26
219.397	26.11
219.615	-20.99
219.833	58.88
220.051	5.63
220.27	40.45
220.488	69.12
220.706	-14.85
220.924	1.54
221.142	5.63
221.36	15.87
221.578	-12.8
221.796	36.35
222.015	40.45
222.233	7.68
222.451	77.31
222.669	62.98
222.887	5.63
223.105	93.69
223.323	77.31
223.541	38.4
223.759	97.79
223.977	-55.81
224.195	89.6
224.413	73.21
224.631	58.88
224.849	9.73
225.067	75.26
225.285	22.02
225.503	71.17
225.721	-18.94
225.939	-2.56
226.157	15.87
226.375	89.6
226.592	-6.66
226.81	-0.51
227.028	-12.8
227.246	22.02
227.464	30.21
227.682	83.45
227.9	7.68
228.117	24.06
228.335	-25.09
228.553	34.3
228.771	-37.38
228.989	40.45
229.206	99.84
229.424	13.82
229.642	71.17
229.86	-25.09
230.077	24.06
230.295	26.11
230.513	67.07
230.731	69.12
230.948	-2.56
231.166	13.82
231.384	56.83
231.601	54.78
231.819	-80.38
232.037	11.78
232.254	-0.51
232.472	22.02
232.689	19.97
232.907	5.63
233.125	81.41
233.342	108.03
233.56	-6.66
233.777	19.97
233.995	116.22
234.213	44.54
234.43	-39.42
234.648	-12.8
234.865	7.68
235.083	13.82
235.3	15.87
235.518	28.16
235.735	81.41
235.953	65.02
236.17	30.21
236.388	17.92
236.605	62.98
236.822	132.61
237.04	83.45
237.257	-29.18
237.475	42.5
237.692	108.03
237.909	69.12
238.127	32.26
238.344	24.06
238.562	-12.8
238.779	77.31
238.996	-57.86
239.214	-8.7
239.431	3.58
239.648	48.64
239.865	-16.9
240.083	3.58
240.3	71.17
240.517	-0.51
240.735	-10.75
240.952	-0.51
241.169	-2.56
241.386	7.68
241.603	58.88
241.821	103.93
242.038	9.73
242.255	42.5
242.472	42.5
242.689	-0.51
242.907	73.21
243.124	-23.04
243.341	34.3
243.558	-0.51
243.775	19.97
243.992	-10.75
244.209	73.21
244.426	46.59
244.643	40.45
244.86	30.21
245.078	56.83
245.295	81.41
245.512	24.06
245.729	28.16
245.946	24.06
246.163	-47.62
246.38	69.12
246.597	7.68
246.814	65.02
247.031	-41.47
247.248	48.64
247.464	-6.66
247.681	62.98
247.898	36.35
248.115	101.89
248.332	3.58
248.549	56.83
248.766	32.26
248.983	97.79
249.2	81.41
249.417	13.82
249.633	44.54
249.85	46.59
250.067	38.4
250.284	24.06
250.501	50.69
250.717	-8.7
250.934	54.78
251.151	85.5
251.368	30.21
251.585	48.64
251.801	17.92
252.018	42.5
252.235	62.98
252.451	-14.85
252.668	-10.75
252.885	36.35
253.102	5.63
253.318	-0.51
253.535	42.5
253.752	44.54
253.968	-12.8
254.185	44.54
254.401	34.3
254.618	71.17
254.835	9.73
255.051	22.02
255.268	-10.75
255.484	77.31
255.701	42.5
255.917	40.45
256.134	-0.51
256.351	19.97
256.567	42.5
256.784	30.21
257	36.35
257.217	24.06
257.433	-25.09
257.65	5.63
257.866	44.54
258.082	5.63
258.299	44.54
258.515	30.21
258.732	-16.9
258.948	48.64
259.165	105.98
259.381	26.11
259.597	52.74
259.814	30.21
260.03	32.26
260.246	75.26
260.463	15.87
260.679	30.21
260.895	36.35
261.112	24.06
261.328	46.59
261.544	-0.51
261.761	36.35
261.977	-4.61
262.193	1.54
262.409	11.78
262.626	73.21
262.842	91.65
263.058	22.02
263.274	60.93
263.49	28.16
263.707	-0.51
263.923	48.64
264.139	69.12
264.355	-20.99
264.571	67.07
264.787	-12.8
265.004	26.11
265.22	30.21
265.436	75.26
265.652	32.26
265.868	38.4
266.084	54.78
266.3	3.58
266.516	9.73
266.732	24.06
266.948	13.82
267.164	91.65
267.38	-8.7
267.596	-16.9
267.812	3.58
268.028	56.83
268.244	7.68
268.46	24.06
268.676	22.02
268.892	-27.14
269.108	19.97
269.324	38.4
269.54	71.17
269.756	48.64
269.972	36.35
270.188	50.69
270.403	83.45
270.619	42.5
270.835	-8.7
271.051	-12.8
271.267	15.87
271.483	32.26
271.698	11.78
271.914	79.36
272.13	40.45
272.346	48.64
272.562	28.16
272.777	-6.66
272.993	85.5
273.209	28.16
273.425	38.4
273.64	40.45
273.856	81.41
274.072	-82.43
274.287	40.45
274.503	-12.8
274.719	-4.61
274.934	-12.8
275.15	-27.14
275.366	79.36
275.581	36.35
275.797	19.97
276.012	40.45
276.228	91.65
276.444	3.58
276.659	7.68
276.875	-29.18
277.09	30.21
277.306	-37.38
277.521	-14.85
277.737	-68.09
277.952	17.92
278.168	1.54
278.383	22.02
278.599	62.98
278.814	-0.51
279.03	58.88
279.245	67.07
279.461	-8.7
279.676	50.69
279.892	-29.18
280.107	24.06
280.322	17.92
280.538	30.21
280.753	-8.7
280.969	-16.9
281.184	22.02
281.399	46.59
281.615	-16.9
281.83	5.63
282.045	26.11
282.26	36.35
282.476	60.93
282.691	-20.99
282.906	122.37
283.122	-0.51
283.337	-4.61
283.552	22.02
283.767	-2.56
283.983	91.65
284.198	17.92
284.413	75.26
284.628	-4.61
284.843	52.74
285.058	-6.66
285.274	-14.85
285.489	48.64
285.704	34.3
285.919	-23.04
286.134	81.41
286.349	73.21
286.564	15.87
286.779	52.74
286.995	-72.19
287.21	19.97
287.425	87.55
287.64	-35.33
287.855	-35.33
288.07	9.73
288.285	110.08
288.5	101.89
288.715	9.73
288.93	28.16
289.145	-45.57
289.36	34.3
289.575	-2.56
289.79	5.63
290.004	15.87
290.219	75.26
290.434	71.17
290.649	22.02
290.864	15.87
291.079	22.02
291.294	48.64
291.509	-8.7
291.724	-20.99
291.938	36.35
292.153	44.54
292.368	26.11
292.583	58.88
292.798	7.68
293.012	30.21
293.227	-66.05
293.442	91.65
293.657	58.88
293.871	52.74
294.086	34.3
294.301	95.74
294.516	56.83
294.73	36.35
294.945	58.88
295.16	89.6
295.374	30.21
295.589	34.3
295.804	-10.75
296.018	81.41
296.233	17.92
296.447	81.41
296.662	19.97
296.877	52.74
297.091	81.41
297.306	-2.56
297.52	17.92
297.735	101.89
297.949	52.74
298.164	60.93
298.378	28.16
298.593	3.58
298.807	34.3
299.022	22.02
299.236	26.11
299.451	-0.51
299.665	26.11
299.88	118.27
300.094	24.06
300.309	-0.51
300.523	32.26
300.737	97.79
300.952	65.02
301.166	54.78
301.381	97.79
301.595	11.78
301.809	11.78
302.024	-10.75
302.238	50.69
302.452	40.45
302.667	30.21
302.881	-29.18
303.095	40.45
303.309	22.02
303.524	85.5
303.738	48.64
303.952	24.06
304.166	26.11
304.381	28.16
304.595	15.87
304.809	58.88
305.023	42.5
305.237	38.4
305.452	85.5
305.666	15.87
305.88	40.45
306.094	87.55
306.308	30.21
306.522	77.31
306.736	44.54
306.95	5.63
307.164	15.87
307.379	-2.56
307.593	28.16
307.807	48.64
308.021	5.63
308.235	26.11
308.449	-8.7
308.663	-31.23
308.877	85.5
309.091	-33.28
309.305	67.07
309.519	28.16
309.733	56.83
309.947	-14.85
310.161	114.17
310.374	54.78
310.588	13.82
310.802	3.58
311.016	54.78
311.23	26.11
311.444	83.45
311.658	40.45
311.872	-12.8
312.085	36.35
312.299	71.17
312.513	24.06
312.727	34.3
312.941	54.78
313.154	26.11
313.368	54.78
313.582	3.58
313.796	38.4
314.009	52.74
314.223	9.73
314.437	83.45
314.651	-33.28
314.864	79.36
315.078	7.68
315.292	-27.14
315.505	34.3
315.719	69.12
315.933	-4.61
316.146	71.17
316.36	-0.51
316.573	32.26
316.787	36.35
317.001	54.78
317.214	13.82
317.428	87.55
317.641	95.74
317.855	44.54
318.068	60.93
318.282	120.32
318.495	56.83
318.709	46.59
318.922	17.92
319.136	38.4
319.349	24.06
319.563	9.73
319.776	83.45
319.99	5.63
320.203	9.73
320.417	40.45
320.63	11.78
320.843	9.73
321.057	-8.7
321.27	65.02
321.483	19.97
321.697	54.78
321.91	3.58
322.124	19.97
322.337	56.83
322.55	11.78
322.763	69.12
322.977	9.73
323.19	28.16
323.403	118.27
323.617	24.06
323.83	46.59
324.043	22.02
324.256	79.36
324.469	11.78
324.683	128.51
324.896	7.68
325.109	62.98
325.322	26.11
325.535	58.88
325.748	-33.28
325.962	38.4
326.175	30.21
326.388	-14.85
326.601	11.78
326.814	77.31
327.027	32.26
327.24	-10.75
327.453	-8.7
327.666	-6.66
327.879	15.87
328.092	28.16
328.305	17.92
328.518	13.82
328.731	60.93
328.944	19.97
329.157	67.07
329.37	48.64
329.583	89.6
329.796	42.5
330.009	15.87
330.222	-4.61
330.435	52.74
330.648	38.4
330.861	50.69
331.073	62.98
331.286	19.97
331.499	19.97
331.712	77.31
331.925	85.5
332.138	30.21
332.35	42.5
332.563	40.45
332.776	9.73
332.989	-6.66
333.202	87.55
333.414	-10.75
333.627	54.78
333.84	50.69
334.053	48.64
334.265	-2.56
334.478	13.82
334.691	65.02
334.903	-16.9
335.116	124.41
335.329	69.12
335.541	36.35
335.754	99.84
335.966	24.06
336.179	69.12
336.392	87.55
336.604	58.88
336.817	28.16
337.029	52.74
337.242	81.41
337.454	3.58
337.667	19.97
337.88	93.69
338.092	75.26
338.305	15.87
338.517	50.69
338.729	83.45
338.942	48.64
339.154	46.59
339.367	38.4
339.579	13.82
339.792	-23.04
340.004	-14.85
340.217	65.02
340.429	79.36
340.641	7.68
340.854	44.54
341.066	58.88
341.278	58.88
341.491	75.26
341.703	26.11
341.915	-6.66
342.128	44.54
342.34	34.3
342.552	77.31
342.764	15.87
342.977	1.54
343.189	34.3
343.401	58.88
343.613	128.51
343.826	103.93
344.038	60.93
344.25	97.79
344.462	36.35
344.674	34.3
344.886	62.98
345.099	7.68
345.311	9.73
345.523	24.06
345.735	56.83
345.947	62.98
346.159	34.3
346.371	28.16
346.583	19.97
346.795	71.17
347.007	1.54
347.219	-72.19
347.431	40.45
347.643	24.06
347.855	26.11
348.067	-2.56
348.279	83.45
348.491	81.41
348.703	-14.85
348.915	44.54
349.127	7.68
349.339	-4.61
349.551	44.54
349.763	32.26
349.975	22.02
350.187	24.06
350.399	81.41
350.61	22.02
350.822	134.65
351.034	44.54
351.246	-8.7
351.458	19.97
351.669	60.93
351.881	87.55
352.093	-12.8
352.305	32.26
352.517	38.4
352.728	146.94
352.94	58.88
353.152	56.83
353.363	7.68
353.575	85.5
353.787	81.41
353.999	28.16
354.21	24.06
354.422	40.45
354.633	54.78
354.845	83.45
355.057	9.73
355.268	65.02
355.48	36.35
355.692	11.78
355.903	54.78
356.115	83.45
356.326	9.73
356.538	26.11
356.749	95.74
356.961	52.74
357.172	56.83
357.384	24.06
357.595	22.02
357.807	30.21
358.018	15.87
358.23	48.64
358.441	122.37
358.653	105.98
358.864	1.54
359.075	34.3
359.287	-35.33
359.498	130.56
359.709	11.78
359.921	42.5
360.132	110.08
360.344	79.36
360.555	-45.57
360.766	165.37
360.977	22.02
361.189	36.35
361.4	7.68
361.611	77.31
361.823	77.31
362.034	11.78
362.245	5.63
362.456	26.11
362.667	62.98
362.879	-14.85
363.09	3.58
363.301	77.31
363.512	11.78
363.723	-72.19
363.935	58.88
364.146	3.58
364.357	-0.51
364.568	28.16
364.779	58.88
364.99	73.21
365.201	-18.94
365.412	-18.94
365.623	1.54
365.834	54.78
366.045	87.55
366.256	15.87
366.467	44.54
366.678	-16.9
366.889	-18.94
367.1	91.65
367.311	101.89
367.522	110.08
367.733	22.02
367.944	122.37
368.155	126.46
368.366	-0.51
368.577	38.4
368.788	13.82
368.999	54.78
369.209	46.59
369.42	34.3
369.631	32.26
369.842	-0.51
370.053	13.82
370.264	3.58
370.474	48.64
370.685	54.78
370.896	5.63
371.107	87.55
371.317	22.02
371.528	-27.14
371.739	58.88
371.95	19.97
372.16	7.68
372.371	60.93
372.582	32.26
372.792	101.89
373.003	17.92
373.214	69.12
373.424	58.88
373.635	-14.85
373.846	42.5
374.056	73.21
374.267	48.64
374.477	28.16
374.688	32.26
374.898	11.78
375.109	-55.81
375.319	26.11
375.53	93.69
375.74	81.41
375.951	1.54
376.161	17.92
376.372	-0.51
376.582	13.82
376.793	99.84
377.003	-18.94
377.214	-0.51
377.424	52.74
377.635	36.35
377.845	24.06
378.055	110.08
378.266	9.73
378.476	65.02
378.686	34.3
378.897	97.79
379.107	69.12
379.317	46.59
379.528	28.16
379.738	56.83
379.948	48.64
380.158	91.65
380.369	87.55
380.579	1.54
380.789	-0.51
380.999	13.82
381.21	19.97
381.42	130.56
381.63	30.21
381.84	81.41
382.05	9.73
382.261	-76.29
382.471	42.5
382.681	75.26
382.891	52.74
383.101	15.87
383.311	65.02
383.521	11.78
383.731	48.64
383.941	62.98
384.151	46.59
384.361	75.26
384.571	38.4
384.781	38.4
384.991	58.88
385.201	79.36
385.411	93.69
385.621	50.69
385.831	46.59
386.041	97.79
386.251	26.11
386.461	26.11
386.671	34.3
386.881	126.46
387.091	19.97
387.301	87.55
387.511	75.26
387.72	-12.8
387.93	32.26
388.14	46.59
388.35	60.93
388.56	83.45
388.769	17.92
388.979	54.78
389.189	-0.51
389.399	34.3
389.609	-0.51
389.818	89.6
390.028	65.02
390.238	-0.51
390.447	62.98
390.657	34.3
390.867	46.59
391.076	46.59
391.286	75.26
391.496	75.26
391.705	46.59
391.915	9.73
392.125	138.75
392.334	89.6
392.544	87.55
392.753	46.59
392.963	-0.51
393.172	54.78
393.382	77.31
393.591	24.06
393.801	58.88
394.01	116.22
394.22	112.13
394.429	79.36
394.639	71.17
394.848	69.12
395.058	130.56
395.267	79.36
395.477	148.99
395.686	138.75
395.895	28.16
396.105	175.61
396.314	5.63
396.524	101.89
396.733	54.78
396.942	50.69
397.152	85.5
397.361	202.24
397.57	62.98
397.78	81.41
397.989	67.07
398.198	3.58
398.407	99.84
398.617	81.41
398.826	50.69
399.035	71.17
399.244	60.93
399.453	75.26
399.663	112.13
399.872	-4.61
400.081	50.69
400.29	89.6
400.499	81.41
400.708	62.98
400.917	83.45
401.127	114.17
401.336	79.36
401.545	171.52
401.754	116.22
401.963	118.27
402.172	97.79
402.381	93.69
402.59	52.74
402.799	83.45
403.008	83.45
403.217	116.22
403.426	103.93
403.635	140.8
403.844	85.5
404.053	89.6
404.262	40.45
404.471	120.32
404.68	95.74
404.888	95.74
405.097	77.31
405.306	208.38
405.515	128.51
405.724	151.04
405.933	114.17
406.142	130.56
406.35	79.36
406.559	130.56
406.768	192
406.977	85.5
407.185	120.32
407.394	126.46
407.603	212.48
407.812	192
408.02	196.09
408.229	181.76
408.438	153.09
408.646	202.24
408.855	142.85
409.064	202.24
409.272	232.96
409.481	261.63
409.69	296.44
409.898	196.09
410.107	237.05
410.315	204.28
410.524	204.28
410.733	286.2
410.941	224.76
411.15	302.59
411.358	265.72
411.567	347.64
411.775	251.39
411.984	368.12
412.192	339.45
412.401	310.78
412.609	308.73
412.818	441.85
413.026	388.6
413.234	376.31
413.443	364.03
413.651	329.21
413.86	421.37
414.068	409.08
414.276	507.38
414.485	462.33
414.693	495.1
414.901	509.43
415.11	503.29
415.318	525.82
415.526	579.06
415.734	583.16
415.943	550.39
416.151	611.83
416.359	720.37
416.567	632.31
416.776	769.52
416.984	747
417.192	622.07
417.4	779.76
417.608	790
417.817	787.96
418.025	744.95
418.233	767.48
418.441	876.02
418.649	900.59
418.857	947.7
419.065	939.51
419.273	892.4
419.481	976.37
419.689	1021.42
419.897	1089.01
420.105	1099.25
420.313	1140.21
420.521	1101.3
420.729	1242.61
420.937	1258.99
421.145	1240.56
421.353	1369.58
421.561	1414.63
421.769	1447.4
421.977	1517.03
422.185	1525.22
422.393	1566.18
422.601	1687.01
422.809	1666.53
423.017	1672.68
423.224	1687.01
423.432	1797.6
423.64	1758.69
423.848	1957.35
424.056	1914.34
424.263	2026.98
424.471	2069.98
424.679	2160.1
424.887	2301.4
425.094	2295.26
425.302	2321.88
425.51	2393.56
425.718	2455
425.925	2485.72
426.133	2586.07
426.341	2717.14
426.548	2878.93
426.756	2938.32
426.964	2932.18
427.171	2909.65
427.379	3108.3
427.586	3241.42
427.794	3313.1
428.001	3505.61
428.209	3673.54
428.417	3554.76
428.624	3851.72
428.832	3794.37
429.039	3747.27
429.247	3687.88
429.454	4058.56
429.662	4240.83
429.869	4091.33
430.076	4292.03
430.284	4050.37
430.491	4433.34
430.699	4683.19
430.906	4773.3
431.114	4707.77
431.321	5131.7
431.528	5178.8
431.736	5219.76
431.943	5707.18
432.15	5273.01
432.358	5549.48
432.565	5764.52
432.772	5637.55
432.979	6127.01
433.187	6116.77
433.394	6192.55
433.601	6796.7
433.808	6743.45
434.016	6659.48
434.223	6876.57
434.43	7255.44
434.637	7290.26
434.844	7536.01
435.052	7726.47
435.259	7769.48
435.466	7685.51
435.673	7722.38
435.88	8050.05
436.087	8643.96
436.294	8678.78
436.501	8402.3
436.708	8678.78
436.915	8889.72
437.122	9418.1
437.329	9301.36
437.537	9563.5
437.743	9930.09
437.95	9631.09
438.157	10186.08
438.364	10605.92
438.571	10532.19
438.778	10319.2
438.985	11597.14
439.192	11072.86
439.399	11294.04
439.606	11105.62
439.813	11793.74
440.02	12481.86
440.227	12250.44
440.433	12152.13
440.64	12606.78
440.847	12279.11
441.054	13094.2
441.261	13546.8
441.467	13544.75
441.674	13591.86
441.881	14179.62
442.088	13894.96
442.294	14028.07
442.501	14282.02
442.708	14644.51
442.914	15383.83
443.121	15828.24
443.328	15512.85
443.534	16729.34
443.741	16014.6
443.948	15830.29
444.154	17024.25
444.361	16979.2
444.568	16854.27
444.774	17128.7
444.981	17349.88
445.187	17659.12
445.394	18556.13
445.6	18500.84
445.807	19991.76
446.013	18982.11
446.22	19504.34
446.426	20419.78
446.633	20280.52
446.839	20944.06
447.046	20131.02
447.252	21525.69
447.459	21529.78
447.665	21320.89
447.871	21916.85
448.078	23375
448.284	21980.34
448.491	22637.73
448.697	23329.95
448.903	23823.51
449.11	23555.22
449.316	23526.55
449.522	24360.08
449.728	24597.64
449.935	24960.13
450.141	24583.3
450.347	25166.98
450.553	24749.19
450.76	24642.7
450.966	25844.85
451.172	25433.21
451.378	25994.36
451.584	25345.15
451.791	26158.19
451.997	26047.6
452.203	26276.98
452.409	26645.61
452.615	26389.61
452.821	25240.7
453.027	25025.67
453.233	26391.66
453.44	25119.87
453.646	25865.33
453.852	25396.35
454.058	25994.36
454.264	25371.77
454.47	25539.71
454.676	25177.22
454.882	25877.62
455.088	23841.94
455.294	24009.87
455.5	24312.97
455.705	24839.3
455.911	23667.86
456.117	23067.81
456.323	22690.98
456.529	21775.54
456.735	22680.74
456.941	22049.97
457.147	21679.29
457.352	21023.94
457.558	20968.64
457.764	20608.2
457.97	20688.07
458.176	20083.92
458.381	20214.99
458.587	18846.94
458.793	18881.76
458.999	17906.93
459.204	19408.09
459.41	18633.96
459.616	17558.77
459.821	17329.4
460.027	17382.65
460.233	17014.01
460.438	16225.54
460.644	16329.99
460.85	15768.85
461.055	15492.37
461.261	15377.69
461.466	14304.55
461.672	13882.67
461.878	14968.09
462.083	13729.07
462.289	13622.58
462.494	13638.96
462.7	12793.15
462.905	12887.36
463.111	13016.38
463.316	13040.95
463.522	12700.99
463.727	12903.74
463.932	12811.58
464.138	12612.93
464.343	12488
464.549	12434.75
464.754	12666.17
464.959	12539.2
465.165	12440.9
465.37	11818.32
465.575	11750.73
465.781	12043.59
465.986	12160.33
466.191	11871.56
466.397	11562.32
466.602	10909.02
466.807	11566.42
467.012	11281.75
467.218	11414.87
467.423	11277.65
467.628	11312.47
467.833	11605.33
468.038	11361.62
468.244	10919.26
468.449	11302.23
468.654	10937.69
468.859	10925.4
469.064	10706.27
469.269	10577.25
469.474	10386.79
469.679	10898.78
469.885	10452.32
470.09	10511.71
470.295	10413.41
470.5	10319.2
470.705	10409.31
470.91	10220.9
471.115	10163.56
471.32	10073.45
471.525	9979.24
471.73	9792.87
471.935	9762.16
472.139	9586.03
472.344	9643.37
472.549	9461.1
472.754	9391.47
472.959	9203.06
473.164	8938.87
473.369	8842.62
473.574	9327.99
473.778	9244.02
473.983	8967.54
474.188	9012.6
474.393	8732.03
474.598	8732.03
474.802	8500.61
475.007	8502.65
475.212	8488.32
475.417	8152.45
475.621	8230.27
475.826	8254.85
476.031	8039.81
476.235	8007.05
476.44	8039.81
476.645	7749
476.849	7902.6
477.054	7867.78
477.259	7681.42
477.463	7593.36
477.668	7597.45
477.872	7652.75
478.077	7263.63
478.282	7202.19
478.486	7286.16
478.691	7179.67
478.895	7159.19
479.1	7122.32
479.304	7122.32
479.509	6993.3
479.713	6899.09
479.918	6753.69
480.122	6763.93
480.326	6751.64
480.531	6819.22
480.735	6731.16
480.94	6673.82
481.144	6917.53
481.348	6612.38
481.553	6622.62
481.757	6460.83
481.961	6669.72
482.166	6829.46
482.37	6708.63
482.574	6614.43
482.778	6575.52
482.983	6589.85
483.187	6608.28
483.391	6698.39
483.595	6526.36
483.8	6526.36
484.004	6663.58
484.208	6729.11
484.412	6596
484.616	6563.23
484.821	6645.15
485.025	6528.41
485.229	6634.91
485.433	6579.61
485.637	6653.34
485.841	6581.66
486.045	6569.37
486.249	6618.52
486.453	6679.96
486.657	6751.64
486.861	6509.98
487.065	6450.59
487.269	6667.67
487.473	6469.02
487.677	6653.34
487.881	6567.32
488.085	6454.69
488.289	6739.35
488.493	6620.57
488.697	6651.29
488.901	6731.16
489.105	6655.39
489.309	6645.15
489.512	6727.07
489.716	6649.24
489.92	6798.74
490.124	6727.07
490.328	6907.29
490.531	6694.3
490.735	6903.19
490.939	6983.06
491.143	6731.16
491.346	6817.18
491.55	6704.54
491.754	6931.86
491.958	7097.75
492.161	6991.25
492.365	7044.5
492.569	7085.46
492.772	7099.8
492.976	6983.06
493.18	7050.64
493.383	7130.52
493.587	7153.04
493.79	7415.18
493.994	7456.14
494.197	7187.86
494.401	7314.83
494.605	7413.13
494.808	7564.68
495.012	7329.17
495.215	7683.47
495.419	7673.23
495.622	7734.67
495.825	7939.46
496.029	7906.7
496.232	7918.98
496.436	7878.02
496.639	8123.78
496.843	8052.1
497.046	8242.56
497.249	8463.74
497.453	8183.17
497.656	8408.45
497.859	8406.4
498.063	8607.1
498.266	8682.88
498.469	8672.64
498.673	8887.67
498.876	9022.84
499.079	9149.81
499.282	9123.19
499.485	9352.56
499.689	9377.14
499.892	9207.16
500.095	9467.25
500.298	9637.23
500.501	9713
500.705	9950.57
500.908	9956.71
501.111	9999.72
501.314	10354.02
501.517	10390.88
501.72	10536.29
501.923	10480.99
502.126	10544.48
502.329	10933.59
502.532	10878.3
502.735	11089.24
502.938	11101.53
503.141	11418.96
503.344	11541.84
503.547	11246.93
503.75	11769.16
503.953	11760.97
504.156	11933
504.359	12152.13
504.562	12264.77
504.765	12514.63
504.968	12533.06
505.17	12901.69
505.373	12784.96
505.576	13092.15
505.779	13321.52
505.982	13260.09
506.185	13428.02
506.387	13628.72
506.59	13739.31
506.793	14054.7
506.996	13866.28
507.198	14495.01
507.401	14419.24
507.604	14187.82
507.807	14775.58
508.009	14814.49
508.212	14943.52
508.415	15398.17
508.617	15406.36
508.82	15918.35
509.022	15613.2
509.225	15897.87
509.428	16024.84
509.63	16278.79
509.833	16153.87
510.035	16887.04
510.238	16694.53
510.44	16913.66
510.643	17341.69
510.845	17554.68
511.048	17286.39
511.25	17675.51
511.453	18099.44
511.655	18687.2
511.858	18298.09
512.06	18556.13
512.262	18859.23
512.465	18930.91
512.667	19145.95
512.87	19606.74
513.072	19440.86
513.274	19766.48
513.477	20051.15
513.679	20458.7
513.881	20477.13
514.084	20896.96
514.286	20950.21
514.488	21044.41
514.69	21591.22
514.893	21775.54
515.095	21763.25
515.297	21908.66
515.499	22183.09
515.701	22471.85
515.904	22652.07
516.106	22899.87
516.308	22879.39
516.51	23708.82
516.712	23413.91
516.914	23897.24
517.116	24128.66
517.318	24403.08
517.52	24745.09
517.722	24906.88
517.925	25209.98
518.127	25441.4
518.329	25465.98
518.531	25248.89
518.733	26004.6
518.935	26307.69
519.136	26332.27
519.338	26672.23
519.54	27018.34
519.742	27333.73
519.944	27284.58
520.146	28167.25
520.348	28165.2
520.55	27901.01
520.752	28236.88
520.954	29242.43
521.155	28886.09
521.357	29072.45
521.559	29416.51
521.761	30028.85
521.963	30051.38
522.164	29918.26
522.366	30159.92
522.568	30702.64
522.77	30944.3
522.971	31212.58
523.173	30680.11
523.375	31222.82
523.576	31366.18
523.778	31695.9
523.98	31790.11
524.181	32103.45
524.383	31978.52
524.584	32850.95
524.786	32785.42
524.988	32480.27
525.189	33240.07
525.391	33240.07
525.592	33518.59
525.794	33252.36
525.995	33801.21
526.197	33850.36
526.398	33881.08
526.6	34214.9
526.801	34343.92
527.003	34593.78
527.204	34632.69
527.406	35019.75
527.607	34935.79
527.808	35068.9
528.01	34323.44
528.211	35267.56
528.412	36039.64
528.614	35380.2
528.815	35521.51
529.016	36053.98
529.218	35417.06
529.419	36056.03
529.62	36023.26
529.822	36047.83
530.023	36420.56
530.224	36740.05
530.425	36240.34
530.626	36133.85
530.828	36062.17
531.029	36729.81
531.23	36768.72
531.431	36680.66
531.632	36633.55
531.833	36664.27
532.035	36670.42
532.236	36512.72
532.437	37131.21
532.638	36596.69
532.839	37383.11
533.04	37112.78
533.241	36600.79
533.442	37594.05
533.643	37045.19
533.844	37166.02
534.045	37063.63
534.246	36899.79
534.447	37254.09
534.648	37319.62
534.849	37516.23
535.05	36797.39
535.251	37364.68
535.451	37116.87
535.652	37487.56
535.853	37645.25
536.054	37788.61
536.255	37759.94
536.456	37262.28
536.657	38114.23
536.857	37428.16
537.058	37225.42
537.259	38040.51
537.46	37800.9
537.66	37571.52
537.861	37598.15
538.062	37530.56
538.263	37534.66
538.463	37579.71
538.664	37733.31
538.865	37690.3
539.065	37917.63
539.266	37348.29
539.466	37544.9
539.667	37237.7
539.868	37426.12
540.068	37524.42
540.269	37594.05
540.469	37577.67
540.67	37608.39
540.87	37870.53
541.071	37333.96
541.271	37821.37
541.472	37442.5
541.672	37714.88
541.873	37290.95
542.073	36991.95
542.274	37923.77
542.474	37624.77
542.675	37632.96
542.875	38126.52
543.075	37329.86
543.276	37428.16
543.476	37817.28
543.676	37198.79
543.877	37516.23
544.077	37702.59
544.277	37700.54
544.478	37776.32
544.678	37901.25
544.878	37788.61
545.078	37495.75
545.279	37211.08
545.479	37127.11
545.679	37544.9
545.879	37430.21
546.079	37569.47
546.28	37475.27
546.48	37129.16
546.68	37700.54
546.88	38192.06
547.08	37338.05
547.28	37577.67
547.48	37395.4
547.68	37442.5
547.88	37094.35
548.081	37532.61
548.281	37827.52
548.481	37276.62
548.681	37899.2
548.881	37723.07
549.081	37178.31
549.28	37475.27
549.48	37786.56
549.68	37053.39
549.88	37977.02
550.08	37387.21
550.28	37503.94
550.48	37383.11
550.68	37596.1
550.88	37141.45
551.08	37557.19
551.279	37276.62
551.479	37020.62
551.679	37135.31
551.879	37118.92
552.079	37589.95
552.278	37233.61
552.478	37123.02
552.678	37333.96
552.878	37708.74
553.077	37077.96
553.277	37303.24
553.477	37536.71
553.676	37159.88
553.876	37155.79
554.076	36924.36
554.275	37106.63
554.475	36615.12
554.674	37254.09
554.874	37096.39
555.074	37094.35
555.273	37116.87
555.473	36856.78
555.672	36770.77
555.872	36662.22
556.071	36950.99
556.271	36916.17
556.47	36815.82
556.67	36539.35
556.869	36803.53
557.068	36926.41
557.268	36656.08
557.467	36545.49
557.667	36563.92
557.866	36565.97
558.065	36705.23
558.265	35830.75
558.464	36348.89
558.663	36385.75
558.863	35947.48
559.062	36545.49
559.261	35779.55
559.461	36101.08
559.66	35386.34
559.859	36152.28
560.058	35779.55
560.258	35863.52
560.457	35703.78
560.656	36121.56
560.855	35410.92
561.054	35697.63
561.253	35105.77
561.453	35689.44
561.652	35533.79
561.851	35877.85
562.05	35486.69
562.249	35372
562.448	35617.76
562.647	35431.4
562.846	35380.2
563.045	35199.97
563.244	34966.51
563.443	35357.67
563.642	35070.95
563.841	35005.42
564.04	34520.05
564.239	35163.11
564.438	34726.89
564.637	34786.29
564.836	34892.78
565.035	34479.09
565.234	34913.26
565.432	34411.51
565.631	34542.58
565.83	34575.34
566.029	34524.15
566.228	34399.22
566.427	34292.72
566.625	34288.63
566.824	33813.5
567.023	34065.4
567.222	33571.84
567.42	33815.55
567.619	33854.46
567.818	33782.78
568.016	33676.29
568.215	33868.8
568.414	33612.8
568.612	33676.29
568.811	33557.5
569.01	33373.19
569.208	33188.87
569.407	33465.35
569.605	32986.12
569.804	33129.48
570.002	32875.53
570.201	33109
570.4	33176.58
570.598	32893.96
570.797	32328.72
570.995	32744.46
571.193	32306.2
571.392	32273.43
571.59	31949.85
571.789	32420.88
571.987	32140.31
572.186	32089.11
572.384	31743
572.582	32060.44
572.781	32125.97
572.979	31286.31
573.177	31505.44
573.376	32226.32
573.574	31454.24
573.772	31415.33
573.971	31157.28
574.169	31282.21
574.367	30972.97
574.565	31460.38
574.763	31093.8
574.962	30700.59
575.16	30149.68
575.358	31087.65
575.556	30331.95
575.754	31020.07
575.952	30381.1
576.151	30831.66
576.349	30125.11
576.547	30157.88
576.745	30078.01
576.943	30078.01
577.141	30125.11
577.339	30250.03
577.537	30030.9
577.735	29832.25
577.933	29228.1
578.131	30035
578.329	29377.6
578.527	29381.7
578.725	29422.66
578.923	29346.88
579.121	28834.89
579.319	29207.62
579.516	29322.3
579.714	29183.04
579.912	28779.59
580.11	29025.35
580.308	28912.71
580.506	28716.11
580.704	28101.72
580.901	28585.04
581.099	28724.3
581.297	27939.93
581.495	28410.96
581.692	28333.14
581.89	28206.16
582.088	28118.1
582.285	27923.54
582.483	27815
582.681	27858.01
582.878	27849.82
583.076	27833.43
583.274	27747.42
583.471	27339.87
583.669	27307.1
583.866	27479.13
584.064	27593.82
584.262	26907.75
584.459	27247.71
584.657	27133.03
584.854	27329.63
585.052	26430.57
585.249	26885.22
585.447	26854.5
585.644	26465.39
585.841	26725.48
586.039	26551.4
586.236	26215.54
586.434	26145.91
586.631	26350.7
586.828	26256.5
587.026	26113.14
587.223	25736.31
587.42	26041.46
587.618	26096.75
587.815	25699.45
588.012	25705.59
588.21	25629.82
588.407	25867.38
588.604	25463.93
588.801	25142.4
588.999	25474.17
589.196	25269.37
589.393	25445.5
589.59	24892.55
589.787	25148.54
589.984	24929.41
590.182	24700.04
590.379	24810.63
590.576	24665.22
590.773	24773.77
590.97	24560.78
591.167	24579.21
591.364	24347.79
591.561	24540.3
591.758	24374.41
591.955	24421.52
592.152	24454.28
592.349	23907.48
592.546	23995.54
592.743	24081.55
592.94	23585.94
593.137	24128.66
593.334	24013.97
593.531	23815.32
593.727	23518.36
593.924	23702.68
594.121	23317.66
594.318	23635.1
594.515	22963.36
594.712	23606.42
594.908	23194.78
595.105	22803.62
595.302	22975.65
595.499	23135.39
595.696	23215.26
595.892	22926.5
596.089	22885.54
596.286	22654.12
596.482	23116.96
596.679	22662.31
596.876	22981.79
597.072	22494.38
597.269	22645.93
597.466	22236.33
597.662	22295.72
597.859	22197.42
598.055	22308.01
598.252	22144.17
598.448	21873.84
598.645	22275.24
598.841	21957.81
599.038	21945.52
599.234	22109.36
599.431	21578.93
599.627	21753.01
599.824	21935.28
600.02	21376.19
600.217	21554.36
600.413	21497.02
600.609	21464.25
600.806	20894.91
601.002	21331.13
601.198	21107.9
601.395	21013.7
601.591	21183.68
601.787	21116.09
601.984	20927.68
602.18	21204.16
602.376	20856
602.572	20438.22
602.769	20495.56
602.965	20577.48
603.161	20673.73
603.357	20171.98
603.553	20462.79
603.75	20493.51
603.946	20182.22
604.142	20174.03
604.338	19958.99
604.534	20544.71
604.73	20061.39
604.926	19903.7
605.122	19907.79
605.318	19725.52
605.514	19459.29
605.71	19526.87
605.906	19434.71
606.102	19414.23
606.298	19723.48
606.494	19395.8
606.69	19174.62
606.886	19565.78
607.082	19203.29
607.278	19590.36
607.474	18812.13
607.67	19053.79
607.866	18805.99
608.062	19008.73
608.257	18922.72
608.453	18812.13
608.649	18943.2
608.845	18418.92
609.041	18822.37
609.236	18863.33
609.432	18568.42
609.628	18709.73
609.824	18470.12
610.019	18377.96
610.215	18404.58
610.411	18238.7
610.606	18375.91
610.802	18296.04
610.998	18279.66
611.193	18345.19
611.389	17767.66
611.584	18212.07
611.78	17870.06
611.976	18048.24
612.171	17833.2
612.367	17771.76
612.562	17765.62
612.758	18040.04
612.953	17673.46
613.149	17997.04
613.344	17521.91
613.539	17775.86
613.735	17650.93
613.93	17579.25
614.126	17437.94
614.321	17562.87
614.517	17630.45
614.712	17478.9
614.907	17229.05
615.103	17235.19
615.298	16960.77
615.493	17284.34
615.688	17081.6
615.884	17415.41
616.079	16866.56
616.274	17022.2
616.47	17079.55
616.665	16860.41
616.86	16940.29
617.055	16880.89
617.25	16663.81
617.445	16764.16
617.641	16475.4
617.836	16770.3
618.031	16612.61
618.226	16549.12
618.421	16565.51
618.616	16665.86
618.811	16030.99
619.006	16444.68
619.201	16014.6
619.396	16213.26
619.591	15783.18
619.786	16065.8
619.981	15799.57
620.176	16020.75
620.371	15789.33
620.566	15895.82
620.761	15648.02
620.956	15688.98
621.151	15287.57
621.346	15643.92
621.541	15465.75
621.735	15598.87
621.93	15299.86
622.125	15195.42
622.32	14920.99
622.515	15101.21
622.709	14880.03
622.904	14841.12
623.099	14863.65
623.294	14708
623.488	14398.76
623.683	14355.75
623.878	14370.08
624.072	14423.33
624.267	14275.88
624.462	14171.43
624.656	13909.29
624.851	14175.53
625.046	13985.07
625.24	14073.13
625.435	13520.18
625.629	13864.24
625.824	13907.24
626.018	13677.87
626.213	13350.2
626.407	13456.69
626.602	13266.23
626.796	13413.68
626.991	13395.25
627.185	13045.05
627.38	13202.74
627.574	13051.19
627.768	12832.06
627.963	12885.31
628.157	12809.53
628.352	12991.8
628.546	12676.41
628.74	12748.09
628.935	12526.91
629.129	12524.86
629.323	12422.47
629.517	12647.74
629.712	12428.61
629.906	12191.05
630.1	12211.53
630.294	12266.82
630.489	11836.75
630.683	12076.36
630.877	11961.67
631.071	11717.97
631.265	11736.4
631.459	11566.42
631.653	11892.04
631.848	11713.87
632.042	11701.58
632.236	11511.12
632.43	11580.75
632.624	11574.61
632.818	11332.95
633.012	11191.64
633.206	11183.45
633.4	10990.94
633.594	10898.78
633.788	10956.12
633.982	10990.94
634.176	10964.31
634.369	10769.76
634.563	10790.24
634.757	10851.67
634.951	10876.25
635.145	10759.52
635.339	10698.08
635.533	10511.71
635.726	10354.02
635.92	10247.52
636.114	10618.21
636.308	10337.63
636.501	10231.14
636.695	10130.79
636.889	10122.6
637.083	10130.79
637.276	9942.38
637.47	9981.29
637.664	10071.4
637.857	9991.53
638.051	9758.06
638.244	9694.57
638.438	9768.3
638.632	9461.1
638.825	9753.96
639.019	9420.14
639.212	9547.12
639.406	9450.86
639.599	9592.17
639.793	9528.69
639.986	9235.83
640.18	9233.78
640.373	9250.16
640.567	9221.49
640.76	9057.65
640.954	9168.24
641.147	9055.61
641.34	8916.34
641.534	9213.3
641.727	9115
641.92	8932.73
642.114	8609.15
642.307	8553.85
642.5	8500.61
642.694	8447.36
642.887	8240.51
643.08	8621.44
643.273	8344.96
643.467	8373.63
643.66	8326.53
643.853	8199.55
644.046	8095.11
644.239	8228.23
644.432	8056.2
644.626	8109.44
644.819	8093.06
645.012	7947.65
645.205	7978.37
645.398	7961.99
645.591	7693.71
645.784	7837.06
645.977	7779.72
646.17	7808.39
646.363	7619.98
646.556	7679.37
646.749	7570.83
646.942	7566.73
647.135	7431.57
647.328	7490.96
647.521	7171.47
647.714	7392.66
647.907	7280.02
648.099	7361.94
648.292	7323.02
648.485	7161.23
648.678	6923.67
648.871	7073.17
649.064	6888.85
649.256	7085.46
649.449	6897.05
649.642	6808.98
649.835	7050.64
650.027	6843.8
650.22	6675.87
650.413	6837.66
650.605	6897.05
650.798	6829.46
650.991	6702.49
651.183	6567.32
651.376	6524.32
651.568	6614.43
651.761	6501.79
651.954	6409.63
652.146	6460.83
652.339	6305.18
652.531	6383.01
652.724	6192.55
652.916	6309.28
653.109	6141.35
653.301	6186.4
653.494	6309.28
653.686	6071.72
653.879	6065.57
654.071	5995.94
654.263	5901.73
654.456	5993.89
654.648	5914.02
654.84	5797.29
655.033	5748.14
655.225	5760.42
655.417	5930.41
655.61	5787.05
655.802	5649.83
655.994	5701.03
656.186	5629.35
656.379	5612.97
656.571	5602.73
656.763	5455.28
656.955	5567.92
657.148	5580.2
657.34	5461.42
657.532	5473.71
657.724	5502.38
657.916	5402.03
658.108	5424.56
658.3	5281.2
658.492	5293.49
658.684	5223.86
658.876	5234.1
659.068	5166.51
659.26	5062.07
659.452	5043.64
659.644	4990.39
659.836	4853.17
660.028	4885.94
660.22	4961.72
660.412	4984.24
660.604	4951.48
660.796	4838.84
660.988	4963.76
661.18	4732.34
661.372	4648.38
661.563	4636.09
661.755	4685.24
661.947	4808.12
662.139	4668.86
662.331	4666.81
662.522	4582.84
662.714	4689.34
662.906	4509.12
663.097	4451.77
663.289	4470.2
663.481	4566.46
663.673	4478.4
663.864	4492.73
664.056	4330.94
664.247	4425.15
664.439	4302.27
664.631	4341.18
664.822	4308.41
665.014	4289.98
665.205	4203.97
665.397	4224.45
665.588	4203.97
665.78	4120
665.971	4087.23
666.163	3956.16
666.354	4142.53
666.546	4029.89
666.737	4023.75
666.929	4150.72
667.12	3958.21
667.311	4015.55
667.503	3864.01
667.694	3882.44
667.885	3937.73
668.077	3833.29
668.268	3898.82
668.459	3884.48
668.651	3814.85
668.842	3745.22
669.033	3777.99
669.224	3816.9
669.416	3749.32
669.607	3653.06
669.798	3657.16
669.989	3777.99
670.18	3761.61
670.371	3636.68
670.563	3714.5
670.754	3630.54
670.945	3694.02
671.136	3560.91
671.327	3542.47
671.518	3558.86
671.709	3497.42
671.9	3460.56
672.091	3456.46
672.282	3577.29
672.473	3384.78
672.664	3464.65
672.855	3495.37
673.046	3325.39
673.237	3427.79
673.428	3388.88
673.619	3509.71
673.809	3364.3
674	3294.67
674.191	3343.82
674.382	3311.05
674.573	3243.47
674.764	3198.42
674.954	3395.02
675.145	3323.34
675.336	3266
675.527	3196.37
675.717	3237.33
675.908	3317.2
676.099	3218.89
676.289	3261.9
676.48	3077.59
676.671	3186.13
676.861	3104.21
677.052	3120.59
677.243	2973.14
677.433	3218.89
677.624	3024.34
677.814	3130.83
678.005	3048.91
678.195	3106.26
678.386	3071.44
678.576	2999.76
678.767	3038.67
678.957	2969.04
679.148	3010
679.338	3022.29
679.529	2987.47
679.719	2921.94
679.909	3026.39
680.1	2987.47
680.29	2969.04
680.481	3005.91
680.671	3030.48
680.861	2852.31
681.052	2940.37
681.242	2850.26
681.432	2989.52
681.622	2876.88
681.813	2938.32
682.003	2934.23
682.193	2934.23
682.383	2905.56
682.573	2883.03
682.764	2872.79
682.954	2684.38
683.144	2913.75
683.334	2778.58
683.524	2801.11
683.714	2870.74
683.904	2639.32
684.094	2799.06
684.284	2907.6
684.474	2733.53
684.664	2690.52
684.854	2729.43
685.044	2751.96
685.234	2864.6
685.424	2745.81
685.614	2760.15
685.804	2727.38
685.994	2768.34
686.184	2737.62
686.374	2745.81
686.564	2719.19
686.753	2637.27
686.943	2610.65
687.133	2631.13
687.323	2643.42
687.513	2643.42
687.702	2608.6
687.892	2661.85
688.082	2692.57
688.272	2725.33
688.461	2692.57
688.651	2538.97
688.841	2688.47
689.03	2622.94
689.22	2549.21
689.41	2557.4
689.599	2526.68
689.789	2563.54
689.979	2588.12
690.168	2600.41
690.358	2528.73
690.547	2606.55
690.737	2543.07
690.926	2645.46
691.116	2575.83
691.305	2633.18
691.495	2518.49
691.684	2381.28
691.874	2592.22
692.063	2598.36
692.252	2588.12
692.442	2518.49
692.631	2416.09
692.82	2516.44
693.01	2606.55
693.199	2512.35
693.388	2373.08
693.578	2493.91
693.767	2559.45
693.956	2524.63
694.146	2450.91
694.335	2543.07
694.524	2616.79
694.713	2559.45
694.902	2455
695.092	2459.1
695.281	2418.14
695.47	2440.67
695.659	2440.67
695.848	2491.87
696.037	2471.39
696.226	2573.78
696.415	2461.15
696.604	2575.83
696.793	2422.24
696.982	2575.83
697.171	2461.15
697.36	2426.33
697.549	2508.25
697.738	2426.33
697.927	2373.08
698.116	2475.48
698.305	2489.82
698.494	2403.8
698.683	2524.63
698.872	2541.02
699.061	2266.59
699.25	2418.14
699.438	2420.19
699.627	2412
699.816	2381.28
700.005	2467.29
700.193	2520.54
700.382	2438.62
700.571	2430.43
700.76	2393.56
700.948	2375.13
701.137	2409.95
701.326	2432.47
701.514	2350.56
701.703	2362.84
701.892	2276.83
702.08	2452.95
702.269	2344.41
702.457	2366.94
702.646	2389.47
702.834	2440.67
703.023	2325.98
703.212	2405.85
703.4	2295.26
703.589	2295.26
703.777	2289.12
703.965	2379.23
704.154	2262.49
704.342	2285.02
704.531	2362.84
704.719	2211.29
704.907	2213.34
705.096	2217.44
705.284	2422.24
705.472	2145.76
705.661	2233.82
705.849	2311.64
706.037	2282.97
706.226	2272.73
706.414	2250.21
706.602	2280.93
706.79	2280.93
706.979	2254.3
707.167	2289.12
707.355	2305.5
707.543	2250.21
707.731	2244.06
707.919	2186.72
708.107	2135.52
708.296	2149.86
708.484	2153.95
708.672	2151.9
708.86	2065.89
709.048	2117.09
709.236	2100.7
709.424	2049.5
709.612	2115.04
709.8	2072.03
709.988	2053.6
710.176	2059.74
710.364	2090.46
710.551	2141.66
710.739	2053.6
710.927	2067.94
711.115	2127.33
711.303	2043.36
711.491	2024.93
711.679	2082.27
711.866	2139.62
712.054	2014.69
712.242	1934.82
712.43	2018.79
712.617	2020.83
712.805	1934.82
712.993	1994.21
713.181	1959.39
713.368	1965.54
713.556	2010.59
713.744	1994.21
713.931	2078.18
714.119	1953.25
714.306	1865.19
714.494	2004.45
714.682	1846.76
714.869	1998.31
715.057	2053.6
715.244	2053.6
715.432	1926.63
715.619	1818.08
715.807	1832.42
715.994	1906.15
716.182	1836.52
716.369	1779.17
716.556	1981.92
716.744	1865.19
716.931	1818.08
717.119	1793.51
717.306	1967.59
717.493	1795.56
717.681	1775.08
717.868	1785.32
718.055	1822.18
718.242	1818.08
718.43	1740.26
718.617	1738.21
718.804	1736.17
718.991	1781.22
719.179	1742.31
719.366	1754.6
719.553	1672.68
719.74	1658.34
719.927	1717.73
720.114	1637.86
720.301	1713.64
720.488	1740.26
720.676	1684.97
720.863	1707.49
721.05	1666.53
721.237	1740.26
721.424	1598.95
721.611	1580.52
721.798	1641.96
721.985	1619.43
722.172	1641.96
722.358	1633.77
722.545	1508.84
722.732	1660.39
722.919	1615.34
723.106	1709.54
723.293	1607.14
723.48	1621.48
723.667	1596.9
723.853	1564.14
724.04	1601
724.227	1562.09
724.414	1555.94
724.6	1453.55
724.787	1635.82
724.974	1527.27
725.161	1492.46
725.347	1457.64
725.534	1607.14
725.72	1514.98
725.907	1410.54
726.094	1537.51
726.28	1490.41
726.467	1404.39
726.653	1439.21
726.84	1418.73
727.027	1471.98
727.213	1433.07
727.4	1523.18
727.586	1439.21
727.773	1482.22
727.959	1457.64
728.145	1545.7
728.332	1385.96
728.518	1410.54
728.705	1494.51
728.891	1484.27
729.077	1471.98
729.264	1312.24
729.45	1379.82
729.636	1408.49
729.823	1355.24
730.009	1410.54
730.195	1410.54
730.382	1414.63
730.568	1414.63
730.754	1385.96
730.94	1369.58
731.126	1299.95
731.313	1367.53
731.499	1336.81
731.685	1361.39
731.871	1285.61
732.057	1322.48
732.243	1385.96
732.429	1250.8
732.615	1375.72
732.801	1222.13
732.987	1285.61
733.173	1287.66
733.359	1353.2
733.545	1293.8
733.731	1240.56
733.917	1295.85
734.103	1291.76
734.289	1195.5
734.475	1238.51
734.661	1322.48
734.847	1168.88
735.033	1252.84
735.219	1238.51
735.404	1252.84
735.59	1297.9
735.776	1256.94
735.962	1279.47
736.148	1105.39
736.333	1172.97
736.519	1197.55
736.705	1213.93
736.89	1175.02
737.076	1070.58
737.262	1252.84
737.447	1162.73
737.633	1140.21
737.819	1187.31
738.004	1185.26
738.19	1127.92
738.375	1142.25
738.561	1156.59
738.747	1146.35
738.932	1142.25
739.118	1134.06
739.303	1062.38
739.489	1185.26
739.674	1164.78
739.859	1046
740.045	1127.92
740.23	1082.86
740.416	1066.48
740.601	1187.31
740.786	1013.23
740.972	1121.77
741.157	1129.97
741.342	1142.25
741.528	1013.23
741.713	1113.58
741.898	1033.71
742.084	1084.91
742.269	1002.99
742.454	1058.29
742.639	1109.49
742.824	998.9
743.01	1097.2
743.195	1021.42
743.38	994.8
743.565	1052.14
743.75	982.51
743.935	976.37
744.12	1078.77
744.305	916.98
744.49	931.31
744.675	988.66
744.86	959.99
745.045	1002.99
745.23	964.08
745.415	970.23
745.6	1039.86
745.785	929.27
745.97	888.31
746.155	947.7
746.34	921.07
746.525	970.23
746.71	878.07
746.895	947.7
747.079	980.47
747.264	966.13
747.449	906.74
747.634	943.6
747.819	888.31
748.003	853.49
748.188	880.11
748.373	949.75
748.557	900.59
748.742	818.68
748.927	828.92
749.111	880.11
749.296	878.07
749.481	790
749.665	898.55
749.85	751.09
750.034	896.5
750.219	873.97
750.404	845.3
750.588	884.21
750.773	861.68
750.957	830.96
751.141	798.2
751.326	798.2
751.51	826.87
751.695	771.57
751.879	738.8
752.064	884.21
752.248	771.57
752.432	730.61
752.617	839.16
752.801	740.85
752.985	710.13
753.17	765.43
753.354	835.06
753.538	785.91
753.722	691.7
753.907	753.14
754.091	701.94
754.275	783.86
754.459	665.08
754.643	703.99
754.828	687.61
755.012	775.67
755.196	695.8
755.38	849.4
755.564	755.19
755.748	710.13
755.932	681.46
756.116	736.76
756.3	601.59
756.484	660.98
756.668	699.89
756.852	624.12
757.036	589.3
757.22	607.73
757.404	622.07
757.588	671.22
757.772	640.5
757.956	683.51
758.14	685.56
758.323	667.13
758.507	534.01
758.691	556.54
758.875	603.64
759.059	593.4
759.242	591.35
759.426	564.73
759.61	624.12
759.794	554.49
759.977	589.3
760.161	556.54
760.345	599.54
760.528	669.17
760.712	656.89
760.895	630.26
761.079	521.72
761.263	525.82
761.446	552.44
761.63	564.73
761.813	620.02
761.997	574.97
762.18	507.38
762.364	605.69
762.547	527.86
762.731	525.82
762.914	564.73
763.098	628.21
763.281	529.91
763.464	572.92
763.648	562.68
763.831	548.34
764.015	529.91
764.198	542.2
764.381	581.11
764.564	501.24
764.748	505.34
764.931	548.34
765.114	501.24
765.297	470.52
765.481	480.76
765.664	558.58
765.847	454.14
766.03	435.71
766.213	546.3
766.397	527.86
766.58	484.86
766.763	515.58
766.946	577.02
767.129	482.81
767.312	534.01
767.495	536.06
767.678	435.71
767.861	548.34
768.044	574.97
768.227	435.71
768.41	431.61
768.593	507.38
768.776	556.54
768.959	421.37
769.142	499.19
769.324	525.82
769.507	447.99
769.69	497.14
769.873	478.71
770.056	546.3
770.239	462.33
770.421	482.81
770.604	474.62
770.787	402.94
770.97	538.1
771.152	474.62
771.335	419.32
771.518	421.37
771.7	505.34
771.883	482.81
772.066	519.67
772.248	474.62
772.431	482.81
772.613	441.85
772.796	486.9
772.978	423.42
773.161	443.9
773.343	464.38
773.526	447.99
773.708	429.56
773.891	394.75
774.073	454.14
774.256	359.93
774.438	501.24
774.621	480.76
774.803	445.95
774.985	480.76
775.168	443.9
775.35	460.28
775.532	386.55
775.715	394.75
775.897	368.12
776.079	431.61
776.261	474.62
776.444	382.46
776.626	435.71
776.808	351.74
776.99	321.02
777.173	351.74
777.355	447.99
777.537	343.55
777.719	294.4
777.901	402.94
778.083	359.93
778.265	398.84
778.447	400.89
778.629	351.74
778.811	353.79
778.993	341.5
779.175	372.22
779.357	347.64
779.539	294.4
779.721	384.51
779.903	390.65
780.085	341.5
780.267	321.02
780.449	353.79
780.631	316.92
780.812	394.75
780.994	267.77
781.176	300.54
781.358	323.07
781.54	224.76
781.721	249.34
781.903	355.83
782.085	374.27
782.267	247.29
782.448	288.25
782.63	294.4
782.812	304.64
782.993	310.78
783.175	368.12
783.357	312.83
783.538	310.78
783.72	316.92
783.901	294.4
784.083	232.96
784.264	316.92
784.446	210.43
784.627	157.18
784.809	273.92
784.99	327.16
785.172	251.39
785.353	269.82
785.535	366.07
785.716	241.15
785.897	278.01
786.079	255.48
786.26	278.01
786.441	206.33
786.623	206.33
786.804	224.76
786.985	241.15
787.167	214.52
787.348	194.05
787.529	284.16
787.71	278.01
787.891	245.24
788.073	232.96
788.254	165.37
788.435	218.62
788.616	226.81
788.797	239.1
788.978	228.86
789.159	187.9
789.34	300.54
789.522	257.53
789.703	245.24
789.884	239.1
790.065	212.48
790.246	253.44
790.427	255.48
790.607	253.44
790.788	267.77
790.969	214.52
791.15	212.48
791.331	198.14
791.512	228.86
791.693	200.19
791.874	218.62
792.054	216.57
792.235	259.58
792.416	169.47
792.597	157.18
792.778	224.76
792.958	282.11
793.139	216.57
793.32	232.96
793.5	196.09
793.681	210.43
793.862	173.57
794.042	116.22
794.223	144.89
794.404	185.85
794.584	204.28
794.765	202.24
794.945	196.09
795.126	222.72
795.306	204.28
795.487	192
795.667	138.75
795.848	204.28
796.028	189.95
796.209	185.85
796.389	202.24
796.57	167.42
796.75	120.32
796.93	163.33
797.111	185.85
797.291	198.14
797.471	114.17
797.652	126.46
797.832	108.03
798.012	124.41
798.192	134.65
798.373	97.79
798.553	110.08
798.733	138.75
798.913	173.57
799.093	105.98
799.274	181.76
799.454	181.76
799.634	157.18
799.814	138.75
799.994	148.99
800.174	140.8
800.354	103.93
800.534	89.6
800.714	101.89
800.894	134.65
801.074	108.03
801.254	138.75
801.434	171.52
801.614	157.18
801.794	157.18
801.974	288.25
802.154	157.18
802.334	126.46
802.514	128.51
802.693	171.52
802.873	24.06
803.053	85.5
803.233	122.37
803.413	222.72
803.592	118.27
803.772	122.37
803.952	144.89
804.131	105.98
804.311	118.27
804.491	132.61
804.67	93.69
804.85	112.13
805.03	153.09
805.209	175.61
805.389	169.47
805.568	153.09
805.748	83.45
805.928	69.12
806.107	142.85
806.287	110.08
806.466	95.74
806.646	183.81
806.825	87.55
807.004	153.09
807.184	148.99
807.363	116.22
807.543	173.57
807.722	122.37
807.901	32.26
808.081	114.17
808.26	79.36
808.439	93.69
808.619	83.45
808.798	108.03
808.977	140.8
809.156	75.26
809.336	87.55
809.515	105.98
809.694	95.74
809.873	91.65
810.052	99.84
810.231	187.9
810.411	122.37
810.59	71.17
810.769	65.02
810.948	153.09
811.127	89.6
811.306	105.98
811.485	67.07
811.664	46.59
811.843	110.08
812.022	118.27
812.201	81.41
812.38	83.45
812.559	48.64
812.737	124.41
812.916	142.85
813.095	36.35
813.274	73.21
813.453	134.65
813.632	50.69
813.811	81.41
813.989	130.56
814.168	93.69
814.347	103.93
814.526	69.12
814.704	69.12
814.883	97.79
815.062	60.93
815.24	103.93
815.419	79.36
815.598	34.3
815.776	46.59
815.955	22.02
816.133	48.64
816.312	105.98
816.49	69.12
816.669	144.89
816.847	24.06
817.026	42.5
817.204	38.4
817.383	48.64
817.561	28.16
817.74	157.18
817.918	132.61
818.097	112.13
818.275	105.98
818.453	46.59
818.632	65.02
818.81	77.31
818.988	95.74
819.167	91.65
819.345	58.88
819.523	42.5
819.701	83.45
819.879	75.26
820.058	73.21
820.236	103.93
820.414	19.97
820.592	65.02
820.77	40.45
820.948	44.54
821.127	56.83
821.305	1.54
821.483	50.69
821.661	48.64
821.839	46.59
822.017	46.59
822.195	50.69
822.373	124.41
822.551	79.36
822.729	44.54
822.907	24.06
823.085	60.93
823.262	62.98
823.44	71.17
823.618	36.35
823.796	48.64
823.974	103.93
824.152	50.69
824.329	-8.7
824.507	65.02
824.685	75.26
824.863	81.41
825.04	58.88
825.218	89.6
825.396	85.5
825.574	116.22
825.751	56.83
825.929	97.79
826.107	83.45
826.284	62.98
826.462	114.17
826.639	122.37
826.817	42.5
826.994	101.89
827.172	-0.51
827.349	136.7
827.527	103.93
827.704	89.6
827.882	34.3
828.059	140.8
828.237	7.68
828.414	73.21
828.591	58.88
828.769	87.55
828.946	28.16
829.124	32.26
829.301	54.78
829.478	5.63
829.655	56.83
829.833	118.27
830.01	73.21
830.187	97.79
830.364	52.74
830.542	36.35
830.719	50.69
830.896	69.12
831.073	108.03
831.25	124.41
831.427	114.17
831.604	50.69
831.782	83.45
831.959	85.5
832.136	40.45
832.313	105.98
832.49	15.87
832.667	50.69
832.844	77.31
833.021	79.36
833.198	73.21
833.374	85.5
833.551	7.68
833.728	11.78
833.905	36.35
834.082	120.32
834.259	97.79
834.436	67.07
834.612	75.26
834.789	56.83
834.966	-45.57
835.143	44.54
835.319	54.78
835.496	128.51
835.673	93.69
835.85	32.26
836.026	26.11
836.203	40.45
836.38	54.78
836.556	46.59
836.733	54.78
836.909	48.64
837.086	19.97
837.262	-2.56
837.439	50.69
837.616	11.78
837.792	99.84
837.968	-8.7
838.145	69.12
838.321	34.3
838.498	32.26
838.674	87.55
838.851	40.45
839.027	19.97
839.203	11.78
839.38	5.63
839.556	42.5
839.732	62.98
839.909	60.93
840.085	22.02
840.261	56.83
840.437	58.88
840.614	62.98
840.79	42.5
840.966	1.54
841.142	40.45
841.318	42.5
841.494	126.46
841.671	81.41
841.847	-27.14
842.023	17.92
842.199	87.55
842.375	42.5
842.551	22.02
842.727	26.11
842.903	38.4
843.079	34.3
843.255	105.98
843.431	91.65
843.607	19.97
843.783	26.11
843.959	15.87
844.134	-14.85
844.31	87.55
844.486	7.68
844.662	5.63
844.838	40.45
845.013	77.31
845.189	-2.56
845.365	67.07
845.541	48.64
845.716	-10.75
845.892	48.64
846.068	40.45
846.244	-14.85
846.419	56.83
846.595	34.3
846.77	-47.62
846.946	19.97
847.122	44.54
847.297	-0.51
847.473	48.64
847.648	-2.56
847.824	-29.18
847.999	122.37
848.175	71.17
848.35	40.45
848.526	42.5
848.701	62.98
848.876	-27.14
849.052	71.17
849.227	48.64
849.403	11.78
849.578	19.97
849.753	124.41
849.929	81.41
850.104	75.26
850.279	7.68
850.454	87.55
850.63	-49.66
850.805	-74.24
850.98	44.54
851.155	36.35
851.33	60.93
851.505	46.59
851.681	62.98
851.856	46.59
852.031	32.26
852.206	15.87
852.381	-10.75
852.556	65.02
852.731	-25.09
852.906	62.98
853.081	58.88
853.256	77.31
853.431	3.58
853.606	11.78
853.781	22.02
853.956	-4.61
854.131	7.68
854.305	11.78
854.48	9.73
854.655	19.97
854.83	-55.81
855.005	46.59
855.18	42.5
855.354	28.16
855.529	44.54
855.704	-2.56
855.879	5.63
856.053	-4.61
856.228	103.93
856.403	87.55
856.577	13.82
856.752	65.02
856.926	-2.56
857.101	32.26
857.276	71.17
857.45	60.93
857.625	1.54
857.799	44.54
857.974	50.69
858.148	-4.61
858.323	71.17
858.497	7.68
858.672	58.88
858.846	-6.66
859.02	-10.75
859.195	-8.7
859.369	30.21
859.543	-18.94
859.718	-18.94
859.892	83.45
860.066	-35.33
860.241	9.73
860.415	48.64
860.589	13.82
860.763	-41.47
860.938	56.83
861.112	9.73
861.286	-12.8
861.46	-18.94
861.634	-4.61
861.808	7.68
861.982	52.74
862.157	-8.7
862.331	-57.86
862.505	17.92
862.679	46.59
862.853	93.69
863.027	-6.66
863.201	52.74
863.375	60.93
863.549	42.5
863.722	42.5
863.896	87.55
864.07	60.93
864.244	-10.75
864.418	13.82
864.592	46.59
864.766	65.02
864.939	-49.66
865.113	-29.18
865.287	15.87
865.461	-37.38
865.634	114.17
865.808	77.31
865.982	7.68
866.156	99.84
866.329	67.07
866.503	17.92
866.676	-31.23
866.85	-41.47
867.024	65.02
867.197	30.21
867.371	-57.86
867.544	-27.14
867.718	-2.56
867.891	60.93
868.065	62.98
868.238	85.5
868.412	28.16
868.585	11.78
868.759	42.5
868.932	24.06
869.105	-57.86
869.279	36.35
869.452	19.97
869.625	32.26
869.799	-23.04
869.972	3.58
870.145	62.98
870.319	30.21
870.492	-0.51
870.665	-33.28
870.838	46.59
871.011	38.4
871.185	-0.51
871.358	9.73
871.531	79.36
871.704	22.02
871.877	1.54
872.05	24.06
872.223	36.35
872.396	91.65
872.569	-16.9
872.742	32.26
872.915	52.74
873.088	13.82
873.261	7.68
873.434	1.54
873.607	79.36
873.78	17.92
873.953	7.68
874.126	-23.04
874.299	3.58
874.471	22.02
874.644	3.58
874.817	-2.56
874.99	38.4
875.163	9.73
875.335	26.11
875.508	-29.18
875.681	13.82
875.853	-6.66
876.026	7.68
876.199	-51.71
876.371	54.78
876.544	-31.23
876.717	83.45
876.889	24.06
877.062	7.68
877.234	3.58
877.407	26.11
877.579	-20.99
877.752	71.17
877.924	-0.51
878.097	-29.18
878.269	7.68
878.442	42.5
878.614	-0.51
878.786	22.02
878.959	13.82
879.131	1.54
879.303	-41.47
879.476	-39.42
879.648	-14.85
879.82	79.36
879.993	-14.85
880.165	52.74
880.337	15.87
880.509	9.73
880.681	19.97
880.854	3.58
881.026	46.59
881.198	11.78
881.37	3.58
881.542	38.4
881.714	69.12
881.886	-4.61
882.058	75.26
882.23	-12.8
882.402	-4.61
882.574	-0.51
882.746	52.74
882.918	36.35
883.09	-41.47
883.262	-29.18
883.434	71.17
883.606	-6.66
883.778	58.88
883.95	62.98
884.122	-35.33
884.293	46.59
884.465	-70.14
884.637	26.11
884.809	-14.85
884.98	-0.51
885.152	7.68
885.324	40.45
885.496	-14.85
885.667	40.45
885.839	40.45
886.011	17.92
886.182	32.26
886.354	26.11
886.525	46.59
886.697	-37.38
886.869	38.4
887.04	38.4
887.212	54.78
887.383	13.82
887.555	67.07
887.726	3.58
887.897	-20.99
888.069	-37.38
888.24	-64
888.412	38.4
888.583	3.58
888.754	99.84
888.926	-16.9
889.097	50.69
889.268	1.54
889.44	13.82
889.611	13.82
889.782	30.21
889.953	-29.18
890.125	60.93
890.296	9.73
890.467	42.5
890.638	7.68
890.809	38.4
890.98	-12.8
891.151	-33.28
891.323	-47.62
891.494	-25.09
891.665	69.12
891.836	42.5
892.007	15.87
892.178	-45.57
892.349	-10.75
892.52	1.54
892.691	48.64
892.862	-10.75
893.032	-2.56
893.203	-23.04
893.374	-8.7
893.545	-55.81
893.716	-6.66
893.887	60.93
894.057	5.63
894.228	40.45
894.399	-27.14
894.57	54.78
894.74	-31.23
894.911	-27.14
895.082	67.07
895.253	-43.52
895.423	30.21
895.594	-0.51
895.764	26.11
895.935	-2.56
896.106	-31.23
896.276	56.83
896.447	-8.7
896.617	48.64
896.788	30.21
896.958	26.11
897.129	-51.71
897.299	26.11
897.47	-12.8
897.64	17.92
897.81	26.11
897.981	-61.95
898.151	-10.75
898.322	15.87
898.492	24.06
898.662	87.55
898.832	60.93
899.003	9.73
899.173	3.58
899.343	-0.51
899.513	-70.14
