Data from USB4F104151__232__14-00-49-479.txt Node

Date: Thu Mar 13 14:00:49 EDT 2025
User: louis
Spectrometer: USB4F10415
Trigger mode: 4
Integration Time (sec): 1.000000E-2
Scans to average: 1
Electric dark correction enabled: true
Nonlinearity correction enabled: false
Boxcar width: 0
XAxis mode: Wavelengths
Number of Pixels in Spectrum: 3648
>>>>>Begin Spectral Data<<<<<
178.204	-69.97
178.424	-69.97
178.644	-69.97
178.864	-59.73
179.084	-35.16
179.304	42.67
179.524	-16.73
179.744	20.14
179.964	16.04
180.184	-86.36
180.404	36.52
180.624	-6.49
180.844	-20.82
181.064	-47.44
181.283	-2.39
181.503	-4.44
181.723	69.29
181.943	-10.58
182.163	5.8
182.383	-35.16
182.602	20.14
182.822	-4.44
183.042	3.75
183.262	-112.98
183.482	-10.58
183.701	9.9
183.921	36.52
184.141	44.71
184.361	1.71
184.58	-4.44
184.8	18.09
185.02	26.28
185.239	57
185.459	30.38
185.679	-61.78
185.898	52.91
186.118	-16.73
186.338	32.43
186.557	83.63
186.777	3.75
186.997	3.75
187.216	20.14
187.436	20.14
187.655	34.47
187.875	-4.44
188.095	-78.16
188.314	63.15
188.534	-20.82
188.753	44.71
188.973	42.67
189.192	11.95
189.412	48.81
189.631	26.28
189.851	93.87
190.07	-2.39
190.29	-16.73
190.509	85.67
190.729	32.43
190.948	48.81
191.168	102.06
191.387	-43.35
191.607	26.28
191.826	52.91
192.045	1.71
192.265	-20.82
192.484	-2.39
192.704	-45.4
192.923	-37.2
193.142	3.75
193.362	-49.49
193.581	-20.82
193.8	16.04
194.02	-22.87
194.239	7.85
194.458	50.86
194.678	-35.16
194.897	13.99
195.116	-16.73
195.335	7.85
195.555	11.95
195.774	-31.06
195.993	18.09
196.212	-10.58
196.432	-18.77
196.651	32.43
196.87	26.28
197.089	32.43
197.308	-16.73
197.528	-4.44
197.747	11.95
197.966	-24.92
198.185	44.71
198.404	-8.53
198.623	38.57
198.842	22.19
199.062	-12.63
199.281	-29.01
199.5	-14.68
199.719	28.33
199.938	11.95
200.157	36.52
200.376	-0.34
200.595	-18.77
200.814	-65.88
201.033	-12.63
201.252	-0.34
201.471	18.09
201.69	26.28
201.909	-26.96
202.128	42.67
202.347	-6.49
202.566	-51.54
202.785	24.23
203.004	3.75
203.223	13.99
203.442	-26.96
203.661	5.8
203.879	16.04
204.098	-20.82
204.317	77.48
204.536	112.3
204.755	20.14
204.974	-8.53
205.193	32.43
205.411	28.33
205.63	-35.16
205.849	-59.73
206.068	20.14
206.287	-2.39
206.505	11.95
206.724	18.09
206.943	-39.25
207.162	-35.16
207.381	36.52
207.599	46.76
207.818	44.71
208.037	11.95
208.255	77.48
208.474	-16.73
208.693	16.04
208.911	16.04
209.13	9.9
209.349	-24.92
209.567	50.86
209.786	7.85
210.005	-8.53
210.223	-16.73
210.442	22.19
210.661	20.14
210.879	32.43
211.098	-12.63
211.316	-43.35
211.535	81.58
211.753	-53.59
211.972	11.95
212.191	-39.25
212.409	-2.39
212.628	-14.68
212.846	1.71
213.065	-12.63
213.283	87.72
213.502	7.85
213.72	34.47
213.938	44.71
214.157	-39.25
214.375	22.19
214.594	-16.73
214.812	-8.53
215.031	3.75
215.249	-33.11
215.467	5.8
215.686	57
215.904	57
216.122	-51.54
216.341	-18.77
216.559	-35.16
216.778	71.34
216.996	18.09
217.214	85.67
217.432	61.1
217.651	-22.87
217.869	-4.44
218.087	73.39
218.306	-4.44
218.524	11.95
218.742	-24.92
218.96	-49.49
219.179	-4.44
219.397	50.86
219.615	-12.63
219.833	5.8
220.051	-41.3
220.27	73.39
220.488	32.43
220.706	-10.58
220.924	67.24
221.142	38.57
221.36	-49.49
221.578	-0.34
221.796	34.47
222.015	61.1
222.233	-33.11
222.451	-0.34
222.669	-43.35
222.887	44.71
223.105	-24.92
223.323	36.52
223.541	-14.68
223.759	44.71
223.977	16.04
224.195	-41.3
224.413	26.28
224.631	1.71
224.849	-35.16
225.067	69.29
225.285	-49.49
225.503	93.87
225.721	-41.3
225.939	36.52
226.157	-86.36
226.375	93.87
226.592	3.75
226.81	-12.63
227.028	28.33
227.246	-26.96
227.464	32.43
227.682	28.33
227.9	7.85
228.117	7.85
228.335	-14.68
228.553	-10.58
228.771	48.81
228.989	9.9
229.206	73.39
229.424	-86.36
229.642	-12.63
229.86	5.8
230.077	38.57
230.295	28.33
230.513	-6.49
230.731	83.63
230.948	38.57
231.166	-33.11
231.384	7.85
231.601	-20.82
231.819	-4.44
232.037	16.04
232.254	20.14
232.472	28.33
232.689	52.91
232.907	7.85
233.125	-6.49
233.342	-35.16
233.56	-20.82
233.777	48.81
233.995	-43.35
234.213	-39.25
234.43	-0.34
234.648	42.67
234.865	11.95
235.083	40.62
235.3	-35.16
235.518	1.71
235.735	20.14
235.953	28.33
236.17	28.33
236.388	38.57
236.605	-53.59
236.822	-53.59
237.04	30.38
237.257	3.75
237.475	26.28
237.692	32.43
237.909	77.48
238.127	77.48
238.344	26.28
238.562	16.04
238.779	40.62
238.996	1.71
239.214	5.8
239.431	-12.63
239.648	42.67
239.865	22.19
240.083	38.57
240.3	44.71
240.517	-10.58
240.735	40.62
240.952	30.38
241.169	-72.02
241.386	-20.82
241.603	-4.44
241.821	-65.88
242.038	-61.78
242.255	38.57
242.472	-10.58
242.689	69.29
242.907	-45.4
243.124	-69.97
243.341	32.43
243.558	61.1
243.775	-12.63
243.992	-49.49
244.209	-0.34
244.426	63.15
244.643	44.71
244.86	-14.68
245.078	65.19
245.295	-2.39
245.512	16.04
245.729	-10.58
245.946	1.71
246.163	1.71
246.38	-43.35
246.597	-10.58
246.814	9.9
247.031	-47.44
247.248	-4.44
247.464	7.85
247.681	11.95
247.898	32.43
248.115	46.76
248.332	36.52
248.549	-26.96
248.766	38.57
248.983	28.33
249.2	-20.82
249.417	44.71
249.633	-33.11
249.85	54.95
250.067	-63.83
250.284	-18.77
250.501	24.23
250.717	61.1
250.934	-22.87
251.151	-45.4
251.368	-45.4
251.585	32.43
251.801	3.75
252.018	44.71
252.235	16.04
252.451	-41.3
252.668	13.99
252.885	30.38
253.102	-18.77
253.318	-12.63
253.535	-22.87
253.752	-59.73
253.968	-47.44
254.185	67.24
254.401	-2.39
254.618	-12.63
254.835	-43.35
255.051	16.04
255.268	-8.53
255.484	61.1
255.701	-45.4
255.917	-8.53
256.134	34.47
256.351	81.58
256.567	-8.53
256.784	20.14
257	-18.77
257.217	32.43
257.433	36.52
257.65	-18.77
257.866	36.52
258.082	44.71
258.299	54.95
258.515	-10.58
258.732	9.9
258.948	-16.73
259.165	11.95
259.381	-14.68
259.597	40.62
259.814	5.8
260.03	-10.58
260.246	-74.07
260.463	24.23
260.679	61.1
260.895	38.57
261.112	-4.44
261.328	-2.39
261.544	9.9
261.761	3.75
261.977	65.19
262.193	38.57
262.409	75.43
262.626	-8.53
262.842	3.75
263.058	24.23
263.274	-41.3
263.49	-31.06
263.707	24.23
263.923	40.62
264.139	7.85
264.355	-35.16
264.571	28.33
264.787	-55.64
265.004	-12.63
265.22	20.14
265.436	71.34
265.652	-57.68
265.868	36.52
266.084	-20.82
266.3	-29.01
266.516	-33.11
266.732	7.85
266.948	11.95
267.164	-16.73
267.38	1.71
267.596	52.91
267.812	20.14
268.028	11.95
268.244	46.76
268.46	65.19
268.676	-16.73
268.892	22.19
269.108	28.33
269.324	-0.34
269.54	32.43
269.756	-4.44
269.972	-61.78
270.188	-2.39
270.403	-8.53
270.619	30.38
270.835	32.43
271.051	22.19
271.267	63.15
271.483	-8.53
271.698	-31.06
271.914	13.99
272.13	-67.92
272.346	40.62
272.562	65.19
272.777	36.52
272.993	-80.21
273.209	-10.58
273.425	69.29
273.64	7.85
273.856	104.11
274.072	-29.01
274.287	-12.63
274.503	83.63
274.719	16.04
274.934	28.33
275.15	-57.68
275.366	-18.77
275.581	-76.12
275.797	22.19
276.012	-51.54
276.228	16.04
276.444	34.47
276.659	-31.06
276.875	-59.73
277.09	-2.39
277.306	59.05
277.521	22.19
277.737	7.85
277.952	73.39
278.168	22.19
278.383	-16.73
278.599	-82.26
278.814	36.52
279.03	26.28
279.245	-2.39
279.461	22.19
279.676	3.75
279.892	-6.49
280.107	54.95
280.322	20.14
280.538	-45.4
280.753	32.43
280.969	81.58
281.184	22.19
281.399	38.57
281.615	-61.78
281.83	-39.25
282.045	-20.82
282.26	-16.73
282.476	-59.73
282.691	20.14
282.906	-0.34
283.122	5.8
283.337	18.09
283.552	-16.73
283.767	48.81
283.983	-78.16
284.198	-57.68
284.413	34.47
284.628	-67.92
284.843	20.14
285.058	-0.34
285.274	54.95
285.489	-14.68
285.704	44.71
285.919	-20.82
286.134	-37.2
286.349	30.38
286.564	48.81
286.779	81.58
286.995	-49.49
287.21	-47.44
287.425	-14.68
287.64	34.47
287.855	38.57
288.07	-0.34
288.285	-43.35
288.5	67.24
288.715	7.85
288.93	11.95
289.145	18.09
289.36	46.76
289.575	-43.35
289.79	13.99
290.004	59.05
290.219	20.14
290.434	38.57
290.649	-39.25
290.864	32.43
291.079	-10.58
291.294	-33.11
291.509	40.62
291.724	46.76
291.938	79.53
292.153	-16.73
292.368	54.95
292.583	3.75
292.798	61.1
293.012	9.9
293.227	63.15
293.442	38.57
293.657	22.19
293.871	50.86
294.086	57
294.301	40.62
294.516	-22.87
294.73	-26.96
294.945	3.75
295.16	-39.25
295.374	20.14
295.589	38.57
295.804	22.19
296.018	-16.73
296.233	32.43
296.447	38.57
296.662	-22.87
296.877	7.85
297.091	26.28
297.306	20.14
297.52	42.67
297.735	-26.96
297.949	20.14
298.164	54.95
298.378	3.75
298.593	-24.92
298.807	40.62
299.022	-16.73
299.236	13.99
299.451	11.95
299.665	13.99
299.88	30.38
300.094	-74.07
300.309	79.53
300.523	-24.92
300.737	85.67
300.952	-8.53
301.166	28.33
301.381	-104.79
301.595	-20.82
301.809	-16.73
302.024	28.33
302.238	-18.77
302.452	54.95
302.667	-26.96
302.881	59.05
303.095	36.52
303.309	-22.87
303.524	7.85
303.738	16.04
303.952	-55.64
304.166	48.81
304.381	-35.16
304.595	-12.63
304.809	-100.69
305.023	-20.82
305.237	-20.82
305.452	3.75
305.666	-10.58
305.88	30.38
306.094	-12.63
306.308	18.09
306.522	91.82
306.736	52.91
306.95	46.76
307.164	30.38
307.379	26.28
307.593	11.95
307.807	75.43
308.021	24.23
308.235	20.14
308.449	114.34
308.663	-8.53
308.877	-37.2
309.091	61.1
309.305	-55.64
309.519	5.8
309.733	18.09
309.947	1.71
310.161	-63.83
310.374	-49.49
310.588	30.38
310.802	-24.92
311.016	16.04
311.23	-0.34
311.444	54.95
311.658	24.23
311.872	20.14
312.085	16.04
312.299	77.48
312.513	65.19
312.727	44.71
312.941	-8.53
313.154	26.28
313.368	-12.63
313.582	16.04
313.796	-61.78
314.009	3.75
314.223	-20.82
314.437	-12.63
314.651	22.19
314.864	-18.77
315.078	-26.96
315.292	-0.34
315.505	20.14
315.719	1.71
315.933	3.75
316.146	-26.96
316.36	-16.73
316.573	40.62
316.787	30.38
317.001	-2.39
317.214	-16.73
317.428	22.19
317.641	-4.44
317.855	40.62
318.068	-6.49
318.282	-53.59
318.495	-29.01
318.709	38.57
318.922	20.14
319.136	61.1
319.349	16.04
319.563	48.81
319.776	-0.34
319.99	24.23
320.203	-8.53
320.417	-26.96
320.63	46.76
320.843	34.47
321.057	-2.39
321.27	40.62
321.483	-2.39
321.697	16.04
321.91	9.9
322.124	11.95
322.337	-18.77
322.55	-45.4
322.763	16.04
322.977	34.47
323.19	22.19
323.403	-12.63
323.617	22.19
323.83	3.75
324.043	-47.44
324.256	-49.49
324.469	7.85
324.683	34.47
324.896	26.28
325.109	52.91
325.322	-18.77
325.535	20.14
325.748	44.71
325.962	-0.34
326.175	30.38
326.388	26.28
326.601	42.67
326.814	-35.16
327.027	36.52
327.24	38.57
327.453	-37.2
327.666	-4.44
327.879	24.23
328.092	24.23
328.305	91.82
328.518	26.28
328.731	-6.49
328.944	79.53
329.157	1.71
329.37	69.29
329.583	46.76
329.796	59.05
330.009	-12.63
330.222	40.62
330.435	-4.44
330.648	69.29
330.861	71.34
331.073	24.23
331.286	22.19
331.499	-8.53
331.712	-24.92
331.925	-20.82
332.138	5.8
332.35	13.99
332.563	-33.11
332.776	40.62
332.989	28.33
333.202	32.43
333.414	22.19
333.627	11.95
333.84	50.86
334.053	-43.35
334.265	-67.92
334.478	67.24
334.691	57
334.903	20.14
335.116	32.43
335.329	81.58
335.541	3.75
335.754	24.23
335.966	50.86
336.179	28.33
336.392	-0.34
336.604	13.99
336.817	-4.44
337.029	38.57
337.242	26.28
337.454	63.15
337.667	-26.96
337.88	100.01
338.092	38.57
338.305	11.95
338.517	18.09
338.729	52.91
338.942	48.81
339.154	42.67
339.367	18.09
339.579	83.63
339.792	-39.25
340.004	44.71
340.217	9.9
340.429	-45.4
340.641	-33.11
340.854	-2.39
341.066	20.14
341.278	16.04
341.491	11.95
341.703	48.81
341.915	11.95
342.128	40.62
342.34	-33.11
342.552	-10.58
342.764	9.9
342.977	-8.53
343.189	63.15
343.401	38.57
343.613	-51.54
343.826	36.52
344.038	-10.58
344.25	-33.11
344.462	-0.34
344.674	-4.44
344.886	-18.77
345.099	36.52
345.311	-24.92
345.523	5.8
345.735	28.33
345.947	-39.25
346.159	-51.54
346.371	63.15
346.583	24.23
346.795	20.14
347.007	-45.4
347.219	36.52
347.431	-45.4
347.643	75.43
347.855	83.63
348.067	69.29
348.279	-55.64
348.491	3.75
348.703	-74.07
348.915	50.86
349.127	-26.96
349.339	48.81
349.551	26.28
349.763	-31.06
349.975	38.57
350.187	61.1
350.399	54.95
350.61	59.05
350.822	32.43
351.034	61.1
351.246	-20.82
351.458	36.52
351.669	-22.87
351.881	24.23
352.093	13.99
352.305	-29.01
352.517	44.71
352.728	46.76
352.94	-8.53
353.152	20.14
353.363	3.75
353.575	48.81
353.787	5.8
353.999	102.06
354.21	11.95
354.422	-0.34
354.633	22.19
354.845	44.71
355.057	26.28
355.268	-43.35
355.48	-29.01
355.692	24.23
355.903	28.33
356.115	11.95
356.326	40.62
356.538	81.58
356.749	42.67
356.961	18.09
357.172	34.47
357.384	1.71
357.595	54.95
357.807	-12.63
358.018	22.19
358.23	3.75
358.441	-12.63
358.653	-26.96
358.864	38.57
359.075	-16.73
359.287	24.23
359.498	83.63
359.709	134.82
359.921	7.85
360.132	-12.63
360.344	48.81
360.555	77.48
360.766	75.43
360.977	42.67
361.189	7.85
361.4	-8.53
361.611	30.38
361.823	40.62
362.034	-10.58
362.245	13.99
362.456	59.05
362.667	-26.96
362.879	-16.73
363.09	38.57
363.301	5.8
363.512	1.71
363.723	28.33
363.935	5.8
364.146	20.14
364.357	-18.77
364.568	-55.64
364.779	-45.4
364.99	44.71
365.201	26.28
365.412	63.15
365.623	73.39
365.834	-29.01
366.045	24.23
366.256	3.75
366.467	71.34
366.678	-16.73
366.889	-37.2
367.1	-4.44
367.311	5.8
367.522	-29.01
367.733	11.95
367.944	63.15
368.155	79.53
368.366	38.57
368.577	-35.16
368.788	3.75
368.999	69.29
369.209	11.95
369.42	40.62
369.631	3.75
369.842	71.34
370.053	-2.39
370.264	16.04
370.474	24.23
370.685	42.67
370.896	-45.4
371.107	75.43
371.317	71.34
371.528	7.85
371.739	22.19
371.95	159.4
372.16	40.62
372.371	50.86
372.582	34.47
372.792	122.54
373.003	40.62
373.214	20.14
373.424	20.14
373.635	30.38
373.846	54.95
374.056	40.62
374.267	71.34
374.477	54.95
374.688	36.52
374.898	11.95
375.109	1.71
375.319	61.1
375.53	40.62
375.74	28.33
375.951	20.14
376.161	52.91
376.372	46.76
376.582	22.19
376.793	24.23
377.003	-22.87
377.214	13.99
377.424	-14.68
377.635	26.28
377.845	24.23
378.055	18.09
378.266	40.62
378.476	5.8
378.686	24.23
378.897	54.95
379.107	73.39
379.317	28.33
379.528	-59.73
379.738	24.23
379.948	-12.63
380.158	71.34
380.369	50.86
380.579	54.95
380.789	1.71
380.999	106.15
381.21	11.95
381.42	-29.01
381.63	11.95
381.84	102.06
382.05	36.52
382.261	-29.01
382.471	114.34
382.681	28.33
382.891	24.23
383.101	-26.96
383.311	50.86
383.521	-0.34
383.731	-14.68
383.941	63.15
384.151	48.81
384.361	5.8
384.571	59.05
384.781	63.15
384.991	57
385.201	91.82
385.411	-47.44
385.621	61.1
385.831	20.14
386.041	24.23
386.251	11.95
386.461	-10.58
386.671	3.75
386.881	50.86
387.091	46.76
387.301	30.38
387.511	61.1
387.72	81.58
387.93	13.99
388.14	40.62
388.35	-20.82
388.56	81.58
388.769	81.58
388.979	63.15
389.189	7.85
389.399	40.62
389.609	3.75
389.818	63.15
390.028	16.04
390.238	40.62
390.447	-0.34
390.657	36.52
390.867	36.52
391.076	28.33
391.286	48.81
391.496	-43.35
391.705	-22.87
391.915	71.34
392.125	13.99
392.334	30.38
392.544	48.81
392.753	-14.68
392.963	24.23
393.172	46.76
393.382	104.11
393.591	124.58
393.801	69.29
394.01	7.85
394.22	54.95
394.429	50.86
394.639	13.99
394.848	32.43
395.058	100.01
395.267	28.33
395.477	46.76
395.686	34.47
395.895	38.57
396.105	3.75
396.314	-10.58
396.524	79.53
396.733	-18.77
396.942	89.77
397.152	7.85
397.361	124.58
397.57	116.39
397.78	93.87
397.989	36.52
398.198	120.49
398.407	30.38
398.617	48.81
398.826	36.52
399.035	61.1
399.244	24.23
399.453	38.57
399.663	97.96
399.872	77.48
400.081	75.43
400.29	57
400.499	83.63
400.708	7.85
400.917	89.77
401.127	71.34
401.336	32.43
401.545	28.33
401.754	97.96
401.963	46.76
402.172	106.15
402.381	32.43
402.59	24.23
402.799	77.48
403.008	75.43
403.217	81.58
403.426	52.91
403.635	26.28
403.844	24.23
404.053	38.57
404.262	151.21
404.471	112.3
404.68	83.63
404.888	89.77
405.097	81.58
405.306	75.43
405.515	114.34
405.724	52.91
405.933	32.43
406.142	110.25
406.35	110.25
406.559	104.11
406.768	194.22
406.977	169.64
407.185	110.25
407.394	112.3
407.603	155.3
407.812	183.98
408.02	147.11
408.229	42.67
408.438	102.06
408.646	106.15
408.855	161.45
409.064	81.58
409.272	161.45
409.481	175.78
409.69	235.18
409.898	183.98
410.107	163.5
410.315	128.68
410.524	222.89
410.733	284.33
410.941	169.64
411.15	249.51
411.358	247.46
411.567	186.02
411.775	296.61
411.984	261.8
412.192	339.62
412.401	284.33
412.609	323.24
412.818	331.43
413.026	335.53
413.234	315.05
413.443	347.81
413.651	351.91
413.86	394.92
414.068	366.25
414.276	392.87
414.485	392.87
414.693	425.64
414.901	435.88
415.11	448.16
415.318	439.97
415.526	446.12
415.734	528.03
415.943	566.95
416.151	562.85
416.359	528.03
416.567	468.64
416.776	587.43
416.984	652.96
417.192	632.48
417.4	601.76
417.608	591.52
417.817	648.86
418.025	659.1
418.233	712.35
418.441	732.83
418.649	728.74
418.857	954.01
419.065	822.94
419.273	894.62
419.481	865.95
419.689	904.86
419.897	933.53
420.105	958.11
420.313	1027.74
420.521	1068.7
420.729	1027.74
420.937	1062.55
421.145	1171.1
421.353	1123.99
421.561	1228.44
421.769	1244.82
421.977	1314.45
422.185	1318.55
422.393	1349.27
422.601	1449.62
422.809	1511.06
423.017	1472.15
423.224	1496.72
423.432	1576.59
423.64	1513.11
423.848	1668.75
424.056	1642.13
424.263	1824.4
424.471	1957.52
424.679	1846.93
424.887	1939.09
425.094	2018.96
425.302	2115.21
425.51	2076.3
425.718	2109.07
425.925	2174.6
426.133	2279.05
426.341	2408.07
426.548	2516.61
426.756	2504.32
426.964	2469.51
427.171	2676.35
427.379	2711.17
427.586	2758.27
427.794	2756.22
428.001	2895.49
428.209	3006.08
428.417	3155.58
428.624	3192.44
428.832	3255.93
429.039	3143.29
429.247	3217.02
429.454	3661.43
429.662	3716.72
429.869	3522.16
430.076	3747.44
430.284	3606.13
430.491	3905.14
430.699	4036.21
430.906	4154.99
431.114	4101.74
431.321	4261.48
431.528	4456.04
431.736	4787.81
431.943	4894.3
432.15	4691.56
432.358	4781.67
432.565	5162.59
432.772	5000.8
432.979	5207.64
433.187	5371.48
433.394	5224.03
433.601	5656.15
433.808	5705.3
434.016	5807.7
434.223	5994.06
434.43	6336.07
434.637	6147.66
434.844	6598.21
435.052	6733.38
435.259	6573.64
435.466	6872.64
435.673	6729.28
435.88	7157.31
436.087	7425.59
436.294	7321.15
436.501	7228.99
436.708	7419.45
436.915	7923.25
437.122	8150.57
437.329	8019.5
437.537	8236.59
437.743	8447.53
437.95	8318.51
438.157	8810.02
438.364	8879.65
438.571	8916.51
438.778	9236
438.985	10090
439.192	9657.88
439.399	9956.88
439.606	9463.32
439.813	10014.23
440.02	10792.45
440.227	10653.19
440.433	10362.38
440.64	10751.49
440.847	10862.08
441.054	10890.76
441.261	11750.9
441.467	11847.16
441.674	11640.31
441.881	12017.14
442.088	12105.2
442.294	11978.23
442.501	12320.24
442.708	12797.42
442.914	13174.24
443.121	13784.54
443.328	13272.54
443.534	14126.55
443.741	13950.42
443.948	13546.97
444.154	14646.73
444.361	14620.11
444.568	14872.01
444.774	14720.46
444.981	14753.23
445.187	15424.96
445.394	15758.78
445.6	15556.03
445.807	17165.73
446.013	16330.16
446.22	16723.37
446.426	17511.84
446.633	17454.5
446.839	18242.96
447.046	17610.14
447.252	18103.7
447.459	18468.24
447.665	18322.84
447.871	19139.97
448.078	19807.61
448.284	18779.53
448.491	19635.58
448.697	20383.09
448.903	20706.67
449.11	20553.07
449.316	20419.96
449.522	20561.26
449.728	21212.52
449.935	21392.74
450.141	21286.25
450.347	21849.44
450.553	21251.43
450.76	21636.45
450.966	22521.17
451.172	21622.11
451.378	22527.31
451.584	22146.39
451.791	22453.59
451.997	22687.06
452.203	23059.79
452.409	23067.98
452.615	22895.95
452.821	21656.93
453.027	21738.85
453.233	22642
453.44	22027.61
453.646	22070.62
453.852	22125.91
454.058	22517.08
454.264	21871.96
454.47	22187.35
454.676	22138.2
454.882	22670.67
455.088	20587.89
455.294	21007.72
455.5	21085.54
455.705	21448.04
455.911	20538.74
456.117	19991.93
456.323	19793.28
456.529	19029.38
456.735	19926.39
456.941	19162.5
457.147	18929.03
457.352	18222.48
457.558	18029.98
457.764	18202
457.97	17870.23
458.176	17804.7
458.381	17333.67
458.587	16571.82
458.793	16586.16
458.999	15678.91
459.204	16836.01
459.41	16416.18
459.616	15269.31
459.821	15314.37
460.027	15345.09
460.233	15111.62
460.438	14323.15
460.644	14290.38
460.85	13946.33
461.055	13622.75
461.261	13530.59
461.466	12572.14
461.672	12291.57
461.878	12971.49
462.083	12185.07
462.289	12082.67
462.494	11812.34
462.7	11359.74
462.905	10929.67
463.111	11406.84
463.316	11294.21
463.522	11079.17
463.727	11087.36
463.932	11367.93
464.138	10907.14
464.343	11103.75
464.549	10819.08
464.754	11306.49
464.959	11023.87
465.165	10964.48
465.37	10243.6
465.575	10130.96
465.781	10753.54
465.986	10718.73
466.191	10274.32
466.397	10194.45
466.602	9584.15
466.807	9825.81
467.012	10014.23
467.218	9948.69
467.423	9840.15
467.628	9780.76
467.833	10333.71
468.038	10085.9
468.244	9676.31
468.449	9985.55
468.654	9684.5
468.859	9494.04
469.064	9469.47
469.269	9055.78
469.474	9231.9
469.679	9440.79
469.885	9076.26
470.09	9211.42
470.295	9457.18
470.5	8930.85
470.705	9072.16
470.91	8785.44
471.115	8681
471.32	8945.19
471.525	8707.62
471.73	8853.03
471.935	8527.4
472.139	8396.33
472.344	8502.82
472.549	8234.54
472.754	8259.12
472.959	8150.57
473.164	7980.59
473.369	7859.76
473.574	8269.36
473.778	7884.34
473.983	7908.91
474.188	7947.83
474.393	7525.94
474.598	7519.8
474.802	7405.11
475.007	7499.32
475.212	7458.36
475.417	7253.56
475.621	7257.66
475.826	7306.81
476.031	7089.73
476.235	6843.97
476.44	6960.7
476.645	6803.01
476.849	7001.66
477.054	6843.97
477.259	6704.71
477.463	6788.68
477.668	6563.4
477.872	6733.38
478.077	6461
478.282	6342.22
478.486	6442.57
478.691	6321.74
478.895	6221.39
479.1	6264.4
479.304	6252.11
479.509	6141.52
479.713	6260.3
479.918	6100.56
480.122	6022.73
480.326	6098.51
480.531	6024.78
480.735	5987.92
480.94	5910.1
481.144	6196.81
481.348	5924.43
481.553	5860.95
481.757	5801.55
481.961	5862.99
482.166	5942.86
482.37	5940.82
482.574	5680.72
482.778	5676.63
482.983	5920.34
483.187	5885.52
483.391	5871.19
483.595	5664.34
483.8	5678.68
484.004	5920.34
484.208	5752.4
484.412	5666.39
484.616	5764.69
484.821	5906
485.025	5707.35
485.229	5727.83
485.433	5754.45
485.637	5822.03
485.841	5785.17
486.045	5879.38
486.249	5944.91
486.453	5756.5
486.657	5754.45
486.861	5846.61
487.065	5627.48
487.269	5865.04
487.473	5680.72
487.677	5813.84
487.881	5942.86
488.085	5654.1
488.289	5914.19
488.493	5836.37
488.697	5910.1
488.901	5830.23
489.105	5811.79
489.309	5887.57
489.512	5932.62
489.716	5926.48
489.92	5969.49
490.124	5973.58
490.328	6028.88
490.531	6051.41
490.735	5946.96
490.939	5801.55
491.143	6026.83
491.346	5969.49
491.55	6086.22
491.754	6041.17
491.958	6188.62
492.161	6059.6
492.365	6114.89
492.569	6155.85
492.772	6254.16
492.976	6231.63
493.18	6262.35
493.383	6315.59
493.587	6420.04
493.79	6430.28
493.994	6266.44
494.197	6374.99
494.401	6585.93
494.605	6377.03
494.808	6774.34
495.012	6483.53
495.215	6606.41
495.419	6702.66
495.622	6641.22
495.825	6794.82
496.029	6774.34
496.232	7054.91
496.436	6972.99
496.639	7106.11
496.843	7116.35
497.046	7253.56
497.249	7284.28
497.453	7509.56
497.656	7650.87
497.859	7327.29
498.063	7454.26
498.266	7712.31
498.469	7667.25
498.673	7747.12
498.876	7712.31
499.079	7884.34
499.282	8023.6
499.485	8130.09
499.689	8279.6
499.892	8308.27
500.095	8386.09
500.298	8404.52
500.501	8584.74
500.705	8627.75
500.908	8717.86
501.111	8934.95
501.314	8877.6
501.517	9029.15
501.72	9027.1
501.923	8908.32
502.126	9276.96
502.329	9408.03
502.532	9551.38
502.735	9455.13
502.938	9803.29
503.141	9725.46
503.344	10079.76
503.547	10180.11
503.75	10186.26
503.953	10403.34
504.156	10464.78
504.359	10485.26
504.562	10585.61
504.765	10696.2
504.968	10933.76
505.17	11040.26
505.373	11156.99
505.576	11208.19
505.779	11474.43
505.982	11437.56
506.185	11697.66
506.387	11798.01
506.59	11722.23
506.793	12068.34
506.996	12021.24
507.198	12441.07
507.401	12201.46
507.604	12518.89
507.807	12996.07
508.009	12805.61
508.212	13207.01
508.415	13008.36
508.617	13411.81
508.82	13667.8
509.022	13579.74
509.225	13653.47
509.428	13823.45
509.63	13897.17
509.833	14165.46
510.035	14233.04
510.238	14421.45
510.44	14740.94
510.643	14812.62
510.845	14804.42
511.048	14919.11
511.25	15248.83
511.453	15416.77
511.655	15881.66
511.858	15898.04
512.06	15678.91
512.262	16092.6
512.465	16168.37
512.667	16346.55
512.87	16623.02
513.072	16858.54
513.274	16803.24
513.477	17288.61
513.679	17253.8
513.881	17440.16
514.084	17698.2
514.286	17773.98
514.488	17608.09
514.69	18605.45
514.893	18285.97
515.095	18498.96
515.297	18632.08
515.499	18795.92
515.701	19078.54
515.904	19400.07
516.106	19477.89
516.308	19752.32
516.51	19965.31
516.712	20053.37
516.914	20374.9
517.116	20438.39
517.318	20653.42
517.52	20694.38
517.722	21015.91
517.925	21429.6
518.127	21540.19
518.329	21693.79
518.531	21534.05
518.733	22154.58
518.935	22494.55
519.136	22576.47
519.338	22916.43
519.54	22644.05
519.742	23328.07
519.944	23090.51
520.146	23917.89
520.348	23737.66
520.55	23987.52
520.752	24263.99
520.954	24401.21
521.155	24362.29
521.357	24589.62
521.559	25009.45
521.761	25158.95
521.963	25378.09
522.164	25457.96
522.366	25740.58
522.568	25875.74
522.77	25984.29
522.971	26387.74
523.173	26189.08
523.375	26545.43
523.576	26524.95
523.778	26860.82
523.98	27079.95
524.181	27350.28
524.383	27358.47
524.584	27596.04
524.786	28038.4
524.988	27673.86
525.189	28239.1
525.391	28030.21
525.592	28210.43
525.794	28763.38
525.995	28542.2
526.197	28523.77
526.398	28929.27
526.6	29168.88
526.801	29156.59
527.003	29295.85
527.204	29277.42
527.406	29674.73
527.607	29492.46
527.808	30104.8
528.01	29596.9
528.211	29627.62
528.412	30524.63
528.614	30147.81
528.815	30299.36
529.016	30551.26
529.218	30354.65
529.419	30874.84
529.62	30899.41
529.822	30541.02
530.023	30530.78
530.224	30909.65
530.425	30672.09
530.626	30248.16
530.828	30498.01
531.029	31235.28
531.23	30786.77
531.431	31263.95
531.632	30940.37
531.833	31132.88
532.035	31190.22
532.236	31423.69
532.437	31202.51
532.638	31022.29
532.839	31562.95
533.04	31315.15
533.241	30661.85
533.442	31716.55
533.643	31368.4
533.844	31286.48
534.045	31386.83
534.246	31241.42
534.447	31245.52
534.648	31321.29
534.849	31411.4
535.05	31405.26
535.251	31552.71
535.451	31558.86
535.652	31800.52
535.853	31517.9
536.054	31462.6
536.255	31870.15
536.456	31687.88
536.657	32199.87
536.857	31192.27
537.058	31845.57
537.259	31823.05
537.46	31771.85
537.66	31603.91
537.861	31710.41
538.062	31892.68
538.263	31986.88
538.463	31544.52
538.664	31767.75
538.865	31904.96
539.065	31896.77
539.266	31558.86
539.466	31794.37
539.667	31278.29
539.868	32070.85
540.068	31417.55
540.269	31653.06
540.469	32038.08
540.67	31444.17
540.87	31648.97
541.071	31616.2
541.271	31728.84
541.472	31583.43
541.672	31651.02
541.873	31247.57
542.073	31132.88
542.274	31870.15
542.474	31524.04
542.675	31442.12
542.875	31896.77
543.075	31648.97
543.276	31276.24
543.476	32163.01
543.676	31374.54
543.877	31558.86
544.077	31780.04
544.277	31472.84
544.478	31538.38
544.678	32134.34
544.878	31427.79
545.078	31864
545.279	31141.07
545.479	31345.87
545.679	31769.8
545.879	31589.58
546.079	31370.44
546.28	31501.51
546.48	31188.17
546.68	31458.51
546.88	31706.31
547.08	31548.62
547.28	31730.89
547.48	31028.43
547.68	31399.12
547.88	31212.75
548.081	31456.46
548.281	31507.66
548.481	31186.13
548.681	31909.06
548.881	31200.46
549.081	31575.24
549.28	31536.33
549.48	31763.65
549.68	31417.55
549.88	31892.68
550.08	31433.93
550.28	31687.88
550.48	31407.31
550.68	31945.92
550.88	31098.06
551.08	31263.95
551.279	31710.41
551.479	31114.45
551.679	31519.95
551.879	31648.97
552.079	31597.77
552.278	31327.44
552.478	31227.09
552.678	31493.32
552.878	31534.28
553.077	31147.22
553.277	31241.42
553.477	31530.19
553.676	31382.73
553.876	31147.22
554.076	31388.88
554.275	30866.64
554.475	31040.72
554.674	31466.7
554.874	30864.6
555.074	31284.43
555.273	31153.36
555.473	31481.03
555.672	30768.34
555.872	30794.96
556.071	30946.51
556.271	31134.93
556.47	30680.28
556.67	30897.36
556.869	30850.26
557.068	30934.23
557.268	30614.74
557.467	30706.9
557.667	30573.78
557.866	30436.57
558.065	30786.77
558.265	30479.58
558.464	30074.08
558.663	30711
558.863	30002.4
559.062	30559.45
559.261	29957.35
559.461	30219.49
559.66	29930.72
559.859	30219.49
560.058	30057.7
560.258	30102.75
560.457	29680.87
560.656	29916.39
560.855	29795.56
561.054	29887.71
561.253	29908.19
561.453	29930.72
561.652	30280.92
561.851	29818.08
562.05	29711.59
562.249	29783.27
562.448	30065.89
562.647	29795.56
562.846	29813.99
563.045	29781.22
563.244	29236.46
563.443	29576.42
563.642	28949.74
563.841	29431.02
564.04	29213.93
564.239	29652.2
564.438	28873.97
564.637	29275.37
564.836	28923.12
565.035	28916.98
565.234	29291.76
565.432	29236.46
565.631	28822.77
565.83	28798.2
566.029	29025.52
566.228	28523.77
566.427	28753.14
566.625	28546.3
566.824	28230.91
567.023	28763.38
567.222	28097.79
567.42	28515.58
567.619	28056.83
567.818	28450.04
568.016	28130.56
568.215	28374.27
568.414	28157.18
568.612	28097.79
568.811	27819.27
569.01	27913.47
569.208	27600.13
569.407	27741.44
569.605	27434.25
569.804	27991.3
570.002	27362.57
570.201	27872.51
570.4	27018.51
570.598	27327.75
570.797	27129.1
570.995	27145.48
571.193	26696.98
571.392	27057.42
571.59	26770.71
571.789	26871.06
571.987	26836.24
572.186	26918.16
572.384	27221.26
572.582	26948.88
572.781	26826
572.979	26264.86
573.177	26424.6
573.376	26578.2
573.574	25955.61
573.772	26230.04
573.971	26168.6
574.169	26012.96
574.367	25466.15
574.565	26148.12
574.763	25632.04
574.962	25834.78
575.16	25361.7
575.358	25738.53
575.556	25330.98
575.754	25607.46
575.952	25292.07
576.151	25607.46
576.349	25062.7
576.547	24845.62
576.745	24972.59
576.943	25386.28
577.141	25083.18
577.339	25138.48
577.537	24925.49
577.735	25140.52
577.933	24653.11
578.131	24847.66
578.329	24642.87
578.527	24231.22
578.725	24259.9
578.923	24393.01
579.121	24266.04
579.319	24431.93
579.516	24294.71
579.714	24157.5
579.912	24061.24
580.11	23964.99
580.308	24081.72
580.506	23813.44
580.704	23543.11
580.901	23825.73
581.099	23665.99
581.297	23641.41
581.495	23522.63
581.692	23602.5
581.89	23074.12
582.088	23620.93
582.285	23371.08
582.483	23377.22
582.681	23295.3
582.878	22932.81
583.076	23127.37
583.274	23311.69
583.471	22580.56
583.669	22728.02
583.866	22713.68
584.064	22814.03
584.262	22455.64
584.459	22762.83
584.657	22400.34
584.854	22488.4
585.052	22091.1
585.249	22623.57
585.447	22230.36
585.644	22164.82
585.841	22078.81
586.039	22119.77
586.236	22027.61
586.434	21968.22
586.631	21820.77
586.828	21892.44
587.026	21937.5
587.223	21869.92
587.42	21568.87
587.618	21376.36
587.815	21118.31
588.012	21601.63
588.21	20983.15
588.407	21607.78
588.604	21007.72
588.801	21069.16
588.999	21165.42
589.196	21163.37
589.393	21089.64
589.59	20774.25
589.787	20938.09
589.984	21003.63
590.182	20704.62
590.379	20804.97
590.576	20602.22
590.773	20729.2
590.97	20417.91
591.167	20514.16
591.364	20424.05
591.561	20354.42
591.758	20198.77
591.955	20147.58
592.152	20290.93
592.349	20147.58
592.546	20217.21
592.743	20200.82
592.94	19862.91
593.137	19998.07
593.334	19914.11
593.531	19522.94
593.727	19813.76
593.924	19617.15
594.121	19410.31
594.318	19856.76
594.515	19432.83
594.712	19514.75
594.908	19254.66
595.105	19387.78
595.302	19004.81
595.499	19293.57
595.696	19119.49
595.892	19053.96
596.089	19072.39
596.286	19174.79
596.482	19033.48
596.679	19158.41
596.876	19107.21
597.072	18525.58
597.269	18658.7
597.466	18828.68
597.662	18677.13
597.859	18912.65
598.055	18300.31
598.252	18466.19
598.448	18601.36
598.645	18247.06
598.841	18292.12
599.038	18535.82
599.234	18316.69
599.431	18247.06
599.627	18331.03
599.824	18159
600.02	17823.13
600.217	18161.05
600.413	17796.51
600.609	17833.37
600.806	17708.44
601.002	17581.47
601.198	17679.77
601.395	17331.62
601.591	17601.95
601.787	17323.43
601.984	17075.62
602.18	17567.13
602.376	17307.04
602.572	17124.77
602.769	17149.35
602.965	16862.63
603.161	17171.88
603.357	17118.63
603.553	16977.32
603.75	17022.37
603.946	16668.08
604.142	16960.94
604.338	16657.84
604.534	16584.11
604.73	16756.14
604.926	16461.23
605.122	16524.72
605.318	16528.81
605.514	16311.73
605.71	16479.66
605.906	16463.28
606.102	16233.91
606.298	16440.75
606.494	16225.72
606.69	16020.92
606.886	15922.62
607.082	15949.24
607.278	15971.77
607.474	15650.24
607.67	15926.71
607.866	15625.66
608.062	15994.29
608.257	15766.97
608.453	15398.34
608.649	15576.51
608.845	15535.55
609.041	15584.7
609.236	15660.48
609.432	15386.05
609.628	15465.92
609.824	15330.75
610.019	15306.18
610.215	15183.3
610.411	15144.39
610.606	15025.61
610.802	15318.46
610.998	15132.1
611.193	15343.04
611.389	15101.38
611.584	15039.94
611.78	14773.71
611.976	15152.58
612.171	15109.57
612.367	14872.01
612.562	14804.42
612.758	14560.72
612.953	14773.71
613.149	14839.24
613.344	14699.98
613.539	14869.96
613.735	14708.17
613.93	14691.79
614.126	14544.33
614.321	14661.07
614.517	14671.31
614.712	14585.29
614.907	14179.79
615.103	14435.79
615.298	14257.62
615.493	14521.81
615.688	14249.43
615.884	14706.12
616.079	14022.1
616.274	14173.65
616.47	14128.6
616.665	14126.55
616.86	14282.19
617.055	14020.05
617.25	14036.44
617.445	13848.02
617.641	13698.52
617.836	14050.77
618.031	13778.39
618.226	13856.22
618.421	13770.2
618.616	13970.9
618.811	13284.83
619.006	13735.39
619.201	13356.51
619.396	13528.54
619.591	13239.78
619.786	13424.09
619.981	13290.98
620.176	13411.81
620.371	13032.93
620.566	13100.51
620.761	13209.06
620.956	13090.27
621.151	12926.44
621.346	12848.61
621.541	12844.52
621.735	12932.58
621.93	12578.28
622.125	12783.08
622.32	12549.61
622.515	12697.06
622.709	12543.47
622.904	12307.95
623.099	12430.83
623.294	12316.14
623.488	11761.14
623.683	12148.21
623.878	12174.83
624.072	12111.35
624.267	12013.04
624.462	11826.68
624.656	11793.91
624.851	11767.29
625.046	11734.52
625.24	11660.79
625.435	11529.72
625.629	11556.35
625.824	11369.98
626.018	11363.84
626.213	11048.45
626.407	11070.98
626.602	11177.47
626.796	11048.45
626.991	11161.09
627.185	11206.14
627.38	11095.55
627.574	10821.13
627.768	10753.54
627.963	10776.07
628.157	10628.62
628.352	10913.28
628.546	10520.07
628.74	10606.09
628.935	10458.64
629.129	10329.61
629.323	10343.95
629.517	10532.36
629.712	10259.98
629.906	10210.83
630.1	10124.82
630.294	10075.66
630.489	10096.14
630.683	9997.84
630.877	9969.17
631.071	9797.14
631.265	9915.92
631.459	9647.64
631.653	9762.33
631.848	9647.64
632.042	9641.5
632.236	9770.52
632.43	9518.62
632.624	9504.28
632.818	9571.86
633.012	9506.33
633.206	9639.45
633.4	9276.96
633.594	9211.42
633.788	9293.34
633.982	9262.62
634.176	9143.84
634.369	9039.39
634.563	9031.2
634.757	9010.72
634.951	9047.58
635.145	8805.92
635.339	8943.14
635.533	8883.75
635.726	8965.67
635.92	8482.35
636.114	8674.85
636.308	8709.67
636.501	8627.75
636.695	8738.34
636.889	8566.31
637.083	8263.21
637.276	8248.88
637.47	8433.19
637.664	8388.14
637.857	8244.78
638.051	8095.28
638.244	8082.99
638.438	8177.2
638.632	7996.98
638.825	8173.1
639.019	7968.31
639.212	8048.18
639.406	7935.54
639.599	7874.1
639.793	7747.12
639.986	7783.99
640.18	7591.48
640.373	7548.47
640.567	7736.88
640.76	7812.66
640.954	7659.06
641.147	7562.81
641.34	7362.11
641.534	7454.26
641.727	7503.42
641.92	7419.45
642.114	7247.42
642.307	7437.88
642.5	7200.32
642.694	6958.66
642.887	7114.3
643.08	7130.69
643.273	7220.8
643.467	7026.24
643.66	7194.17
643.853	6858.31
644.046	6837.83
644.239	6874.69
644.432	7020.1
644.626	6774.34
644.819	6837.83
645.012	6692.42
645.205	6827.59
645.398	6682.18
645.591	6587.97
645.784	6635.08
645.977	6440.52
646.17	6487.62
646.363	6530.63
646.556	6211.15
646.749	6309.45
646.942	6207.05
647.135	6317.64
647.328	6229.58
647.521	6291.02
647.714	6100.56
647.907	6198.86
648.099	6243.92
648.292	6114.89
648.485	6045.26
648.678	5906
648.871	5885.52
649.064	5897.81
649.256	5992.02
649.449	5873.23
649.642	5842.51
649.835	5762.64
650.027	5758.55
650.22	5684.82
650.413	5860.95
650.605	5762.64
650.798	5772.88
650.991	5643.86
651.183	5594.71
651.376	5576.28
651.568	5420.63
651.761	5510.74
651.954	5353.05
652.146	5326.43
652.339	5406.3
652.531	5514.84
652.724	5385.82
652.916	5226.07
653.109	5154.4
653.301	5197.4
653.494	5232.22
653.686	5238.36
653.879	5209.69
654.071	5090.91
654.263	5199.45
654.456	5107.29
654.648	4869.73
654.84	4986.46
655.033	4865.63
655.225	5088.86
655.417	4873.82
655.61	5004.89
655.802	4828.77
655.994	4867.68
656.186	4697.7
656.379	4714.08
656.571	4748.9
656.763	4879.97
656.955	4761.19
657.148	4648.55
657.34	4652.64
657.532	4525.67
657.724	4529.77
657.916	4599.4
658.108	4499.05
658.3	4546.15
658.492	4466.28
658.684	4413.03
658.876	4374.12
659.068	4546.15
659.26	4445.8
659.452	4400.74
659.644	4384.36
659.836	4277.87
660.028	4372.07
660.22	4218.47
660.412	4290.15
660.604	4169.32
660.796	4251.24
660.988	4132.46
661.18	4128.36
661.372	4177.51
661.563	4171.37
661.755	4142.7
661.947	3952.24
662.139	3987.05
662.331	4030.06
662.522	4056.68
662.714	3919.47
662.906	3888.75
663.097	3948.14
663.289	3917.42
663.481	3976.81
663.673	3888.75
663.864	4009.58
664.056	3806.83
664.247	3939.95
664.439	3686
664.631	3815.02
664.822	3741.3
665.014	3643
665.205	3636.85
665.397	3808.88
665.588	3692.15
665.78	3497.59
665.971	3622.52
666.163	3509.88
666.354	3509.88
666.546	3430.01
666.737	3460.73
666.929	3518.07
667.12	3495.54
667.311	3456.63
667.503	3503.73
667.694	3446.39
667.885	3360.38
668.077	3309.18
668.268	3341.94
668.459	3339.9
668.651	3405.43
668.842	3333.75
669.033	3354.23
669.224	3362.42
669.416	3245.69
669.607	3255.93
669.798	3176.06
669.989	3182.2
670.18	3106.43
670.371	3294.84
670.563	3147.39
670.754	3200.63
670.945	3083.9
671.136	3149.43
671.327	3159.67
671.518	3102.33
671.709	3192.44
671.9	3124.86
672.091	3083.9
672.282	2995.84
672.473	3016.32
672.664	3014.27
672.855	3055.23
673.046	3081.85
673.237	3026.56
673.428	2977.41
673.619	3020.41
673.809	2864.77
674	2907.77
674.191	3014.27
674.382	2862.72
674.573	2901.63
674.764	2934.4
674.954	2899.58
675.145	2928.25
675.336	2889.34
675.527	2819.71
675.717	2827.9
675.908	2870.91
676.099	2815.62
676.289	2903.68
676.48	2813.57
676.671	2805.38
676.861	2846.34
677.052	2780.8
677.243	2772.61
677.433	2739.84
677.624	2696.83
677.814	2750.08
678.005	2895.49
678.195	2717.31
678.386	2713.22
678.576	2700.93
678.767	2707.07
678.957	2664.07
679.148	2758.27
679.338	2731.65
679.529	2707.07
679.719	2631.3
679.909	2692.74
680.1	2545.28
680.29	2561.67
680.481	2651.78
680.671	2584.2
680.861	2524.8
681.052	2614.91
681.242	2670.21
681.432	2573.96
681.622	2438.79
681.813	2606.72
682.003	2518.66
682.193	2596.48
682.383	2494.08
682.573	2635.39
682.764	2471.56
682.954	2619.01
683.144	2594.44
683.334	2514.56
683.524	2446.98
683.714	2414.21
683.904	2485.89
684.094	2559.62
684.284	2481.8
684.474	2410.12
684.664	2418.31
684.854	2510.47
685.044	2487.94
685.234	2442.89
685.424	2373.25
685.614	2510.47
685.804	2473.6
685.994	2418.31
686.184	2524.8
686.374	2377.35
686.564	2453.13
686.753	2397.83
686.943	2471.56
687.133	2432.65
687.323	2420.36
687.513	2303.62
687.702	2412.17
687.892	2338.44
688.082	2401.93
688.272	2336.39
688.461	2254.47
688.651	2270.86
688.841	2346.63
689.03	2403.97
689.22	2350.73
689.41	2279.05
689.599	2336.39
689.789	2260.62
689.979	2330.25
690.168	2422.41
690.358	2293.38
690.547	2324.1
690.737	2377.35
690.926	2166.41
691.116	2256.52
691.305	2277
691.495	2193.03
691.684	2160.27
691.874	2207.37
692.063	2231.94
692.252	2248.33
692.442	2174.6
692.631	2225.8
692.82	2340.49
693.01	2242.18
693.199	2178.7
693.388	2143.88
693.578	2186.89
693.767	2174.6
693.956	2145.93
694.146	2152.07
694.335	2203.27
694.524	2215.56
694.713	2125.45
694.902	2174.6
695.092	2182.79
695.281	2162.31
695.47	2188.94
695.659	2190.99
695.848	2100.87
696.037	2131.59
696.226	2100.87
696.415	2123.4
696.604	2227.85
696.793	2152.07
696.982	2162.31
697.171	2211.46
697.36	2111.11
697.549	1969.8
697.738	2223.75
697.927	2193.03
698.116	2111.11
698.305	2068.11
698.494	2059.92
698.683	2168.46
698.872	2100.87
699.061	2107.02
699.25	2133.64
699.438	2145.93
699.627	2055.82
699.816	2037.39
700.005	2113.16
700.193	2074.25
700.382	2070.16
700.571	2244.23
700.76	2102.92
700.948	2109.07
701.137	2109.07
701.326	2139.79
701.514	2117.26
701.703	2035.34
701.892	2104.97
702.08	2123.4
702.269	2100.87
702.457	2113.16
702.646	2082.44
702.834	2068.11
703.023	2119.31
703.212	1955.47
703.4	2027.15
703.589	1963.66
703.777	2059.92
703.965	2068.11
704.154	2113.16
704.342	2070.16
704.531	2041.48
704.719	2078.35
704.907	2086.54
705.096	2068.11
705.284	2074.25
705.472	2061.96
705.661	2014.86
705.849	1928.85
706.037	2066.06
706.226	2045.58
706.414	2053.77
706.602	1992.33
706.79	2037.39
706.979	1949.32
707.167	1961.61
707.355	1857.17
707.543	2012.81
707.731	2000.52
707.919	1922.7
708.107	1947.28
708.296	1902.22
708.484	1937.04
708.672	1863.31
708.86	1848.97
709.048	1996.43
709.236	1865.36
709.424	1867.41
709.612	1947.28
709.8	1873.55
709.988	1937.04
710.176	1846.93
710.364	1879.69
710.551	1879.69
710.739	1853.07
710.927	1834.64
711.115	1883.79
711.303	1830.54
711.491	1801.87
711.679	1871.5
711.866	1787.54
712.054	1814.16
712.242	1900.17
712.43	1918.61
712.617	1810.06
712.805	1750.67
712.993	1744.53
713.181	1848.97
713.368	1654.42
713.556	1693.33
713.744	1670.8
713.931	1695.38
714.119	1611.41
714.306	1715.86
714.494	1799.82
714.682	1744.53
714.869	1734.29
715.057	1711.76
715.244	1717.9
715.432	1685.14
715.619	1816.21
715.807	1648.27
715.994	1707.66
716.182	1707.66
716.369	1707.66
716.556	1705.62
716.744	1605.27
716.931	1660.56
717.119	1713.81
717.306	1724.05
717.493	1609.36
717.681	1676.95
717.868	1674.9
718.055	1588.88
718.242	1631.89
718.43	1674.9
718.617	1535.64
718.804	1554.07
718.991	1478.29
719.179	1558.16
719.366	1648.27
719.553	1552.02
719.74	1554.07
719.927	1486.48
720.114	1523.35
720.301	1535.64
720.488	1527.44
720.676	1566.35
720.863	1513.11
721.05	1605.27
721.237	1582.74
721.424	1474.2
721.611	1511.06
721.798	1437.33
721.985	1576.59
722.172	1576.59
722.358	1441.43
722.545	1506.96
722.732	1435.28
722.919	1466
723.106	1521.3
723.293	1443.48
723.48	1445.52
723.667	1363.61
723.853	1425.04
724.04	1492.63
724.227	1472.15
724.414	1470.1
724.6	1470.1
724.787	1281.69
724.974	1431.19
725.161	1531.54
725.347	1515.16
725.534	1410.71
725.72	1429.14
725.907	1433.24
726.094	1398.42
726.28	1332.89
726.467	1298.07
726.653	1363.61
726.84	1416.85
727.027	1253.02
727.213	1318.55
727.4	1300.12
727.586	1330.84
727.773	1283.74
727.959	1334.93
728.145	1371.8
728.332	1261.21
728.518	1357.46
728.705	1275.54
728.891	1275.54
729.077	1302.17
729.264	1322.65
729.45	1261.21
729.636	1332.89
729.823	1343.13
730.009	1281.69
730.195	1234.58
730.382	1332.89
730.568	1220.25
730.754	1207.96
730.94	1291.93
731.126	1349.27
731.313	1291.93
731.499	1224.34
731.685	1320.6
731.871	1193.62
732.057	1173.14
732.243	1306.26
732.429	1285.78
732.615	1232.54
732.801	1291.93
732.987	1242.78
733.173	1248.92
733.359	1224.34
733.545	1183.38
733.731	1232.54
733.917	1240.73
734.103	1203.86
734.289	1203.86
734.475	1164.95
734.661	1265.3
734.847	1220.25
735.033	1203.86
735.219	1191.58
735.404	1248.92
735.59	1201.82
735.776	1158.81
735.962	1164.95
736.148	1240.73
736.333	1257.11
736.519	1162.9
736.705	1160.86
736.89	1164.95
737.076	1107.61
737.262	1183.38
737.447	1185.43
737.633	1064.6
737.819	1085.08
738.004	1156.76
738.19	1095.32
738.375	1031.83
738.561	1207.96
738.747	1228.44
738.932	1150.62
739.118	1091.23
739.303	1115.8
739.489	1050.27
739.674	1144.47
739.859	1111.71
740.045	1052.31
740.23	1083.03
740.416	1015.45
740.601	1050.27
740.786	1083.03
740.972	1074.84
741.157	974.49
741.342	1105.56
741.528	1019.55
741.713	990.88
741.898	1048.22
742.084	974.49
742.269	1070.75
742.454	986.78
742.639	1052.31
742.824	997.02
743.01	958.11
743.195	988.83
743.38	951.96
743.565	990.88
743.75	986.78
743.935	1013.4
744.12	992.92
744.305	974.49
744.49	927.39
744.675	974.49
744.86	939.68
745.045	1003.16
745.23	943.77
745.415	929.44
745.6	954.01
745.785	964.25
745.97	913.05
746.155	923.29
746.34	843.42
746.525	915.1
746.71	904.86
746.895	831.13
747.079	939.68
747.264	886.43
747.449	908.96
747.634	839.33
747.819	857.76
748.003	863.9
748.188	857.76
748.373	800.41
748.557	896.67
748.742	781.98
748.927	820.89
749.111	849.57
749.296	777.89
749.481	773.79
749.665	839.33
749.85	784.03
750.034	900.76
750.219	806.56
750.404	837.28
750.588	751.26
750.773	886.43
750.957	824.99
751.141	777.89
751.326	757.41
751.51	743.07
751.695	741.02
751.879	759.46
752.064	642.72
752.248	669.34
752.432	700.06
752.617	722.59
752.801	732.83
752.985	732.83
753.17	759.46
753.354	749.22
753.538	728.74
753.722	763.55
753.907	667.3
754.091	726.69
754.275	749.22
754.459	718.5
754.643	790.17
754.828	708.26
755.012	630.43
755.196	671.39
755.38	663.2
755.564	632.48
755.748	562.85
755.932	700.06
756.116	595.62
756.3	669.34
756.484	628.39
756.668	693.92
756.852	597.67
757.036	679.58
757.22	607.91
757.404	597.67
757.588	603.81
757.772	571.04
757.956	646.82
758.14	595.62
758.323	577.19
758.507	560.8
758.691	583.33
758.875	667.3
759.059	593.57
759.242	515.75
759.426	562.85
759.61	550.56
759.794	530.08
759.977	589.47
760.161	605.86
760.345	652.96
760.528	618.15
760.712	450.21
760.895	585.38
761.079	571.04
761.263	589.47
761.446	573.09
761.63	497.32
761.813	466.6
761.997	568.99
762.18	396.96
762.364	534.18
762.547	487.08
762.731	546.47
762.914	444.07
763.098	474.79
763.281	482.98
763.464	536.23
763.648	489.12
763.831	528.03
764.015	495.27
764.198	556.71
764.381	464.55
764.564	519.84
764.748	493.22
764.931	454.31
765.114	454.31
765.297	493.22
765.481	464.55
765.664	523.94
765.847	546.47
766.03	513.7
766.213	501.41
766.397	495.27
766.58	456.36
766.763	472.74
766.946	495.27
767.129	491.17
767.312	499.36
767.495	495.27
767.678	462.5
767.861	431.78
768.044	525.99
768.227	493.22
768.41	470.69
768.593	458.4
768.776	497.32
768.959	335.53
769.142	468.64
769.324	497.32
769.507	472.74
769.69	448.16
769.873	413.35
770.056	519.84
770.239	525.99
770.421	417.44
770.604	497.32
770.787	437.92
770.97	417.44
771.152	456.36
771.335	421.54
771.518	462.5
771.7	417.44
771.883	458.4
772.066	429.73
772.248	446.12
772.431	474.79
772.613	437.92
772.796	427.68
772.978	482.98
773.161	458.4
773.343	466.6
773.526	427.68
773.708	376.48
773.891	358.05
774.073	376.48
774.256	392.87
774.438	411.3
774.621	403.11
774.803	439.97
774.985	366.25
775.168	419.49
775.35	396.96
775.532	364.2
775.715	353.96
775.897	384.68
776.079	403.11
776.261	374.44
776.444	349.86
776.626	362.15
776.808	282.28
776.99	315.05
777.173	356.01
777.355	356.01
777.537	323.24
777.719	300.71
777.901	411.3
778.083	329.38
778.265	237.22
778.447	356.01
778.629	331.43
778.811	339.62
778.993	288.42
779.175	409.25
779.357	294.57
779.539	368.29
779.721	208.55
779.903	356.01
780.085	300.71
780.267	333.48
780.449	372.39
780.631	306.85
780.812	284.33
780.994	247.46
781.176	368.29
781.358	269.99
781.54	267.94
781.721	294.57
781.903	255.65
782.085	286.37
782.267	374.44
782.448	298.66
782.63	239.27
782.812	306.85
782.993	310.95
783.175	267.94
783.357	245.41
783.538	298.66
783.72	274.09
783.901	272.04
784.083	302.76
784.264	280.23
784.446	222.89
784.627	241.32
784.809	247.46
784.99	200.36
785.172	245.41
785.353	233.13
785.535	261.8
785.716	280.23
785.897	175.78
786.079	310.95
786.26	253.61
786.441	196.26
786.623	220.84
786.804	263.85
786.985	327.33
787.167	241.32
787.348	204.46
787.529	224.94
787.71	284.33
787.891	212.65
788.073	233.13
788.254	167.59
788.435	282.28
788.616	235.18
788.797	263.85
788.978	290.47
789.159	235.18
789.34	237.22
789.522	257.7
789.703	265.89
789.884	190.12
790.065	167.59
790.246	192.17
790.427	190.12
790.607	319.14
790.788	216.74
790.969	155.3
791.15	296.61
791.331	118.44
791.512	167.59
791.693	190.12
791.874	159.4
792.054	278.18
792.235	186.02
792.416	110.25
792.597	231.08
792.778	167.59
792.958	161.45
793.139	202.41
793.32	153.26
793.5	198.31
793.681	134.82
793.862	237.22
794.042	120.49
794.223	108.2
794.404	151.21
794.584	134.82
794.765	143.02
794.945	159.4
795.126	169.64
795.306	169.64
795.487	116.39
795.667	79.53
795.848	177.83
796.028	44.71
796.209	143.02
796.389	104.11
796.57	167.59
796.75	138.92
796.93	173.74
797.111	134.82
797.291	241.32
797.471	89.77
797.652	149.16
797.832	196.26
798.012	147.11
798.192	32.43
798.373	208.55
798.553	198.31
798.733	165.54
798.913	118.44
799.093	186.02
799.274	85.67
799.454	206.5
799.634	116.39
799.814	143.02
799.994	93.87
800.174	95.91
800.354	130.73
800.534	73.39
800.714	89.77
800.894	87.72
801.074	114.34
801.254	159.4
801.434	108.2
801.614	147.11
801.794	122.54
801.974	407.2
802.154	102.06
802.334	241.32
802.514	87.72
802.693	57
802.873	108.2
803.053	218.79
803.233	91.82
803.413	44.71
803.592	161.45
803.772	120.49
803.952	83.63
804.131	159.4
804.311	83.63
804.491	159.4
804.67	104.11
804.85	153.26
805.03	112.3
805.209	114.34
805.389	118.44
805.568	198.31
805.748	48.81
805.928	22.19
806.107	143.02
806.287	126.63
806.466	57
806.646	69.29
806.825	159.4
807.004	85.67
807.184	104.11
807.363	147.11
807.543	36.52
807.722	36.52
807.901	102.06
808.081	69.29
808.26	85.67
808.439	120.49
808.619	54.95
808.798	67.24
808.977	151.21
809.156	118.44
809.336	89.77
809.515	71.34
809.694	143.02
809.873	130.73
810.052	50.86
810.231	97.96
810.411	118.44
810.59	73.39
810.769	13.99
810.948	106.15
811.127	79.53
811.306	128.68
811.485	155.3
811.664	110.25
811.843	61.1
812.022	91.82
812.201	79.53
812.38	136.87
812.559	87.72
812.737	50.86
812.916	85.67
813.095	73.39
813.274	40.62
813.453	83.63
813.632	59.05
813.811	40.62
813.989	61.1
814.168	93.87
814.347	69.29
814.526	54.95
814.704	132.78
814.883	63.15
815.062	120.49
815.24	77.48
815.419	24.23
815.598	-45.4
815.776	24.23
815.955	102.06
816.133	52.91
816.312	52.91
816.49	65.19
816.669	67.24
816.847	69.29
817.026	126.63
817.204	48.81
817.383	106.15
817.561	85.67
817.74	95.91
817.918	114.34
818.097	71.34
818.275	1.71
818.453	85.67
818.632	102.06
818.81	69.29
818.988	67.24
819.167	46.76
819.345	89.77
819.523	48.81
819.701	134.82
819.879	59.05
820.058	18.09
820.236	36.52
820.414	18.09
820.592	36.52
820.77	22.19
820.948	95.91
821.127	44.71
821.305	97.96
821.483	104.11
821.661	75.43
821.839	52.91
822.017	20.14
822.195	63.15
822.373	44.71
822.551	57
822.729	100.01
822.907	50.86
823.085	30.38
823.262	69.29
823.44	48.81
823.618	44.71
823.796	-20.82
823.974	118.44
824.152	120.49
824.329	110.25
824.507	-10.58
824.685	87.72
824.863	32.43
825.04	30.38
825.218	61.1
825.396	65.19
825.574	34.47
825.751	1.71
825.929	1.71
826.107	11.95
826.284	67.24
826.462	65.19
826.639	50.86
826.817	-6.49
826.994	65.19
827.172	32.43
827.349	147.11
827.527	-45.4
827.704	134.82
827.882	65.19
828.059	65.19
828.237	16.04
828.414	85.67
828.591	61.1
828.769	87.72
828.946	-33.11
829.124	54.95
829.301	38.57
829.478	61.1
829.655	46.76
829.833	34.47
830.01	65.19
830.187	59.05
830.364	57
830.542	-49.49
830.719	16.04
830.896	85.67
831.073	89.77
831.25	-2.39
831.427	38.57
831.604	-10.58
831.782	3.75
831.959	100.01
832.136	26.28
832.313	77.48
832.49	102.06
832.667	32.43
832.844	-24.92
833.021	87.72
833.198	52.91
833.374	75.43
833.551	42.67
833.728	40.62
833.905	7.85
834.082	11.95
834.259	-33.11
834.436	30.38
834.612	54.95
834.789	22.19
834.966	79.53
835.143	16.04
835.319	54.95
835.496	-0.34
835.673	-26.96
835.85	-22.87
836.026	63.15
836.203	16.04
836.38	46.76
836.556	5.8
836.733	61.1
836.909	-12.63
837.086	77.48
837.262	46.76
837.439	42.67
837.616	11.95
837.792	16.04
837.968	50.86
838.145	9.9
838.321	11.95
838.498	-4.44
838.674	11.95
838.851	-26.96
839.027	52.91
839.203	11.95
839.38	16.04
839.556	-8.53
839.732	81.58
839.909	7.85
840.085	63.15
840.261	85.67
840.437	50.86
840.614	-43.35
840.79	24.23
840.966	-8.53
841.142	9.9
841.318	67.24
841.494	89.77
841.671	-2.39
841.847	22.19
842.023	-10.58
842.199	85.67
842.375	40.62
842.551	89.77
842.727	-22.87
842.903	36.52
843.079	28.33
843.255	38.57
843.431	24.23
843.607	-0.34
843.783	11.95
843.959	22.19
844.134	3.75
844.31	44.71
844.486	-12.63
844.662	61.1
844.838	22.19
845.013	20.14
845.189	32.43
845.365	36.52
845.541	30.38
845.716	-35.16
845.892	81.58
846.068	79.53
846.244	1.71
846.419	30.38
846.595	34.47
846.77	-20.82
846.946	13.99
847.122	-51.54
847.297	67.24
847.473	-26.96
847.648	-0.34
847.824	38.57
847.999	38.57
848.175	-65.88
848.35	26.28
848.526	38.57
848.701	57
848.876	1.71
849.052	13.99
849.227	7.85
849.403	48.81
849.578	28.33
849.753	-24.92
849.929	38.57
850.104	-37.2
850.279	-0.34
850.454	28.33
850.63	32.43
850.805	-10.58
850.98	85.67
851.155	54.95
851.33	24.23
851.505	40.62
851.681	104.11
851.856	-18.77
852.031	61.1
852.206	20.14
852.381	5.8
852.556	7.85
852.731	7.85
852.906	36.52
853.081	-0.34
853.256	38.57
853.431	-8.53
853.606	24.23
853.781	16.04
853.956	-59.73
854.131	-41.3
854.305	44.71
854.48	-0.34
854.655	11.95
854.83	3.75
855.005	59.05
855.18	5.8
855.354	-20.82
855.529	20.14
855.704	3.75
855.879	13.99
856.053	11.95
856.228	-2.39
856.403	-12.63
856.577	-14.68
856.752	81.58
856.926	-37.2
857.101	-18.77
857.276	38.57
857.45	-8.53
857.625	18.09
857.799	7.85
857.974	20.14
858.148	7.85
858.323	20.14
858.497	28.33
858.672	-22.87
858.846	-4.44
859.02	22.19
859.195	-65.88
859.369	30.38
859.543	-37.2
859.718	18.09
859.892	26.28
860.066	1.71
860.241	3.75
860.415	-22.87
860.589	-8.53
860.763	-20.82
860.938	-4.44
861.112	-2.39
861.286	9.9
861.46	61.1
861.634	-74.07
861.808	-4.44
861.982	-24.92
862.157	-67.92
862.331	-12.63
862.505	73.39
862.679	-18.77
862.853	-2.39
863.027	11.95
863.201	52.91
863.375	9.9
863.549	34.47
863.722	-14.68
863.896	18.09
864.07	5.8
864.244	3.75
864.418	-24.92
864.592	-69.97
864.766	11.95
864.939	-12.63
865.113	40.62
865.287	7.85
865.461	34.47
865.634	1.71
865.808	-53.59
865.982	5.8
866.156	-10.58
866.329	-39.25
866.503	-18.77
866.676	28.33
866.85	-76.12
867.024	63.15
867.197	38.57
867.371	-37.2
867.544	-43.35
867.718	36.52
867.891	-2.39
868.065	22.19
868.238	44.71
868.412	-4.44
868.585	16.04
868.759	44.71
868.932	-4.44
869.105	-12.63
869.279	-10.58
869.452	-18.77
869.625	36.52
869.799	-18.77
869.972	5.8
870.145	11.95
870.319	-20.82
870.492	-4.44
870.665	-22.87
870.838	-26.96
871.011	-26.96
871.185	26.28
871.358	5.8
871.531	-45.4
871.704	-31.06
871.877	11.95
872.05	32.43
872.223	-8.53
872.396	-22.87
872.569	40.62
872.742	-37.2
872.915	-41.3
873.088	1.71
873.261	-12.63
873.434	9.9
873.607	65.19
873.78	30.38
873.953	28.33
874.126	-8.53
874.299	-0.34
874.471	-0.34
874.644	-49.49
874.817	-4.44
874.99	59.05
875.163	11.95
875.335	-0.34
875.508	-26.96
875.681	-10.58
875.853	-0.34
876.026	40.62
876.199	61.1
876.371	48.81
876.544	-45.4
876.717	-43.35
876.889	-0.34
877.062	-22.87
877.234	-20.82
877.407	-65.88
877.579	-0.34
877.752	-4.44
877.924	-16.73
878.097	24.23
878.269	3.75
878.442	-33.11
878.614	32.43
878.786	16.04
878.959	1.71
879.131	22.19
879.303	22.19
879.476	44.71
879.648	11.95
879.82	5.8
879.993	9.9
880.165	44.71
880.337	-39.25
880.509	28.33
880.681	-18.77
880.854	-16.73
881.026	-53.59
881.198	-22.87
881.37	-22.87
881.542	18.09
881.714	-37.2
881.886	13.99
882.058	-31.06
882.23	-0.34
882.402	-20.82
882.574	-12.63
882.746	-39.25
882.918	65.19
883.09	-10.58
883.262	-14.68
883.434	-2.39
883.606	-33.11
883.778	-33.11
883.95	-20.82
884.122	32.43
884.293	-47.44
884.465	-10.58
884.637	30.38
884.809	-22.87
884.98	-4.44
885.152	32.43
885.324	54.95
885.496	-10.58
885.667	20.14
885.839	-26.96
886.011	-33.11
886.182	-61.78
886.354	-53.59
886.525	50.86
886.697	5.8
886.869	-53.59
887.04	3.75
887.212	-8.53
887.383	1.71
887.555	20.14
887.726	1.71
887.897	-16.73
888.069	28.33
888.24	42.67
888.412	3.75
888.583	22.19
888.754	-10.58
888.926	24.23
889.097	-31.06
889.268	-37.2
889.44	52.91
889.611	-4.44
889.782	34.47
889.953	40.62
890.125	-49.49
890.296	28.33
890.467	-20.82
890.638	-10.58
890.809	9.9
890.98	-6.49
891.151	-4.44
891.323	-0.34
891.494	-4.44
891.665	-18.77
891.836	-67.92
892.007	5.8
892.178	38.57
892.349	38.57
892.52	-53.59
892.691	24.23
892.862	16.04
893.032	3.75
893.203	28.33
893.374	-16.73
893.545	16.04
893.716	-33.11
893.887	-41.3
894.057	-92.5
894.228	28.33
894.399	-4.44
894.57	-4.44
894.74	-2.39
894.911	-33.11
895.082	-37.2
895.253	28.33
895.423	-16.73
895.594	11.95
895.764	1.71
895.935	-18.77
896.106	3.75
896.276	5.8
896.447	11.95
896.617	11.95
896.788	1.71
896.958	5.8
897.129	-31.06
897.299	48.81
897.47	18.09
897.64	13.99
897.81	-4.44
897.981	13.99
898.151	-57.68
898.322	-10.58
898.492	16.04
898.662	16.04
898.832	22.19
899.003	61.1
899.173	-14.68
899.343	-53.59
899.513	20.14
