Data from USB4F104151__8__13-52-13-085.txt Node

Date: Thu Mar 13 13:52:13 EDT 2025
User: louis
Spectrometer: USB4F10415
Trigger mode: 4
Integration Time (sec): 1.000000E-2
Scans to average: 1
Electric dark correction enabled: true
Nonlinearity correction enabled: false
Boxcar width: 0
XAxis mode: Wavelengths
Number of Pixels in Spectrum: 3648
>>>>>Begin Spectral Data<<<<<
178.204	-63.32
178.424	-63.32
178.644	-63.32
178.864	-63.32
179.084	-65.36
179.304	26.79
179.524	39.08
179.744	-16.21
179.964	-24.4
180.184	-22.36
180.404	-8.02
180.624	-36.69
180.844	-38.74
181.064	39.08
181.283	26.79
181.503	18.6
181.723	-3.93
181.943	8.36
182.163	26.79
182.383	53.42
182.602	18.6
182.822	-10.07
183.042	41.13
183.262	-1.88
183.482	-16.21
183.701	-3.93
183.921	-30.55
184.141	63.66
184.361	47.27
184.58	-59.22
184.8	-24.4
185.02	-51.03
185.239	55.47
185.459	18.6
185.679	-1.88
185.898	24.75
186.118	94.38
186.338	-10.07
186.557	69.8
186.777	45.23
186.997	28.84
187.216	106.67
187.436	8.36
187.655	-14.17
187.875	14.51
188.095	-8.02
188.314	59.56
188.534	6.31
188.753	-8.02
188.973	41.13
189.192	84.14
189.412	-36.69
189.631	43.18
189.851	20.65
190.07	51.37
190.29	-10.07
190.509	30.89
190.729	-46.93
190.948	10.41
191.168	116.9
191.387	67.75
191.607	-20.31
191.826	-26.45
192.045	8.36
192.265	18.6
192.484	-55.12
192.704	49.32
192.923	-36.69
193.142	32.94
193.362	-5.97
193.581	77.99
193.8	18.6
194.02	-26.45
194.239	39.08
194.458	88.23
194.678	53.42
194.897	12.46
195.116	28.84
195.335	16.55
195.555	28.84
195.774	67.75
195.993	65.71
196.212	-32.6
196.432	28.84
196.651	-51.03
196.87	30.89
197.089	77.99
197.308	37.03
197.528	-8.02
197.747	-30.55
197.966	24.75
198.185	61.61
198.404	65.71
198.623	24.75
198.842	14.51
199.062	-14.17
199.281	43.18
199.5	-55.12
199.719	53.42
199.938	-3.93
200.157	16.55
200.376	67.75
200.595	94.38
200.814	-34.64
201.033	-40.79
201.252	12.46
201.471	-3.93
201.69	-48.98
201.909	14.51
202.128	82.09
202.347	-67.41
202.566	39.08
202.785	14.51
203.004	-22.36
203.223	53.42
203.442	53.42
203.661	37.03
203.879	30.89
204.098	65.71
204.317	-55.12
204.536	41.13
204.755	-5.97
204.974	-28.5
205.193	53.42
205.411	-12.12
205.63	24.75
205.849	-5.97
206.068	-42.84
206.287	57.51
206.505	88.23
206.724	12.46
206.943	65.71
207.162	-8.02
207.381	34.99
207.599	82.09
207.818	26.79
208.037	55.47
208.255	96.43
208.474	8.36
208.693	-12.12
208.911	-36.69
209.13	2.22
209.349	12.46
209.567	2.22
209.786	-18.26
210.005	28.84
210.223	41.13
210.442	-30.55
210.661	49.32
210.879	51.37
211.098	2.22
211.316	57.51
211.535	55.47
211.753	47.27
211.972	51.37
212.191	-42.84
212.409	49.32
212.628	-46.93
212.846	18.6
213.065	55.47
213.283	-18.26
213.502	6.31
213.72	69.8
213.938	24.75
214.157	-5.97
214.375	-16.21
214.594	55.47
214.812	65.71
215.031	0.17
215.249	8.36
215.467	2.22
215.686	-20.31
215.904	-12.12
216.122	-10.07
216.341	127.14
216.559	22.7
216.778	47.27
216.996	-42.84
217.214	-42.84
217.432	24.75
217.651	30.89
217.869	4.27
218.087	-18.26
218.306	34.99
218.524	114.86
218.742	55.47
218.96	-26.45
219.179	14.51
219.397	34.99
219.615	34.99
219.833	63.66
220.051	-34.64
220.27	12.46
220.488	67.75
220.706	51.37
220.924	-14.17
221.142	57.51
221.36	2.22
221.578	10.41
221.796	49.32
222.015	-3.93
222.233	51.37
222.451	39.08
222.669	69.8
222.887	65.71
223.105	39.08
223.323	12.46
223.541	63.66
223.759	24.75
223.977	6.31
224.195	18.6
224.413	-63.32
224.631	6.31
224.849	-28.5
225.067	20.65
225.285	-16.21
225.503	86.19
225.721	-5.97
225.939	2.22
226.157	-3.93
226.375	8.36
226.592	-14.17
226.81	47.27
227.028	-3.93
227.246	57.51
227.464	65.71
227.682	-14.17
227.9	86.19
228.117	12.46
228.335	-26.45
228.553	26.79
228.771	2.22
228.989	45.23
229.206	-20.31
229.424	67.75
229.642	-63.32
229.86	-46.93
230.077	6.31
230.295	8.36
230.513	2.22
230.731	51.37
230.948	137.38
231.166	121
231.384	22.7
231.601	71.85
231.819	-28.5
232.037	2.22
232.254	39.08
232.472	-16.21
232.689	-10.07
232.907	14.51
233.125	43.18
233.342	-38.74
233.56	16.55
233.777	-3.93
233.995	61.61
234.213	20.65
234.43	-18.26
234.648	2.22
234.865	14.51
235.083	98.47
235.3	14.51
235.518	116.9
235.735	-22.36
235.953	34.99
236.17	8.36
236.388	-14.17
236.605	90.28
236.822	49.32
237.04	-40.79
237.257	-24.4
237.475	14.51
237.692	41.13
237.909	-55.12
238.127	32.94
238.344	77.99
238.562	8.36
238.779	-12.12
238.996	43.18
239.214	-20.31
239.431	-38.74
239.648	-63.32
239.865	34.99
240.083	30.89
240.3	-3.93
240.517	-10.07
240.735	14.51
240.952	14.51
241.169	67.75
241.386	-12.12
241.603	-36.69
241.821	-30.55
242.038	73.9
242.255	-5.97
242.472	2.22
242.689	8.36
242.907	-5.97
243.124	12.46
243.341	12.46
243.558	-8.02
243.775	26.79
243.992	18.6
244.209	37.03
244.426	-3.93
244.643	65.71
244.86	14.51
245.078	-10.07
245.295	88.23
245.512	26.79
245.729	-30.55
245.946	12.46
246.163	-67.41
246.38	121
246.597	-44.88
246.814	22.7
247.031	6.31
247.248	18.6
247.464	-26.45
247.681	-67.41
247.898	32.94
248.115	73.9
248.332	53.42
248.549	-16.21
248.766	67.75
248.983	18.6
249.2	43.18
249.417	-8.02
249.633	0.17
249.85	14.51
250.067	63.66
250.284	34.99
250.501	43.18
250.717	100.52
250.934	-48.98
251.151	18.6
251.368	80.04
251.585	32.94
251.801	71.85
252.018	51.37
252.235	-18.26
252.451	4.27
252.668	-53.08
252.885	32.94
253.102	10.41
253.318	6.31
253.535	-28.5
253.752	-24.4
253.968	61.61
254.185	41.13
254.401	-1.88
254.618	0.17
254.835	14.51
255.051	26.79
255.268	61.61
255.484	4.27
255.701	67.75
255.917	26.79
256.134	24.75
256.351	14.51
256.567	24.75
256.784	12.46
257	-26.45
257.217	10.41
257.433	63.66
257.65	10.41
257.866	14.51
258.082	45.23
258.299	-14.17
258.515	10.41
258.732	-96.08
258.948	32.94
259.165	30.89
259.381	-28.5
259.597	-8.02
259.814	80.04
260.03	22.7
260.246	8.36
260.463	-5.97
260.679	-26.45
260.895	63.66
261.112	22.7
261.328	41.13
261.544	30.89
261.761	-8.02
261.977	45.23
262.193	4.27
262.409	57.51
262.626	43.18
262.842	37.03
263.058	-22.36
263.274	26.79
263.49	22.7
263.707	61.61
263.923	14.51
264.139	-53.08
264.355	-46.93
264.571	6.31
264.787	61.61
265.004	14.51
265.22	30.89
265.436	30.89
265.652	-12.12
265.868	63.66
266.084	8.36
266.3	43.18
266.516	41.13
266.732	43.18
266.948	69.8
267.164	12.46
267.38	-8.02
267.596	4.27
267.812	49.32
268.028	2.22
268.244	-18.26
268.46	53.42
268.676	20.65
268.892	-3.93
269.108	-65.36
269.324	14.51
269.54	6.31
269.756	41.13
269.972	51.37
270.188	57.51
270.403	39.08
270.619	10.41
270.835	-3.93
271.051	-5.97
271.267	-12.12
271.483	45.23
271.698	-1.88
271.914	41.13
272.13	28.84
272.346	-8.02
272.562	63.66
272.777	77.99
272.993	39.08
273.209	-8.02
273.425	-32.6
273.64	-8.02
273.856	43.18
274.072	-10.07
274.287	-12.12
274.503	43.18
274.719	-8.02
274.934	67.75
275.15	65.71
275.366	28.84
275.581	-20.31
275.797	-18.26
276.012	41.13
276.228	20.65
276.444	45.23
276.659	41.13
276.875	-28.5
277.09	-20.31
277.306	47.27
277.521	18.6
277.737	-59.22
277.952	30.89
278.168	77.99
278.383	28.84
278.599	16.55
278.814	49.32
279.03	24.75
279.245	-30.55
279.461	-12.12
279.676	-1.88
279.892	14.51
280.107	22.7
280.322	-18.26
280.538	30.89
280.753	41.13
280.969	43.18
281.184	8.36
281.399	-10.07
281.615	-3.93
281.83	41.13
282.045	18.6
282.26	32.94
282.476	41.13
282.691	65.71
282.906	6.31
283.122	-8.02
283.337	18.6
283.552	51.37
283.767	53.42
283.983	30.89
284.198	110.76
284.413	90.28
284.628	-14.17
284.843	-20.31
285.058	59.56
285.274	84.14
285.489	94.38
285.704	86.19
285.919	14.51
286.134	59.56
286.349	26.79
286.564	77.99
286.779	47.27
286.995	116.9
287.21	24.75
287.425	57.51
287.64	-24.4
287.855	-40.79
288.07	26.79
288.285	6.31
288.5	20.65
288.715	-5.97
288.93	39.08
289.145	32.94
289.36	6.31
289.575	12.46
289.79	57.51
290.004	34.99
290.219	49.32
290.434	30.89
290.649	-14.17
290.864	-53.08
291.079	18.6
291.294	2.22
291.509	34.99
291.724	-63.32
291.938	-30.55
292.153	-16.21
292.368	20.65
292.583	75.95
292.798	67.75
293.012	22.7
293.227	-53.08
293.442	-44.88
293.657	61.61
293.871	20.65
294.086	-14.17
294.301	84.14
294.516	63.66
294.73	2.22
294.945	-22.36
295.16	39.08
295.374	-8.02
295.589	-28.5
295.804	-3.93
296.018	37.03
296.233	-51.03
296.447	12.46
296.662	63.66
296.877	69.8
297.091	18.6
297.306	18.6
297.52	-3.93
297.735	-16.21
297.949	-18.26
298.164	22.7
298.378	45.23
298.593	24.75
298.807	-46.93
299.022	63.66
299.236	80.04
299.451	-5.97
299.665	-16.21
299.88	45.23
300.094	-16.21
300.309	32.94
300.523	-18.26
300.737	98.47
300.952	-20.31
301.166	14.51
301.381	-42.84
301.595	-18.26
301.809	28.84
302.024	-36.69
302.238	18.6
302.452	39.08
302.667	30.89
302.881	65.71
303.095	43.18
303.309	-18.26
303.524	28.84
303.738	-26.45
303.952	-8.02
304.166	-32.6
304.381	47.27
304.595	-22.36
304.809	69.8
305.023	6.31
305.237	-81.75
305.452	-3.93
305.666	10.41
305.88	-1.88
306.094	-18.26
306.308	106.67
306.522	61.61
306.736	32.94
306.95	41.13
307.164	-18.26
307.379	32.94
307.593	-5.97
307.807	0.17
308.021	39.08
308.235	14.51
308.449	86.19
308.663	12.46
308.877	16.55
309.091	-40.79
309.305	14.51
309.519	-26.45
309.733	2.22
309.947	8.36
310.161	53.42
310.374	4.27
310.588	4.27
310.802	41.13
311.016	47.27
311.23	51.37
311.444	59.56
311.658	28.84
311.872	10.41
312.085	71.85
312.299	141.48
312.513	67.75
312.727	39.08
312.941	-5.97
313.154	43.18
313.368	41.13
313.582	24.75
313.796	26.79
314.009	-34.64
314.223	41.13
314.437	24.75
314.651	10.41
314.864	-36.69
315.078	-38.74
315.292	-14.17
315.505	6.31
315.719	88.23
315.933	39.08
316.146	-8.02
316.36	-34.64
316.573	129.19
316.787	20.65
317.001	67.75
317.214	39.08
317.428	-1.88
317.641	18.6
317.855	0.17
318.068	-3.93
318.282	28.84
318.495	2.22
318.709	-30.55
318.922	65.71
319.136	86.19
319.349	41.13
319.563	47.27
319.776	-42.84
319.99	28.84
320.203	53.42
320.417	24.75
320.63	39.08
320.843	14.51
321.057	22.7
321.27	41.13
321.483	57.51
321.697	73.9
321.91	98.47
322.124	34.99
322.337	73.9
322.55	61.61
322.763	26.79
322.977	16.55
323.19	-46.93
323.403	22.7
323.617	20.65
323.83	63.66
324.043	18.6
324.256	51.37
324.469	20.65
324.683	-24.4
324.896	43.18
325.109	43.18
325.322	20.65
325.535	47.27
325.748	16.55
325.962	-30.55
326.175	37.03
326.388	30.89
326.601	51.37
326.814	18.6
327.027	53.42
327.24	96.43
327.453	-12.12
327.666	32.94
327.879	80.04
328.092	51.37
328.305	55.47
328.518	-24.4
328.731	-5.97
328.944	53.42
329.157	53.42
329.37	8.36
329.583	22.7
329.796	6.31
330.009	12.46
330.222	47.27
330.435	67.75
330.648	53.42
330.861	-14.17
331.073	47.27
331.286	12.46
331.499	-24.4
331.712	-10.07
331.925	4.27
332.138	45.23
332.35	34.99
332.563	16.55
332.776	10.41
332.989	-32.6
333.202	41.13
333.414	24.75
333.627	55.47
333.84	2.22
334.053	32.94
334.265	4.27
334.478	59.56
334.691	39.08
334.903	77.99
335.116	-12.12
335.329	-36.69
335.541	84.14
335.754	47.27
335.966	-3.93
336.179	-22.36
336.392	-34.64
336.604	-32.6
336.817	-14.17
337.029	57.51
337.242	41.13
337.454	16.55
337.667	2.22
337.88	32.94
338.092	-30.55
338.305	121
338.517	20.65
338.729	12.46
338.942	51.37
339.154	16.55
339.367	-14.17
339.579	-5.97
339.792	0.17
340.004	32.94
340.217	4.27
340.429	18.6
340.641	-5.97
340.854	-42.84
341.066	10.41
341.278	37.03
341.491	108.71
341.703	65.71
341.915	-44.88
342.128	22.7
342.34	18.6
342.552	53.42
342.764	32.94
342.977	12.46
343.189	127.14
343.401	-40.79
343.613	24.75
343.826	43.18
344.038	-34.64
344.25	-42.84
344.462	-3.93
344.674	39.08
344.886	37.03
345.099	4.27
345.311	0.17
345.523	-24.4
345.735	-12.12
345.947	8.36
346.159	57.51
346.371	26.79
346.583	71.85
346.795	-24.4
347.007	-3.93
347.219	47.27
347.431	-20.31
347.643	32.94
347.855	112.81
348.067	-26.45
348.279	34.99
348.491	39.08
348.703	65.71
348.915	20.65
349.127	-42.84
349.339	59.56
349.551	22.7
349.763	30.89
349.975	55.47
350.187	63.66
350.399	30.89
350.61	-3.93
350.822	39.08
351.034	45.23
351.246	-14.17
351.458	16.55
351.669	10.41
351.881	30.89
352.093	63.66
352.305	49.32
352.517	65.71
352.728	80.04
352.94	28.84
353.152	32.94
353.363	-24.4
353.575	39.08
353.787	2.22
353.999	34.99
354.21	14.51
354.422	-1.88
354.633	-10.07
354.845	2.22
355.057	-51.03
355.268	18.6
355.48	88.23
355.692	-5.97
355.903	24.75
356.115	65.71
356.326	28.84
356.538	-5.97
356.749	32.94
356.961	6.31
357.172	10.41
357.384	34.99
357.595	28.84
357.807	69.8
358.018	-3.93
358.23	41.13
358.441	67.75
358.653	14.51
358.864	47.27
359.075	37.03
359.287	32.94
359.498	12.46
359.709	22.7
359.921	34.99
360.132	12.46
360.344	39.08
360.555	67.75
360.766	61.61
360.977	-26.45
361.189	80.04
361.4	55.47
361.611	8.36
361.823	-3.93
362.034	39.08
362.245	-36.69
362.456	34.99
362.667	59.56
362.879	28.84
363.09	-10.07
363.301	71.85
363.512	-18.26
363.723	-79.7
363.935	-12.12
364.146	49.32
364.357	57.51
364.568	-26.45
364.779	-3.93
364.99	16.55
365.201	59.56
365.412	39.08
365.623	32.94
365.834	59.56
366.045	32.94
366.256	63.66
366.467	-18.26
366.678	-14.17
366.889	61.61
367.1	45.23
367.311	18.6
367.522	-26.45
367.733	-3.93
367.944	63.66
368.155	14.51
368.366	69.8
368.577	53.42
368.788	18.6
368.999	45.23
369.209	51.37
369.42	18.6
369.631	157.86
369.842	51.37
370.053	12.46
370.264	16.55
370.474	63.66
370.685	45.23
370.896	49.32
371.107	-14.17
371.317	34.99
371.528	39.08
371.739	77.99
371.95	65.71
372.16	30.89
372.371	47.27
372.582	-1.88
372.792	-38.74
373.003	14.51
373.214	-51.03
373.424	53.42
373.635	-1.88
373.846	61.61
374.056	14.51
374.267	73.9
374.477	80.04
374.688	-8.02
374.898	45.23
375.109	53.42
375.319	63.66
375.53	18.6
375.74	34.99
375.951	2.22
376.161	-36.69
376.372	45.23
376.582	20.65
376.793	39.08
377.003	30.89
377.214	63.66
377.424	-20.31
377.635	45.23
377.845	-32.6
378.055	-16.21
378.266	14.51
378.476	67.75
378.686	-20.31
378.897	80.04
379.107	28.84
379.317	2.22
379.528	-12.12
379.738	24.75
379.948	-24.4
380.158	45.23
380.369	65.71
380.579	129.19
380.789	20.65
380.999	34.99
381.21	-8.02
381.42	41.13
381.63	32.94
381.84	94.38
382.05	51.37
382.261	73.9
382.471	-81.75
382.681	18.6
382.891	26.79
383.101	-38.74
383.311	55.47
383.521	34.99
383.731	-16.21
383.941	-59.22
384.151	-36.69
384.361	55.47
384.571	80.04
384.781	82.09
384.991	30.89
385.201	14.51
385.411	10.41
385.621	4.27
385.831	47.27
386.041	34.99
386.251	43.18
386.461	51.37
386.671	16.55
386.881	-3.93
387.091	-1.88
387.301	4.27
387.511	32.94
387.72	63.66
387.93	14.51
388.14	53.42
388.35	2.22
388.56	73.9
388.769	63.66
388.979	84.14
389.189	45.23
389.399	22.7
389.609	96.43
389.818	39.08
390.028	-44.88
390.238	49.32
390.447	94.38
390.657	4.27
390.867	-40.79
391.076	-18.26
391.286	82.09
391.496	110.76
391.705	-22.36
391.915	43.18
392.125	80.04
392.334	-20.31
392.544	34.99
392.753	69.8
392.963	12.46
393.172	30.89
393.382	92.33
393.591	137.38
393.801	20.65
394.01	10.41
394.22	69.8
394.429	55.47
394.639	43.18
394.848	10.41
395.058	61.61
395.267	-3.93
395.477	-51.03
395.686	28.84
395.895	34.99
396.105	65.71
396.314	-34.64
396.524	53.42
396.733	82.09
396.942	24.75
397.152	75.95
397.361	63.66
397.57	69.8
397.78	-5.97
397.989	45.23
398.198	26.79
398.407	75.95
398.617	2.22
398.826	28.84
399.035	45.23
399.244	94.38
399.453	8.36
399.663	49.32
399.872	96.43
400.081	84.14
400.29	84.14
400.499	80.04
400.708	67.75
400.917	37.03
401.127	-1.88
401.336	16.55
401.545	106.67
401.754	-5.97
401.963	80.04
402.172	90.28
402.381	8.36
402.59	39.08
402.799	102.57
403.008	22.7
403.217	32.94
403.426	12.46
403.635	110.76
403.844	77.99
404.053	61.61
404.262	71.85
404.471	51.37
404.68	88.23
404.888	28.84
405.097	84.14
405.306	22.7
405.515	59.56
405.724	0.17
405.933	65.71
406.142	77.99
406.35	37.03
406.559	88.23
406.768	92.33
406.977	110.76
407.185	43.18
407.394	55.47
407.603	114.86
407.812	59.56
408.02	151.72
408.229	104.62
408.438	34.99
408.646	127.14
408.855	53.42
409.064	133.29
409.272	69.8
409.481	121
409.69	8.36
409.898	59.56
410.107	227.5
410.315	106.67
410.524	153.77
410.733	114.86
410.941	32.94
411.15	129.19
411.358	170.15
411.567	149.67
411.775	153.77
411.984	98.47
412.192	96.43
412.401	90.28
412.609	204.97
412.818	223.4
413.026	133.29
413.234	209.06
413.443	192.68
413.651	151.72
413.86	149.67
414.068	217.26
414.276	262.31
414.485	196.78
414.693	225.45
414.901	211.11
415.11	252.07
415.318	192.68
415.526	239.78
415.734	286.89
415.943	280.74
416.151	213.16
416.359	243.88
416.567	362.66
416.776	270.5
416.984	315.56
417.192	331.94
417.4	307.37
417.608	276.65
417.817	354.47
418.025	331.94
418.233	397.48
418.441	305.32
418.649	385.19
418.857	346.28
419.065	360.61
419.273	417.96
419.481	381.09
419.689	479.4
419.897	463.01
420.105	581.79
420.313	446.63
420.521	487.59
420.729	483.49
420.937	442.53
421.145	610.47
421.353	569.51
421.561	575.65
421.769	610.47
421.977	530.59
422.185	602.27
422.393	694.43
422.601	645.28
422.809	737.44
423.017	686.24
423.224	643.23
423.432	821.41
423.64	719.01
423.848	841.89
424.056	862.37
424.263	888.99
424.471	919.71
424.679	891.04
424.887	948.38
425.094	962.72
425.302	1013.92
425.51	1050.78
425.718	1034.39
425.925	1030.3
426.133	1081.5
426.341	1132.7
426.548	1167.51
426.756	1104.03
426.964	1239.19
427.171	1304.73
427.379	1280.15
427.586	1290.39
427.794	1435.8
428.001	1456.28
428.209	1515.67
428.417	1378.45
428.624	1566.87
428.832	1550.48
429.039	1570.96
429.247	1628.31
429.454	1693.84
429.662	1802.38
429.869	1642.64
430.076	1865.87
430.284	1847.44
430.491	1933.45
430.699	1886.35
430.906	1970.32
431.114	2056.33
431.321	2113.67
431.528	2101.39
431.736	2189.45
431.943	2285.7
432.15	2171.02
432.358	2252.94
432.565	2404.49
432.772	2449.54
432.979	2676.87
433.187	2558.08
433.394	2547.84
433.601	2556.04
433.808	2828.42
434.016	2719.87
434.223	2846.85
434.43	3100.8
434.637	2887.81
434.844	3100.8
435.052	3113.08
435.259	3231.87
435.466	2977.92
435.673	3252.35
435.88	3369.08
436.087	3473.53
436.294	3659.89
436.501	3512.44
436.708	3651.7
436.915	3582.07
437.122	3874.93
437.329	3788.91
437.537	4030.57
437.743	3926.13
437.95	4014.19
438.157	4143.21
438.364	4409.45
438.571	4462.69
438.778	4294.76
438.985	4606.05
439.192	4556.9
439.399	4751.46
439.606	4536.42
439.813	4931.68
440.02	5138.52
440.227	5079.13
440.433	4892.77
440.64	5128.28
440.847	5111.9
441.054	5255.26
441.261	5601.37
441.467	5533.78
441.674	5660.76
441.881	5922.9
442.088	5824.59
442.294	5822.55
442.501	5955.66
442.708	6269
442.914	6377.55
443.121	6518.86
443.328	6352.97
443.534	6793.28
443.741	6795.33
443.948	6674.5
444.154	7163.97
444.361	7133.25
444.568	6973.5
444.774	7057.47
444.981	7106.62
445.187	7510.07
445.394	7626.81
445.6	7503.93
445.807	8212.53
446.013	7809.08
446.22	8146.99
446.426	8527.91
446.633	8323.12
446.839	8796.2
447.046	8468.52
447.252	8970.27
447.459	8876.07
447.665	8906.79
447.871	9211.93
448.078	9584.66
448.284	9291.8
448.491	9340.96
448.697	9795.61
448.903	9910.29
449.11	9918.48
449.316	9865.24
449.522	10018.83
449.728	9990.16
449.935	10141.71
450.141	10410
450.347	10668.04
450.553	10186.77
450.76	10418.19
450.966	10633.22
451.172	10536.97
451.378	10848.26
451.584	10514.44
451.791	10833.93
451.997	10723.34
452.203	10852.36
452.409	11106.31
452.615	10838.02
452.821	10240.01
453.027	10280.97
453.233	10874.88
453.44	10735.62
453.646	10600.46
453.852	10496.01
454.058	10665.99
454.264	10401.8
454.47	10807.3
454.676	10549.26
454.882	10596.36
455.088	9586.71
455.294	9883.67
455.5	10039.31
455.705	10231.82
455.911	9617.43
456.117	9555.99
456.323	9535.51
456.529	8964.13
456.735	9512.99
456.941	8878.12
457.147	8892.45
457.352	8560.68
457.558	8509.48
457.764	8560.68
457.97	8456.23
458.176	8204.33
458.381	8159.28
458.587	7690.29
458.793	7667.77
458.999	7460.92
459.204	7944.24
459.41	7632.95
459.616	7196.73
459.821	6969.41
460.027	7180.35
460.233	7030.85
460.438	6758.47
460.644	6764.61
460.85	6438.98
461.055	6438.98
461.261	6266.96
461.466	5875.79
461.672	5621.84
461.878	6027.34
462.083	5711.96
462.289	5490.77
462.494	5560.41
462.7	5320.79
462.905	5261.4
463.111	5453.91
463.316	5419.1
463.522	5384.28
463.727	5255.26
463.932	5298.27
464.138	5048.41
464.343	5210.2
464.549	5189.72
464.754	5314.65
464.959	5326.94
465.165	5152.86
465.37	4989.02
465.575	4989.02
465.781	5089.37
465.986	5183.58
466.191	4931.68
466.397	4667.49
466.602	4612.2
466.807	4845.66
467.012	4784.23
467.218	4624.48
467.423	4761.7
467.628	4667.49
467.833	4900.96
468.038	4683.88
468.244	4655.2
468.449	4722.79
468.654	4720.74
468.859	4497.51
469.064	4591.72
469.269	4341.86
469.474	4370.54
469.679	4569.19
469.885	4239.47
470.09	4517.99
470.295	4458.6
470.5	4141.16
470.705	4243.56
470.91	4124.78
471.115	4251.75
471.32	4235.37
471.525	4122.73
471.73	4092.01
471.935	4137.07
472.139	3872.88
472.344	3876.98
472.549	4114.54
472.754	3899.5
472.959	3905.65
473.164	3643.51
473.369	3803.25
473.574	3803.25
473.778	3842.16
473.983	3659.89
474.188	3788.91
474.393	3635.32
474.598	3582.07
474.802	3543.16
475.007	3532.92
475.212	3623.03
475.417	3399.8
475.621	3385.46
475.826	3219.58
476.031	3311.74
476.235	3295.35
476.44	3342.46
476.645	3299.45
476.849	3258.49
477.054	3352.7
477.259	3319.93
477.463	3211.39
477.668	3188.86
477.872	3133.56
478.077	2957.44
478.282	3082.36
478.486	3076.22
478.691	3004.54
478.895	3053.69
479.1	3014.78
479.304	3020.92
479.509	2975.87
479.713	3004.54
479.918	2906.24
480.122	2834.56
480.326	2865.28
480.531	2941.05
480.735	2844.8
480.94	2842.75
481.144	2865.28
481.348	2777.22
481.553	2809.98
481.757	2668.67
481.961	2752.64
482.166	2748.54
482.37	2928.77
482.574	2732.16
482.778	2752.64
482.983	2769.02
483.187	2822.27
483.391	2750.59
483.595	2771.07
483.8	2820.22
484.004	2787.46
484.208	2828.42
484.412	2726.02
484.616	2863.23
484.821	2693.25
485.025	2877.57
485.229	2689.15
485.433	2818.18
485.637	2816.13
485.841	2734.21
486.045	2836.61
486.249	2740.35
486.453	2668.67
486.657	2746.5
486.861	2783.36
487.065	2732.16
487.269	2719.87
487.473	2785.41
487.677	2726.02
487.881	2879.61
488.085	2697.35
488.289	2742.4
488.493	2777.22
488.697	2955.39
488.901	2799.74
489.105	2799.74
489.309	2881.66
489.512	2898.05
489.716	2850.94
489.92	2803.84
490.124	2775.17
490.328	2973.82
490.531	2955.39
490.735	2838.66
490.939	2859.14
491.143	2893.95
491.346	2889.85
491.55	2934.91
491.754	3051.64
491.958	3029.12
492.161	2922.62
492.365	3041.4
492.569	2994.3
492.772	2988.16
492.976	2992.25
493.18	3158.14
493.383	3086.46
493.587	3188.86
493.79	3190.91
493.994	3072.12
494.197	3061.88
494.401	3223.67
494.605	3213.43
494.808	3293.3
495.012	3278.97
495.215	3274.87
495.419	3328.12
495.622	3334.26
495.825	3358.84
496.029	3358.84
496.232	3383.42
496.436	3451
496.639	3541.11
496.843	3565.68
497.046	3571.83
497.249	3637.36
497.453	3786.86
497.656	3657.84
497.859	3745.91
498.063	3625.08
498.266	3719.28
498.469	3711.09
498.673	3729.52
498.876	3958.89
499.079	3989.61
499.282	4059.24
499.485	4128.88
499.689	4087.92
499.892	4075.63
500.095	4173.93
500.298	4302.95
500.501	4223.08
500.705	4343.91
500.908	4311.14
501.111	4343.91
501.314	4577.38
501.517	4495.46
501.72	4718.69
501.923	4784.23
502.126	4788.32
502.329	4733.03
502.532	4925.54
502.735	5025.89
502.938	5218.4
503.141	5202.01
503.344	5210.2
503.547	5331.03
503.75	5355.61
503.953	5419.1
504.156	5509.21
504.359	5447.77
504.562	5525.59
504.765	5820.5
504.968	5716.05
505.17	5759.06
505.373	5906.51
505.576	6033.49
505.779	6115.41
505.982	6150.22
506.185	6250.57
506.387	6379.59
506.59	6498.38
506.793	6645.83
506.996	6674.5
507.198	6748.23
507.401	6834.24
507.604	6910.02
507.807	7041.09
508.009	7000.13
508.212	7102.53
508.415	7159.87
508.617	7415.87
508.82	7368.76
509.022	7520.31
509.225	7663.67
509.428	7841.84
509.63	7880.75
509.833	7929.91
510.035	8136.75
510.238	8134.7
510.44	8290.35
510.643	8439.85
510.845	8454.19
511.048	8564.78
511.25	8577.06
511.453	8914.98
511.655	9177.12
511.858	9246.75
512.06	9197.6
512.262	9316.38
512.465	9418.78
512.667	9433.11
512.87	9775.13
513.072	9830.42
513.274	9873.43
513.477	10209.29
513.679	10305.55
513.881	10510.35
514.084	10620.94
514.286	10508.3
514.488	10749.96
514.69	11026.43
514.893	11051.01
515.095	11139.07
515.297	11479.04
515.499	11366.4
515.701	11624.44
515.904	11835.38
516.106	11878.39
516.308	12001.27
516.51	12251.12
516.712	12345.33
516.914	12603.37
517.116	12644.33
517.318	12978.15
517.52	12851.17
517.722	13121.51
517.925	13453.28
518.127	13821.91
518.329	13627.35
518.531	13860.82
518.733	13965.27
518.935	14008.28
519.136	14288.85
519.338	14645.2
519.54	14837.7
519.742	14936.01
519.944	14911.43
520.146	15280.07
520.348	15347.65
520.55	15615.93
520.752	15486.91
520.954	16027.57
521.155	15908.79
521.357	16234.42
521.559	16310.19
521.761	16623.53
521.963	16799.66
522.164	16730.03
522.366	17012.65
522.568	17020.84
522.77	17362.85
522.971	17616.8
523.173	17231.78
523.375	17727.39
523.576	17708.96
523.778	17770.4
523.98	18136.98
524.181	18251.67
524.383	18292.63
524.584	18732.94
524.786	18538.38
524.988	18333.59
525.189	18950.03
525.391	19335.04
525.592	19195.78
525.794	19081.1
525.995	19449.73
526.197	19593.09
526.398	19441.54
526.6	19863.42
526.801	19916.67
527.003	19857.28
527.204	20227.96
527.406	20352.88
527.607	20252.53
527.808	20559.73
528.01	20072.31
528.211	20422.52
528.412	20793.2
528.614	20903.79
528.815	20643.7
529.016	21165.93
529.218	20905.84
529.419	20801.39
529.62	21206.89
529.822	21172.07
530.023	21084.01
530.224	21301.09
530.425	21372.77
530.626	21034.86
530.828	20926.32
531.029	21620.58
531.23	21552.99
531.431	21493.6
531.632	21362.53
531.833	21682.02
532.035	21710.69
532.236	21772.13
532.437	21770.08
532.638	21845.85
532.839	21796.7
533.04	22142.81
533.241	21618.53
533.442	22110.04
533.643	21983.07
533.844	21911.39
534.045	22009.69
534.246	21974.88
534.447	22536.02
534.648	22097.75
534.849	22077.27
535.05	21952.35
535.251	22081.37
535.451	22005.59
535.652	22413.14
535.853	22204.25
536.054	22656.85
536.255	22325.08
536.456	22288.21
536.657	22638.42
536.857	22464.34
537.058	22165.34
537.259	22552.4
537.46	22312.79
537.66	22576.98
537.861	22157.14
538.062	22544.21
538.263	22683.47
538.463	22361.94
538.664	22210.39
538.865	22386.52
539.065	22396.76
539.266	22476.63
539.466	22906.7
539.667	22251.35
539.868	22581.07
540.068	22505.3
540.269	22316.89
540.469	22665.04
540.67	22327.13
540.87	22576.98
541.071	22574.93
541.271	22763.34
541.472	22540.11
541.672	22493.01
541.873	22447.96
542.073	22200.15
542.274	22755.15
542.474	22703.95
542.675	22298.45
542.875	22476.63
543.075	22347.61
543.276	22441.81
543.476	22746.96
543.676	22384.47
543.877	22617.94
544.077	22366.04
544.277	22536.02
544.478	22509.4
544.678	22464.34
544.878	22398.8
545.078	22456.15
545.279	22294.36
545.479	22341.46
545.679	22374.23
545.879	22323.03
546.079	22325.08
546.28	22431.57
546.48	22490.96
546.68	22486.87
546.88	22597.46
547.08	22089.56
547.28	22462.29
547.48	22550.35
547.68	22466.39
547.88	22533.97
548.081	22566.74
548.281	22583.12
548.481	22759.25
548.681	22501.2
548.881	22560.59
549.081	22536.02
549.28	22499.16
549.48	22665.04
549.68	22482.77
549.88	22749.01
550.08	22579.03
550.28	22728.53
550.48	22556.5
550.68	23031.63
550.88	22363.99
551.08	22433.62
551.279	22656.85
551.479	22558.55
551.679	22662.99
551.879	22478.68
552.079	22701.9
552.278	22396.76
552.478	22400.85
552.678	22275.93
552.878	22538.07
553.077	22157.14
553.277	22548.31
553.477	22767.44
553.676	22413.14
553.876	22591.31
554.076	22407
554.275	22339.41
554.475	22351.7
554.674	22339.41
554.874	22280.02
555.074	22142.81
555.273	22407
555.473	22546.26
555.672	21845.85
555.872	21919.58
556.071	22183.77
556.271	22237.02
556.47	22198.1
556.67	21780.32
556.869	22073.18
557.068	22280.02
557.268	21661.54
557.467	22132.57
557.667	22247.26
557.866	21991.26
558.065	21782.37
558.265	21473.12
558.464	21561.19
558.663	21722.98
558.863	21587.81
559.062	21909.34
559.261	21581.67
559.461	22230.87
559.66	21323.62
559.859	21401.44
560.058	21102.44
560.258	21366.63
560.457	21174.12
560.656	21413.73
560.855	21198.7
561.054	21466.98
561.253	21061.48
561.453	21270.37
561.652	21131.11
561.851	21245.8
562.05	21127.02
562.249	21047.15
562.448	20930.41
562.647	21290.85
562.846	21192.55
563.045	21098.34
563.244	21055.34
563.443	21043.05
563.642	20424.56
563.841	20725.61
564.04	20678.51
564.239	20916.08
564.438	20703.09
564.637	20598.64
564.836	20522.87
565.035	20451.19
565.234	20488.05
565.432	20184.95
565.631	20152.18
565.83	20283.25
566.029	20410.23
566.228	20223.86
566.427	20256.63
566.625	20260.73
566.824	19906.43
567.023	20078.46
567.222	19574.66
567.42	19924.86
567.619	19695.49
567.818	19691.39
568.016	19425.15
568.215	20002.68
568.414	19564.42
568.612	19947.39
568.811	19728.25
569.01	19697.53
569.208	19490.69
569.407	19595.14
569.605	19333
569.804	19277.7
570.002	19017.61
570.201	19257.22
570.4	18984.84
570.598	18919.31
570.797	18904.97
570.995	18923.4
571.193	18827.15
571.392	18790.28
571.59	18511.76
571.789	18628.49
571.987	18368.4
572.186	18464.66
572.384	18360.21
572.582	18370.45
572.781	18442.13
572.979	17989.53
573.177	18030.49
573.376	18087.83
573.574	17897.37
573.772	18141.08
573.971	17950.62
574.169	18034.58
574.367	17622.94
574.565	18190.23
574.763	17522.59
574.962	17612.7
575.16	17602.46
575.358	17575.84
575.556	17362.85
575.754	17467.3
575.952	17344.42
576.151	17381.28
576.349	17162.15
576.547	16936.87
576.745	17156
576.943	16885.67
577.141	17113
577.339	16891.82
577.537	16922.54
577.735	16857
577.933	16576.43
578.131	16756.65
578.329	16412.59
578.527	16433.07
578.725	16388.02
578.923	16424.88
579.121	16592.81
579.319	16175.03
579.516	16486.32
579.714	16193.46
579.912	15949.75
580.11	16349.11
580.308	16097.21
580.506	15964.09
580.704	15513.53
580.901	15738.81
581.099	16107.44
581.297	15857.59
581.495	15828.92
581.692	15796.15
581.89	15488.96
582.088	15529.92
582.285	15304.64
582.483	15620.03
582.681	15355.84
582.878	15294.4
583.076	15067.08
583.274	15325.12
583.471	15054.79
583.669	15200.19
583.866	14905.29
584.064	15181.76
584.262	15015.88
584.459	15067.08
584.657	14802.89
584.854	15120.32
585.052	14610.38
585.249	14843.85
585.447	14755.79
585.644	14469.07
585.841	14647.24
586.039	14501.84
586.236	14557.13
586.434	14591.95
586.631	14325.71
586.828	14235.6
587.026	14342.1
587.223	14133.2
587.42	14141.39
587.618	14110.68
587.815	14012.37
588.012	13909.97
588.21	13950.93
588.407	13985.75
588.604	13879.25
588.801	13907.93
588.999	13905.88
589.196	13729.75
589.393	13701.08
589.59	13930.45
589.787	13514.72
589.984	13592.54
590.182	13543.39
590.379	13559.77
590.576	13381.6
590.773	13330.4
590.97	13430.75
591.167	13539.29
591.364	13297.63
591.561	13457.37
591.758	13275.1
591.955	13264.86
592.152	13156.32
592.349	13017.06
592.546	13090.79
592.743	12984.29
592.94	12885.99
593.137	13008.87
593.334	12861.41
593.531	12900.33
593.727	12750.82
593.924	12763.11
594.121	12900.33
594.318	12666.86
594.515	12685.29
594.712	12675.05
594.908	12754.92
595.105	12556.27
595.302	12339.18
595.499	12634.09
595.696	12410.86
595.892	12249.07
596.089	12484.59
596.286	12500.97
596.482	12468.2
596.679	12296.18
596.876	12417.01
597.072	12310.51
597.269	12300.27
597.466	11945.97
597.662	11864.05
597.859	12113.91
598.055	12027.89
598.252	11966.45
598.448	12005.36
598.645	11878.39
598.841	11655.16
599.038	11708.41
599.234	11958.26
599.431	11769.85
599.627	11646.97
599.824	11997.17
600.02	11581.43
600.217	11929.59
600.413	11581.43
600.609	11593.72
600.806	11481.08
601.002	11585.53
601.198	11401.21
601.395	11268.09
601.591	11341.82
601.787	11294.72
601.984	11259.9
602.18	11292.67
602.376	11180.03
602.572	11286.53
602.769	11161.6
602.965	10833.93
603.161	10983.43
603.357	10926.08
603.553	11051.01
603.75	10827.78
603.946	10815.49
604.142	10807.3
604.338	10905.6
604.534	10758.15
604.73	10594.31
604.926	10741.77
605.122	10661.9
605.318	10635.27
605.514	10520.59
605.71	10360.84
605.906	10389.52
606.102	10350.6
606.298	10467.34
606.494	10569.74
606.69	10326.03
606.886	10190.86
607.082	10102.8
607.278	10170.38
607.474	10063.89
607.67	10096.66
607.866	9920.53
608.062	10041.36
608.257	9984.02
608.453	9955.35
608.649	9846.8
608.845	9797.65
609.041	9793.56
609.236	9869.33
609.432	9764.89
609.628	9742.36
609.824	9613.34
610.019	9697.3
610.215	9750.55
610.411	9547.8
610.606	9738.26
610.802	9644.06
610.998	9646.1
611.193	9422.87
611.389	9476.12
611.584	9451.55
611.78	9312.28
611.976	9087.01
612.171	9300
612.367	9318.43
612.562	9166.88
612.758	9078.82
612.953	9181.21
613.149	9226.27
613.344	9093.15
613.539	9187.36
613.735	9105.44
613.93	9046.05
614.126	8966.18
614.321	9062.43
614.517	9027.62
614.712	9054.24
614.907	8841.25
615.103	8781.86
615.298	8558.63
615.493	8847.4
615.688	8798.24
615.884	8890.4
616.079	8622.12
616.274	8605.74
616.47	8640.55
616.665	8472.62
616.86	8683.56
617.055	8486.95
617.25	8527.91
617.445	8640.55
617.641	8394.79
617.836	8407.08
618.031	8222.77
618.226	8370.22
618.421	8372.27
618.616	8429.61
618.811	8243.24
619.006	8251.44
619.201	8204.33
619.396	8144.94
619.591	7987.25
619.786	8048.69
619.981	8204.33
620.176	8200.24
620.371	7958.58
620.566	7907.38
620.761	7886.9
620.956	7825.46
621.151	7690.29
621.346	7751.73
621.541	7661.62
621.735	7757.88
621.93	7675.96
622.125	7690.29
622.32	7469.11
622.515	7522.36
622.709	7516.22
622.904	7536.7
623.099	7323.71
623.294	7495.74
623.488	7325.75
623.683	7286.84
623.878	7149.63
624.072	7176.25
624.267	7202.88
624.462	7133.25
624.656	7014.46
624.851	7000.13
625.046	6996.03
625.24	6979.65
625.435	6813.76
625.629	6781
625.824	6813.76
626.018	6690.88
626.213	6416.46
626.407	6668.36
626.602	6668.36
626.796	6754.37
626.991	6512.71
627.185	6484.04
627.38	6557.77
627.574	6467.66
627.768	6492.23
627.963	6359.11
628.157	6242.38
628.352	6330.44
628.546	6361.16
628.74	6248.52
628.935	6271.05
629.129	6133.84
629.323	6217.8
629.517	6283.34
629.712	6119.5
629.906	6084.69
630.1	6070.35
630.294	6105.17
630.489	6056.01
630.683	6047.82
630.877	5988.43
631.071	5939.28
631.265	6111.31
631.459	5900.37
631.653	5896.27
631.848	5830.74
632.042	5757.01
632.236	5865.55
632.43	5720.15
632.624	5679.19
632.818	5638.23
633.012	5701.72
633.206	5445.72
633.4	5580.89
633.594	5509.21
633.788	5603.41
633.982	5451.86
634.176	5406.81
634.369	5437.53
634.563	5394.52
634.757	5331.03
634.951	5378.14
635.145	5283.93
635.339	5331.03
635.533	5216.35
635.726	5324.89
635.92	5163.1
636.114	5242.97
636.308	5015.65
636.501	5079.13
636.695	5087.33
636.889	4837.47
637.083	4946.02
637.276	5001.31
637.47	4900.96
637.664	4886.62
637.857	4827.23
638.051	4984.93
638.244	4864.1
638.438	4696.16
638.632	4927.58
638.825	4704.35
639.019	4716.64
639.212	4763.75
639.406	4649.06
639.599	4610.15
639.793	4679.78
639.986	4626.53
640.18	4530.28
640.373	4501.61
640.567	4569.19
640.76	4556.9
640.954	4522.09
641.147	4366.44
641.34	4311.14
641.534	4468.84
641.727	4345.96
641.92	4218.99
642.114	4255.85
642.307	4354.15
642.5	4253.8
642.694	4286.57
642.887	4081.77
643.08	4108.4
643.273	4124.78
643.467	3960.94
643.66	4126.83
643.853	4026.48
644.046	4081.77
644.239	4053.1
644.432	3967.09
644.626	3930.22
644.819	3876.98
645.012	3946.61
645.205	3983.47
645.398	3836.02
645.591	3793.01
645.784	3678.32
645.977	3715.19
646.17	3651.7
646.363	3774.58
646.556	3573.88
646.749	3770.48
646.942	3498.1
647.135	3616.88
647.328	3600.5
647.521	3528.82
647.714	3532.92
647.907	3451
648.099	3430.52
648.292	3496.05
648.485	3405.94
648.678	3324.02
648.871	3336.31
649.064	3309.69
649.256	3285.11
649.449	3330.17
649.642	3229.82
649.835	3264.63
650.027	3098.75
650.22	3119.23
650.413	3104.89
650.605	3104.89
650.798	3188.86
650.991	3121.28
651.183	3182.71
651.376	3029.12
651.568	3104.89
651.761	3043.45
651.954	3092.6
652.146	2988.16
652.339	2924.67
652.531	3008.64
652.724	2834.56
652.916	2875.52
653.109	2861.18
653.301	3010.68
653.494	2871.42
653.686	2812.03
653.879	2771.07
654.071	2844.8
654.263	2732.16
654.456	2787.46
654.648	2814.08
654.84	2670.72
655.033	2597
655.225	2652.29
655.417	2564.23
655.61	2699.39
655.802	2627.71
655.994	2594.95
656.186	2549.89
656.379	2578.56
656.571	2560.13
656.763	2424.97
656.955	2506.88
657.148	2416.77
657.34	2443.4
657.532	2375.81
657.724	2574.47
657.916	2517.12
658.108	2455.69
658.3	2289.8
658.492	2314.38
658.684	2297.99
658.876	2470.02
659.068	2271.37
659.26	2357.38
659.452	2320.52
659.644	2324.62
659.836	2232.46
660.028	2205.83
660.22	2226.31
660.412	2144.39
660.604	2166.92
660.796	2099.34
660.988	2099.34
661.18	2140.3
661.372	2072.72
661.563	2134.15
661.755	2123.91
661.947	2111.63
662.139	2046.09
662.331	2121.87
662.522	2070.67
662.714	1960.08
662.906	2025.61
663.097	1900.69
663.289	1996.94
663.481	1931.41
663.673	1947.79
663.864	1919.12
664.056	1894.54
664.247	1917.07
664.439	1865.87
664.631	1890.45
664.822	1878.16
665.014	1929.36
665.205	1915.02
665.397	1859.73
665.588	1833.1
665.78	1824.91
665.971	1773.71
666.163	1765.52
666.354	1794.19
666.546	1761.42
666.737	1773.71
666.929	1734.8
667.12	1751.18
667.311	1697.94
667.503	1747.09
667.694	1683.6
667.885	1636.5
668.077	1716.37
668.268	1630.35
668.459	1605.78
668.651	1800.34
668.842	1630.35
669.033	1673.36
669.224	1630.35
669.416	1599.63
669.607	1640.59
669.798	1630.35
669.989	1679.51
670.18	1603.73
670.371	1587.35
670.563	1568.91
670.754	1626.26
670.945	1587.35
671.136	1616.02
671.327	1544.34
671.518	1609.87
671.709	1579.15
671.9	1558.67
672.091	1564.82
672.282	1532.05
672.473	1503.38
672.664	1466.52
672.855	1423.51
673.046	1493.14
673.237	1493.14
673.428	1464.47
673.619	1527.96
673.809	1556.63
674	1585.3
674.191	1497.24
674.382	1478.8
674.573	1560.72
674.764	1546.39
674.954	1509.52
675.145	1464.47
675.336	1396.89
675.527	1472.66
675.717	1503.38
675.908	1417.37
676.099	1429.65
676.289	1505.43
676.48	1493.14
676.671	1491.09
676.861	1353.88
677.052	1423.51
677.243	1339.54
677.433	1437.84
677.624	1464.47
677.814	1382.55
678.005	1411.22
678.195	1403.03
678.386	1425.56
678.576	1337.49
678.767	1329.3
678.957	1392.79
679.148	1376.41
679.338	1411.22
679.529	1400.98
679.719	1284.25
679.909	1431.7
680.1	1357.97
680.29	1339.54
680.481	1452.18
680.671	1388.69
680.861	1306.77
681.052	1415.32
681.242	1376.41
681.432	1431.7
681.622	1386.65
681.813	1437.84
682.003	1538.2
682.193	1421.46
682.383	1349.78
682.573	1360.02
682.764	1386.65
682.954	1368.21
683.144	1380.5
683.334	1441.94
683.524	1388.69
683.714	1446.04
683.904	1415.32
684.094	1448.08
684.284	1370.26
684.474	1339.54
684.664	1353.88
684.854	1460.37
685.044	1396.89
685.234	1386.65
685.424	1396.89
685.614	1310.87
685.804	1374.36
685.994	1525.91
686.184	1398.93
686.374	1355.93
686.564	1484.95
686.753	1351.83
686.943	1400.98
687.133	1347.73
687.323	1415.32
687.513	1466.52
687.702	1372.31
687.892	1388.69
688.082	1443.99
688.272	1505.43
688.461	1415.32
688.651	1452.18
688.841	1405.08
689.03	1384.6
689.22	1495.19
689.41	1439.89
689.599	1284.25
689.789	1431.7
689.979	1398.93
690.168	1333.4
690.358	1413.27
690.547	1460.37
690.737	1540.24
690.926	1394.84
691.116	1464.47
691.305	1478.8
691.495	1427.6
691.684	1468.56
691.874	1470.61
692.063	1472.66
692.252	1501.33
692.442	1468.56
692.631	1382.55
692.82	1546.39
693.01	1456.28
693.199	1484.95
693.388	1454.23
693.578	1464.47
693.767	1431.7
693.956	1525.91
694.146	1540.24
694.335	1491.09
694.524	1501.33
694.713	1415.32
694.902	1503.38
695.092	1448.08
695.281	1462.42
695.47	1491.09
695.659	1437.84
695.848	1443.99
696.037	1558.67
696.226	1577.11
696.415	1618.07
696.604	1443.99
696.793	1515.67
696.982	1525.91
697.171	1609.87
697.36	1546.39
697.549	1534.1
697.738	1468.56
697.927	1652.88
698.116	1523.86
698.305	1556.63
698.494	1605.78
698.683	1624.21
698.872	1546.39
699.061	1542.29
699.25	1577.11
699.438	1560.72
699.627	1466.52
699.816	1599.63
700.005	1626.26
700.193	1599.63
700.382	1585.3
700.571	1573.01
700.76	1534.1
700.948	1523.86
701.137	1491.09
701.326	1579.15
701.514	1542.29
701.703	1652.88
701.892	1503.38
702.08	1472.66
702.269	1548.44
702.457	1466.52
702.646	1618.07
702.834	1558.67
703.023	1489.04
703.212	1409.17
703.4	1497.24
703.589	1538.2
703.777	1566.87
703.965	1601.68
704.154	1679.51
704.342	1441.94
704.531	1640.59
704.719	1505.43
704.907	1448.08
705.096	1577.11
705.284	1534.1
705.472	1564.82
705.661	1536.15
705.849	1493.14
706.037	1570.96
706.226	1575.06
706.414	1534.1
706.602	1525.91
706.79	1603.73
706.979	1515.67
707.167	1560.72
707.355	1521.81
707.543	1570.96
707.731	1562.77
707.919	1466.52
708.107	1431.7
708.296	1509.52
708.484	1425.56
708.672	1353.88
708.86	1497.24
709.048	1362.07
709.236	1362.07
709.424	1433.75
709.612	1468.56
709.8	1427.6
709.988	1474.71
710.176	1462.42
710.364	1577.11
710.551	1415.32
710.739	1337.49
710.927	1347.73
711.115	1390.74
711.303	1304.73
711.491	1425.56
711.679	1368.21
711.866	1333.4
712.054	1468.56
712.242	1345.69
712.43	1392.79
712.617	1333.4
712.805	1388.69
712.993	1312.92
713.181	1489.04
713.368	1439.89
713.556	1353.88
713.744	1247.38
713.931	1407.13
714.119	1368.21
714.306	1312.92
714.494	1353.88
714.682	1263.77
714.869	1327.25
715.057	1263.77
715.244	1292.44
715.432	1302.68
715.619	1351.83
715.807	1271.96
715.994	1312.92
716.182	1278.1
716.369	1304.73
716.556	1288.34
716.744	1405.08
716.931	1222.81
717.119	1296.53
717.306	1243.29
717.493	1368.21
717.681	1317.01
717.868	1198.23
718.055	1261.72
718.242	1222.81
718.43	1220.76
718.617	1382.55
718.804	1241.24
718.991	1214.62
719.179	1192.09
719.366	1116.31
719.553	1306.77
719.74	1210.52
719.927	1255.58
720.114	1286.3
720.301	1237.14
720.488	1179.8
720.676	1210.52
720.863	1280.15
721.05	1171.61
721.237	1208.47
721.424	1177.75
721.611	1144.99
721.798	1190.04
721.985	1091.74
722.172	1138.84
722.358	1075.35
722.545	1159.32
722.732	1122.46
722.919	1116.31
723.106	1093.79
723.293	1077.4
723.48	1095.83
723.667	1093.79
723.853	1099.93
724.04	1079.45
724.227	1118.36
724.414	960.67
724.6	1067.16
724.787	1087.64
724.974	1089.69
725.161	1101.98
725.347	1034.39
725.534	1067.16
725.72	1020.06
725.907	1124.51
726.094	1071.26
726.28	1063.07
726.467	1038.49
726.653	1032.35
726.84	1018.01
727.027	1104.03
727.213	1083.55
727.4	1013.92
727.586	1093.79
727.773	1075.35
727.959	1028.25
728.145	1108.12
728.332	1026.2
728.518	993.44
728.705	1009.82
728.891	1018.01
729.077	1065.11
729.264	1099.93
729.45	1044.63
729.636	975
729.823	989.34
730.009	1071.26
730.195	993.44
730.382	1061.02
730.568	948.38
730.754	1036.44
730.94	989.34
731.126	991.39
731.313	1034.39
731.499	1011.87
731.685	1020.06
731.871	942.24
732.057	1040.54
732.243	1007.77
732.429	1020.06
732.615	1022.11
732.801	981.15
732.987	962.72
733.173	934.04
733.359	911.52
733.545	927.9
733.731	938.14
733.917	970.91
734.103	948.38
734.289	915.61
734.475	929.95
734.661	940.19
734.847	903.32
735.033	1009.82
735.219	983.2
735.404	938.14
735.59	899.23
735.776	936.09
735.962	878.75
736.148	903.32
736.333	944.28
736.519	852.13
736.705	940.19
736.89	983.2
737.076	815.26
737.262	809.12
737.447	870.56
737.633	884.89
737.819	905.37
738.004	829.6
738.19	882.85
738.375	893.09
738.561	954.52
738.747	964.76
738.932	907.42
739.118	800.93
739.303	819.36
739.489	805.02
739.674	809.12
739.859	790.69
740.045	776.35
740.23	825.5
740.416	774.3
740.601	845.98
740.786	868.51
740.972	782.49
741.157	753.82
741.342	837.79
741.528	784.54
741.713	854.17
741.898	802.97
742.084	802.97
742.269	776.35
742.454	729.25
742.639	772.25
742.824	835.74
743.01	823.45
743.195	802.97
743.38	827.55
743.565	768.16
743.75	753.82
743.935	710.82
744.12	762.02
744.305	764.06
744.49	784.54
744.675	700.58
744.86	739.49
745.045	776.35
745.23	714.91
745.415	676
745.6	737.44
745.785	682.14
745.97	745.63
746.155	694.43
746.34	725.15
746.525	630.95
746.71	792.73
746.895	684.19
747.079	686.24
747.264	641.18
747.449	676
747.634	655.52
747.819	702.62
748.003	602.27
748.188	669.86
748.373	698.53
748.557	749.73
748.742	700.58
748.927	632.99
749.111	737.44
749.296	587.94
749.481	739.49
749.665	626.85
749.85	639.14
750.034	622.75
750.219	684.19
750.404	622.75
750.588	618.66
750.773	555.17
750.957	555.17
751.141	608.42
751.326	589.99
751.51	612.51
751.695	620.71
751.879	565.41
752.064	616.61
752.248	555.17
752.432	579.75
752.617	528.55
752.801	532.64
752.985	637.09
753.17	544.93
753.354	565.41
753.538	637.09
753.722	557.22
753.907	536.74
754.091	516.26
754.275	460.96
754.459	577.7
754.643	561.31
754.828	589.99
755.012	524.45
755.196	530.59
755.38	567.46
755.564	506.02
755.748	463.01
755.932	559.27
756.116	501.92
756.3	450.72
756.484	440.48
756.668	489.64
756.852	536.74
757.036	465.06
757.22	428.2
757.404	506.02
757.588	473.25
757.772	442.53
757.956	522.4
758.14	475.3
758.323	463.01
758.507	440.48
758.691	465.06
758.875	473.25
759.059	467.11
759.242	463.01
759.426	483.49
759.61	438.44
759.794	465.06
759.977	456.87
760.161	456.87
760.345	489.64
760.528	440.48
760.712	475.3
760.895	422.05
761.079	379.04
761.263	407.72
761.446	430.24
761.63	424.1
761.813	409.76
761.997	434.34
762.18	452.77
762.364	401.57
762.547	344.23
762.731	497.83
762.914	424.1
763.098	407.72
763.281	413.86
763.464	403.62
763.648	379.04
763.831	438.44
764.015	422.05
764.198	395.43
764.381	424.1
764.564	397.48
764.748	370.85
764.931	356.52
765.114	448.68
765.297	454.82
765.481	381.09
765.664	311.46
765.847	399.52
766.03	411.81
766.213	354.47
766.397	387.24
766.58	313.51
766.763	346.28
766.946	399.52
767.129	381.09
767.312	407.72
767.495	389.28
767.678	368.81
767.861	379.04
768.044	413.86
768.227	311.46
768.41	344.23
768.593	346.28
768.776	374.95
768.959	372.9
769.142	395.43
769.324	387.24
769.507	368.81
769.69	366.76
769.873	338.09
770.056	370.85
770.239	434.34
770.421	360.61
770.604	399.52
770.787	354.47
770.97	360.61
771.152	317.61
771.335	264.36
771.518	290.98
771.7	286.89
771.883	297.13
772.066	348.33
772.248	352.42
772.431	385.19
772.613	440.48
772.796	280.74
772.978	329.89
773.161	346.28
773.343	264.36
773.526	303.27
773.708	293.03
773.891	258.21
774.073	309.41
774.256	399.52
774.438	352.42
774.621	327.85
774.803	295.08
774.985	254.12
775.168	288.93
775.35	329.89
775.532	309.41
775.715	321.7
775.897	243.88
776.079	204.97
776.261	307.37
776.444	270.5
776.626	239.78
776.808	280.74
776.99	286.89
777.173	340.13
777.355	333.99
777.537	284.84
777.719	286.89
777.901	290.98
778.083	327.85
778.265	233.64
778.447	272.55
778.629	254.12
778.811	317.61
778.993	223.4
779.175	233.64
779.357	254.12
779.539	307.37
779.721	241.83
779.903	321.7
780.085	256.17
780.267	245.93
780.449	264.36
780.631	245.93
780.812	243.88
780.994	231.59
781.176	252.07
781.358	184.49
781.54	274.6
781.721	209.06
781.903	215.21
782.085	219.3
782.267	192.68
782.448	161.96
782.63	274.6
782.812	231.59
782.993	237.74
783.175	213.16
783.357	147.62
783.538	223.4
783.72	209.06
783.901	288.93
784.083	235.69
784.264	254.12
784.446	221.35
784.627	245.93
784.809	258.21
784.99	260.26
785.172	190.63
785.353	166.06
785.535	180.39
785.716	211.11
785.897	131.24
786.079	223.4
786.26	180.39
786.441	219.3
786.623	202.92
786.804	182.44
786.985	96.43
787.167	272.55
787.348	159.91
787.529	196.78
787.71	196.78
787.891	227.5
788.073	198.82
788.254	149.67
788.435	166.06
788.616	90.28
788.797	145.58
788.978	100.52
789.159	129.19
789.34	194.73
789.522	151.72
789.703	106.67
789.884	225.45
790.065	151.72
790.246	172.2
790.427	125.1
790.607	196.78
790.788	166.06
790.969	164.01
791.15	172.2
791.331	151.72
791.512	110.76
791.693	90.28
791.874	135.34
792.054	73.9
792.235	164.01
792.416	155.82
792.597	151.72
792.778	112.81
792.958	200.87
793.139	182.44
793.32	84.14
793.5	129.19
793.681	180.39
793.862	133.29
794.042	153.77
794.223	12.46
794.404	174.25
794.584	100.52
794.765	161.96
794.945	139.43
795.126	121
795.306	153.77
795.487	118.95
795.667	141.48
795.848	141.48
796.028	71.85
796.209	116.9
796.389	155.82
796.57	145.58
796.75	161.96
796.93	139.43
797.111	125.1
797.291	149.67
797.471	98.47
797.652	108.71
797.832	157.86
798.012	155.82
798.192	127.14
798.373	172.2
798.553	137.38
798.733	129.19
798.913	59.56
799.093	141.48
799.274	82.09
799.454	170.15
799.634	145.58
799.814	112.81
799.994	127.14
800.174	104.62
800.354	98.47
800.534	88.23
800.714	106.67
800.894	34.99
801.074	110.76
801.254	166.06
801.434	110.76
801.614	73.9
801.794	86.19
801.974	280.74
802.154	55.47
802.334	34.99
802.514	45.23
802.693	53.42
802.873	121
803.053	127.14
803.233	180.39
803.413	108.71
803.592	22.7
803.772	67.75
803.952	188.58
804.131	114.86
804.311	139.43
804.491	45.23
804.67	112.81
804.85	186.54
805.03	104.62
805.209	96.43
805.389	102.57
805.568	98.47
805.748	104.62
805.928	90.28
806.107	73.9
806.287	77.99
806.466	39.08
806.646	92.33
806.825	30.89
807.004	108.71
807.184	67.75
807.363	121
807.543	39.08
807.722	55.47
807.901	102.57
808.081	104.62
808.26	-3.93
808.439	121
808.619	90.28
808.798	53.42
808.977	26.79
809.156	114.86
809.336	63.66
809.515	53.42
809.694	32.94
809.873	118.95
810.052	57.51
810.231	147.62
810.411	84.14
810.59	45.23
810.769	51.37
810.948	88.23
811.127	69.8
811.306	94.38
811.485	59.56
811.664	67.75
811.843	137.38
812.022	4.27
812.201	114.86
812.38	69.8
812.559	59.56
812.737	0.17
812.916	-30.55
813.095	116.9
813.274	12.46
813.453	49.32
813.632	30.89
813.811	75.95
813.989	-3.93
814.168	16.55
814.347	2.22
814.526	53.42
814.704	47.27
814.883	63.66
815.062	-12.12
815.24	100.52
815.419	12.46
815.598	53.42
815.776	57.51
815.955	28.84
816.133	-10.07
816.312	80.04
816.49	63.66
816.669	28.84
816.847	14.51
817.026	18.6
817.204	47.27
817.383	51.37
817.561	49.32
817.74	2.22
817.918	92.33
818.097	39.08
818.275	59.56
818.453	135.34
818.632	65.71
818.81	-12.12
818.988	57.51
819.167	67.75
819.345	92.33
819.523	53.42
819.701	69.8
819.879	45.23
820.058	94.38
820.236	82.09
820.414	43.18
820.592	92.33
820.77	77.99
820.948	75.95
821.127	73.9
821.305	10.41
821.483	53.42
821.661	98.47
821.839	43.18
822.017	49.32
822.195	28.84
822.373	80.04
822.551	73.9
822.729	55.47
822.907	26.79
823.085	41.13
823.262	73.9
823.44	47.27
823.618	37.03
823.796	59.56
823.974	116.9
824.152	65.71
824.329	28.84
824.507	104.62
824.685	24.75
824.863	90.28
825.04	-48.98
825.218	12.46
825.396	24.75
825.574	80.04
825.751	-18.26
825.929	96.43
826.107	-57.17
826.284	39.08
826.462	88.23
826.639	53.42
826.817	-3.93
826.994	100.52
827.172	-18.26
827.349	45.23
827.527	45.23
827.704	59.56
827.882	57.51
828.059	104.62
828.237	-16.21
828.414	32.94
828.591	22.7
828.769	96.43
828.946	-26.45
829.124	49.32
829.301	8.36
829.478	71.85
829.655	12.46
829.833	92.33
830.01	92.33
830.187	43.18
830.364	88.23
830.542	34.99
830.719	147.62
830.896	77.99
831.073	18.6
831.25	61.61
831.427	0.17
831.604	39.08
831.782	94.38
831.959	84.14
832.136	80.04
832.313	90.28
832.49	86.19
832.667	14.51
832.844	69.8
833.021	20.65
833.198	14.51
833.374	67.75
833.551	28.84
833.728	12.46
833.905	24.75
834.082	24.75
834.259	39.08
834.436	77.99
834.612	28.84
834.789	63.66
834.966	32.94
835.143	26.79
835.319	16.55
835.496	18.6
835.673	69.8
835.85	-34.64
836.026	77.99
836.203	16.55
836.38	-8.02
836.556	45.23
836.733	-1.88
836.909	20.65
837.086	59.56
837.262	-32.6
837.439	-12.12
837.616	53.42
837.792	12.46
837.968	6.31
838.145	43.18
838.321	75.95
838.498	18.6
838.674	39.08
838.851	0.17
839.027	0.17
839.203	57.51
839.38	26.79
839.556	2.22
839.732	10.41
839.909	77.99
840.085	-1.88
840.261	88.23
840.437	96.43
840.614	53.42
840.79	37.03
840.966	65.71
841.142	28.84
841.318	10.41
841.494	59.56
841.671	30.89
841.847	135.34
842.023	57.51
842.199	63.66
842.375	-36.69
842.551	-3.93
842.727	20.65
842.903	57.51
843.079	65.71
843.255	18.6
843.431	-32.6
843.607	24.75
843.783	-100.18
843.959	18.6
844.134	63.66
844.31	34.99
844.486	53.42
844.662	73.9
844.838	14.51
845.013	92.33
845.189	43.18
845.365	28.84
845.541	41.13
845.716	77.99
845.892	55.47
846.068	69.8
846.244	63.66
846.419	69.8
846.595	-24.4
846.77	82.09
846.946	-14.17
847.122	45.23
847.297	104.62
847.473	6.31
847.648	26.79
847.824	106.67
847.999	-40.79
848.175	14.51
848.35	12.46
848.526	59.56
848.701	26.79
848.876	84.14
849.052	77.99
849.227	65.71
849.403	-51.03
849.578	18.6
849.753	49.32
849.929	59.56
850.104	-14.17
850.279	18.6
850.454	-44.88
850.63	-16.21
850.805	24.75
850.98	18.6
851.155	82.09
851.33	-5.97
851.505	39.08
851.681	77.99
851.856	0.17
852.031	-57.17
852.206	34.99
852.381	20.65
852.556	65.71
852.731	63.66
852.906	16.55
853.081	106.67
853.256	45.23
853.431	39.08
853.606	20.65
853.781	-55.12
853.956	6.31
854.131	45.23
854.305	98.47
854.48	82.09
854.655	-3.93
854.83	88.23
855.005	34.99
855.18	-3.93
855.354	98.47
855.529	8.36
855.704	30.89
855.879	34.99
856.053	-16.21
856.228	26.79
856.403	-10.07
856.577	63.66
856.752	75.95
856.926	-10.07
857.101	49.32
857.276	45.23
857.45	-26.45
857.625	20.65
857.799	57.51
857.974	-3.93
858.148	-5.97
858.323	53.42
858.497	57.51
858.672	8.36
858.846	24.75
859.02	34.99
859.195	-18.26
859.369	10.41
859.543	-48.98
859.718	59.56
859.892	8.36
860.066	43.18
860.241	-48.98
860.415	34.99
860.589	30.89
860.763	59.56
860.938	2.22
861.112	49.32
861.286	-1.88
861.46	51.37
861.634	26.79
861.808	37.03
861.982	-32.6
862.157	51.37
862.331	-51.03
862.505	77.99
862.679	-30.55
862.853	37.03
863.027	-12.12
863.201	82.09
863.375	26.79
863.549	28.84
863.722	84.14
863.896	26.79
864.07	-8.02
864.244	4.27
864.418	34.99
864.592	59.56
864.766	16.55
864.939	75.95
865.113	18.6
865.287	37.03
865.461	26.79
865.634	14.51
865.808	10.41
865.982	69.8
866.156	41.13
866.329	-5.97
866.503	-48.98
866.676	-18.26
866.85	4.27
867.024	77.99
867.197	73.9
867.371	-14.17
867.544	28.84
867.718	24.75
867.891	0.17
868.065	67.75
868.238	-8.02
868.412	0.17
868.585	-18.26
868.759	37.03
868.932	-32.6
869.105	75.95
869.279	32.94
869.452	18.6
869.625	8.36
869.799	2.22
869.972	-1.88
870.145	-20.31
870.319	41.13
870.492	55.47
870.665	16.55
870.838	41.13
871.011	-1.88
871.185	-8.02
871.358	18.6
871.531	-14.17
871.704	8.36
871.877	-3.93
872.05	30.89
872.223	-22.36
872.396	41.13
872.569	-61.27
872.742	6.31
872.915	-18.26
873.088	-8.02
873.261	-55.12
873.434	20.65
873.607	6.31
873.78	-16.21
873.953	37.03
874.126	-26.45
874.299	80.04
874.471	61.61
874.644	12.46
874.817	-18.26
874.99	118.95
875.163	-32.6
875.335	16.55
875.508	-1.88
875.681	-18.26
875.853	77.99
876.026	30.89
876.199	61.61
876.371	-5.97
876.544	51.37
876.717	82.09
876.889	26.79
877.062	92.33
877.234	2.22
877.407	-42.84
877.579	-28.5
877.752	45.23
877.924	8.36
878.097	55.47
878.269	10.41
878.442	-8.02
878.614	-10.07
878.786	18.6
878.959	-28.5
879.131	-1.88
879.303	-8.02
879.476	-10.07
879.648	-5.97
879.82	20.65
879.993	37.03
880.165	32.94
880.337	0.17
880.509	57.51
880.681	-51.03
880.854	-36.69
881.026	10.41
881.198	4.27
881.37	49.32
881.542	-32.6
881.714	98.47
881.886	65.71
882.058	18.6
882.23	67.75
882.402	-36.69
882.574	55.47
882.746	57.51
882.918	45.23
883.09	49.32
883.262	10.41
883.434	6.31
883.606	51.37
883.778	-1.88
883.95	24.75
884.122	2.22
884.293	20.65
884.465	71.85
884.637	-5.97
884.809	6.31
884.98	-8.02
885.152	18.6
885.324	-38.74
885.496	32.94
885.667	6.31
885.839	-14.17
886.011	0.17
886.182	59.56
886.354	30.89
886.525	22.7
886.697	28.84
886.869	45.23
887.04	41.13
887.212	14.51
887.383	75.95
887.555	-42.84
887.726	-48.98
887.897	12.46
888.069	32.94
888.24	26.79
888.412	55.47
888.583	-16.21
888.754	-12.12
888.926	-20.31
889.097	-5.97
889.268	2.22
889.44	-10.07
889.611	-36.69
889.782	-8.02
889.953	4.27
890.125	37.03
890.296	-3.93
890.467	80.04
890.638	-30.55
890.809	18.6
890.98	-12.12
891.151	16.55
891.323	32.94
891.494	39.08
891.665	14.51
891.836	-22.36
892.007	45.23
892.178	41.13
892.349	-12.12
892.52	-24.4
892.691	-8.02
892.862	77.99
893.032	30.89
893.203	65.71
893.374	0.17
893.545	32.94
893.716	14.51
893.887	-40.79
894.057	-3.93
894.228	2.22
894.399	65.71
894.57	-61.27
894.74	49.32
894.911	22.7
895.082	6.31
895.253	-34.64
895.423	0.17
895.594	14.51
895.764	30.89
895.935	2.22
896.106	-26.45
896.276	32.94
896.447	41.13
896.617	22.7
896.788	71.85
896.958	-5.97
897.129	-22.36
897.299	20.65
897.47	47.27
897.64	53.42
897.81	-18.26
897.981	55.47
898.151	37.03
898.322	28.84
898.492	34.99
898.662	63.66
898.832	-53.08
899.003	20.65
899.173	-20.31
899.343	49.32
899.513	6.31
