Data from USB4F104151__46__13-53-23-038.txt Node

Date: Thu Mar 13 13:53:23 EDT 2025
User: louis
Spectrometer: USB4F10415
Trigger mode: 4
Integration Time (sec): 1.000000E-2
Scans to average: 1
Electric dark correction enabled: true
Nonlinearity correction enabled: false
Boxcar width: 0
XAxis mode: Wavelengths
Number of Pixels in Spectrum: 3648
>>>>>Begin Spectral Data<<<<<
178.204	-49.83
178.424	-49.83
178.644	-49.83
178.864	21.85
179.084	-4.78
179.304	87.38
179.524	-2.73
179.744	11.61
179.964	36.18
180.184	-19.11
180.404	-21.16
180.624	-35.5
180.844	11.61
181.064	-2.73
181.283	5.46
181.503	-21.16
181.723	-49.83
181.943	13.65
182.163	5.46
182.383	-29.35
182.602	40.28
182.822	25.94
183.042	34.13
183.262	42.32
183.482	-55.98
183.701	15.7
183.921	19.8
184.141	-45.74
184.361	52.56
184.58	118.1
184.8	25.94
185.02	30.04
185.239	3.41
185.459	-2.73
185.679	32.08
185.898	-41.64
186.118	-17.07
186.338	-4.78
186.557	79.19
186.777	50.52
186.997	34.13
187.216	-15.02
187.436	27.99
187.655	5.46
187.875	27.99
188.095	42.32
188.314	-2.73
188.534	58.71
188.753	3.41
188.973	-12.97
189.192	66.9
189.412	9.56
189.631	-64.17
189.851	-25.26
190.07	38.23
190.29	-8.87
190.509	44.37
190.729	-41.64
190.948	-35.5
191.168	27.99
191.387	52.56
191.607	42.32
191.826	-10.92
192.045	-21.16
192.265	-15.02
192.484	-12.97
192.704	34.13
192.923	25.94
193.142	79.19
193.362	11.61
193.581	15.7
193.8	-17.07
194.02	34.13
194.239	32.08
194.458	27.99
194.678	58.71
194.897	34.13
195.116	-43.69
195.335	71
195.555	34.13
195.774	34.13
195.993	-53.93
196.212	27.99
196.432	7.51
196.651	5.46
196.87	75.09
197.089	44.37
197.308	9.56
197.528	50.52
197.747	54.61
197.966	73.04
198.185	68.95
198.404	17.75
198.623	-51.88
198.842	11.61
199.062	13.65
199.281	23.89
199.5	30.04
199.719	54.61
199.938	27.99
200.157	-39.59
200.376	93.52
200.595	38.23
200.814	56.66
201.033	-4.78
201.252	11.61
201.471	1.37
201.69	34.13
201.909	-27.31
202.128	46.42
202.347	-4.78
202.566	-43.69
202.785	79.19
203.004	7.51
203.223	19.8
203.442	32.08
203.661	44.37
203.879	75.09
204.098	5.46
204.317	25.94
204.536	48.47
204.755	48.47
204.974	44.37
205.193	-15.02
205.411	101.72
205.63	46.42
205.849	58.71
206.068	44.37
206.287	46.42
206.505	46.42
206.724	19.8
206.943	89.43
207.162	44.37
207.381	75.09
207.599	19.8
207.818	-64.17
208.037	44.37
208.255	36.18
208.474	21.85
208.693	-33.45
208.911	-15.02
209.13	46.42
209.349	58.71
209.567	66.9
209.786	42.32
210.005	7.51
210.223	-29.35
210.442	11.61
210.661	15.7
210.879	-4.78
211.098	19.8
211.316	81.24
211.535	-2.73
211.753	-21.16
211.972	32.08
212.191	7.51
212.409	-15.02
212.628	-27.31
212.846	50.52
213.065	-25.26
213.283	52.56
213.502	36.18
213.72	19.8
213.938	-0.68
214.157	-2.73
214.375	42.32
214.594	114
214.812	7.51
215.031	-10.92
215.249	1.37
215.467	17.75
215.686	-15.02
215.904	75.09
216.122	-31.4
216.341	36.18
216.559	-51.88
216.778	38.23
216.996	17.75
217.214	42.32
217.432	5.46
217.651	73.04
217.869	34.13
218.087	109.91
218.306	7.51
218.524	-23.21
218.742	-0.68
218.96	66.9
219.179	52.56
219.397	19.8
219.615	15.7
219.833	40.28
220.051	-39.59
220.27	38.23
220.488	27.99
220.706	36.18
220.924	-15.02
221.142	11.61
221.36	-19.11
221.578	9.56
221.796	25.94
222.015	-23.21
222.233	-19.11
222.451	27.99
222.669	-0.68
222.887	23.89
223.105	-19.11
223.323	-19.11
223.541	-43.69
223.759	23.89
223.977	60.76
224.195	87.38
224.413	-25.26
224.631	58.71
224.849	40.28
225.067	21.85
225.285	-12.97
225.503	21.85
225.721	34.13
225.939	-8.87
226.157	-84.65
226.375	60.76
226.592	-10.92
226.81	-15.02
227.028	50.52
227.246	68.95
227.464	1.37
227.682	38.23
227.9	19.8
228.117	36.18
228.335	73.04
228.553	-88.75
228.771	75.09
228.989	13.65
229.206	54.61
229.424	3.41
229.642	21.85
229.86	-12.97
230.077	25.94
230.295	93.52
230.513	105.81
230.731	17.75
230.948	64.85
231.166	-35.5
231.384	-33.45
231.601	-55.98
231.819	-19.11
232.037	71
232.254	25.94
232.472	17.75
232.689	-29.35
232.907	-45.74
233.125	-8.87
233.342	83.28
233.56	60.76
233.777	-72.36
233.995	27.99
234.213	62.8
234.43	7.51
234.648	11.61
234.865	66.9
235.083	36.18
235.3	34.13
235.518	38.23
235.735	9.56
235.953	-4.78
236.17	58.71
236.388	-0.68
236.605	-10.92
236.822	-8.87
237.04	75.09
237.257	-4.78
237.475	50.52
237.692	-15.02
237.909	1.37
238.127	48.47
238.344	-21.16
238.562	17.75
238.779	11.61
238.996	50.52
239.214	13.65
239.431	38.23
239.648	-6.83
239.865	44.37
240.083	34.13
240.3	25.94
240.517	-72.36
240.735	36.18
240.952	68.95
241.169	21.85
241.386	7.51
241.603	40.28
241.821	-45.74
242.038	-19.11
242.255	32.08
242.472	13.65
242.689	19.8
242.907	-0.68
243.124	77.14
243.341	58.71
243.558	-62.12
243.775	62.8
243.992	-23.21
244.209	7.51
244.426	-23.21
244.643	85.33
244.86	40.28
245.078	19.8
245.295	30.04
245.512	71
245.729	40.28
245.946	-53.93
246.163	66.9
246.38	-17.07
246.597	1.37
246.814	25.94
247.031	9.56
247.248	56.66
247.464	1.37
247.681	32.08
247.898	30.04
248.115	23.89
248.332	50.52
248.549	13.65
248.766	42.32
248.983	30.04
249.2	38.23
249.417	-19.11
249.633	77.14
249.85	-17.07
250.067	-19.11
250.284	19.8
250.501	-17.07
250.717	-17.07
250.934	-2.73
251.151	-0.68
251.368	-21.16
251.585	36.18
251.801	30.04
252.018	34.13
252.235	71
252.451	21.85
252.668	62.8
252.885	-4.78
253.102	3.41
253.318	17.75
253.535	-35.5
253.752	56.66
253.968	9.56
254.185	50.52
254.401	36.18
254.618	5.46
254.835	34.13
255.051	34.13
255.268	38.23
255.484	23.89
255.701	-76.46
255.917	46.42
256.134	38.23
256.351	-25.26
256.567	-31.4
256.784	-27.31
257	-33.45
257.217	48.47
257.433	46.42
257.65	116.05
257.866	-6.83
258.082	40.28
258.299	-37.55
258.515	44.37
258.732	81.24
258.948	48.47
259.165	42.32
259.381	38.23
259.597	15.7
259.814	50.52
260.03	-8.87
260.246	-27.31
260.463	34.13
260.679	1.37
260.895	7.51
261.112	1.37
261.328	-33.45
261.544	25.94
261.761	58.71
261.977	21.85
262.193	42.32
262.409	91.48
262.626	-2.73
262.842	-60.07
263.058	1.37
263.274	68.95
263.49	-10.92
263.707	66.9
263.923	-10.92
264.139	25.94
264.355	-31.4
264.571	71
264.787	44.37
265.004	114
265.22	19.8
265.436	15.7
265.652	25.94
265.868	52.56
266.084	48.47
266.3	-4.78
266.516	-37.55
266.732	15.7
266.948	7.51
267.164	66.9
267.38	3.41
267.596	46.42
267.812	9.56
268.028	-8.87
268.244	64.85
268.46	38.23
268.676	21.85
268.892	-2.73
269.108	58.71
269.324	85.33
269.54	-4.78
269.756	48.47
269.972	27.99
270.188	44.37
270.403	40.28
270.619	-10.92
270.835	56.66
271.051	-0.68
271.267	23.89
271.483	25.94
271.698	62.8
271.914	7.51
272.13	42.32
272.346	85.33
272.562	25.94
272.777	52.56
272.993	-21.16
273.209	21.85
273.425	-17.07
273.64	-90.79
273.856	34.13
274.072	46.42
274.287	-27.31
274.503	42.32
274.719	-2.73
274.934	97.62
275.15	-2.73
275.366	60.76
275.581	-12.97
275.797	68.95
276.012	68.95
276.228	36.18
276.444	32.08
276.659	-37.55
276.875	-2.73
277.09	42.32
277.306	-10.92
277.521	-27.31
277.737	23.89
277.952	-21.16
278.168	5.46
278.383	44.37
278.599	89.43
278.814	56.66
279.03	-2.73
279.245	44.37
279.461	-23.21
279.676	23.89
279.892	23.89
280.107	77.14
280.322	-17.07
280.538	54.61
280.753	36.18
280.969	-4.78
281.184	75.09
281.399	-31.4
281.615	21.85
281.83	-47.79
282.045	-64.17
282.26	64.85
282.476	9.56
282.691	60.76
282.906	46.42
283.122	62.8
283.337	1.37
283.552	54.61
283.767	40.28
283.983	91.48
284.198	-33.45
284.413	79.19
284.628	36.18
284.843	27.99
285.058	17.75
285.274	3.41
285.489	-15.02
285.704	-39.59
285.919	15.7
286.134	42.32
286.349	-19.11
286.564	-84.65
286.779	52.56
286.995	48.47
287.21	-6.83
287.425	40.28
287.64	7.51
287.855	54.61
288.07	38.23
288.285	3.41
288.5	-66.22
288.715	89.43
288.93	-2.73
289.145	38.23
289.36	-8.87
289.575	46.42
289.79	54.61
290.004	-12.97
290.219	23.89
290.434	32.08
290.649	21.85
290.864	-12.97
291.079	-72.36
291.294	17.75
291.509	-35.5
291.724	66.9
291.938	34.13
292.153	-12.97
292.368	-29.35
292.583	9.56
292.798	42.32
293.012	21.85
293.227	-4.78
293.442	87.38
293.657	34.13
293.871	-29.35
294.086	-6.83
294.301	9.56
294.516	25.94
294.73	44.37
294.945	64.85
295.16	-0.68
295.374	30.04
295.589	44.37
295.804	48.47
296.018	-12.97
296.233	38.23
296.447	38.23
296.662	64.85
296.877	79.19
297.091	50.52
297.306	-6.83
297.52	-27.31
297.735	40.28
297.949	-12.97
298.164	34.13
298.378	-10.92
298.593	34.13
298.807	11.61
299.022	30.04
299.236	66.9
299.451	13.65
299.665	23.89
299.88	40.28
300.094	81.24
300.309	27.99
300.523	7.51
300.737	-4.78
300.952	27.99
301.166	30.04
301.381	-29.35
301.595	-21.16
301.809	93.52
302.024	42.32
302.238	-33.45
302.452	27.99
302.667	66.9
302.881	17.75
303.095	38.23
303.309	179.54
303.524	34.13
303.738	40.28
303.952	-0.68
304.166	25.94
304.381	-45.74
304.595	30.04
304.809	-35.5
305.023	46.42
305.237	7.51
305.452	-4.78
305.666	75.09
305.88	19.8
306.094	25.94
306.308	44.37
306.522	32.08
306.736	-49.83
306.95	19.8
307.164	44.37
307.379	25.94
307.593	-31.4
307.807	38.23
308.021	99.67
308.235	9.56
308.449	40.28
308.663	54.61
308.877	-12.97
309.091	89.43
309.305	79.19
309.519	64.85
309.733	36.18
309.947	44.37
310.161	25.94
310.374	50.52
310.588	44.37
310.802	34.13
311.016	-0.68
311.23	-64.17
311.444	36.18
311.658	42.32
311.872	71
312.085	21.85
312.299	83.28
312.513	32.08
312.727	62.8
312.941	-23.21
313.154	42.32
313.368	-4.78
313.582	21.85
313.796	-37.55
314.009	62.8
314.223	-12.97
314.437	23.89
314.651	5.46
314.864	36.18
315.078	23.89
315.292	19.8
315.505	19.8
315.719	36.18
315.933	-76.46
316.146	56.66
316.36	-33.45
316.573	95.57
316.787	75.09
317.001	58.71
317.214	30.04
317.428	-2.73
317.641	1.37
317.855	-25.26
318.068	101.72
318.282	19.8
318.495	38.23
318.709	95.57
318.922	46.42
319.136	46.42
319.349	64.85
319.563	58.71
319.776	62.8
319.99	87.38
320.203	11.61
320.417	21.85
320.63	-12.97
320.843	-23.21
321.057	7.51
321.27	42.32
321.483	64.85
321.697	23.89
321.91	85.33
322.124	15.7
322.337	13.65
322.55	-43.69
322.763	-4.78
322.977	30.04
323.19	50.52
323.403	-29.35
323.617	-17.07
323.83	103.76
324.043	-21.16
324.256	-2.73
324.469	56.66
324.683	48.47
324.896	-31.4
325.109	44.37
325.322	-49.83
325.535	15.7
325.748	66.9
325.962	97.62
326.175	48.47
326.388	25.94
326.601	-35.5
326.814	73.04
327.027	36.18
327.24	132.44
327.453	-43.69
327.666	27.99
327.879	54.61
328.092	13.65
328.305	-31.4
328.518	32.08
328.731	-15.02
328.944	93.52
329.157	52.56
329.37	30.04
329.583	19.8
329.796	17.75
330.009	11.61
330.222	-21.16
330.435	-19.11
330.648	-2.73
330.861	48.47
331.073	27.99
331.286	-2.73
331.499	27.99
331.712	38.23
331.925	38.23
332.138	-0.68
332.35	83.28
332.563	58.71
332.776	17.75
332.989	46.42
333.202	79.19
333.414	7.51
333.627	30.04
333.84	13.65
334.053	17.75
334.265	48.47
334.478	19.8
334.691	52.56
334.903	19.8
335.116	36.18
335.329	36.18
335.541	79.19
335.754	32.08
335.966	19.8
336.179	32.08
336.392	-19.11
336.604	46.42
336.817	87.38
337.029	7.51
337.242	56.66
337.454	68.95
337.667	-19.11
337.88	46.42
338.092	-4.78
338.305	-27.31
338.517	1.37
338.729	38.23
338.942	-8.87
339.154	7.51
339.367	-15.02
339.579	-31.4
339.792	-23.21
340.004	-19.11
340.217	19.8
340.429	95.57
340.641	21.85
340.854	75.09
341.066	27.99
341.278	44.37
341.491	25.94
341.703	3.41
341.915	64.85
342.128	38.23
342.34	-23.21
342.552	1.37
342.764	11.61
342.977	-33.45
343.189	-8.87
343.401	44.37
343.613	-2.73
343.826	25.94
344.038	9.56
344.25	79.19
344.462	11.61
344.674	64.85
344.886	19.8
345.099	11.61
345.311	30.04
345.523	79.19
345.735	66.9
345.947	25.94
346.159	40.28
346.371	126.29
346.583	-15.02
346.795	38.23
347.007	-12.97
347.219	27.99
347.431	42.32
347.643	83.28
347.855	13.65
348.067	19.8
348.279	68.95
348.491	46.42
348.703	73.04
348.915	-0.68
349.127	48.47
349.339	30.04
349.551	30.04
349.763	25.94
349.975	-15.02
350.187	-10.92
350.399	25.94
350.61	60.76
350.822	-0.68
351.034	23.89
351.246	60.76
351.458	-27.31
351.669	68.95
351.881	87.38
352.093	54.61
352.305	44.37
352.517	136.53
352.728	32.08
352.94	-31.4
353.152	27.99
353.363	36.18
353.575	64.85
353.787	85.33
353.999	23.89
354.21	19.8
354.422	5.46
354.633	54.61
354.845	13.65
355.057	83.28
355.268	73.04
355.48	44.37
355.692	60.76
355.903	-10.92
356.115	-27.31
356.326	-2.73
356.538	107.86
356.749	-23.21
356.961	58.71
357.172	-4.78
357.384	-12.97
357.595	52.56
357.807	34.13
358.018	-41.64
358.23	62.8
358.441	116.05
358.653	79.19
358.864	-25.26
359.075	-4.78
359.287	52.56
359.498	85.33
359.709	46.42
359.921	40.28
360.132	32.08
360.344	34.13
360.555	-39.59
360.766	62.8
360.977	52.56
361.189	42.32
361.4	38.23
361.611	42.32
361.823	103.76
362.034	7.51
362.245	17.75
362.456	48.47
362.667	25.94
362.879	13.65
363.09	87.38
363.301	99.67
363.512	111.96
363.723	89.43
363.935	79.19
364.146	42.32
364.357	-8.87
364.568	40.28
364.779	38.23
364.99	11.61
365.201	1.37
365.412	58.71
365.623	27.99
365.834	130.39
366.045	-25.26
366.256	3.41
366.467	-15.02
366.678	40.28
366.889	85.33
367.1	68.95
367.311	83.28
367.522	68.95
367.733	-21.16
367.944	-76.46
368.155	19.8
368.366	62.8
368.577	5.46
368.788	5.46
368.999	58.71
369.209	77.14
369.42	27.99
369.631	58.71
369.842	17.75
370.053	85.33
370.264	11.61
370.474	1.37
370.685	-35.5
370.896	11.61
371.107	95.57
371.317	75.09
371.528	13.65
371.739	27.99
371.95	5.46
372.16	30.04
372.371	-6.83
372.582	-0.68
372.792	-17.07
373.003	30.04
373.214	30.04
373.424	21.85
373.635	44.37
373.846	87.38
374.056	-2.73
374.267	32.08
374.477	46.42
374.688	-15.02
374.898	-29.35
375.109	25.94
375.319	38.23
375.53	3.41
375.74	68.95
375.951	64.85
376.161	75.09
376.372	19.8
376.582	50.52
376.793	40.28
377.003	-10.92
377.214	30.04
377.424	46.42
377.635	62.8
377.845	15.7
378.055	46.42
378.266	-10.92
378.476	42.32
378.686	11.61
378.897	34.13
379.107	87.38
379.317	40.28
379.528	7.51
379.738	71
379.948	15.7
380.158	42.32
380.369	71
380.579	89.43
380.789	3.41
380.999	75.09
381.21	-0.68
381.42	13.65
381.63	23.89
381.84	-37.55
382.05	52.56
382.261	-2.73
382.471	89.43
382.681	62.8
382.891	116.05
383.101	42.32
383.311	7.51
383.521	15.7
383.731	56.66
383.941	-21.16
384.151	44.37
384.361	13.65
384.571	23.89
384.781	50.52
384.991	62.8
385.201	68.95
385.411	40.28
385.621	-12.97
385.831	23.89
386.041	13.65
386.251	-17.07
386.461	-21.16
386.671	56.66
386.881	-17.07
387.091	44.37
387.301	52.56
387.511	25.94
387.72	42.32
387.93	42.32
388.14	54.61
388.35	38.23
388.56	75.09
388.769	25.94
388.979	50.52
389.189	91.48
389.399	25.94
389.609	9.56
389.818	3.41
390.028	109.91
390.238	62.8
390.447	120.15
390.657	44.37
390.867	52.56
391.076	34.13
391.286	81.24
391.496	64.85
391.705	52.56
391.915	64.85
392.125	23.89
392.334	99.67
392.544	11.61
392.753	38.23
392.963	7.51
393.172	44.37
393.382	-19.11
393.591	54.61
393.801	56.66
394.01	77.14
394.22	21.85
394.429	-10.92
394.639	32.08
394.848	60.76
395.058	56.66
395.267	54.61
395.477	-6.83
395.686	99.67
395.895	89.43
396.105	91.48
396.314	81.24
396.524	46.42
396.733	34.13
396.942	36.18
397.152	68.95
397.361	38.23
397.57	13.65
397.78	27.99
397.989	60.76
398.198	17.75
398.407	25.94
398.617	21.85
398.826	1.37
399.035	13.65
399.244	83.28
399.453	91.48
399.663	73.04
399.872	103.76
400.081	62.8
400.29	64.85
400.499	75.09
400.708	148.82
400.917	62.8
401.127	97.62
401.336	-19.11
401.545	109.91
401.754	87.38
401.963	46.42
402.172	120.15
402.381	46.42
402.59	54.61
402.799	109.91
403.008	48.47
403.217	124.24
403.426	91.48
403.635	89.43
403.844	75.09
404.053	101.72
404.262	42.32
404.471	134.48
404.68	71
404.888	136.53
405.097	73.04
405.306	38.23
405.515	105.81
405.724	105.81
405.933	95.57
406.142	111.96
406.35	130.39
406.559	173.39
406.768	93.52
406.977	79.19
407.185	191.83
407.394	77.14
407.603	60.76
407.812	105.81
408.02	118.1
408.229	144.72
408.438	169.3
408.646	130.39
408.855	195.92
409.064	128.34
409.272	148.82
409.481	128.34
409.69	177.49
409.898	130.39
410.107	154.96
410.315	175.44
410.524	189.78
410.733	234.83
410.941	197.97
411.15	257.36
411.358	238.93
411.567	134.48
411.775	218.45
411.984	236.88
412.192	195.92
412.401	269.65
412.609	269.65
412.818	236.88
413.026	222.55
413.234	380.24
413.443	238.93
413.651	240.98
413.86	326.99
414.068	283.99
414.276	298.32
414.485	320.85
414.693	386.38
414.901	413.01
415.11	374.1
415.318	402.77
415.526	453.97
415.734	474.45
415.943	429.39
416.151	421.2
416.359	527.69
416.567	460.11
416.776	458.06
416.984	582.99
417.192	597.32
417.4	630.09
417.608	570.7
417.817	548.17
418.025	644.43
418.233	611.66
418.441	658.76
418.649	681.29
418.857	683.34
419.065	728.39
419.273	738.63
419.481	820.55
419.689	800.07
419.897	869.7
420.105	867.66
420.313	873.8
420.521	900.42
420.729	908.62
420.937	857.42
421.145	986.44
421.353	943.43
421.561	1045.83
421.769	1066.31
421.977	1197.38
422.185	1086.79
422.393	1252.67
422.601	1318.21
422.809	1197.38
423.017	1244.48
423.224	1412.42
423.432	1449.28
423.64	1353.02
423.848	1566.01
424.056	1494.33
424.263	1735.99
424.471	1701.18
424.679	1670.46
424.887	1733.95
425.094	1666.36
425.302	1815.87
425.51	1901.88
425.718	1854.78
425.925	1912.12
426.133	2022.71
426.341	2063.67
426.548	2026.81
426.756	2063.67
426.964	2204.98
427.171	2321.71
427.379	2395.44
427.586	2475.31
427.794	2413.87
428.001	2598.19
428.209	2661.68
428.417	2807.08
428.624	2845.99
428.832	2970.92
429.039	2843.95
429.247	2827.56
429.454	2952.49
429.662	3288.36
429.869	3122.47
430.076	3257.64
430.284	3163.43
430.491	3415.33
430.699	3579.17
430.906	3611.93
431.114	3478.82
431.321	3810.59
431.528	3853.59
431.736	4070.68
431.943	4298
432.15	4089.11
432.358	4252.95
432.565	4465.94
432.772	4424.98
432.979	4656.4
433.187	4687.12
433.394	4822.28
433.601	5154.05
433.808	5068.04
434.016	4951.31
434.223	5109
434.43	5567.74
434.637	5453.06
434.844	5604.61
435.052	5799.16
435.259	5854.46
435.466	5844.22
435.673	5696.77
435.88	5942.52
436.087	6460.66
436.294	6534.39
436.501	6395.12
436.708	6503.67
436.915	6819.05
437.122	7046.38
437.329	7032.04
437.537	7173.35
437.743	7406.82
437.95	7245.03
438.157	7726.3
438.364	7890.14
438.571	7894.24
438.778	7988.44
438.985	8697.04
439.192	8430.8
439.399	8836.3
439.606	8455.38
439.813	9069.77
440.02	9434.31
440.227	9272.52
440.433	8944.84
440.64	9399.49
440.847	9413.83
441.054	9505.99
441.261	10179.77
441.467	10130.62
441.674	10235.07
441.881	10859.7
442.088	10675.38
442.294	10777.78
442.501	10865.84
442.708	11248.81
442.914	11371.69
443.121	12035.23
443.328	11719.84
443.534	12592.28
443.741	12186.78
443.948	12244.12
444.154	12741.78
444.361	12835.99
444.568	12790.93
444.774	12928.14
444.981	13124.75
445.187	13460.62
445.394	14115.97
445.6	13743.24
445.807	15285.36
446.013	14474.36
446.22	14980.21
446.426	15498.34
446.633	15477.87
446.839	16055.39
447.046	15481.96
447.252	16202.85
447.459	15926.37
447.665	16036.96
447.871	17138.77
448.078	17697.86
448.284	16739.41
448.491	17007.7
448.697	17857.6
448.903	18062.4
449.11	18084.93
449.316	17990.72
449.522	18447.42
449.728	18697.27
449.935	18996.28
450.141	18852.92
450.347	19360.81
450.553	18328.64
450.76	18756.66
450.966	19549.23
451.172	19328.05
451.378	19692.58
451.584	19387.44
451.791	19874.85
451.997	19956.77
452.203	20155.43
452.409	20110.37
452.615	20005.92
452.821	19153.97
453.027	18844.73
453.233	19729.45
453.44	19231.79
453.646	19373.1
453.852	19362.86
454.058	19610.67
454.264	18744.38
454.47	19565.61
454.676	18881.59
454.882	19563.56
455.088	18046.02
455.294	18150.46
455.5	18256.96
455.705	18472
455.911	17736.77
456.117	17425.48
456.323	17296.46
456.529	16372.83
456.735	17124.43
456.941	16503.9
457.147	16258.14
457.352	15797.35
457.558	15694.95
457.764	15445.1
457.97	15397.99
458.176	14935.15
458.381	14978.16
458.587	14017.66
458.793	14185.6
458.999	13509.77
459.204	14443.64
459.41	13909.12
459.616	13167.76
459.821	13245.58
460.027	13223.05
460.233	12647.57
460.438	12430.49
460.644	12291.23
460.85	11682.98
461.055	11687.07
461.261	11564.2
461.466	10765.49
461.672	10202.3
461.878	11201.71
462.083	10339.51
462.289	10110.14
462.494	10253.5
462.7	9446.6
462.905	9628.87
463.111	9583.81
463.316	9655.49
463.522	9387.21
463.727	9694.4
463.932	9714.88
464.138	9532.61
464.343	9491.65
464.549	9051.34
464.754	9606.34
464.959	9577.67
465.165	9360.58
465.37	9088.2
465.575	8887.5
465.781	9127.11
465.986	9219.27
466.191	8883.41
466.397	8668.37
466.602	8361.17
466.807	8602.83
467.012	8510.68
467.218	8613.07
467.423	8561.87
467.628	8504.53
467.833	8830.16
468.038	8377.56
468.244	8275.16
468.449	8574.16
468.654	8324.31
468.859	8246.49
469.064	8203.48
469.269	7863.52
469.474	8068.31
469.679	8072.41
469.885	7771.36
470.09	7879.9
470.295	7943.39
470.5	7861.47
470.705	7679.2
470.91	7605.47
471.115	7750.88
471.32	7644.38
471.525	7517.41
471.73	7425.25
471.935	7304.42
472.139	7161.06
472.344	7294.18
472.549	7003.37
472.754	7191.78
472.959	6982.89
473.164	6909.16
473.369	6896.88
473.574	6958.32
473.778	6839.53
473.983	6692.08
474.188	6794.48
474.393	6411.51
474.598	6577.39
474.802	6448.37
475.007	6460.66
475.212	6540.53
475.417	6345.97
475.621	6231.29
475.826	6227.19
476.031	5948.67
476.235	5848.32
476.44	6159.61
476.645	5809.4
476.849	6038.78
477.054	5838.08
477.259	5825.79
477.463	5993.72
477.668	5680.38
477.872	5690.62
478.077	5604.61
478.282	5358.85
478.486	5350.66
478.691	5455.11
478.895	5291.27
479.1	5508.35
479.304	5221.64
479.509	5219.59
479.713	5465.35
479.918	5252.36
480.122	5293.32
480.326	5276.93
480.531	5197.06
480.735	5123.34
480.94	5125.38
481.144	5330.18
481.348	5094.66
481.553	4965.64
481.757	5012.74
481.961	5217.54
482.166	5172.49
482.37	5262.6
482.574	5020.94
482.778	5022.98
482.983	5209.35
483.187	5061.9
483.391	5111.05
483.595	5090.57
483.8	5022.98
484.004	4932.87
484.208	5121.29
484.412	5074.18
484.616	5033.22
484.821	5131.53
485.025	4893.96
485.229	5010.7
485.433	5010.7
485.637	4928.78
485.841	4971.79
486.045	4992.27
486.249	4977.93
486.453	4965.64
486.657	5049.61
486.861	5053.7
487.065	4943.11
487.269	5014.79
487.473	4984.07
487.677	4928.78
487.881	4965.64
488.085	4971.79
488.289	4984.07
488.493	5043.46
488.697	4801.8
488.901	5154.05
489.105	5180.68
489.309	5006.6
489.512	5127.43
489.716	5063.94
489.92	5139.72
490.124	5129.48
490.328	5219.59
490.531	5033.22
490.735	5287.17
490.939	5176.58
491.143	5076.23
491.346	5231.88
491.55	5152.01
491.754	5299.46
491.958	5379.33
492.161	5264.65
492.365	5295.36
492.569	5170.44
492.772	5389.57
492.976	5418.24
493.18	5307.65
493.383	5471.49
493.587	5338.37
493.79	5487.87
493.994	5479.68
494.197	5584.13
494.401	5469.44
494.605	5666.05
494.808	5786.88
495.012	5590.27
495.215	5713.15
495.419	5735.68
495.622	5846.27
495.825	5850.36
496.029	5917.95
496.232	6020.35
496.436	5971.19
496.639	6182.14
496.843	6178.04
497.046	6341.88
497.249	6341.88
497.453	6329.59
497.656	6446.32
497.859	6419.7
498.063	6511.86
498.266	6597.87
498.469	6847.72
498.673	6831.34
498.876	6724.85
499.079	6905.07
499.282	7113.96
499.485	7120.1
499.689	7036.14
499.892	7040.23
500.095	7240.93
500.298	7273.7
500.501	7337.19
500.705	7658.72
500.908	7664.86
501.111	7810.27
501.314	7797.98
501.517	7802.08
501.72	7871.71
501.923	7935.2
502.126	8187.1
502.329	8240.34
502.532	8377.56
502.735	8543.44
502.938	8449.24
503.141	8533.2
503.344	8756.43
503.547	8588.5
503.75	8901.84
503.953	9047.24
504.156	9071.82
504.359	9135.31
504.562	9321.67
504.765	9530.56
504.968	9753.79
505.17	9766.08
505.373	9809.09
505.576	9882.81
505.779	10085.56
505.982	10134.71
506.185	10359.99
506.387	10720.43
506.59	10364.09
506.793	10597.56
506.996	10681.52
507.198	11017.39
507.401	10833.07
507.604	11203.75
507.807	11300.01
508.009	11402.41
508.212	11379.88
508.415	11777.19
508.617	11918.5
508.82	11834.53
509.022	12051.61
509.225	12473.49
509.428	12360.86
509.63	12373.14
509.833	12549.27
510.035	12903.57
510.238	13075.6
510.44	12958.86
510.643	13212.81
510.845	13327.5
511.048	13200.52
511.25	13343.88
511.453	13456.52
511.655	14191.74
511.858	13896.83
512.06	14187.64
512.262	14165.12
512.465	14169.21
512.667	14615.67
512.87	14646.39
513.072	14918.77
513.274	15127.66
513.477	15266.92
513.679	15449.19
513.881	15578.22
514.084	15897.7
514.286	15727.72
514.488	16061.54
514.69	16262.24
514.893	16401.5
515.095	16669.78
515.297	16946.26
515.499	17089.62
515.701	17431.63
515.904	17167.44
516.106	17552.46
516.308	17865.8
516.51	17843.27
516.712	17826.89
516.914	18326.59
517.116	18678.84
517.318	18687.03
517.52	18697.27
517.722	18916.4
517.925	19143.73
518.127	19209.26
518.329	19516.46
518.531	19672.11
518.733	19962.92
518.935	20218.91
519.136	20284.45
519.338	20540.44
519.54	20472.86
519.742	21095.44
519.944	21343.25
520.146	21425.17
520.348	21341.2
520.55	21597.2
520.752	21904.39
520.954	22219.78
521.155	21998.6
521.357	22436.86
521.559	22856.7
521.761	22729.72
521.963	22922.23
522.164	23122.93
522.366	23399.41
522.568	23544.81
522.77	23507.95
522.971	24071.14
523.173	23862.25
523.375	24290.27
523.576	24280.03
523.778	24349.67
523.98	24660.96
524.181	24759.26
524.383	24835.03
524.584	25076.69
524.786	25203.67
524.988	25433.04
525.189	25500.62
525.391	25652.17
525.592	25920.46
525.794	25848.78
525.995	26059.72
526.197	25916.36
526.398	25928.65
526.6	26729.41
526.801	26307.52
527.003	26610.62
527.204	26612.67
527.406	26842.04
527.607	27003.83
527.808	27401.14
528.01	26561.47
528.211	26989.5
528.412	27634.61
528.614	27546.54
528.815	27347.89
529.016	27804.59
529.218	27493.3
529.419	27421.62
529.62	27974.57
529.822	27714.48
530.023	27773.87
530.224	27892.65
530.425	27659.18
530.626	27802.54
530.828	27636.66
531.029	28251.05
531.23	28277.67
531.431	27999.15
531.632	28079.02
531.833	28292.01
532.035	28314.53
532.236	28394.4
532.437	28607.39
532.638	28662.69
532.839	28574.63
533.04	28705.7
533.241	28500.9
533.442	28783.52
533.643	28660.64
533.844	28656.54
534.045	28795.81
534.246	28560.29
534.447	28836.77
534.648	28728.22
534.849	28603.3
535.05	28734.37
535.251	28832.67
535.451	28666.78
535.652	29035.42
535.853	29037.47
536.054	28734.37
536.255	28965.79
536.456	28494.75
536.657	29836.17
536.857	28871.58
537.058	28490.66
537.259	29088.67
537.46	29113.24
537.66	29088.67
537.861	28861.34
538.062	28492.71
538.263	29100.95
538.463	29080.47
538.664	28797.85
538.865	28828.57
539.065	29123.48
539.266	28609.44
539.466	29244.31
539.667	28654.5
539.868	29172.63
540.068	29035.42
540.269	28892.06
540.469	28965.79
540.67	28799.9
540.87	28822.43
541.071	28791.71
541.271	28877.72
541.472	28775.33
541.672	28760.99
541.873	28660.64
542.073	28658.59
542.274	28976.03
542.474	28783.52
542.675	28674.98
542.875	29410.2
543.075	28683.17
543.276	28513.19
543.476	29496.21
543.676	28627.87
543.877	28756.89
544.077	28857.24
544.277	28758.94
544.478	28717.98
544.678	28959.64
544.878	28812.19
545.078	28875.68
545.279	28984.22
545.479	28955.55
545.679	28703.65
545.879	28562.34
546.079	28883.87
546.28	28867.48
546.48	28435.36
546.68	28912.54
546.88	29113.24
547.08	28986.27
547.28	28728.22
547.48	28699.55
547.68	28978.08
547.88	28658.59
548.081	28894.11
548.281	28822.43
548.481	28414.88
548.681	28824.48
548.881	28674.98
549.081	28814.24
549.28	28662.69
549.48	28976.03
549.68	28595.1
549.88	29365.14
550.08	28773.28
550.28	28969.88
550.48	28502.95
550.68	29076.38
550.88	28787.61
551.08	28842.91
551.279	28767.13
551.479	28441.51
551.679	28748.7
551.879	28629.92
552.079	29248.41
552.278	28525.47
552.478	28806.05
552.678	28416.93
552.878	28978.08
553.077	28531.62
553.277	28330.92
553.477	28615.58
553.676	28461.99
553.876	28646.3
554.076	28259.24
554.275	28773.28
554.475	28576.67
554.674	28367.78
554.874	28461.99
555.074	28185.51
555.273	28441.51
555.473	28406.69
555.672	28298.15
555.872	28380.07
556.071	28175.27
556.271	28482.47
556.47	28191.66
556.67	28165.03
556.869	28144.55
557.068	28173.22
557.268	28093.35
557.467	27980.71
557.667	27843.5
557.866	27872.17
558.065	27849.64
558.265	27737.01
558.464	27804.59
558.663	28126.12
558.863	27628.46
559.062	28238.76
559.261	28060.59
559.461	28101.54
559.66	27372.47
559.859	27724.72
560.058	27284.4
560.258	27374.52
560.457	27155.38
560.656	27724.72
560.855	27190.2
561.054	27321.27
561.253	27390.9
561.453	27210.68
561.652	27501.49
561.851	27177.91
562.05	27083.7
562.249	26934.2
562.448	27302.84
562.647	27313.08
562.846	27114.42
563.045	27044.79
563.244	27044.79
563.443	26840
563.642	26848.19
563.841	26622.91
564.04	26835.9
564.239	26866.62
564.438	26637.25
564.637	26807.23
564.836	26729.41
565.035	26399.68
565.234	26358.72
565.432	26473.41
565.631	26080.2
565.83	26184.65
566.029	26442.69
566.228	26037.19
566.427	25807.82
566.625	26004.42
566.824	25478.1
567.023	26127.3
567.222	25500.62
567.42	25877.45
567.619	25822.16
567.818	25730
568.016	25576.4
568.215	25881.55
568.414	25592.78
568.612	25912.27
568.811	25592.78
569.01	25424.85
569.208	24937.43
569.407	25111.51
569.605	24693.72
569.804	25062.36
570.002	24884.19
570.201	25166.81
570.4	24853.47
570.598	24822.75
570.797	24878.04
570.995	24785.88
571.193	24413.15
571.392	24697.82
571.59	24308.71
571.789	24493.02
571.987	24153.06
572.186	24351.71
572.384	24280.03
572.582	24161.25
572.781	23862.25
572.979	23882.73
573.177	23999.46
573.376	23923.69
573.574	23731.18
573.772	23641.07
573.971	23768.04
574.169	23677.93
574.367	23376.88
574.565	23284.72
574.763	23188.47
574.962	23368.69
575.16	22998.01
575.358	23233.52
575.556	23081.97
575.754	23237.62
575.952	22748.15
576.151	23106.55
576.349	22684.67
576.547	22803.45
576.745	22658.04
576.943	22881.27
577.141	22868.98
577.339	22637.56
577.537	22584.32
577.735	22576.12
577.933	22299.65
578.131	22217.73
578.329	21992.45
578.527	22051.84
578.725	21898.25
578.923	22037.51
579.121	21885.96
579.319	21769.23
579.516	22025.22
579.714	21865.48
579.912	21863.43
580.11	21818.38
580.308	21625.87
580.506	21492.75
580.704	21238.8
580.901	21302.29
581.099	21687.31
581.297	21066.77
581.495	21142.55
581.692	21177.36
581.89	20925.46
582.088	21351.44
582.285	20894.74
582.483	21109.78
582.681	20861.97
582.878	20749.34
583.076	20681.75
583.274	20763.67
583.471	20454.43
583.669	20726.81
583.866	20446.24
584.064	20427.81
584.262	20175.91
584.459	20679.71
584.657	19973.16
584.854	20562.97
585.052	19891.24
585.249	20196.39
585.447	19903.53
585.644	19717.16
585.841	19936.29
586.039	19899.43
586.236	19672.11
586.434	19883.05
586.631	19670.06
586.828	19489.84
587.026	19788.84
587.223	19608.62
587.42	19096.63
587.618	19534.89
587.815	19420.2
588.012	19344.43
588.21	19422.25
588.407	19180.59
588.604	19151.92
588.801	18904.12
588.999	19133.49
589.196	18824.25
589.393	18916.4
589.59	18908.21
589.787	18803.77
589.984	18598.97
590.182	18646.07
590.379	18709.56
590.576	18424.89
590.773	18639.93
590.97	18234.43
591.167	18396.22
591.364	18306.11
591.561	18218.05
591.758	18191.42
591.955	18238.53
592.152	18418.75
592.349	17855.56
592.546	18275.39
592.743	17802.31
592.94	17873.99
593.137	18037.83
593.334	18050.11
593.531	17384.52
593.727	17413.2
593.924	17478.73
594.121	17409.1
594.318	17482.83
594.515	17181.78
594.712	17407.05
594.908	17437.77
595.105	17273.93
595.302	17126.48
595.499	17419.34
595.696	17210.45
595.892	16960.59
596.089	16895.06
596.286	17073.23
596.482	16847.96
596.679	16794.71
596.876	17052.75
597.072	16895.06
597.269	17095.76
597.466	16505.95
597.662	16768.09
597.859	16725.08
598.055	16790.61
598.252	16575.58
598.448	16632.92
598.645	16362.59
598.841	16204.89
599.038	16411.74
599.234	16497.75
599.431	16102.5
599.627	16165.98
599.824	16245.85
600.02	16079.97
600.217	16213.09
600.413	16155.74
600.609	15836.26
600.806	16092.26
601.002	15934.56
601.198	15795.3
601.395	15627.37
601.591	15547.5
601.787	15770.72
601.984	15637.61
602.18	15600.74
602.376	15701.09
602.572	15543.4
602.769	15289.45
602.965	15252.59
603.161	15395.95
603.357	15178.86
603.553	15238.25
603.75	15045.74
603.946	15031.41
604.142	15172.72
604.338	14926.96
604.534	15084.66
604.73	14572.66
604.926	14457.98
605.122	14775.41
605.318	14842.99
605.514	14601.33
605.71	14625.91
605.906	14697.59
606.102	14337.15
606.298	14556.28
606.494	14439.55
606.69	14607.48
606.886	14578.81
607.082	14226.56
607.278	14654.58
607.474	14328.95
607.67	14148.73
607.866	14081.15
608.062	14183.55
608.257	14218.36
608.453	14032
608.649	13948.03
608.845	14019.71
609.041	13847.68
609.236	14075.01
609.432	13831.3
609.628	13859.97
609.824	13823.11
610.019	13630.6
610.215	13685.89
610.411	13859.97
610.606	13634.69
610.802	13558.92
610.998	13806.72
611.193	13522.06
611.389	13558.92
611.584	13560.97
611.78	13368.46
611.976	13319.31
612.171	13214.86
612.367	13415.56
612.562	13151.37
612.758	13073.55
612.953	13319.31
613.149	13419.66
613.344	13178
613.539	13448.33
613.735	13249.68
613.93	13081.74
614.126	13259.91
614.321	13259.91
614.517	13102.22
614.712	12940.43
614.907	12954.77
615.103	13042.83
615.298	13044.88
615.493	12864.66
615.688	12813.46
615.884	13036.69
616.079	12731.54
616.274	12801.17
616.47	12762.26
616.665	12840.08
616.86	12373.14
617.055	12557.46
617.25	12450.97
617.445	12618.9
617.641	12383.38
617.836	12313.75
618.031	12434.58
618.226	12395.67
618.421	12135.58
618.616	12545.17
618.811	12137.63
619.006	12565.65
619.201	11867.3
619.396	12203.16
619.591	11807.91
619.786	12000.41
619.981	11850.91
620.176	11871.39
620.371	11914.4
620.566	11877.54
620.761	11592.87
620.956	11836.58
621.151	11541.67
621.346	11543.72
621.541	11373.74
621.735	11629.73
621.93	11304.1
622.125	11302.06
622.32	11048.11
622.515	11322.54
622.709	11148.46
622.904	10947.76
623.099	10919.09
623.294	10867.89
623.488	10779.82
623.683	10882.22
623.878	10835.12
624.072	10841.26
624.267	10788.02
624.462	10759.35
624.656	10581.17
624.851	10775.73
625.046	10482.87
625.24	10263.74
625.435	10568.88
625.629	10425.53
625.824	10165.43
626.018	10022.08
626.213	10104
626.407	10130.62
626.602	9983.16
626.796	10128.57
626.991	9825.47
627.185	9786.56
627.38	9798.85
627.574	9618.63
627.768	9514.18
627.963	9688.26
628.157	9485.51
628.352	9645.25
628.546	9333.96
628.74	9442.5
628.935	9329.86
629.129	9303.24
629.323	9120.97
629.517	9213.13
629.712	9299.14
629.906	9096.39
630.1	9098.44
630.294	9133.26
630.489	9114.83
630.683	8897.74
630.877	8973.52
631.071	8918.22
631.265	8914.13
631.459	8678.61
631.653	8713.42
631.848	8625.36
632.042	8518.87
632.236	8627.41
632.43	8389.85
632.624	8492.24
632.818	8445.14
633.012	8408.28
633.206	8514.77
633.4	8352.98
633.594	8316.12
633.788	8367.32
633.982	8199.38
634.176	8197.34
634.369	8037.59
634.563	8260.82
634.757	7986.4
634.951	7996.64
635.145	7861.47
635.339	7804.13
635.533	7791.84
635.726	7750.88
635.92	7709.92
636.114	7781.6
636.308	7867.61
636.501	7752.93
636.695	7605.47
636.889	7509.22
637.083	7337.19
637.276	7439.59
637.47	7415.01
637.664	7412.96
637.857	7488.74
638.051	7367.91
638.244	7234.79
638.438	7136.49
638.632	7261.41
638.825	7118.06
639.019	7136.49
639.212	7091.43
639.406	7173.35
639.599	7060.71
639.793	7099.62
639.986	6900.97
640.18	6851.82
640.373	6837.49
640.567	6730.99
640.76	6702.32
640.954	6569.2
641.147	6677.74
641.34	6561.01
641.534	6653.17
641.727	6567.15
641.92	6518
642.114	6481.14
642.307	6403.32
642.5	6415.6
642.694	6348.02
642.887	6268.15
643.08	6341.88
643.273	6130.94
643.467	6221.05
643.66	6255.86
643.853	6132.98
644.046	6081.78
644.239	6071.54
644.432	6040.83
644.626	6034.68
644.819	5924.09
645.012	5950.71
645.205	6046.97
645.398	5799.16
645.591	5915.9
645.784	5829.88
645.977	5770.49
646.17	5692.67
646.363	5756.16
646.556	5489.92
646.749	5668.09
646.942	5676.29
647.135	5631.23
647.328	5397.76
647.521	5522.69
647.714	5381.38
647.907	5389.57
648.099	5436.67
648.292	5340.42
648.485	5344.52
648.678	5244.17
648.871	5143.81
649.064	5299.46
649.256	5156.1
649.449	5145.86
649.642	5158.15
649.835	5088.52
650.027	5082.38
650.22	4912.39
650.413	5072.14
650.605	4930.83
650.798	4930.83
650.991	4869.39
651.183	4951.31
651.376	4803.85
651.568	4904.2
651.761	4896.01
651.954	4914.44
652.146	4760.84
652.339	4754.7
652.531	4672.78
652.724	4523.28
652.916	4578.58
653.109	4695.31
653.301	4504.85
653.494	4713.74
653.686	4480.27
653.879	4850.96
654.071	4529.42
654.263	4433.17
654.456	4513.04
654.648	4427.03
654.84	4371.73
655.033	4261.14
655.225	4207.89
655.417	4222.23
655.61	4216.09
655.802	4298
655.994	4298
656.186	4201.75
656.379	4271.38
656.571	4336.92
656.763	4201.75
656.955	4091.16
657.148	3972.38
657.34	4003.1
657.532	4048.15
657.724	4064.54
657.916	4033.82
658.108	4021.53
658.3	4003.1
658.492	4142.36
658.684	3849.5
658.876	3939.61
659.068	3804.44
659.26	3792.16
659.452	3910.94
659.644	3783.96
659.836	3712.28
660.028	3808.54
660.22	3749.15
660.412	3820.83
660.604	3587.36
660.796	3747.1
660.988	3527.97
661.18	3654.94
661.372	3628.32
661.563	3568.93
661.755	3534.11
661.947	3585.31
662.139	3480.86
662.331	3501.34
662.522	3325.22
662.714	3505.44
662.906	3423.52
663.097	3267.88
663.289	3351.84
663.481	3341.6
663.673	3306.79
663.864	3413.28
664.056	3198.24
664.247	3335.46
664.439	3323.17
664.631	3374.37
664.822	3267.88
665.014	3357.99
665.205	3157.29
665.397	3185.96
665.588	3196.2
665.78	3153.19
665.971	2981.16
666.163	3120.42
666.354	3192.1
666.546	3126.57
666.737	3124.52
666.929	3208.48
667.12	3030.31
667.311	3097.89
667.503	3075.37
667.694	2989.35
667.885	3048.74
668.077	3169.57
668.268	2934.06
668.459	2845.99
668.651	2886.95
668.842	2921.77
669.033	2880.81
669.224	2905.39
669.416	2841.9
669.607	2925.86
669.798	2796.84
669.989	2901.29
670.18	2815.27
670.371	2813.23
670.563	2788.65
670.754	2649.39
670.945	2749.74
671.136	2831.66
671.327	2864.43
671.518	2751.79
671.709	2704.68
671.9	2716.97
672.091	2635.05
672.282	2573.61
672.473	2663.72
672.664	2700.59
672.855	2667.82
673.046	2602.29
673.237	2618.67
673.428	2544.94
673.619	2764.08
673.809	2553.13
674	2669.87
674.191	2590
674.382	2553.13
674.573	2610.48
674.764	2590
674.954	2710.83
675.145	2534.7
675.336	2463.02
675.527	2551.09
675.717	2549.04
675.908	2489.65
676.099	2549.04
676.289	2528.56
676.48	2446.64
676.671	2395.44
676.861	2477.36
677.052	2436.4
677.243	2483.5
677.433	2475.31
677.624	2454.83
677.814	2528.56
678.005	2370.87
678.195	2342.19
678.386	2354.48
678.576	2250.03
678.767	2407.73
678.957	2358.58
679.148	2264.37
679.338	2442.54
679.529	2331.95
679.719	2391.34
679.909	2362.67
680.1	2315.57
680.29	2456.88
680.481	2323.76
680.671	2254.13
680.861	2344.24
681.052	2350.39
681.242	2276.66
681.432	2452.78
681.622	2307.38
681.813	2182.45
682.003	2346.29
682.193	2245.94
682.383	2352.43
682.573	2360.63
682.764	2317.62
682.954	2237.75
683.144	2288.95
683.334	2299.19
683.524	2311.47
683.714	2229.56
683.904	2217.27
684.094	2313.52
684.284	2225.46
684.474	2327.86
684.664	2198.84
684.854	2260.27
685.044	2112.82
685.234	2198.84
685.424	2438.45
685.614	2118.97
685.804	2188.6
685.994	2116.92
686.184	2211.12
686.374	2184.5
686.564	2264.37
686.753	2090.29
686.943	2219.32
687.133	2149.68
687.323	2145.59
687.513	2219.32
687.702	2078.01
687.892	2239.8
688.082	2176.31
688.272	2172.21
688.461	2200.88
688.651	2182.45
688.841	2129.2
689.03	2184.5
689.22	2239.8
689.41	2209.08
689.599	2121.01
689.789	2139.44
689.979	2125.11
690.168	2106.68
690.358	2067.77
690.547	2129.2
690.737	2051.38
690.926	2137.4
691.116	2108.73
691.305	2125.11
691.495	1975.61
691.684	2075.96
691.874	2164.02
692.063	2082.1
692.252	2069.81
692.442	2176.31
692.631	2092.34
692.82	2053.43
693.01	2112.82
693.199	2043.19
693.388	2043.19
693.578	1928.5
693.767	2002.23
693.956	1985.85
694.146	2067.77
694.335	2055.48
694.524	2059.57
694.713	2071.86
694.902	2004.28
695.092	2071.86
695.281	2037.05
695.47	2059.57
695.659	2018.61
695.848	2020.66
696.037	2067.77
696.226	1994.04
696.415	2059.57
696.604	2000.18
696.793	2039.09
696.982	1961.27
697.171	2051.38
697.36	2082.1
697.549	1963.32
697.738	2051.38
697.927	2061.62
698.116	2127.16
698.305	2022.71
698.494	2096.44
698.683	2063.67
698.872	2141.49
699.061	1953.08
699.25	1910.07
699.438	2059.57
699.627	2088.25
699.816	2030.9
700.005	2045.24
700.193	1959.22
700.382	1891.64
700.571	1981.75
700.76	1932.6
700.948	1969.46
701.137	1918.26
701.326	2108.73
701.514	1998.13
701.703	2024.76
701.892	1912.12
702.08	2049.33
702.269	1969.46
702.457	1918.26
702.646	1955.13
702.834	1973.56
703.023	1959.22
703.212	2043.19
703.4	1953.08
703.589	1963.32
703.777	1996.09
703.965	2000.18
704.154	1889.59
704.342	1867.06
704.531	1942.84
704.719	1989.94
704.907	2061.62
705.096	1926.46
705.284	1942.84
705.472	1969.46
705.661	1903.93
705.849	1869.11
706.037	1953.08
706.226	1912.12
706.414	1998.13
706.602	1920.31
706.79	1856.83
706.979	1901.88
707.167	1932.6
707.355	1867.06
707.543	1977.66
707.731	1989.94
707.919	1836.35
708.107	1877.3
708.296	1760.57
708.484	1873.21
708.672	1824.06
708.86	1760.57
709.048	1865.02
709.236	1785.15
709.424	1869.11
709.612	1779
709.8	1832.25
709.988	1795.39
710.176	1877.3
710.364	1826.11
710.551	1928.5
710.739	1768.76
710.927	1905.98
711.115	1817.91
711.303	1699.13
711.491	1703.23
711.679	1791.29
711.866	1770.81
712.054	1705.28
712.242	1676.6
712.43	1801.53
712.617	1688.89
712.805	1760.57
712.993	1750.33
713.181	1758.52
713.368	1727.8
713.556	1801.53
713.744	1680.7
713.931	1705.28
714.119	1662.27
714.306	1690.94
714.494	1656.12
714.682	1668.41
714.869	1598.78
715.057	1740.09
715.244	1787.19
715.432	1641.79
715.619	1621.31
715.807	1705.28
715.994	1592.64
716.182	1631.55
716.369	1613.12
716.556	1568.06
716.744	1609.02
716.931	1506.62
717.119	1592.64
717.306	1631.55
717.493	1543.49
717.681	1531.2
717.868	1563.97
718.055	1592.64
718.242	1498.43
718.43	1649.98
718.617	1621.31
718.804	1611.07
718.991	1549.63
719.179	1488.19
719.366	1609.02
719.553	1500.48
719.74	1645.88
719.927	1561.92
720.114	1574.21
720.301	1537.34
720.488	1590.59
720.676	1428.8
720.863	1520.96
721.05	1482.05
721.237	1537.34
721.424	1449.28
721.611	1449.28
721.798	1371.46
721.985	1426.75
722.172	1473.85
722.358	1500.48
722.545	1559.87
722.732	1373.5
722.919	1486.14
723.106	1535.29
723.293	1422.66
723.48	1455.42
723.667	1418.56
723.853	1506.62
724.04	1416.51
724.227	1416.51
724.414	1434.94
724.6	1471.81
724.787	1459.52
724.974	1475.9
725.161	1441.09
725.347	1381.7
725.534	1516.86
725.72	1334.59
725.907	1398.08
726.094	1414.46
726.28	1267.01
726.467	1340.74
726.653	1400.13
726.84	1385.79
727.027	1330.5
727.213	1342.78
727.4	1336.64
727.586	1353.02
727.773	1402.18
727.959	1465.66
728.145	1273.15
728.332	1334.59
728.518	1350.98
728.705	1389.89
728.891	1287.49
729.077	1340.74
729.264	1355.07
729.45	1355.07
729.636	1287.49
729.823	1365.31
730.009	1285.44
730.195	1279.3
730.382	1242.43
730.568	1305.92
730.754	1256.77
730.94	1299.78
731.126	1320.26
731.313	1234.24
731.499	1326.4
731.685	1271.11
731.871	1295.68
732.057	1248.58
732.243	1258.82
732.429	1195.33
732.615	1328.45
732.801	1207.62
732.987	1140.04
733.173	1201.48
733.359	1236.29
733.545	1189.19
733.731	1207.62
733.917	1244.48
734.103	1185.09
734.289	1264.96
734.475	1205.57
734.661	1209.67
734.847	1228.1
735.033	1252.67
735.219	1252.67
735.404	1142.08
735.59	1254.72
735.776	1183.04
735.962	1115.46
736.148	1281.35
736.333	1209.67
736.519	1199.43
736.705	1170.76
736.89	1166.66
737.076	1148.23
737.262	1174.85
737.447	1191.24
737.633	1185.09
737.819	1101.12
738.004	1168.71
738.19	1150.28
738.375	1207.62
738.561	1119.56
738.747	1152.32
738.932	1123.65
739.118	1170.76
739.303	1156.42
739.489	1140.04
739.674	1189.19
739.859	1039.69
740.045	1082.69
740.23	1094.98
740.416	1094.98
740.601	1051.97
740.786	1002.82
740.972	1097.03
741.157	1105.22
741.342	1000.77
741.528	1049.93
741.713	1135.94
741.898	1090.88
742.084	1060.17
742.269	1060.17
742.454	1051.97
742.639	1121.6
742.824	1060.17
743.01	1078.6
743.195	1029.45
743.38	1041.73
743.565	972.1
743.75	1092.93
743.935	1054.02
744.12	1039.69
744.305	1029.45
744.49	939.33
744.675	900.42
744.86	1035.59
745.045	1045.83
745.23	972.1
745.415	941.38
745.6	986.44
745.785	1006.92
745.97	984.39
746.155	1068.36
746.34	955.72
746.525	933.19
746.71	939.33
746.895	937.29
747.079	953.67
747.264	896.33
747.449	947.53
747.634	980.29
747.819	904.52
748.003	888.14
748.188	867.66
748.373	814.41
748.557	877.9
748.742	863.56
748.927	873.8
749.111	843.08
749.296	943.43
749.481	867.66
749.665	894.28
749.85	857.42
750.034	847.18
750.219	904.52
750.404	865.61
750.588	892.23
750.773	814.41
750.957	869.7
751.141	818.5
751.326	851.27
751.51	841.03
751.695	777.55
751.879	773.45
752.064	722.25
752.248	662.86
752.432	777.55
752.617	765.26
752.801	728.39
752.985	808.27
753.17	834.89
753.354	718.15
753.538	697.67
753.722	757.07
753.907	736.59
754.091	791.88
754.275	740.68
754.459	808.27
754.643	679.24
754.828	679.24
755.012	712.01
755.196	703.82
755.38	701.77
755.564	656.72
755.748	701.77
755.932	789.83
756.116	699.72
756.3	724.3
756.484	609.61
756.668	589.13
756.852	701.77
757.036	621.9
757.22	683.34
757.404	673.1
757.588	662.86
757.772	634.19
757.956	599.37
758.14	607.56
758.323	601.42
758.507	675.15
758.691	677.19
758.875	591.18
759.059	521.55
759.242	599.37
759.426	656.72
759.61	609.61
759.794	611.66
759.977	605.52
760.161	585.04
760.345	650.57
760.528	607.56
760.712	542.03
760.895	568.65
761.079	570.7
761.263	593.23
761.446	501.07
761.63	619.85
761.813	582.99
761.997	560.46
762.18	546.12
762.364	548.17
762.547	482.64
762.731	539.98
762.914	589.13
763.098	544.08
763.281	423.25
763.464	611.66
763.648	556.36
763.831	456.01
764.015	562.51
764.198	558.41
764.381	638.28
764.564	519.5
764.748	499.02
764.931	494.93
765.114	525.65
765.297	519.5
765.481	513.36
765.664	537.93
765.847	476.49
766.03	470.35
766.213	630.09
766.397	503.12
766.58	513.36
766.763	492.88
766.946	511.31
767.129	494.93
767.312	468.3
767.495	542.03
767.678	466.25
767.861	501.07
768.044	456.01
768.227	462.16
768.41	464.21
768.593	464.21
768.776	499.02
768.959	474.45
769.142	480.59
769.324	474.45
769.507	451.92
769.69	443.73
769.873	488.78
770.056	527.69
770.239	437.58
770.421	486.73
770.604	470.35
770.787	447.82
770.97	474.45
771.152	505.17
771.335	404.82
771.518	378.19
771.7	464.21
771.883	529.74
772.066	523.6
772.248	462.16
772.431	490.83
772.613	449.87
772.796	464.21
772.978	494.93
773.161	453.97
773.343	474.45
773.526	421.2
773.708	490.83
773.891	419.15
774.073	376.14
774.256	421.2
774.438	509.26
774.621	392.53
774.803	476.49
774.985	367.95
775.168	376.14
775.35	429.39
775.532	386.38
775.715	372.05
775.897	378.19
776.079	370
776.261	439.63
776.444	339.28
776.626	386.38
776.808	324.94
776.99	429.39
777.173	404.82
777.355	386.38
777.537	408.91
777.719	294.22
777.901	425.29
778.083	300.37
778.265	343.38
778.447	384.34
778.629	357.71
778.811	335.18
778.993	298.32
779.175	361.81
779.357	294.22
779.539	288.08
779.721	396.62
779.903	392.53
780.085	283.99
780.267	398.67
780.449	318.8
780.631	306.51
780.812	370
780.994	370
781.176	367.95
781.358	281.94
781.54	398.67
781.721	275.79
781.903	333.14
782.085	267.6
782.267	294.22
782.448	265.55
782.63	306.51
782.812	296.27
782.993	353.62
783.175	322.9
783.357	183.63
783.538	326.99
783.72	271.7
783.901	322.9
784.083	320.85
784.264	261.46
784.446	245.07
784.627	296.27
784.809	318.8
784.99	232.79
785.172	253.27
785.353	265.55
785.535	253.27
785.716	257.36
785.897	249.17
786.079	165.2
786.26	292.18
786.441	204.11
786.623	257.36
786.804	206.16
786.985	240.98
787.167	281.94
787.348	183.63
787.529	298.32
787.71	312.66
787.891	197.97
788.073	183.63
788.254	187.73
788.435	197.97
788.616	251.22
788.797	206.16
788.978	288.08
789.159	206.16
789.34	216.4
789.522	181.59
789.703	210.26
789.884	214.35
790.065	163.15
790.246	157.01
790.427	249.17
790.607	175.44
790.788	306.51
790.969	185.68
791.15	238.93
791.331	169.3
791.512	161.11
791.693	173.39
791.874	193.87
792.054	224.59
792.235	173.39
792.416	101.72
792.597	202.07
792.778	173.39
792.958	234.83
793.139	204.11
793.32	230.74
793.5	206.16
793.681	234.83
793.862	216.4
794.042	216.4
794.223	195.92
794.404	173.39
794.584	124.24
794.765	128.34
794.945	195.92
795.126	169.3
795.306	175.44
795.487	191.83
795.667	175.44
795.848	171.35
796.028	140.63
796.209	140.63
796.389	132.44
796.57	189.78
796.75	169.3
796.93	232.79
797.111	109.91
797.291	167.25
797.471	144.72
797.652	99.67
797.832	195.92
798.012	193.87
798.192	228.69
798.373	204.11
798.553	107.86
798.733	68.95
798.913	191.83
799.093	165.2
799.274	163.15
799.454	111.96
799.634	142.68
799.814	175.44
799.994	124.24
800.174	120.15
800.354	111.96
800.534	136.53
800.714	183.63
800.894	97.62
801.074	60.76
801.254	120.15
801.434	144.72
801.614	216.4
801.794	183.63
801.974	361.81
802.154	175.44
802.334	208.21
802.514	171.35
802.693	105.81
802.873	200.02
803.053	116.05
803.233	136.53
803.413	130.39
803.592	111.96
803.772	138.58
803.952	52.56
804.131	130.39
804.311	95.57
804.491	105.81
804.67	68.95
804.85	114
805.03	126.29
805.209	130.39
805.389	89.43
805.568	128.34
805.748	116.05
805.928	87.38
806.107	142.68
806.287	140.63
806.466	89.43
806.646	175.44
806.825	99.67
807.004	136.53
807.184	83.28
807.363	93.52
807.543	105.81
807.722	159.06
807.901	140.63
808.081	128.34
808.26	107.86
808.439	140.63
808.619	140.63
808.798	105.81
808.977	111.96
809.156	85.33
809.336	95.57
809.515	167.25
809.694	75.09
809.873	58.71
810.052	15.7
810.231	136.53
810.411	36.18
810.59	120.15
810.769	97.62
810.948	81.24
811.127	95.57
811.306	36.18
811.485	118.1
811.664	118.1
811.843	99.67
812.022	42.32
812.201	83.28
812.38	58.71
812.559	64.85
812.737	120.15
812.916	83.28
813.095	87.38
813.274	95.57
813.453	132.44
813.632	95.57
813.811	97.62
813.989	40.28
814.168	103.76
814.347	116.05
814.526	120.15
814.704	77.14
814.883	148.82
815.062	60.76
815.24	148.82
815.419	73.04
815.598	83.28
815.776	120.15
815.955	124.24
816.133	73.04
816.312	23.89
816.49	136.53
816.669	79.19
816.847	50.52
817.026	77.14
817.204	42.32
817.383	105.81
817.561	-21.16
817.74	89.43
817.918	60.76
818.097	79.19
818.275	34.13
818.453	93.52
818.632	146.77
818.81	91.48
818.988	3.41
819.167	71
819.345	1.37
819.523	79.19
819.701	62.8
819.879	109.91
820.058	11.61
820.236	114
820.414	54.61
820.592	75.09
820.77	89.43
820.948	62.8
821.127	-31.4
821.305	122.2
821.483	-10.92
821.661	103.76
821.839	58.71
822.017	71
822.195	126.29
822.373	79.19
822.551	89.43
822.729	83.28
822.907	44.37
823.085	62.8
823.262	23.89
823.44	-35.5
823.618	40.28
823.796	46.42
823.974	167.25
824.152	66.9
824.329	-17.07
824.507	9.56
824.685	93.52
824.863	83.28
825.04	52.56
825.218	40.28
825.396	54.61
825.574	93.52
825.751	56.66
825.929	-0.68
826.107	77.14
826.284	62.8
826.462	58.71
826.639	126.29
826.817	105.81
826.994	79.19
827.172	44.37
827.349	130.39
827.527	40.28
827.704	38.23
827.882	21.85
828.059	95.57
828.237	-60.07
828.414	36.18
828.591	-21.16
828.769	77.14
828.946	54.61
829.124	79.19
829.301	56.66
829.478	79.19
829.655	13.65
829.833	40.28
830.01	9.56
830.187	46.42
830.364	19.8
830.542	97.62
830.719	66.9
830.896	103.76
831.073	1.37
831.25	50.52
831.427	46.42
831.604	17.75
831.782	93.52
831.959	105.81
832.136	42.32
832.313	40.28
832.49	56.66
832.667	68.95
832.844	25.94
833.021	85.33
833.198	68.95
833.374	93.52
833.551	68.95
833.728	34.13
833.905	34.13
834.082	34.13
834.259	54.61
834.436	-4.78
834.612	-0.68
834.789	54.61
834.966	68.95
835.143	42.32
835.319	1.37
835.496	75.09
835.673	15.7
835.85	25.94
836.026	89.43
836.203	34.13
836.38	48.47
836.556	25.94
836.733	46.42
836.909	46.42
837.086	66.9
837.262	21.85
837.439	-17.07
837.616	-25.26
837.792	-21.16
837.968	23.89
838.145	48.47
838.321	89.43
838.498	25.94
838.674	-8.87
838.851	15.7
839.027	-8.87
839.203	42.32
839.38	44.37
839.556	30.04
839.732	46.42
839.909	62.8
840.085	58.71
840.261	-4.78
840.437	64.85
840.614	25.94
840.79	89.43
840.966	60.76
841.142	62.8
841.318	7.51
841.494	103.76
841.671	-0.68
841.847	23.89
842.023	17.75
842.199	11.61
842.375	38.23
842.551	32.08
842.727	73.04
842.903	73.04
843.079	54.61
843.255	48.47
843.431	13.65
843.607	-21.16
843.783	-41.64
843.959	40.28
844.134	30.04
844.31	36.18
844.486	32.08
844.662	17.75
844.838	-2.73
845.013	27.99
845.189	17.75
845.365	27.99
845.541	-4.78
845.716	77.14
845.892	48.47
846.068	21.85
846.244	83.28
846.419	3.41
846.595	-10.92
846.77	-17.07
846.946	17.75
847.122	68.95
847.297	66.9
847.473	91.48
847.648	46.42
847.824	71
847.999	9.56
848.175	42.32
848.35	30.04
848.526	81.24
848.701	42.32
848.876	46.42
849.052	-19.11
849.227	52.56
849.403	48.47
849.578	83.28
849.753	34.13
849.929	-8.87
850.104	34.13
850.279	27.99
850.454	-17.07
850.63	-15.02
850.805	-2.73
850.98	13.65
851.155	36.18
851.33	134.48
851.505	-29.35
851.681	48.47
851.856	-4.78
852.031	77.14
852.206	-0.68
852.381	21.85
852.556	7.51
852.731	46.42
852.906	38.23
853.081	13.65
853.256	-37.55
853.431	50.52
853.606	68.95
853.781	32.08
853.956	-17.07
854.131	44.37
854.305	44.37
854.48	73.04
854.655	-12.97
854.83	-6.83
855.005	17.75
855.18	11.61
855.354	40.28
855.529	-12.97
855.704	11.61
855.879	25.94
856.053	-0.68
856.228	13.65
856.403	-19.11
856.577	97.62
856.752	91.48
856.926	68.95
857.101	-6.83
857.276	1.37
857.45	38.23
857.625	-33.45
857.799	-10.92
857.974	44.37
858.148	21.85
858.323	17.75
858.497	-0.68
858.672	50.52
858.846	-6.83
859.02	13.65
859.195	46.42
859.369	-19.11
859.543	-33.45
859.718	5.46
859.892	-12.97
860.066	75.09
860.241	30.04
860.415	30.04
860.589	-12.97
860.763	50.52
860.938	-29.35
861.112	44.37
861.286	-33.45
861.46	-17.07
861.634	3.41
861.808	46.42
861.982	-10.92
862.157	-8.87
862.331	56.66
862.505	1.37
862.679	-12.97
862.853	52.56
863.027	-19.11
863.201	85.33
863.375	75.09
863.549	87.38
863.722	32.08
863.896	111.96
864.07	40.28
864.244	-0.68
864.418	99.67
864.592	60.76
864.766	9.56
864.939	-6.83
865.113	83.28
865.287	73.04
865.461	42.32
865.634	114
865.808	-88.75
865.982	46.42
866.156	1.37
866.329	-29.35
866.503	-62.12
866.676	48.47
866.85	-25.26
867.024	44.37
867.197	68.95
867.371	42.32
867.544	81.24
867.718	52.56
867.891	-0.68
868.065	17.75
868.238	56.66
868.412	36.18
868.585	32.08
868.759	71
868.932	3.41
869.105	-19.11
869.279	25.94
869.452	15.7
869.625	-45.74
869.799	-19.11
869.972	-17.07
870.145	-31.4
870.319	50.52
870.492	-53.93
870.665	-29.35
870.838	-0.68
871.011	-72.36
871.185	5.46
871.358	-17.07
871.531	50.52
871.704	-2.73
871.877	1.37
872.05	-58.03
872.223	-2.73
872.396	19.8
872.569	36.18
872.742	-2.73
872.915	-23.21
873.088	-51.88
873.261	44.37
873.434	-43.69
873.607	9.56
873.78	1.37
873.953	36.18
874.126	15.7
874.299	-53.93
874.471	58.71
874.644	95.57
874.817	52.56
874.99	30.04
875.163	-12.97
875.335	42.32
875.508	36.18
875.681	48.47
875.853	9.56
876.026	-2.73
876.199	64.85
876.371	81.24
876.544	25.94
876.717	38.23
876.889	-31.4
877.062	21.85
877.234	64.85
877.407	-10.92
877.579	17.75
877.752	1.37
877.924	58.71
878.097	11.61
878.269	-10.92
878.442	58.71
878.614	-17.07
878.786	40.28
878.959	71
879.131	-4.78
879.303	19.8
879.476	13.65
879.648	-33.45
879.82	36.18
879.993	79.19
880.165	73.04
880.337	-47.79
880.509	46.42
880.681	-23.21
880.854	66.9
881.026	68.95
881.198	32.08
881.37	64.85
881.542	144.72
881.714	38.23
881.886	36.18
882.058	3.41
882.23	52.56
882.402	3.41
882.574	46.42
882.746	46.42
882.918	30.04
883.09	9.56
883.262	-2.73
883.434	-47.79
883.606	-15.02
883.778	-47.79
883.95	-4.78
884.122	13.65
884.293	44.37
884.465	62.8
884.637	38.23
884.809	-12.97
884.98	101.72
885.152	52.56
885.324	64.85
885.496	-33.45
885.667	42.32
885.839	36.18
886.011	30.04
886.182	-6.83
886.354	48.47
886.525	62.8
886.697	1.37
886.869	32.08
887.04	42.32
887.212	-35.5
887.383	50.52
887.555	-39.59
887.726	-17.07
887.897	30.04
888.069	34.13
888.24	-39.59
888.412	-8.87
888.583	46.42
888.754	48.47
888.926	3.41
889.097	36.18
889.268	-19.11
889.44	95.57
889.611	-33.45
889.782	3.41
889.953	-29.35
890.125	21.85
890.296	-21.16
890.467	32.08
890.638	-37.55
890.809	-82.6
890.98	7.51
891.151	23.89
891.323	36.18
891.494	-33.45
891.665	13.65
891.836	46.42
892.007	5.46
892.178	11.61
892.349	3.41
892.52	36.18
892.691	25.94
892.862	40.28
893.032	-8.87
893.203	-2.73
893.374	44.37
893.545	-0.68
893.716	-51.88
893.887	116.05
894.057	27.99
894.228	-35.5
894.399	-17.07
894.57	15.7
894.74	-10.92
894.911	-2.73
895.082	-39.59
895.253	-29.35
895.423	15.7
895.594	30.04
895.764	9.56
895.935	44.37
896.106	48.47
896.276	13.65
896.447	11.61
896.617	-0.68
896.788	-53.93
896.958	27.99
897.129	13.65
897.299	-19.11
897.47	101.72
897.64	21.85
897.81	46.42
897.981	-19.11
898.151	30.04
898.322	11.61
898.492	-12.97
898.662	-29.35
898.832	58.71
899.003	46.42
899.173	3.41
899.343	-8.87
899.513	-33.45
