Data from USB4F104151__45__13-53-19-478.txt Node

Date: Thu Mar 13 13:53:19 EDT 2025
User: louis
Spectrometer: USB4F10415
Trigger mode: 4
Integration Time (sec): 1.000000E-2
Scans to average: 1
Electric dark correction enabled: true
Nonlinearity correction enabled: false
Boxcar width: 0
XAxis mode: Wavelengths
Number of Pixels in Spectrum: 3648
>>>>>Begin Spectral Data<<<<<
178.204	1.02
178.424	1.02
178.644	1.02
178.864	-99.33
179.084	-39.94
179.304	15.36
179.524	3.07
179.744	-68.61
179.964	13.31
180.184	37.89
180.404	44.03
180.624	-1.02
180.844	-1.02
181.064	-31.74
181.283	27.65
181.503	-13.31
181.723	-25.6
181.943	21.5
182.163	82.94
182.383	-15.36
182.602	93.18
182.822	-9.22
183.042	7.17
183.262	46.08
183.482	117.76
183.701	50.18
183.921	60.42
184.141	5.12
184.361	29.7
184.58	-5.12
184.8	50.18
185.02	7.17
185.239	60.42
185.459	1.02
185.679	56.32
185.898	7.17
186.118	41.98
186.338	-7.17
186.557	7.17
186.777	-1.02
186.997	31.74
187.216	-15.36
187.436	48.13
187.655	23.55
187.875	-27.65
188.095	-1.02
188.314	9.22
188.534	23.55
188.753	7.17
188.973	39.94
189.192	72.7
189.412	13.31
189.631	44.03
189.851	64.51
190.07	-15.36
190.29	-11.26
190.509	39.94
190.729	23.55
190.948	1.02
191.168	76.8
191.387	9.22
191.607	29.7
191.826	13.31
192.045	-1.02
192.265	-64.51
192.484	7.17
192.704	48.13
192.923	21.5
193.142	-21.5
193.362	-7.17
193.581	-27.65
193.8	-19.46
194.02	41.98
194.239	9.22
194.458	60.42
194.678	44.03
194.897	113.66
195.116	-25.6
195.335	15.36
195.555	56.32
195.774	-15.36
195.993	11.26
196.212	13.31
196.432	-31.74
196.651	15.36
196.87	-31.74
197.089	13.31
197.308	-9.22
197.528	-44.03
197.747	58.37
197.966	60.42
198.185	37.89
198.404	-7.17
198.623	9.22
198.842	78.85
199.062	-11.26
199.281	64.51
199.5	-5.12
199.719	87.04
199.938	-52.22
200.157	-41.98
200.376	68.61
200.595	39.94
200.814	46.08
201.033	-29.7
201.252	1.02
201.471	19.46
201.69	64.51
201.909	25.6
202.128	25.6
202.347	-9.22
202.566	25.6
202.785	-5.12
203.004	19.46
203.223	-27.65
203.442	64.51
203.661	44.03
203.879	7.17
204.098	39.94
204.317	-23.55
204.536	80.89
204.755	21.5
204.974	99.33
205.193	33.79
205.411	21.5
205.63	84.99
205.849	74.75
206.068	44.03
206.287	52.22
206.505	41.98
206.724	19.46
206.943	33.79
207.162	48.13
207.381	-31.74
207.599	-31.74
207.818	31.74
208.037	-1.02
208.255	-19.46
208.474	7.17
208.693	-25.6
208.911	48.13
209.13	-27.65
209.349	33.79
209.567	66.56
209.786	21.5
210.005	78.85
210.223	-13.31
210.442	27.65
210.661	89.09
210.879	3.07
211.098	7.17
211.316	66.56
211.535	64.51
211.753	115.71
211.972	-17.41
212.191	-27.65
212.409	58.37
212.628	93.18
212.846	99.33
213.065	-11.26
213.283	27.65
213.502	25.6
213.72	21.5
213.938	58.37
214.157	7.17
214.375	23.55
214.594	-17.41
214.812	82.94
215.031	1.02
215.249	15.36
215.467	31.74
215.686	15.36
215.904	5.12
216.122	-29.7
216.341	58.37
216.559	19.46
216.778	44.03
216.996	19.46
217.214	-44.03
217.432	-39.94
217.651	17.41
217.869	25.6
218.087	9.22
218.306	11.26
218.524	-1.02
218.742	33.79
218.96	33.79
219.179	60.42
219.397	-11.26
219.615	52.22
219.833	-23.55
220.051	-37.89
220.27	15.36
220.488	31.74
220.706	46.08
220.924	46.08
221.142	-46.08
221.36	56.32
221.578	3.07
221.796	-9.22
222.015	41.98
222.233	48.13
222.451	70.65
222.669	46.08
222.887	87.04
223.105	68.61
223.323	78.85
223.541	58.37
223.759	15.36
223.977	19.46
224.195	58.37
224.413	13.31
224.631	31.74
224.849	64.51
225.067	-7.17
225.285	7.17
225.503	37.89
225.721	-58.37
225.939	25.6
226.157	58.37
226.375	5.12
226.592	52.22
226.81	-9.22
227.028	-25.6
227.246	-15.36
227.464	-9.22
227.682	19.46
227.9	41.98
228.117	54.27
228.335	-35.84
228.553	35.84
228.771	13.31
228.989	33.79
229.206	-13.31
229.424	-23.55
229.642	68.61
229.86	-62.46
230.077	7.17
230.295	-19.46
230.513	68.61
230.731	-5.12
230.948	58.37
231.166	60.42
231.384	-3.07
231.601	78.85
231.819	-5.12
232.037	-13.31
232.254	35.84
232.472	31.74
232.689	44.03
232.907	-31.74
233.125	-11.26
233.342	-33.79
233.56	-41.98
233.777	-29.7
233.995	39.94
234.213	17.41
234.43	-29.7
234.648	72.7
234.865	23.55
235.083	23.55
235.3	64.51
235.518	41.98
235.735	-9.22
235.953	74.75
236.17	-7.17
236.388	17.41
236.605	27.65
236.822	76.8
237.04	23.55
237.257	50.18
237.475	13.31
237.692	29.7
237.909	70.65
238.127	-13.31
238.344	25.6
238.562	5.12
238.779	-1.02
238.996	-50.18
239.214	-5.12
239.431	-3.07
239.648	50.18
239.865	5.12
240.083	62.46
240.3	21.5
240.517	19.46
240.735	-21.5
240.952	-62.46
241.169	76.8
241.386	3.07
241.603	13.31
241.821	-3.07
242.038	31.74
242.255	35.84
242.472	13.31
242.689	-3.07
242.907	21.5
243.124	46.08
243.341	19.46
243.558	-39.94
243.775	1.02
243.992	19.46
244.209	-1.02
244.426	39.94
244.643	27.65
244.86	52.22
245.078	56.32
245.295	-13.31
245.512	-19.46
245.729	1.02
245.946	84.99
246.163	48.13
246.38	62.46
246.597	15.36
246.814	37.89
247.031	-29.7
247.248	15.36
247.464	9.22
247.681	-35.84
247.898	60.42
248.115	-21.5
248.332	19.46
248.549	5.12
248.766	105.47
248.983	-33.79
249.2	-5.12
249.417	3.07
249.633	-9.22
249.85	35.84
250.067	19.46
250.284	35.84
250.501	11.26
250.717	41.98
250.934	-41.98
251.151	9.22
251.368	64.51
251.585	68.61
251.801	27.65
252.018	48.13
252.235	7.17
252.451	25.6
252.668	-5.12
252.885	66.56
253.102	87.04
253.318	68.61
253.535	35.84
253.752	84.99
253.968	-19.46
254.185	89.09
254.401	5.12
254.618	62.46
254.835	23.55
255.051	58.37
255.268	-17.41
255.484	46.08
255.701	23.55
255.917	11.26
256.134	37.89
256.351	74.75
256.567	37.89
256.784	25.6
257	-7.17
257.217	31.74
257.433	-7.17
257.65	-7.17
257.866	19.46
258.082	7.17
258.299	15.36
258.515	44.03
258.732	9.22
258.948	-3.07
259.165	-5.12
259.381	29.7
259.597	41.98
259.814	76.8
260.03	97.28
260.246	21.5
260.463	-46.08
260.679	9.22
260.895	15.36
261.112	60.42
261.328	-3.07
261.544	80.89
261.761	7.17
261.977	19.46
262.193	-11.26
262.409	82.94
262.626	-21.5
262.842	15.36
263.058	76.8
263.274	50.18
263.49	23.55
263.707	91.13
263.923	25.6
264.139	39.94
264.355	-21.5
264.571	35.84
264.787	17.41
265.004	7.17
265.22	11.26
265.436	1.02
265.652	11.26
265.868	46.08
266.084	39.94
266.3	-19.46
266.516	-17.41
266.732	56.32
266.948	70.65
267.164	-35.84
267.38	-5.12
267.596	11.26
267.812	41.98
268.028	21.5
268.244	7.17
268.46	64.51
268.676	35.84
268.892	50.18
269.108	-7.17
269.324	-44.03
269.54	58.37
269.756	107.52
269.972	-25.6
270.188	-35.84
270.403	56.32
270.619	3.07
270.835	27.65
271.051	-46.08
271.267	33.79
271.483	-27.65
271.698	-33.79
271.914	76.8
272.13	58.37
272.346	-9.22
272.562	19.46
272.777	64.51
272.993	-5.12
273.209	82.94
273.425	37.89
273.64	70.65
273.856	93.18
274.072	-19.46
274.287	11.26
274.503	82.94
274.719	5.12
274.934	105.47
275.15	74.75
275.366	21.5
275.581	-29.7
275.797	-25.6
276.012	-3.07
276.228	-37.89
276.444	-48.13
276.659	41.98
276.875	-31.74
277.09	9.22
277.306	9.22
277.521	-17.41
277.737	37.89
277.952	21.5
278.168	3.07
278.383	56.32
278.599	21.5
278.814	13.31
279.03	1.02
279.245	-27.65
279.461	9.22
279.676	19.46
279.892	13.31
280.107	105.47
280.322	23.55
280.538	76.8
280.753	-29.7
280.969	70.65
281.184	-41.98
281.399	25.6
281.615	111.61
281.83	76.8
282.045	-68.61
282.26	21.5
282.476	9.22
282.691	54.27
282.906	5.12
283.122	11.26
283.337	54.27
283.552	58.37
283.767	-27.65
283.983	31.74
284.198	-11.26
284.413	58.37
284.628	48.13
284.843	7.17
285.058	3.07
285.274	50.18
285.489	31.74
285.704	41.98
285.919	35.84
286.134	-31.74
286.349	64.51
286.564	-17.41
286.779	9.22
286.995	80.89
287.21	31.74
287.425	21.5
287.64	74.75
287.855	48.13
288.07	-3.07
288.285	76.8
288.5	-9.22
288.715	29.7
288.93	7.17
289.145	-1.02
289.36	17.41
289.575	23.55
289.79	21.5
290.004	41.98
290.219	87.04
290.434	23.55
290.649	-19.46
290.864	3.07
291.079	44.03
291.294	35.84
291.509	33.79
291.724	-3.07
291.938	-7.17
292.153	76.8
292.368	-37.89
292.583	35.84
292.798	87.04
293.012	-13.31
293.227	50.18
293.442	39.94
293.657	31.74
293.871	60.42
294.086	25.6
294.301	93.18
294.516	9.22
294.73	9.22
294.945	-33.79
295.16	50.18
295.374	37.89
295.589	-46.08
295.804	-7.17
296.018	44.03
296.233	3.07
296.447	21.5
296.662	-41.98
296.877	29.7
297.091	31.74
297.306	109.57
297.52	91.13
297.735	39.94
297.949	17.41
298.164	23.55
298.378	80.89
298.593	33.79
298.807	-37.89
299.022	7.17
299.236	9.22
299.451	-27.65
299.665	44.03
299.88	25.6
300.094	-46.08
300.309	48.13
300.523	64.51
300.737	54.27
300.952	52.22
301.166	-15.36
301.381	-29.7
301.595	44.03
301.809	41.98
302.024	-23.55
302.238	87.04
302.452	78.85
302.667	58.37
302.881	27.65
303.095	25.6
303.309	-5.12
303.524	-15.36
303.738	74.75
303.952	5.12
304.166	97.28
304.381	27.65
304.595	11.26
304.809	-19.46
305.023	-5.12
305.237	66.56
305.452	64.51
305.666	21.5
305.88	66.56
306.094	21.5
306.308	64.51
306.522	78.85
306.736	33.79
306.95	41.98
307.164	9.22
307.379	-41.98
307.593	-9.22
307.807	11.26
308.021	50.18
308.235	-5.12
308.449	39.94
308.663	9.22
308.877	-41.98
309.091	29.7
309.305	31.74
309.519	78.85
309.733	93.18
309.947	1.02
310.161	-25.6
310.374	-5.12
310.588	48.13
310.802	-9.22
311.016	82.94
311.23	19.46
311.444	25.6
311.658	29.7
311.872	35.84
312.085	78.85
312.299	-58.37
312.513	72.7
312.727	35.84
312.941	-13.31
313.154	13.31
313.368	37.89
313.582	62.46
313.796	23.55
314.009	64.51
314.223	-7.17
314.437	9.22
314.651	70.65
314.864	89.09
315.078	56.32
315.292	37.89
315.505	33.79
315.719	13.31
315.933	-35.84
316.146	48.13
316.36	-74.75
316.573	87.04
316.787	-9.22
317.001	48.13
317.214	9.22
317.428	-39.94
317.641	31.74
317.855	33.79
318.068	21.5
318.282	-74.75
318.495	13.31
318.709	21.5
318.922	1.02
319.136	68.61
319.349	25.6
319.563	99.33
319.776	-56.32
319.99	44.03
320.203	15.36
320.417	60.42
320.63	60.42
320.843	-17.41
321.057	25.6
321.27	101.37
321.483	44.03
321.697	78.85
321.91	3.07
322.124	21.5
322.337	3.07
322.55	23.55
322.763	13.31
322.977	-25.6
323.19	39.94
323.403	25.6
323.617	25.6
323.83	54.27
324.043	-27.65
324.256	50.18
324.469	-7.17
324.683	84.99
324.896	35.84
325.109	70.65
325.322	9.22
325.535	13.31
325.748	41.98
325.962	-17.41
326.175	70.65
326.388	-11.26
326.601	-15.36
326.814	17.41
327.027	33.79
327.24	41.98
327.453	46.08
327.666	60.42
327.879	52.22
328.092	109.57
328.305	95.23
328.518	-3.07
328.731	48.13
328.944	-1.02
329.157	46.08
329.37	1.02
329.583	78.85
329.796	64.51
330.009	91.13
330.222	-3.07
330.435	1.02
330.648	37.89
330.861	62.46
331.073	97.28
331.286	44.03
331.499	39.94
331.712	-78.85
331.925	54.27
332.138	25.6
332.35	31.74
332.563	39.94
332.776	64.51
332.989	7.17
333.202	-31.74
333.414	27.65
333.627	44.03
333.84	17.41
334.053	19.46
334.265	80.89
334.478	44.03
334.691	74.75
334.903	-13.31
335.116	68.61
335.329	97.28
335.541	29.7
335.754	48.13
335.966	-35.84
336.179	29.7
336.392	54.27
336.604	60.42
336.817	31.74
337.029	27.65
337.242	44.03
337.454	99.33
337.667	3.07
337.88	89.09
338.092	25.6
338.305	62.46
338.517	13.31
338.729	31.74
338.942	3.07
339.154	103.42
339.367	3.07
339.579	-84.99
339.792	82.94
340.004	89.09
340.217	37.89
340.429	15.36
340.641	82.94
340.854	-3.07
341.066	3.07
341.278	56.32
341.491	-9.22
341.703	21.5
341.915	-19.46
342.128	39.94
342.34	44.03
342.552	-11.26
342.764	48.13
342.977	5.12
343.189	29.7
343.401	107.52
343.613	-1.02
343.826	78.85
344.038	21.5
344.25	23.55
344.462	64.51
344.674	41.98
344.886	101.37
345.099	89.09
345.311	1.02
345.523	119.81
345.735	-13.31
345.947	-1.02
346.159	-3.07
346.371	68.61
346.583	-44.03
346.795	72.7
347.007	-17.41
347.219	72.7
347.431	-21.5
347.643	109.57
347.855	15.36
348.067	-17.41
348.279	64.51
348.491	37.89
348.703	-25.6
348.915	19.46
349.127	23.55
349.339	17.41
349.551	21.5
349.763	109.57
349.975	-33.79
350.187	48.13
350.399	64.51
350.61	64.51
350.822	15.36
351.034	13.31
351.246	27.65
351.458	-1.02
351.669	-1.02
351.881	27.65
352.093	27.65
352.305	48.13
352.517	17.41
352.728	64.51
352.94	82.94
353.152	50.18
353.363	-11.26
353.575	13.31
353.787	-1.02
353.999	115.71
354.21	54.27
354.422	82.94
354.633	-9.22
354.845	31.74
355.057	-3.07
355.268	31.74
355.48	68.61
355.692	48.13
355.903	-37.89
356.115	15.36
356.326	7.17
356.538	17.41
356.749	-7.17
356.961	89.09
357.172	27.65
357.384	-27.65
357.595	23.55
357.807	9.22
358.018	48.13
358.23	74.75
358.441	89.09
358.653	84.99
358.864	25.6
359.075	87.04
359.287	54.27
359.498	72.7
359.709	60.42
359.921	11.26
360.132	58.37
360.344	54.27
360.555	33.79
360.766	48.13
360.977	17.41
361.189	27.65
361.4	60.42
361.611	89.09
361.823	72.7
362.034	29.7
362.245	70.65
362.456	50.18
362.667	29.7
362.879	82.94
363.09	-11.26
363.301	15.36
363.512	15.36
363.723	19.46
363.935	-11.26
364.146	31.74
364.357	60.42
364.568	80.89
364.779	-35.84
364.99	21.5
365.201	33.79
365.412	31.74
365.623	58.37
365.834	31.74
366.045	-37.89
366.256	44.03
366.467	50.18
366.678	27.65
366.889	-3.07
367.1	56.32
367.311	50.18
367.522	41.98
367.733	82.94
367.944	31.74
368.155	35.84
368.366	41.98
368.577	70.65
368.788	80.89
368.999	97.28
369.209	29.7
369.42	76.8
369.631	41.98
369.842	37.89
370.053	-7.17
370.264	39.94
370.474	60.42
370.685	13.31
370.896	48.13
371.107	-39.94
371.317	-37.89
371.528	11.26
371.739	56.32
371.95	58.37
372.16	-17.41
372.371	15.36
372.582	115.71
372.792	91.13
373.003	56.32
373.214	56.32
373.424	-41.98
373.635	1.02
373.846	46.08
374.056	76.8
374.267	-54.27
374.477	33.79
374.688	-27.65
374.898	70.65
375.109	19.46
375.319	89.09
375.53	-44.03
375.74	31.74
375.951	-13.31
376.161	11.26
376.372	87.04
376.582	31.74
376.793	23.55
377.003	72.7
377.214	9.22
377.424	31.74
377.635	23.55
377.845	19.46
378.055	84.99
378.266	-33.79
378.476	44.03
378.686	48.13
378.897	25.6
379.107	17.41
379.317	105.47
379.528	54.27
379.738	17.41
379.948	37.89
380.158	105.47
380.369	-25.6
380.579	80.89
380.789	89.09
380.999	87.04
381.21	107.52
381.42	91.13
381.63	-19.46
381.84	23.55
382.05	-13.31
382.261	41.98
382.471	33.79
382.681	39.94
382.891	19.46
383.101	82.94
383.311	50.18
383.521	39.94
383.731	52.22
383.941	41.98
384.151	-13.31
384.361	1.02
384.571	82.94
384.781	15.36
384.991	29.7
385.201	111.61
385.411	74.75
385.621	107.52
385.831	21.5
386.041	46.08
386.251	19.46
386.461	91.13
386.671	31.74
386.881	64.51
387.091	56.32
387.301	179.2
387.511	89.09
387.72	41.98
387.93	84.99
388.14	-7.17
388.35	48.13
388.56	-17.41
388.769	84.99
388.979	-9.22
389.189	46.08
389.399	64.51
389.609	44.03
389.818	64.51
390.028	115.71
390.238	29.7
390.447	46.08
390.657	-11.26
390.867	68.61
391.076	-60.42
391.286	-3.07
391.496	23.55
391.705	54.27
391.915	60.42
392.125	19.46
392.334	99.33
392.544	58.37
392.753	52.22
392.963	50.18
393.172	89.09
393.382	70.65
393.591	105.47
393.801	76.8
394.01	70.65
394.22	-13.31
394.429	66.56
394.639	60.42
394.848	60.42
395.058	54.27
395.267	48.13
395.477	56.32
395.686	107.52
395.895	109.57
396.105	52.22
396.314	70.65
396.524	107.52
396.733	23.55
396.942	64.51
397.152	105.47
397.361	125.95
397.57	93.18
397.78	21.5
397.989	64.51
398.198	115.71
398.407	35.84
398.617	62.46
398.826	56.32
399.035	35.84
399.244	76.8
399.453	-17.41
399.663	78.85
399.872	27.65
400.081	74.75
400.29	134.14
400.499	58.37
400.708	142.33
400.917	54.27
401.127	46.08
401.336	66.56
401.545	119.81
401.754	44.03
401.963	91.13
402.172	97.28
402.381	97.28
402.59	99.33
402.799	87.04
403.008	132.09
403.217	89.09
403.426	97.28
403.635	109.57
403.844	60.42
404.053	144.38
404.262	82.94
404.471	87.04
404.68	132.09
404.888	93.18
405.097	109.57
405.306	136.19
405.515	162.81
405.724	68.61
405.933	64.51
406.142	87.04
406.35	150.53
406.559	111.61
406.768	156.67
406.977	68.61
407.185	99.33
407.394	130.05
407.603	154.62
407.812	220.16
408.02	76.8
408.229	156.67
408.438	105.47
408.646	115.71
408.855	119.81
409.064	197.63
409.272	111.61
409.481	171.01
409.69	152.57
409.898	175.1
410.107	191.49
410.315	226.3
410.524	175.1
410.733	357.37
410.941	214.01
411.15	211.96
411.358	209.92
411.567	279.55
411.775	275.45
411.984	273.4
412.192	267.26
412.401	216.06
412.609	242.68
412.818	332.79
413.026	318.46
413.234	293.88
413.443	287.74
413.651	345.08
413.86	355.32
414.068	365.56
414.276	349.18
414.485	336.89
414.693	422.91
414.901	398.33
415.11	361.47
415.318	388.09
415.526	467.96
415.734	467.96
415.943	453.63
416.151	480.25
416.359	549.88
416.567	474.1
416.776	551.93
416.984	541.69
417.192	556.02
417.4	539.64
417.608	570.36
417.817	637.94
418.025	584.7
418.233	674.81
418.441	623.61
418.649	631.8
418.857	736.24
419.065	713.72
419.273	773.11
419.481	801.78
419.689	742.39
419.897	861.17
420.105	805.88
420.313	908.27
420.521	846.84
420.729	1012.72
420.937	967.67
421.145	1041.39
421.353	1065.97
421.561	1098.74
421.769	1164.27
421.977	1240.05
422.185	1182.7
422.393	1199.09
422.601	1283.05
422.809	1293.29
423.017	1313.77
423.224	1354.73
423.432	1405.93
423.64	1491.95
423.848	1559.53
424.056	1459.18
424.263	1629.16
424.471	1596.39
424.679	1606.63
424.887	1694.69
425.094	1811.43
425.302	1831.91
425.51	1911.78
425.718	1879.01
425.925	2012.13
426.133	2081.76
426.341	2122.72
426.548	2198.49
426.756	2192.35
426.964	2206.69
427.171	2411.48
427.379	2368.48
427.586	2542.55
427.794	2599.9
428.001	2603.99
428.209	2821.08
428.417	2757.59
428.624	2855.89
428.832	2874.32
429.039	3099.6
429.247	3009.49
429.454	3281.87
429.662	3316.69
429.869	3210.19
430.076	3423.18
430.284	3333.07
430.491	3335.12
430.699	3648.46
430.906	3709.9
431.114	3800.01
431.321	3789.77
431.528	3902.4
431.736	4250.56
431.943	4486.08
432.15	4318.14
432.358	4273.09
432.565	4588.47
432.772	4510.65
432.979	4717.5
433.187	4889.53
433.394	4885.43
433.601	5157.81
433.808	5258.16
434.016	5307.31
434.223	5495.72
434.43	5757.86
434.637	5557.16
434.844	6087.59
435.052	5956.52
435.259	6026.15
435.466	6073.25
435.673	6128.55
435.88	6316.96
436.087	6843.29
436.294	6867.86
436.501	6536.09
436.708	6710.17
436.915	7025.56
437.122	7318.42
437.329	7037.84
437.537	7629.71
437.743	7596.94
437.95	7594.89
438.157	7906.18
438.364	8174.47
438.571	8168.32
438.778	8201.09
438.985	9108.34
439.192	8629.12
439.399	8872.82
439.606	8649.6
439.813	9145.2
440.02	9765.74
440.227	9542.51
440.433	9366.39
440.64	9700.2
440.847	9864.04
441.054	9935.72
441.261	10611.55
441.467	10552.16
441.674	10883.93
441.881	10978.14
442.088	11135.83
442.294	11090.77
442.501	11213.65
442.708	11641.68
442.914	12161.86
443.121	12634.94
443.328	12118.86
443.534	13013.82
443.741	12428.1
443.948	12553.02
444.154	13585.2
444.361	13454.13
444.568	13501.23
444.774	13318.96
444.981	13738.8
445.187	14060.33
445.394	14621.47
445.6	14316.33
445.807	15942.41
446.013	15041.31
446.22	15260.44
446.426	15825.68
446.633	16061.19
446.839	16610.05
447.046	15891.21
447.252	16710.4
447.459	17046.27
447.665	17103.61
447.871	17566.45
448.078	18285.29
448.284	17341.18
448.491	17955.57
448.697	18621.16
448.903	18838.24
449.11	18987.74
449.316	18711.27
449.522	18926.3
449.728	19387.1
449.935	19573.46
450.141	19692.24
450.347	19862.22
450.553	19292.89
450.76	19266.27
450.966	20021.97
451.172	20142.8
451.378	20665.03
451.584	20218.57
451.791	20456.14
451.997	20509.38
452.203	20806.34
452.409	20865.73
452.615	20746.95
452.821	20130.51
453.027	20058.83
453.233	20857.54
453.44	20167.37
453.646	20337.35
453.852	20126.41
454.058	20538.05
454.264	20001.49
454.47	20490.95
454.676	20003.53
454.882	20585.16
455.088	18711.27
455.294	19124.96
455.5	19395.29
455.705	19213.02
455.911	18510.57
456.117	17994.48
456.323	18146.03
456.529	16872.19
456.735	17787.63
456.941	17527.54
457.147	17085.18
457.352	16429.83
457.558	16208.65
457.764	16462.6
457.97	16034.57
458.176	15461.14
458.381	15870.73
458.587	15043.35
458.793	14951.2
458.999	14058.28
459.204	15297.3
459.41	14838.56
459.616	13738.8
459.821	13808.43
460.027	13757.23
460.233	13517.62
460.438	12985.15
460.644	12827.45
460.85	12151.62
461.055	12204.87
461.261	12071.75
461.466	11129.69
461.672	10980.18
461.878	11627.34
462.083	11109.21
462.289	10769.24
462.494	10662.75
462.7	10083.17
462.905	10046.31
463.111	10085.22
463.316	10359.65
463.522	9972.58
463.727	9880.43
463.932	10148.71
464.138	9870.19
464.343	10077.03
464.549	9804.65
464.754	9993.06
464.959	10154.85
465.165	9821.03
465.37	9354.1
465.575	9266.03
465.781	9589.61
465.986	9882.47
466.191	9350
466.397	9085.81
466.602	8569.73
466.807	8977.27
467.012	9026.42
467.218	8905.59
467.423	8973.18
467.628	8897.4
467.833	9085.81
468.038	9155.44
468.244	8766.33
468.449	9151.35
468.654	8676.22
468.859	8502.14
469.064	8618.88
469.269	8246.15
469.474	8524.67
469.679	8289.15
469.885	8133.51
470.09	8395.65
470.295	8309.63
470.5	8217.47
470.705	8184.71
470.91	7984.01
471.115	7902.09
471.32	8072.07
471.525	7879.56
471.73	7844.74
471.935	7699.34
472.139	7408.53
472.344	7547.79
472.549	7555.98
472.754	7404.43
472.959	7433.1
473.164	7105.43
473.369	7048.08
473.574	7304.08
473.778	7156.63
473.983	7046.04
474.188	7211.92
474.393	6792.09
474.598	6910.87
474.802	6724.51
475.007	6726.55
475.212	6562.72
475.417	6515.61
475.621	6351.78
475.826	6491.04
476.031	6347.68
476.235	6329.25
476.44	6372.25
476.645	6224.8
476.849	6224.8
477.054	6202.27
477.259	6091.68
477.463	6187.94
477.668	5972.9
477.872	6075.3
478.077	5696.43
478.282	5817.26
478.486	5845.93
478.691	5743.53
478.895	5766.06
479.1	5587.88
479.304	5598.12
479.509	5415.85
479.713	5585.83
479.918	5434.29
480.122	5360.56
480.326	5452.72
480.531	5288.88
480.735	5284.78
480.94	5374.89
481.144	5452.72
481.348	5223.34
481.553	5268.4
481.757	5127.09
481.961	5329.84
482.166	5315.5
482.37	5323.69
482.574	5206.96
482.778	5112.75
482.983	5364.65
483.187	5368.75
483.391	5299.12
483.595	5249.97
483.8	5268.4
484.004	5161.91
484.208	5231.54
484.412	5186.48
484.616	5305.26
484.821	5219.25
485.025	5166
485.229	5116.85
485.433	5346.22
485.637	5311.41
485.841	5143.47
486.045	5202.86
486.249	5245.87
486.453	5225.39
486.657	5295.02
486.861	5163.95
487.065	5065.65
487.269	5262.26
487.473	5014.45
487.677	5188.53
487.881	5327.79
488.085	5303.22
488.289	5317.55
488.493	5350.32
488.697	5280.69
488.901	5313.45
489.105	5313.45
489.309	5344.17
489.512	5440.43
489.716	5485.48
489.92	5233.58
490.124	5278.64
490.328	5430.19
490.531	5419.95
490.735	5411.76
490.939	5411.76
491.143	5323.69
491.346	5366.7
491.55	5450.67
491.754	5581.74
491.958	5641.13
492.161	5434.29
492.365	5346.22
492.569	5544.88
492.772	5559.21
492.976	5555.12
493.18	5630.89
493.383	5669.8
493.587	5761.96
493.79	5852.07
493.994	5628.84
494.197	5890.98
494.401	5888.93
494.605	5821.35
494.808	6017.96
495.012	5981.09
495.215	6124.45
495.419	6073.25
495.622	6230.94
495.825	6054.82
496.029	6288.29
496.232	6249.38
496.436	6417.31
496.639	6409.12
496.843	6421.41
497.046	6409.12
497.249	6624.15
497.453	6603.68
497.656	6765.46
497.859	6822.81
498.063	7017.36
498.266	6935.45
498.469	7087
498.673	7039.89
498.876	7072.66
499.079	7087
499.282	7197.59
499.485	7424.91
499.689	7386
499.892	7670.67
500.095	7707.53
500.298	7783.31
500.501	7496.59
500.705	7959.43
500.908	8145.8
501.111	8260.48
501.314	7965.57
501.517	8301.44
501.72	8481.66
501.923	8414.08
502.126	8625.02
502.329	8678.27
502.532	8774.52
502.735	8702.84
502.938	9149.3
503.141	9110.39
503.344	9218.93
503.547	9513.84
503.75	9608.05
503.953	9565.04
504.156	9646.96
504.359	9763.69
504.562	9818.99
504.765	10249.06
504.968	10281.83
505.17	10279.78
505.373	10361.7
505.576	10500.96
505.779	10525.54
505.982	10611.55
506.185	11064.15
506.387	10802.01
506.59	11037.53
506.793	11377.49
506.996	11406.16
507.198	11764.56
507.401	11512.66
507.604	11758.41
507.807	12045.13
508.009	12243.78
508.212	12247.88
508.415	12622.66
508.617	12585.79
508.82	12636.99
509.022	12602.18
509.225	13077.3
509.428	13191.99
509.63	13341.49
509.833	13372.21
510.035	13687.6
510.238	13534
510.44	14050.09
510.643	14271.27
510.845	14097.19
511.048	14267.17
511.25	14551.84
511.453	14713.63
511.655	15207.19
511.858	15151.9
512.06	15332.12
512.262	15794.96
512.465	15530.77
512.667	15952.65
512.87	15960.84
513.072	16100.11
513.274	16327.43
513.477	16657.15
513.679	16749.31
513.881	16984.83
514.084	17261.3
514.286	17171.19
514.488	17550.07
514.69	17885.94
514.893	18037.48
515.095	18123.5
515.297	18479.85
515.499	18387.69
515.701	18799.33
515.904	18836.19
516.106	18967.26
516.308	19389.14
516.51	19557.08
516.712	19602.13
516.914	19845.84
517.116	20171.47
517.318	20161.23
517.52	20669.12
517.722	20765.38
517.925	21129.92
518.127	21244.6
518.329	21273.28
518.531	21635.77
518.733	22147.76
518.935	22051.5
519.136	22076.08
519.338	22598.31
519.54	22694.57
519.742	23126.69
519.944	23220.89
520.146	23593.62
520.348	23388.83
520.55	23913.11
520.752	24210.06
520.954	24574.6
521.155	24146.58
521.357	24791.69
521.559	24867.46
521.761	25404.03
521.963	25350.78
522.164	25479.8
522.366	25784.95
522.568	25750.14
522.77	25977.46
522.971	26554.99
523.173	26481.26
523.375	26821.22
523.576	26704.49
523.778	26708.58
523.98	27402.85
524.181	27427.42
524.383	27411.04
524.584	27980.37
524.786	27939.41
524.988	27726.42
525.189	28418.64
525.391	28373.58
525.592	28842.57
525.794	28725.83
525.995	28924.49
526.197	28904.01
526.398	29084.23
526.6	29635.13
526.801	29295.17
527.003	29336.13
527.204	29674.04
527.406	29884.98
527.607	29807.16
527.808	30411.31
528.01	29932.09
528.211	29927.99
528.412	30726.7
528.614	30605.87
528.815	30833.19
529.016	31025.7
529.218	30874.15
529.419	31078.95
529.62	30702.12
529.822	30657.07
530.023	30960.17
530.224	30861.87
530.425	31187.49
530.626	30982.7
530.828	31109.67
531.029	31998.49
531.23	31437.34
531.431	31212.07
531.632	31814.17
531.833	31617.57
532.035	31756.83
532.236	31513.12
532.437	31543.84
532.638	31711.77
532.839	32010.78
533.04	31924.76
533.241	31791.64
533.442	32446.99
533.643	31801.88
533.844	32162.33
534.045	32115.22
534.246	31812.12
534.447	32205.33
534.648	32143.89
534.849	31834.65
535.05	31830.55
535.251	32260.63
535.451	32147.99
535.652	32561.68
535.853	31912.47
536.054	32303.64
536.255	32244.24
536.456	31529.5
536.657	32522.77
536.857	32143.89
537.058	32326.16
537.259	32547.34
537.46	32338.45
537.66	32080.41
537.861	32674.32
538.062	32399.89
538.263	32698.89
538.463	32195.09
538.664	32068.12
538.865	32391.7
539.065	32559.63
539.266	32457.23
539.466	32672.27
539.667	32182.8
539.868	32662.03
540.068	32238.1
540.269	32383.51
540.469	32260.63
540.67	32236.05
540.87	32707.08
541.071	32387.6
541.271	32530.96
541.472	32354.83
541.672	32076.31
541.873	32246.29
542.073	31734.3
542.274	32653.84
542.474	32520.72
542.675	32293.4
542.875	32641.55
543.075	32176.66
543.276	31889.95
543.476	32696.85
543.676	32311.83
543.877	32487.95
544.077	32381.46
544.277	32389.65
544.478	32023.06
544.678	32303.64
544.878	32395.79
545.078	32170.52
545.279	31994.39
545.479	32209.43
545.679	32338.45
545.879	32109.08
546.079	32152.09
546.28	32408.08
546.48	32082.45
546.68	32188.95
546.88	32387.6
547.08	32526.86
547.28	31943.19
547.48	31650.33
547.68	32526.86
547.88	32227.86
548.081	32334.35
548.281	32258.58
548.481	31941.14
548.681	32414.23
548.881	32301.59
549.081	32612.88
549.28	31728.16
549.48	32330.26
549.68	32602.64
549.88	32659.98
550.08	31959.58
550.28	32309.78
550.48	32207.38
550.68	32705.04
550.88	31953.43
551.08	32256.53
551.279	32242.2
551.479	31666.72
551.679	32401.94
551.879	32059.93
552.079	31863.32
552.278	31877.66
552.478	31969.82
552.678	32387.6
552.878	32332.31
553.077	32043.54
553.277	31916.57
553.477	32344.59
553.676	32066.07
553.876	32027.16
554.076	32156.18
554.275	31887.9
554.475	31613.47
554.674	31861.27
554.874	31658.52
555.074	31650.33
555.273	31742.49
555.473	31959.58
555.672	31631.9
555.872	31969.82
556.071	31826.46
556.271	32096.79
556.47	31674.91
556.67	31779.36
556.869	31349.28
557.068	31498.78
557.268	31418.91
557.467	31492.64
557.667	31291.94
557.866	31486.5
558.065	31293.99
558.265	31408.67
558.464	31222.31
558.663	31566.37
558.863	30868.01
559.062	31543.84
559.261	30798.38
559.461	31144.48
559.66	30951.98
559.859	31160.87
560.058	30806.57
560.258	31074.85
560.457	30861.87
560.656	30921.26
560.855	30272.05
561.054	30792.23
561.253	30423.6
561.453	30595.63
561.652	30636.59
561.851	30667.31
562.05	30386.74
562.249	30353.97
562.448	30548.53
562.647	30403.12
562.846	30261.81
563.045	30411.31
563.244	30114.36
563.443	30167.6
563.642	29485.63
563.841	30179.89
564.04	29446.72
564.239	30194.23
564.438	29872.7
564.637	29786.68
564.836	30036.53
565.035	29452.86
565.234	29776.44
565.432	29309.5
565.631	29444.67
565.83	29461.05
566.029	29303.36
566.228	29151.81
566.427	29663.8
566.625	29071.94
566.824	29102.66
567.023	29434.43
567.222	28785.22
567.42	28981.83
567.619	28953.16
567.818	28787.27
568.016	28596.81
568.215	29258.31
568.414	28586.57
568.612	28770.89
568.811	28349.01
569.01	28414.54
569.208	27947.61
569.407	28293.71
569.605	28199.51
569.804	28207.7
570.002	27722.33
570.201	28176.98
570.4	27845.21
570.598	27578.97
570.797	27761.24
570.995	27773.53
571.193	27171.43
571.392	27607.64
571.59	27433.57
571.789	27454.05
571.987	27447.9
572.186	27306.59
572.384	26962.53
572.582	27284.06
572.781	27026.02
572.979	26522.22
573.177	26684.01
573.376	26706.54
573.574	26653.29
573.772	26591.85
573.971	26417.77
574.169	26407.53
574.367	26217.07
574.565	26393.2
574.763	26180.21
574.962	26241.65
575.16	25754.23
575.358	25944.69
575.556	25428.6
575.754	25987.7
575.952	25377.4
576.151	25629.3
576.349	25543.29
576.547	25164.42
576.745	25256.57
576.943	25610.87
577.141	25434.75
577.339	25459.32
577.537	25164.42
577.735	24910.47
577.933	24910.47
578.131	25010.82
578.329	24928.9
578.527	24502.92
578.725	24609.42
578.923	24781.45
579.121	24492.68
579.319	24154.77
579.516	24384.14
579.714	24625.8
579.912	24191.63
580.11	23941.78
580.308	24160.91
580.506	23900.82
580.704	23675.54
580.901	23792.28
581.099	23816.85
581.297	23462.55
581.495	23833.24
581.692	23769.75
581.89	23132.83
582.088	23665.3
582.285	23480.99
582.483	23251.61
582.681	23095.97
582.878	23313.05
583.076	22864.55
583.274	22874.79
583.471	22682.28
583.669	22979.23
583.866	22713
584.064	22710.95
584.262	22680.23
584.459	23077.54
584.657	22436.52
584.854	22506.15
585.052	22033.07
585.249	22465.19
585.447	22508.2
585.644	22143.66
585.841	22162.09
586.039	22260.4
586.236	22096.56
586.434	22082.22
586.631	21740.21
586.828	22045.36
587.026	21942.96
587.223	21777.08
587.42	21648.05
587.618	21914.29
587.815	21392.06
588.012	21381.82
588.21	21463.74
588.407	21326.52
588.604	21238.46
588.801	21084.86
588.999	20933.31
589.196	21093.05
589.393	21398.2
589.59	20810.43
589.787	20927.17
589.984	20773.57
590.182	20611.78
590.379	20736.71
590.576	20519.62
590.773	20636.36
590.97	20343.5
591.167	20484.81
591.364	20198.09
591.561	20316.87
591.758	19968.72
591.955	20345.55
592.152	20247.24
592.349	19854.03
592.546	20179.66
592.743	20005.58
592.94	19469.01
593.137	19598.04
593.334	19870.42
593.531	19575.51
593.727	19804.88
593.924	19598.04
594.121	19407.58
594.318	19544.79
594.515	19182.3
594.712	19743.44
594.908	19323.61
595.105	19385.05
595.302	19090.14
595.499	19157.72
595.696	18828
595.892	18903.78
596.089	18834.14
596.286	18875.1
596.482	18868.96
596.679	18823.9
596.876	18803.43
597.072	18789.09
597.269	18572
597.466	18387.69
597.662	18252.52
597.859	18457.32
598.055	18703.07
598.252	18229.99
598.448	18180.84
598.645	18143.98
598.841	18025.2
599.038	18252.52
599.234	17918.7
599.431	17910.51
599.627	17736.43
599.824	17910.51
600.02	17732.34
600.217	17947.37
600.413	17621.75
600.609	17496.82
600.806	17394.42
601.002	17318.65
601.198	17683.19
601.395	17355.51
601.591	17408.76
601.787	17273.59
601.984	17062.65
602.18	17312.5
602.376	17244.92
602.572	16950.01
602.769	17238.78
602.965	16823.04
603.161	16831.23
603.357	16986.88
603.553	16796.42
603.75	16814.85
603.946	16511.75
604.142	16608
604.338	16544.52
604.534	16732.93
604.73	16370.44
604.926	16304.9
605.122	16433.93
605.318	16159.5
605.514	16081.67
605.71	16220.94
605.906	16069.39
606.102	16012.04
606.298	16126.73
606.494	16163.59
606.69	16005.9
606.886	15823.63
607.082	15706.9
607.278	15813.39
607.474	15397.65
607.67	15784.72
607.866	15391.51
608.062	15702.8
608.257	15571.73
608.453	15713.04
608.649	15477.52
608.845	15411.99
609.041	15311.64
609.236	15385.37
609.432	15260.44
609.628	15274.77
609.824	15356.69
610.019	15207.19
610.215	15059.74
610.411	15104.79
610.606	14992.16
610.802	15074.07
610.998	14918.43
611.193	14957.34
611.389	14852.89
611.584	14916.38
611.78	14723.87
611.976	14615.33
612.171	14914.33
612.367	14787.36
612.562	14707.49
612.758	14660.38
612.953	14521.12
613.149	14691.1
613.344	14279.46
613.539	14596.9
613.735	14488.35
613.93	14422.82
614.126	14250.79
614.321	14476.07
614.517	14365.48
614.712	14113.58
614.907	14226.21
615.103	14353.19
615.298	14164.78
615.493	14138.15
615.688	13857.58
615.884	14371.62
616.079	13876.01
616.274	13959.98
616.47	13812.53
616.665	14093.1
616.86	14072.62
617.055	13753.13
617.25	13716.27
617.445	13581.1
617.641	13454.13
617.836	13734.7
618.031	13450.03
618.226	13570.86
618.421	13671.22
618.616	13538.1
618.811	13267.77
619.006	13466.42
619.201	13036.35
619.396	13298.49
619.591	12886.84
619.786	13065.02
619.981	12942.14
620.176	13075.26
620.371	12892.99
620.566	12979
620.761	12811.07
620.956	12997.43
621.151	12821.31
621.346	12626.75
621.541	12415.81
621.735	12475.2
621.93	12344.13
622.125	12503.87
622.32	12249.93
622.515	12135.24
622.709	11967.31
622.904	12313.41
623.099	12147.53
623.294	12182.34
623.488	11729.74
623.683	11739.98
623.878	11557.71
624.072	11701.07
624.267	11848.52
624.462	11623.25
624.656	11688.78
624.851	11483.98
625.046	11377.49
625.24	11365.2
625.435	11248.47
625.629	11250.52
625.824	11101.01
626.018	11109.21
626.213	10808.16
626.407	11164.5
626.602	10824.54
626.796	11066.2
626.991	10773.34
627.185	10765.15
627.38	10642.27
627.574	10533.73
627.768	10529.63
627.963	10535.78
628.157	10400.61
628.352	10419.04
628.546	10392.42
628.74	10464.1
628.935	10333.03
629.129	10103.65
629.323	10060.65
629.517	10300.26
629.712	10089.32
629.906	9921.38
630.1	9814.89
630.294	9964.39
630.489	9724.78
630.683	9810.79
630.877	9784.17
631.071	9536.37
631.265	9763.69
631.459	9567.09
631.653	9577.33
631.848	9476.98
632.042	9300.85
632.236	9390.96
632.43	9493.36
632.624	9382.77
632.818	9241.46
633.012	9212.79
633.206	9020.28
633.4	9323.38
633.594	8995.7
633.788	9063.29
633.982	8901.5
634.176	8893.3
634.369	8956.79
634.563	8770.43
634.757	8708.99
634.951	9001.85
635.145	8614.78
635.339	8672.12
635.533	8479.61
635.726	8592.25
635.92	8489.85
636.114	8524.67
636.308	8354.69
636.501	8440.7
636.695	8360.83
636.889	8356.74
637.083	8160.13
637.276	8153.99
637.47	8231.81
637.664	8196.99
637.857	8022.92
638.051	8174.47
638.244	7824.26
638.438	7975.81
638.632	7861.13
638.825	7816.07
639.019	7738.25
639.212	7775.11
639.406	7652.24
639.599	7545.74
639.793	7615.37
639.986	7447.44
640.18	7547.79
640.373	7447.44
640.567	7418.77
640.76	7336.85
640.954	7328.66
641.147	7320.46
641.34	7152.53
641.534	6992.79
641.727	7224.21
641.92	7041.94
642.114	7177.11
642.307	7087
642.5	7113.62
642.694	6749.08
642.887	6769.56
643.08	6867.86
643.273	6759.32
643.467	6691.74
643.66	6613.92
643.853	6708.12
644.046	6757.27
644.239	6597.53
644.432	6511.52
644.626	6368.16
644.819	6470.56
645.012	6382.49
645.205	6386.59
645.398	6298.53
645.591	6253.47
645.784	6355.87
645.977	6228.9
646.17	6206.37
646.363	6144.93
646.556	5958.57
646.749	6112.16
646.942	6237.09
647.135	6024.1
647.328	5815.21
647.521	5995.43
647.714	5839.78
647.907	5907.37
648.099	5854.12
648.292	5739.43
648.485	5665.71
648.678	5618.6
648.871	5761.96
649.064	5602.22
649.256	5610.41
649.449	5591.98
649.642	5616.55
649.835	5534.64
650.027	5567.4
650.22	5567.4
650.413	5489.58
650.605	5403.57
650.798	5272.5
650.991	5360.56
651.183	5139.38
651.376	5192.62
651.568	5155.76
651.761	5059.51
651.954	5065.65
652.146	5096.37
652.339	5161.91
652.531	5217.2
652.724	5149.62
652.916	4924.34
653.109	4920.24
653.301	4817.85
653.494	4971.44
653.686	5018.55
653.879	4848.57
654.071	4840.37
654.263	4758.46
654.456	4821.94
654.648	4854.71
654.84	4719.54
655.033	4670.39
655.225	4549.56
655.417	4574.14
655.61	4668.34
655.802	4602.81
655.994	4662.2
656.186	4721.59
656.379	4531.13
656.571	4457.4
656.763	4514.75
656.955	4459.45
657.148	4438.97
657.34	4324.29
657.532	4187.07
657.724	4342.72
657.916	4158.4
658.108	4293.57
658.3	4096.96
658.492	4357.05
658.684	4047.81
658.876	3969.99
659.068	4168.64
659.26	3906.5
659.452	4074.43
659.644	4150.21
659.836	3984.32
660.028	4062.15
660.22	4127.68
660.412	4006.85
660.604	3941.32
660.796	3812.29
660.988	3840.97
661.18	3861.45
661.372	3812.29
661.563	3804.1
661.755	3705.8
661.947	3775.43
662.139	3732.42
662.331	3806.15
662.522	3625.93
662.714	3544.01
662.906	3544.01
663.097	3613.64
663.289	3664.84
663.481	3574.73
663.673	3494.86
663.864	3535.82
664.056	3419.08
664.247	3501
664.439	3310.54
664.631	3458
664.822	3226.57
665.014	3511.24
665.205	3464.14
665.397	3386.32
665.588	3404.75
665.78	3449.8
665.971	3419.08
666.163	3298.25
666.354	3363.79
666.546	3208.14
666.737	3222.48
666.929	3238.86
667.12	3206.1
667.311	3359.69
667.503	3187.66
667.694	3122.13
667.885	3152.85
668.077	3314.64
668.268	3210.19
668.459	3068.88
668.651	3011.54
668.842	3130.32
669.033	2997.2
669.224	2974.67
669.416	2927.57
669.607	2950.1
669.798	2898.9
669.989	2859.99
670.18	2993.11
670.371	2978.77
670.563	2884.56
670.754	2909.14
670.945	2825.17
671.136	3019.73
671.327	2841.56
671.518	2872.28
671.709	2857.94
671.9	2849.75
672.091	2882.52
672.282	2876.37
672.473	2784.21
672.664	2773.97
672.855	2845.65
673.046	2745.3
673.237	2812.89
673.428	2876.37
673.619	2773.97
673.809	2700.25
674	2667.48
674.191	2767.83
674.382	2712.53
674.573	2653.14
674.764	2675.67
674.954	2755.54
675.145	2583.51
675.336	2700.25
675.527	2692.05
675.717	2788.31
675.908	2704.34
676.099	2511.83
676.289	2560.98
676.48	2544.6
676.671	2585.56
676.861	2642.9
677.052	2718.68
677.243	2624.47
677.433	2632.66
677.624	2540.51
677.814	2556.89
678.005	2558.94
678.195	2532.31
678.386	2571.22
678.576	2452.44
678.767	2528.22
678.957	2489.31
679.148	2583.51
679.338	2511.83
679.529	2497.5
679.719	2440.15
679.909	2544.6
680.1	2388.96
680.29	2417.63
680.481	2411.48
680.671	2374.62
680.861	2388.96
681.052	2499.55
681.242	2452.44
681.432	2560.98
681.622	2374.62
681.813	2472.92
682.003	2444.25
682.193	2446.3
682.383	2479.07
682.573	2407.39
682.764	2411.48
682.954	2362.33
683.144	2345.95
683.334	2495.45
683.524	2395.1
683.714	2419.68
683.904	2395.1
684.094	2368.48
684.284	2331.61
684.474	2421.72
684.664	2380.76
684.854	2339.8
685.044	2313.18
685.234	2393.05
685.424	2288.61
685.614	2350.04
685.804	2341.85
685.994	2413.53
686.184	2245.6
686.374	2348
686.564	2280.41
686.753	2364.38
686.943	2259.93
687.133	2284.51
687.323	2329.56
687.513	2278.37
687.702	2372.57
687.892	2294.75
688.082	2280.41
688.272	2274.27
688.461	2280.41
688.651	2333.66
688.841	2261.98
689.03	2309.08
689.22	2259.93
689.41	2253.79
689.599	2182.11
689.789	2249.69
689.979	2300.89
690.168	2239.45
690.358	2290.65
690.547	2253.79
690.737	2249.69
690.926	2178.01
691.116	2233.31
691.305	2186.21
691.495	2188.25
691.684	2317.28
691.874	2296.8
692.063	2255.84
692.252	2298.84
692.442	2227.17
692.631	2259.93
692.82	2290.65
693.01	2247.65
693.199	2206.69
693.388	2200.54
693.578	2225.12
693.767	2313.18
693.956	2268.13
694.146	2225.12
694.335	2255.84
694.524	2352.09
694.713	2255.84
694.902	2218.97
695.092	2200.54
695.281	2229.21
695.47	2216.93
695.659	2343.9
695.848	2253.79
696.037	2210.78
696.226	2286.56
696.415	2302.94
696.604	2237.41
696.793	2315.23
696.982	2194.4
697.171	2313.18
697.36	2259.93
697.549	2266.08
697.738	2210.78
697.927	2282.46
698.116	2264.03
698.305	2300.89
698.494	2352.09
698.683	2268.13
698.872	2182.11
699.061	2266.08
699.25	2315.23
699.438	2135.01
699.627	2274.27
699.816	2339.8
700.005	2239.45
700.193	2270.17
700.382	2298.84
700.571	2247.65
700.76	2325.47
700.948	2304.99
701.137	2272.22
701.326	2231.26
701.514	2169.82
701.703	2313.18
701.892	2266.08
702.08	2231.26
702.269	2302.94
702.457	2368.48
702.646	2108.38
702.834	2036.7
703.023	2149.34
703.212	2292.7
703.4	2171.87
703.589	2159.58
703.777	2235.36
703.965	2175.97
704.154	2120.67
704.342	2161.63
704.531	2221.02
704.719	2114.53
704.907	2259.93
705.096	2024.42
705.284	2221.02
705.472	2163.68
705.661	2198.49
705.849	2081.76
706.037	2304.99
706.226	2190.3
706.414	2110.43
706.602	2130.91
706.79	2253.79
706.979	2081.76
707.167	2038.75
707.355	2116.58
707.543	2175.97
707.731	2053.09
707.919	2106.34
708.107	2024.42
708.296	2079.71
708.484	2071.52
708.672	2044.9
708.86	2051.04
709.048	2096.1
709.236	2048.99
709.424	2147.3
709.612	2028.51
709.8	1932.26
709.988	1975.27
710.176	1989.6
710.364	2096.1
710.551	2001.89
710.739	2020.32
710.927	1952.74
711.115	2081.76
711.303	1999.84
711.491	1887.2
711.679	1928.16
711.866	1891.3
712.054	2030.56
712.242	2030.56
712.43	1956.83
712.617	1776.61
712.805	1854.44
712.993	1893.35
713.181	1919.97
713.368	1915.87
713.556	1932.26
713.744	1801.19
713.931	1907.68
714.119	1813.48
714.306	1866.72
714.494	1872.87
714.682	1870.82
714.869	1866.72
715.057	1801.19
715.244	1872.87
715.432	1858.53
715.619	1848.29
715.807	1745.89
715.994	1784.8
716.182	1737.7
716.369	1678.31
716.556	1862.63
716.744	1739.75
716.931	1743.85
717.119	1774.56
717.306	1713.13
717.493	1836
717.681	1817.57
717.868	1784.8
718.055	1817.57
718.242	1749.99
718.43	1676.26
718.617	1620.97
718.804	1666.02
718.991	1729.51
719.179	1614.82
719.366	1629.16
719.553	1598.44
719.74	1709.03
719.927	1590.25
720.114	1590.25
720.301	1649.64
720.488	1623.02
720.676	1602.54
720.863	1692.65
721.05	1741.8
721.237	1655.78
721.424	1680.36
721.611	1594.34
721.798	1645.54
721.985	1612.78
722.172	1631.21
722.358	1641.45
722.545	1586.15
722.732	1639.4
722.919	1598.44
723.106	1537
723.293	1528.81
723.48	1623.02
723.667	1606.63
723.853	1549.29
724.04	1545.19
724.227	1528.81
724.414	1590.25
724.6	1549.29
724.787	1541.1
724.974	1459.18
725.161	1545.19
725.347	1434.6
725.534	1469.42
725.72	1508.33
725.907	1502.19
726.094	1487.85
726.28	1418.22
726.467	1436.65
726.653	1457.13
726.84	1524.71
727.027	1465.32
727.213	1491.95
727.4	1444.84
727.586	1477.61
727.773	1453.03
727.959	1430.51
728.145	1422.31
728.332	1469.42
728.518	1518.57
728.705	1469.42
728.891	1432.55
729.077	1397.74
729.264	1424.36
729.45	1418.22
729.636	1434.6
729.823	1330.16
730.009	1309.68
730.195	1483.75
730.382	1405.93
730.568	1407.98
730.754	1395.69
730.94	1358.83
731.126	1422.31
731.313	1276.91
731.499	1414.12
731.685	1424.36
731.871	1457.13
732.057	1385.45
732.243	1211.37
732.429	1377.26
732.615	1344.49
732.801	1354.73
732.987	1287.15
733.173	1340.4
733.359	1313.77
733.545	1346.54
733.731	1332.2
733.917	1371.12
734.103	1295.34
734.289	1264.62
734.475	1385.45
734.661	1274.86
734.847	1317.87
735.033	1348.59
735.219	1330.16
735.404	1278.96
735.59	1238
735.776	1227.76
735.962	1313.77
736.148	1299.44
736.333	1326.06
736.519	1209.33
736.705	1326.06
736.89	1229.81
737.076	1278.96
737.262	1238
737.447	1321.96
737.633	1352.68
737.819	1158.13
738.004	1225.71
738.19	1225.71
738.375	1119.21
738.561	1262.57
738.747	1229.81
738.932	1166.32
739.118	1223.66
739.303	1127.41
739.489	1215.47
739.674	1143.79
739.859	1176.56
740.045	1182.7
740.23	1221.61
740.416	1143.79
740.601	1211.37
740.786	1156.08
740.972	1178.61
741.157	1135.6
741.342	1080.3
741.528	1137.65
741.713	1108.98
741.898	1061.87
742.084	1088.5
742.269	1117.17
742.454	1164.27
742.639	1172.46
742.824	1061.87
743.01	1172.46
743.195	1174.51
743.38	1156.08
743.565	1084.4
743.75	1025.01
743.935	1147.89
744.12	1090.54
744.305	1025.01
744.49	930.8
744.675	1057.78
744.86	1096.69
745.045	1102.83
745.23	1094.64
745.415	1127.41
745.6	1053.68
745.785	1012.72
745.97	1049.58
746.155	969.71
746.34	1006.58
746.525	992.24
746.71	1010.67
746.895	1018.86
747.079	1018.86
747.264	941.04
747.449	994.29
747.634	982
747.819	992.24
748.003	986.1
748.188	922.61
748.373	910.32
748.557	1010.67
748.742	969.71
748.927	895.99
749.111	996.34
749.296	906.23
749.481	947.19
749.665	762.87
749.85	855.03
750.034	908.27
750.219	891.89
750.404	799.73
750.588	807.92
750.773	838.64
750.957	984.05
751.141	842.74
751.326	812.02
751.51	932.85
751.695	809.97
751.879	824.31
752.064	848.88
752.248	779.25
752.432	795.64
752.617	855.03
752.801	824.31
752.985	762.87
753.17	871.41
753.354	730.1
753.538	740.34
753.722	744.44
753.907	656.37
754.091	680.95
754.275	754.68
754.459	730.1
754.643	826.36
754.828	719.86
755.012	713.72
755.196	752.63
755.38	773.11
755.564	723.96
755.748	736.24
755.932	789.49
756.116	717.81
756.3	740.34
756.484	742.39
756.668	732.15
756.852	726
757.036	601.08
757.22	592.89
757.404	642.04
757.588	668.66
757.772	699.38
757.956	615.41
758.14	717.81
758.323	613.37
758.507	719.86
758.691	654.33
758.875	740.34
759.059	758.77
759.242	572.41
759.426	680.95
759.61	672.76
759.794	615.41
759.977	611.32
760.161	658.42
760.345	621.56
760.528	668.66
760.712	599.03
760.895	560.12
761.079	590.84
761.263	627.7
761.446	539.64
761.63	451.58
761.813	574.46
761.997	594.93
762.18	543.74
762.364	621.56
762.547	586.74
762.731	687.09
762.914	568.31
763.098	637.94
763.281	510.97
763.464	642.04
763.648	582.65
763.831	599.03
764.015	490.49
764.198	570.36
764.381	572.41
764.564	525.3
764.748	515.06
764.931	562.17
765.114	470.01
765.297	570.36
765.481	513.02
765.664	531.45
765.847	502.78
766.03	535.54
766.213	523.26
766.397	615.41
766.58	592.89
766.763	537.59
766.946	582.65
767.129	470.01
767.312	570.36
767.495	525.3
767.678	480.25
767.861	496.63
768.044	478.2
768.227	488.44
768.41	449.53
768.593	453.63
768.776	500.73
768.959	525.3
769.142	414.71
769.324	586.74
769.507	453.63
769.69	476.15
769.873	531.45
770.056	533.5
770.239	472.06
770.421	429.05
770.604	476.15
770.787	533.5
770.97	517.11
771.152	472.06
771.335	519.16
771.518	386.04
771.7	467.96
771.883	455.67
772.066	439.29
772.248	461.82
772.431	427
772.613	373.75
772.796	521.21
772.978	427
773.161	441.34
773.343	480.25
773.526	412.67
773.708	457.72
773.891	414.71
774.073	447.48
774.256	480.25
774.438	435.19
774.621	429.05
774.803	478.2
774.985	463.86
775.168	508.92
775.35	381.95
775.532	424.95
775.715	435.19
775.897	463.86
776.079	343.03
776.261	476.15
776.444	361.47
776.626	396.28
776.808	406.52
776.99	383.99
777.173	367.61
777.355	281.6
777.537	408.57
777.719	510.97
777.901	365.56
778.083	371.71
778.265	367.61
778.447	365.56
778.629	293.88
778.811	390.14
778.993	340.99
779.175	383.99
779.357	300.03
779.539	328.7
779.721	340.99
779.903	332.79
780.085	336.89
780.267	412.67
780.449	345.08
780.631	371.71
780.812	326.65
780.994	314.36
781.176	351.23
781.358	332.79
781.54	340.99
781.721	355.32
781.903	328.7
782.085	271.36
782.267	306.17
782.448	330.75
782.63	326.65
782.812	291.84
782.993	334.84
783.175	314.36
783.357	351.23
783.538	281.6
783.72	277.5
783.901	285.69
784.083	265.21
784.264	324.6
784.446	304.12
784.627	250.88
784.809	312.32
784.99	345.08
785.172	312.32
785.353	248.83
785.535	195.58
785.716	283.64
785.897	318.46
786.079	263.16
786.26	304.12
786.441	287.74
786.623	269.31
786.804	240.64
786.985	218.11
787.167	250.88
787.348	279.55
787.529	273.4
787.71	218.11
787.891	238.59
788.073	199.68
788.254	230.4
788.435	279.55
788.616	205.82
788.797	295.93
788.978	209.92
789.159	273.4
789.34	238.59
789.522	179.2
789.703	177.15
789.884	222.2
790.065	185.34
790.246	218.11
790.427	234.49
790.607	306.17
790.788	291.84
790.969	275.45
791.15	179.2
791.331	158.72
791.512	181.25
791.693	125.95
791.874	205.82
792.054	234.49
792.235	244.73
792.416	203.77
792.597	179.2
792.778	89.09
792.958	199.68
793.139	222.2
793.32	187.39
793.5	181.25
793.681	154.62
793.862	156.67
794.042	211.96
794.223	195.58
794.404	220.16
794.584	185.34
794.765	199.68
794.945	158.72
795.126	207.87
795.306	103.42
795.487	144.38
795.667	199.68
795.848	164.86
796.028	101.37
796.209	214.01
796.389	205.82
796.57	177.15
796.75	132.09
796.93	209.92
797.111	150.53
797.291	232.44
797.471	214.01
797.652	123.9
797.832	158.72
798.012	123.9
798.192	109.57
798.373	103.42
798.553	226.3
798.733	154.62
798.913	183.29
799.093	189.44
799.274	142.33
799.454	142.33
799.634	111.61
799.814	185.34
799.994	125.95
800.174	187.39
800.354	160.77
800.534	128
800.714	134.14
800.894	99.33
801.074	138.24
801.254	173.05
801.434	242.68
801.614	164.86
801.794	154.62
801.974	242.68
802.154	195.58
802.334	154.62
802.514	93.18
802.693	179.2
802.873	150.53
803.053	148.48
803.233	78.85
803.413	191.49
803.592	191.49
803.772	144.38
803.952	109.57
804.131	144.38
804.311	66.56
804.491	162.81
804.67	99.33
804.85	54.27
805.03	80.89
805.209	185.34
805.389	175.1
805.568	222.2
805.748	191.49
805.928	64.51
806.107	130.05
806.287	64.51
806.466	101.37
806.646	140.29
806.825	162.81
807.004	173.05
807.184	52.22
807.363	134.14
807.543	58.37
807.722	164.86
807.901	136.19
808.081	113.66
808.26	23.55
808.439	84.99
808.619	119.81
808.798	154.62
808.977	140.29
809.156	35.84
809.336	115.71
809.515	179.2
809.694	107.52
809.873	89.09
810.052	125.95
810.231	158.72
810.411	93.18
810.59	125.95
810.769	95.23
810.948	93.18
811.127	41.98
811.306	117.76
811.485	175.1
811.664	109.57
811.843	52.22
812.022	125.95
812.201	168.96
812.38	91.13
812.559	113.66
812.737	60.42
812.916	107.52
813.095	68.61
813.274	58.37
813.453	130.05
813.632	64.51
813.811	89.09
813.989	62.46
814.168	62.46
814.347	107.52
814.526	48.13
814.704	125.95
814.883	115.71
815.062	99.33
815.24	39.94
815.419	68.61
815.598	121.85
815.776	128
815.955	99.33
816.133	119.81
816.312	91.13
816.49	48.13
816.669	95.23
816.847	76.8
817.026	56.32
817.204	197.63
817.383	117.76
817.561	99.33
817.74	70.65
817.918	119.81
818.097	76.8
818.275	11.26
818.453	87.04
818.632	168.96
818.81	48.13
818.988	62.46
819.167	-7.17
819.345	41.98
819.523	121.85
819.701	107.52
819.879	103.42
820.058	72.7
820.236	111.61
820.414	35.84
820.592	37.89
820.77	9.22
820.948	72.7
821.127	132.09
821.305	66.56
821.483	91.13
821.661	82.94
821.839	103.42
822.017	25.6
822.195	80.89
822.373	87.04
822.551	56.32
822.729	66.56
822.907	64.51
823.085	70.65
823.262	128
823.44	58.37
823.618	68.61
823.796	62.46
823.974	29.7
824.152	70.65
824.329	-25.6
824.507	64.51
824.685	76.8
824.863	160.77
825.04	37.89
825.218	91.13
825.396	89.09
825.574	99.33
825.751	109.57
825.929	95.23
826.107	1.02
826.284	80.89
826.462	66.56
826.639	62.46
826.817	76.8
826.994	101.37
827.172	21.5
827.349	44.03
827.527	87.04
827.704	115.71
827.882	80.89
828.059	31.74
828.237	35.84
828.414	117.76
828.591	87.04
828.769	21.5
828.946	35.84
829.124	125.95
829.301	101.37
829.478	80.89
829.655	29.7
829.833	87.04
830.01	35.84
830.187	87.04
830.364	48.13
830.542	-1.02
830.719	111.61
830.896	62.46
831.073	11.26
831.25	-7.17
831.427	-27.65
831.604	-33.79
831.782	74.75
831.959	103.42
832.136	132.09
832.313	25.6
832.49	-15.36
832.667	35.84
832.844	31.74
833.021	111.61
833.198	68.61
833.374	70.65
833.551	-29.7
833.728	35.84
833.905	50.18
834.082	70.65
834.259	76.8
834.436	27.65
834.612	76.8
834.789	87.04
834.966	52.22
835.143	-25.6
835.319	64.51
835.496	52.22
835.673	-3.07
835.85	119.81
836.026	-19.46
836.203	97.28
836.38	37.89
836.556	113.66
836.733	9.22
836.909	1.02
837.086	35.84
837.262	33.79
837.439	52.22
837.616	9.22
837.792	72.7
837.968	41.98
838.145	111.61
838.321	66.56
838.498	27.65
838.674	37.89
838.851	17.41
839.027	35.84
839.203	7.17
839.38	19.46
839.556	70.65
839.732	97.28
839.909	-1.02
840.085	3.07
840.261	68.61
840.437	84.99
840.614	33.79
840.79	-33.79
840.966	44.03
841.142	41.98
841.318	17.41
841.494	60.42
841.671	95.23
841.847	17.41
842.023	9.22
842.199	109.57
842.375	148.48
842.551	58.37
842.727	11.26
842.903	58.37
843.079	-3.07
843.255	84.99
843.431	56.32
843.607	72.7
843.783	-1.02
843.959	1.02
844.134	68.61
844.31	35.84
844.486	27.65
844.662	78.85
844.838	-35.84
845.013	31.74
845.189	7.17
845.365	39.94
845.541	-3.07
845.716	50.18
845.892	11.26
846.068	74.75
846.244	82.94
846.419	41.98
846.595	25.6
846.77	-54.27
846.946	91.13
847.122	19.46
847.297	76.8
847.473	72.7
847.648	23.55
847.824	46.08
847.999	-15.36
848.175	64.51
848.35	3.07
848.526	50.18
848.701	-44.03
848.876	56.32
849.052	72.7
849.227	103.42
849.403	-9.22
849.578	25.6
849.753	39.94
849.929	99.33
850.104	-13.31
850.279	48.13
850.454	78.85
850.63	7.17
850.805	60.42
850.98	9.22
851.155	-3.07
851.33	52.22
851.505	50.18
851.681	111.61
851.856	33.79
852.031	-9.22
852.206	-7.17
852.381	17.41
852.556	93.18
852.731	1.02
852.906	37.89
853.081	27.65
853.256	25.6
853.431	-41.98
853.606	31.74
853.781	72.7
853.956	23.55
854.131	103.42
854.305	74.75
854.48	89.09
854.655	66.56
854.83	7.17
855.005	27.65
855.18	72.7
855.354	35.84
855.529	93.18
855.704	76.8
855.879	50.18
856.053	-3.07
856.228	31.74
856.403	15.36
856.577	84.99
856.752	-64.51
856.926	58.37
857.101	41.98
857.276	-9.22
857.45	17.41
857.625	66.56
857.799	46.08
857.974	29.7
858.148	-60.42
858.323	37.89
858.497	13.31
858.672	13.31
858.846	64.51
859.02	41.98
859.195	-27.65
859.369	76.8
859.543	-9.22
859.718	64.51
859.892	-13.31
860.066	66.56
860.241	-1.02
860.415	44.03
860.589	11.26
860.763	39.94
860.938	-33.79
861.112	35.84
861.286	37.89
861.46	9.22
861.634	-25.6
861.808	33.79
861.982	-44.03
862.157	-1.02
862.331	7.17
862.505	9.22
862.679	41.98
862.853	3.07
863.027	9.22
863.201	50.18
863.375	41.98
863.549	-11.26
863.722	56.32
863.896	25.6
864.07	58.37
864.244	54.27
864.418	27.65
864.592	27.65
864.766	37.89
864.939	9.22
865.113	41.98
865.287	5.12
865.461	9.22
865.634	27.65
865.808	70.65
865.982	44.03
866.156	-50.18
866.329	44.03
866.503	-46.08
866.676	60.42
866.85	21.5
867.024	46.08
867.197	-15.36
867.371	46.08
867.544	25.6
867.718	64.51
867.891	33.79
868.065	21.5
868.238	15.36
868.412	39.94
868.585	-58.37
868.759	-3.07
868.932	46.08
869.105	-11.26
869.279	15.36
869.452	5.12
869.625	3.07
869.799	-44.03
869.972	9.22
870.145	-21.5
870.319	68.61
870.492	21.5
870.665	-50.18
870.838	-17.41
871.011	-11.26
871.185	29.7
871.358	52.22
871.531	-11.26
871.704	3.07
871.877	74.75
872.05	46.08
872.223	29.7
872.396	27.65
872.569	9.22
872.742	31.74
872.915	41.98
873.088	-31.74
873.261	-15.36
873.434	27.65
873.607	-44.03
873.78	-11.26
873.953	17.41
874.126	50.18
874.299	76.8
874.471	5.12
874.644	9.22
874.817	54.27
874.99	56.32
875.163	62.46
875.335	19.46
875.508	-5.12
875.681	11.26
875.853	17.41
876.026	-21.5
876.199	5.12
876.371	-27.65
876.544	-5.12
876.717	27.65
876.889	-44.03
877.062	72.7
877.234	-11.26
877.407	84.99
877.579	15.36
877.752	-15.36
877.924	58.37
878.097	23.55
878.269	25.6
878.442	15.36
878.614	56.32
878.786	-41.98
878.959	-17.41
879.131	21.5
879.303	27.65
879.476	23.55
879.648	-13.31
879.82	29.7
879.993	-5.12
880.165	19.46
880.337	-35.84
880.509	41.98
880.681	13.31
880.854	15.36
881.026	33.79
881.198	11.26
881.37	11.26
881.542	3.07
881.714	13.31
881.886	23.55
882.058	41.98
882.23	-13.31
882.402	-7.17
882.574	68.61
882.746	-27.65
882.918	33.79
883.09	-9.22
883.262	7.17
883.434	-41.98
883.606	31.74
883.778	-13.31
883.95	48.13
884.122	-27.65
884.293	27.65
884.465	-11.26
884.637	-56.32
884.809	-25.6
884.98	19.46
885.152	-7.17
885.324	3.07
885.496	5.12
885.667	60.42
885.839	56.32
886.011	31.74
886.182	23.55
886.354	19.46
886.525	33.79
886.697	-1.02
886.869	3.07
887.04	39.94
887.212	46.08
887.383	48.13
887.555	91.13
887.726	31.74
887.897	-19.46
888.069	3.07
888.24	48.13
888.412	19.46
888.583	29.7
888.754	66.56
888.926	50.18
889.097	35.84
889.268	58.37
889.44	115.71
889.611	-7.17
889.782	-3.07
889.953	60.42
890.125	-1.02
890.296	-9.22
890.467	78.85
890.638	-29.7
890.809	41.98
890.98	-11.26
891.151	-29.7
891.323	44.03
891.494	-21.5
891.665	21.5
891.836	56.32
892.007	9.22
892.178	3.07
892.349	-17.41
892.52	19.46
892.691	44.03
892.862	3.07
893.032	21.5
893.203	35.84
893.374	-37.89
893.545	54.27
893.716	66.56
893.887	39.94
894.057	-27.65
894.228	-5.12
894.399	-29.7
894.57	31.74
894.74	-31.74
894.911	52.22
895.082	-11.26
895.253	9.22
895.423	21.5
895.594	-25.6
895.764	-9.22
895.935	-27.65
896.106	-41.98
896.276	-7.17
896.447	7.17
896.617	1.02
896.788	39.94
896.958	70.65
897.129	-19.46
897.299	-13.31
897.47	72.7
897.64	41.98
897.81	-56.32
897.981	5.12
898.151	13.31
898.322	-9.22
898.492	-9.22
898.662	-19.46
898.832	15.36
899.003	-35.84
899.173	64.51
899.343	-37.89
899.513	3.07
