Data from USB4F104151__26__13-52-42-822.txt Node

Date: Thu Mar 13 13:52:42 EDT 2025
User: louis
Spectrometer: USB4F10415
Trigger mode: 4
Integration Time (sec): 1.000000E-2
Scans to average: 1
Electric dark correction enabled: true
Nonlinearity correction enabled: false
Boxcar width: 0
XAxis mode: Wavelengths
Number of Pixels in Spectrum: 3648
>>>>>Begin Spectral Data<<<<<
178.204	36.69
178.424	36.69
178.644	36.69
178.864	-2.22
179.084	-20.65
179.304	3.93
179.524	1.88
179.744	8.02
179.964	-71.85
180.184	-10.41
180.404	-4.27
180.624	-6.31
180.844	30.55
181.064	22.36
181.283	26.45
181.503	1.88
181.723	-2.22
181.943	-4.27
182.163	-26.79
182.383	-2.22
182.602	1.88
182.822	-10.41
183.042	-2.22
183.262	75.6
183.482	-0.17
183.701	28.5
183.921	42.84
184.141	1.88
184.361	-32.94
184.58	-10.41
184.8	48.98
185.02	28.5
185.239	-28.84
185.459	-2.22
185.679	24.4
185.898	18.26
186.118	1.88
186.338	40.79
186.557	61.27
186.777	-0.17
186.997	96.08
187.216	24.4
187.436	40.79
187.655	94.04
187.875	63.32
188.095	34.64
188.314	18.26
188.534	46.93
188.753	40.79
188.973	-0.17
189.192	40.79
189.412	-2.22
189.631	-8.36
189.851	-30.89
190.07	-20.65
190.29	22.36
190.509	30.55
190.729	-20.65
190.948	-2.22
191.168	32.6
191.387	-20.65
191.607	-16.55
191.826	12.12
192.045	34.64
192.265	-32.94
192.484	46.93
192.704	24.4
192.923	46.93
193.142	-2.22
193.362	10.07
193.581	94.04
193.8	28.5
194.02	12.12
194.239	-26.79
194.458	81.75
194.678	16.21
194.897	22.36
195.116	26.45
195.335	-22.7
195.555	44.88
195.774	55.12
195.993	55.12
196.212	-43.18
196.432	-49.32
196.651	5.97
196.87	28.5
197.089	57.17
197.308	-8.36
197.528	91.99
197.747	1.88
197.966	-49.32
198.185	44.88
198.404	38.74
198.623	-28.84
198.842	55.12
199.062	5.97
199.281	40.79
199.5	14.17
199.719	28.5
199.938	61.27
200.157	30.55
200.376	30.55
200.595	71.51
200.814	-45.23
201.033	-45.23
201.252	51.03
201.471	14.17
201.69	32.6
201.909	42.84
202.128	-0.17
202.347	38.74
202.566	-18.6
202.785	-32.94
203.004	-16.55
203.223	-14.51
203.442	14.17
203.661	26.45
203.879	104.28
204.098	1.88
204.317	12.12
204.536	-2.22
204.755	40.79
204.974	-39.08
205.193	24.4
205.411	57.17
205.63	96.08
205.849	-80.04
206.068	75.6
206.287	24.4
206.505	87.89
206.724	59.22
206.943	77.65
207.162	-34.99
207.381	40.79
207.599	75.6
207.818	20.31
208.037	8.02
208.255	42.84
208.474	18.26
208.693	26.45
208.911	-8.36
209.13	-4.27
209.349	-18.6
209.567	-6.31
209.786	69.46
210.005	28.5
210.223	51.03
210.442	24.4
210.661	28.5
210.879	-12.46
211.098	-39.08
211.316	46.93
211.535	26.45
211.753	3.93
211.972	57.17
212.191	30.55
212.409	51.03
212.628	26.45
212.846	40.79
213.065	59.22
213.283	34.64
213.502	-22.7
213.72	85.84
213.938	-16.55
214.157	130.9
214.375	83.8
214.594	-26.79
214.812	75.6
215.031	40.79
215.249	20.31
215.467	16.21
215.686	-84.14
215.904	-4.27
216.122	18.26
216.341	18.26
216.559	67.41
216.778	42.84
216.996	44.88
217.214	61.27
217.432	32.6
217.651	46.93
217.869	-2.22
218.087	51.03
218.306	-26.79
218.524	18.26
218.742	-12.46
218.96	-4.27
219.179	10.07
219.397	36.69
219.615	26.45
219.833	32.6
220.051	-51.37
220.27	30.55
220.488	22.36
220.706	67.41
220.924	30.55
221.142	10.07
221.36	-49.32
221.578	73.56
221.796	40.79
222.015	104.28
222.233	5.97
222.451	46.93
222.669	-8.36
222.887	16.21
223.105	24.4
223.323	40.79
223.541	38.74
223.759	-6.31
223.977	-12.46
224.195	55.12
224.413	-18.6
224.631	20.31
224.849	26.45
225.067	5.97
225.285	34.64
225.503	36.69
225.721	-2.22
225.939	18.26
226.157	-16.55
226.375	-55.47
226.592	-8.36
226.81	32.6
227.028	-39.08
227.246	40.79
227.464	24.4
227.682	98.13
227.9	1.88
228.117	69.46
228.335	-22.7
228.553	-0.17
228.771	36.69
228.989	-47.27
229.206	53.08
229.424	28.5
229.642	63.32
229.86	42.84
230.077	-0.17
230.295	61.27
230.513	42.84
230.731	69.46
230.948	48.98
231.166	-4.27
231.384	57.17
231.601	18.26
231.819	71.51
232.037	61.27
232.254	-8.36
232.472	5.97
232.689	-67.75
232.907	40.79
233.125	67.41
233.342	-32.94
233.56	3.93
233.777	100.18
233.995	30.55
234.213	63.32
234.43	36.69
234.648	40.79
234.865	-16.55
235.083	-34.99
235.3	18.26
235.518	22.36
235.735	69.46
235.953	61.27
236.17	-92.33
236.388	10.07
236.605	63.32
236.822	38.74
237.04	67.41
237.257	67.41
237.475	22.36
237.692	22.36
237.909	53.08
238.127	20.31
238.344	-45.23
238.562	40.79
238.779	67.41
238.996	53.08
239.214	-28.84
239.431	22.36
239.648	73.56
239.865	42.84
240.083	94.04
240.3	24.4
240.517	38.74
240.735	22.36
240.952	-30.89
241.169	-2.22
241.386	1.88
241.603	22.36
241.821	-4.27
242.038	100.18
242.255	34.64
242.472	-24.75
242.689	67.41
242.907	5.97
243.124	-0.17
243.341	51.03
243.558	26.45
243.775	-16.55
243.992	24.4
244.209	53.08
244.426	3.93
244.643	71.51
244.86	-24.75
245.078	51.03
245.295	38.74
245.512	30.55
245.729	59.22
245.946	71.51
246.163	-6.31
246.38	48.98
246.597	48.98
246.814	51.03
247.031	12.12
247.248	81.75
247.464	44.88
247.681	22.36
247.898	87.89
248.115	1.88
248.332	67.41
248.549	77.65
248.766	38.74
248.983	16.21
249.2	20.31
249.417	102.23
249.633	16.21
249.85	26.45
250.067	-4.27
250.284	26.45
250.501	55.12
250.717	102.23
250.934	83.8
251.151	8.02
251.368	30.55
251.585	75.6
251.801	110.42
252.018	96.08
252.235	22.36
252.451	18.26
252.668	26.45
252.885	73.56
253.102	-53.42
253.318	36.69
253.535	5.97
253.752	79.7
253.968	26.45
254.185	63.32
254.401	26.45
254.618	-57.51
254.835	67.41
255.051	24.4
255.268	20.31
255.484	65.36
255.701	46.93
255.917	44.88
256.134	-18.6
256.351	-28.84
256.567	26.45
256.784	14.17
257	12.12
257.217	38.74
257.433	67.41
257.65	83.8
257.866	16.21
258.082	5.97
258.299	-12.46
258.515	-41.13
258.732	22.36
258.948	94.04
259.165	135
259.381	36.69
259.597	48.98
259.814	46.93
260.03	40.79
260.246	-18.6
260.463	-6.31
260.679	18.26
260.895	48.98
261.112	55.12
261.328	-6.31
261.544	10.07
261.761	26.45
261.977	24.4
262.193	57.17
262.409	5.97
262.626	91.99
262.842	57.17
263.058	-24.75
263.274	118.61
263.49	28.5
263.707	22.36
263.923	1.88
264.139	-18.6
264.355	57.17
264.571	53.08
264.787	12.12
265.004	55.12
265.22	-22.7
265.436	73.56
265.652	-22.7
265.868	75.6
266.084	-14.51
266.3	16.21
266.516	-14.51
266.732	22.36
266.948	81.75
267.164	12.12
267.38	79.7
267.596	61.27
267.812	81.75
268.028	-22.7
268.244	-22.7
268.46	46.93
268.676	40.79
268.892	12.12
269.108	-65.71
269.324	-0.17
269.54	61.27
269.756	100.18
269.972	8.02
270.188	59.22
270.403	57.17
270.619	34.64
270.835	-0.17
271.051	81.75
271.267	53.08
271.483	-10.41
271.698	18.26
271.914	38.74
272.13	61.27
272.346	96.08
272.562	-8.36
272.777	89.94
272.993	-6.31
273.209	-12.46
273.425	-22.7
273.64	-43.18
273.856	36.69
274.072	32.6
274.287	-14.51
274.503	44.88
274.719	5.97
274.934	36.69
275.15	5.97
275.366	65.36
275.581	67.41
275.797	40.79
276.012	-10.41
276.228	59.22
276.444	63.32
276.659	-16.55
276.875	55.12
277.09	-0.17
277.306	-37.03
277.521	30.55
277.737	67.41
277.952	-8.36
278.168	51.03
278.383	71.51
278.599	12.12
278.814	-41.13
279.03	-12.46
279.245	81.75
279.461	14.17
279.676	3.93
279.892	63.32
280.107	87.89
280.322	10.07
280.538	30.55
280.753	44.88
280.969	-0.17
281.184	8.02
281.399	98.13
281.615	8.02
281.83	100.18
282.045	63.32
282.26	30.55
282.476	3.93
282.691	42.84
282.906	16.21
283.122	-2.22
283.337	10.07
283.552	42.84
283.767	-65.71
283.983	53.08
284.198	81.75
284.413	-6.31
284.628	67.41
284.843	14.17
285.058	57.17
285.274	65.36
285.489	-2.22
285.704	28.5
285.919	22.36
286.134	94.04
286.349	71.51
286.564	38.74
286.779	10.07
286.995	42.84
287.21	-2.22
287.425	40.79
287.64	8.02
287.855	-18.6
288.07	1.88
288.285	24.4
288.5	5.97
288.715	38.74
288.93	28.5
289.145	30.55
289.36	-8.36
289.575	-12.46
289.79	53.08
290.004	51.03
290.219	42.84
290.434	-2.22
290.649	34.64
290.864	59.22
291.079	57.17
291.294	26.45
291.509	-2.22
291.724	30.55
291.938	24.4
292.153	57.17
292.368	28.5
292.583	24.4
292.798	1.88
293.012	87.89
293.227	8.02
293.442	57.17
293.657	44.88
293.871	51.03
294.086	1.88
294.301	83.8
294.516	46.93
294.73	98.13
294.945	-18.6
295.16	18.26
295.374	77.65
295.589	106.32
295.804	16.21
296.018	30.55
296.233	46.93
296.447	24.4
296.662	55.12
296.877	18.26
297.091	61.27
297.306	30.55
297.52	12.12
297.735	30.55
297.949	42.84
298.164	-14.51
298.378	22.36
298.593	1.88
298.807	59.22
299.022	48.98
299.236	53.08
299.451	24.4
299.665	5.97
299.88	81.75
300.094	-30.89
300.309	28.5
300.523	-14.51
300.737	46.93
300.952	-0.17
301.166	65.36
301.381	32.6
301.595	61.27
301.809	-16.55
302.024	55.12
302.238	-47.27
302.452	18.26
302.667	44.88
302.881	65.36
303.095	63.32
303.309	16.21
303.524	18.26
303.738	20.31
303.952	46.93
304.166	14.17
304.381	-24.75
304.595	36.69
304.809	38.74
305.023	20.31
305.237	-18.6
305.452	16.21
305.666	48.98
305.88	87.89
306.094	-18.6
306.308	-18.6
306.522	104.28
306.736	67.41
306.95	8.02
307.164	10.07
307.379	34.64
307.593	55.12
307.807	20.31
308.021	59.22
308.235	26.45
308.449	10.07
308.663	32.6
308.877	63.32
309.091	55.12
309.305	32.6
309.519	65.36
309.733	89.94
309.947	42.84
310.161	81.75
310.374	-14.51
310.588	73.56
310.802	8.02
311.016	24.4
311.23	-2.22
311.444	85.84
311.658	12.12
311.872	145.24
312.085	71.51
312.299	1.88
312.513	44.88
312.727	46.93
312.941	16.21
313.154	69.46
313.368	10.07
313.582	26.45
313.796	-12.46
314.009	65.36
314.223	5.97
314.437	18.26
314.651	-6.31
314.864	98.13
315.078	81.75
315.292	79.7
315.505	3.93
315.719	26.45
315.933	-14.51
316.146	14.17
316.36	69.46
316.573	-12.46
316.787	44.88
317.001	12.12
317.214	38.74
317.428	8.02
317.641	81.75
317.855	26.45
318.068	30.55
318.282	5.97
318.495	81.75
318.709	77.65
318.922	8.02
319.136	59.22
319.349	5.97
319.563	5.97
319.776	24.4
319.99	-16.55
320.203	42.84
320.417	65.36
320.63	10.07
320.843	114.52
321.057	22.36
321.27	26.45
321.483	79.7
321.697	38.74
321.91	53.08
322.124	-4.27
322.337	18.26
322.55	89.94
322.763	12.12
322.977	124.76
323.19	3.93
323.403	44.88
323.617	-6.31
323.83	71.51
324.043	3.93
324.256	32.6
324.469	34.64
324.683	53.08
324.896	14.17
325.109	28.5
325.322	48.98
325.535	51.03
325.748	-10.41
325.962	30.55
326.175	24.4
326.388	61.27
326.601	55.12
326.814	3.93
327.027	28.5
327.24	5.97
327.453	3.93
327.666	-8.36
327.879	40.79
328.092	130.9
328.305	79.7
328.518	-8.36
328.731	16.21
328.944	-45.23
329.157	20.31
329.37	53.08
329.583	61.27
329.796	3.93
330.009	-0.17
330.222	22.36
330.435	34.64
330.648	71.51
330.861	30.55
331.073	63.32
331.286	69.46
331.499	46.93
331.712	-6.31
331.925	10.07
332.138	69.46
332.35	-12.46
332.563	61.27
332.776	94.04
332.989	71.51
333.202	-4.27
333.414	-18.6
333.627	55.12
333.84	71.51
334.053	51.03
334.265	-12.46
334.478	-6.31
334.691	75.6
334.903	30.55
335.116	20.31
335.329	26.45
335.541	42.84
335.754	18.26
335.966	51.03
336.179	-16.55
336.392	59.22
336.604	-0.17
336.817	-12.46
337.029	18.26
337.242	-24.75
337.454	71.51
337.667	-30.89
337.88	59.22
338.092	30.55
338.305	89.94
338.517	46.93
338.729	57.17
338.942	67.41
339.154	57.17
339.367	-8.36
339.579	57.17
339.792	-63.66
340.004	67.41
340.217	36.69
340.429	53.08
340.641	36.69
340.854	46.93
341.066	34.64
341.278	22.36
341.491	53.08
341.703	69.46
341.915	18.26
342.128	5.97
342.34	5.97
342.552	63.32
342.764	59.22
342.977	10.07
343.189	18.26
343.401	14.17
343.613	61.27
343.826	96.08
344.038	24.4
344.25	10.07
344.462	16.21
344.674	-16.55
344.886	24.4
345.099	-30.89
345.311	5.97
345.523	59.22
345.735	-55.47
345.947	-26.79
346.159	38.74
346.371	77.65
346.583	34.64
346.795	81.75
347.007	5.97
347.219	26.45
347.431	-34.99
347.643	30.55
347.855	67.41
348.067	87.89
348.279	34.64
348.491	61.27
348.703	20.31
348.915	48.98
349.127	63.32
349.339	87.89
349.551	18.26
349.763	42.84
349.975	-47.27
350.187	57.17
350.399	-8.36
350.61	44.88
350.822	46.93
351.034	75.6
351.246	28.5
351.458	22.36
351.669	30.55
351.881	48.98
352.093	55.12
352.305	-12.46
352.517	-8.36
352.728	34.64
352.94	57.17
353.152	28.5
353.363	81.75
353.575	48.98
353.787	91.99
353.999	-6.31
354.21	22.36
354.422	55.12
354.633	71.51
354.845	53.08
355.057	87.89
355.268	1.88
355.48	57.17
355.692	63.32
355.903	51.03
356.115	-0.17
356.326	-24.75
356.538	14.17
356.749	-2.22
356.961	87.89
357.172	36.69
357.384	38.74
357.595	98.13
357.807	79.7
358.018	59.22
358.23	51.03
358.441	100.18
358.653	36.69
358.864	102.23
359.075	63.32
359.287	38.74
359.498	34.64
359.709	28.5
359.921	14.17
360.132	-2.22
360.344	46.93
360.555	48.98
360.766	3.93
360.977	89.94
361.189	36.69
361.4	28.5
361.611	51.03
361.823	-34.99
362.034	75.6
362.245	5.97
362.456	63.32
362.667	28.5
362.879	20.31
363.09	55.12
363.301	24.4
363.512	1.88
363.723	1.88
363.935	81.75
364.146	65.36
364.357	34.64
364.568	75.6
364.779	30.55
364.99	141.14
365.201	42.84
365.412	5.97
365.623	106.32
365.834	81.75
366.045	65.36
366.256	32.6
366.467	20.31
366.678	48.98
366.889	63.32
367.1	73.56
367.311	22.36
367.522	18.26
367.733	83.8
367.944	94.04
368.155	85.84
368.366	48.98
368.577	57.17
368.788	102.23
368.999	51.03
369.209	55.12
369.42	32.6
369.631	16.21
369.842	67.41
370.053	38.74
370.264	34.64
370.474	61.27
370.685	38.74
370.896	67.41
371.107	14.17
371.317	112.47
371.528	10.07
371.739	44.88
371.95	61.27
372.16	126.8
372.371	51.03
372.582	28.5
372.792	-12.46
373.003	44.88
373.214	14.17
373.424	14.17
373.635	73.56
373.846	79.7
374.056	61.27
374.267	61.27
374.477	18.26
374.688	5.97
374.898	71.51
375.109	67.41
375.319	42.84
375.53	65.36
375.74	28.5
375.951	141.14
376.161	65.36
376.372	42.84
376.582	102.23
376.793	38.74
377.003	-6.31
377.214	42.84
377.424	89.94
377.635	44.88
377.845	28.5
378.055	32.6
378.266	63.32
378.476	65.36
378.686	104.28
378.897	14.17
379.107	96.08
379.317	-0.17
379.528	46.93
379.738	20.31
379.948	-18.6
380.158	48.98
380.369	69.46
380.579	67.41
380.789	38.74
380.999	48.98
381.21	87.89
381.42	1.88
381.63	20.31
381.84	75.6
382.05	75.6
382.261	38.74
382.471	-4.27
382.681	53.08
382.891	32.6
383.101	57.17
383.311	30.55
383.521	77.65
383.731	-18.6
383.941	59.22
384.151	75.6
384.361	26.45
384.571	1.88
384.781	73.56
384.991	20.31
385.201	-20.65
385.411	59.22
385.621	81.75
385.831	53.08
386.041	44.88
386.251	42.84
386.461	12.12
386.671	30.55
386.881	16.21
387.091	18.26
387.301	-2.22
387.511	69.46
387.72	96.08
387.93	-30.89
388.14	-22.7
388.35	-10.41
388.56	94.04
388.769	81.75
388.979	67.41
389.189	36.69
389.399	-49.32
389.609	96.08
389.818	118.61
390.028	53.08
390.238	30.55
390.447	102.23
390.657	67.41
390.867	14.17
391.076	57.17
391.286	77.65
391.496	178
391.705	153.43
391.915	81.75
392.125	38.74
392.334	28.5
392.544	-22.7
392.753	106.32
392.963	87.89
393.172	63.32
393.382	46.93
393.591	157.52
393.801	102.23
394.01	-4.27
394.22	10.07
394.429	75.6
394.639	102.23
394.848	91.99
395.058	77.65
395.267	73.56
395.477	96.08
395.686	69.46
395.895	120.66
396.105	120.66
396.314	20.31
396.524	81.75
396.733	44.88
396.942	139.09
397.152	75.6
397.361	-0.17
397.57	75.6
397.78	124.76
397.989	91.99
398.198	122.71
398.407	26.45
398.617	96.08
398.826	57.17
399.035	57.17
399.244	94.04
399.453	108.37
399.663	89.94
399.872	114.52
400.081	85.84
400.29	116.56
400.499	38.74
400.708	128.85
400.917	38.74
401.127	26.45
401.336	94.04
401.545	94.04
401.754	26.45
401.963	118.61
402.172	55.12
402.381	98.13
402.59	149.33
402.799	67.41
403.008	87.89
403.217	77.65
403.426	51.03
403.635	53.08
403.844	55.12
404.053	110.42
404.262	118.61
404.471	73.56
404.68	112.47
404.888	112.47
405.097	135
405.306	153.43
405.515	132.95
405.724	122.71
405.933	71.51
406.142	130.9
406.35	190.29
406.559	135
406.768	184.15
406.977	196.43
407.185	126.8
407.394	69.46
407.603	161.62
407.812	253.78
408.02	196.43
408.229	210.77
408.438	175.95
408.646	229.2
408.855	198.48
409.064	231.25
409.272	143.19
409.481	194.39
409.69	208.72
409.898	223.06
410.107	171.86
410.315	266.07
410.524	268.11
410.733	255.83
410.941	233.3
411.15	241.49
411.358	395.09
411.567	237.39
411.775	255.83
411.984	317.26
412.192	292.69
412.401	337.74
412.609	311.12
412.818	317.26
413.026	278.35
413.234	313.17
413.443	427.85
413.651	403.28
413.86	444.24
414.068	427.85
414.276	384.85
414.485	468.81
414.693	524.11
414.901	454.48
415.11	454.48
415.318	493.39
415.526	583.5
415.734	464.72
415.943	581.45
416.151	534.35
416.359	540.49
416.567	628.56
416.776	640.84
416.984	649.04
417.192	702.28
417.4	696.14
417.608	773.96
417.817	767.82
418.025	728.91
418.233	769.87
418.441	716.62
418.649	831.3
418.857	939.85
419.065	984.9
419.273	921.42
419.481	1025.86
419.689	931.66
419.897	1038.15
420.105	1128.26
420.313	1103.68
420.521	1124.16
420.729	1122.12
420.937	1224.51
421.145	1212.23
421.353	1300.29
421.561	1394.5
421.769	1363.78
421.977	1443.65
422.185	1439.55
422.393	1519.42
422.601	1640.25
422.809	1640.25
423.017	1722.17
423.224	1707.84
423.432	1711.93
423.64	1771.32
423.848	1906.49
424.056	1957.69
424.263	2115.38
424.471	1951.54
424.679	2072.37
424.887	2191.16
425.094	2283.31
425.302	2297.65
425.51	2371.38
425.718	2324.27
425.925	2492.21
426.133	2471.73
426.341	2686.76
426.548	2815.79
426.756	2883.37
426.964	2891.56
427.171	3022.63
427.379	3168.04
427.586	3067.69
427.794	3235.62
428.001	3219.24
428.209	3438.37
428.417	3383.07
428.624	3600.16
428.832	3725.08
429.039	3610.4
429.247	3641.12
429.454	4024.09
429.662	4171.54
429.869	3890.97
430.076	4374.29
430.284	4146.97
430.491	4476.69
430.699	4513.55
430.906	4583.18
431.114	4769.55
431.321	4833.04
431.528	4931.34
431.736	5283.59
431.943	5459.71
432.15	5279.49
432.358	5154.57
432.565	5656.32
432.772	5584.64
432.979	5846.78
433.187	5967.61
433.394	5936.89
433.601	6530.8
433.808	6498.03
434.016	6307.57
434.223	6725.36
434.43	6981.35
434.637	6881
434.844	7370.47
435.052	7522.02
435.259	7466.72
435.466	7581.41
435.673	7562.98
435.88	7888.6
436.087	8339.16
436.294	8236.76
436.501	8103.64
436.708	8361.69
436.915	8632.02
437.122	9072.33
437.329	8881.87
437.537	9170.63
437.743	9420.49
437.95	9369.29
438.157	9971.39
438.364	9875.13
438.571	10047.16
438.778	10239.67
438.985	11069.1
439.192	10491.57
439.399	11071.15
439.606	10622.64
439.813	11609.76
440.02	11941.54
440.227	11769.51
440.433	11706.02
440.64	12095.13
440.847	12002.97
441.054	12193.44
441.261	13268.62
441.467	12994.19
441.674	13459.08
441.881	13923.97
442.088	13827.71
442.294	13557.38
442.501	14005.89
442.708	14345.85
442.914	14939.76
443.121	15410.79
443.328	15101.55
443.534	16064.1
443.741	15732.33
443.948	15443.56
444.154	16748.12
444.361	16645.72
444.568	16619.1
444.774	16623.19
444.981	16721.49
445.187	17194.57
445.394	18171.46
445.6	17575.5
445.807	19635.75
446.013	18808.37
446.22	19109.43
446.426	19617.32
446.633	19797.54
446.839	20479.52
447.046	19709.48
447.252	20647.45
447.459	20993.56
447.665	20805.14
447.871	21767.69
448.078	22357.5
448.284	21593.61
448.491	22281.73
448.697	22945.27
448.903	23227.89
449.11	23422.45
449.316	23051.77
449.522	23500.27
449.728	23985.64
449.935	24116.71
450.141	24227.3
450.347	24931.8
450.553	23967.21
450.76	24122.85
450.966	25034.2
451.172	24694.24
451.378	25177.56
451.584	24835.55
451.791	25562.58
451.997	25451.98
452.203	25986.5
452.409	25650.64
452.615	25316.82
452.821	24786.4
453.027	24301.03
453.233	25462.22
453.44	24477.15
453.646	24948.18
453.852	24784.35
454.058	25552.34
454.264	24563.17
454.47	25093.59
454.676	24358.37
454.882	25236.95
455.088	22871.54
455.294	23246.32
455.5	23346.67
455.705	23799.27
455.911	22930.94
456.117	22498.81
456.323	22300.16
456.529	21016.08
456.735	21847.56
456.941	21310.99
457.147	20934.17
457.352	20131.36
457.558	20018.72
457.764	20069.92
457.97	19463.72
458.176	19318.32
458.381	19453.48
458.587	18153.02
458.793	18204.22
458.999	17247.82
459.204	18529.85
459.41	18069.06
459.616	16791.13
459.821	17016.4
460.027	16772.69
460.233	16506.46
460.438	15752.8
460.644	16002.66
460.85	15038.06
461.055	14939.76
461.261	14929.52
461.466	13719.17
461.672	13315.72
461.878	14288.51
462.083	13252.24
462.289	13129.36
462.494	12930.7
462.7	12584.6
462.905	12218.01
463.111	12564.12
463.316	12713.62
463.522	12258.97
463.727	12363.42
463.932	12404.38
464.138	12304.03
464.343	12271.26
464.549	12107.42
464.754	12256.92
464.959	12263.07
465.165	11990.69
465.37	11656.87
465.575	11480.74
465.781	11650.72
465.986	11746.98
466.191	11533.99
466.397	11108.01
466.602	10761.91
466.807	11026.09
467.012	10985.13
467.218	10970.8
467.423	10995.37
467.628	10895.02
467.833	11417.26
468.038	10983.09
468.244	10673.84
468.449	10946.22
468.654	10684.08
468.859	10698.42
469.064	10710.71
469.269	10165.95
469.474	10292.92
469.679	10518.2
469.885	10106.56
470.09	10186.43
470.295	10208.95
470.5	9944.77
470.705	9926.33
470.91	9934.53
471.115	9799.36
471.32	9834.18
471.525	9912
471.73	9483.97
471.935	9588.42
472.139	9201.35
472.344	9363.14
472.549	9230.02
472.754	9195.21
472.959	8939.21
473.164	8851.15
473.369	8787.66
473.574	9127.63
473.778	8855.25
473.983	8814.29
474.188	8527.57
474.393	8294.1
474.598	8238.81
474.802	8300.25
475.007	8087.26
475.212	8484.56
475.417	7894.75
475.621	8226.52
475.826	8034.01
476.031	8070.87
476.235	7794.4
476.44	7751.39
476.645	7605.99
476.849	7616.23
477.054	7667.42
477.259	7413.48
477.463	7470.82
477.668	7169.77
477.872	7241.45
478.077	7284.45
478.282	7034.6
478.486	6993.64
478.691	6989.55
478.895	6948.59
479.1	6780.65
479.304	7022.31
479.509	6829.81
479.713	6846.19
479.918	6706.93
480.122	6594.29
480.326	6616.82
480.531	6625.01
480.735	6522.61
480.94	6510.32
481.144	6680.3
481.348	6481.65
481.553	6432.5
481.757	6356.72
481.961	6559.47
482.166	6567.67
482.37	6481.65
482.574	6479.6
482.778	6397.68
482.983	6575.86
483.187	6418.16
483.391	6637.3
483.595	6409.97
483.8	6409.97
484.004	6573.81
484.208	6522.61
484.412	6520.56
484.616	6403.83
484.821	6506.23
485.025	6301.43
485.229	6545.14
485.433	6461.17
485.637	6319.86
485.841	6473.46
486.045	6344.44
486.249	6377.2
486.453	6287.09
486.657	6620.91
486.861	6283
487.065	6360.82
487.269	6534.9
487.473	6457.07
487.677	6461.17
487.881	6487.79
488.085	6557.43
488.289	6371.06
488.493	6444.79
488.697	6436.6
488.901	6516.47
489.105	6395.64
489.309	6393.59
489.512	6643.44
489.716	6469.36
489.92	6584.05
490.124	6315.76
490.328	6582
490.531	6594.29
490.735	6600.43
490.939	6700.78
491.143	6528.75
491.346	6684.4
491.55	6776.56
491.754	6618.86
491.958	6956.78
492.161	6868.72
492.365	6905.58
492.569	7016.17
492.772	6850.28
492.976	6876.91
493.18	7171.82
493.383	7071.47
493.587	7089.9
493.79	7229.16
493.994	7139.05
494.197	7294.69
494.401	7184.1
494.605	7495.39
494.808	7352.04
495.012	7431.91
495.215	7524.07
495.419	7415.52
495.622	7454.44
495.825	7681.76
496.029	7489.25
496.232	7747.3
496.436	7806.69
496.639	8048.35
496.843	7915.23
497.046	8103.64
497.249	8224.47
497.453	8306.39
497.656	8279.77
497.859	8216.28
498.063	8363.73
498.266	8687.31
498.469	8636.11
498.673	8709.84
498.876	8926.93
499.079	8816.33
499.282	9062.09
499.485	9340.61
499.689	9109.19
499.892	9303.75
500.095	9537.22
500.298	9742.02
500.501	9553.6
500.705	10016.44
500.908	9889.47
501.111	10141.37
501.314	10165.95
501.517	10245.82
501.72	10571.44
501.923	10485.43
502.126	10841.78
502.329	10817.2
502.532	10882.74
502.735	11083.44
502.938	11265.71
503.141	11429.54
503.344	11552.42
503.547	11724.45
503.75	11806.37
503.953	11984.54
504.156	12091.04
504.359	12252.83
504.562	12258.97
504.765	12598.93
504.968	12709.52
505.17	12936.85
505.373	12887.7
505.576	13254.28
505.779	13448.84
505.982	13381.26
506.185	13848.19
506.387	13747.84
506.59	14055.04
506.793	14198.4
506.996	14251.64
507.198	14640.76
507.401	14626.42
507.604	14853.75
507.807	15296.11
508.009	15375.98
508.212	15484.52
508.415	15451.75
508.617	15973.99
508.82	15898.21
509.022	16176.73
509.225	16369.24
509.428	16410.2
509.63	16823.89
509.833	17241.68
510.035	17202.77
510.238	17215.05
510.44	17579.59
510.643	17665.61
510.845	18183.74
511.048	18067.01
511.25	18312.77
511.453	18675.26
511.655	19113.52
511.858	19047.99
512.06	19170.86
512.262	19537.45
512.465	19684.9
512.667	19897.89
512.87	20045.35
513.072	20254.24
513.274	20456.99
513.477	21155.35
513.679	21116.44
513.881	21360.14
514.084	21749.26
514.286	21747.21
514.488	22144.52
514.69	22640.12
514.893	22689.28
515.095	22906.36
515.297	23021.05
515.499	23260.66
515.701	23690.73
515.904	23858.67
516.106	24059.37
516.308	24546.78
516.51	24620.51
516.712	24784.35
516.914	25058.77
517.116	25546.19
517.318	25685.45
517.52	25822.67
517.722	26174.92
517.925	26443.2
518.127	26826.17
518.329	27211.19
518.531	27100.6
518.733	27907.5
518.935	28036.52
519.136	28177.83
519.338	28456.36
519.54	28644.77
519.742	28925.34
519.944	29349.27
520.146	29654.42
520.348	29793.68
520.55	29879.69
520.752	30262.66
520.954	30700.93
521.155	30524.8
521.357	31094.14
521.559	31241.59
521.761	31950.19
521.963	31774.06
522.164	31894.89
522.366	32345.45
522.568	32718.18
522.77	32890.21
522.971	33301.85
523.173	33326.42
523.375	33914.19
523.576	33629.52
523.778	33656.15
523.98	34346.31
524.181	34395.46
524.383	34438.47
524.584	34934.08
524.786	35370.3
524.988	35069.25
525.189	35601.72
525.391	35865.91
525.592	35716.4
525.794	36150.57
525.995	36199.72
526.197	36504.87
526.398	36298.03
526.6	36371.75
526.801	36762.92
527.003	37293.34
527.204	37080.35
527.406	37653.78
527.607	37575.96
527.808	37612.82
528.01	37379.35
528.211	37895.44
528.412	38307.08
528.614	38018.32
528.815	38280.46
529.016	38556.94
529.218	38362.38
529.419	38481.16
529.62	38233.36
529.822	38761.73
530.023	38909.19
530.224	39056.64
530.425	39152.9
530.626	38935.81
530.828	38745.35
531.029	39245.05
531.23	39271.68
531.431	38972.67
531.632	39236.86
531.833	39636.22
532.035	39517.43
532.236	39378.17
532.437	39763.19
532.638	39599.35
532.839	39841.01
533.04	39746.81
533.241	39681.27
533.442	40250.61
533.643	40129.78
533.844	39841.01
534.045	40002.8
534.246	39740.66
534.447	40191.22
534.648	39855.35
534.849	40189.17
535.05	40000.75
535.251	40006.9
535.451	39916.79
535.652	40070.39
535.853	40084.72
536.054	40285.42
536.255	40250.61
536.456	39904.5
536.657	40643.82
536.857	40199.41
537.058	39435.52
537.259	40533.23
537.46	40516.84
537.66	40221.94
537.861	40549.61
538.062	40328.43
538.263	40676.58
538.463	40379.63
538.664	40193.26
538.865	40226.03
539.065	40461.55
539.266	40185.07
539.466	40838.37
539.667	40008.95
539.868	41018.6
540.068	40500.46
540.269	40154.35
540.469	40310
540.67	40183.02
540.87	40363.25
541.071	40418.54
541.271	40795.37
541.472	40527.08
541.672	39976.18
541.873	40039.67
542.073	39394.56
542.274	40371.44
542.474	40297.71
542.675	39943.41
542.875	41037.03
543.075	40353.01
543.276	39578.87
543.476	40467.69
543.676	40330.48
543.877	40826.09
544.077	40658.15
544.277	40307.95
544.478	40500.46
544.678	40146.16
544.878	39947.51
545.078	40262.89
545.279	40146.16
545.479	40162.54
545.679	40654.06
545.879	39988.47
546.079	40578.28
546.28	40281.33
546.48	40183.02
546.68	40156.4
546.88	40428.78
547.08	40277.23
547.28	40277.23
547.48	39910.64
547.68	40285.42
547.88	40324.33
548.081	40445.16
548.281	40217.84
548.481	40078.58
548.681	40713.45
548.881	40029.43
549.081	40502.51
549.28	40037.62
549.48	40522.99
549.68	40004.85
549.88	40834.28
550.08	39980.28
550.28	40178.93
550.48	40045.81
550.68	40168.69
550.88	40238.32
551.08	39910.64
551.279	40082.67
551.479	39793.91
551.679	40195.31
551.879	39906.55
552.079	40504.56
552.278	39832.82
552.478	40258.8
552.678	40189.17
552.878	39738.61
553.077	39744.76
553.277	39716.09
553.477	40307.95
553.676	39687.42
553.876	39582.97
554.076	40101.11
554.275	39625.98
554.475	39664.89
554.674	39937.27
554.874	39769.33
555.074	39757.05
555.273	39714.04
555.473	39742.71
555.672	40103.15
555.872	39724.28
556.071	39675.13
556.271	40004.85
556.47	39437.56
556.67	38716.68
556.869	39040.26
557.068	39124.22
557.268	39218.43
557.467	38991.11
557.667	39070.98
557.866	39357.69
558.065	39292.16
558.265	38841.6
558.464	38511.88
558.663	38774.02
558.863	38628.62
559.062	39109.89
559.261	38466.83
559.461	38786.31
559.66	38327.56
559.859	38532.36
560.058	38407.44
560.258	38509.83
560.457	38049.04
560.656	38472.97
560.855	38176.01
561.054	38231.31
561.253	38180.11
561.453	38257.93
561.652	38108.43
561.851	38190.35
562.05	38153.49
562.249	37717.27
562.448	38092.05
562.647	38112.53
562.846	37657.88
563.045	37950.74
563.244	37498.14
563.443	37995.79
563.642	37285.15
563.841	37883.16
564.04	37281.05
564.239	37784.85
564.438	37256.48
564.637	37027.1
564.836	37221.66
565.035	37285.15
565.234	37037.34
565.432	36842.79
565.631	37102.88
565.83	36893.99
566.029	36891.94
566.228	36775.2
566.427	36594.98
566.625	36508.97
566.824	36199.72
567.023	36617.51
567.222	36298.03
567.42	36658.47
567.619	36293.93
567.818	36347.18
568.016	36035.89
568.215	36332.84
568.414	35949.87
568.612	36113.71
568.811	35554.61
569.01	35720.5
569.208	35751.22
569.407	35759.41
569.605	35134.78
569.804	35808.56
570.002	35110.21
570.201	35396.92
570.4	34987.33
570.598	35093.82
570.797	34889.02
570.995	34698.56
571.193	34547.01
571.392	34925.89
571.59	34440.52
571.789	34456.9
571.987	34379.08
572.186	34401.61
572.384	34061.65
572.582	34143.56
572.781	33822.03
572.979	34030.93
573.177	33852.75
573.376	33787.22
573.574	33486.17
573.772	33690.96
573.971	33488.21
574.169	33215.83
574.367	33234.27
574.565	33490.26
574.763	33019.23
574.962	32902.5
575.16	32910.69
575.358	33011.04
575.556	32478.57
575.754	33078.62
575.952	32687.46
576.151	32783.71
576.349	32304.49
576.547	32050.54
576.745	32365.93
576.943	32167.27
577.141	32126.32
577.339	32382.31
577.537	31876.46
577.735	32038.25
577.933	32013.68
578.131	31468.92
578.329	31452.53
578.527	31053.18
578.725	31487.35
578.923	31618.42
579.121	31092.09
579.319	30715.26
579.516	31176.06
579.714	30836.09
579.912	30782.85
580.11	30578.05
580.308	30504.32
580.506	30662.02
580.704	30184.84
580.901	30748.03
581.099	30268.81
581.297	29887.89
581.495	30334.34
581.692	30166.41
581.89	29943.18
582.088	30074.25
582.285	29640.08
582.483	29988.24
582.681	29650.32
582.878	29408.66
583.076	29044.12
583.274	29310.36
583.471	29058.46
583.669	29171.1
583.866	29277.59
584.064	29033.88
584.262	28831.13
584.459	28999.07
584.657	28753.31
584.854	28851.61
585.052	28097.96
585.249	28370.34
585.447	28315.05
585.644	28087.72
585.841	28046.76
586.039	28335.52
586.236	27889.07
586.434	27815.34
586.631	28040.62
586.828	27643.31
587.026	27575.73
587.223	27446.71
587.42	27545.01
587.618	27682.22
587.815	27135.42
588.012	27143.61
588.21	27567.54
588.407	27415.99
588.604	26830.27
588.801	26871.23
588.999	26899.9
589.196	26637.76
589.393	26910.14
589.59	26609.09
589.787	26639.81
589.984	26275.27
590.182	26013.13
590.379	26424.77
590.576	26041.8
590.773	26238.4
590.97	26002.89
591.167	26189.25
591.364	25820.62
591.561	26084.81
591.758	25726.41
591.955	25837
592.152	25914.83
592.349	25259.48
592.546	25849.29
592.743	25544.14
592.94	25173.46
593.137	25157.08
593.334	25390.55
593.531	25060.82
593.727	25150.93
593.924	24944.09
594.121	25017.82
594.318	25120.21
594.515	24563.17
594.712	24903.13
594.908	24835.55
595.105	24817.11
595.302	24415.71
595.499	24450.53
595.696	24364.51
595.892	23961.06
596.089	24352.23
596.286	24518.11
596.482	24071.65
596.679	24094.18
596.876	24184.29
597.072	24085.99
597.269	24045.03
597.466	23657.96
597.662	23778.79
597.859	23680.49
598.055	23623.15
598.252	23563.76
598.448	23565.81
598.645	23254.51
598.841	23373.3
599.038	23059.96
599.234	23358.96
599.431	22910.46
599.627	23186.93
599.824	23090.68
600.02	22826.49
600.217	22965.75
600.413	22965.75
600.609	22517.25
600.806	22709.75
601.002	22554.11
601.198	22410.75
601.395	22214.15
601.591	22408.7
601.787	22464
601.984	22232.58
602.18	22486.53
602.376	21702.15
602.572	21786.12
602.769	21968.39
602.965	21874.18
603.161	21775.88
603.357	21548.56
603.553	21489.17
603.75	21487.12
603.946	21294.61
604.142	21218.83
604.338	21108.24
604.534	21317.14
604.73	21294.61
604.926	20854.3
605.122	20950.55
605.318	20891.16
605.514	20731.42
605.71	20547.1
605.906	21020.18
606.102	20590.11
606.298	20655.64
606.494	20551.2
606.69	20567.58
606.886	20614.68
607.082	19990.05
607.278	20422.17
607.474	19758.63
607.67	20094.5
607.866	19852.84
608.062	20096.55
608.257	19936.81
608.453	20002.34
608.649	19988
608.845	19684.9
609.041	19830.31
609.236	19648.04
609.432	19324.46
609.628	19394.09
609.824	19398.19
610.019	19191.34
610.215	19586.6
610.411	19498.54
610.606	19011.12
610.802	19265.07
610.998	19031.6
611.193	19297.84
611.389	18794.04
611.584	18853.43
611.78	18753.08
611.976	18832.95
612.171	19115.57
612.367	18800.18
612.562	18677.3
612.758	18335.29
612.953	18492.99
613.149	18660.92
613.344	18509.37
613.539	18640.44
613.735	18548.28
613.93	18548.28
614.126	18183.74
614.321	18488.89
614.517	17921.6
614.712	18144.83
614.907	17983.04
615.103	18179.65
615.298	17802.82
615.493	18030.15
615.688	17626.7
615.884	18251.33
616.079	17856.07
616.274	17614.41
616.47	17788.49
616.665	17589.83
616.86	17452.62
617.055	17495.63
617.25	17518.15
617.445	17456.71
617.641	17288.78
617.836	17567.31
618.031	17380.94
618.226	17196.62
618.421	17167.95
618.616	17155.66
618.811	16920.15
619.006	17083.98
619.201	16619.1
619.396	16799.32
619.591	16631.38
619.786	16703.06
619.981	16195.17
620.176	16754.26
620.371	16526.94
620.566	16430.68
620.761	16285.28
620.956	16522.84
621.151	15857.25
621.346	16143.97
621.541	15824.48
621.735	16111.2
621.93	15961.7
622.125	15912.55
622.32	15828.58
622.515	15435.37
622.709	15310.44
622.904	15410.79
623.099	15259.24
623.294	15398.51
623.488	15230.57
623.683	15300.2
623.878	15066.74
624.072	14950
624.267	15136.37
624.462	14710.39
624.656	14624.37
624.851	14493.3
625.046	14499.45
625.24	14603.89
625.435	14466.68
625.629	14395
625.824	14089.85
626.018	14153.34
626.213	13887.11
626.407	14059.13
626.602	13926.02
626.796	13856.39
626.991	13901.44
627.185	13715.08
627.38	13717.12
627.574	13336.2
627.768	13471.37
627.963	13319.82
628.157	13186.7
628.352	13506.18
628.546	13176.46
628.74	13399.69
628.935	12928.66
629.129	12955.28
629.323	12916.37
629.517	12959.38
629.712	12760.72
629.906	12574.36
630.1	12504.73
630.294	12605.08
630.489	12246.68
630.683	12537.49
630.877	12193.44
631.071	12277.4
631.265	12269.21
631.459	12029.6
631.653	12039.84
631.848	12058.27
632.042	11714.21
632.236	12011.17
632.43	11902.62
632.624	11910.82
632.818	11845.28
633.012	11517.61
633.206	11546.28
633.4	11720.35
633.594	11366.06
633.788	11404.97
633.982	11273.9
634.176	11384.49
634.369	11259.56
634.563	11300.52
634.757	11208.36
634.951	11175.59
635.145	11032.24
635.339	11042.48
635.533	10876.59
635.726	11165.35
635.92	10739.38
636.114	10755.76
636.308	10800.82
636.501	10895.02
636.695	10636.98
636.889	10630.84
637.083	10647.22
637.276	10393.27
637.47	10469.05
637.664	10428.09
637.857	10258.1
638.051	10237.63
638.244	10032.83
638.438	10041.02
638.632	10090.17
638.825	9881.28
639.019	9858.75
639.212	9924.29
639.406	9903.81
639.599	9828.03
639.793	9735.87
639.986	9520.84
640.18	9627.33
640.373	9739.97
640.567	9500.36
640.76	9608.9
640.954	9377.48
641.147	9447.11
641.34	9303.75
641.534	9383.62
641.727	9328.33
641.92	9250.5
642.114	8824.53
642.307	9119.43
642.5	8996.56
642.694	8922.83
642.887	8908.49
643.08	8902.35
643.273	8845.01
643.467	8709.84
643.66	8613.59
643.853	8687.31
644.046	8376.02
644.239	8689.36
644.432	8341.21
644.626	8310.49
644.819	8160.98
645.012	8398.55
645.205	8347.35
645.398	8107.74
645.591	8208.09
645.784	8120.03
645.977	8189.66
646.17	8038.11
646.363	7882.46
646.556	7769.82
646.749	7950.04
646.942	7972.57
647.135	7829.21
647.328	7732.96
647.521	7732.96
647.714	7583.46
647.907	7630.56
648.099	7450.34
648.292	7548.64
648.485	7405.28
648.678	7444.2
648.871	7317.22
649.064	7243.49
649.256	7278.31
649.449	7300.84
649.642	7276.26
649.835	7104.23
650.027	6985.45
650.22	7046.89
650.413	7026.41
650.605	6954.73
650.798	6938.35
650.991	6809.33
651.183	6788.85
651.376	6665.97
651.568	6811.37
651.761	6694.64
651.954	6567.67
652.146	6534.9
652.339	6653.68
652.531	6457.07
652.724	6512.37
652.916	6393.59
653.109	6383.35
653.301	6219.51
653.494	6457.07
653.686	6354.68
653.879	6295.29
654.071	6252.28
654.263	6137.59
654.456	6162.17
654.648	6115.06
654.84	5832.44
655.033	6143.74
655.225	5877.5
655.417	5887.74
655.61	5865.21
655.802	5818.11
655.994	5850.88
656.186	5871.36
656.379	5785.34
656.571	5750.53
656.763	5623.55
656.955	5631.74
657.148	5648.13
657.34	5566.21
657.532	5492.48
657.724	5363.46
657.916	5216.01
658.108	5398.27
658.3	5416.71
658.492	5318.4
658.684	5293.83
658.876	5328.64
659.068	5316.36
659.26	5070.6
659.452	5175.05
659.644	4974.35
659.836	5031.69
660.028	5000.97
660.22	4921.1
660.412	4970.25
660.604	4970.25
660.796	4978.44
660.988	4802.32
661.18	4765.45
661.372	4779.79
661.563	4886.28
661.755	4710.16
661.947	4566.8
662.139	4568.85
662.331	4634.38
662.522	4501.26
662.714	4654.86
662.906	4529.94
663.097	4478.74
663.289	4456.21
663.481	4427.54
663.673	4284.18
663.864	4364.05
664.056	4202.26
664.247	4255.51
664.439	4257.56
664.631	4241.17
664.822	4282.13
665.014	4224.79
665.205	4232.98
665.397	4099.86
665.588	4040.47
665.78	3997.46
665.971	4118.29
666.163	4071.19
666.354	4077.34
666.546	3948.31
666.737	3946.27
666.929	3946.27
667.12	3976.98
667.311	3743.52
667.503	3983.13
667.694	3905.31
667.885	3831.58
668.077	3817.24
668.268	3811.1
668.459	3903.26
668.651	3833.63
668.842	3757.85
669.033	3739.42
669.224	3571.49
669.416	3743.52
669.607	3680.03
669.798	3563.29
669.989	3628.83
670.18	3589.92
670.371	3528.48
670.563	3540.77
670.754	3561.25
670.945	3452.7
671.136	3385.12
671.327	3614.49
671.518	3450.66
671.709	3458.85
671.9	3430.18
672.091	3454.75
672.282	3405.6
672.473	3325.73
672.664	3456.8
672.855	3317.54
673.046	3391.27
673.237	3333.92
673.428	3350.31
673.619	3262.24
673.809	3268.39
674	3258.15
674.191	3254.05
674.382	3278.63
674.573	3186.47
674.764	3288.87
674.954	3311.39
675.145	3278.63
675.336	3215.14
675.527	3290.92
675.717	3247.91
675.908	3149.61
676.099	3231.52
676.289	3049.25
676.48	3137.32
676.671	2953
676.861	3145.51
677.052	3096.36
677.243	3122.98
677.433	3196.71
677.624	3084.07
677.814	3112.74
678.005	3159.85
678.195	2950.95
678.386	3036.97
678.576	2926.38
678.767	2998.06
678.957	2987.82
679.148	2948.9
679.338	2930.47
679.529	2991.91
679.719	2897.71
679.909	3077.93
680.1	2942.76
680.29	3016.49
680.481	2996.01
680.671	2881.32
680.861	2864.94
681.052	2772.78
681.242	2989.86
681.432	2856.75
681.622	2959.14
681.813	3016.49
682.003	2856.75
682.193	2823.98
682.383	2909.99
682.573	2795.31
682.764	2936.62
682.954	2946.86
683.144	2811.69
683.334	2916.14
683.524	2826.03
683.714	2840.36
683.904	2772.78
684.094	2733.87
684.284	2809.64
684.474	2852.65
684.664	2793.26
684.854	2727.72
685.044	2811.69
685.234	2729.77
685.424	2766.64
685.614	2764.59
685.804	2799.4
685.994	2776.87
686.184	2770.73
686.374	2737.96
686.564	2758.44
686.753	2752.3
686.943	2826.03
687.133	2684.72
687.323	2731.82
687.513	2694.96
687.702	2737.96
687.892	2721.58
688.082	2697
688.272	2668.33
688.461	2770.73
688.651	2684.72
688.841	2711.34
689.03	2817.83
689.22	2631.47
689.41	2666.28
689.599	2801.45
689.789	2668.33
689.979	2709.29
690.168	2733.87
690.358	2682.67
690.547	2770.73
690.737	2760.49
690.926	2559.79
691.116	2500.4
691.305	2703.15
691.495	2674.48
691.684	2598.7
691.874	2807.59
692.063	2733.87
692.252	2686.76
692.442	2631.47
692.631	2694.96
692.82	2598.7
693.01	2746.16
693.199	2631.47
693.388	2567.98
693.578	2635.57
693.767	2596.65
693.956	2557.74
694.146	2723.63
694.335	2623.28
694.524	2617.13
694.713	2590.51
694.902	2719.53
695.092	2789.16
695.281	2647.85
695.47	2641.71
695.659	2643.76
695.848	2715.44
696.037	2654
696.226	2672.43
696.415	2746.16
696.604	2649.9
696.793	2619.18
696.982	2580.27
697.171	2635.57
697.36	2656.04
697.549	2598.7
697.738	2699.05
697.927	2625.33
698.116	2699.05
698.305	2674.48
698.494	2584.37
698.683	2729.77
698.872	2649.9
699.061	2574.13
699.25	2592.56
699.438	2664.24
699.627	2529.07
699.816	2610.99
700.005	2549.55
700.193	2785.07
700.382	2684.72
700.571	2586.41
700.76	2678.57
700.948	2551.6
701.137	2545.45
701.326	2662.19
701.514	2641.71
701.703	2692.91
701.892	2541.36
702.08	2604.85
702.269	2678.57
702.457	2592.56
702.646	2553.65
702.834	2441.01
703.023	2529.07
703.212	2610.99
703.4	2598.7
703.589	2549.55
703.777	2615.09
703.965	2506.54
704.154	2522.93
704.342	2527.02
704.531	2490.16
704.719	2600.75
704.907	2393.9
705.096	2545.45
705.284	2600.75
705.472	2502.45
705.661	2420.53
705.849	2449.2
706.037	2514.73
706.226	2393.9
706.414	2490.16
706.602	2422.58
706.79	2467.63
706.979	2299.7
707.167	2336.56
707.355	2369.33
707.543	2395.95
707.731	2363.19
707.919	2430.77
708.107	2293.55
708.296	2494.26
708.484	2402.1
708.672	2410.29
708.86	2311.99
709.048	2361.14
709.236	2228.02
709.424	2256.69
709.612	2316.08
709.8	2283.31
709.988	2240.31
710.176	2203.44
710.364	2246.45
710.551	2398
710.739	2287.41
710.927	2230.07
711.115	2242.36
711.303	2193.2
711.491	2271.03
711.679	2240.31
711.866	2146.1
712.054	2180.92
712.242	2084.66
712.43	2273.07
712.617	2037.56
712.805	2094.9
712.993	2139.96
713.181	2058.04
713.368	2125.62
713.556	2109.24
713.744	2160.44
713.931	2099
714.119	2185.01
714.306	2139.96
714.494	2045.75
714.682	1994.55
714.869	2027.32
715.057	2031.41
715.244	2074.42
715.432	2068.28
715.619	2037.56
715.807	2139.96
715.994	1963.83
716.182	2053.94
716.369	1969.98
716.556	2008.89
716.744	2090.81
716.931	2021.17
717.119	1969.98
717.306	2027.32
717.493	1994.55
717.681	1982.26
717.868	1873.72
718.055	2035.51
718.242	1972.02
718.43	1906.49
718.617	1941.3
718.804	1922.87
718.991	1906.49
719.179	1888.06
719.366	1951.54
719.553	1877.82
719.74	1883.96
719.927	1867.58
720.114	1857.34
720.301	1898.3
720.488	1810.23
720.676	1814.33
720.863	1888.06
721.05	1726.27
721.237	1769.27
721.424	1734.46
721.611	1707.84
721.798	1742.65
721.985	1734.46
722.172	1699.64
722.358	1750.84
722.545	1718.08
722.732	1853.24
722.919	1705.79
723.106	1693.5
723.293	1660.73
723.48	1660.73
723.667	1668.92
723.853	1652.54
724.04	1640.25
724.227	1593.15
724.414	1648.44
724.6	1656.64
724.787	1615.68
724.974	1492.8
725.161	1576.77
725.347	1556.29
725.534	1603.39
725.72	1599.29
725.907	1605.44
726.094	1623.87
726.28	1535.81
726.467	1548.09
726.653	1488.7
726.84	1601.34
727.027	1521.47
727.213	1574.72
727.4	1609.53
727.586	1464.13
727.773	1488.7
727.959	1548.09
728.145	1546.05
728.332	1439.55
728.518	1425.22
728.705	1515.33
728.891	1488.7
729.077	1464.13
729.264	1421.12
729.45	1488.7
729.636	1468.22
729.823	1464.13
730.009	1392.45
730.195	1500.99
730.382	1496.89
730.568	1466.17
730.754	1419.07
730.94	1443.65
731.126	1496.89
731.313	1402.69
731.499	1464.13
731.685	1439.55
731.871	1363.78
732.057	1402.69
732.243	1363.78
732.429	1439.55
732.615	1382.21
732.801	1460.03
732.987	1388.35
733.173	1404.74
733.359	1320.77
733.545	1314.63
733.731	1353.54
733.917	1304.39
734.103	1296.19
734.289	1326.91
734.475	1402.69
734.661	1310.53
734.847	1398.59
735.033	1308.48
735.219	1363.78
735.404	1390.4
735.59	1277.76
735.776	1222.47
735.962	1298.24
736.148	1224.51
736.333	1189.7
736.519	1214.27
736.705	1238.85
736.89	1236.8
737.076	1232.71
737.262	1206.08
737.447	1187.65
737.633	1259.33
737.819	1204.03
738.004	1300.29
738.19	1294.15
738.375	1185.6
738.561	1261.38
738.747	1146.69
738.932	1154.88
739.118	1144.64
739.303	1091.4
739.489	1134.4
739.674	1156.93
739.859	1130.31
740.045	1165.12
740.23	1220.42
740.416	1093.44
740.601	1177.41
740.786	1187.65
740.972	1109.83
741.157	1234.75
741.342	1093.44
741.528	1048.39
741.713	1150.79
741.898	1130.31
742.084	1136.45
742.269	1128.26
742.454	1075.01
742.639	1079.11
742.824	1171.27
743.01	1060.68
743.195	1152.84
743.38	1079.11
743.565	1126.21
743.75	1068.87
743.935	1017.67
744.12	1165.12
744.305	999.24
744.49	1099.59
744.675	1021.77
744.86	997.19
745.045	989
745.23	1032.01
745.415	995.14
745.6	1087.3
745.785	1032.01
745.97	941.89
746.155	950.09
746.34	1003.33
746.525	1005.38
746.71	980.81
746.895	943.94
747.079	984.9
747.264	933.7
747.449	1021.77
747.634	954.18
747.819	915.27
748.003	978.76
748.188	898.89
748.373	982.85
748.557	1062.73
748.742	960.33
748.927	909.13
749.111	909.13
749.296	898.89
749.481	868.17
749.665	872.26
749.85	800.59
750.034	862.02
750.219	911.18
750.404	882.5
750.588	884.55
750.773	808.78
750.957	857.93
751.141	788.3
751.326	837.45
751.51	808.78
751.695	800.59
751.879	913.22
752.064	794.44
752.248	786.25
752.432	829.26
752.617	712.52
752.801	745.29
752.985	800.59
753.17	687.95
753.354	784.2
753.538	743.24
753.722	728.91
753.907	753.48
754.091	776.01
754.275	784.2
754.459	800.59
754.643	692.04
754.828	773.96
755.012	739.15
755.196	657.23
755.38	753.48
755.564	720.71
755.748	636.75
755.932	755.53
756.116	694.09
756.3	698.19
756.484	689.99
756.668	716.62
756.852	696.14
757.036	671.56
757.22	661.32
757.404	683.85
757.588	624.46
757.772	583.5
757.956	724.81
758.14	681.8
758.323	692.04
758.507	603.98
758.691	655.18
758.875	587.6
759.059	628.56
759.242	560.97
759.426	532.3
759.61	618.32
759.794	673.61
759.977	642.89
760.161	587.6
760.345	608.08
760.528	522.06
760.712	520.01
760.895	620.36
761.079	689.99
761.263	565.07
761.446	534.35
761.63	612.17
761.813	554.83
761.997	610.12
762.18	603.98
762.364	649.04
762.547	524.11
762.731	563.02
762.914	560.97
763.098	544.59
763.281	577.36
763.464	542.54
763.648	577.36
763.831	632.65
764.015	532.3
764.198	569.16
764.381	565.07
764.564	520.01
764.748	552.78
764.931	575.31
765.114	550.73
765.297	563.02
765.481	550.73
765.664	515.92
765.847	567.12
766.03	509.77
766.213	452.43
766.397	489.29
766.58	505.68
766.763	548.68
766.946	528.21
767.129	589.64
767.312	522.06
767.495	581.45
767.678	511.82
767.861	507.73
768.044	446.29
768.227	532.3
768.41	517.97
768.593	413.52
768.776	489.29
768.959	511.82
769.142	485.2
769.324	540.49
769.507	483.15
769.69	560.97
769.873	380.75
770.056	446.29
770.239	536.4
770.421	536.4
770.604	491.34
770.787	444.24
770.97	489.29
771.152	452.43
771.335	472.91
771.518	462.67
771.7	513.87
771.883	495.44
772.066	450.38
772.248	440.14
772.431	501.58
772.613	458.57
772.796	466.77
772.978	540.49
773.161	464.72
773.343	417.61
773.526	452.43
773.708	460.62
773.891	440.14
774.073	489.29
774.256	462.67
774.438	468.81
774.621	472.91
774.803	479.05
774.985	413.52
775.168	411.47
775.35	380.75
775.532	366.42
775.715	399.18
775.897	460.62
776.079	403.28
776.261	434
776.444	393.04
776.626	395.09
776.808	438.09
776.99	450.38
777.173	339.79
777.355	448.33
777.537	401.23
777.719	472.91
777.901	350.03
778.083	423.76
778.265	388.94
778.447	360.27
778.629	382.8
778.811	413.52
778.993	456.53
779.175	315.22
779.357	399.18
779.539	407.38
779.721	347.98
779.903	374.61
780.085	356.18
780.267	425.81
780.449	390.99
780.631	321.36
780.812	325.46
780.994	331.6
781.176	321.36
781.358	358.22
781.54	341.84
781.721	309.07
781.903	356.18
782.085	343.89
782.267	360.27
782.448	347.98
782.63	362.32
782.812	384.85
782.993	325.46
783.175	386.9
783.357	323.41
783.538	319.31
783.72	286.54
783.901	313.17
784.083	358.22
784.264	284.5
784.446	278.35
784.627	284.5
784.809	274.26
784.99	300.88
785.172	374.61
785.353	329.55
785.535	331.6
785.716	341.84
785.897	223.06
786.079	364.37
786.26	304.98
786.441	323.41
786.623	298.83
786.804	151.38
786.985	255.83
787.167	282.45
787.348	235.35
787.529	282.45
787.71	266.07
787.891	229.2
788.073	200.53
788.254	347.98
788.435	337.74
788.616	276.31
788.797	259.92
788.978	218.96
789.159	311.12
789.34	302.93
789.522	214.87
789.703	270.16
789.884	210.77
790.065	251.73
790.246	235.35
790.427	169.81
790.607	237.39
790.788	200.53
790.969	247.63
791.15	184.15
791.331	200.53
791.512	243.54
791.693	182.1
791.874	233.3
792.054	165.71
792.235	235.35
792.416	192.34
792.597	300.88
792.778	229.2
792.958	155.47
793.139	214.87
793.32	182.1
793.5	206.67
793.681	208.72
793.862	165.71
794.042	194.39
794.223	206.67
794.404	157.52
794.584	200.53
794.765	188.24
794.945	188.24
795.126	186.19
795.306	225.11
795.487	245.59
795.667	223.06
795.848	165.71
796.028	167.76
796.209	241.49
796.389	126.8
796.57	253.78
796.75	126.8
796.93	204.63
797.111	182.1
797.291	143.19
797.471	165.71
797.652	175.95
797.832	94.04
798.012	153.43
798.192	137.04
798.373	102.23
798.553	161.62
798.733	171.86
798.913	173.91
799.093	198.48
799.274	188.24
799.454	188.24
799.634	206.67
799.814	167.76
799.994	204.63
800.174	151.38
800.354	206.67
800.534	194.39
800.714	155.47
800.894	182.1
801.074	231.25
801.254	132.95
801.434	96.08
801.614	155.47
801.794	165.71
801.974	362.32
802.154	106.32
802.334	157.52
802.514	178
802.693	98.13
802.873	108.37
803.053	151.38
803.233	71.51
803.413	110.42
803.592	96.08
803.772	96.08
803.952	163.67
804.131	167.76
804.311	143.19
804.491	124.76
804.67	110.42
804.85	132.95
805.03	87.89
805.209	128.85
805.389	98.13
805.568	135
805.748	98.13
805.928	124.76
806.107	128.85
806.287	106.32
806.466	141.14
806.646	104.28
806.825	96.08
807.004	102.23
807.184	159.57
807.363	167.76
807.543	118.61
807.722	122.71
807.901	137.04
808.081	178
808.26	89.94
808.439	108.37
808.619	73.56
808.798	85.84
808.977	118.61
809.156	16.21
809.336	145.24
809.515	94.04
809.694	61.27
809.873	151.38
810.052	34.64
810.231	188.24
810.411	108.37
810.59	85.84
810.769	85.84
810.948	124.76
811.127	22.36
811.306	169.81
811.485	67.41
811.664	120.66
811.843	79.7
812.022	57.17
812.201	118.61
812.38	61.27
812.559	61.27
812.737	81.75
812.916	75.6
813.095	96.08
813.274	122.71
813.453	100.18
813.632	71.51
813.811	132.95
813.989	59.22
814.168	169.81
814.347	38.74
814.526	192.34
814.704	77.65
814.883	106.32
815.062	137.04
815.24	106.32
815.419	116.56
815.598	87.89
815.776	48.98
815.955	73.56
816.133	73.56
816.312	91.99
816.49	135
816.669	61.27
816.847	87.89
817.026	128.85
817.204	22.36
817.383	145.24
817.561	81.75
817.74	57.17
817.918	96.08
818.097	149.33
818.275	91.99
818.453	114.52
818.632	75.6
818.81	135
818.988	67.41
819.167	77.65
819.345	26.45
819.523	112.47
819.701	85.84
819.879	102.23
820.058	130.9
820.236	128.85
820.414	96.08
820.592	63.32
820.77	18.26
820.948	22.36
821.127	28.5
821.305	110.42
821.483	79.7
821.661	110.42
821.839	14.17
822.017	59.22
822.195	55.12
822.373	42.84
822.551	38.74
822.729	96.08
822.907	147.28
823.085	34.64
823.262	38.74
823.44	73.56
823.618	-6.31
823.796	38.74
823.974	108.37
824.152	85.84
824.329	87.89
824.507	151.38
824.685	102.23
824.863	112.47
825.04	108.37
825.218	143.19
825.396	79.7
825.574	110.42
825.751	110.42
825.929	89.94
826.107	22.36
826.284	104.28
826.462	73.56
826.639	55.12
826.817	20.31
826.994	89.94
827.172	12.12
827.349	59.22
827.527	48.98
827.704	135
827.882	94.04
828.059	147.28
828.237	69.46
828.414	128.85
828.591	91.99
828.769	55.12
828.946	112.47
829.124	71.51
829.301	42.84
829.478	81.75
829.655	59.22
829.833	108.37
830.01	124.76
830.187	69.46
830.364	28.5
830.542	26.45
830.719	83.8
830.896	71.51
831.073	120.66
831.25	83.8
831.427	55.12
831.604	122.71
831.782	96.08
831.959	-14.51
832.136	63.32
832.313	89.94
832.49	65.36
832.667	18.26
832.844	53.08
833.021	98.13
833.198	71.51
833.374	24.4
833.551	81.75
833.728	3.93
833.905	98.13
834.082	69.46
834.259	48.98
834.436	34.64
834.612	16.21
834.789	53.08
834.966	67.41
835.143	38.74
835.319	40.79
835.496	71.51
835.673	16.21
835.85	77.65
836.026	59.22
836.203	81.75
836.38	-30.89
836.556	38.74
836.733	42.84
836.909	104.28
837.086	46.93
837.262	-2.22
837.439	114.52
837.616	26.45
837.792	34.64
837.968	46.93
838.145	26.45
838.321	71.51
838.498	18.26
838.674	42.84
838.851	104.28
839.027	61.27
839.203	38.74
839.38	85.84
839.556	-8.36
839.732	94.04
839.909	26.45
840.085	83.8
840.261	77.65
840.437	40.79
840.614	69.46
840.79	85.84
840.966	32.6
841.142	110.42
841.318	42.84
841.494	38.74
841.671	102.23
841.847	48.98
842.023	3.93
842.199	42.84
842.375	28.5
842.551	26.45
842.727	110.42
842.903	100.18
843.079	10.07
843.255	59.22
843.431	5.97
843.607	65.36
843.783	30.55
843.959	-26.79
844.134	-28.84
844.31	65.36
844.486	12.12
844.662	106.32
844.838	75.6
845.013	24.4
845.189	10.07
845.365	55.12
845.541	-6.31
845.716	40.79
845.892	55.12
846.068	30.55
846.244	48.98
846.419	81.75
846.595	55.12
846.77	55.12
846.946	89.94
847.122	-20.65
847.297	75.6
847.473	1.88
847.648	-32.94
847.824	34.64
847.999	59.22
848.175	104.28
848.35	63.32
848.526	40.79
848.701	81.75
848.876	59.22
849.052	28.5
849.227	20.31
849.403	16.21
849.578	32.6
849.753	53.08
849.929	22.36
850.104	8.02
850.279	57.17
850.454	38.74
850.63	42.84
850.805	38.74
850.98	30.55
851.155	-12.46
851.33	73.56
851.505	48.98
851.681	59.22
851.856	-4.27
852.031	-32.94
852.206	59.22
852.381	34.64
852.556	1.88
852.731	36.69
852.906	10.07
853.081	26.45
853.256	-16.55
853.431	46.93
853.606	14.17
853.781	65.36
853.956	-18.6
854.131	-0.17
854.305	91.99
854.48	71.51
854.655	1.88
854.83	53.08
855.005	26.45
855.18	-8.36
855.354	59.22
855.529	28.5
855.704	-49.32
855.879	-16.55
856.053	12.12
856.228	30.55
856.403	57.17
856.577	34.64
856.752	20.31
856.926	55.12
857.101	32.6
857.276	10.07
857.45	46.93
857.625	28.5
857.799	1.88
857.974	28.5
858.148	18.26
858.323	-0.17
858.497	102.23
858.672	104.28
858.846	10.07
859.02	55.12
859.195	-22.7
859.369	18.26
859.543	-6.31
859.718	-6.31
859.892	63.32
860.066	100.18
860.241	63.32
860.415	61.27
860.589	24.4
860.763	61.27
860.938	-2.22
861.112	-8.36
861.286	55.12
861.46	63.32
861.634	51.03
861.808	-22.7
861.982	1.88
862.157	-10.41
862.331	10.07
862.505	-12.46
862.679	-18.6
862.853	22.36
863.027	38.74
863.201	18.26
863.375	30.55
863.549	3.93
863.722	100.18
863.896	48.98
864.07	-0.17
864.244	28.5
864.418	30.55
864.592	12.12
864.766	22.36
864.939	-39.08
865.113	-6.31
865.287	28.5
865.461	71.51
865.634	-2.22
865.808	12.12
865.982	71.51
866.156	8.02
866.329	46.93
866.503	-24.75
866.676	-32.94
866.85	18.26
867.024	-49.32
867.197	28.5
867.371	51.03
867.544	-51.37
867.718	-26.79
867.891	-6.31
868.065	-37.03
868.238	36.69
868.412	65.36
868.585	14.17
868.759	-0.17
868.932	-77.99
869.105	46.93
869.279	-12.46
869.452	42.84
869.625	38.74
869.799	-4.27
869.972	81.75
870.145	36.69
870.319	14.17
870.492	-14.51
870.665	-37.03
870.838	48.98
871.011	73.56
871.185	22.36
871.358	-14.51
871.531	-8.36
871.704	-45.23
871.877	-22.7
872.05	57.17
872.223	67.41
872.396	-90.28
872.569	-0.17
872.742	-6.31
872.915	-32.94
873.088	38.74
873.261	69.46
873.434	22.36
873.607	34.64
873.78	46.93
873.953	81.75
874.126	5.97
874.299	-34.99
874.471	51.03
874.644	-30.89
874.817	-4.27
874.99	30.55
875.163	8.02
875.335	67.41
875.508	114.52
875.681	73.56
875.853	36.69
876.026	-12.46
876.199	18.26
876.371	116.56
876.544	91.99
876.717	-45.23
876.889	-49.32
877.062	26.45
877.234	53.08
877.407	51.03
877.579	42.84
877.752	12.12
877.924	67.41
878.097	69.46
878.269	3.93
878.442	34.64
878.614	42.84
878.786	-8.36
878.959	3.93
879.131	46.93
879.303	1.88
879.476	-8.36
879.648	28.5
879.82	3.93
879.993	-14.51
880.165	69.46
880.337	3.93
880.509	32.6
880.681	20.31
880.854	-2.22
881.026	14.17
881.198	40.79
881.37	-12.46
881.542	26.45
881.714	-18.6
881.886	-14.51
882.058	-57.51
882.23	22.36
882.402	91.99
882.574	20.31
882.746	12.12
882.918	40.79
883.09	-41.13
883.262	69.46
883.434	24.4
883.606	51.03
883.778	77.65
883.95	12.12
884.122	5.97
884.293	32.6
884.465	18.26
884.637	34.64
884.809	63.32
884.98	-14.51
885.152	-51.37
885.324	89.94
885.496	-39.08
885.667	83.8
885.839	5.97
886.011	12.12
886.182	48.98
886.354	-0.17
886.525	14.17
886.697	-28.84
886.869	-37.03
887.04	73.56
887.212	63.32
887.383	14.17
887.555	16.21
887.726	12.12
887.897	32.6
888.069	38.74
888.24	104.28
888.412	20.31
888.583	51.03
888.754	12.12
888.926	-8.36
889.097	10.07
889.268	3.93
889.44	71.51
889.611	1.88
889.782	-0.17
889.953	3.93
890.125	61.27
890.296	36.69
890.467	-51.37
890.638	38.74
890.809	8.02
890.98	10.07
891.151	48.98
891.323	-24.75
891.494	-0.17
891.665	16.21
891.836	-10.41
892.007	-26.79
892.178	-26.79
892.349	-24.75
892.52	-2.22
892.691	1.88
892.862	-22.7
893.032	-0.17
893.203	73.56
893.374	-6.31
893.545	38.74
893.716	-34.99
893.887	63.32
894.057	46.93
894.228	20.31
894.399	30.55
894.57	89.94
894.74	-2.22
894.911	22.36
895.082	34.64
895.253	34.64
895.423	42.84
895.594	-34.99
895.764	-12.46
895.935	-0.17
896.106	-39.08
896.276	-43.18
896.447	30.55
896.617	57.17
896.788	16.21
896.958	-8.36
897.129	-75.95
897.299	28.5
897.47	24.4
897.64	32.6
897.81	26.45
897.981	-18.6
898.151	22.36
898.322	46.93
898.492	1.88
898.662	71.51
898.832	34.64
899.003	67.41
899.173	40.79
899.343	26.45
899.513	28.5
