Data from USB4F104151__116__13-55-01-307.txt Node

Date: Thu Mar 13 13:55:01 EDT 2025
User: louis
Spectrometer: USB4F10415
Trigger mode: 4
Integration Time (sec): 1.000000E-2
Scans to average: 1
Electric dark correction enabled: true
Nonlinearity correction enabled: false
Boxcar width: 0
XAxis mode: Wavelengths
Number of Pixels in Spectrum: 3648
>>>>>Begin Spectral Data<<<<<
178.204	-100.52
178.424	-100.52
178.644	-100.52
178.864	30.55
179.084	-8.36
179.304	12.12
179.524	38.74
179.744	36.69
179.964	5.97
180.184	22.36
180.404	-61.61
180.624	5.97
180.844	38.74
181.064	-53.42
181.283	-32.94
181.503	8.02
181.723	-20.65
181.943	32.6
182.163	36.69
182.383	8.02
182.602	14.17
182.822	18.26
183.042	8.02
183.262	-4.27
183.482	-69.8
183.701	-6.31
183.921	26.45
184.141	48.98
184.361	-8.36
184.58	38.74
184.8	38.74
185.02	-28.84
185.239	77.65
185.459	-0.17
185.679	-4.27
185.898	-12.46
186.118	75.6
186.338	63.32
186.557	-8.36
186.777	59.22
186.997	28.5
187.216	-34.99
187.436	18.26
187.655	-45.23
187.875	20.31
188.095	-37.03
188.314	-2.22
188.534	14.17
188.753	38.74
188.973	-22.7
189.192	-12.46
189.412	18.26
189.631	-20.65
189.851	53.08
190.07	10.07
190.29	-30.89
190.509	40.79
190.729	-24.75
190.948	-0.17
191.168	12.12
191.387	18.26
191.607	-43.18
191.826	-61.61
192.045	-53.42
192.265	-8.36
192.484	3.93
192.704	3.93
192.923	18.26
193.142	1.88
193.362	-32.94
193.581	8.02
193.8	-14.51
194.02	-0.17
194.239	34.64
194.458	-8.36
194.678	-16.55
194.897	8.02
195.116	-10.41
195.335	-16.55
195.555	-30.89
195.774	-16.55
195.993	38.74
196.212	32.6
196.432	-59.56
196.651	5.97
196.87	-10.41
197.089	48.98
197.308	24.4
197.528	73.56
197.747	-8.36
197.966	51.03
198.185	53.08
198.404	-12.46
198.623	30.55
198.842	24.4
199.062	42.84
199.281	-18.6
199.5	36.69
199.719	-6.31
199.938	-6.31
200.157	12.12
200.376	28.5
200.595	-16.55
200.814	36.69
201.033	20.31
201.252	44.88
201.471	38.74
201.69	36.69
201.909	-20.65
202.128	3.93
202.347	73.56
202.566	-24.75
202.785	-0.17
203.004	36.69
203.223	81.75
203.442	-6.31
203.661	26.45
203.879	14.17
204.098	14.17
204.317	61.27
204.536	48.98
204.755	-16.55
204.974	91.99
205.193	-10.41
205.411	51.03
205.63	-20.65
205.849	14.17
206.068	61.27
206.287	-2.22
206.505	-2.22
206.724	65.36
206.943	-24.75
207.162	-10.41
207.381	-30.89
207.599	1.88
207.818	-28.84
208.037	-41.13
208.255	-32.94
208.474	3.93
208.693	3.93
208.911	-4.27
209.13	65.36
209.349	-22.7
209.567	-0.17
209.786	-63.66
210.005	-0.17
210.223	-26.79
210.442	-43.18
210.661	-18.6
210.879	102.23
211.098	-61.61
211.316	-10.41
211.535	-2.22
211.753	-6.31
211.972	71.51
212.191	51.03
212.409	-49.32
212.628	-67.75
212.846	-34.99
213.065	38.74
213.283	32.6
213.502	-0.17
213.72	63.32
213.938	-45.23
214.157	-51.37
214.375	42.84
214.594	61.27
214.812	34.64
215.031	14.17
215.249	30.55
215.467	-30.89
215.686	36.69
215.904	44.88
216.122	3.93
216.341	-20.65
216.559	42.84
216.778	42.84
216.996	36.69
217.214	28.5
217.432	-22.7
217.651	-55.47
217.869	20.31
218.087	22.36
218.306	-32.94
218.524	59.22
218.742	-20.65
218.96	-22.7
219.179	-32.94
219.397	32.6
219.615	59.22
219.833	-51.37
220.051	-32.94
220.27	-12.46
220.488	-22.7
220.706	73.56
220.924	-8.36
221.142	14.17
221.36	-24.75
221.578	-18.6
221.796	8.02
222.015	98.13
222.233	-41.13
222.451	-8.36
222.669	-18.6
222.887	28.5
223.105	44.88
223.323	-43.18
223.541	-8.36
223.759	-32.94
223.977	14.17
224.195	57.17
224.413	40.79
224.631	-2.22
224.849	51.03
225.067	-0.17
225.285	12.12
225.503	46.93
225.721	14.17
225.939	10.07
226.157	59.22
226.375	75.6
226.592	1.88
226.81	-34.99
227.028	57.17
227.246	83.8
227.464	5.97
227.682	-8.36
227.9	59.22
228.117	30.55
228.335	87.89
228.553	-2.22
228.771	22.36
228.989	-39.08
229.206	16.21
229.424	-2.22
229.642	32.6
229.86	65.36
230.077	-45.23
230.295	57.17
230.513	34.64
230.731	34.64
230.948	46.93
231.166	57.17
231.384	-28.84
231.601	73.56
231.819	-4.27
232.037	71.51
232.254	-37.03
232.472	57.17
232.689	-2.22
232.907	-6.31
233.125	32.6
233.342	91.99
233.56	32.6
233.777	85.84
233.995	16.21
234.213	14.17
234.43	16.21
234.648	57.17
234.865	1.88
235.083	28.5
235.3	44.88
235.518	34.64
235.735	16.21
235.953	26.45
236.17	53.08
236.388	-0.17
236.605	-10.41
236.822	-6.31
237.04	24.4
237.257	73.56
237.475	3.93
237.692	-8.36
237.909	28.5
238.127	-10.41
238.344	-10.41
238.562	34.64
238.779	-41.13
238.996	-6.31
239.214	32.6
239.431	61.27
239.648	10.07
239.865	-2.22
240.083	-18.6
240.3	100.18
240.517	57.17
240.735	-28.84
240.952	-30.89
241.169	-24.75
241.386	18.26
241.603	12.12
241.821	73.56
242.038	18.26
242.255	-0.17
242.472	-32.94
242.689	22.36
242.907	3.93
243.124	89.94
243.341	32.6
243.558	81.75
243.775	-4.27
243.992	40.79
244.209	10.07
244.426	14.17
244.643	85.84
244.86	-39.08
245.078	34.64
245.295	12.12
245.512	10.07
245.729	-26.79
245.946	36.69
246.163	34.64
246.38	87.89
246.597	40.79
246.814	22.36
247.031	65.36
247.248	-8.36
247.464	28.5
247.681	22.36
247.898	71.51
248.115	-16.55
248.332	-63.66
248.549	34.64
248.766	32.6
248.983	1.88
249.2	40.79
249.417	-0.17
249.633	3.93
249.85	77.65
250.067	-2.22
250.284	24.4
250.501	20.31
250.717	-94.38
250.934	-0.17
251.151	32.6
251.368	24.4
251.585	16.21
251.801	10.07
252.018	-43.18
252.235	59.22
252.451	28.5
252.668	8.02
252.885	73.56
253.102	26.45
253.318	57.17
253.535	65.36
253.752	8.02
253.968	-16.55
254.185	73.56
254.401	-24.75
254.618	-2.22
254.835	44.88
255.051	71.51
255.268	8.02
255.484	30.55
255.701	-34.99
255.917	34.64
256.134	-12.46
256.351	40.79
256.567	-14.51
256.784	38.74
257	-18.6
257.217	36.69
257.433	40.79
257.65	24.4
257.866	53.08
258.082	-2.22
258.299	40.79
258.515	-16.55
258.732	26.45
258.948	5.97
259.165	-30.89
259.381	-8.36
259.597	-32.94
259.814	-4.27
260.03	24.4
260.246	42.84
260.463	16.21
260.679	12.12
260.895	83.8
261.112	61.27
261.328	51.03
261.544	14.17
261.761	30.55
261.977	-18.6
262.193	-14.51
262.409	124.76
262.626	12.12
262.842	-18.6
263.058	-37.03
263.274	38.74
263.49	-63.66
263.707	10.07
263.923	1.88
264.139	38.74
264.355	34.64
264.571	22.36
264.787	-47.27
265.004	48.98
265.22	-16.55
265.436	55.12
265.652	38.74
265.868	40.79
266.084	-2.22
266.3	22.36
266.516	8.02
266.732	-41.13
266.948	10.07
267.164	51.03
267.38	-0.17
267.596	61.27
267.812	53.08
268.028	36.69
268.244	55.12
268.46	-24.75
268.676	-43.18
268.892	1.88
269.108	30.55
269.324	75.6
269.54	-2.22
269.756	-8.36
269.972	-10.41
270.188	61.27
270.403	34.64
270.619	67.41
270.835	73.56
271.051	-16.55
271.267	-6.31
271.483	22.36
271.698	-18.6
271.914	-24.75
272.13	87.89
272.346	38.74
272.562	-2.22
272.777	44.88
272.993	61.27
273.209	-2.22
273.425	-59.56
273.64	151.38
273.856	48.98
274.072	51.03
274.287	30.55
274.503	30.55
274.719	22.36
274.934	28.5
275.15	8.02
275.366	85.84
275.581	18.26
275.797	34.64
276.012	75.6
276.228	-6.31
276.444	26.45
276.659	67.41
276.875	-14.51
277.09	46.93
277.306	22.36
277.521	-18.6
277.737	38.74
277.952	22.36
278.168	-20.65
278.383	-14.51
278.599	-24.75
278.814	20.31
279.03	-10.41
279.245	18.26
279.461	44.88
279.676	-0.17
279.892	61.27
280.107	-18.6
280.322	-22.7
280.538	-26.79
280.753	36.69
280.969	73.56
281.184	-14.51
281.399	100.18
281.615	-28.84
281.83	22.36
282.045	53.08
282.26	-49.32
282.476	-8.36
282.691	77.65
282.906	14.17
283.122	73.56
283.337	-24.75
283.552	-22.7
283.767	-39.08
283.983	30.55
284.198	24.4
284.413	-22.7
284.628	104.28
284.843	22.36
285.058	63.32
285.274	-39.08
285.489	-61.61
285.704	38.74
285.919	-65.71
286.134	-2.22
286.349	42.84
286.564	55.12
286.779	12.12
286.995	85.84
287.21	26.45
287.425	20.31
287.64	-14.51
287.855	34.64
288.07	42.84
288.285	10.07
288.5	34.64
288.715	55.12
288.93	34.64
289.145	8.02
289.36	16.21
289.575	51.03
289.79	-14.51
290.004	-0.17
290.219	-8.36
290.434	-30.89
290.649	28.5
290.864	48.98
291.079	-24.75
291.294	-4.27
291.509	36.69
291.724	1.88
291.938	26.45
292.153	-10.41
292.368	53.08
292.583	67.41
292.798	-32.94
293.012	5.97
293.227	-18.6
293.442	44.88
293.657	28.5
293.871	32.6
294.086	-22.7
294.301	22.36
294.516	-14.51
294.73	18.26
294.945	-41.13
295.16	8.02
295.374	-28.84
295.589	-30.89
295.804	91.99
296.018	61.27
296.233	55.12
296.447	5.97
296.662	-12.46
296.877	48.98
297.091	24.4
297.306	51.03
297.52	-47.27
297.735	24.4
297.949	20.31
298.164	24.4
298.378	53.08
298.593	-26.79
298.807	-24.75
299.022	55.12
299.236	18.26
299.451	42.84
299.665	30.55
299.88	65.36
300.094	12.12
300.309	40.79
300.523	-10.41
300.737	22.36
300.952	106.32
301.166	-69.8
301.381	53.08
301.595	59.22
301.809	26.45
302.024	53.08
302.238	32.6
302.452	-10.41
302.667	-6.31
302.881	65.36
303.095	34.64
303.309	48.98
303.524	-28.84
303.738	53.08
303.952	-63.66
304.166	57.17
304.381	-57.51
304.595	71.51
304.809	-10.41
305.023	-0.17
305.237	71.51
305.452	30.55
305.666	12.12
305.88	96.08
306.094	-0.17
306.308	-8.36
306.522	42.84
306.736	14.17
306.95	-20.65
307.164	79.7
307.379	-28.84
307.593	36.69
307.807	40.79
308.021	18.26
308.235	44.88
308.449	30.55
308.663	14.17
308.877	32.6
309.091	5.97
309.305	34.64
309.519	-32.94
309.733	-6.31
309.947	24.4
310.161	32.6
310.374	44.88
310.588	42.84
310.802	-71.85
311.016	-14.51
311.23	69.46
311.444	8.02
311.658	42.84
311.872	28.5
312.085	30.55
312.299	1.88
312.513	-39.08
312.727	79.7
312.941	10.07
313.154	1.88
313.368	-12.46
313.582	42.84
313.796	-26.79
314.009	-8.36
314.223	1.88
314.437	-12.46
314.651	-10.41
314.864	14.17
315.078	12.12
315.292	32.6
315.505	14.17
315.719	89.94
315.933	26.45
316.146	-0.17
316.36	-30.89
316.573	63.32
316.787	34.64
317.001	40.79
317.214	-10.41
317.428	-16.55
317.641	-30.89
317.855	85.84
318.068	30.55
318.282	44.88
318.495	18.26
318.709	57.17
318.922	-32.94
319.136	67.41
319.349	73.56
319.563	73.56
319.776	8.02
319.99	48.98
320.203	-63.66
320.417	30.55
320.63	-20.65
320.843	36.69
321.057	42.84
321.27	8.02
321.483	-22.7
321.697	63.32
321.91	65.36
322.124	-18.6
322.337	38.74
322.55	71.51
322.763	-32.94
322.977	22.36
323.19	38.74
323.403	46.93
323.617	36.69
323.83	-12.46
324.043	65.36
324.256	38.74
324.469	18.26
324.683	-20.65
324.896	34.64
325.109	63.32
325.322	-24.75
325.535	20.31
325.748	-0.17
325.962	71.51
326.175	10.07
326.388	63.32
326.601	36.69
326.814	8.02
327.027	-0.17
327.24	46.93
327.453	-45.23
327.666	69.46
327.879	34.64
328.092	55.12
328.305	26.45
328.518	55.12
328.731	-57.51
328.944	57.17
329.157	-24.75
329.37	-14.51
329.583	59.22
329.796	61.27
330.009	1.88
330.222	28.5
330.435	3.93
330.648	32.6
330.861	-12.46
331.073	55.12
331.286	32.6
331.499	-34.99
331.712	30.55
331.925	55.12
332.138	-34.99
332.35	83.8
332.563	-30.89
332.776	57.17
332.989	26.45
333.202	8.02
333.414	42.84
333.627	24.4
333.84	34.64
334.053	87.89
334.265	1.88
334.478	44.88
334.691	32.6
334.903	-8.36
335.116	34.64
335.329	55.12
335.541	59.22
335.754	40.79
335.966	73.56
336.179	-18.6
336.392	-2.22
336.604	73.56
336.817	16.21
337.029	81.75
337.242	34.64
337.454	69.46
337.667	26.45
337.88	16.21
338.092	24.4
338.305	22.36
338.517	24.4
338.729	44.88
338.942	5.97
339.154	16.21
339.367	61.27
339.579	-10.41
339.792	28.5
340.004	51.03
340.217	26.45
340.429	5.97
340.641	48.98
340.854	40.79
341.066	-10.41
341.278	-8.36
341.491	30.55
341.703	34.64
341.915	34.64
342.128	3.93
342.34	-80.04
342.552	30.55
342.764	8.02
342.977	-2.22
343.189	14.17
343.401	12.12
343.613	40.79
343.826	-2.22
344.038	26.45
344.25	1.88
344.462	28.5
344.674	18.26
344.886	22.36
345.099	55.12
345.311	24.4
345.523	30.55
345.735	-2.22
345.947	-28.84
346.159	57.17
346.371	71.51
346.583	51.03
346.795	-41.13
347.007	36.69
347.219	-34.99
347.431	12.12
347.643	79.7
347.855	98.13
348.067	8.02
348.279	36.69
348.491	16.21
348.703	91.99
348.915	77.65
349.127	-6.31
349.339	73.56
349.551	5.97
349.763	-34.99
349.975	114.52
350.187	53.08
350.399	32.6
350.61	81.75
350.822	-18.6
351.034	-24.75
351.246	53.08
351.458	12.12
351.669	-22.7
351.881	-14.51
352.093	18.26
352.305	14.17
352.517	-30.89
352.728	57.17
352.94	36.69
353.152	-12.46
353.363	16.21
353.575	44.88
353.787	-18.6
353.999	87.89
354.21	53.08
354.422	71.51
354.633	81.75
354.845	71.51
355.057	-53.42
355.268	32.6
355.48	42.84
355.692	1.88
355.903	24.4
356.115	53.08
356.326	44.88
356.538	130.9
356.749	-10.41
356.961	5.97
357.172	24.4
357.384	5.97
357.595	81.75
357.807	67.41
358.018	100.18
358.23	85.84
358.441	53.08
358.653	10.07
358.864	61.27
359.075	-22.7
359.287	-28.84
359.498	-12.46
359.709	10.07
359.921	42.84
360.132	81.75
360.344	51.03
360.555	32.6
360.766	69.46
360.977	-39.08
361.189	57.17
361.4	14.17
361.611	46.93
361.823	24.4
362.034	18.26
362.245	32.6
362.456	-30.89
362.667	-8.36
362.879	65.36
363.09	3.93
363.301	46.93
363.512	71.51
363.723	-0.17
363.935	44.88
364.146	79.7
364.357	36.69
364.568	104.28
364.779	57.17
364.99	77.65
365.201	120.66
365.412	20.31
365.623	-18.6
365.834	30.55
366.045	-16.55
366.256	46.93
366.467	116.56
366.678	16.21
366.889	-57.51
367.1	28.5
367.311	1.88
367.522	63.32
367.733	40.79
367.944	-22.7
368.155	-37.03
368.366	-2.22
368.577	5.97
368.788	73.56
368.999	-12.46
369.209	26.45
369.42	100.18
369.631	-22.7
369.842	-0.17
370.053	67.41
370.264	34.64
370.474	89.94
370.685	18.26
370.896	34.64
371.107	26.45
371.317	3.93
371.528	-4.27
371.739	69.46
371.95	3.93
372.16	57.17
372.371	-32.94
372.582	114.52
372.792	40.79
373.003	-10.41
373.214	79.7
373.424	32.6
373.635	48.98
373.846	89.94
374.056	89.94
374.267	-24.75
374.477	69.46
374.688	26.45
374.898	87.89
375.109	55.12
375.319	51.03
375.53	63.32
375.74	36.69
375.951	85.84
376.161	-34.99
376.372	42.84
376.582	32.6
376.793	48.98
377.003	1.88
377.214	71.51
377.424	40.79
377.635	24.4
377.845	-18.6
378.055	69.46
378.266	10.07
378.476	59.22
378.686	5.97
378.897	48.98
379.107	18.26
379.317	32.6
379.528	48.98
379.738	46.93
379.948	22.36
380.158	10.07
380.369	5.97
380.579	26.45
380.789	71.51
380.999	-16.55
381.21	34.64
381.42	20.31
381.63	48.98
381.84	94.04
382.05	32.6
382.261	106.32
382.471	145.24
382.681	59.22
382.891	77.65
383.101	151.38
383.311	26.45
383.521	53.08
383.731	12.12
383.941	63.32
384.151	-67.75
384.361	48.98
384.571	-39.08
384.781	30.55
384.991	53.08
385.201	1.88
385.411	75.6
385.621	89.94
385.831	22.36
386.041	71.51
386.251	40.79
386.461	-26.79
386.671	44.88
386.881	-10.41
387.091	-0.17
387.301	-10.41
387.511	55.12
387.72	44.88
387.93	83.8
388.14	42.84
388.35	48.98
388.56	10.07
388.769	83.8
388.979	-41.13
389.189	53.08
389.399	65.36
389.609	28.5
389.818	57.17
390.028	63.32
390.238	63.32
390.447	91.99
390.657	48.98
390.867	63.32
391.076	65.36
391.286	51.03
391.496	59.22
391.705	61.27
391.915	104.28
392.125	44.88
392.334	149.33
392.544	94.04
392.753	69.46
392.963	36.69
393.172	112.47
393.382	-37.03
393.591	83.8
393.801	89.94
394.01	22.36
394.22	124.76
394.429	110.42
394.639	40.79
394.848	91.99
395.058	89.94
395.267	128.85
395.477	65.36
395.686	10.07
395.895	124.76
396.105	46.93
396.314	34.64
396.524	130.9
396.733	73.56
396.942	65.36
397.152	141.14
397.361	110.42
397.57	94.04
397.78	51.03
397.989	63.32
398.198	94.04
398.407	112.47
398.617	147.28
398.826	51.03
399.035	81.75
399.244	94.04
399.453	87.89
399.663	194.39
399.872	145.24
400.081	85.84
400.29	94.04
400.499	106.32
400.708	120.66
400.917	110.42
401.127	100.18
401.336	40.79
401.545	57.17
401.754	14.17
401.963	48.98
402.172	114.52
402.381	128.85
402.59	155.47
402.799	130.9
403.008	94.04
403.217	145.24
403.426	141.14
403.635	114.52
403.844	137.04
404.053	161.62
404.262	112.47
404.471	87.89
404.68	192.34
404.888	171.86
405.097	71.51
405.306	169.81
405.515	141.14
405.724	178
405.933	175.95
406.142	153.43
406.35	233.3
406.559	169.81
406.768	128.85
406.977	175.95
407.185	151.38
407.394	139.09
407.603	182.1
407.812	223.06
408.02	202.58
408.229	298.83
408.438	247.63
408.646	237.39
408.855	270.16
409.064	251.73
409.272	307.02
409.481	245.59
409.69	257.87
409.898	300.88
410.107	307.02
410.315	321.36
410.524	382.8
410.733	409.42
410.941	292.69
411.15	288.59
411.358	309.07
411.567	444.24
411.775	403.28
411.984	298.83
412.192	411.47
412.401	386.9
412.609	415.57
412.818	470.86
413.026	481.1
413.234	552.78
413.443	444.24
413.651	474.96
413.86	530.25
414.068	597.84
414.276	581.45
414.485	661.32
414.693	700.23
414.901	644.94
415.11	726.86
415.318	716.62
415.526	692.04
415.734	735.05
415.943	763.72
416.151	786.25
416.359	798.54
416.567	814.92
416.776	974.66
416.984	968.52
417.192	868.17
417.4	993.09
417.608	884.55
417.817	1001.29
418.025	1126.21
418.233	1081.16
418.441	1052.49
418.649	1105.73
418.857	1279.81
419.065	1271.62
419.273	1314.63
419.481	1328.96
419.689	1386.3
419.897	1572.67
420.105	1554.24
420.313	1603.39
420.521	1507.13
420.729	1648.44
420.937	1693.5
421.145	1652.54
421.353	1799.99
421.561	2023.22
421.769	1988.41
421.977	1947.45
422.185	1955.64
422.393	2125.62
422.601	2256.69
422.809	2203.44
423.017	2279.22
423.224	2273.07
423.432	2395.95
423.64	2459.44
423.848	2604.85
424.056	2545.45
424.263	2934.57
424.471	2746.16
424.679	2832.17
424.887	3098.41
425.094	3096.36
425.302	3020.58
425.51	3338.02
425.718	3120.93
425.925	3389.22
426.133	3462.94
426.341	3696.41
426.548	3884.83
426.756	3852.06
426.964	3931.93
427.171	4103.96
427.379	4194.07
427.586	4448.02
427.794	4355.86
428.001	4488.98
428.209	4992.78
428.417	4763.4
428.624	5119.75
428.832	4960.01
429.039	5048.07
429.247	5152.52
429.454	5494.53
429.662	5885.69
429.869	5453.57
430.076	5965.56
430.284	5543.68
430.491	5979.9
430.699	6211.32
430.906	6424.31
431.114	6407.92
431.321	6653.68
431.528	6788.85
431.736	7200.49
431.943	7515.87
432.15	7376.61
432.358	7560.93
432.565	7775.97
432.772	7694.05
432.979	8185.56
433.187	8548.05
433.394	8357.59
433.601	8992.46
433.808	9135.82
434.016	8900.3
434.223	9391.81
434.43	9881.28
434.637	9647.81
434.844	10149.56
435.052	10598.07
435.259	10319.54
435.466	10225.34
435.673	10256.06
435.88	11179.69
436.087	11804.32
436.294	11622.05
436.501	11404.97
436.708	11708.07
436.915	11892.38
437.122	12750.48
437.329	12560.02
437.537	12918.42
437.743	13137.55
437.95	13151.88
438.157	13756.04
438.364	14151.29
438.571	14173.82
438.778	14188.16
438.985	15476.33
439.192	14653.05
439.399	15314.54
439.606	15011.44
439.813	15971.94
440.02	16791.13
440.227	16672.34
440.433	16531.03
440.64	17065.55
440.847	16596.57
441.054	17407.56
441.261	18366.01
441.467	18255.42
441.674	18603.58
441.881	19412.53
442.088	19156.53
442.294	18802.23
442.501	19594.79
442.708	19721.77
442.914	20502.04
443.121	21556.75
443.328	21200.4
443.534	22400.51
443.741	21771.79
443.948	21130.77
444.154	22982.13
444.361	22771.19
444.568	23207.41
444.774	23045.62
444.981	23326.19
445.187	23907.82
445.394	25103.83
445.6	24810.97
445.807	26932.67
446.013	25660.88
446.22	26213.83
446.426	27256.25
446.633	27893.16
446.839	28714.4
447.046	27502
447.252	29173.14
447.459	28710.3
447.665	28515.75
447.871	29992.33
448.078	31315.32
448.284	29781.39
448.491	30354.82
448.697	31729.01
448.903	32232.81
449.11	32109.93
449.316	32093.55
449.522	32542.05
449.728	33121.63
449.935	33611.09
450.141	33625.43
450.347	34639.17
450.553	32941.41
450.76	33449.3
450.966	34813.25
451.172	34112.84
451.378	34884.93
451.584	34415.94
451.791	35075.39
451.997	35280.19
452.203	35675.44
452.409	35585.33
452.615	35360.06
452.821	34383.18
453.027	33936.72
453.233	35380.54
453.44	33975.63
453.646	34657.6
453.852	34780.48
454.058	34915.65
454.264	34039.12
454.47	35022.14
454.676	34010.45
454.882	35415.35
455.088	32085.36
455.294	32320.87
455.5	32763.23
455.705	33535.32
455.911	32204.14
456.117	31399.29
456.323	31219.06
456.529	29099.42
456.735	30582.15
456.941	29869.45
457.147	29371.8
457.352	28573.09
457.558	28593.57
457.764	27874.73
457.97	27833.77
458.176	27067.83
458.381	27053.5
458.587	25572.82
458.793	25865.67
458.999	24464.86
459.204	26328.52
459.41	25462.22
459.616	23844.33
459.821	23877.1
460.027	23473.65
460.233	23387.63
460.438	21894.66
460.644	22304.26
460.85	21683.72
461.055	20977.17
461.261	20842.01
461.466	19473.96
461.672	19125.81
461.878	20239.9
462.083	18640.44
462.289	18476.6
462.494	18560.57
462.7	17397.32
462.905	17079.89
463.111	17776.2
463.316	17788.49
463.522	17296.97
463.727	17325.64
463.932	17346.12
464.138	17147.47
464.343	17397.32
464.549	16535.13
464.754	17215.05
464.959	17096.27
465.165	16729.69
465.37	16215.65
465.575	16068.19
465.781	16311.9
465.986	16637.53
466.191	15914.59
466.397	15683.17
466.602	14716.53
466.807	15570.54
467.012	15552.1
467.218	15124.08
467.423	15312.49
467.628	15287.92
467.833	15717.99
468.038	15443.56
468.244	14820.98
468.449	15271.53
468.654	14653.05
468.859	14894.71
469.064	14833.27
469.269	14151.29
469.474	14235.26
469.679	14560.89
469.885	14030.46
470.09	14407.29
470.295	14415.48
470.5	13975.17
470.705	14028.42
470.91	13655.68
471.115	13573.77
471.32	13672.07
471.525	13690.5
471.73	13274.76
471.935	13332.11
472.139	12983.95
472.344	13080.21
472.549	12961.42
472.754	12674.71
472.959	12504.73
473.164	12299.93
473.369	12043.93
473.574	12498.58
473.778	12132
473.983	12117.66
474.188	12097.18
474.393	11529.89
474.598	11744.93
474.802	11445.93
475.007	11531.94
475.212	11622.05
475.417	11284.14
475.621	11019.95
475.826	11126.44
476.031	11097.77
476.235	10686.13
476.44	10831.54
476.645	10641.07
476.849	10677.94
477.054	10426.04
477.259	10329.78
477.463	10337.98
477.668	10190.52
477.872	10086.08
478.077	9975.49
478.282	9674.43
478.486	9914.05
478.691	9795.26
478.895	9672.39
479.1	9664.19
479.304	9578.18
479.509	9371.33
479.713	9604.8
479.918	9338.57
480.122	9008.84
480.326	9297.61
480.531	9242.31
480.735	9238.22
480.94	9154.25
481.144	9287.37
481.348	8971.98
481.553	9002.7
481.757	8896.21
481.961	8904.4
482.166	9260.74
482.37	9174.73
482.574	8785.62
482.778	8888.01
482.983	8967.88
483.187	8879.82
483.391	8967.88
483.595	8789.71
483.8	8826.57
484.004	8756.94
484.208	8904.4
484.412	8967.88
484.616	8933.07
484.821	8969.93
485.025	8750.8
485.229	8828.62
485.433	8773.33
485.637	8900.3
485.841	8920.78
486.045	8756.94
486.249	9058
486.453	8777.42
486.657	8959.69
486.861	8916.69
487.065	8607.44
487.269	8931.02
487.473	8748.75
487.677	8908.49
487.881	8939.21
488.085	8703.7
488.289	8830.67
488.493	8754.9
488.697	8992.46
488.901	8828.62
489.105	8820.43
489.309	8851.15
489.512	9002.7
489.716	8951.5
489.92	8840.91
490.124	8969.93
490.328	9207.5
490.531	9033.42
490.735	8955.6
490.939	9180.87
491.143	8980.17
491.346	9174.73
491.55	9168.59
491.754	9090.76
491.958	9215.69
492.161	9301.7
492.365	9371.33
492.569	9400.01
492.772	9402.05
492.976	9447.11
493.18	9414.34
493.383	9578.18
493.587	9592.51
493.79	9699.01
493.994	9647.81
494.197	9793.22
494.401	9918.14
494.605	9651.91
494.808	9778.88
495.012	10059.45
495.215	10026.68
495.419	10188.47
495.622	10108.6
495.825	10356.41
496.029	10383.03
496.232	10593.97
496.436	10393.27
496.639	10874.54
496.843	10716.85
497.046	10892.98
497.249	10927.79
497.453	11196.07
497.656	11067.05
497.859	11249.32
498.063	11394.73
498.266	11523.75
498.469	11513.51
498.673	11779.75
498.876	11794.08
499.079	12066.46
499.282	12105.37
499.485	12322.46
499.689	12197.53
499.892	12519.06
500.095	12736.15
500.298	12816.02
500.501	12787.35
500.705	12877.46
500.908	13213.32
501.111	13268.62
501.314	13409.93
501.517	13840
501.72	13768.32
501.923	13782.66
502.126	14446.2
502.329	14376.57
502.532	14388.86
502.735	14464.63
502.938	14726.77
503.141	14800.5
503.344	15148.65
503.547	15218.29
503.75	15627.88
503.953	15613.54
504.156	15662.69
504.359	15904.35
504.562	15949.41
504.765	16178.78
504.968	16442.97
505.17	16674.39
505.373	16645.72
505.576	17237.58
505.779	17225.29
505.982	17301.07
506.185	17659.46
506.387	17725
506.59	18075.2
506.793	18634.3
506.996	18538.04
507.198	19029.55
507.401	18800.18
507.604	18959.92
507.807	19340.85
508.009	19371.57
508.212	19662.38
508.415	19969.57
508.617	20299.3
508.82	20170.27
509.022	20289.06
509.225	20911.64
509.428	20848.15
509.63	21208.59
509.833	21224.98
510.035	21661.19
510.238	21614.09
510.44	21990.92
510.643	22451.71
510.845	22414.85
511.048	22642.17
511.25	22709.75
511.453	22924.79
511.655	24186.34
511.858	23533.04
512.06	23928.3
512.262	24233.44
512.465	24180.2
512.667	24509.92
512.87	24743.39
513.072	25202.13
513.274	25552.34
513.477	26121.67
513.679	25841.1
513.881	26187.21
514.084	26623.42
514.286	26502.59
514.488	26672.57
514.69	27751.85
514.893	27665.84
515.095	27633.07
515.297	28020.14
515.499	28356
515.701	28808.61
515.904	28935.58
516.106	29085.08
516.308	29529.49
516.51	29590.93
516.712	29713.81
516.914	30604.67
517.116	30635.39
517.318	30713.22
517.52	30709.12
517.722	31014.27
517.925	31724.91
518.127	32273.77
518.329	32243.05
518.531	32015.72
518.733	32787.81
518.935	33275.23
519.136	33434.97
519.338	33404.25
519.54	33883.47
519.742	34262.35
519.944	34547.01
520.146	35112.25
520.348	35200.32
520.55	35257.66
520.752	35493.18
520.954	36052.27
521.155	35974.45
521.357	36422.95
521.559	36832.55
521.761	37500.19
521.963	37258.52
522.164	37559.58
522.366	37246.24
522.568	38044.94
522.77	38395.15
522.971	39056.64
523.173	38833.41
523.375	39132.42
523.576	38909.19
523.778	39449.85
523.98	40121.59
524.181	39892.21
524.383	40258.8
524.584	40514.8
524.786	40461.55
524.988	40529.13
525.189	41094.37
525.391	41612.51
525.592	41194.72
525.794	41442.52
525.995	41651.42
526.197	41608.41
526.398	42079.44
526.6	42470.61
526.801	42628.3
527.003	42763.46
527.204	43199.68
527.406	43265.22
527.607	43388.1
527.808	43431.1
528.01	42890.44
528.211	43103.43
528.412	44086.45
528.614	43709.63
528.815	43764.92
529.016	44293.3
529.218	43955.38
529.419	44221.62
529.62	44430.51
529.822	44270.77
530.023	44561.58
530.224	44440.75
530.425	44465.33
530.626	44356.78
530.828	44330.16
531.029	45517.98
531.23	44649.64
531.431	44618.92
531.632	44985.51
531.833	45677.72
532.035	45079.72
532.236	45401.25
532.437	45272.23
532.638	45360.29
532.839	45272.23
533.04	45655.2
533.241	45393.06
533.442	46277.78
533.643	45649.05
533.844	45532.32
534.045	45466.78
534.246	45384.86
534.447	46060.69
534.648	45655.2
534.849	45946.01
535.05	45735.07
535.251	45913.24
535.451	45169.83
535.652	46138.52
535.853	46220.44
536.054	45804.7
536.255	45874.33
536.456	45659.29
536.657	46486.67
536.857	45712.54
537.058	45894.81
537.259	46589.07
537.46	46087.32
537.66	45726.88
537.861	45681.82
538.062	46070.93
538.263	45782.17
538.463	46007.45
538.664	45735.07
538.865	46273.68
539.065	45923.48
539.266	45403.3
539.466	46220.44
539.667	45546.65
539.868	46093.46
540.068	45929.62
540.269	45837.47
540.469	46017.69
540.67	45769.88
540.87	45950.1
541.071	45610.14
541.271	46142.61
541.472	45679.77
541.672	45618.33
541.873	45722.78
542.073	45038.76
542.274	46271.64
542.474	45974.68
542.675	45696.16
542.875	46257.3
543.075	45968.54
543.276	45300.9
543.476	46208.15
543.676	45579.42
543.877	45845.66
544.077	45989.02
544.277	45714.59
544.478	45567.13
544.678	45579.42
544.878	45628.57
545.078	45735.07
545.279	45503.65
545.479	45792.41
545.679	45696.16
545.879	45560.99
546.079	45950.1
546.28	45960.34
546.48	45427.87
546.68	45610.14
546.88	46017.69
547.08	45905.05
547.28	45116.58
547.48	45593.76
547.68	45724.83
547.88	45341.86
548.081	46046.36
548.281	45720.73
548.481	45462.69
548.681	45999.26
548.881	45792.41
549.081	45264.03
549.28	45243.55
549.48	45790.36
549.68	45530.27
549.88	46089.37
550.08	44883.11
550.28	45636.76
550.48	45622.43
550.68	45698.2
550.88	44838.06
551.08	45632.67
551.279	45558.94
551.479	45278.37
551.679	45001.89
551.879	45505.69
552.079	45614.24
552.278	45335.71
552.478	45659.29
552.678	45444.26
552.878	45505.69
553.077	44926.12
553.277	44876.97
553.477	45354.15
553.676	44793
553.876	45188.26
554.076	44803.24
554.275	44719.27
554.475	44582.06
554.674	45251.75
554.874	45331.62
555.074	44639.4
555.273	44897.45
555.473	45012.13
555.672	44352.69
555.872	44737.71
556.071	44491.95
556.271	45032.61
556.47	44643.5
556.67	44268.72
556.869	44514.48
557.068	45003.94
557.268	44194.99
557.467	44600.49
557.667	44537.01
557.866	44379.31
558.065	44197.04
558.265	44178.61
558.464	44172.47
558.663	44590.25
558.863	43599.04
559.062	44440.75
559.261	43910.33
559.461	44235.95
559.66	43594.94
559.859	43578.56
560.058	43420.86
560.258	43902.14
560.457	43117.76
560.656	43908.28
560.855	43422.91
561.054	43562.17
561.253	43035.84
561.453	43257.03
561.652	43367.62
561.851	43240.64
562.05	42644.68
562.249	43187.39
562.448	43396.29
562.647	43207.87
562.846	43117.76
563.045	43273.41
563.244	42806.47
563.443	42775.75
563.642	42274
563.841	42790.09
564.04	42511.56
564.239	42800.33
564.438	42120.4
564.637	42542.28
564.836	42579.15
565.035	41868.5
565.234	42329.3
565.432	41643.23
565.631	42120.4
565.83	41837.78
566.029	41405.66
566.228	41639.13
566.427	41747.67
566.625	41413.85
566.824	41407.71
567.023	41719
567.222	40934.63
567.42	41841.88
567.619	41227.49
567.818	41047.27
568.016	40926.44
568.215	41284.83
568.414	41116.9
568.612	41383.13
568.811	40826.09
569.01	40727.78
569.208	40170.74
569.407	40928.48
569.605	39791.86
569.804	40781.03
570.002	40414.44
570.201	40393.96
570.4	40097.01
570.598	39607.54
570.797	39728.38
570.995	39435.52
571.193	39062.79
571.392	39668.98
571.59	39349.5
571.789	39531.77
571.987	39230.72
572.186	39523.58
572.384	38950.15
572.582	39283.97
572.781	39054.59
572.979	38290.7
573.177	38636.81
573.376	38741.25
573.574	38548.75
573.772	38493.45
573.971	38456.59
574.169	38284.56
574.367	37621.02
574.565	38475.02
574.763	38065.42
574.962	37901.59
575.16	37336.35
575.358	37917.97
575.556	37664.02
575.754	37860.63
575.952	37045.54
576.151	37434.65
576.349	37053.73
576.547	37172.51
576.745	36898.08
576.943	37229.85
577.141	36726.05
577.339	36777.25
577.537	36496.68
577.735	36506.92
577.933	36259.12
578.131	36443.43
578.329	35818.8
578.527	35910.96
578.725	36089.13
578.923	36052.27
579.121	35880.24
579.319	35892.53
579.516	35943.73
579.714	35591.48
579.912	35362.11
580.11	35370.3
580.308	35308.86
580.506	35335.48
580.704	34446.66
580.901	34878.79
581.099	34899.26
581.297	34819.39
581.495	34899.26
581.692	34489.67
581.89	34331.98
582.088	34364.74
582.285	34319.69
582.483	34377.03
582.681	34381.13
582.878	34211.15
583.076	33547.61
583.274	34141.52
583.471	33424.73
583.669	33758.55
583.866	33312.09
584.064	33985.87
584.262	33281.37
584.459	33764.69
584.657	33068.38
584.854	33580.37
585.052	32552.29
585.249	32879.97
585.447	32941.41
585.644	32578.92
585.841	32761.19
586.039	32544.1
586.236	32169.32
586.434	32570.72
586.631	31929.71
586.828	32120.17
587.026	32267.62
587.223	32142.7
587.42	31985.01
587.618	32116.08
587.815	31487.35
588.012	31507.83
588.21	31454.58
588.407	31626.61
588.604	31079.8
588.801	31389.05
588.999	31286.65
589.196	31065.47
589.393	31016.32
589.59	31243.64
589.787	30739.84
589.984	30688.64
590.182	30610.82
590.379	30817.66
590.576	30430.6
590.773	30565.76
590.97	30164.36
591.167	30567.81
591.364	29916.56
591.561	30162.31
591.758	29810.06
591.955	29666.7
592.152	30145.93
592.349	30012.81
592.546	29506.96
592.743	29562.26
592.94	29320.6
593.137	29517.2
593.334	29541.78
593.531	29042.07
593.727	29255.06
593.924	29261.21
594.121	28956.06
594.318	29511.06
594.515	28419.49
594.712	28794.27
594.908	28368.29
595.105	28515.75
595.302	28218.79
595.499	28591.52
595.696	28319.14
595.892	28261.8
596.089	28265.89
596.286	28253.61
596.482	27975.08
596.679	27925.93
596.876	27909.55
597.072	27950.51
597.269	27829.68
597.466	27477.43
597.662	27467.19
597.859	27471.28
598.055	27401.65
598.252	27338.16
598.448	27151.8
598.645	26877.37
598.841	26658.24
599.038	27254.2
599.234	27211.19
599.431	26463.68
599.627	26908.09
599.824	26863.04
600.02	26596.8
600.217	26738.11
600.413	26494.4
600.609	26394.05
600.806	25820.62
601.002	26230.21
601.198	26131.91
601.395	25880.01
601.591	25773.52
601.787	25830.86
601.984	25847.24
602.18	26017.22
602.376	26056.14
602.572	25689.55
602.769	25241.04
602.965	25380.31
603.161	25189.84
603.357	25114.07
603.553	25312.72
603.75	25052.63
603.946	25048.54
604.142	24968.66
604.338	24630.75
604.534	24815.07
604.73	24415.71
604.926	24643.04
605.122	24638.94
605.318	24522.21
605.514	24141.28
605.71	24169.96
605.906	24057.32
606.102	24124.9
606.298	24079.85
606.494	23848.43
606.69	23901.67
606.886	24344.03
607.082	23903.72
607.278	24030.69
607.474	23524.85
607.67	23707.12
607.866	23453.17
608.062	23817.71
608.257	23363.06
608.453	23455.22
608.649	23295.47
608.845	22939.13
609.041	23219.7
609.236	23133.68
609.432	22617.6
609.628	22846.97
609.824	22783.48
610.019	22744.57
610.215	22730.23
610.411	22871.54
610.606	22369.79
610.802	22521.34
610.998	22521.34
611.193	22517.25
611.389	22441.47
611.584	22369.79
611.78	21939.72
611.976	22083.08
612.171	22175.23
612.367	22101.51
612.562	21978.63
612.758	21863.94
612.953	21581.32
613.149	22091.27
613.344	21517.84
613.539	21933.57
613.735	21849.61
613.93	21657.1
614.126	21749.26
614.321	21812.74
614.517	21540.36
614.712	21284.37
614.907	21065.24
615.103	21356.05
615.298	21362.19
615.493	21530.12
615.688	20981.27
615.884	21542.41
616.079	21136.91
616.274	20973.08
616.47	20741.66
616.665	21153.3
616.86	20821.53
617.055	20981.27
617.25	20565.53
617.445	20801.05
617.641	20209.18
617.836	20631.07
618.031	20223.52
618.226	20665.88
618.421	20278.82
618.616	20448.8
618.811	20143.65
619.006	20579.87
619.201	19852.84
619.396	20022.82
619.591	19600.94
619.786	19727.91
619.981	19412.53
620.176	19736.1
620.371	19674.67
620.566	19435.05
620.761	19312.17
620.956	19539.5
621.151	19019.32
621.346	19152.43
621.541	18957.88
621.735	19060.27
621.93	18503.23
622.125	18845.24
622.32	18605.63
622.515	18703.93
622.709	18601.53
622.904	18589.24
623.099	18120.26
623.294	18312.77
623.488	18144.83
623.683	17929.8
623.878	17776.2
624.072	18071.11
624.267	17786.44
624.462	17587.78
624.656	17434.19
624.851	17415.76
625.046	17311.31
625.24	17387.08
625.435	16971.35
625.629	17098.32
625.824	16741.97
626.018	16907.86
626.213	16283.23
626.407	16719.45
626.602	16465.5
626.796	16467.55
626.991	16313.95
627.185	16412.25
627.38	16537.18
627.574	16172.64
627.768	15912.55
627.963	16111.2
628.157	16025.18
628.352	15787.62
628.546	15580.78
628.74	15791.72
628.935	15687.27
629.129	15523.43
629.323	15267.44
629.517	15578.73
629.712	15498.86
629.906	15277.68
630.1	14892.66
630.294	15199.85
630.489	14827.12
630.683	15251.05
630.877	14714.48
631.071	14947.95
631.265	14659.19
631.459	14374.52
631.653	14405.24
631.848	14485.11
632.042	14276.22
632.236	14671.48
632.43	14194.3
632.624	14335.61
632.818	13979.26
633.012	14007.94
633.206	13960.83
633.4	14116.48
633.594	13725.32
633.788	13774.47
633.982	13721.22
634.176	13573.77
634.369	13362.83
634.563	13563.53
634.757	13221.52
634.951	13424.26
635.145	13242
635.339	13172.36
635.533	13119.12
635.726	12897.94
635.92	12945.04
636.114	12850.83
636.308	12869.26
636.501	13004.43
636.695	12568.21
636.889	12764.82
637.083	12609.17
637.276	12500.63
637.47	12431
637.664	12304.03
637.857	12342.94
638.051	12412.57
638.244	12383.9
638.438	11947.68
638.632	11951.77
638.825	11810.47
639.019	12066.46
639.212	11761.31
639.406	11892.38
639.599	11755.17
639.793	11611.81
639.986	11327.14
640.18	11681.44
640.373	11847.33
640.567	11382.44
640.76	11536.04
640.954	11415.21
641.147	11169.45
641.34	10997.42
641.534	10972.85
641.727	11136.68
641.92	10981.04
642.114	10634.93
642.307	10772.14
642.5	10895.02
642.694	10700.47
642.887	10452.66
643.08	10806.96
643.273	10579.64
643.467	10485.43
643.66	10311.35
643.853	10483.38
644.046	10133.18
644.239	10204.86
644.432	10026.68
644.626	10135.23
644.819	10159.8
645.012	9998.01
645.205	9891.52
645.398	9881.28
645.591	9553.6
645.784	9809.6
645.977	9547.46
646.17	9504.45
646.363	9551.56
646.556	9295.56
646.749	9635.52
646.942	9465.54
647.135	9518.79
647.328	9416.39
647.521	9377.48
647.714	9133.77
647.907	9311.94
648.099	9191.11
648.292	9080.52
648.485	8871.63
648.678	8797.9
648.871	8842.96
649.064	8957.64
649.256	8744.66
649.449	8773.33
649.642	8785.62
649.835	8658.64
650.027	8675.02
650.22	8351.45
650.413	8640.21
650.605	8369.88
650.798	8376.02
650.991	8236.76
651.183	8263.38
651.376	8214.23
651.568	8222.42
651.761	8091.35
651.954	8210.14
652.146	8146.65
652.339	7945.95
652.531	7968.48
652.724	7915.23
652.916	7681.76
653.109	7818.97
653.301	7763.68
653.494	7806.69
653.686	7642.85
653.879	7775.97
654.071	7505.63
654.263	7569.12
654.456	7499.49
654.648	7591.65
654.84	7487.2
655.033	7210.73
655.225	7343.85
655.417	7220.97
655.61	7397.09
655.802	7329.51
655.994	7196.39
656.186	7061.23
656.379	7309.03
656.571	7147.24
656.763	6897.39
656.955	6985.45
657.148	6835.95
657.34	6993.64
657.532	6706.93
657.724	6760.17
657.916	6706.93
658.108	6801.13
658.3	6684.4
658.492	6653.68
658.684	6629.1
658.876	6543.09
659.068	6481.65
659.26	6395.64
659.452	6498.03
659.644	6465.27
659.836	6418.16
660.028	6385.4
660.22	6334.2
660.412	6399.73
660.604	6207.22
660.796	6145.78
660.988	6031.1
661.18	6029.05
661.372	5971.71
661.563	6016.76
661.755	6031.1
661.947	6151.93
662.139	5969.66
662.331	5846.78
662.522	5723.9
662.714	5869.31
662.906	5762.81
663.097	5830.4
663.289	5719.81
663.481	5607.17
663.673	5650.18
663.864	5545.73
664.056	5568.26
664.247	5609.22
664.439	5422.85
664.631	5398.27
664.822	5555.97
665.014	5351.17
665.205	5324.55
665.397	5496.58
665.588	5269.25
665.78	5328.64
665.971	5220.1
666.163	5293.83
666.354	5197.57
666.546	5287.68
666.737	4945.67
666.929	5175.05
667.12	5138.18
667.311	5013.26
667.503	4947.72
667.694	5084.94
667.885	4933.39
668.077	4790.03
668.268	4925.19
668.459	4988.68
668.651	4988.68
668.842	4869.9
669.033	4851.47
669.224	4843.28
669.416	4882.19
669.607	4720.4
669.798	4757.26
669.989	4683.53
670.18	4675.34
670.371	4601.62
670.563	4753.16
670.754	4456.21
670.945	4529.94
671.136	4572.94
671.327	4431.63
671.518	4650.77
671.709	4458.26
671.9	4525.84
672.091	4482.83
672.282	4390.67
672.473	4388.63
672.664	4415.25
672.855	4427.54
673.046	4349.71
673.237	4353.81
673.428	4312.85
673.619	4298.52
673.809	4400.91
674	4179.73
674.191	4224.79
674.382	4200.21
674.573	4173.59
674.764	4169.49
674.954	4198.17
675.145	4060.95
675.336	4081.43
675.527	4146.97
675.717	4003.61
675.908	3987.22
676.099	4194.07
676.289	3983.13
676.48	4122.39
676.671	3931.93
676.861	4024.09
677.052	3962.65
677.243	3886.87
677.433	3950.36
677.624	3938.07
677.814	3893.02
678.005	4036.38
678.195	4048.66
678.386	3743.52
678.576	3880.73
678.767	3804.96
678.957	3792.67
679.148	3981.08
679.338	3839.77
679.529	3768.09
679.719	3733.28
679.909	3794.72
680.1	3780.38
680.29	3737.37
680.481	3696.41
680.671	3700.51
680.861	3661.6
681.052	3725.08
681.242	3596.06
681.432	3651.36
681.622	3649.31
681.813	3510.05
682.003	3602.21
682.193	3542.82
682.383	3520.29
682.573	3555.1
682.764	3508
682.954	3391.27
683.144	3446.56
683.334	3571.49
683.524	3452.7
683.714	3481.38
683.904	3505.95
684.094	3426.08
684.284	3458.85
684.474	3514.14
684.664	3415.84
684.854	3520.29
685.044	3495.71
685.234	3350.31
685.424	3391.27
685.614	3389.22
685.804	3327.78
685.994	3295.01
686.184	3354.4
686.374	3440.42
686.564	3241.76
686.753	3323.68
686.943	3223.33
687.133	3331.87
687.323	3360.55
687.513	3374.88
687.702	3170.08
687.892	3151.65
688.082	3225.38
688.272	3153.7
688.461	3125.03
688.651	3112.74
688.841	3151.65
689.03	3151.65
689.22	3225.38
689.41	3237.67
689.599	3180.32
689.789	3135.27
689.979	3202.85
690.168	3131.17
690.358	3055.4
690.547	3051.3
690.737	3125.03
690.926	3211.04
691.116	3051.3
691.305	3077.93
691.495	3079.97
691.684	3155.75
691.874	3116.84
692.063	3061.54
692.252	2977.58
692.442	3018.54
692.631	2985.77
692.82	3159.85
693.01	3014.44
693.199	3024.68
693.388	3020.58
693.578	3055.4
693.767	2916.14
693.956	2879.27
694.146	2920.23
694.335	2953
694.524	3036.97
694.713	2922.28
694.902	2979.62
695.092	3004.2
695.281	2938.66
695.47	2897.71
695.659	2971.43
695.848	2869.03
696.037	2998.06
696.226	2920.23
696.415	3071.78
696.604	2930.47
696.793	2897.71
696.982	2875.18
697.171	2885.42
697.36	2957.1
697.549	2959.14
697.738	2862.89
697.927	2785.07
698.116	2830.12
698.305	2873.13
698.494	2897.71
698.683	2899.75
698.872	2981.67
699.061	2803.5
699.25	2805.55
699.438	2887.47
699.627	2776.87
699.816	2754.35
700.005	2791.21
700.193	2682.67
700.382	2959.14
700.571	2926.38
700.76	2783.02
700.948	2959.14
701.137	2768.68
701.326	2850.6
701.514	2701.1
701.703	2842.41
701.892	2772.78
702.08	2799.4
702.269	2815.79
702.457	2713.39
702.646	2787.11
702.834	2774.83
703.023	2725.68
703.212	2668.33
703.4	2785.07
703.589	2856.75
703.777	2746.16
703.965	2733.87
704.154	2627.37
704.342	2684.72
704.531	2610.99
704.719	2613.04
704.907	2645.8
705.096	2549.55
705.284	2656.04
705.472	2684.72
705.661	2647.85
705.849	2742.06
706.037	2674.48
706.226	2729.77
706.414	2627.37
706.602	2610.99
706.79	2637.61
706.979	2522.93
707.167	2701.1
707.355	2635.57
707.543	2508.59
707.731	2606.89
707.919	2606.89
708.107	2553.65
708.296	2527.02
708.484	2459.44
708.672	2537.26
708.86	2553.65
709.048	2529.07
709.236	2402.1
709.424	2471.73
709.612	2465.58
709.8	2420.53
709.988	2428.72
710.176	2455.34
710.364	2479.92
710.551	2406.19
710.739	2477.87
710.927	2408.24
711.115	2432.82
711.303	2494.26
711.491	2512.69
711.679	2416.43
711.866	2367.28
712.054	2414.38
712.242	2287.41
712.43	2285.36
712.617	2420.53
712.805	2354.99
712.993	2291.51
713.181	2242.36
713.368	2268.98
713.556	2316.08
713.744	2142
713.931	2273.07
714.119	2287.41
714.306	2252.59
714.494	2150.2
714.682	2293.55
714.869	2154.29
715.057	2248.5
715.244	2164.53
715.432	2201.4
715.619	2273.07
715.807	2189.11
715.994	2182.96
716.182	2236.21
716.369	2250.55
716.556	2228.02
716.744	2113.33
716.931	2121.52
717.119	2203.44
717.306	2058.04
717.493	2006.84
717.681	2033.46
717.868	2086.71
718.055	2099
718.242	2000.69
718.43	1998.65
718.617	2072.37
718.804	2049.85
718.991	2047.8
719.179	1949.5
719.366	2023.22
719.553	2117.43
719.74	1986.36
719.927	2029.37
720.114	1992.5
720.301	1896.25
720.488	1955.64
720.676	1916.73
720.863	1877.82
721.05	2039.61
721.237	2006.84
721.424	2004.79
721.611	2039.61
721.798	1861.43
721.985	1845.05
722.172	1861.43
722.358	1877.82
722.545	1898.3
722.732	1894.2
722.919	1840.95
723.106	1920.82
723.293	1843
723.48	1974.07
723.667	1726.27
723.853	1773.37
724.04	1791.8
724.227	1756.99
724.414	1754.94
724.6	1750.84
724.787	1781.56
724.974	1855.29
725.161	1699.64
725.347	1820.47
725.534	1699.64
725.72	1709.88
725.907	1695.55
726.094	1756.99
726.28	1763.13
726.467	1785.66
726.653	1711.93
726.84	1781.56
727.027	1795.9
727.213	1578.81
727.4	1535.81
727.586	1806.14
727.773	1638.2
727.959	1713.98
728.145	1664.83
728.332	1693.5
728.518	1652.54
728.705	1697.6
728.891	1560.38
729.077	1679.16
729.264	1552.19
729.45	1691.45
729.636	1609.53
729.823	1564.48
730.009	1646.4
730.195	1627.96
730.382	1558.33
730.568	1587.01
730.754	1537.85
730.94	1660.73
731.126	1570.62
731.313	1554.24
731.499	1552.19
731.685	1529.66
731.871	1494.85
732.057	1515.33
732.243	1441.6
732.429	1531.71
732.615	1505.09
732.801	1537.85
732.987	1521.47
733.173	1523.52
733.359	1484.61
733.545	1496.89
733.731	1392.45
733.917	1503.04
734.103	1437.5
734.289	1431.36
734.475	1500.99
734.661	1457.98
734.847	1431.36
735.033	1476.41
735.219	1417.02
735.404	1476.41
735.59	1396.54
735.776	1445.7
735.962	1445.7
736.148	1505.09
736.333	1386.3
736.519	1439.55
736.705	1417.02
736.89	1406.78
737.076	1398.59
737.262	1333.06
737.447	1357.63
737.633	1312.58
737.819	1414.98
738.004	1359.68
738.19	1388.35
738.375	1369.92
738.561	1343.3
738.747	1335.1
738.932	1343.3
739.118	1410.88
739.303	1279.81
739.489	1335.1
739.674	1224.51
739.859	1275.71
740.045	1320.77
740.23	1251.14
740.416	1288
740.601	1302.34
740.786	1273.67
740.972	1281.86
741.157	1193.8
741.342	1247.04
741.528	1296.19
741.713	1171.27
741.898	1158.98
742.084	1249.09
742.269	1195.84
742.454	1218.37
742.639	1228.61
742.824	1158.98
743.01	1201.99
743.195	1181.51
743.38	1199.94
743.565	1152.84
743.75	1126.21
743.935	1085.25
744.12	1236.8
744.305	1212.23
744.49	1097.54
744.675	1132.36
744.86	1083.2
745.045	1079.11
745.23	1095.49
745.415	1187.65
745.6	1058.63
745.785	1009.48
745.97	1175.36
746.155	1089.35
746.34	1161.03
746.525	1052.49
746.71	1081.16
746.895	1023.81
747.079	1054.53
747.264	1040.2
747.449	1062.73
747.634	1060.68
747.819	984.9
748.003	956.23
748.188	950.09
748.373	1003.33
748.557	1021.77
748.742	980.81
748.927	1034.05
749.111	1040.2
749.296	874.31
749.481	1034.05
749.665	939.85
749.85	1085.25
750.034	931.66
750.219	939.85
750.404	1040.2
750.588	984.9
750.773	991.05
750.957	950.09
751.141	905.03
751.326	964.42
751.51	923.46
751.695	888.65
751.879	810.82
752.064	898.89
752.248	876.36
752.432	894.79
752.617	952.13
752.801	980.81
752.985	935.75
753.17	833.35
753.354	825.16
753.538	823.11
753.722	886.6
753.907	907.08
754.091	837.45
754.275	859.98
754.459	825.16
754.643	851.78
754.828	829.26
755.012	778.06
755.196	792.39
755.38	847.69
755.564	728.91
755.748	767.82
755.932	823.11
756.116	796.49
756.3	753.48
756.484	870.22
756.668	730.95
756.852	638.8
757.036	771.91
757.22	692.04
757.404	716.62
757.588	823.11
757.772	733
757.956	745.29
758.14	689.99
758.323	747.34
758.507	722.76
758.691	763.72
758.875	730.95
759.059	700.23
759.242	640.84
759.426	728.91
759.61	677.71
759.794	655.18
759.977	679.75
760.161	694.09
760.345	659.28
760.528	667.47
760.712	675.66
760.895	610.12
761.079	741.19
761.263	630.6
761.446	601.93
761.63	612.17
761.813	593.74
761.997	601.93
762.18	563.02
762.364	612.17
762.547	663.37
762.731	608.08
762.914	659.28
763.098	606.03
763.281	552.78
763.464	710.47
763.648	630.6
763.831	649.04
764.015	556.88
764.198	630.6
764.381	616.27
764.564	597.84
764.748	509.77
764.931	634.7
765.114	581.45
765.297	665.42
765.481	612.17
765.664	567.12
765.847	626.51
766.03	550.73
766.213	589.64
766.397	565.07
766.58	634.7
766.763	546.64
766.946	509.77
767.129	544.59
767.312	573.26
767.495	579.4
767.678	593.74
767.861	589.64
768.044	644.94
768.227	491.34
768.41	505.68
768.593	597.84
768.776	501.58
768.959	515.92
769.142	524.11
769.324	444.24
769.507	573.26
769.69	569.16
769.873	509.77
770.056	552.78
770.239	581.45
770.421	614.22
770.604	513.87
770.787	571.21
770.97	446.29
771.152	483.15
771.335	571.21
771.518	470.86
771.7	595.79
771.883	481.1
772.066	509.77
772.248	436.05
772.431	493.39
772.613	452.43
772.796	542.54
772.978	532.3
773.161	501.58
773.343	513.87
773.526	440.14
773.708	565.07
773.891	526.16
774.073	487.25
774.256	399.18
774.438	499.53
774.621	477.01
774.803	446.29
774.985	507.73
775.168	483.15
775.35	440.14
775.532	499.53
775.715	483.15
775.897	472.91
776.079	448.33
776.261	423.76
776.444	429.9
776.626	452.43
776.808	417.61
776.99	454.48
777.173	419.66
777.355	372.56
777.537	434
777.719	434
777.901	417.61
778.083	401.23
778.265	495.44
778.447	438.09
778.629	417.61
778.811	395.09
778.993	431.95
779.175	378.7
779.357	399.18
779.539	399.18
779.721	364.37
779.903	378.7
780.085	341.84
780.267	364.37
780.449	419.66
780.631	421.71
780.812	298.83
780.994	444.24
781.176	317.26
781.358	362.32
781.54	317.26
781.721	386.9
781.903	347.98
782.085	335.7
782.267	388.94
782.448	288.59
782.63	327.5
782.812	395.09
782.993	388.94
783.175	352.08
783.357	307.02
783.538	290.64
783.72	294.74
783.901	319.31
784.083	356.18
784.264	358.22
784.446	298.83
784.627	259.92
784.809	321.36
784.99	286.54
785.172	280.4
785.353	321.36
785.535	345.94
785.716	331.6
785.897	333.65
786.079	343.89
786.26	268.11
786.441	372.56
786.623	296.78
786.804	274.26
786.985	282.45
787.167	225.11
787.348	214.87
787.529	280.4
787.71	257.87
787.891	264.02
788.073	243.54
788.254	175.95
788.435	315.22
788.616	259.92
788.797	286.54
788.978	249.68
789.159	196.43
789.34	229.2
789.522	237.39
789.703	221.01
789.884	231.25
790.065	274.26
790.246	249.68
790.427	221.01
790.607	247.63
790.788	167.76
790.969	268.11
791.15	278.35
791.331	192.34
791.512	249.68
791.693	239.44
791.874	309.07
792.054	270.16
792.235	212.82
792.416	192.34
792.597	204.63
792.778	196.43
792.958	190.29
793.139	145.24
793.32	157.52
793.5	206.67
793.681	188.24
793.862	194.39
794.042	216.91
794.223	159.57
794.404	239.44
794.584	198.48
794.765	251.73
794.945	233.3
795.126	216.91
795.306	139.09
795.487	196.43
795.667	124.76
795.848	214.87
796.028	145.24
796.209	169.81
796.389	141.14
796.57	163.67
796.75	239.44
796.93	249.68
797.111	175.95
797.291	159.57
797.471	165.71
797.652	284.5
797.832	225.11
798.012	157.52
798.192	155.47
798.373	249.68
798.553	196.43
798.733	137.04
798.913	151.38
799.093	116.56
799.274	110.42
799.454	137.04
799.634	157.52
799.814	169.81
799.994	214.87
800.174	151.38
800.354	69.46
800.534	180.05
800.714	186.19
800.894	180.05
801.074	143.19
801.254	155.47
801.434	161.62
801.614	135
801.794	139.09
801.974	413.52
802.154	132.95
802.334	231.25
802.514	87.89
802.693	194.39
802.873	159.57
803.053	137.04
803.233	175.95
803.413	141.14
803.592	128.85
803.772	87.89
803.952	204.63
804.131	173.91
804.311	178
804.491	63.32
804.67	135
804.85	151.38
805.03	100.18
805.209	141.14
805.389	91.99
805.568	159.57
805.748	200.53
805.928	149.33
806.107	122.71
806.287	145.24
806.466	171.86
806.646	137.04
806.825	100.18
807.004	120.66
807.184	100.18
807.363	130.9
807.543	81.75
807.722	128.85
807.901	87.89
808.081	108.37
808.26	65.36
808.439	104.28
808.619	122.71
808.798	77.65
808.977	42.84
809.156	112.47
809.336	75.6
809.515	77.65
809.694	-0.17
809.873	63.32
810.052	42.84
810.231	85.84
810.411	65.36
810.59	116.56
810.769	122.71
810.948	124.76
811.127	114.52
811.306	143.19
811.485	65.36
811.664	112.47
811.843	94.04
812.022	112.47
812.201	102.23
812.38	161.62
812.559	120.66
812.737	51.03
812.916	61.27
813.095	163.67
813.274	28.5
813.453	122.71
813.632	104.28
813.811	137.04
813.989	-22.7
814.168	40.79
814.347	63.32
814.526	100.18
814.704	55.12
814.883	24.4
815.062	108.37
815.24	46.93
815.419	53.08
815.598	91.99
815.776	98.13
815.955	132.95
816.133	48.98
816.312	79.7
816.49	-6.31
816.669	149.33
816.847	61.27
817.026	151.38
817.204	128.85
817.383	122.71
817.561	46.93
817.74	38.74
817.918	40.79
818.097	89.94
818.275	79.7
818.453	36.69
818.632	51.03
818.81	77.65
818.988	3.93
819.167	40.79
819.345	63.32
819.523	38.74
819.701	96.08
819.879	73.56
820.058	96.08
820.236	147.28
820.414	51.03
820.592	83.8
820.77	98.13
820.948	51.03
821.127	79.7
821.305	57.17
821.483	-6.31
821.661	137.04
821.839	110.42
822.017	73.56
822.195	85.84
822.373	94.04
822.551	77.65
822.729	73.56
822.907	-45.23
823.085	63.32
823.262	14.17
823.44	75.6
823.618	67.41
823.796	30.55
823.974	79.7
824.152	83.8
824.329	132.95
824.507	63.32
824.685	75.6
824.863	161.62
825.04	75.6
825.218	22.36
825.396	89.94
825.574	57.17
825.751	34.64
825.929	36.69
826.107	55.12
826.284	14.17
826.462	-6.31
826.639	5.97
826.817	104.28
826.994	32.6
827.172	34.64
827.349	116.56
827.527	38.74
827.704	12.12
827.882	30.55
828.059	59.22
828.237	8.02
828.414	1.88
828.591	81.75
828.769	12.12
828.946	85.84
829.124	40.79
829.301	36.69
829.478	94.04
829.655	77.65
829.833	12.12
830.01	24.4
830.187	118.61
830.364	38.74
830.542	18.26
830.719	65.36
830.896	89.94
831.073	67.41
831.25	94.04
831.427	120.66
831.604	5.97
831.782	69.46
831.959	75.6
832.136	85.84
832.313	36.69
832.49	14.17
832.667	59.22
832.844	79.7
833.021	53.08
833.198	98.13
833.374	-18.6
833.551	22.36
833.728	42.84
833.905	40.79
834.082	26.45
834.259	77.65
834.436	75.6
834.612	40.79
834.789	51.03
834.966	26.45
835.143	-10.41
835.319	55.12
835.496	57.17
835.673	48.98
835.85	73.56
836.026	65.36
836.203	91.99
836.38	24.4
836.556	18.26
836.733	59.22
836.909	61.27
837.086	16.21
837.262	34.64
837.439	14.17
837.616	-16.55
837.792	-10.41
837.968	-0.17
838.145	-32.94
838.321	5.97
838.498	73.56
838.674	24.4
838.851	73.56
839.027	77.65
839.203	-10.41
839.38	26.45
839.556	-10.41
839.732	57.17
839.909	24.4
840.085	108.37
840.261	20.31
840.437	-18.6
840.614	24.4
840.79	53.08
840.966	34.64
841.142	-59.56
841.318	34.64
841.494	30.55
841.671	59.22
841.847	22.36
842.023	38.74
842.199	44.88
842.375	32.6
842.551	24.4
842.727	26.45
842.903	30.55
843.079	-18.6
843.255	57.17
843.431	26.45
843.607	122.71
843.783	-8.36
843.959	53.08
844.134	24.4
844.31	44.88
844.486	-2.22
844.662	59.22
844.838	81.75
845.013	10.07
845.189	-8.36
845.365	63.32
845.541	79.7
845.716	24.4
845.892	32.6
846.068	69.46
846.244	5.97
846.419	77.65
846.595	48.98
846.77	26.45
846.946	-24.75
847.122	20.31
847.297	5.97
847.473	53.08
847.648	36.69
847.824	-0.17
847.999	3.93
848.175	38.74
848.35	14.17
848.526	40.79
848.701	-34.99
848.876	-2.22
849.052	59.22
849.227	63.32
849.403	-0.17
849.578	44.88
849.753	40.79
849.929	46.93
850.104	34.64
850.279	18.26
850.454	-14.51
850.63	-18.6
850.805	-14.51
850.98	-16.55
851.155	-10.41
851.33	-6.31
851.505	-96.43
851.681	-24.75
851.856	-18.6
852.031	48.98
852.206	-18.6
852.381	73.56
852.556	61.27
852.731	79.7
852.906	38.74
853.081	-0.17
853.256	14.17
853.431	34.64
853.606	30.55
853.781	5.97
853.956	-49.32
854.131	-26.79
854.305	55.12
854.48	46.93
854.655	-12.46
854.83	20.31
855.005	57.17
855.18	24.4
855.354	5.97
855.529	51.03
855.704	28.5
855.879	-39.08
856.053	-12.46
856.228	20.31
856.403	10.07
856.577	-6.31
856.752	-14.51
856.926	75.6
857.101	-55.47
857.276	59.22
857.45	14.17
857.625	46.93
857.799	30.55
857.974	-39.08
858.148	-59.56
858.323	36.69
858.497	36.69
858.672	14.17
858.846	5.97
859.02	65.36
859.195	1.88
859.369	-14.51
859.543	-63.66
859.718	48.98
859.892	-10.41
860.066	20.31
860.241	42.84
860.415	59.22
860.589	-49.32
860.763	55.12
860.938	-16.55
861.112	61.27
861.286	36.69
861.46	-20.65
861.634	-6.31
861.808	-22.7
861.982	67.41
862.157	-0.17
862.331	61.27
862.505	59.22
862.679	-6.31
862.853	44.88
863.027	-2.22
863.201	55.12
863.375	32.6
863.549	48.98
863.722	-12.46
863.896	22.36
864.07	14.17
864.244	75.6
864.418	32.6
864.592	46.93
864.766	1.88
864.939	-69.8
865.113	14.17
865.287	-14.51
865.461	12.12
865.634	-55.47
865.808	-63.66
865.982	-18.6
866.156	24.4
866.329	8.02
866.503	8.02
866.676	55.12
866.85	-37.03
867.024	51.03
867.197	67.41
867.371	-4.27
867.544	-10.41
867.718	-14.51
867.891	12.12
868.065	-26.79
868.238	24.4
868.412	65.36
868.585	40.79
868.759	26.45
868.932	-20.65
869.105	22.36
869.279	85.84
869.452	-55.47
869.625	-118.95
869.799	30.55
869.972	-22.7
870.145	14.17
870.319	-8.36
870.492	-0.17
870.665	-47.27
870.838	34.64
871.011	10.07
871.185	-18.6
871.358	18.26
871.531	38.74
871.704	-55.47
871.877	38.74
872.05	-82.09
872.223	14.17
872.396	1.88
872.569	30.55
872.742	-26.79
872.915	69.46
873.088	-20.65
873.261	-32.94
873.434	16.21
873.607	22.36
873.78	-22.7
873.953	-4.27
874.126	28.5
874.299	-63.66
874.471	40.79
874.644	-47.27
874.817	-8.36
874.99	40.79
875.163	-8.36
875.335	14.17
875.508	-2.22
875.681	53.08
875.853	5.97
876.026	34.64
876.199	1.88
876.371	-49.32
876.544	10.07
876.717	38.74
876.889	65.36
877.062	51.03
877.234	3.93
877.407	-26.79
877.579	1.88
877.752	14.17
877.924	-30.89
878.097	-20.65
878.269	38.74
878.442	44.88
878.614	18.26
878.786	-26.79
878.959	8.02
879.131	106.32
879.303	1.88
879.476	-16.55
879.648	28.5
879.82	46.93
879.993	48.98
880.165	-39.08
880.337	-0.17
880.509	-2.22
880.681	-12.46
880.854	-16.55
881.026	36.69
881.198	1.88
881.37	3.93
881.542	-63.66
881.714	-26.79
881.886	-0.17
882.058	-2.22
882.23	51.03
882.402	-41.13
882.574	14.17
882.746	5.97
882.918	-34.99
883.09	-16.55
883.262	44.88
883.434	30.55
883.606	-8.36
883.778	36.69
883.95	-14.51
884.122	18.26
884.293	38.74
884.465	46.93
884.637	-69.8
884.809	-43.18
884.98	16.21
885.152	-10.41
885.324	24.4
885.496	73.56
885.667	5.97
885.839	42.84
886.011	57.17
886.182	46.93
886.354	22.36
886.525	-39.08
886.697	85.84
886.869	24.4
887.04	-26.79
887.212	34.64
887.383	-51.37
887.555	42.84
887.726	-37.03
887.897	-32.94
888.069	20.31
888.24	-16.55
888.412	-57.51
888.583	36.69
888.754	-8.36
888.926	-53.42
889.097	18.26
889.268	-45.23
889.44	30.55
889.611	-12.46
889.782	-67.75
889.953	-26.79
890.125	38.74
890.296	-4.27
890.467	-22.7
890.638	14.17
890.809	20.31
890.98	-12.46
891.151	32.6
891.323	-53.42
891.494	-16.55
891.665	-6.31
891.836	-16.55
892.007	-0.17
892.178	-32.94
892.349	28.5
892.52	-0.17
892.691	-37.03
892.862	-16.55
893.032	-4.27
893.203	1.88
893.374	-45.23
893.545	-2.22
893.716	3.93
893.887	-4.27
894.057	30.55
894.228	34.64
894.399	-39.08
894.57	-59.56
894.74	-16.55
894.911	36.69
895.082	3.93
895.253	-59.56
895.423	18.26
895.594	63.32
895.764	16.21
895.935	-75.95
896.106	34.64
896.276	-2.22
896.447	-6.31
896.617	20.31
896.788	-8.36
896.958	-26.79
897.129	5.97
897.299	-4.27
897.47	91.99
897.64	36.69
897.81	42.84
897.981	22.36
898.151	-8.36
898.322	-24.75
898.492	14.17
898.662	-16.55
898.832	18.26
899.003	57.17
899.173	5.97
899.343	-39.08
899.513	5.97
