Data from USB4F104151__292__14-02-48-596.txt Node

Date: Thu Mar 13 14:02:48 EDT 2025
User: louis
Spectrometer: USB4F10415
Trigger mode: 4
Integration Time (sec): 1.000000E-2
Scans to average: 1
Electric dark correction enabled: true
Nonlinearity correction enabled: false
Boxcar width: 0
XAxis mode: Wavelengths
Number of Pixels in Spectrum: 3648
>>>>>Begin Spectral Data<<<<<
178.204	-49.49
178.424	-49.49
178.644	-49.49
178.864	-57.68
179.084	-35.16
179.304	24.23
179.524	-4.44
179.744	-33.11
179.964	16.04
180.184	-39.25
180.404	28.33
180.624	9.9
180.844	-39.25
181.064	16.04
181.283	-6.49
181.503	-26.96
181.723	54.95
181.943	-20.82
182.163	9.9
182.383	-12.63
182.602	26.28
182.822	-29.01
183.042	63.15
183.262	11.95
183.482	34.47
183.701	44.71
183.921	-22.87
184.141	-45.4
184.361	-8.53
184.58	-31.06
184.8	-6.49
185.02	50.86
185.239	7.85
185.459	-61.78
185.679	7.85
185.898	-57.68
186.118	65.19
186.338	-10.58
186.557	-8.53
186.777	-41.3
186.997	3.75
187.216	-24.92
187.436	-14.68
187.655	-26.96
187.875	32.43
188.095	-22.87
188.314	-14.68
188.534	46.76
188.753	42.67
188.973	-37.2
189.192	36.52
189.412	11.95
189.631	24.23
189.851	28.33
190.07	61.1
190.29	34.47
190.509	26.28
190.729	-31.06
190.948	20.14
191.168	65.19
191.387	-8.53
191.607	44.71
191.826	9.9
192.045	-16.73
192.265	81.58
192.484	30.38
192.704	9.9
192.923	5.8
193.142	48.81
193.362	-10.58
193.581	67.24
193.8	-16.73
194.02	16.04
194.239	22.19
194.458	-31.06
194.678	13.99
194.897	16.04
195.116	1.71
195.335	-2.39
195.555	11.95
195.774	-20.82
195.993	26.28
196.212	-16.73
196.432	32.43
196.651	38.57
196.87	18.09
197.089	44.71
197.308	-22.87
197.528	-20.82
197.747	-33.11
197.966	-29.01
198.185	13.99
198.404	-31.06
198.623	-10.58
198.842	22.19
199.062	28.33
199.281	50.86
199.5	7.85
199.719	-2.39
199.938	-31.06
200.157	34.47
200.376	1.71
200.595	-6.49
200.814	-0.34
201.033	1.71
201.252	28.33
201.471	24.23
201.69	-29.01
201.909	-41.3
202.128	-0.34
202.347	26.28
202.566	-2.39
202.785	-49.49
203.004	24.23
203.223	50.86
203.442	18.09
203.661	-61.78
203.879	-47.44
204.098	32.43
204.317	-35.16
204.536	32.43
204.755	-16.73
204.974	46.76
205.193	36.52
205.411	71.34
205.63	-39.25
205.849	26.28
206.068	-16.73
206.287	42.67
206.505	-4.44
206.724	32.43
206.943	36.52
207.162	-12.63
207.381	-8.53
207.599	28.33
207.818	-35.16
208.037	40.62
208.255	24.23
208.474	-24.92
208.693	-12.63
208.911	81.58
209.13	40.62
209.349	-16.73
209.567	44.71
209.786	59.05
210.005	-45.4
210.223	34.47
210.442	-31.06
210.661	40.62
210.879	18.09
211.098	7.85
211.316	61.1
211.535	52.91
211.753	75.43
211.972	13.99
212.191	44.71
212.409	7.85
212.628	52.91
212.846	34.47
213.065	-33.11
213.283	93.87
213.502	13.99
213.72	28.33
213.938	-6.49
214.157	7.85
214.375	40.62
214.594	7.85
214.812	18.09
215.031	-84.31
215.249	20.14
215.467	-31.06
215.686	-57.68
215.904	-4.44
216.122	-24.92
216.341	87.72
216.559	3.75
216.778	75.43
216.996	16.04
217.214	16.04
217.432	36.52
217.651	9.9
217.869	54.95
218.087	16.04
218.306	-35.16
218.524	-29.01
218.742	13.99
218.96	-6.49
219.179	-43.35
219.397	-47.44
219.615	57
219.833	-8.53
220.051	1.71
220.27	18.09
220.488	28.33
220.706	-39.25
220.924	-2.39
221.142	24.23
221.36	34.47
221.578	-20.82
221.796	-45.4
222.015	-2.39
222.233	16.04
222.451	48.81
222.669	-39.25
222.887	-24.92
223.105	3.75
223.323	9.9
223.541	34.47
223.759	-8.53
223.977	38.57
224.195	-8.53
224.413	-33.11
224.631	32.43
224.849	-31.06
225.067	-16.73
225.285	48.81
225.503	32.43
225.721	-22.87
225.939	42.67
226.157	-4.44
226.375	1.71
226.592	52.91
226.81	16.04
227.028	9.9
227.246	85.67
227.464	-63.83
227.682	7.85
227.9	34.47
228.117	-4.44
228.335	34.47
228.553	-14.68
228.771	9.9
228.989	52.91
229.206	-55.64
229.424	26.28
229.642	9.9
229.86	77.48
230.077	71.34
230.295	-65.88
230.513	59.05
230.731	-14.68
230.948	7.85
231.166	-22.87
231.384	7.85
231.601	3.75
231.819	32.43
232.037	9.9
232.254	77.48
232.472	-14.68
232.689	-12.63
232.907	95.91
233.125	54.95
233.342	-37.2
233.56	24.23
233.777	-18.77
233.995	44.71
234.213	24.23
234.43	-65.88
234.648	46.76
234.865	3.75
235.083	-14.68
235.3	5.8
235.518	7.85
235.735	93.87
235.953	85.67
236.17	-37.2
236.388	63.15
236.605	52.91
236.822	-0.34
237.04	-43.35
237.257	-24.92
237.475	32.43
237.692	11.95
237.909	1.71
238.127	3.75
238.344	26.28
238.562	110.25
238.779	63.15
238.996	54.95
239.214	63.15
239.431	-43.35
239.648	-6.49
239.865	22.19
240.083	-16.73
240.3	1.71
240.517	57
240.735	-4.44
240.952	67.24
241.169	7.85
241.386	-0.34
241.603	112.3
241.821	26.28
242.038	32.43
242.255	-55.64
242.472	-22.87
242.689	28.33
242.907	34.47
243.124	20.14
243.341	-86.36
243.558	-18.77
243.775	-29.01
243.992	-8.53
244.209	-6.49
244.426	61.1
244.643	-0.34
244.86	30.38
245.078	34.47
245.295	-2.39
245.512	-26.96
245.729	-26.96
245.946	1.71
246.163	-69.97
246.38	-24.92
246.597	-29.01
246.814	50.86
247.031	24.23
247.248	7.85
247.464	1.71
247.681	18.09
247.898	-0.34
248.115	69.29
248.332	32.43
248.549	-33.11
248.766	48.81
248.983	9.9
249.2	46.76
249.417	71.34
249.633	36.52
249.85	34.47
250.067	28.33
250.284	40.62
250.501	81.58
250.717	50.86
250.934	44.71
251.151	18.09
251.368	-20.82
251.585	-8.53
251.801	-16.73
252.018	-20.82
252.235	32.43
252.451	50.86
252.668	-22.87
252.885	93.87
253.102	22.19
253.318	18.09
253.535	28.33
253.752	81.58
253.968	11.95
254.185	22.19
254.401	-22.87
254.618	91.82
254.835	69.29
255.051	32.43
255.268	-49.49
255.484	20.14
255.701	-57.68
255.917	40.62
256.134	59.05
256.351	24.23
256.567	-67.92
256.784	-8.53
257	30.38
257.217	59.05
257.433	93.87
257.65	28.33
257.866	1.71
258.082	3.75
258.299	-47.44
258.515	16.04
258.732	-41.3
258.948	20.14
259.165	50.86
259.381	-6.49
259.597	54.95
259.814	24.23
260.03	7.85
260.246	20.14
260.463	34.47
260.679	22.19
260.895	30.38
261.112	-26.96
261.328	-12.63
261.544	65.19
261.761	65.19
261.977	-26.96
262.193	22.19
262.409	28.33
262.626	-0.34
262.842	-4.44
263.058	-49.49
263.274	-8.53
263.49	71.34
263.707	-39.25
263.923	44.71
264.139	-26.96
264.355	44.71
264.571	-45.4
264.787	34.47
265.004	18.09
265.22	-12.63
265.436	9.9
265.652	-45.4
265.868	79.53
266.084	-53.59
266.3	-43.35
266.516	69.29
266.732	32.43
266.948	26.28
267.164	52.91
267.38	40.62
267.596	67.24
267.812	32.43
268.028	40.62
268.244	-24.92
268.46	-29.01
268.676	11.95
268.892	18.09
269.108	-12.63
269.324	44.71
269.54	18.09
269.756	26.28
269.972	22.19
270.188	-20.82
270.403	-10.58
270.619	7.85
270.835	16.04
271.051	-22.87
271.267	-26.96
271.483	32.43
271.698	3.75
271.914	-16.73
272.13	42.67
272.346	-29.01
272.562	18.09
272.777	-12.63
272.993	-8.53
273.209	71.34
273.425	57
273.64	-18.77
273.856	32.43
274.072	-22.87
274.287	-39.25
274.503	7.85
274.719	16.04
274.934	-16.73
275.15	-16.73
275.366	-8.53
275.581	75.43
275.797	7.85
276.012	-29.01
276.228	40.62
276.444	52.91
276.659	7.85
276.875	32.43
277.09	-37.2
277.306	71.34
277.521	16.04
277.737	-31.06
277.952	7.85
278.168	18.09
278.383	16.04
278.599	11.95
278.814	114.34
279.03	16.04
279.245	7.85
279.461	-8.53
279.676	1.71
279.892	5.8
280.107	9.9
280.322	18.09
280.538	73.39
280.753	65.19
280.969	48.81
281.184	40.62
281.399	-57.68
281.615	87.72
281.83	-31.06
282.045	-20.82
282.26	81.58
282.476	40.62
282.691	-0.34
282.906	-14.68
283.122	7.85
283.337	-16.73
283.552	-4.44
283.767	-78.16
283.983	-41.3
284.198	-37.2
284.413	44.71
284.628	-8.53
284.843	36.52
285.058	-29.01
285.274	3.75
285.489	11.95
285.704	73.39
285.919	3.75
286.134	-16.73
286.349	-26.96
286.564	32.43
286.779	20.14
286.995	32.43
287.21	28.33
287.425	-8.53
287.64	-0.34
287.855	-0.34
288.07	28.33
288.285	-33.11
288.5	-4.44
288.715	20.14
288.93	36.52
289.145	73.39
289.36	1.71
289.575	40.62
289.79	-24.92
290.004	57
290.219	-10.58
290.434	50.86
290.649	13.99
290.864	52.91
291.079	71.34
291.294	11.95
291.509	-18.77
291.724	-8.53
291.938	28.33
292.153	5.8
292.368	36.52
292.583	67.24
292.798	-35.16
293.012	7.85
293.227	44.71
293.442	81.58
293.657	44.71
293.871	40.62
294.086	-39.25
294.301	9.9
294.516	38.57
294.73	-14.68
294.945	57
295.16	28.33
295.374	34.47
295.589	-72.02
295.804	44.71
296.018	-12.63
296.233	34.47
296.447	32.43
296.662	36.52
296.877	65.19
297.091	-37.2
297.306	24.23
297.52	-8.53
297.735	20.14
297.949	75.43
298.164	-22.87
298.378	-0.34
298.593	61.1
298.807	32.43
299.022	1.71
299.236	50.86
299.451	-55.64
299.665	38.57
299.88	46.76
300.094	-14.68
300.309	32.43
300.523	20.14
300.737	-37.2
300.952	-37.2
301.166	26.28
301.381	18.09
301.595	54.95
301.809	-39.25
302.024	28.33
302.238	-39.25
302.452	77.48
302.667	63.15
302.881	11.95
303.095	102.06
303.309	42.67
303.524	-14.68
303.738	48.81
303.952	-2.39
304.166	54.95
304.381	-24.92
304.595	59.05
304.809	67.24
305.023	13.99
305.237	73.39
305.452	75.43
305.666	3.75
305.88	95.91
306.094	-0.34
306.308	-39.25
306.522	16.04
306.736	44.71
306.95	24.23
307.164	57
307.379	-8.53
307.593	69.29
307.807	36.52
308.021	16.04
308.235	-45.4
308.449	-8.53
308.663	48.81
308.877	24.23
309.091	11.95
309.305	-16.73
309.519	32.43
309.733	-0.34
309.947	69.29
310.161	7.85
310.374	-10.58
310.588	61.1
310.802	65.19
311.016	61.1
311.23	-6.49
311.444	-33.11
311.658	32.43
311.872	13.99
312.085	-2.39
312.299	44.71
312.513	75.43
312.727	32.43
312.941	7.85
313.154	63.15
313.368	-14.68
313.582	-0.34
313.796	59.05
314.009	65.19
314.223	36.52
314.437	100.01
314.651	11.95
314.864	26.28
315.078	24.23
315.292	52.91
315.505	-16.73
315.719	-4.44
315.933	-55.64
316.146	-22.87
316.36	-45.4
316.573	48.81
316.787	73.39
317.001	63.15
317.214	-61.78
317.428	24.23
317.641	-20.82
317.855	59.05
318.068	38.57
318.282	93.87
318.495	48.81
318.709	69.29
318.922	42.67
319.136	67.24
319.349	9.9
319.563	-33.11
319.776	67.24
319.99	9.9
320.203	102.06
320.417	83.63
320.63	3.75
320.843	38.57
321.057	-12.63
321.27	-14.68
321.483	32.43
321.697	28.33
321.91	-61.78
322.124	9.9
322.337	-14.68
322.55	26.28
322.763	34.47
322.977	36.52
323.19	26.28
323.403	-4.44
323.617	-8.53
323.83	69.29
324.043	-18.77
324.256	50.86
324.469	-14.68
324.683	7.85
324.896	65.19
325.109	54.95
325.322	36.52
325.535	-0.34
325.748	-10.58
325.962	-16.73
326.175	46.76
326.388	61.1
326.601	13.99
326.814	44.71
327.027	24.23
327.24	-26.96
327.453	52.91
327.666	89.77
327.879	-69.97
328.092	73.39
328.305	83.63
328.518	16.04
328.731	89.77
328.944	32.43
329.157	-2.39
329.37	42.67
329.583	46.76
329.796	71.34
330.009	34.47
330.222	40.62
330.435	42.67
330.648	3.75
330.861	16.04
331.073	-14.68
331.286	36.52
331.499	18.09
331.712	44.71
331.925	24.23
332.138	24.23
332.35	54.95
332.563	-16.73
332.776	57
332.989	7.85
333.202	36.52
333.414	-94.55
333.627	7.85
333.84	59.05
334.053	110.25
334.265	1.71
334.478	73.39
334.691	13.99
334.903	-14.68
335.116	34.47
335.329	52.91
335.541	-12.63
335.754	26.28
335.966	50.86
336.179	32.43
336.392	42.67
336.604	40.62
336.817	-4.44
337.029	22.19
337.242	11.95
337.454	75.43
337.667	34.47
337.88	89.77
338.092	-10.58
338.305	-2.39
338.517	50.86
338.729	20.14
338.942	1.71
339.154	16.04
339.367	65.19
339.579	18.09
339.792	44.71
340.004	65.19
340.217	-0.34
340.429	32.43
340.641	22.19
340.854	46.76
341.066	-18.77
341.278	24.23
341.491	42.67
341.703	9.9
341.915	38.57
342.128	20.14
342.34	65.19
342.552	44.71
342.764	38.57
342.977	16.04
343.189	97.96
343.401	83.63
343.613	34.47
343.826	179.88
344.038	63.15
344.25	-33.11
344.462	-18.77
344.674	16.04
344.886	9.9
345.099	44.71
345.311	32.43
345.523	48.81
345.735	46.76
345.947	11.95
346.159	-6.49
346.371	54.95
346.583	9.9
346.795	61.1
347.007	-31.06
347.219	46.76
347.431	-6.49
347.643	73.39
347.855	-14.68
348.067	57
348.279	-20.82
348.491	7.85
348.703	44.71
348.915	22.19
349.127	20.14
349.339	69.29
349.551	18.09
349.763	9.9
349.975	-12.63
350.187	22.19
350.399	20.14
350.61	-20.82
350.822	-10.58
351.034	75.43
351.246	79.53
351.458	100.01
351.669	63.15
351.881	36.52
352.093	-8.53
352.305	26.28
352.517	-12.63
352.728	65.19
352.94	13.99
353.152	-8.53
353.363	9.9
353.575	40.62
353.787	5.8
353.999	38.57
354.21	54.95
354.422	7.85
354.633	24.23
354.845	-16.73
355.057	48.81
355.268	-26.96
355.48	63.15
355.692	-8.53
355.903	34.47
356.115	73.39
356.326	57
356.538	81.58
356.749	-20.82
356.961	75.43
357.172	67.24
357.384	61.1
357.595	11.95
357.807	9.9
358.018	18.09
358.23	65.19
358.441	44.71
358.653	24.23
358.864	52.91
359.075	46.76
359.287	91.82
359.498	-10.58
359.709	22.19
359.921	34.47
360.132	-24.92
360.344	81.58
360.555	-33.11
360.766	16.04
360.977	18.09
361.189	48.81
361.4	9.9
361.611	48.81
361.823	-20.82
362.034	57
362.245	-22.87
362.456	83.63
362.667	3.75
362.879	20.14
363.09	50.86
363.301	34.47
363.512	-29.01
363.723	93.87
363.935	20.14
364.146	46.76
364.357	18.09
364.568	30.38
364.779	24.23
364.99	22.19
365.201	5.8
365.412	93.87
365.623	73.39
365.834	87.72
366.045	-31.06
366.256	79.53
366.467	11.95
366.678	9.9
366.889	24.23
367.1	57
367.311	-18.77
367.522	79.53
367.733	-14.68
367.944	30.38
368.155	52.91
368.366	48.81
368.577	46.76
368.788	85.67
368.999	18.09
369.209	11.95
369.42	-0.34
369.631	22.19
369.842	-4.44
370.053	34.47
370.264	-31.06
370.474	18.09
370.685	48.81
370.896	102.06
371.107	40.62
371.317	18.09
371.528	-0.34
371.739	36.52
371.95	114.34
372.16	75.43
372.371	24.23
372.582	46.76
372.792	-20.82
373.003	44.71
373.214	65.19
373.424	-2.39
373.635	7.85
373.846	1.71
374.056	13.99
374.267	32.43
374.477	-8.53
374.688	44.71
374.898	38.57
375.109	36.52
375.319	5.8
375.53	-8.53
375.74	7.85
375.951	59.05
376.161	1.71
376.372	116.39
376.582	-12.63
376.793	-18.77
377.003	5.8
377.214	36.52
377.424	89.77
377.635	11.95
377.845	112.3
378.055	83.63
378.266	-16.73
378.476	50.86
378.686	18.09
378.897	57
379.107	42.67
379.317	48.81
379.528	7.85
379.738	124.58
379.948	40.62
380.158	50.86
380.369	28.33
380.579	-8.53
380.789	-0.34
380.999	69.29
381.21	7.85
381.42	57
381.63	1.71
381.84	7.85
382.05	85.67
382.261	63.15
382.471	97.96
382.681	85.67
382.891	-0.34
383.101	61.1
383.311	67.24
383.521	7.85
383.731	52.91
383.941	65.19
384.151	-4.44
384.361	67.24
384.571	50.86
384.781	71.34
384.991	-72.02
385.201	69.29
385.411	-37.2
385.621	69.29
385.831	83.63
386.041	52.91
386.251	77.48
386.461	79.53
386.671	40.62
386.881	7.85
387.091	-45.4
387.301	59.05
387.511	-4.44
387.72	24.23
387.93	5.8
388.14	24.23
388.35	11.95
388.56	38.57
388.769	40.62
388.979	65.19
389.189	65.19
389.399	32.43
389.609	32.43
389.818	114.34
390.028	83.63
390.238	1.71
390.447	61.1
390.657	24.23
390.867	-10.58
391.076	69.29
391.286	38.57
391.496	102.06
391.705	7.85
391.915	145.06
392.125	77.48
392.334	65.19
392.544	81.58
392.753	89.77
392.963	-29.01
393.172	75.43
393.382	116.39
393.591	130.73
393.801	44.71
394.01	22.19
394.22	24.23
394.429	91.82
394.639	69.29
394.848	122.54
395.058	61.1
395.267	136.87
395.477	16.04
395.686	171.69
395.895	48.81
396.105	118.44
396.314	93.87
396.524	75.43
396.733	85.67
396.942	40.62
397.152	87.72
397.361	48.81
397.57	1.71
397.78	52.91
397.989	73.39
398.198	126.63
398.407	134.82
398.617	69.29
398.826	44.71
399.035	57
399.244	102.06
399.453	71.34
399.663	63.15
399.872	126.63
400.081	75.43
400.29	108.2
400.499	95.91
400.708	89.77
400.917	134.82
401.127	63.15
401.336	59.05
401.545	50.86
401.754	46.76
401.963	110.25
402.172	75.43
402.381	61.1
402.59	106.15
402.799	147.11
403.008	110.25
403.217	149.16
403.426	112.3
403.635	163.5
403.844	106.15
404.053	102.06
404.262	116.39
404.471	128.68
404.68	91.82
404.888	140.97
405.097	100.01
405.306	143.02
405.515	159.4
405.724	116.39
405.933	93.87
406.142	136.87
406.35	114.34
406.559	171.69
406.768	128.68
406.977	175.78
407.185	171.69
407.394	218.79
407.603	157.35
407.812	282.28
408.02	192.17
408.229	278.18
408.438	116.39
408.646	198.31
408.855	212.65
409.064	208.55
409.272	278.18
409.481	226.98
409.69	269.99
409.898	214.7
410.107	253.61
410.315	325.29
410.524	302.76
410.733	325.29
410.941	351.91
411.15	300.71
411.358	378.53
411.567	347.81
411.775	351.91
411.984	368.29
412.192	376.48
412.401	401.06
412.609	421.54
412.818	442.02
413.026	454.31
413.234	452.26
413.443	454.31
413.651	466.6
413.86	495.27
414.068	501.41
414.276	560.8
414.485	534.18
414.693	515.75
414.901	601.76
415.11	646.82
415.318	673.44
415.526	698.02
415.734	753.31
415.943	755.36
416.151	822.94
416.359	667.3
416.567	816.8
416.776	732.83
416.984	900.76
417.192	847.52
417.4	939.68
417.608	900.76
417.817	943.77
418.025	1066.65
418.233	1003.16
418.441	1021.6
418.649	1203.86
418.857	1126.04
419.065	1210.01
419.273	1164.95
419.481	1214.1
419.689	1253.02
419.897	1339.03
420.105	1345.17
420.313	1431.19
420.521	1549.97
420.729	1418.9
420.937	1474.2
421.145	1674.9
421.353	1666.71
421.561	1769.1
421.769	1932.94
421.977	1924.75
422.185	1887.89
422.393	1941.13
422.601	2076.3
422.809	2084.49
423.017	2076.3
423.224	2236.04
423.432	2408.07
423.64	2313.86
423.848	2533
424.056	2430.6
424.263	2535.04
424.471	2584.2
424.679	2715.27
424.887	2678.4
425.094	2795.14
425.302	2866.81
425.51	2965.12
425.718	3145.34
425.925	3133.05
426.133	3174.01
426.341	3360.38
426.548	3640.95
426.756	3638.9
426.964	3698.29
427.171	3673.71
427.379	4023.92
427.586	3898.99
427.794	3995.25
428.001	4343.4
428.209	4531.81
428.417	4417.13
428.624	4736.61
428.832	4798.05
429.039	4578.92
429.247	4699.75
429.454	5203.55
429.662	5453.4
429.869	5135.96
430.076	5500.5
430.284	5244.51
430.491	5670.48
430.699	5946.96
430.906	5914.19
431.114	5881.42
431.321	6231.63
431.528	6299.21
431.736	6772.29
431.943	7026.24
432.15	6866.5
432.358	6866.5
432.565	7272
432.772	7274.04
432.979	7554.62
433.187	7671.35
433.394	7616.05
433.601	8285.74
433.808	8408.62
434.016	8027.7
434.223	8568.36
434.43	9002.53
434.637	8928.8
434.844	9334.3
435.052	9592.34
435.259	9600.54
435.466	9629.21
435.673	9573.91
435.88	10124.82
436.087	10698.25
436.294	10630.66
436.501	10413.58
436.708	10634.76
436.915	11214.34
437.122	11496.96
437.329	11396.6
437.537	11904.5
437.743	12076.53
437.95	11929.08
438.157	12643.82
438.364	13196.77
438.571	13073.89
438.778	13266.4
438.985	14360.02
439.192	13708.76
439.399	14087.64
439.606	13966.81
439.813	14583.24
440.02	15443.39
440.227	15400.38
440.433	15228.35
440.64	15566.27
440.847	15519.17
441.054	15986.1
441.261	17130.92
441.467	16850.35
441.674	17159.59
441.881	17778.08
442.088	17612.19
442.294	17614.24
442.501	18032.02
442.708	18374.03
442.914	19041.67
443.121	19719.55
443.328	19246.47
443.534	20833.64
443.741	20014.46
443.948	19588.48
444.154	21341.54
444.361	21196.14
444.568	21181.8
444.774	21110.12
444.981	21611.87
445.187	22082.91
445.394	23258.44
445.6	22957.39
445.807	24737.07
446.013	23665.99
446.22	24624.43
446.426	25421.09
446.633	25464.1
446.839	26529.05
447.046	25107.76
447.252	26856.72
447.459	26797.33
447.665	26641.68
447.871	27530.5
448.078	28884.21
448.284	27512.07
448.491	28239.1
448.697	29273.32
448.903	29924.58
449.11	30055.65
449.316	29633.77
449.522	30108.9
449.728	30760.15
449.935	31077.58
450.141	31153.36
450.347	32072.9
450.553	30512.35
450.76	31321.29
450.966	32056.51
451.172	31839.43
451.378	32746.68
451.584	32115.9
451.791	33215.66
451.997	32801.97
452.203	32967.86
452.409	33399.98
452.615	32748.73
452.821	31562.95
453.027	31317.2
453.233	33178.8
453.44	31718.6
453.646	32087.23
453.852	32314.56
454.058	32679.1
454.264	31710.41
454.47	32271.55
454.676	31630.54
454.882	32629.94
455.088	29658.34
455.294	30237.92
455.5	30751.96
455.705	31132.88
455.911	29525.22
456.117	29324.52
456.323	28955.89
456.529	27473.16
456.735	28499.19
456.941	27884.8
457.147	27163.92
457.352	26621.2
457.558	26033.44
457.764	26318.11
457.97	25732.39
458.176	25118
458.381	25388.33
458.587	23858.49
458.793	24118.59
458.999	22717.78
459.204	24311.1
459.41	23764.29
459.616	22035.8
459.821	22007.13
460.027	22091.1
460.233	21536.1
460.438	20544.88
460.644	21073.26
460.85	19852.67
461.055	19735.93
461.261	19508.61
461.466	18003.35
461.672	17728.92
461.878	18658.7
462.083	17692.06
462.289	17300.9
462.494	17143.21
462.7	16285.11
462.905	15844.79
463.111	16344.5
463.316	16657.84
463.522	16133.56
463.727	16053.69
463.932	16248.24
464.138	15812.03
464.343	16154.04
464.549	15568.32
464.754	16147.89
464.959	15932.86
465.165	15660.48
465.37	15371.71
465.575	14759.37
465.781	15345.09
465.986	15433.15
466.191	14896.58
466.397	14777.8
466.602	13893.08
466.807	14396.88
467.012	14431.69
467.218	14251.47
467.423	14339.54
467.628	14562.76
467.833	14583.24
468.038	14542.28
468.244	13860.31
468.449	14345.68
468.654	13934.04
468.859	13909.46
469.064	13731.29
469.269	13172.19
469.474	13340.13
469.679	13675.99
469.885	13262.3
470.09	13422.05
470.295	13311.46
470.5	12942.82
470.705	13207.01
470.91	12686.83
471.115	12721.64
471.32	12944.87
471.525	12840.42
471.73	12410.35
471.935	12336.62
472.139	12140.02
472.344	12250.61
472.549	11879.93
472.754	11984.37
472.959	11779.57
473.164	11390.46
473.369	11365.89
473.574	11646.46
473.778	11494.91
473.983	11519.48
474.188	11507.2
474.393	10991.11
474.598	10849.8
474.802	11019.78
475.007	10739.21
475.212	10606.09
475.417	10333.71
475.621	10509.83
475.826	10421.77
476.031	10317.33
476.235	10010.13
476.44	10200.59
476.645	10003.99
476.849	10055.19
477.054	9868.82
477.259	9643.54
477.463	9774.61
477.668	9459.23
477.872	9700.89
478.077	9479.71
478.282	9246.24
478.486	9152.03
478.691	9002.53
478.895	9217.57
479.1	9023.01
479.304	9068.06
479.509	8711.72
479.713	9053.73
479.918	8779.3
480.122	8652.33
480.326	8769.06
480.531	8789.54
480.735	8631.85
480.94	8554.02
481.144	8580.65
481.348	8363.56
481.553	8431.15
481.757	8353.32
481.961	8361.52
482.166	8500.78
482.37	8414.76
482.574	8367.66
482.778	8449.58
482.983	8529.45
483.187	8418.86
483.391	8377.9
483.595	8218.16
483.8	8103.47
484.004	8502.82
484.208	8762.92
484.412	8267.31
484.616	8365.61
484.821	8314.41
485.025	8181.29
485.229	8529.45
485.433	8189.49
485.637	8349.23
485.841	8107.57
486.045	8291.88
486.249	8228.4
486.453	8248.88
486.657	8433.19
486.861	8394.28
487.065	8164.91
487.269	8336.94
487.473	8205.87
487.677	8420.91
487.881	8461.87
488.085	8298.03
488.289	8388.14
488.493	8429.1
488.697	8642.09
488.901	8357.42
489.105	8154.67
489.309	8402.47
489.512	8482.35
489.716	8437.29
489.92	8468.01
490.124	8377.9
490.328	8783.4
490.531	8791.59
490.735	8599.08
490.939	8566.31
491.143	8574.5
491.346	8580.65
491.55	8805.92
491.754	8609.32
491.958	8879.65
492.161	8810.02
492.365	8734.25
492.569	8756.77
492.772	8920.61
492.976	8941.09
493.18	8982.05
493.383	9053.73
493.587	9219.61
493.79	9121.31
493.994	9000.48
494.197	9010.72
494.401	9258.53
494.605	9264.67
494.808	9354.78
495.012	9375.26
495.215	9506.33
495.419	9643.54
495.622	9455.13
495.825	9723.41
496.029	9911.83
496.232	9930.26
496.436	9887.25
496.639	10120.72
496.843	10167.82
497.046	10444.3
497.249	10515.98
497.453	10595.85
497.656	10718.73
497.859	10849.8
498.063	10728.97
498.266	11025.92
498.469	11066.88
498.673	11132.42
498.876	11226.62
499.079	11345.41
499.282	11388.41
499.485	11744.76
499.689	11744.76
499.892	11996.66
500.095	11976.18
500.298	12322.29
500.501	12019.19
500.705	12393.97
500.908	12588.52
501.111	12920.29
501.314	13018.6
501.517	12905.96
501.72	13223.39
501.923	13182.43
502.126	13473.25
502.329	13528.54
502.532	13721.05
502.735	13788.63
502.938	14171.6
503.141	14317.01
503.344	14230.99
503.547	14470.61
503.75	14714.31
503.953	14968.26
504.156	14814.66
504.359	15121.86
504.562	15369.66
504.765	15785.4
504.968	15670.72
505.17	15885.75
505.373	16088.5
505.576	16430.51
505.779	16188.85
505.982	16747.95
506.185	16887.21
506.387	16950.7
506.59	17436.06
506.793	17415.58
506.996	17364.39
507.198	18079.13
507.401	17751.45
507.604	18171.29
507.807	18505.1
508.009	18566.54
508.212	18992.52
508.415	19047.82
508.617	19406.21
508.82	19371.4
509.022	19465.6
509.225	19907.96
509.428	20217.21
509.63	20231.54
509.833	19897.72
510.035	20821.36
510.238	20690.29
510.44	21233
510.643	21259.62
510.845	21921.12
511.048	21691.74
511.25	21874.01
511.453	22277.46
511.655	22918.48
511.858	22580.56
512.06	22828.37
512.262	23033.16
512.465	23197
512.667	23698.75
512.87	24118.59
513.072	24044.86
513.274	24530.23
513.477	24810.8
513.679	25015.6
513.881	25173.29
514.084	25834.78
514.286	25427.24
514.488	25922.85
514.69	26479.89
514.893	26963.22
515.095	26803.47
515.297	27307.27
515.499	27022.61
515.701	27800.83
515.904	28259.58
516.106	28200.19
516.308	28343.55
516.51	28652.79
516.712	29013.23
516.914	29373.67
517.116	29760.74
517.318	29889.76
517.52	30242.01
517.722	30254.3
517.925	30645.46
518.127	31290.57
518.329	31460.55
518.531	31284.43
518.733	31833.28
518.935	32144.58
519.136	32287.93
519.338	32611.51
519.54	32918.71
519.742	32951.48
519.944	33449.13
520.146	34053.28
520.348	34192.54
520.55	34172.07
520.752	34032.8
520.954	34907.29
521.155	34663.58
521.357	35380.37
521.559	35902.6
521.761	36344.96
521.963	36066.44
522.164	36273.28
522.366	36557.95
522.568	37172.34
522.77	37416.05
522.971	37647.47
523.173	37327.99
523.375	37776.49
523.576	38241.38
523.778	38098.02
523.98	38610.01
524.181	38825.05
524.383	38882.39
524.584	39545.94
524.786	39523.41
524.988	39318.61
525.189	40047.69
525.391	40102.98
525.592	40133.7
525.794	40535.1
525.995	40729.66
526.197	40703.04
526.398	40940.6
526.6	41577.52
526.801	41188.41
527.003	41583.66
527.204	42099.75
527.406	41810.99
527.607	41751.6
527.808	42077.22
528.01	41548.85
528.211	42320.93
528.412	42871.84
528.614	42228.77
528.815	42454.05
529.016	43103.26
529.218	42693.66
529.419	42994.71
529.62	43185.18
529.822	42949.66
530.023	43652.11
530.224	43774.99
530.425	43250.71
530.626	43164.7
530.828	43498.51
531.029	44020.75
531.23	43592.72
531.431	43631.63
531.632	43863.05
531.833	43766.8
532.035	43789.33
532.236	43834.38
532.437	44385.29
532.638	43547.67
532.839	44114.95
533.04	44239.88
533.241	43703.31
533.442	44876.8
533.643	44112.91
533.844	44373
534.045	44420.1
534.246	44055.56
534.447	44758.02
534.648	44512.26
534.849	44246.02
535.05	44403.72
535.251	44557.31
535.451	44272.65
535.652	44499.97
535.853	44364.81
536.054	44866.56
536.255	44592.13
536.456	44157.96
536.657	44889.09
536.857	44741.63
537.058	44340.23
537.259	45003.77
537.46	44682.24
537.66	44676.1
537.861	44631.04
538.062	44710.91
538.263	44956.67
538.463	44424.2
538.664	44450.82
538.865	44600.32
539.065	44639.23
539.266	44454.92
539.466	45005.82
539.667	44332.04
539.868	45249.53
540.068	44522.5
540.269	44413.96
540.469	44956.67
540.67	44319.75
540.87	44264.46
541.071	44432.39
541.271	44725.25
541.472	44633.09
541.672	44477.44
541.873	44442.63
542.073	44030.99
542.274	44684.29
542.474	44379.14
542.675	44309.51
542.875	44762.11
543.075	43951.12
543.276	43721.74
543.476	44682.24
543.676	44315.65
543.877	44459.01
544.077	44381.19
544.277	44123.15
544.478	44465.16
544.678	44600.32
544.878	44874.75
545.078	44524.55
545.279	44112.91
545.479	44178.44
545.679	44155.91
545.879	44667.91
546.079	44270.6
546.28	44284.93
546.48	44104.71
546.68	44434.44
546.88	44567.55
547.08	44387.33
547.28	44225.54
547.48	43983.88
547.68	43889.68
547.88	44012.56
548.081	44344.33
548.281	44608.51
548.481	44045.32
548.681	44434.44
548.881	44291.08
549.081	44319.75
549.28	43703.31
549.48	44479.49
549.68	43840.53
549.88	44657.67
550.08	44086.28
550.28	44360.71
550.48	44129.29
550.68	44608.51
550.88	43867.15
551.08	43719.7
551.279	44329.99
551.479	43410.45
551.679	44024.84
551.879	44022.79
552.079	44760.06
552.278	43944.97
552.478	44002.32
552.678	43908.11
552.878	44080.14
553.077	43723.79
553.277	43445.27
553.477	44534.79
553.676	43662.35
553.876	43922.44
554.076	43828.24
554.275	43660.3
554.475	43242.52
554.674	43756.56
554.874	43727.89
555.074	43602.96
555.273	43674.64
555.473	43809.81
555.672	43516.95
555.872	43324.44
556.071	43590.67
556.271	43861.01
556.47	43238.42
556.67	43224.09
556.869	43195.42
557.068	43308.05
557.268	42974.23
557.467	43465.75
557.667	43418.64
557.866	43011.1
558.065	43070.49
558.265	42583.07
558.464	42632.22
558.663	43332.63
558.863	42583.07
559.062	43461.65
559.261	42363.94
559.461	43101.21
559.66	41952.3
559.859	42478.63
560.058	42490.91
560.258	42740.77
560.457	42034.22
560.656	42439.72
560.855	41772.08
561.054	42554.4
561.253	41894.96
561.453	42351.65
561.652	42347.56
561.851	42372.13
562.05	41780.27
562.249	41612.34
562.448	41960.49
562.647	41823.28
562.846	41681.97
563.045	41856.04
563.244	41434.16
563.443	42046.51
563.642	41126.97
563.841	41847.85
564.04	41382.96
564.239	41454.64
564.438	41098.3
564.637	41595.95
564.836	41333.81
565.035	41004.09
565.234	41032.76
565.432	41165.88
565.631	40819.77
565.83	41481.27
566.029	40711.23
566.228	40823.87
566.427	40324.16
566.625	40741.95
566.824	39992.39
567.023	40346.69
567.222	39703.63
567.42	40766.52
567.619	40139.85
567.818	40414.27
568.016	40342.6
568.215	40186.95
568.414	39717.96
568.612	39910.47
568.811	39584.85
569.01	39537.74
569.208	39294.04
569.407	39736.4
569.605	38829.15
569.804	39480.4
570.002	39203.92
570.201	39044.18
570.4	39066.71
570.598	39019.61
570.797	38659.16
570.995	38706.27
571.193	38411.36
571.392	38919.26
571.59	38390.88
571.789	38786.14
571.987	38304.87
572.186	38491.23
572.384	38001.77
572.582	38050.92
572.781	38085.73
572.979	37454.96
573.177	37624.94
573.376	37403.76
573.574	37534.83
573.772	37493.87
573.971	37512.3
574.169	37190.77
574.367	36740.22
574.565	36916.34
574.763	36899.96
574.962	36764.79
575.16	36279.43
575.358	36764.79
575.556	36142.21
575.754	36848.76
575.952	36199.55
576.151	36834.42
576.349	36043.91
576.547	36183.17
576.745	36207.75
576.943	36203.65
577.141	36273.28
577.339	35808.39
577.537	35814.54
577.735	35775.62
577.933	35587.21
578.131	35314.83
578.329	35290.26
578.527	34892.95
578.725	35263.63
578.923	35169.43
579.121	34796.7
579.319	34628.76
579.516	34598.04
579.714	34512.03
579.912	34438.3
580.11	34665.63
580.308	34475.16
580.506	34284.7
580.704	33701.03
580.901	34167.97
581.099	34428.06
581.297	34106.53
581.495	33402.03
581.692	33676.46
581.89	33422.51
582.088	33594.54
582.285	33449.13
582.483	33686.7
582.681	33318.06
582.878	33789.1
583.076	32814.26
583.274	33141.94
583.471	32955.57
583.669	32834.74
583.866	32740.54
584.064	33232.05
584.262	32093.38
584.459	32971.96
584.657	32543.93
584.854	32625.85
585.052	32103.62
585.249	32271.55
585.447	32470.2
585.644	31648.97
585.841	31638.73
586.039	31880.39
586.236	31599.82
586.434	31325.39
586.631	31446.22
586.828	31329.48
587.026	31292.62
587.223	31161.55
587.42	31583.43
587.618	30874.84
587.815	31067.34
588.012	30717.14
588.21	30870.74
588.407	31175.89
588.604	30686.42
588.801	30313.69
588.999	30442.71
589.196	30606.55
589.393	30362.84
589.59	30397.66
589.787	30190.81
589.984	29844.71
590.182	29887.71
590.379	29961.44
590.576	29451.5
590.773	29869.28
590.97	29347.05
591.167	29754.6
591.364	29369.58
591.561	29381.87
591.758	29531.37
591.955	29238.51
592.152	29220.08
592.349	28931.31
592.546	28818.67
592.743	29189.36
592.94	28599.54
593.137	28853.49
593.334	28814.58
593.531	28447.99
593.727	28437.75
593.924	28148.99
594.121	27964.67
594.318	28441.85
594.515	27823.36
594.712	28435.7
594.908	27966.72
595.105	28364.03
595.302	27831.55
595.499	27667.72
595.696	27776.26
595.892	27553.03
596.089	27630.85
596.286	27489.54
596.482	27608.33
596.679	27516.17
596.876	27393.29
597.072	27229.45
597.269	27292.94
597.466	26797.33
597.662	26889.49
597.859	27016.46
598.055	27096.33
598.252	26535.19
598.448	26866.96
598.645	26412.31
598.841	26330.39
599.038	26465.56
599.234	26537.24
599.431	26187.04
599.627	26320.15
599.824	26309.91
600.02	26055.97
600.217	26082.59
600.413	25687.33
600.609	25662.76
600.806	25574.69
601.002	25916.7
601.198	25357.61
601.395	25222.44
601.591	25591.08
601.787	25490.73
601.984	25185.58
602.18	25265.45
602.376	25091.37
602.572	24919.34
602.769	24751.41
602.965	24436.02
603.161	24880.43
603.357	24442.17
603.553	24415.54
603.75	24786.22
603.946	24233.27
604.142	24333.62
604.338	24063.29
604.534	24139.07
604.73	24298.81
604.926	24096.06
605.122	23895.36
605.318	23817.54
605.514	23590.21
605.71	23897.41
605.906	23176.52
606.102	23375.17
606.298	23500.1
606.494	23510.34
606.69	23409.99
606.886	23604.55
607.082	23266.63
607.278	23428.42
607.474	22689.1
607.67	23264.58
607.866	22916.43
608.062	22990.16
608.257	22805.84
608.453	23027.02
608.649	23147.85
608.845	22687.06
609.041	22631.76
609.236	22547.79
609.432	22543.7
609.628	22324.57
609.824	22013.27
610.019	22383.96
610.215	22596.95
610.411	22197.59
610.606	21970.27
610.802	22367.57
610.998	22181.21
611.193	22334.81
611.389	21906.78
611.584	21921.12
611.78	21695.84
611.976	21796.19
612.171	21632.35
612.367	21544.29
612.562	21560.67
612.758	21349.73
612.953	21441.89
613.149	21615.97
613.344	21321.06
613.539	21613.92
613.735	21206.38
613.93	21409.12
614.126	21362.02
614.321	21652.83
614.517	21265.77
614.712	20845.93
614.907	21065.07
615.103	21130.6
615.298	20897.13
615.493	20774.25
615.688	20802.93
615.884	21060.97
616.079	20483.44
616.274	20596.08
616.47	20602.22
616.665	20561.26
616.86	20544.88
617.055	20499.83
617.25	20673.9
617.445	20440.43
617.641	20086.14
617.836	20317.56
618.031	20485.49
618.226	20419.96
618.421	19793.28
618.616	20022.65
618.811	19932.54
619.006	19946.87
619.201	19307.91
619.396	19766.65
619.591	19438.98
619.786	19463.55
619.981	19359.11
620.176	19574.14
620.371	19070.34
620.566	19457.41
620.761	19094.92
620.956	19174.79
621.151	18617.74
621.346	18867.59
621.541	18433.43
621.735	18914.7
621.93	18714
622.125	18539.92
622.32	18257.3
622.515	18206.1
622.709	18124.18
622.904	18267.54
623.099	18212.24
623.294	18068.89
623.488	18056.6
623.683	17698.2
623.878	17782.17
624.072	17730.97
624.267	17620.38
624.462	17208.74
624.656	17272.23
624.851	17278.37
625.046	17243.56
625.24	17034.66
625.435	16922.02
625.629	16854.44
625.824	16643.5
626.018	16625.07
626.213	16260.53
626.407	16342.45
626.602	16018.87
626.796	16383.41
626.991	16059.83
627.185	16190.9
627.38	16018.87
627.574	15861.18
627.768	15838.65
627.963	16008.63
628.157	15553.98
628.352	15605.18
628.546	15271.36
628.74	15695.29
628.935	15441.34
629.129	15187.39
629.323	15318.46
629.517	15085
629.712	15037.89
629.906	14865.86
630.1	14544.33
630.294	14779.85
630.489	14765.51
630.683	14900.68
630.877	14329.3
631.071	14599.63
631.265	14738.89
631.459	14468.56
631.653	14259.67
631.848	14118.36
632.042	14286.29
632.236	14335.44
632.43	13917.65
632.624	14140.88
632.818	13716.95
633.012	13762.01
633.206	13710.81
633.4	13551.07
633.594	13499.87
633.788	13503.96
633.982	13430.24
634.176	13333.98
634.369	13448.67
634.563	13149.67
634.757	13096.42
634.951	13084.13
635.145	13155.81
635.339	13188.58
635.533	12942.82
635.726	12770.79
635.92	12492.27
636.114	12756.46
636.308	12619.24
636.501	12789.22
636.695	12594.67
636.889	12342.77
637.083	12273.14
637.276	12199.41
637.47	12232.18
637.664	12158.45
637.857	12170.74
638.051	12123.63
638.244	12054
638.438	11759.1
638.632	12031.48
638.825	11845.11
639.019	11714.04
639.212	11527.67
639.406	11572.73
639.599	11681.27
639.793	11417.08
639.986	11392.51
640.18	11316.73
640.373	11355.65
640.567	11249.15
640.76	10978.82
640.954	11093.51
641.147	11025.92
641.34	10952.2
641.534	11275.77
641.727	10778.12
641.92	10890.76
642.114	10731.01
642.307	10567.18
642.5	10530.31
642.694	10370.57
642.887	10440.2
643.08	10499.59
643.273	10380.81
643.467	10296.85
643.66	10247.69
643.853	10038.8
644.046	10024.47
644.239	10110.48
644.432	9969.17
644.626	9911.83
644.819	9967.12
645.012	9694.74
645.205	9756.18
645.398	9778.71
645.591	9496.09
645.784	9758.23
645.977	9510.43
646.17	9575.96
646.363	9356.83
646.556	9309.72
646.749	9315.87
646.942	9145.89
647.135	9217.57
647.328	9233.95
647.521	9160.22
647.714	8912.42
647.907	9084.45
648.099	9053.73
648.292	8893.99
648.485	8914.47
648.678	8879.65
648.871	8818.21
649.064	8605.22
649.256	8635.94
649.449	8699.43
649.642	8508.97
649.835	8392.23
650.027	8513.06
650.22	8306.22
650.413	8506.92
650.605	8363.56
650.798	8281.64
650.991	8330.8
651.183	8136.24
651.376	8089.14
651.568	8070.7
651.761	7984.69
651.954	7990.83
652.146	7829.04
652.339	7888.43
652.531	7927.35
652.724	7808.56
652.916	7616.05
653.109	7675.45
653.301	7783.99
653.494	7781.94
653.686	7566.9
653.879	7765.56
654.071	7484.98
654.263	7458.36
654.456	7448.12
654.648	7444.03
654.84	7118.4
655.033	7216.7
655.225	7347.77
655.417	7384.63
655.61	7241.28
655.802	7171.65
655.994	7159.36
656.186	6882.88
656.379	7118.4
656.571	7235.13
656.763	6889.03
656.955	6817.35
657.148	6837.83
657.34	6719.04
657.532	6745.67
657.724	6630.98
657.916	6766.15
658.108	6667.84
658.3	6542.92
658.492	6641.22
658.684	6387.27
658.876	6422.09
659.068	6336.07
659.26	6524.49
659.452	6303.31
659.644	6321.74
659.836	6090.32
660.028	6356.55
660.22	6229.58
660.412	6262.35
660.604	6135.37
660.796	6299.21
660.988	6045.26
661.18	6096.46
661.372	5998.16
661.563	6049.36
661.755	5801.55
661.947	5953.1
662.139	5822.03
662.331	5834.32
662.522	5586.52
662.714	5774.93
662.906	5629.52
663.097	5799.51
663.289	5637.72
663.481	5684.82
663.673	5592.66
663.864	5596.76
664.056	5510.74
664.247	5396.06
664.439	5424.73
664.631	5291.61
664.822	5381.72
665.014	5342.81
665.205	5432.92
665.397	5334.62
665.588	5307.99
665.78	5287.51
665.971	5172.83
666.163	5439.06
666.354	5170.78
666.546	5107.29
666.737	4980.32
666.929	4976.22
667.12	5052
667.311	5066.33
667.503	4882.02
667.694	5123.68
667.885	4820.58
668.077	4990.56
668.268	4902.5
668.459	5060.19
668.651	4865.63
668.842	4943.46
669.033	4730.47
669.224	4693.6
669.416	4781.67
669.607	4679.27
669.798	4609.64
669.989	4814.43
670.18	4609.64
670.371	4593.25
670.563	4542.05
670.754	4531.81
670.945	4540.01
671.136	4505.19
671.327	4615.78
671.518	4558.44
671.709	4501.09
671.9	4515.43
672.091	4507.24
672.282	4390.5
672.473	4447.85
672.664	4376.17
672.855	4337.26
673.046	4419.18
673.237	4417.13
673.428	4443.75
673.619	4279.91
673.809	4279.91
674	4130.41
674.191	4241
674.382	4175.47
674.573	4179.56
674.764	4154.99
674.954	4150.89
675.145	4042.35
675.336	4034.16
675.527	4200.04
675.717	4120.17
675.908	3956.33
676.099	4062.83
676.289	4109.93
676.48	3921.52
676.671	3999.34
676.861	3954.29
677.052	3800.69
677.243	3989.1
677.433	3870.32
677.624	3915.37
677.814	3876.46
678.005	3921.52
678.195	3925.61
678.386	3911.28
678.576	3749.49
678.767	3890.8
678.957	3786.35
679.148	3839.6
679.338	3786.35
679.529	3763.83
679.719	3718.77
679.909	3815.02
680.1	3620.47
680.29	3767.92
680.481	3767.92
680.671	3714.67
680.861	3733.11
681.052	3702.39
681.242	3712.63
681.432	3653.23
681.622	3542.64
681.813	3716.72
682.003	3509.88
682.193	3610.23
682.383	3585.65
682.573	3579.51
682.764	3577.46
682.954	3679.86
683.144	3585.65
683.334	3573.36
683.524	3501.69
683.714	3556.98
683.904	3520.12
684.094	3522.16
684.284	3499.64
684.474	3530.36
684.664	3569.27
684.854	3538.55
685.044	3427.96
685.234	3481.21
685.424	3477.11
685.614	3497.59
685.804	3286.65
685.994	3501.69
686.184	3485.3
686.374	3450.49
686.564	3483.25
686.753	3393.14
686.943	3421.81
687.133	3374.71
687.323	3360.38
687.513	3294.84
687.702	3325.56
687.892	3456.63
688.082	3241.59
688.272	3382.9
688.461	3268.22
688.651	3313.27
688.841	3202.68
689.03	3321.46
689.22	3352.18
689.41	3122.81
689.599	3253.88
689.789	3239.55
689.979	3165.82
690.168	3104.38
690.358	3104.38
690.547	3163.77
690.737	3098.24
690.926	3202.68
691.116	3124.86
691.305	3319.42
691.495	3112.57
691.684	3270.26
691.874	3188.35
692.063	3165.82
692.252	3188.35
692.442	3161.72
692.631	3184.25
692.82	3020.41
693.01	3006.08
693.199	3143.29
693.388	3141.24
693.578	3104.38
693.767	3153.53
693.956	3106.43
694.146	3182.2
694.335	3155.58
694.524	2938.49
694.713	3131
694.902	3157.63
695.092	3079.8
695.281	3020.41
695.47	3065.47
695.659	3073.66
695.848	3063.42
696.037	2930.3
696.226	2969.21
696.415	3038.84
696.604	3088
696.793	3030.65
696.982	3028.6
697.171	3038.84
697.36	2999.93
697.549	2997.88
697.738	2987.65
697.927	2967.17
698.116	3026.56
698.305	2956.93
698.494	3014.27
698.683	2932.35
698.872	2954.88
699.061	2971.26
699.25	2944.64
699.438	3071.61
699.627	2860.67
699.816	3008.12
700.005	2969.21
700.193	2918.01
700.382	2977.41
700.571	2940.54
700.76	2948.73
700.948	3067.52
701.137	2936.45
701.326	3024.51
701.514	2911.87
701.703	2915.97
701.892	3034.75
702.08	2963.07
702.269	2883.2
702.457	2825.86
702.646	2883.2
702.834	2932.35
703.023	2803.33
703.212	2797.18
703.4	2854.53
703.589	2702.98
703.777	2895.49
703.965	2803.33
704.154	2870.91
704.342	2709.12
704.531	2877.05
704.719	2764.42
704.907	2823.81
705.096	2731.65
705.284	2748.03
705.472	2745.98
705.661	2696.83
705.849	2834.05
706.037	2770.56
706.226	2690.69
706.414	2672.26
706.602	2752.13
706.79	2713.22
706.979	2719.36
707.167	2752.13
707.355	2694.79
707.543	2653.83
707.731	2551.43
707.919	2670.21
708.107	2606.72
708.296	2576
708.484	2565.76
708.672	2565.76
708.86	2522.76
709.048	2631.3
709.236	2608.77
709.424	2582.15
709.612	2545.28
709.8	2596.48
709.988	2473.6
710.176	2580.1
710.364	2475.65
710.551	2555.52
710.739	2471.56
710.927	2477.7
711.115	2453.13
711.303	2506.37
711.491	2422.41
711.679	2565.76
711.866	2555.52
712.054	2565.76
712.242	2459.27
712.43	2414.21
712.617	2485.89
712.805	2340.49
712.993	2260.62
713.181	2328.2
713.368	2381.45
713.556	2307.72
713.744	2371.21
713.931	2375.3
714.119	2221.7
714.306	2428.55
714.494	2367.11
714.682	2193.03
714.869	2258.57
715.057	2303.62
715.244	2205.32
715.432	2285.19
715.619	2317.96
715.807	2330.25
715.994	2277
716.182	2197.13
716.369	2178.7
716.556	2307.72
716.744	2221.7
716.931	2121.35
717.119	2311.82
717.306	2137.74
717.493	2227.85
717.681	2117.26
717.868	2131.59
718.055	2051.72
718.242	2031.24
718.43	2184.84
718.617	2158.22
718.804	2164.36
718.991	2023.05
719.179	2088.59
719.366	1998.48
719.553	2096.78
719.74	2107.02
719.927	2006.67
720.114	2090.63
720.301	2070.16
720.488	2057.87
720.676	1998.48
720.863	2059.92
721.05	2018.96
721.237	2000.52
721.424	1836.69
721.611	1939.09
721.798	2031.24
721.985	1924.75
722.172	1998.48
722.358	1832.59
722.545	2082.44
722.732	1934.99
722.919	1861.26
723.106	1947.28
723.293	1937.04
723.48	1975.95
723.667	1918.61
723.853	1908.37
724.04	1793.68
724.227	1851.02
724.414	1879.69
724.6	1799.82
724.787	1754.77
724.974	1820.3
725.161	1785.49
725.347	1863.31
725.534	1795.73
725.72	1799.82
725.907	1822.35
726.094	1752.72
726.28	1769.1
726.467	1791.63
726.653	1781.39
726.84	1795.73
727.027	1812.11
727.213	1857.17
727.4	1746.58
727.586	1752.72
727.773	1728.14
727.959	1744.53
728.145	1767.06
728.332	1752.72
728.518	1826.45
728.705	1611.41
728.891	1678.99
729.077	1709.71
729.264	1726.1
729.45	1670.8
729.636	1711.76
729.823	1613.46
730.009	1664.66
730.195	1672.85
730.382	1607.31
730.568	1556.11
730.754	1734.29
730.94	1726.1
731.126	1722
731.313	1664.66
731.499	1615.51
731.685	1689.23
731.871	1670.8
732.057	1695.38
732.243	1568.4
732.429	1547.92
732.615	1633.94
732.801	1658.51
732.987	1556.11
733.173	1504.92
733.359	1525.4
733.545	1646.23
733.731	1595.03
733.917	1539.73
734.103	1537.68
734.289	1588.88
734.475	1488.53
734.661	1541.78
734.847	1447.57
735.033	1502.87
735.219	1541.78
735.404	1574.55
735.59	1533.59
735.776	1478.29
735.962	1431.19
736.148	1394.33
736.333	1414.81
736.519	1519.25
736.705	1502.87
736.89	1357.46
737.076	1459.86
737.262	1463.96
737.447	1445.52
737.633	1480.34
737.819	1517.2
738.004	1441.43
738.19	1367.7
738.375	1427.09
738.561	1406.61
738.747	1369.75
738.932	1455.76
739.118	1449.62
739.303	1377.94
739.489	1328.79
739.674	1453.72
739.859	1312.41
740.045	1425.04
740.23	1359.51
740.416	1359.51
740.601	1474.2
740.786	1306.26
740.972	1326.74
741.157	1269.4
741.342	1304.21
741.528	1283.74
741.713	1277.59
741.898	1269.4
742.084	1228.44
742.269	1197.72
742.454	1275.54
742.639	1367.7
742.824	1244.82
743.01	1197.72
743.195	1185.43
743.38	1250.97
743.565	1203.86
743.75	1263.26
743.935	1240.73
744.12	1214.1
744.305	1207.96
744.49	1216.15
744.675	1203.86
744.86	1181.34
745.045	1261.21
745.23	1160.86
745.415	1246.87
745.6	1078.94
745.785	1187.48
745.97	1234.58
746.155	1177.24
746.34	1164.95
746.525	1058.46
746.71	1144.47
746.895	1023.64
747.079	990.88
747.264	1164.95
747.449	1162.9
747.634	1095.32
747.819	1113.75
748.003	1023.64
748.188	1019.55
748.373	1074.84
748.557	1074.84
748.742	1064.6
748.927	1126.04
749.111	1072.79
749.296	1005.21
749.481	1017.5
749.665	943.77
749.85	982.68
750.034	1009.31
750.219	990.88
750.404	1023.64
750.588	982.68
750.773	958.11
750.957	962.2
751.141	1052.31
751.326	980.64
751.51	954.01
751.695	868
751.879	954.01
752.064	941.72
752.248	933.53
752.432	925.34
752.617	988.83
752.801	960.16
752.985	951.96
753.17	960.16
753.354	941.72
753.538	872.09
753.722	798.37
753.907	900.76
754.091	773.79
754.275	986.78
754.459	911
754.643	755.36
754.828	933.53
755.012	911
755.196	824.99
755.38	753.31
755.564	816.8
755.748	798.37
755.932	886.43
756.116	790.17
756.3	810.65
756.484	761.5
756.668	868
756.852	736.93
757.036	749.22
757.22	814.75
757.404	816.8
757.588	779.93
757.772	812.7
757.956	837.28
758.14	796.32
758.323	822.94
758.507	714.4
758.691	843.42
758.875	851.61
759.059	724.64
759.242	747.17
759.426	704.16
759.61	693.92
759.794	747.17
759.977	652.96
760.161	736.93
760.345	724.64
760.528	736.93
760.712	657.06
760.895	714.4
761.079	648.86
761.263	642.72
761.446	626.34
761.63	671.39
761.813	659.1
761.997	691.87
762.18	626.34
762.364	562.85
762.547	677.54
762.731	698.02
762.914	679.58
763.098	650.91
763.281	691.87
763.464	595.62
763.648	642.72
763.831	622.24
764.015	626.34
764.198	628.39
764.381	607.91
764.564	628.39
764.748	640.67
764.931	597.67
765.114	614.05
765.297	607.91
765.481	601.76
765.664	552.61
765.847	640.67
766.03	556.71
766.213	601.76
766.397	544.42
766.58	622.24
766.763	671.39
766.946	642.72
767.129	630.43
767.312	579.23
767.495	556.71
767.678	583.33
767.861	595.62
768.044	650.91
768.227	597.67
768.41	591.52
768.593	564.9
768.776	581.28
768.959	642.72
769.142	663.2
769.324	564.9
769.507	616.1
769.69	593.57
769.873	515.75
770.056	620.19
770.239	589.47
770.421	626.34
770.604	519.84
770.787	593.57
770.97	583.33
771.152	525.99
771.335	587.43
771.518	558.75
771.7	536.23
771.883	573.09
772.066	458.4
772.248	624.29
772.431	542.37
772.613	577.19
772.796	427.68
772.978	544.42
773.161	544.42
773.343	509.6
773.526	468.64
773.708	485.03
773.891	462.5
774.073	517.79
774.256	595.62
774.438	579.23
774.621	568.99
774.803	462.5
774.985	482.98
775.168	501.41
775.35	458.4
775.532	544.42
775.715	489.12
775.897	466.6
776.079	421.54
776.261	482.98
776.444	540.32
776.626	384.68
776.808	419.49
776.99	401.06
777.173	458.4
777.355	456.36
777.537	433.83
777.719	474.79
777.901	442.02
778.083	437.92
778.265	435.88
778.447	390.82
778.629	448.16
778.811	407.2
778.993	480.93
779.175	392.87
779.357	421.54
779.539	347.81
779.721	401.06
779.903	390.82
780.085	345.77
780.267	417.44
780.449	417.44
780.631	378.53
780.812	370.34
780.994	388.77
781.176	376.48
781.358	384.68
781.54	417.44
781.721	372.39
781.903	347.81
782.085	315.05
782.267	384.68
782.448	229.03
782.63	444.07
782.812	376.48
782.993	276.13
783.175	288.42
783.357	351.91
783.538	388.77
783.72	298.66
783.901	413.35
784.083	392.87
784.264	310.95
784.446	284.33
784.627	294.57
784.809	255.65
784.99	306.85
785.172	386.72
785.353	366.25
785.535	372.39
785.716	286.37
785.897	329.38
786.079	351.91
786.26	267.94
786.441	261.8
786.623	310.95
786.804	261.8
786.985	257.7
787.167	276.13
787.348	296.61
787.529	296.61
787.71	306.85
787.891	374.44
788.073	294.57
788.254	282.28
788.435	288.42
788.616	278.18
788.797	229.03
788.978	245.41
789.159	294.57
789.34	245.41
789.522	280.23
789.703	229.03
789.884	290.47
790.065	294.57
790.246	302.76
790.427	280.23
790.607	200.36
790.788	171.69
790.969	237.22
791.15	251.56
791.331	286.37
791.512	214.7
791.693	212.65
791.874	286.37
792.054	245.41
792.235	212.65
792.416	282.28
792.597	208.55
792.778	306.85
792.958	206.5
793.139	200.36
793.32	255.65
793.5	200.36
793.681	237.22
793.862	214.7
794.042	143.02
794.223	161.45
794.404	210.6
794.584	130.73
794.765	212.65
794.945	220.84
795.126	214.7
795.306	143.02
795.487	222.89
795.667	155.3
795.848	102.06
796.028	183.98
796.209	169.64
796.389	110.25
796.57	196.26
796.75	159.4
796.93	167.59
797.111	161.45
797.291	220.84
797.471	190.12
797.652	208.55
797.832	143.02
798.012	204.46
798.192	186.02
798.373	149.16
798.553	151.21
798.733	245.41
798.913	140.97
799.093	128.68
799.274	145.06
799.454	202.41
799.634	132.78
799.814	200.36
799.994	183.98
800.174	155.3
800.354	169.64
800.534	163.5
800.714	224.94
800.894	181.93
801.074	118.44
801.254	173.74
801.434	183.98
801.614	204.46
801.794	143.02
801.974	364.2
802.154	95.91
802.334	134.82
802.514	179.88
802.693	212.65
802.873	165.54
803.053	77.48
803.233	151.21
803.413	173.74
803.592	104.11
803.772	122.54
803.952	157.35
804.131	173.74
804.311	81.58
804.491	102.06
804.67	128.68
804.85	52.91
805.03	163.5
805.209	89.77
805.389	212.65
805.568	138.92
805.748	110.25
805.928	122.54
806.107	138.92
806.287	210.6
806.466	130.73
806.646	159.4
806.825	161.45
807.004	132.78
807.184	122.54
807.363	143.02
807.543	149.16
807.722	175.78
807.901	134.82
808.081	138.92
808.26	159.4
808.439	149.16
808.619	114.34
808.798	63.15
808.977	163.5
809.156	138.92
809.336	122.54
809.515	171.69
809.694	83.63
809.873	89.77
810.052	91.82
810.231	83.63
810.411	100.01
810.59	106.15
810.769	67.24
810.948	108.2
811.127	81.58
811.306	100.01
811.485	108.2
811.664	147.11
811.843	95.91
812.022	87.72
812.201	106.15
812.38	95.91
812.559	65.19
812.737	126.63
812.916	97.96
813.095	81.58
813.274	93.87
813.453	89.77
813.632	79.53
813.811	57
813.989	95.91
814.168	151.21
814.347	81.58
814.526	93.87
814.704	73.39
814.883	73.39
815.062	83.63
815.24	114.34
815.419	42.67
815.598	100.01
815.776	97.96
815.955	89.77
816.133	50.86
816.312	159.4
816.49	63.15
816.669	122.54
816.847	65.19
817.026	95.91
817.204	42.67
817.383	114.34
817.561	-31.06
817.74	36.52
817.918	183.98
818.097	77.48
818.275	143.02
818.453	36.52
818.632	97.96
818.81	59.05
818.988	28.33
819.167	120.49
819.345	165.54
819.523	100.01
819.701	83.63
819.879	147.11
820.058	100.01
820.236	106.15
820.414	-20.82
820.592	95.91
820.77	65.19
820.948	67.24
821.127	7.85
821.305	116.39
821.483	-2.39
821.661	118.44
821.839	102.06
822.017	22.19
822.195	85.67
822.373	57
822.551	100.01
822.729	81.58
822.907	79.53
823.085	65.19
823.262	147.11
823.44	57
823.618	32.43
823.796	106.15
823.974	42.67
824.152	50.86
824.329	48.81
824.507	67.24
824.685	34.47
824.863	44.71
825.04	89.77
825.218	40.62
825.396	112.3
825.574	63.15
825.751	102.06
825.929	171.69
826.107	50.86
826.284	46.76
826.462	28.33
826.639	16.04
826.817	54.95
826.994	73.39
827.172	83.63
827.349	34.47
827.527	18.09
827.704	40.62
827.882	26.28
828.059	73.39
828.237	38.57
828.414	52.91
828.591	104.11
828.769	118.44
828.946	75.43
829.124	16.04
829.301	79.53
829.478	50.86
829.655	44.71
829.833	106.15
830.01	20.14
830.187	36.52
830.364	-24.92
830.542	24.23
830.719	75.43
830.896	65.19
831.073	89.77
831.25	7.85
831.427	32.43
831.604	48.81
831.782	-6.49
831.959	89.77
832.136	3.75
832.313	24.23
832.49	63.15
832.667	-6.49
832.844	67.24
833.021	24.23
833.198	42.67
833.374	36.52
833.551	38.57
833.728	52.91
833.905	67.24
834.082	-22.87
834.259	95.91
834.436	73.39
834.612	24.23
834.789	77.48
834.966	48.81
835.143	-14.68
835.319	36.52
835.496	-14.68
835.673	-4.44
835.85	57
836.026	24.23
836.203	87.72
836.38	-8.53
836.556	112.3
836.733	-2.39
836.909	-8.53
837.086	54.95
837.262	20.14
837.439	67.24
837.616	16.04
837.792	-6.49
837.968	59.05
838.145	34.47
838.321	108.2
838.498	61.1
838.674	30.38
838.851	85.67
839.027	1.71
839.203	91.82
839.38	24.23
839.556	32.43
839.732	40.62
839.909	-4.44
840.085	69.29
840.261	24.23
840.437	73.39
840.614	63.15
840.79	75.43
840.966	48.81
841.142	73.39
841.318	89.77
841.494	7.85
841.671	-22.87
841.847	69.29
842.023	-16.73
842.199	26.28
842.375	65.19
842.551	38.57
842.727	-61.78
842.903	52.91
843.079	9.9
843.255	18.09
843.431	3.75
843.607	44.71
843.783	-0.34
843.959	38.57
844.134	48.81
844.31	36.52
844.486	18.09
844.662	-0.34
844.838	28.33
845.013	3.75
845.189	24.23
845.365	40.62
845.541	16.04
845.716	-24.92
845.892	-2.39
846.068	-24.92
846.244	24.23
846.419	77.48
846.595	-8.53
846.77	-49.49
846.946	-20.82
847.122	-22.87
847.297	22.19
847.473	110.25
847.648	24.23
847.824	-35.16
847.999	-35.16
848.175	-72.02
848.35	18.09
848.526	50.86
848.701	54.95
848.876	5.8
849.052	-8.53
849.227	40.62
849.403	18.09
849.578	-26.96
849.753	11.95
849.929	36.52
850.104	46.76
850.279	97.96
850.454	44.71
850.63	-0.34
850.805	-2.39
850.98	110.25
851.155	32.43
851.33	22.19
851.505	-47.44
851.681	130.73
851.856	-22.87
852.031	89.77
852.206	44.71
852.381	38.57
852.556	16.04
852.731	44.71
852.906	63.15
853.081	-2.39
853.256	-14.68
853.431	16.04
853.606	16.04
853.781	13.99
853.956	-29.01
854.131	65.19
854.305	36.52
854.48	91.82
854.655	24.23
854.83	-22.87
855.005	-82.26
855.18	24.23
855.354	28.33
855.529	28.33
855.704	24.23
855.879	-0.34
856.053	5.8
856.228	-24.92
856.403	36.52
856.577	1.71
856.752	-16.73
856.926	-14.68
857.101	13.99
857.276	-43.35
857.45	-41.3
857.625	44.71
857.799	11.95
857.974	57
858.148	61.1
858.323	34.47
858.497	18.09
858.672	-37.2
858.846	-14.68
859.02	59.05
859.195	-2.39
859.369	42.67
859.543	-63.83
859.718	16.04
859.892	-49.49
860.066	42.67
860.241	40.62
860.415	-49.49
860.589	36.52
860.763	34.47
860.938	5.8
861.112	-8.53
861.286	-39.25
861.46	-33.11
861.634	48.81
861.808	24.23
861.982	16.04
862.157	9.9
862.331	50.86
862.505	-86.36
862.679	-26.96
862.853	-6.49
863.027	18.09
863.201	75.43
863.375	1.71
863.549	-39.25
863.722	50.86
863.896	36.52
864.07	7.85
864.244	-16.73
864.418	44.71
864.592	-2.39
864.766	11.95
864.939	-24.92
865.113	-14.68
865.287	11.95
865.461	-6.49
865.634	34.47
865.808	32.43
865.982	18.09
866.156	34.47
866.329	28.33
866.503	-0.34
866.676	16.04
866.85	26.28
867.024	36.52
867.197	-0.34
867.371	-22.87
867.544	26.28
867.718	32.43
867.891	48.81
868.065	-6.49
868.238	54.95
868.412	-8.53
868.585	59.05
868.759	32.43
868.932	-49.49
869.105	16.04
869.279	32.43
869.452	40.62
869.625	22.19
869.799	44.71
869.972	-63.83
870.145	-119.12
870.319	-2.39
870.492	-0.34
870.665	-65.88
870.838	-4.44
871.011	-29.01
871.185	11.95
871.358	32.43
871.531	3.75
871.704	-61.78
871.877	50.86
872.05	-72.02
872.223	-59.73
872.396	32.43
872.569	44.71
872.742	-78.16
872.915	-0.34
873.088	-14.68
873.261	-18.77
873.434	-33.11
873.607	-96.6
873.78	-16.73
873.953	18.09
874.126	-41.3
874.299	34.47
874.471	-10.58
874.644	-12.63
874.817	40.62
874.99	77.48
875.163	-29.01
875.335	-72.02
875.508	-12.63
875.681	-4.44
875.853	16.04
876.026	-14.68
876.199	-41.3
876.371	-49.49
876.544	54.95
876.717	89.77
876.889	3.75
877.062	40.62
877.234	-39.25
877.407	9.9
877.579	-69.97
877.752	13.99
877.924	-61.78
878.097	-16.73
878.269	9.9
878.442	-10.58
878.614	-67.92
878.786	7.85
878.959	-65.88
879.131	-39.25
879.303	-59.73
879.476	65.19
879.648	-41.3
879.82	40.62
879.993	-31.06
880.165	42.67
880.337	-53.59
880.509	-8.53
880.681	-2.39
880.854	36.52
881.026	11.95
881.198	5.8
881.37	-33.11
881.542	-0.34
881.714	1.71
881.886	-33.11
882.058	34.47
882.23	1.71
882.402	40.62
882.574	-12.63
882.746	-10.58
882.918	38.57
883.09	-22.87
883.262	-16.73
883.434	-47.44
883.606	44.71
883.778	9.9
883.95	48.81
884.122	106.15
884.293	-45.4
884.465	-37.2
884.637	-4.44
884.809	7.85
884.98	16.04
885.152	-39.25
885.324	100.01
885.496	-115.03
885.667	28.33
885.839	42.67
886.011	9.9
886.182	38.57
886.354	-76.12
886.525	11.95
886.697	1.71
886.869	-49.49
887.04	-63.83
887.212	13.99
887.383	20.14
887.555	5.8
887.726	50.86
887.897	-22.87
888.069	-24.92
888.24	1.71
888.412	28.33
888.583	57
888.754	7.85
888.926	48.81
889.097	9.9
889.268	-80.21
889.44	32.43
889.611	-80.21
889.782	9.9
889.953	-84.31
890.125	9.9
890.296	-24.92
890.467	7.85
890.638	-74.07
890.809	-20.82
890.98	-0.34
891.151	38.57
891.323	-61.78
891.494	-8.53
891.665	40.62
891.836	34.47
892.007	-12.63
892.178	18.09
892.349	7.85
892.52	7.85
892.691	26.28
892.862	7.85
893.032	-41.3
893.203	32.43
893.374	-0.34
893.545	1.71
893.716	-24.92
893.887	-31.06
894.057	-33.11
894.228	3.75
894.399	-4.44
894.57	18.09
894.74	16.04
894.911	1.71
895.082	-0.34
895.253	5.8
895.423	20.14
895.594	22.19
895.764	57
895.935	-12.63
896.106	26.28
896.276	52.91
896.447	16.04
896.617	1.71
896.788	-74.07
896.958	50.86
897.129	34.47
897.299	-45.4
897.47	-63.83
897.64	-8.53
897.81	-49.49
897.981	-2.39
898.151	1.71
898.322	-24.92
898.492	34.47
898.662	-4.44
898.832	3.75
899.003	-72.02
899.173	24.23
899.343	-86.36
899.513	-18.77
