Data from USB4F104151__164__13-58-47-232.txt Node

Date: Thu Mar 13 13:58:47 EDT 2025
User: louis
Spectrometer: USB4F10415
Trigger mode: 4
Integration Time (sec): 1.000000E-2
Scans to average: 1
Electric dark correction enabled: true
Nonlinearity correction enabled: false
Boxcar width: 0
XAxis mode: Wavelengths
Number of Pixels in Spectrum: 3648
>>>>>Begin Spectral Data<<<<<
178.204	-53.08
178.424	-53.08
178.644	-53.08
178.864	-57.17
179.084	-57.17
179.304	16.55
179.524	18.6
179.744	18.6
179.964	20.65
180.184	-65.36
180.404	-36.69
180.624	18.6
180.844	16.55
181.064	4.27
181.283	-16.21
181.503	30.89
181.723	-26.45
181.943	-73.56
182.163	-20.31
182.383	39.08
182.602	20.65
182.822	55.47
183.042	-48.98
183.262	45.23
183.482	39.08
183.701	14.51
183.921	-12.12
184.141	-26.45
184.361	32.94
184.58	16.55
184.8	4.27
185.02	2.22
185.239	-5.97
185.459	2.22
185.679	10.41
185.898	-24.4
186.118	37.03
186.338	-102.23
186.557	61.61
186.777	10.41
186.997	-5.97
187.216	-36.69
187.436	43.18
187.655	6.31
187.875	69.8
188.095	-30.55
188.314	0.17
188.534	65.71
188.753	-53.08
188.973	-57.17
189.192	53.42
189.412	-67.41
189.631	-34.64
189.851	-102.23
190.07	65.71
190.29	14.51
190.509	69.8
190.729	77.99
190.948	53.42
191.168	47.27
191.387	8.36
191.607	28.84
191.826	18.6
192.045	-94.04
192.265	22.7
192.484	20.65
192.704	96.43
192.923	20.65
193.142	88.23
193.362	47.27
193.581	2.22
193.8	-12.12
194.02	69.8
194.239	41.13
194.458	37.03
194.678	12.46
194.897	16.55
195.116	28.84
195.335	30.89
195.555	0.17
195.774	4.27
195.993	-3.93
196.212	-28.5
196.432	-24.4
196.651	-36.69
196.87	4.27
197.089	26.79
197.308	-12.12
197.528	88.23
197.747	45.23
197.966	-46.93
198.185	24.75
198.404	49.32
198.623	16.55
198.842	-16.21
199.062	-48.98
199.281	67.75
199.5	0.17
199.719	-1.88
199.938	47.27
200.157	67.75
200.376	45.23
200.595	61.61
200.814	47.27
201.033	-18.26
201.252	-44.88
201.471	24.75
201.69	14.51
201.909	41.13
202.128	30.89
202.347	-3.93
202.566	-8.02
202.785	-53.08
203.004	22.7
203.223	63.66
203.442	-38.74
203.661	24.75
203.879	22.7
204.098	45.23
204.317	-10.07
204.536	65.71
204.755	8.36
204.974	39.08
205.193	32.94
205.411	14.51
205.63	49.32
205.849	-28.5
206.068	-38.74
206.287	-10.07
206.505	28.84
206.724	53.42
206.943	51.37
207.162	-20.31
207.381	-22.36
207.599	69.8
207.818	2.22
208.037	-36.69
208.255	59.56
208.474	12.46
208.693	37.03
208.911	32.94
209.13	24.75
209.349	24.75
209.567	61.61
209.786	4.27
210.005	57.51
210.223	0.17
210.442	43.18
210.661	16.55
210.879	-40.79
211.098	-20.31
211.316	61.61
211.535	4.27
211.753	39.08
211.972	24.75
212.191	-8.02
212.409	4.27
212.628	6.31
212.846	51.37
213.065	-16.21
213.283	-22.36
213.502	-3.93
213.72	-16.21
213.938	6.31
214.157	61.61
214.375	32.94
214.594	-67.41
214.812	16.55
215.031	16.55
215.249	2.22
215.467	53.42
215.686	-38.74
215.904	32.94
216.122	14.51
216.341	28.84
216.559	69.8
216.778	0.17
216.996	4.27
217.214	22.7
217.432	75.95
217.651	-44.88
217.869	47.27
218.087	-26.45
218.306	22.7
218.524	51.37
218.742	-5.97
218.96	59.56
219.179	53.42
219.397	65.71
219.615	-12.12
219.833	57.51
220.051	-14.17
220.27	43.18
220.488	6.31
220.706	71.85
220.924	123.05
221.142	-61.27
221.36	47.27
221.578	37.03
221.796	-26.45
222.015	10.41
222.233	22.7
222.451	10.41
222.669	63.66
222.887	-3.93
223.105	32.94
223.323	22.7
223.541	-3.93
223.759	16.55
223.977	16.55
224.195	0.17
224.413	12.46
224.631	18.6
224.849	20.65
225.067	28.84
225.285	-22.36
225.503	61.61
225.721	-8.02
225.939	16.55
226.157	-18.26
226.375	55.47
226.592	-22.36
226.81	69.8
227.028	4.27
227.246	90.28
227.464	28.84
227.682	4.27
227.9	55.47
228.117	-36.69
228.335	45.23
228.553	43.18
228.771	10.41
228.989	55.47
229.206	-16.21
229.424	121
229.642	37.03
229.86	12.46
230.077	28.84
230.295	4.27
230.513	0.17
230.731	37.03
230.948	53.42
231.166	61.61
231.384	39.08
231.601	-18.26
231.819	90.28
232.037	22.7
232.254	71.85
232.472	63.66
232.689	4.27
232.907	20.65
233.125	53.42
233.342	18.6
233.56	-79.7
233.777	-38.74
233.995	39.08
234.213	65.71
234.43	24.75
234.648	-44.88
234.865	4.27
235.083	65.71
235.3	61.61
235.518	86.19
235.735	51.37
235.953	71.85
236.17	53.42
236.388	-18.26
236.605	47.27
236.822	6.31
237.04	32.94
237.257	37.03
237.475	2.22
237.692	-20.31
237.909	-10.07
238.127	22.7
238.344	12.46
238.562	69.8
238.779	-59.22
238.996	28.84
239.214	-14.17
239.431	20.65
239.648	-40.79
239.865	-3.93
240.083	20.65
240.3	28.84
240.517	-42.84
240.735	18.6
240.952	12.46
241.169	-40.79
241.386	43.18
241.603	-1.88
241.821	-32.6
242.038	-32.6
242.255	-12.12
242.472	55.47
242.689	24.75
242.907	37.03
243.124	-28.5
243.341	-5.97
243.558	2.22
243.775	8.36
243.992	32.94
244.209	39.08
244.426	104.62
244.643	30.89
244.86	-10.07
245.078	45.23
245.295	16.55
245.512	20.65
245.729	65.71
245.946	-63.32
246.163	10.41
246.38	-36.69
246.597	30.89
246.814	12.46
247.031	20.65
247.248	-10.07
247.464	20.65
247.681	12.46
247.898	-1.88
248.115	39.08
248.332	63.66
248.549	0.17
248.766	0.17
248.983	43.18
249.2	8.36
249.417	16.55
249.633	2.22
249.85	69.8
250.067	-28.5
250.284	26.79
250.501	-16.21
250.717	4.27
250.934	-16.21
251.151	28.84
251.368	-8.02
251.585	34.99
251.801	10.41
252.018	-48.98
252.235	61.61
252.451	28.84
252.668	-36.69
252.885	-30.55
253.102	43.18
253.318	28.84
253.535	18.6
253.752	22.7
253.968	0.17
254.185	55.47
254.401	20.65
254.618	106.67
254.835	34.99
255.051	37.03
255.268	18.6
255.484	-28.5
255.701	69.8
255.917	47.27
256.134	-44.88
256.351	4.27
256.567	-16.21
256.784	39.08
257	-55.12
257.217	86.19
257.433	45.23
257.65	-26.45
257.866	51.37
258.082	20.65
258.299	12.46
258.515	4.27
258.732	-63.32
258.948	90.28
259.165	-20.31
259.381	-26.45
259.597	-5.97
259.814	12.46
260.03	-5.97
260.246	86.19
260.463	90.28
260.679	26.79
260.895	-34.64
261.112	45.23
261.328	14.51
261.544	-16.21
261.761	61.61
261.977	55.47
262.193	63.66
262.409	-1.88
262.626	55.47
262.842	22.7
263.058	75.95
263.274	73.9
263.49	-53.08
263.707	106.67
263.923	22.7
264.139	37.03
264.355	20.65
264.571	26.79
264.787	-1.88
265.004	30.89
265.22	-79.7
265.436	-14.17
265.652	4.27
265.868	135.34
266.084	-87.89
266.3	65.71
266.516	61.61
266.732	-59.22
266.948	-1.88
267.164	12.46
267.38	63.66
267.596	49.32
267.812	18.6
268.028	47.27
268.244	-65.36
268.46	110.76
268.676	4.27
268.892	80.04
269.108	-75.6
269.324	80.04
269.54	30.89
269.756	45.23
269.972	-3.93
270.188	30.89
270.403	-53.08
270.619	57.51
270.835	18.6
271.051	-18.26
271.267	55.47
271.483	-36.69
271.698	8.36
271.914	41.13
272.13	45.23
272.346	8.36
272.562	-8.02
272.777	2.22
272.993	45.23
273.209	12.46
273.425	-36.69
273.64	30.89
273.856	61.61
274.072	-24.4
274.287	8.36
274.503	26.79
274.719	49.32
274.934	26.79
275.15	32.94
275.366	45.23
275.581	-65.36
275.797	-3.93
276.012	100.52
276.228	32.94
276.444	37.03
276.659	92.33
276.875	14.51
277.09	41.13
277.306	14.51
277.521	82.09
277.737	-36.69
277.952	96.43
278.168	22.7
278.383	18.6
278.599	-20.31
278.814	41.13
279.03	-34.64
279.245	12.46
279.461	6.31
279.676	41.13
279.892	16.55
280.107	14.51
280.322	67.75
280.538	-32.6
280.753	-12.12
280.969	94.38
281.184	-65.36
281.399	20.65
281.615	-8.02
281.83	-38.74
282.045	75.95
282.26	32.94
282.476	37.03
282.691	39.08
282.906	0.17
283.122	4.27
283.337	49.32
283.552	51.37
283.767	39.08
283.983	12.46
284.198	0.17
284.413	-81.75
284.628	45.23
284.843	-10.07
285.058	80.04
285.274	-34.64
285.489	-22.36
285.704	0.17
285.919	-5.97
286.134	-8.02
286.349	14.51
286.564	-28.5
286.779	0.17
286.995	2.22
287.21	63.66
287.425	14.51
287.64	67.75
287.855	-42.84
288.07	16.55
288.285	77.99
288.5	49.32
288.715	6.31
288.93	63.66
289.145	18.6
289.36	102.57
289.575	28.84
289.79	49.32
290.004	28.84
290.219	28.84
290.434	20.65
290.649	-30.55
290.864	-1.88
291.079	53.42
291.294	-20.31
291.509	53.42
291.724	67.75
291.938	0.17
292.153	53.42
292.368	-12.12
292.583	22.7
292.798	14.51
293.012	69.8
293.227	69.8
293.442	-8.02
293.657	-1.88
293.871	32.94
294.086	4.27
294.301	-40.79
294.516	110.76
294.73	67.75
294.945	30.89
295.16	32.94
295.374	2.22
295.589	49.32
295.804	26.79
296.018	63.66
296.233	53.42
296.447	82.09
296.662	-42.84
296.877	67.75
297.091	-14.17
297.306	-28.5
297.52	-42.84
297.735	-1.88
297.949	39.08
298.164	45.23
298.378	34.99
298.593	30.89
298.807	6.31
299.022	6.31
299.236	47.27
299.451	94.38
299.665	90.28
299.88	30.89
300.094	45.23
300.309	34.99
300.523	-53.08
300.737	14.51
300.952	0.17
301.166	98.47
301.381	18.6
301.595	55.47
301.809	53.42
302.024	100.52
302.238	14.51
302.452	4.27
302.667	-46.93
302.881	-40.79
303.095	4.27
303.309	-12.12
303.524	67.75
303.738	34.99
303.952	-34.64
304.166	45.23
304.381	-26.45
304.595	53.42
304.809	-44.88
305.023	6.31
305.237	32.94
305.452	41.13
305.666	28.84
305.88	34.99
306.094	114.86
306.308	-20.31
306.522	-12.12
306.736	45.23
306.95	-42.84
307.164	0.17
307.379	34.99
307.593	88.23
307.807	34.99
308.021	-26.45
308.235	-81.75
308.449	-16.21
308.663	57.51
308.877	96.43
309.091	4.27
309.305	20.65
309.519	-24.4
309.733	65.71
309.947	-22.36
310.161	57.51
310.374	37.03
310.588	-12.12
310.802	28.84
311.016	63.66
311.23	98.47
311.444	37.03
311.658	-32.6
311.872	96.43
312.085	-18.26
312.299	12.46
312.513	16.55
312.727	16.55
312.941	32.94
313.154	34.99
313.368	-8.02
313.582	-20.31
313.796	12.46
314.009	47.27
314.223	-44.88
314.437	12.46
314.651	102.57
314.864	75.95
315.078	12.46
315.292	-14.17
315.505	65.71
315.719	28.84
315.933	16.55
316.146	16.55
316.36	96.43
316.573	28.84
316.787	49.32
317.001	4.27
317.214	28.84
317.428	-16.21
317.641	34.99
317.855	20.65
318.068	-28.5
318.282	28.84
318.495	88.23
318.709	-18.26
318.922	-87.89
319.136	86.19
319.349	8.36
319.563	102.57
319.776	20.65
319.99	-26.45
320.203	10.41
320.417	-8.02
320.63	28.84
320.843	28.84
321.057	32.94
321.27	32.94
321.483	-3.93
321.697	0.17
321.91	0.17
322.124	4.27
322.337	-36.69
322.55	75.95
322.763	-12.12
322.977	18.6
323.19	20.65
323.403	-1.88
323.617	32.94
323.83	16.55
324.043	26.79
324.256	32.94
324.469	55.47
324.683	59.56
324.896	12.46
325.109	121
325.322	-14.17
325.535	53.42
325.748	37.03
325.962	112.81
326.175	22.7
326.388	94.38
326.601	51.37
326.814	-14.17
327.027	57.51
327.24	4.27
327.453	-28.5
327.666	65.71
327.879	102.57
328.092	-1.88
328.305	-12.12
328.518	55.47
328.731	28.84
328.944	84.14
329.157	16.55
329.37	18.6
329.583	69.8
329.796	28.84
330.009	-3.93
330.222	57.51
330.435	43.18
330.648	49.32
330.861	-5.97
331.073	16.55
331.286	-26.45
331.499	28.84
331.712	43.18
331.925	-14.17
332.138	-22.36
332.35	-28.5
332.563	-26.45
332.776	16.55
332.989	-1.88
333.202	-8.02
333.414	-3.93
333.627	-5.97
333.84	53.42
334.053	34.99
334.265	-18.26
334.478	14.51
334.691	-18.26
334.903	30.89
335.116	2.22
335.329	14.51
335.541	16.55
335.754	-36.69
335.966	-18.26
336.179	26.79
336.392	-10.07
336.604	55.47
336.817	28.84
337.029	-22.36
337.242	-5.97
337.454	16.55
337.667	-10.07
337.88	22.7
338.092	86.19
338.305	39.08
338.517	8.36
338.729	30.89
338.942	-26.45
339.154	63.66
339.367	12.46
339.579	28.84
339.792	-16.21
340.004	6.31
340.217	49.32
340.429	86.19
340.641	47.27
340.854	61.61
341.066	-3.93
341.278	-3.93
341.491	12.46
341.703	39.08
341.915	-10.07
342.128	-10.07
342.34	6.31
342.552	47.27
342.764	-10.07
342.977	24.75
343.189	2.22
343.401	6.31
343.613	-69.46
343.826	10.41
344.038	-24.4
344.25	-32.6
344.462	51.37
344.674	34.99
344.886	32.94
345.099	26.79
345.311	-12.12
345.523	10.41
345.735	26.79
345.947	41.13
346.159	14.51
346.371	4.27
346.583	28.84
346.795	6.31
347.007	2.22
347.219	8.36
347.431	-26.45
347.643	77.99
347.855	2.22
348.067	59.56
348.279	-46.93
348.491	-36.69
348.703	53.42
348.915	71.85
349.127	18.6
349.339	121
349.551	-8.02
349.763	69.8
349.975	24.75
350.187	88.23
350.399	-3.93
350.61	106.67
350.822	-48.98
351.034	-14.17
351.246	-12.12
351.458	77.99
351.669	-1.88
351.881	-42.84
352.093	20.65
352.305	45.23
352.517	14.51
352.728	41.13
352.94	61.61
353.152	51.37
353.363	0.17
353.575	-8.02
353.787	-22.36
353.999	51.37
354.21	59.56
354.422	47.27
354.633	51.37
354.845	41.13
355.057	16.55
355.268	-28.5
355.48	-53.08
355.692	73.9
355.903	73.9
356.115	32.94
356.326	39.08
356.538	32.94
356.749	6.31
356.961	20.65
357.172	65.71
357.384	18.6
357.595	16.55
357.807	47.27
358.018	28.84
358.23	-36.69
358.441	47.27
358.653	61.61
358.864	45.23
359.075	28.84
359.287	61.61
359.498	6.31
359.709	-42.84
359.921	-1.88
360.132	37.03
360.344	-38.74
360.555	-10.07
360.766	-30.55
360.977	53.42
361.189	55.47
361.4	6.31
361.611	63.66
361.823	12.46
362.034	10.41
362.245	39.08
362.456	-30.55
362.667	28.84
362.879	86.19
363.09	43.18
363.301	-1.88
363.512	61.61
363.723	37.03
363.935	32.94
364.146	90.28
364.357	-18.26
364.568	106.67
364.779	55.47
364.99	73.9
365.201	6.31
365.412	-16.21
365.623	-40.79
365.834	16.55
366.045	32.94
366.256	-36.69
366.467	-40.79
366.678	43.18
366.889	37.03
367.1	57.51
367.311	-3.93
367.522	-32.6
367.733	55.47
367.944	75.95
368.155	12.46
368.366	2.22
368.577	37.03
368.788	118.95
368.999	34.99
369.209	61.61
369.42	30.89
369.631	59.56
369.842	65.71
370.053	-28.5
370.264	47.27
370.474	-20.31
370.685	14.51
370.896	53.42
371.107	6.31
371.317	16.55
371.528	24.75
371.739	57.51
371.95	10.41
372.16	-53.08
372.371	37.03
372.582	32.94
372.792	28.84
373.003	28.84
373.214	24.75
373.424	75.95
373.635	24.75
373.846	37.03
374.056	6.31
374.267	-18.26
374.477	-10.07
374.688	41.13
374.898	34.99
375.109	20.65
375.319	59.56
375.53	22.7
375.74	73.9
375.951	69.8
376.161	43.18
376.372	-51.03
376.582	10.41
376.793	4.27
377.003	43.18
377.214	53.42
377.424	45.23
377.635	8.36
377.845	26.79
378.055	18.6
378.266	-12.12
378.476	24.75
378.686	14.51
378.897	55.47
379.107	26.79
379.317	-1.88
379.528	-14.17
379.738	57.51
379.948	32.94
380.158	34.99
380.369	-30.55
380.579	8.36
380.789	-61.27
380.999	61.61
381.21	12.46
381.42	73.9
381.63	-3.93
381.84	-20.31
382.05	-3.93
382.261	32.94
382.471	-24.4
382.681	18.6
382.891	45.23
383.101	32.94
383.311	41.13
383.521	55.47
383.731	6.31
383.941	123.05
384.151	-98.13
384.361	-18.26
384.571	22.7
384.781	-8.02
384.991	77.99
385.201	-34.64
385.411	-42.84
385.621	-1.88
385.831	53.42
386.041	80.04
386.251	-5.97
386.461	26.79
386.671	-30.55
386.881	24.75
387.091	26.79
387.301	39.08
387.511	-3.93
387.72	47.27
387.93	63.66
388.14	-10.07
388.35	-5.97
388.56	86.19
388.769	45.23
388.979	39.08
389.189	-26.45
389.399	51.37
389.609	-8.02
389.818	45.23
390.028	-3.93
390.238	69.8
390.447	69.8
390.657	20.65
390.867	53.42
391.076	63.66
391.286	20.65
391.496	80.04
391.705	77.99
391.915	2.22
392.125	-5.97
392.334	-26.45
392.544	61.61
392.753	6.31
392.963	6.31
393.172	18.6
393.382	8.36
393.591	39.08
393.801	77.99
394.01	-22.36
394.22	12.46
394.429	53.42
394.639	-14.17
394.848	114.86
395.058	24.75
395.267	-16.21
395.477	30.89
395.686	102.57
395.895	6.31
396.105	110.76
396.314	-28.5
396.524	37.03
396.733	51.37
396.942	73.9
397.152	-8.02
397.361	4.27
397.57	102.57
397.78	-8.02
397.989	88.23
398.198	37.03
398.407	94.38
398.617	24.75
398.826	47.27
399.035	80.04
399.244	104.62
399.453	43.18
399.663	71.85
399.872	4.27
400.081	80.04
400.29	28.84
400.499	41.13
400.708	-16.21
400.917	20.65
401.127	80.04
401.336	67.75
401.545	114.86
401.754	-3.93
401.963	53.42
402.172	84.14
402.381	2.22
402.59	12.46
402.799	20.65
403.008	39.08
403.217	84.14
403.426	28.84
403.635	0.17
403.844	65.71
404.053	37.03
404.262	77.99
404.471	45.23
404.68	129.19
404.888	41.13
405.097	55.47
405.306	86.19
405.515	73.9
405.724	88.23
405.933	82.09
406.142	-12.12
406.35	82.09
406.559	26.79
406.768	39.08
406.977	67.75
407.185	75.95
407.394	88.23
407.603	37.03
407.812	106.67
408.02	53.42
408.229	106.67
408.438	71.85
408.646	77.99
408.855	104.62
409.064	75.95
409.272	65.71
409.481	47.27
409.69	149.67
409.898	184.49
410.107	59.56
410.315	129.19
410.524	73.9
410.733	247.97
410.941	157.86
411.15	135.34
411.358	127.14
411.567	135.34
411.775	84.14
411.984	116.9
412.192	200.87
412.401	178.34
412.609	196.78
412.818	137.38
413.026	180.39
413.234	127.14
413.443	186.54
413.651	133.29
413.86	211.11
414.068	186.54
414.276	176.3
414.485	166.06
414.693	190.63
414.901	213.16
415.11	239.78
415.318	286.89
415.526	172.2
415.734	227.5
415.943	284.84
416.151	252.07
416.359	215.21
416.567	307.37
416.776	284.84
416.984	264.36
417.192	319.65
417.4	272.55
417.608	325.8
417.817	317.61
418.025	358.57
418.233	333.99
418.441	338.09
418.649	401.57
418.857	362.66
419.065	417.96
419.273	370.85
419.481	405.67
419.689	512.16
419.897	503.97
420.105	475.3
420.313	444.58
420.521	487.59
420.729	495.78
420.937	446.63
421.145	485.54
421.353	616.61
421.561	563.36
421.769	614.56
421.977	671.9
422.185	506.02
422.393	667.81
422.601	647.33
422.809	702.62
423.017	729.25
423.224	704.67
423.432	749.73
423.64	764.06
423.848	753.82
424.056	800.93
424.263	882.85
424.471	852.13
424.679	884.89
424.887	942.24
425.094	927.9
425.302	891.04
425.51	1083.55
425.718	1075.35
425.925	987.29
426.133	1061.02
426.341	1155.23
426.548	1220.76
426.756	1247.38
426.964	1192.09
427.171	1218.71
427.379	1282.2
427.586	1249.43
427.794	1351.83
428.001	1362.07
428.209	1501.33
428.417	1439.89
428.624	1634.45
428.832	1530
429.039	1511.57
429.247	1599.63
429.454	1650.83
429.662	1720.46
429.869	1573.01
430.076	1831.05
430.284	1773.71
430.491	1767.57
430.699	1994.89
430.906	1757.33
431.114	1902.73
431.321	2050.19
431.528	2048.14
431.736	2234.5
431.943	2285.7
432.15	2103.43
432.358	2207.88
432.565	2310.28
432.772	2322.57
432.979	2494.6
433.187	2642.05
433.394	2543.75
433.601	2691.2
433.808	2656.39
434.016	2715.78
434.223	2834.56
434.43	2889.85
434.637	2844.8
434.844	3004.54
435.052	3123.32
435.259	3176.57
435.466	3156.09
435.673	3094.65
435.88	3276.92
436.087	3453.05
436.294	3651.7
436.501	3334.26
436.708	3514.49
436.915	3522.68
437.122	3674.23
437.329	3846.26
437.537	3915.89
437.743	3821.68
437.95	3807.34
438.157	4118.64
438.364	4227.18
438.571	4169.84
438.778	4276.33
438.985	4702.31
439.192	4558.95
439.399	4649.06
439.606	4517.99
439.813	4853.86
440.02	5091.42
440.227	4827.23
440.433	4968.54
440.64	5077.09
440.847	5005.41
441.054	5140.57
441.261	5505.11
441.467	5451.86
441.674	5584.98
441.881	5771.35
442.088	5855.31
442.294	5664.85
442.501	5718.1
442.708	5877.84
442.914	6156.36
443.121	6334.54
443.328	6402.12
443.534	6744.13
443.741	6621.25
443.948	6473.8
444.154	6789.19
444.361	6758.47
444.568	6713.41
444.774	6807.62
444.981	6867.01
445.187	7192.64
445.394	7385.15
445.6	7260.22
445.807	7888.95
446.013	7671.86
446.22	7989.3
446.426	8149.04
446.633	8259.63
446.839	8622.12
447.046	8351.79
447.252	8618.02
447.459	8673.32
447.665	8693.8
447.871	8962.08
448.078	9420.83
448.284	9132.06
448.491	9469.98
448.697	9668.63
448.903	9791.51
449.11	9715.73
449.316	9564.18
449.522	9828.37
449.728	10049.55
449.935	10176.53
450.141	10272.78
450.347	10612.74
450.553	10311.69
450.76	10231.82
450.966	10768.39
451.172	10684.42
451.378	10545.16
451.584	10715.14
451.791	10786.82
451.997	10756.1
452.203	11038.72
452.409	10975.24
452.615	11055.11
452.821	10543.11
453.027	10541.07
453.233	11030.53
453.44	10674.18
453.646	10700.81
453.852	10924.04
454.058	10940.42
454.264	10721.29
454.47	10932.23
454.676	10524.68
454.882	11141.12
455.088	10125.33
455.294	10141.71
455.5	10256.4
455.705	10340.36
455.911	10194.96
456.117	10108.94
456.323	9553.94
456.529	9177.12
456.735	9541.66
456.941	9457.69
457.147	9375.77
457.352	8869.92
457.558	8898.59
457.764	8929.31
457.97	8800.29
458.176	8706.09
458.381	8589.35
458.587	8157.23
458.793	8226.86
458.999	7847.99
459.204	8382.51
459.41	8079.41
459.616	7465.02
459.821	7565.37
460.027	7495.74
460.233	7295.04
460.438	7024.7
460.644	7172.16
460.85	6834.24
461.055	6737.99
461.261	6541.38
461.466	6185.04
461.672	6107.21
461.878	6451.27
462.083	6109.26
462.289	5912.66
462.494	5894.22
462.7	5746.77
462.905	5369.94
463.111	5587.03
463.316	5589.08
463.522	5517.4
463.727	5496.92
463.932	5318.75
464.138	5333.08
464.343	5371.99
464.549	5298.27
464.754	5486.68
464.959	5486.68
465.165	5380.18
465.37	5271.64
465.575	5015.65
465.781	5216.35
465.986	5267.55
466.191	5015.65
466.397	4989.02
466.602	4812.9
466.807	4915.3
467.012	4868.19
467.218	5050.46
467.423	4784.23
467.628	4649.06
467.833	5068.89
468.038	4862.05
468.244	4700.26
468.449	4860
468.654	4921.44
468.859	4642.92
469.064	4685.92
469.269	4544.61
469.474	4632.68
469.679	4608.1
469.885	4540.52
470.09	4573.28
470.295	4593.76
470.5	4444.26
470.705	4544.61
470.91	4438.12
471.115	4288.62
471.32	4505.7
471.525	4526.18
471.73	4362.34
471.935	4305
472.139	4223.08
472.344	4165.74
472.549	4165.74
472.754	4124.78
472.959	3901.55
473.164	3903.6
473.369	3821.68
473.574	4085.87
473.778	4022.38
473.983	3942.51
474.188	3879.02
474.393	3801.2
474.598	3989.61
474.802	3801.2
475.007	3799.15
475.212	3799.15
475.417	3608.69
475.621	3571.83
475.826	3620.98
476.031	3502.2
476.235	3422.33
476.44	3528.82
476.645	3385.46
476.849	3297.4
477.054	3401.85
477.259	3340.41
477.463	3338.36
477.668	3289.21
477.872	3317.88
478.077	3121.28
478.282	3272.82
478.486	3184.76
478.691	3358.84
478.895	3215.48
479.1	3197.05
479.304	3059.84
479.509	2998.4
479.713	3108.99
479.918	3119.23
480.122	3027.07
480.326	2990.21
480.531	2984.06
480.735	2943.1
480.94	2910.33
481.144	2984.06
481.348	2914.43
481.553	2887.81
481.757	2885.76
481.961	2812.03
482.166	2996.35
482.37	2916.48
482.574	2908.29
482.778	2885.76
482.983	2883.71
483.187	2986.11
483.391	2922.62
483.595	2945.15
483.8	2906.24
484.004	2830.46
484.208	2984.06
484.412	2822.27
484.616	2906.24
484.821	2893.95
485.025	2916.48
485.229	2971.77
485.433	2857.09
485.637	2805.89
485.841	2883.71
486.045	2785.41
486.249	2877.57
486.453	3047.55
486.657	2953.34
486.861	2887.81
487.065	2773.12
487.269	2852.99
487.473	2850.94
487.677	2916.48
487.881	2990.21
488.085	2869.37
488.289	2955.39
488.493	2926.72
488.697	2871.42
488.901	2795.65
489.105	2852.99
489.309	2869.37
489.512	2947.2
489.716	2957.44
489.92	2992.25
490.124	2955.39
490.328	2975.87
490.531	3025.02
490.735	2992.25
490.939	3031.16
491.143	2936.96
491.346	3072.12
491.55	3039.36
491.754	2982.01
491.958	2963.58
492.161	3119.23
492.365	3170.43
492.569	3151.99
492.772	3188.86
492.976	3213.43
493.18	3274.87
493.383	2982.01
493.587	3192.95
493.79	3295.35
493.994	3149.95
494.197	3283.06
494.401	3362.94
494.605	3272.82
494.808	3377.27
495.012	3352.7
495.215	3414.13
495.419	3448.95
495.622	3364.98
495.825	3444.85
496.029	3444.85
496.232	3520.63
496.436	3530.87
496.639	3518.58
496.843	3424.37
497.046	3686.51
497.249	3737.71
497.453	3774.58
497.656	3799.15
497.859	3754.1
498.063	3854.45
498.266	4057.2
498.469	3977.33
498.673	3979.37
498.876	4065.39
499.079	3973.23
499.282	4167.79
499.485	4288.62
499.689	4331.62
499.892	4221.03
500.095	4348.01
500.298	4528.23
500.501	4368.49
500.705	4544.61
500.908	4634.72
501.111	4700.26
501.314	4632.68
501.517	4690.02
501.72	4884.58
501.923	4853.86
502.126	4984.93
502.329	5132.38
502.532	5136.48
502.735	5185.63
502.938	5308.51
503.141	5097.56
503.344	5222.49
503.547	5288.03
503.75	5554.26
503.953	5736.53
504.156	5724.24
504.359	5724.24
504.562	5881.94
504.765	6010.96
504.968	6053.97
505.17	6025.29
505.373	6133.84
505.576	6279.24
505.779	6389.83
505.982	6438.98
506.185	6662.21
506.387	6694.98
506.59	6541.38
506.793	6797.38
506.996	6807.62
507.198	7104.57
507.401	6928.45
507.604	7376.95
507.807	7213.12
508.009	7393.34
508.212	7501.88
508.415	7622.71
508.617	7770.16
508.82	7667.77
509.022	7921.71
509.225	8249.39
509.428	8187.95
509.63	8226.86
509.833	8351.79
510.035	8644.65
510.238	8472.62
510.44	8765.48
510.643	8964.13
510.845	9025.57
511.048	9140.26
511.25	9160.73
511.453	9338.91
511.655	9611.29
511.858	9476.12
512.06	9736.21
512.262	9994.26
512.465	9981.97
512.667	10278.93
512.87	10172.43
513.072	10244.11
513.274	10469.39
513.477	10713.1
513.679	11075.59
513.881	11120.64
514.084	11073.54
514.286	11198.46
514.488	11276.29
514.69	11683.83
514.893	11786.23
515.095	12029.94
515.297	12261.36
515.499	12171.25
515.701	12380.14
515.904	12595.18
516.106	12642.28
516.308	12996.58
516.51	13176.8
516.712	13238.24
516.914	13287.39
517.116	13696.99
517.318	13518.81
517.52	13783
517.722	13819.86
517.925	14176.21
518.127	14020.56
518.329	14514.13
518.531	14327.76
518.733	14886.86
518.935	15065.03
519.136	14919.62
519.338	15460.29
519.54	15476.67
519.742	15722.43
519.944	15798.2
520.146	16084.92
520.348	16252.85
520.55	16261.04
520.752	16418.74
520.954	16953.26
521.155	16670.64
521.357	17039.27
521.559	17131.43
521.761	17405.86
521.963	17381.28
522.164	17684.38
522.366	17805.21
522.568	17827.74
522.77	18091.93
522.971	18603.92
523.173	18499.47
523.375	18677.65
523.576	18716.56
523.778	18786.19
523.98	19191.69
524.181	19130.25
524.383	19132.29
524.584	19431.3
524.786	19771.26
524.988	19640.19
525.189	19949.43
525.391	20094.84
525.592	20074.36
525.794	20371.32
525.995	20492.15
526.197	20545.39
526.398	20576.11
526.6	20803.44
526.801	20819.82
527.003	20907.88
527.204	21071.72
527.406	21178.22
527.607	21231.46
527.808	21473.12
528.01	21419.88
528.211	21188.46
528.412	21882.72
528.614	21983.07
528.815	21927.77
529.016	22011.74
529.218	21995.36
529.419	21919.58
529.62	22204.25
529.822	21940.06
530.023	22456.15
530.224	22271.83
530.425	22320.98
530.626	22503.25
530.828	22122.33
531.029	23279.43
531.23	22517.59
531.431	22433.62
531.632	22921.04
531.833	22662.99
532.035	22462.29
532.236	23007.05
532.437	23113.55
532.638	22769.49
532.839	23154.51
533.04	23078.73
533.241	23027.53
533.442	23465.8
533.643	23375.69
533.844	23205.7
534.045	23265.1
534.246	23031.63
534.447	23517
534.648	23263.05
534.849	23369.54
535.05	23277.38
535.251	23197.51
535.451	23568.2
535.652	23564.1
535.853	23496.52
536.054	23678.79
536.255	23490.37
536.456	23250.76
536.657	24172.35
536.857	23433.03
537.058	23719.74
537.259	23799.62
537.46	23617.35
537.66	23541.57
537.861	23629.63
538.062	23598.91
538.263	23652.16
538.463	23445.32
538.664	23691.07
538.865	23797.57
539.065	23904.06
539.266	23521.09
539.466	23850.81
539.667	23283.53
539.868	24069.95
540.068	23590.72
540.269	23500.61
540.469	23746.37
540.67	23672.64
540.87	23844.67
541.071	23668.55
541.271	23908.16
541.472	23523.14
541.672	23607.11
541.873	23844.67
542.073	23422.79
542.274	23942.97
542.474	23725.89
542.675	23605.06
542.875	23924.54
543.075	23762.75
543.276	23424.84
543.476	23801.66
543.676	23488.32
543.877	23650.11
544.077	23840.57
544.277	23457.6
544.478	23797.57
544.678	23742.27
544.878	23713.6
545.078	23957.31
545.279	23424.84
545.479	23357.25
545.679	23836.48
545.879	23545.67
546.079	23672.64
546.28	23617.35
546.48	23490.37
546.68	23580.48
546.88	23750.46
547.08	24115
547.28	23498.56
547.48	23232.33
547.68	23293.77
547.88	23652.16
548.081	23975.74
548.281	23832.38
548.481	23746.37
548.681	23654.21
548.881	23676.74
549.081	23695.17
549.28	23619.39
549.48	23809.86
549.68	23811.9
549.88	23990.08
550.08	23584.58
550.28	23789.38
550.48	23654.21
550.68	23787.33
550.88	23600.96
551.08	23654.21
551.279	23930.69
551.479	23392.07
551.679	23576.39
551.879	23385.93
552.079	23748.42
552.278	23453.51
552.478	23893.82
552.678	23609.15
552.878	23551.81
553.077	23568.2
553.277	23517
553.477	23748.42
553.676	23537.48
553.876	23443.27
554.076	23316.29
554.275	23412.55
554.475	23160.65
554.674	23062.35
554.874	23588.67
555.074	23396.17
555.273	23365.45
555.473	23449.41
555.672	23107.4
555.872	23312.2
556.071	23285.58
556.271	23500.61
556.47	23222.09
556.67	22837.07
556.869	22925.13
557.068	23144.27
557.268	23205.7
557.467	23127.88
557.667	23023.44
557.866	23086.92
558.065	23166.79
558.265	23088.97
558.464	22933.32
558.663	23256.9
558.863	22841.17
559.062	23125.83
559.261	22751.06
559.461	22959.95
559.66	22716.24
559.859	22673.23
560.058	22724.43
560.258	22589.27
560.457	22509.4
560.656	22550.35
560.855	22255.45
561.054	22245.21
561.253	22382.42
561.453	22255.45
561.652	22325.08
561.851	22503.25
562.05	22495.06
562.249	22116.19
562.448	22363.99
562.647	22325.08
562.846	21892.96
563.045	22253.4
563.244	21890.91
563.443	22138.71
563.642	21833.57
563.841	22169.43
564.04	21968.73
564.239	22179.67
564.438	21716.83
564.637	21935.96
564.836	21831.52
565.035	21722.98
565.234	21610.34
565.432	21567.33
565.631	21561.19
565.83	21641.06
566.029	21450.6
566.228	21116.78
566.427	21397.35
566.625	21266.28
566.824	21073.77
567.023	21405.54
567.222	20735.85
567.42	21108.58
567.619	20813.68
567.818	20973.42
568.016	21081.96
568.215	21028.71
568.414	20965.23
568.612	21092.2
568.811	20672.37
569.01	20922.22
569.208	20492.15
569.407	20879.21
569.605	20606.83
569.804	20701.04
570.002	20459.38
570.201	20367.22
570.4	20342.64
570.598	20160.38
570.797	19906.43
570.995	20238.2
571.193	19861.37
571.392	20316.02
571.59	20178.81
571.789	19922.81
571.987	19748.73
572.186	19892.09
572.384	19597.18
572.582	19742.59
572.781	19595.14
572.979	19277.7
573.177	19644.29
573.376	19423.11
573.574	19177.35
573.772	19429.25
573.971	19240.84
574.169	19062.66
574.367	18878.35
574.565	19060.62
574.763	19048.33
574.962	18720.65
575.16	18841.48
575.358	19060.62
575.556	18429.84
575.754	18843.53
575.952	18241.43
576.151	18569.1
576.349	18476.94
576.547	18302.87
576.745	18339.73
576.943	18382.74
577.141	18089.88
577.339	18446.23
577.537	18122.65
577.735	18073.49
577.933	18085.78
578.131	17911.71
578.329	17794.97
578.527	17946.52
578.725	17864.6
578.923	17567.65
579.121	17506.21
579.319	17379.23
579.516	17233.83
579.714	17440.67
579.912	17430.43
580.11	17393.57
580.308	17395.62
580.506	17325.99
580.704	16813.99
580.901	17342.37
581.099	17002.41
581.297	16889.77
581.495	16902.06
581.692	16832.43
581.89	16807.85
582.088	16785.32
582.285	16789.42
582.483	16570.29
582.681	16633.77
582.878	16512.94
583.076	16371.63
583.274	16568.24
583.471	16244.66
583.669	16498.61
583.866	16269.23
584.064	16302
584.262	15724.47
584.459	16170.93
584.657	16074.68
584.854	16058.29
585.052	15785.91
585.249	16019.38
585.447	15937.46
585.644	15404.99
585.841	15669.18
586.039	15742.91
586.236	15581.12
586.434	15474.62
586.631	15636.41
586.828	15509.44
587.026	15482.81
587.223	15542.21
587.42	15480.77
587.618	15253.44
587.815	15212.48
588.012	15042.5
588.21	15030.21
588.407	15415.23
588.604	15054.79
588.801	14598.09
588.999	15110.08
589.196	14770.12
589.393	14897.1
589.59	14731.21
589.787	14520.27
589.984	15036.36
590.182	14600.14
590.379	14608.33
590.576	14516.17
590.773	14501.84
590.97	14536.65
591.167	14649.29
591.364	14221.27
591.561	14487.5
591.758	14200.79
591.955	14426.06
592.152	14079.96
592.349	14147.54
592.546	14225.36
592.743	14452.69
592.94	13783
593.137	13899.73
593.334	14200.79
593.531	13797.34
593.727	14088.15
593.924	13807.58
594.121	13760.47
594.318	13950.93
594.515	13959.13
594.712	13768.66
594.908	13295.58
595.105	13602.78
595.302	13584.35
595.499	13563.87
595.696	13424.61
595.892	13330.4
596.089	13391.84
596.286	13580.25
596.482	13230.05
596.679	13422.56
596.876	13451.23
597.072	13115.36
597.269	13326.3
597.466	13127.65
597.662	12855.27
597.859	13184.99
598.055	12992.48
598.252	13041.64
598.448	12972
598.645	12885.99
598.841	12759.02
599.038	13051.88
599.234	12859.37
599.431	12789.74
599.627	12724.2
599.824	13002.72
600.02	12791.78
600.217	12476.4
600.413	12613.61
600.609	12306.41
600.806	12261.36
601.002	12638.19
601.198	12464.11
601.395	12634.09
601.591	12357.61
601.787	12351.47
601.984	12066.8
602.18	12181.49
602.376	12236.78
602.572	12214.26
602.769	11993.08
602.965	11831.29
603.161	12031.99
603.357	11884.53
603.553	11831.29
603.75	11782.13
603.946	11821.05
604.142	11851.77
604.338	11556.86
604.534	11825.14
604.73	11565.05
604.926	11456.51
605.122	11548.67
605.318	11280.38
605.514	11425.79
605.71	11450.36
605.906	11259.9
606.102	11036.67
606.298	11184.13
606.494	11147.26
606.69	11192.32
606.886	11085.83
607.082	10989.57
607.278	11296.77
607.474	10795.01
607.67	11028.48
607.866	10735.62
608.062	10711.05
608.257	10688.52
608.453	10885.12
608.649	10647.56
608.845	10622.98
609.041	10596.36
609.236	10561.55
609.432	10448.91
609.628	10618.89
609.824	10395.66
610.019	10516.49
610.215	10475.53
610.411	10549.26
610.606	10467.34
610.802	10227.73
610.998	10254.35
611.193	10256.4
611.389	10129.42
611.584	10115.09
611.78	10000.4
611.976	10147.86
612.171	10149.9
612.367	10049.55
612.562	10049.55
612.758	9750.55
612.953	9797.65
613.149	9900.05
613.344	9959.44
613.539	9943.06
613.735	9850.9
613.93	9938.96
614.126	9564.18
614.321	9895.96
614.517	9627.67
614.712	9928.72
614.907	9392.16
615.103	9488.41
615.298	9674.78
615.493	9623.58
615.688	9447.45
615.884	9660.44
616.079	9123.87
616.274	9459.74
616.47	9242.65
616.665	9392.16
616.86	9330.72
617.055	9273.37
617.25	9285.66
617.445	9283.61
617.641	9130.02
617.836	8949.79
618.031	9041.95
618.226	9091.1
618.421	9087.01
618.616	8908.83
618.811	8802.34
619.006	9046.05
619.201	8724.52
619.396	8798.24
619.591	8663.08
619.786	8704.04
619.981	8544.3
620.176	8732.71
620.371	8550.44
620.566	8534.06
620.761	8441.9
620.956	8396.84
621.151	8204.33
621.346	8536.1
621.541	8245.29
621.735	8218.67
621.93	8038.45
622.125	8097.84
622.32	8005.68
622.515	8179.76
622.709	8009.78
622.904	7905.33
623.099	7999.54
623.294	7862.32
623.488	7772.21
623.683	7999.54
623.878	7690.29
624.072	7766.07
624.267	7917.62
624.462	7743.54
624.656	7565.37
624.851	7524.41
625.046	7600.18
625.24	7497.78
625.435	7432.25
625.629	7526.46
625.824	7313.47
626.018	7434.3
626.213	7127.1
626.407	7163.97
626.602	6957.12
626.796	7182.4
626.991	7108.67
627.185	7219.26
627.38	7213.12
627.574	6987.84
627.768	6852.67
627.963	6903.87
628.157	6895.68
628.352	6852.67
628.546	6721.6
628.74	6864.96
628.935	6686.79
629.129	6725.7
629.323	6578.25
629.517	6580.29
629.712	6731.84
629.906	6623.3
630.1	6484.04
630.294	6383.69
630.489	6344.78
630.683	6469.7
630.877	6248.52
631.071	6365.26
631.265	6471.75
631.459	6254.67
631.653	6322.25
631.848	6395.98
632.042	6185.04
632.236	6258.76
632.43	6203.47
632.624	6174.8
632.818	6166.6
633.012	6084.69
633.206	5832.79
633.4	6115.41
633.594	5922.9
633.788	5947.47
633.982	6115.41
634.176	5738.58
634.369	5883.98
634.563	5808.21
634.757	5816.4
634.951	5740.63
635.145	5886.03
635.339	5627.99
635.533	5703.76
635.726	5820.5
635.92	5392.47
636.114	5685.33
636.308	5501.01
636.501	5699.67
636.695	5527.64
636.889	5478.49
637.083	5466.2
637.276	5486.68
637.47	5453.91
637.664	5386.33
637.857	5367.9
638.051	5273.69
638.244	5242.97
638.438	5259.35
638.632	5263.45
638.825	5128.28
639.019	5116
639.212	5085.28
639.406	5212.25
639.599	5142.62
639.793	5138.52
639.986	4950.11
640.18	5019.74
640.373	5044.32
640.567	4913.25
640.76	5013.6
640.954	4927.58
641.147	4821.09
641.34	4823.14
641.534	4804.71
641.727	4763.75
641.92	4735.07
642.114	4577.38
642.307	4599.91
642.5	4665.44
642.694	4499.56
642.887	4620.39
643.08	4444.26
643.273	4644.96
643.467	4470.89
643.66	4446.31
643.853	4425.83
644.046	4323.43
644.239	4384.87
644.432	4374.63
644.626	4208.75
644.819	4116.59
645.012	4272.23
645.205	4266.09
645.398	4190.31
645.591	4071.53
645.784	4294.76
645.977	4087.92
646.17	4116.59
646.363	4061.29
646.556	3962.99
646.749	3911.79
646.942	3919.98
647.135	3930.22
647.328	3874.93
647.521	3879.02
647.714	3829.87
647.907	3790.96
648.099	3844.21
648.292	3934.32
648.485	3784.82
648.678	3750
648.871	3694.71
649.064	3653.75
649.256	3715.19
649.449	3477.62
649.642	3575.92
649.835	3518.58
650.027	3618.93
650.22	3467.38
650.413	3512.44
650.605	3463.29
650.798	3481.72
650.991	3494.01
651.183	3434.61
651.376	3410.04
651.568	3491.96
651.761	3346.55
651.954	3293.3
652.146	3291.26
652.339	3291.26
652.531	3305.59
652.724	3201.15
652.916	3158.14
653.109	3172.47
653.301	3121.28
653.494	3143.8
653.686	3016.83
653.879	3016.83
654.071	2957.44
654.263	3047.55
654.456	3072.12
654.648	2998.4
654.84	3039.36
655.033	2943.1
655.225	2934.91
655.417	2955.39
655.61	2971.77
655.802	2820.22
655.994	2789.5
656.186	2703.49
656.379	2742.4
656.571	2875.52
656.763	2756.74
656.955	2764.93
657.148	2742.4
657.34	2666.63
657.532	2660.48
657.724	2695.3
657.916	2496.64
658.108	2539.65
658.3	2498.69
658.492	2558.08
658.684	2519.17
658.876	2533.51
659.068	2523.27
659.26	2482.31
659.452	2398.34
659.644	2443.4
659.836	2429.06
660.028	2420.87
660.22	2459.78
660.412	2199.69
660.604	2304.14
660.796	2353.29
660.988	2302.09
661.18	2283.66
661.372	2244.74
661.563	2199.69
661.755	2193.55
661.947	2263.18
662.139	2232.46
662.331	2177.16
662.522	2003.08
662.714	2105.48
662.906	2064.52
663.097	2082.95
663.289	1972.36
663.481	1970.32
663.673	1968.27
663.864	2070.67
664.056	2095.24
664.247	2070.67
664.439	2001.04
664.631	1972.36
664.822	2011.28
665.014	2058.38
665.205	1955.98
665.397	1853.58
665.588	1935.5
665.78	1851.53
665.971	1816.72
666.163	1906.83
666.354	1820.81
666.546	1683.6
666.737	1710.22
666.929	1773.71
667.12	1736.85
667.311	1769.62
667.503	1747.09
667.694	1699.98
667.885	1802.38
668.077	1691.79
668.268	1861.77
668.459	1671.31
668.651	1790.1
668.842	1695.89
669.033	1683.6
669.224	1656.98
669.416	1745.04
669.607	1710.22
669.798	1552.53
669.989	1702.03
670.18	1646.74
670.371	1554.58
670.563	1616.02
670.754	1626.26
670.945	1480.85
671.136	1577.11
671.327	1552.53
671.518	1595.54
671.709	1511.57
671.9	1513.62
672.091	1521.81
672.282	1699.98
672.473	1462.42
672.664	1597.59
672.855	1538.2
673.046	1507.48
673.237	1540.24
673.428	1517.72
673.619	1546.39
673.809	1577.11
674	1491.09
674.191	1425.56
674.382	1527.96
674.573	1540.24
674.764	1423.51
674.954	1462.42
675.145	1415.32
675.336	1579.15
675.527	1460.37
675.717	1413.27
675.908	1409.17
676.099	1497.24
676.289	1347.73
676.48	1425.56
676.671	1347.73
676.861	1546.39
677.052	1413.27
677.243	1380.5
677.433	1499.28
677.624	1405.08
677.814	1489.04
678.005	1380.5
678.195	1364.12
678.386	1372.31
678.576	1443.99
678.767	1321.11
678.957	1331.35
679.148	1437.84
679.338	1341.59
679.529	1376.41
679.719	1427.6
679.909	1398.93
680.1	1425.56
680.29	1386.65
680.481	1409.17
680.671	1446.04
680.861	1439.89
681.052	1333.4
681.242	1337.49
681.432	1300.63
681.622	1386.65
681.813	1337.49
682.003	1372.31
682.193	1448.08
682.383	1384.6
682.573	1390.74
682.764	1415.32
682.954	1329.3
683.144	1341.59
683.334	1325.21
683.524	1458.32
683.714	1446.04
683.904	1388.69
684.094	1390.74
684.284	1388.69
684.474	1390.74
684.664	1323.16
684.854	1380.5
685.044	1360.02
685.234	1380.5
685.424	1427.6
685.614	1357.97
685.804	1355.93
685.994	1407.13
686.184	1437.84
686.374	1392.79
686.564	1380.5
686.753	1454.23
686.943	1407.13
687.133	1357.97
687.323	1333.4
687.513	1489.04
687.702	1300.63
687.892	1366.17
688.082	1448.08
688.272	1433.75
688.461	1337.49
688.651	1454.23
688.841	1462.42
689.03	1460.37
689.22	1458.32
689.41	1413.27
689.599	1413.27
689.789	1421.46
689.979	1458.32
690.168	1421.46
690.358	1433.75
690.547	1497.24
690.737	1349.78
690.926	1384.6
691.116	1437.84
691.305	1538.2
691.495	1443.99
691.684	1476.76
691.874	1491.09
692.063	1468.56
692.252	1360.02
692.442	1511.57
692.631	1491.09
692.82	1527.96
693.01	1460.37
693.199	1413.27
693.388	1382.55
693.578	1495.19
693.767	1595.54
693.956	1470.61
694.146	1489.04
694.335	1601.68
694.524	1487
694.713	1431.7
694.902	1611.92
695.092	1460.37
695.281	1515.67
695.47	1493.14
695.659	1462.42
695.848	1530
696.037	1579.15
696.226	1487
696.415	1497.24
696.604	1542.29
696.793	1554.58
696.982	1542.29
697.171	1480.85
697.36	1632.4
697.549	1593.49
697.738	1507.48
697.927	1548.44
698.116	1601.68
698.305	1575.06
698.494	1552.53
698.683	1505.43
698.872	1562.77
699.061	1507.48
699.25	1607.83
699.438	1591.44
699.627	1616.02
699.816	1570.96
700.005	1587.35
700.193	1552.53
700.382	1493.14
700.571	1607.83
700.76	1497.24
700.948	1613.97
701.137	1575.06
701.326	1585.3
701.514	1525.91
701.703	1577.11
701.892	1513.62
702.08	1556.63
702.269	1611.92
702.457	1568.91
702.646	1530
702.834	1646.74
703.023	1527.96
703.212	1579.15
703.4	1521.81
703.589	1464.47
703.777	1568.91
703.965	1616.02
704.154	1560.72
704.342	1585.3
704.531	1589.39
704.719	1388.69
704.907	1560.72
705.096	1497.24
705.284	1532.05
705.472	1570.96
705.661	1511.57
705.849	1468.56
706.037	1542.29
706.226	1489.04
706.414	1530
706.602	1355.93
706.79	1499.28
706.979	1400.98
707.167	1437.84
707.355	1491.09
707.543	1503.38
707.731	1499.28
707.919	1448.08
708.107	1368.21
708.296	1443.99
708.484	1489.04
708.672	1415.32
708.86	1460.37
709.048	1380.5
709.236	1392.79
709.424	1433.75
709.612	1472.66
709.8	1441.94
709.988	1372.31
710.176	1372.31
710.364	1405.08
710.551	1314.97
710.739	1439.89
710.927	1300.63
711.115	1370.26
711.303	1333.4
711.491	1464.47
711.679	1286.3
711.866	1382.55
712.054	1351.83
712.242	1378.45
712.43	1382.55
712.617	1380.5
712.805	1382.55
712.993	1190.04
713.181	1362.07
713.368	1267.86
713.556	1353.88
713.744	1292.44
713.931	1259.67
714.119	1237.14
714.306	1216.66
714.494	1251.48
714.682	1257.62
714.869	1372.31
715.057	1249.43
715.244	1224.86
715.432	1269.91
715.619	1300.63
715.807	1314.97
715.994	1271.96
716.182	1276.06
716.369	1241.24
716.556	1304.73
716.744	1265.82
716.931	1271.96
717.119	1276.06
717.306	1122.46
717.493	1317.01
717.681	1177.75
717.868	1196.18
718.055	1165.46
718.242	1165.46
718.43	1185.94
718.617	1183.9
718.804	1214.62
718.991	1147.03
719.179	1104.03
719.366	1163.42
719.553	1159.32
719.74	1134.75
719.927	1026.2
720.114	1155.23
720.301	1196.18
720.488	1081.5
720.676	1069.21
720.863	1169.56
721.05	1155.23
721.237	1138.84
721.424	1138.84
721.611	1120.41
721.798	1091.74
721.985	968.86
722.172	1054.87
722.358	1054.87
722.545	1104.03
722.732	1095.83
722.919	1050.78
723.106	1052.83
723.293	999.58
723.48	1044.63
723.667	1052.83
723.853	1003.68
724.04	1003.68
724.227	1028.25
724.414	1005.72
724.6	1011.87
724.787	1044.63
724.974	1022.11
725.161	1015.96
725.347	934.04
725.534	1042.59
725.72	1065.11
725.907	1036.44
726.094	1044.63
726.28	987.29
726.467	852.13
726.653	993.44
726.84	970.91
727.027	1032.35
727.213	925.85
727.4	970.91
727.586	956.57
727.773	956.57
727.959	972.96
728.145	886.94
728.332	1020.06
728.518	831.65
728.705	968.86
728.891	960.67
729.077	940.19
729.264	940.19
729.45	936.09
729.636	958.62
729.823	884.89
730.009	903.32
730.195	995.48
730.382	936.09
730.568	841.89
730.754	856.22
730.94	893.09
731.126	905.37
731.313	893.09
731.499	813.21
731.685	872.61
731.871	915.61
732.057	831.65
732.243	901.28
732.429	864.41
732.615	829.6
732.801	929.95
732.987	835.74
733.173	872.61
733.359	825.5
733.545	888.99
733.731	843.93
733.917	909.47
734.103	802.97
734.289	856.22
734.475	700.58
734.661	858.27
734.847	950.43
735.033	843.93
735.219	835.74
735.404	850.08
735.59	798.88
735.776	809.12
735.962	831.65
736.148	747.68
736.333	880.8
736.519	786.59
736.705	827.55
736.89	788.64
737.076	845.98
737.262	790.69
737.447	794.78
737.633	716.96
737.819	741.54
738.004	796.83
738.19	796.83
738.375	880.8
738.561	790.69
738.747	710.82
738.932	778.4
739.118	735.39
739.303	782.49
739.489	694.43
739.674	749.73
739.859	749.73
740.045	790.69
740.23	741.54
740.416	798.88
740.601	762.02
740.786	721.06
740.972	643.23
741.157	755.87
741.342	669.86
741.528	708.77
741.713	737.44
741.898	667.81
742.084	649.38
742.269	702.62
742.454	696.48
742.639	712.86
742.824	762.02
743.01	716.96
743.195	690.34
743.38	680.1
743.565	645.28
743.75	725.15
743.935	663.71
744.12	684.19
744.305	606.37
744.49	594.08
744.675	712.86
744.86	700.58
745.045	651.42
745.23	630.95
745.415	624.8
745.6	635.04
745.785	575.65
745.97	649.38
746.155	626.85
746.34	686.24
746.525	571.55
746.71	639.14
746.895	684.19
747.079	618.66
747.264	626.85
747.449	612.51
747.634	604.32
747.819	575.65
748.003	661.66
748.188	565.41
748.373	546.98
748.557	587.94
748.742	569.51
748.927	604.32
749.111	602.27
749.296	549.03
749.481	571.55
749.665	635.04
749.85	561.31
750.034	549.03
750.219	602.27
750.404	487.59
750.588	571.55
750.773	444.58
750.957	512.16
751.141	596.13
751.326	501.92
751.51	567.46
751.695	563.36
751.879	540.83
752.064	501.92
752.248	536.74
752.432	444.58
752.617	553.12
752.801	489.64
752.985	528.55
753.17	536.74
753.354	454.82
753.538	469.16
753.722	491.68
753.907	536.74
754.091	395.43
754.275	477.35
754.459	456.87
754.643	481.44
754.828	440.48
755.012	413.86
755.196	536.74
755.38	501.92
755.564	487.59
755.748	454.82
755.932	456.87
756.116	471.2
756.3	479.4
756.484	428.2
756.668	327.85
756.852	497.83
757.036	405.67
757.22	471.2
757.404	440.48
757.588	379.04
757.772	426.15
757.956	454.82
758.14	374.95
758.323	438.44
758.507	383.14
758.691	389.28
758.875	420
759.059	424.1
759.242	338.09
759.426	323.75
759.61	434.34
759.794	458.92
759.977	368.81
760.161	389.28
760.345	395.43
760.528	385.19
760.712	356.52
760.895	303.27
761.079	370.85
761.263	403.62
761.446	383.14
761.63	340.13
761.813	336.04
761.997	387.24
762.18	282.79
762.364	350.37
762.547	338.09
762.731	329.89
762.914	377
763.098	356.52
763.281	364.71
763.464	317.61
763.648	362.66
763.831	346.28
764.015	323.75
764.198	333.99
764.381	333.99
764.564	336.04
764.748	295.08
764.931	293.03
765.114	280.74
765.297	319.65
765.481	317.61
765.664	342.18
765.847	379.04
766.03	338.09
766.213	293.03
766.397	309.41
766.58	256.17
766.763	411.81
766.946	303.27
767.129	295.08
767.312	250.02
767.495	372.9
767.678	284.84
767.861	319.65
768.044	321.7
768.227	340.13
768.41	315.56
768.593	336.04
768.776	280.74
768.959	266.41
769.142	293.03
769.324	342.18
769.507	243.88
769.69	323.75
769.873	268.45
770.056	319.65
770.239	245.93
770.421	274.6
770.604	331.94
770.787	307.37
770.97	239.78
771.152	325.8
771.335	274.6
771.518	200.87
771.7	270.5
771.883	307.37
772.066	301.22
772.248	268.45
772.431	319.65
772.613	278.69
772.796	264.36
772.978	313.51
773.161	297.13
773.343	204.97
773.526	317.61
773.708	311.46
773.891	303.27
774.073	221.35
774.256	229.54
774.438	284.84
774.621	225.45
774.803	258.21
774.985	276.65
775.168	247.97
775.35	245.93
775.532	219.3
775.715	301.22
775.897	321.7
776.079	219.3
776.261	241.83
776.444	290.98
776.626	198.82
776.808	231.59
776.99	288.93
777.173	245.93
777.355	290.98
777.537	293.03
777.719	258.21
777.901	161.96
778.083	241.83
778.265	217.26
778.447	278.69
778.629	202.92
778.811	192.68
778.993	186.54
779.175	227.5
779.357	235.69
779.539	176.3
779.721	196.78
779.903	196.78
780.085	174.25
780.267	278.69
780.449	157.86
780.631	264.36
780.812	227.5
780.994	202.92
781.176	104.62
781.358	145.58
781.54	137.38
781.721	215.21
781.903	227.5
782.085	196.78
782.267	196.78
782.448	164.01
782.63	196.78
782.812	166.06
782.993	127.14
783.175	235.69
783.357	200.87
783.538	250.02
783.72	151.72
783.901	151.72
784.083	219.3
784.264	153.77
784.446	164.01
784.627	192.68
784.809	110.76
784.99	219.3
785.172	164.01
785.353	155.82
785.535	161.96
785.716	161.96
785.897	108.71
786.079	196.78
786.26	170.15
786.441	159.91
786.623	147.62
786.804	198.82
786.985	135.34
787.167	143.53
787.348	129.19
787.529	219.3
787.71	180.39
787.891	102.57
788.073	170.15
788.254	143.53
788.435	135.34
788.616	155.82
788.797	67.75
788.978	112.81
789.159	118.95
789.34	133.29
789.522	145.58
789.703	110.76
789.884	135.34
790.065	186.54
790.246	112.81
790.427	186.54
790.607	143.53
790.788	104.62
790.969	190.63
791.15	121
791.331	110.76
791.512	90.28
791.693	194.73
791.874	196.78
792.054	151.72
792.235	82.09
792.416	106.67
792.597	157.86
792.778	123.05
792.958	209.06
793.139	133.29
793.32	161.96
793.5	80.04
793.681	114.86
793.862	157.86
794.042	114.86
794.223	188.58
794.404	110.76
794.584	77.99
794.765	71.85
794.945	133.29
795.126	75.95
795.306	114.86
795.487	114.86
795.667	30.89
795.848	88.23
796.028	77.99
796.209	92.33
796.389	71.85
796.57	209.06
796.75	143.53
796.93	69.8
797.111	186.54
797.291	82.09
797.471	116.9
797.652	77.99
797.832	112.81
798.012	149.67
798.192	20.65
798.373	86.19
798.553	198.82
798.733	112.81
798.913	114.86
799.093	118.95
799.274	104.62
799.454	41.13
799.634	135.34
799.814	143.53
799.994	75.95
800.174	80.04
800.354	39.08
800.534	73.9
800.714	88.23
800.894	86.19
801.074	151.72
801.254	0.17
801.434	112.81
801.614	51.37
801.794	43.18
801.974	338.09
802.154	166.06
802.334	137.38
802.514	57.51
802.693	94.38
802.873	110.76
803.053	53.42
803.233	100.52
803.413	153.77
803.592	65.71
803.772	100.52
803.952	96.43
804.131	63.66
804.311	80.04
804.491	139.43
804.67	100.52
804.85	116.9
805.03	125.1
805.209	110.76
805.389	30.89
805.568	90.28
805.748	143.53
805.928	49.32
806.107	127.14
806.287	102.57
806.466	86.19
806.646	98.47
806.825	121
807.004	168.1
807.184	94.38
807.363	84.14
807.543	164.01
807.722	30.89
807.901	30.89
808.081	82.09
808.26	53.42
808.439	53.42
808.619	69.8
808.798	63.66
808.977	102.57
809.156	110.76
809.336	4.27
809.515	67.75
809.694	88.23
809.873	43.18
810.052	61.61
810.231	94.38
810.411	94.38
810.59	90.28
810.769	37.03
810.948	88.23
811.127	37.03
811.306	82.09
811.485	123.05
811.664	110.76
811.843	69.8
812.022	100.52
812.201	30.89
812.38	30.89
812.559	71.85
812.737	55.47
812.916	49.32
813.095	102.57
813.274	22.7
813.453	57.51
813.632	57.51
813.811	47.27
813.989	49.32
814.168	63.66
814.347	20.65
814.526	30.89
814.704	102.57
814.883	94.38
815.062	12.46
815.24	26.79
815.419	18.6
815.598	34.99
815.776	-26.45
815.955	86.19
816.133	65.71
816.312	-46.93
816.49	98.47
816.669	-5.97
816.847	34.99
817.026	110.76
817.204	94.38
817.383	47.27
817.561	16.55
817.74	8.36
817.918	-40.79
818.097	80.04
818.275	0.17
818.453	22.7
818.632	8.36
818.81	37.03
818.988	57.51
819.167	84.14
819.345	73.9
819.523	90.28
819.701	112.81
819.879	4.27
820.058	61.61
820.236	77.99
820.414	45.23
820.592	65.71
820.77	69.8
820.948	45.23
821.127	37.03
821.305	80.04
821.483	12.46
821.661	112.81
821.839	-16.21
822.017	80.04
822.195	63.66
822.373	51.37
822.551	32.94
822.729	69.8
822.907	71.85
823.085	-18.26
823.262	-14.17
823.44	63.66
823.618	98.47
823.796	24.75
823.974	77.99
824.152	-20.31
824.329	-8.02
824.507	61.61
824.685	30.89
824.863	59.56
825.04	63.66
825.218	49.32
825.396	18.6
825.574	63.66
825.751	30.89
825.929	82.09
826.107	18.6
826.284	57.51
826.462	69.8
826.639	-12.12
826.817	53.42
826.994	53.42
827.172	20.65
827.349	82.09
827.527	-8.02
827.704	55.47
827.882	-3.93
828.059	47.27
828.237	104.62
828.414	129.19
828.591	-20.31
828.769	10.41
828.946	10.41
829.124	80.04
829.301	-34.64
829.478	12.46
829.655	41.13
829.833	-14.17
830.01	-32.6
830.187	41.13
830.364	-24.4
830.542	0.17
830.719	39.08
830.896	-10.07
831.073	-1.88
831.25	37.03
831.427	-12.12
831.604	94.38
831.782	47.27
831.959	88.23
832.136	39.08
832.313	127.14
832.49	4.27
832.667	73.9
832.844	24.75
833.021	28.84
833.198	96.43
833.374	14.51
833.551	2.22
833.728	-16.21
833.905	55.47
834.082	-55.12
834.259	20.65
834.436	28.84
834.612	32.94
834.789	4.27
834.966	10.41
835.143	45.23
835.319	8.36
835.496	4.27
835.673	18.6
835.85	-16.21
836.026	30.89
836.203	55.47
836.38	-36.69
836.556	94.38
836.733	37.03
836.909	43.18
837.086	-48.98
837.262	69.8
837.439	110.76
837.616	39.08
837.792	-20.31
837.968	77.99
838.145	6.31
838.321	26.79
838.498	-51.03
838.674	34.99
838.851	6.31
839.027	12.46
839.203	77.99
839.38	-28.5
839.556	-36.69
839.732	28.84
839.909	45.23
840.085	82.09
840.261	-28.5
840.437	22.7
840.614	-26.45
840.79	18.6
840.966	43.18
841.142	28.84
841.318	32.94
841.494	4.27
841.671	37.03
841.847	41.13
842.023	-20.31
842.199	108.71
842.375	24.75
842.551	22.7
842.727	80.04
842.903	57.51
843.079	45.23
843.255	10.41
843.431	53.42
843.607	34.99
843.783	20.65
843.959	80.04
844.134	28.84
844.31	14.51
844.486	55.47
844.662	37.03
844.838	-59.22
845.013	34.99
845.189	24.75
845.365	53.42
845.541	0.17
845.716	24.75
845.892	8.36
846.068	-24.4
846.244	-38.74
846.419	-10.07
846.595	47.27
846.77	30.89
846.946	-24.4
847.122	88.23
847.297	-51.03
847.473	4.27
847.648	-5.97
847.824	88.23
847.999	-20.31
848.175	-67.41
848.35	-38.74
848.526	77.99
848.701	-40.79
848.876	61.61
849.052	20.65
849.227	55.47
849.403	12.46
849.578	-36.69
849.753	47.27
849.929	12.46
850.104	-63.32
850.279	30.89
850.454	49.32
850.63	96.43
850.805	20.65
850.98	41.13
851.155	12.46
851.33	49.32
851.505	10.41
851.681	49.32
851.856	-30.55
852.031	32.94
852.206	77.99
852.381	-5.97
852.556	57.51
852.731	22.7
852.906	37.03
853.081	-1.88
853.256	63.66
853.431	20.65
853.606	39.08
853.781	0.17
853.956	-42.84
854.131	-48.98
854.305	6.31
854.48	-20.31
854.655	0.17
854.83	39.08
855.005	34.99
855.18	-36.69
855.354	47.27
855.529	-42.84
855.704	20.65
855.879	-3.93
856.053	6.31
856.228	84.14
856.403	55.47
856.577	82.09
856.752	-38.74
856.926	16.55
857.101	8.36
857.276	30.89
857.45	-12.12
857.625	20.65
857.799	16.55
857.974	12.46
858.148	-38.74
858.323	12.46
858.497	55.47
858.672	8.36
858.846	12.46
859.02	34.99
859.195	20.65
859.369	8.36
859.543	2.22
859.718	28.84
859.892	-18.26
860.066	39.08
860.241	39.08
860.415	14.51
860.589	8.36
860.763	12.46
860.938	-24.4
861.112	-42.84
861.286	-12.12
861.46	12.46
861.634	-20.31
861.808	4.27
861.982	37.03
862.157	-53.08
862.331	32.94
862.505	28.84
862.679	94.38
862.853	51.37
863.027	-14.17
863.201	12.46
863.375	-10.07
863.549	-16.21
863.722	12.46
863.896	-77.65
864.07	53.42
864.244	-34.64
864.418	-40.79
864.592	0.17
864.766	49.32
864.939	-1.88
865.113	24.75
865.287	24.75
865.461	-28.5
865.634	16.55
865.808	47.27
865.982	0.17
866.156	18.6
866.329	69.8
866.503	26.79
866.676	20.65
866.85	-51.03
867.024	0.17
867.197	86.19
867.371	39.08
867.544	71.85
867.718	12.46
867.891	53.42
868.065	28.84
868.238	55.47
868.412	14.51
868.585	30.89
868.759	-28.5
868.932	-44.88
869.105	10.41
869.279	53.42
869.452	67.75
869.625	-3.93
869.799	22.7
869.972	-53.08
870.145	14.51
870.319	-53.08
870.492	24.75
870.665	16.55
870.838	77.99
871.011	12.46
871.185	-22.36
871.358	43.18
871.531	20.65
871.704	-10.07
871.877	-12.12
872.05	14.51
872.223	22.7
872.396	-14.17
872.569	26.79
872.742	-40.79
872.915	57.51
873.088	-1.88
873.261	4.27
873.434	102.57
873.607	12.46
873.78	6.31
873.953	-42.84
874.126	-20.31
874.299	12.46
874.471	24.75
874.644	6.31
874.817	-26.45
874.99	30.89
875.163	24.75
875.335	18.6
875.508	61.61
875.681	8.36
875.853	-57.17
876.026	16.55
876.199	-5.97
876.371	-14.17
876.544	-32.6
876.717	-24.4
876.889	14.51
877.062	6.31
877.234	28.84
877.407	55.47
877.579	55.47
877.752	37.03
877.924	-57.17
878.097	-10.07
878.269	-26.45
878.442	4.27
878.614	-5.97
878.786	-3.93
878.959	63.66
879.131	-22.36
879.303	-48.98
879.476	37.03
879.648	-16.21
879.82	-26.45
879.993	16.55
880.165	-24.4
880.337	-46.93
880.509	-46.93
880.681	18.6
880.854	-34.64
881.026	8.36
881.198	32.94
881.37	6.31
881.542	86.19
881.714	12.46
881.886	16.55
882.058	8.36
882.23	20.65
882.402	41.13
882.574	-10.07
882.746	-1.88
882.918	71.85
883.09	28.84
883.262	8.36
883.434	-20.31
883.606	-12.12
883.778	12.46
883.95	4.27
884.122	0.17
884.293	45.23
884.465	-8.02
884.637	-3.93
884.809	24.75
884.98	32.94
885.152	20.65
885.324	18.6
885.496	-36.69
885.667	47.27
885.839	-10.07
886.011	37.03
886.182	71.85
886.354	-42.84
886.525	14.51
886.697	12.46
886.869	22.7
887.04	26.79
887.212	28.84
887.383	-12.12
887.555	-22.36
887.726	-53.08
887.897	2.22
888.069	84.14
888.24	4.27
888.412	20.65
888.583	20.65
888.754	-3.93
888.926	-18.26
889.097	16.55
889.268	45.23
889.44	-34.64
889.611	-42.84
889.782	-42.84
889.953	61.61
890.125	26.79
890.296	-65.36
890.467	-44.88
890.638	-1.88
890.809	-61.27
890.98	-26.45
891.151	-24.4
891.323	-10.07
891.494	-3.93
891.665	6.31
891.836	-34.64
892.007	12.46
892.178	63.66
892.349	-1.88
892.52	-61.27
892.691	34.99
892.862	28.84
893.032	-59.22
893.203	-3.93
893.374	2.22
893.545	-10.07
893.716	69.8
893.887	8.36
894.057	37.03
894.228	49.32
894.399	-16.21
894.57	-34.64
894.74	30.89
894.911	28.84
895.082	-40.79
895.253	-1.88
895.423	-32.6
895.594	34.99
895.764	26.79
895.935	4.27
896.106	32.94
896.276	30.89
896.447	-24.4
896.617	16.55
896.788	4.27
896.958	51.37
897.129	-5.97
897.299	28.84
897.47	57.51
897.64	32.94
897.81	45.23
897.981	-20.31
898.151	6.31
898.322	24.75
898.492	-8.02
898.662	-10.07
898.832	-28.5
899.003	47.27
899.173	37.03
899.343	10.41
899.513	55.47
