Data from USB4F104151__161__13-58-45-713.txt Node

Date: Thu Mar 13 13:58:45 EDT 2025
User: louis
Spectrometer: USB4F10415
Trigger mode: 4
Integration Time (sec): 1.000000E-2
Scans to average: 1
Electric dark correction enabled: true
Nonlinearity correction enabled: false
Boxcar width: 0
XAxis mode: Wavelengths
Number of Pixels in Spectrum: 3648
>>>>>Begin Spectral Data<<<<<
178.204	-38.23
178.424	-38.23
178.644	-38.23
178.864	-21.85
179.084	-54.61
179.304	-34.13
179.524	-13.65
179.744	-5.46
179.964	21.16
180.184	-15.7
180.404	-9.56
180.624	21.16
180.844	68.27
181.064	-3.41
181.283	-48.47
181.503	0.68
181.723	19.11
181.943	-105.81
182.163	74.41
182.383	43.69
182.602	15.02
182.822	-36.18
183.042	76.46
183.262	2.73
183.482	53.93
183.701	29.35
183.921	43.69
184.141	12.97
184.361	58.03
184.58	2.73
184.8	27.31
185.02	29.35
185.239	74.41
185.459	-17.75
185.679	-5.46
185.898	-7.51
186.118	-34.13
186.338	31.4
186.557	78.51
186.777	39.59
186.997	-13.65
187.216	-46.42
187.436	39.59
187.655	-40.28
187.875	68.27
188.095	8.87
188.314	-9.56
188.534	-44.37
188.753	-5.46
188.973	-19.8
189.192	8.87
189.412	15.02
189.631	19.11
189.851	15.02
190.07	29.35
190.29	-73.04
190.509	41.64
190.729	35.5
190.948	74.41
191.168	39.59
191.387	82.6
191.607	-13.65
191.826	-25.94
192.045	-15.7
192.265	-1.37
192.484	17.07
192.704	31.4
192.923	17.07
193.142	76.46
193.362	49.83
193.581	-3.41
193.8	19.11
194.02	37.55
194.239	45.74
194.458	33.45
194.678	-40.28
194.897	-7.51
195.116	21.16
195.335	15.02
195.555	4.78
195.774	-27.99
195.993	-17.75
196.212	-19.8
196.432	-21.85
196.651	74.41
196.87	-23.89
197.089	-7.51
197.308	-38.23
197.528	80.55
197.747	-54.61
197.966	23.21
198.185	64.17
198.404	0.68
198.623	17.07
198.842	6.83
199.062	49.83
199.281	60.07
199.5	19.11
199.719	0.68
199.938	51.88
200.157	72.36
200.376	-15.7
200.595	27.31
200.814	78.51
201.033	12.97
201.252	53.93
201.471	-32.08
201.69	19.11
201.909	76.46
202.128	0.68
202.347	-34.13
202.566	8.87
202.785	-25.94
203.004	51.88
203.223	37.55
203.442	-13.65
203.661	47.79
203.879	8.87
204.098	-15.7
204.317	-27.99
204.536	17.07
204.755	10.92
204.974	62.12
205.193	90.79
205.411	62.12
205.63	76.46
205.849	62.12
206.068	43.69
206.287	17.07
206.505	-36.18
206.724	35.5
206.943	-48.47
207.162	43.69
207.381	17.07
207.599	60.07
207.818	-5.46
208.037	-19.8
208.255	23.21
208.474	51.88
208.693	0.68
208.911	23.21
209.13	64.17
209.349	-17.75
209.567	17.07
209.786	27.31
210.005	72.36
210.223	27.31
210.442	15.02
210.661	15.02
210.879	23.21
211.098	78.51
211.316	27.31
211.535	-17.75
211.753	15.02
211.972	78.51
212.191	27.31
212.409	-9.56
212.628	43.69
212.846	17.07
213.065	4.78
213.283	72.36
213.502	0.68
213.72	35.5
213.938	-11.61
214.157	0.68
214.375	23.21
214.594	-54.61
214.812	8.87
215.031	10.92
215.249	29.35
215.467	-7.51
215.686	62.12
215.904	90.79
216.122	-5.46
216.341	-9.56
216.559	2.73
216.778	72.36
216.996	33.45
217.214	92.84
217.432	25.26
217.651	49.83
217.869	27.31
218.087	8.87
218.306	-7.51
218.524	25.26
218.742	17.07
218.96	37.55
219.179	15.02
219.397	17.07
219.615	-5.46
219.833	49.83
220.051	39.59
220.27	64.17
220.488	78.51
220.706	-60.76
220.924	-23.89
221.142	0.68
221.36	49.83
221.578	23.21
221.796	-62.8
222.015	12.97
222.233	4.78
222.451	25.26
222.669	17.07
222.887	21.16
223.105	25.26
223.323	-15.7
223.541	-23.89
223.759	51.88
223.977	-54.61
224.195	8.87
224.413	58.03
224.631	4.78
224.849	-13.65
225.067	53.93
225.285	62.12
225.503	41.64
225.721	-44.37
225.939	29.35
226.157	37.55
226.375	137.9
226.592	70.31
226.81	76.46
227.028	29.35
227.246	19.11
227.464	-3.41
227.682	21.16
227.9	82.6
228.117	-44.37
228.335	37.55
228.553	47.79
228.771	-36.18
228.989	74.41
229.206	-27.99
229.424	-23.89
229.642	-42.32
229.86	-5.46
230.077	25.26
230.295	43.69
230.513	72.36
230.731	55.98
230.948	86.7
231.166	66.22
231.384	-23.89
231.601	37.55
231.819	125.61
232.037	-19.8
232.254	33.45
232.472	0.68
232.689	15.02
232.907	-7.51
233.125	51.88
233.342	0.68
233.56	76.46
233.777	-13.65
233.995	-54.61
234.213	-21.85
234.43	66.22
234.648	60.07
234.865	31.4
235.083	64.17
235.3	21.16
235.518	8.87
235.735	17.07
235.953	58.03
236.17	19.11
236.388	25.26
236.605	-15.7
236.822	41.64
237.04	10.92
237.257	64.17
237.475	4.78
237.692	70.31
237.909	70.31
238.127	8.87
238.344	-25.94
238.562	105.13
238.779	51.88
238.996	19.11
239.214	-15.7
239.431	15.02
239.648	10.92
239.865	-19.8
240.083	-1.37
240.3	29.35
240.517	-9.56
240.735	15.02
240.952	43.69
241.169	60.07
241.386	2.73
241.603	19.11
241.821	-32.08
242.038	72.36
242.255	-1.37
242.472	10.92
242.689	64.17
242.907	-32.08
243.124	47.79
243.341	17.07
243.558	39.59
243.775	4.78
243.992	12.97
244.209	-5.46
244.426	49.83
244.643	37.55
244.86	25.26
245.078	-1.37
245.295	39.59
245.512	53.93
245.729	-9.56
245.946	-11.61
246.163	4.78
246.38	15.02
246.597	-23.89
246.814	2.73
247.031	-13.65
247.248	58.03
247.464	6.83
247.681	66.22
247.898	10.92
248.115	29.35
248.332	53.93
248.549	25.26
248.766	49.83
248.983	37.55
249.2	45.74
249.417	41.64
249.633	-17.75
249.85	29.35
250.067	19.11
250.284	74.41
250.501	-1.37
250.717	49.83
250.934	68.27
251.151	60.07
251.368	70.31
251.585	-3.41
251.801	21.16
252.018	19.11
252.235	-1.37
252.451	51.88
252.668	-9.56
252.885	76.46
253.102	-36.18
253.318	66.22
253.535	29.35
253.752	23.21
253.968	0.68
254.185	55.98
254.401	29.35
254.618	33.45
254.835	-30.04
255.051	70.31
255.268	-17.75
255.484	60.07
255.701	35.5
255.917	51.88
256.134	-19.8
256.351	31.4
256.567	-23.89
256.784	-25.94
257	80.55
257.217	51.88
257.433	58.03
257.65	33.45
257.866	15.02
258.082	29.35
258.299	27.31
258.515	-7.51
258.732	12.97
258.948	12.97
259.165	74.41
259.381	-23.89
259.597	64.17
259.814	35.5
260.03	19.11
260.246	53.93
260.463	10.92
260.679	-36.18
260.895	-7.51
261.112	66.22
261.328	6.83
261.544	-7.51
261.761	74.41
261.977	-34.13
262.193	-25.94
262.409	6.83
262.626	58.03
262.842	6.83
263.058	23.21
263.274	33.45
263.49	60.07
263.707	49.83
263.923	35.5
264.139	17.07
264.355	29.35
264.571	96.94
264.787	-1.37
265.004	0.68
265.22	45.74
265.436	19.11
265.652	35.5
265.868	-21.85
266.084	17.07
266.3	19.11
266.516	-54.61
266.732	0.68
266.948	70.31
267.164	35.5
267.38	4.78
267.596	27.31
267.812	19.11
268.028	19.11
268.244	23.21
268.46	-38.23
268.676	-42.32
268.892	-11.61
269.108	-1.37
269.324	-68.95
269.54	21.16
269.756	0.68
269.972	-38.23
270.188	-46.42
270.403	25.26
270.619	-1.37
270.835	47.79
271.051	78.51
271.267	-5.46
271.483	2.73
271.698	-23.89
271.914	33.45
272.13	15.02
272.346	86.7
272.562	-44.37
272.777	31.4
272.993	43.69
273.209	-1.37
273.425	27.31
273.64	-5.46
273.856	-3.41
274.072	-21.85
274.287	33.45
274.503	25.26
274.719	19.11
274.934	58.03
275.15	-52.56
275.366	-1.37
275.581	12.97
275.797	2.73
276.012	19.11
276.228	27.31
276.444	60.07
276.659	15.02
276.875	0.68
277.09	49.83
277.306	72.36
277.521	51.88
277.737	-21.85
277.952	64.17
278.168	-30.04
278.383	49.83
278.599	-7.51
278.814	84.65
279.03	80.55
279.245	25.26
279.461	10.92
279.676	27.31
279.892	41.64
280.107	29.35
280.322	-9.56
280.538	53.93
280.753	-44.37
280.969	25.26
281.184	-13.65
281.399	39.59
281.615	-15.7
281.83	-1.37
282.045	101.03
282.26	2.73
282.476	58.03
282.691	43.69
282.906	72.36
283.122	-30.04
283.337	-46.42
283.552	68.27
283.767	39.59
283.983	55.98
284.198	37.55
284.413	82.6
284.628	-32.08
284.843	-36.18
285.058	25.26
285.274	-1.37
285.489	35.5
285.704	-9.56
285.919	62.12
286.134	27.31
286.349	74.41
286.564	60.07
286.779	-36.18
286.995	78.51
287.21	10.92
287.425	17.07
287.64	-21.85
287.855	23.21
288.07	-5.46
288.285	31.4
288.5	6.83
288.715	6.83
288.93	60.07
289.145	101.03
289.36	103.08
289.575	-54.61
289.79	2.73
290.004	92.84
290.219	43.69
290.434	37.55
290.649	45.74
290.864	2.73
291.079	35.5
291.294	27.31
291.509	103.08
291.724	86.7
291.938	-34.13
292.153	8.87
292.368	4.78
292.583	25.26
292.798	-25.94
293.012	2.73
293.227	21.16
293.442	10.92
293.657	-13.65
293.871	-30.04
294.086	51.88
294.301	0.68
294.516	39.59
294.73	-13.65
294.945	15.02
295.16	25.26
295.374	39.59
295.589	-21.85
295.804	-54.61
296.018	60.07
296.233	-32.08
296.447	-34.13
296.662	-32.08
296.877	51.88
297.091	51.88
297.306	-7.51
297.52	-58.71
297.735	-48.47
297.949	49.83
298.164	33.45
298.378	-5.46
298.593	25.26
298.807	-27.99
299.022	86.7
299.236	105.13
299.451	49.83
299.665	25.26
299.88	33.45
300.094	21.16
300.309	8.87
300.523	66.22
300.737	41.64
300.952	21.16
301.166	17.07
301.381	90.79
301.595	-21.85
301.809	-3.41
302.024	29.35
302.238	4.78
302.452	90.79
302.667	0.68
302.881	29.35
303.095	37.55
303.309	19.11
303.524	-11.61
303.738	6.83
303.952	2.73
304.166	103.08
304.381	-13.65
304.595	25.26
304.809	29.35
305.023	92.84
305.237	0.68
305.452	62.12
305.666	70.31
305.88	96.94
306.094	12.97
306.308	-23.89
306.522	31.4
306.736	39.59
306.95	-40.28
307.164	60.07
307.379	-13.65
307.593	139.94
307.807	31.4
308.021	51.88
308.235	51.88
308.449	-38.23
308.663	41.64
308.877	72.36
309.091	41.64
309.305	19.11
309.519	-38.23
309.733	-46.42
309.947	-11.61
310.161	-15.7
310.374	37.55
310.588	45.74
310.802	4.78
311.016	8.87
311.23	19.11
311.444	17.07
311.658	58.03
311.872	72.36
312.085	12.97
312.299	12.97
312.513	31.4
312.727	0.68
312.941	8.87
313.154	17.07
313.368	23.21
313.582	-7.51
313.796	-17.75
314.009	2.73
314.223	-7.51
314.437	39.59
314.651	49.83
314.864	23.21
315.078	-1.37
315.292	-27.99
315.505	-66.9
315.719	74.41
315.933	74.41
316.146	37.55
316.36	19.11
316.573	60.07
316.787	4.78
317.001	35.5
317.214	6.83
317.428	-5.46
317.641	-11.61
317.855	53.93
318.068	-1.37
318.282	60.07
318.495	39.59
318.709	27.31
318.922	-7.51
319.136	74.41
319.349	60.07
319.563	-1.37
319.776	76.46
319.99	8.87
320.203	72.36
320.417	62.12
320.63	146.09
320.843	17.07
321.057	-30.04
321.27	12.97
321.483	41.64
321.697	4.78
321.91	35.5
322.124	6.83
322.337	94.89
322.55	4.78
322.763	-3.41
322.977	37.55
323.19	37.55
323.403	27.31
323.617	-7.51
323.83	58.03
324.043	-27.99
324.256	-7.51
324.469	27.31
324.683	21.16
324.896	-27.99
325.109	35.5
325.322	41.64
325.535	86.7
325.748	-5.46
325.962	35.5
326.175	51.88
326.388	43.69
326.601	4.78
326.814	0.68
327.027	31.4
327.24	37.55
327.453	27.31
327.666	21.16
327.879	103.08
328.092	27.31
328.305	27.31
328.518	74.41
328.731	23.21
328.944	25.26
329.157	37.55
329.37	35.5
329.583	39.59
329.796	55.98
330.009	-7.51
330.222	53.93
330.435	39.59
330.648	49.83
330.861	43.69
331.073	8.87
331.286	76.46
331.499	19.11
331.712	0.68
331.925	0.68
332.138	10.92
332.35	10.92
332.563	15.02
332.776	41.64
332.989	-5.46
333.202	76.46
333.414	-15.7
333.627	43.69
333.84	45.74
334.053	-15.7
334.265	41.64
334.478	0.68
334.691	60.07
334.903	19.11
335.116	33.45
335.329	51.88
335.541	49.83
335.754	41.64
335.966	-19.8
336.179	27.31
336.392	-13.65
336.604	8.87
336.817	-60.76
337.029	101.03
337.242	-23.89
337.454	68.27
337.667	35.5
337.88	60.07
338.092	88.75
338.305	72.36
338.517	60.07
338.729	-23.89
338.942	98.99
339.154	27.31
339.367	-50.52
339.579	-32.08
339.792	-19.8
340.004	-27.99
340.217	23.21
340.429	0.68
340.641	6.83
340.854	-1.37
341.066	41.64
341.278	92.84
341.491	-15.7
341.703	31.4
341.915	31.4
342.128	4.78
342.34	-25.94
342.552	39.59
342.764	19.11
342.977	37.55
343.189	-30.04
343.401	86.7
343.613	23.21
343.826	21.16
344.038	37.55
344.25	117.42
344.462	62.12
344.674	41.64
344.886	27.31
345.099	37.55
345.311	6.83
345.523	27.31
345.735	-30.04
345.947	76.46
346.159	19.11
346.371	39.59
346.583	-34.13
346.795	27.31
347.007	82.6
347.219	74.41
347.431	-5.46
347.643	51.88
347.855	-23.89
348.067	74.41
348.279	10.92
348.491	-25.94
348.703	2.73
348.915	8.87
349.127	21.16
349.339	-19.8
349.551	21.16
349.763	12.97
349.975	-17.75
350.187	17.07
350.399	4.78
350.61	39.59
350.822	-7.51
351.034	-46.42
351.246	-1.37
351.458	10.92
351.669	37.55
351.881	8.87
352.093	82.6
352.305	72.36
352.517	-5.46
352.728	-27.99
352.94	-3.41
353.152	27.31
353.363	27.31
353.575	78.51
353.787	-15.7
353.999	-5.46
354.21	23.21
354.422	70.31
354.633	4.78
354.845	-48.47
355.057	51.88
355.268	33.45
355.48	55.98
355.692	-25.94
355.903	39.59
356.115	29.35
356.326	74.41
356.538	21.16
356.749	45.74
356.961	74.41
357.172	6.83
357.384	-5.46
357.595	-25.94
357.807	-11.61
358.018	43.69
358.23	6.83
358.441	29.35
358.653	55.98
358.864	17.07
359.075	21.16
359.287	70.31
359.498	0.68
359.709	-50.52
359.921	4.78
360.132	53.93
360.344	-44.37
360.555	21.16
360.766	35.5
360.977	84.65
361.189	49.83
361.4	19.11
361.611	-23.89
361.823	58.03
362.034	-30.04
362.245	62.12
362.456	4.78
362.667	-56.66
362.879	10.92
363.09	27.31
363.301	111.27
363.512	8.87
363.723	25.26
363.935	47.79
364.146	35.5
364.357	37.55
364.568	33.45
364.779	15.02
364.99	17.07
365.201	-15.7
365.412	51.88
365.623	8.87
365.834	33.45
366.045	-15.7
366.256	-5.46
366.467	4.78
366.678	68.27
366.889	27.31
367.1	107.18
367.311	41.64
367.522	-23.89
367.733	4.78
367.944	33.45
368.155	-7.51
368.366	107.18
368.577	-48.47
368.788	10.92
368.999	45.74
369.209	-17.75
369.42	19.11
369.631	-19.8
369.842	21.16
370.053	41.64
370.264	-21.85
370.474	29.35
370.685	33.45
370.896	17.07
371.107	10.92
371.317	-15.7
371.528	53.93
371.739	58.03
371.95	-23.89
372.16	-5.46
372.371	43.69
372.582	58.03
372.792	-5.46
373.003	-27.99
373.214	6.83
373.424	60.07
373.635	47.79
373.846	25.26
374.056	-36.18
374.267	43.69
374.477	78.51
374.688	68.27
374.898	43.69
375.109	-13.65
375.319	41.64
375.53	49.83
375.74	60.07
375.951	29.35
376.161	-7.51
376.372	103.08
376.582	27.31
376.793	4.78
377.003	-52.56
377.214	19.11
377.424	41.64
377.635	55.98
377.845	17.07
378.055	55.98
378.266	-44.37
378.476	82.6
378.686	-7.51
378.897	111.27
379.107	21.16
379.317	39.59
379.528	10.92
379.738	60.07
379.948	43.69
380.158	41.64
380.369	8.87
380.579	-21.85
380.789	12.97
380.999	41.64
381.21	8.87
381.42	55.98
381.63	-9.56
381.84	-1.37
382.05	33.45
382.261	96.94
382.471	92.84
382.681	58.03
382.891	-15.7
383.101	15.02
383.311	-15.7
383.521	-9.56
383.731	70.31
383.941	80.55
384.151	-44.37
384.361	39.59
384.571	-21.85
384.781	66.22
384.991	51.88
385.201	107.18
385.411	35.5
385.621	0.68
385.831	33.45
386.041	49.83
386.251	66.22
386.461	53.93
386.671	70.31
386.881	41.64
387.091	72.36
387.301	47.79
387.511	-48.47
387.72	21.16
387.93	25.26
388.14	-5.46
388.35	10.92
388.56	98.99
388.769	78.51
388.979	23.21
389.189	19.11
389.399	23.21
389.609	15.02
389.818	72.36
390.028	4.78
390.238	2.73
390.447	25.26
390.657	19.11
390.867	25.26
391.076	17.07
391.286	8.87
391.496	60.07
391.705	39.59
391.915	60.07
392.125	47.79
392.334	62.12
392.544	43.69
392.753	88.75
392.963	-1.37
393.172	-7.51
393.382	-15.7
393.591	-15.7
393.801	39.59
394.01	-38.23
394.22	107.18
394.429	49.83
394.639	21.16
394.848	21.16
395.058	58.03
395.267	4.78
395.477	58.03
395.686	6.83
395.895	19.11
396.105	94.89
396.314	39.59
396.524	8.87
396.733	66.22
396.942	51.88
397.152	-11.61
397.361	49.83
397.57	39.59
397.78	39.59
397.989	17.07
398.198	78.51
398.407	68.27
398.617	86.7
398.826	39.59
399.035	58.03
399.244	53.93
399.453	70.31
399.663	-23.89
399.872	90.79
400.081	37.55
400.29	66.22
400.499	101.03
400.708	70.31
400.917	2.73
401.127	10.92
401.336	29.35
401.545	33.45
401.754	12.97
401.963	23.21
402.172	17.07
402.381	33.45
402.59	76.46
402.799	33.45
403.008	43.69
403.217	70.31
403.426	17.07
403.635	98.99
403.844	49.83
404.053	66.22
404.262	70.31
404.471	60.07
404.68	23.21
404.888	60.07
405.097	70.31
405.306	86.7
405.515	55.98
405.724	58.03
405.933	-15.7
406.142	96.94
406.35	8.87
406.559	101.03
406.768	68.27
406.977	94.89
407.185	49.83
407.394	66.22
407.603	131.75
407.812	90.79
408.02	109.23
408.229	98.99
408.438	45.74
408.646	37.55
408.855	139.94
409.064	127.66
409.272	43.69
409.481	96.94
409.69	90.79
409.898	119.46
410.107	74.41
410.315	154.28
410.524	78.51
410.733	133.8
410.941	111.27
411.15	152.23
411.358	119.46
411.567	123.56
411.775	80.55
411.984	115.37
412.192	148.14
412.401	180.9
412.609	176.81
412.818	207.53
413.026	195.24
413.234	271.01
413.443	164.52
413.651	219.82
413.86	168.62
414.068	223.91
414.276	154.28
414.485	191.14
414.693	152.23
414.901	264.87
415.11	240.3
415.318	176.81
415.526	301.73
415.734	252.58
415.943	185
416.151	307.88
416.359	242.34
416.567	316.07
416.776	283.3
416.984	275.11
417.192	266.92
417.4	316.07
417.608	277.16
417.817	332.45
418.025	354.98
418.233	400.04
418.441	371.37
418.649	461.48
418.857	346.79
419.065	363.17
419.273	416.42
419.481	408.23
419.689	486.05
419.897	420.52
420.105	402.08
420.313	496.29
420.521	518.82
420.729	524.96
420.937	514.72
421.145	496.29
421.353	590.5
421.561	533.15
421.769	625.31
421.977	627.36
422.185	602.79
422.393	703.14
422.601	719.52
422.809	645.79
423.017	766.62
423.224	725.66
423.432	776.86
423.64	768.67
423.848	797.34
424.056	916.12
424.263	877.21
424.471	905.88
424.679	907.93
424.887	971.42
425.094	967.32
425.302	1022.62
425.51	1020.57
425.718	1010.33
425.925	1020.57
426.133	1063.58
426.341	1090.2
426.548	1165.98
426.756	1204.89
426.964	1196.7
427.171	1311.38
427.379	1352.34
427.586	1352.34
427.794	1415.83
428.001	1413.78
428.209	1467.03
428.417	1602.19
428.624	1577.62
428.832	1559.19
429.039	1612.43
429.247	1514.13
429.454	1675.92
429.662	1827.47
429.869	1702.54
430.076	1770.13
430.284	1837.71
430.491	1806.99
430.699	1944.21
430.906	1903.25
431.114	1985.16
431.321	2081.42
431.528	2105.99
431.736	2185.87
431.943	2284.17
432.15	2173.58
432.358	2275.98
432.565	2374.28
432.772	2351.75
432.979	2415.24
433.187	2523.78
433.394	2566.79
433.601	2710.15
433.808	2710.15
434.016	2658.95
434.223	2824.83
434.43	3046.01
434.637	2873.98
434.844	3152.51
435.052	3097.21
435.259	3183.23
435.466	3304.06
435.673	3203.71
435.88	3418.74
436.087	3580.53
436.294	3582.58
436.501	3433.08
436.708	3545.72
436.915	3705.46
437.122	3797.62
437.329	3877.49
437.537	3865.2
437.743	4088.43
437.95	3983.98
438.157	4149.87
438.364	4354.66
438.571	4336.23
438.778	4334.18
438.985	4813.41
439.192	4555.37
439.399	4727.39
439.606	4620.9
439.813	4874.85
440.02	5245.53
440.227	5098.08
440.433	5012.06
440.64	5063.26
440.847	5089.89
441.054	5198.43
441.261	5497.43
441.467	5569.11
441.674	5567.06
441.881	5775.95
442.088	5636.69
442.294	5749.33
442.501	5933.65
442.708	6128.21
442.914	6376.01
443.121	6509.13
443.328	6253.13
443.534	6793.8
443.741	6560.33
443.948	6634.05
444.154	6935.1
444.361	6957.63
444.568	6920.77
444.774	7182.91
444.981	7100.99
445.187	7373.37
445.394	7727.67
445.6	7428.67
445.807	8260.14
446.013	7879.22
446.22	7971.38
446.426	8307.24
446.633	8430.12
446.839	8999.46
447.046	8553
447.252	8897.06
447.459	8858.15
447.665	8931.87
447.871	9333.28
448.078	9583.13
448.284	9251.36
448.491	9462.3
448.697	9863.7
448.903	10007.06
449.11	10027.54
449.316	9806.36
449.522	10048.02
449.728	10492.43
449.935	10463.75
450.141	10594.82
450.347	10953.22
450.553	10267.15
450.76	10576.39
450.966	10832.39
451.172	10760.71
451.378	10807.81
451.584	10713.61
451.791	10965.51
451.997	11067.91
452.203	11229.7
452.409	11170.3
452.615	11350.53
452.821	10711.56
453.027	10531.34
453.233	11174.4
453.44	10873.35
453.646	10918.4
453.852	10990.08
454.058	11108.87
454.264	10820.1
454.47	11209.22
454.676	10899.97
454.882	11196.93
455.088	10357.26
455.294	10342.92
455.5	10600.97
455.705	10729.99
455.911	10258.96
456.117	10037.78
456.323	10005.01
456.529	9585.18
456.735	9826.84
456.941	9493.02
457.147	9437.72
457.352	9312.8
457.558	8895.01
457.764	9130.53
457.97	8938.02
458.176	8495.66
458.381	8661.54
458.587	8241.71
458.793	8389.16
458.999	8098.35
459.204	8462.89
459.41	8202.8
459.616	7858.74
459.821	7832.12
460.027	7762.48
460.233	7498.3
460.438	7219.77
460.644	7473.72
460.85	6918.72
461.055	6795.84
461.261	6777.41
461.466	6320.71
461.672	6271.56
461.878	6500.94
462.083	5921.36
462.289	6185.55
462.494	6007.38
462.7	5618.26
462.905	5616.21
463.111	5710.42
463.316	5784.15
463.522	5620.31
463.727	5538.39
463.932	5558.87
464.138	5497.43
464.343	5481.05
464.549	5329.5
464.754	5505.62
464.959	5325.4
465.165	5538.39
465.37	5231.19
465.575	5180
465.781	5263.96
465.986	5491.29
466.191	5104.22
466.397	4940.38
466.602	4768.35
466.807	5040.73
467.012	5016.16
467.218	4985.44
467.423	4813.41
467.628	5032.54
467.833	5059.17
468.038	5020.25
468.244	4792.93
468.449	4969.05
468.654	4909.66
468.859	4854.37
469.064	4833.89
469.269	4772.45
469.474	4645.48
469.679	4745.83
469.885	4506.21
470.09	4782.69
470.295	4534.89
470.5	4612.71
470.705	4549.22
470.91	4510.31
471.115	4428.39
471.32	4430.44
471.525	4346.47
471.73	4352.62
471.935	4387.43
472.139	4223.59
472.344	4215.4
472.549	4270.7
472.754	4231.79
472.959	4147.82
473.164	3961.45
473.369	3838.58
473.574	4160.11
473.778	4063.85
473.983	4041.32
474.188	3869.3
474.393	3883.63
474.598	3859.06
474.802	3803.76
475.007	3723.89
475.212	3824.24
475.417	3750.51
475.621	3641.97
475.826	3674.74
476.031	3529.33
476.235	3639.92
476.44	3641.97
476.645	3437.17
476.849	3480.18
477.054	3465.85
477.259	3494.52
477.463	3394.17
477.668	3400.31
477.872	3449.46
478.077	3373.69
478.282	3259
478.486	3089.02
478.691	3175.03
478.895	3269.24
479.1	3232.38
479.304	3238.52
479.509	3132.03
479.713	3158.65
479.918	3105.4
480.122	3107.45
480.326	2994.81
480.531	3068.54
480.735	3056.25
480.94	2957.95
481.144	3164.79
481.348	2933.37
481.553	3021.44
481.757	2966.14
481.961	2880.13
482.166	2994.81
482.37	2964.09
482.574	2908.8
482.778	2943.61
482.983	2972.29
483.187	3007.1
483.391	2878.08
483.595	2908.8
483.8	2925.18
484.004	2873.98
484.208	2980.48
484.412	2921.09
484.616	2894.46
484.821	3019.39
485.025	2869.89
485.229	2878.08
485.433	2966.14
485.637	2779.78
485.841	3021.44
486.045	2890.37
486.249	3009.15
486.453	2826.88
486.657	2914.94
486.861	2955.9
487.065	2867.84
487.269	2900.61
487.473	2933.37
487.677	2853.5
487.881	2960
488.085	2773.63
488.289	2931.33
488.493	2984.57
488.697	2994.81
488.901	3019.39
489.105	2916.99
489.309	3021.44
489.512	3048.06
489.716	3035.77
489.92	3013.24
490.124	2900.61
490.328	3072.64
490.531	2974.33
490.735	3007.1
490.939	3117.69
491.143	2984.57
491.346	3060.35
491.55	3089.02
491.754	3129.98
491.958	3207.8
492.161	3066.49
492.365	3097.21
492.569	3224.19
492.772	3154.55
492.976	3287.67
493.18	3132.03
493.383	3293.82
493.587	3254.9
493.79	3306.1
493.994	3203.71
494.197	3197.56
494.401	3297.91
494.605	3375.74
494.808	3383.93
495.012	3412.6
495.215	3428.98
495.419	3338.87
495.622	3494.52
495.825	3570.29
496.029	3519.09
496.232	3635.83
496.436	3701.36
496.639	3641.97
496.843	3689.07
497.046	3844.72
497.249	3848.82
497.453	3961.45
497.656	3854.96
497.859	3762.8
498.063	3895.92
498.266	4043.37
498.469	4110.96
498.673	4031.09
498.876	4102.76
499.079	4223.59
499.282	4090.48
499.485	4377.19
499.689	4274.79
499.892	4409.96
500.095	4436.58
500.298	4510.31
500.501	4565.61
500.705	4584.04
500.908	4733.54
501.111	4815.46
501.314	4772.45
501.517	4901.47
501.72	4958.81
501.923	4967.01
502.126	5059.17
502.329	5188.19
502.532	5223
502.735	5173.85
502.938	5483.1
503.141	5495.38
503.344	5624.4
503.547	5532.25
503.75	5735
503.953	5655.12
504.156	5810.77
504.359	5859.92
504.562	5847.63
504.765	6140.49
504.968	6220.36
505.17	6193.74
505.373	6265.42
505.576	6451.78
505.779	6482.5
505.982	6648.39
506.185	6672.96
506.387	6742.6
506.59	6742.6
506.793	6955.58
506.996	6849.09
507.198	7223.87
507.401	7135.81
507.604	7273.02
507.807	7637.56
508.009	7565.88
508.212	7674.42
508.415	7866.93
508.617	8102.45
508.82	7995.95
509.022	8118.83
509.225	8067.63
509.428	8098.35
509.63	8225.33
509.833	8358.44
510.035	8817.19
510.238	8827.43
510.44	8753.7
510.643	8935.97
510.845	9216.54
511.048	9237.02
511.25	9222.69
511.453	9714.2
511.655	9910.8
511.858	9859.6
512.06	9861.65
512.262	9945.62
512.465	9806.36
512.667	10093.07
512.87	10435.08
513.072	10535.43
513.274	10519.05
513.477	10773
513.679	10916.36
513.881	11100.67
514.084	11373.05
514.286	11346.43
514.488	11508.22
514.69	11819.51
514.893	11971.06
515.095	12042.74
515.297	12298.73
515.499	12341.74
515.701	12519.92
515.904	12661.23
516.106	12859.88
516.308	12919.27
516.51	13105.63
516.712	13318.62
516.914	13468.13
517.116	13517.28
517.318	13371.87
517.52	13853.14
517.722	13990.36
517.925	14322.13
518.127	14481.87
518.329	14653.9
518.531	14780.87
518.733	15106.5
518.935	15055.3
519.136	15133.12
519.338	15491.52
519.54	15497.66
519.742	15737.27
519.944	16023.99
520.146	16241.07
520.348	16576.94
520.55	16357.81
520.752	16492.97
520.954	17029.54
521.155	16794.03
521.357	17168.8
521.559	17437.09
521.761	17674.65
521.963	17662.37
522.164	17985.94
522.366	17990.04
522.568	18495.89
522.77	18186.65
522.971	18690.45
523.173	18663.82
523.375	18776.46
523.576	19003.78
523.778	18940.3
523.98	19440
524.181	19487.11
524.383	19542.4
524.584	19857.79
524.786	19601.79
524.988	19624.32
525.189	20085.11
525.391	20382.07
525.592	20670.83
525.794	20246.9
525.995	20912.49
526.197	20779.37
526.398	20672.88
526.6	20748.65
526.801	21055.85
527.003	21358.95
527.204	21297.51
527.406	21330.28
527.607	21410.15
527.808	21784.93
528.01	21569.89
528.211	21893.47
528.412	22143.32
528.614	21907.8
528.815	22071.64
529.016	22372.69
529.218	22546.77
529.419	22325.59
529.62	22473.04
529.822	22438.23
530.023	22620.5
530.224	22530.39
530.425	22692.18
530.626	22538.58
530.828	22282.58
531.029	23001.42
531.23	23003.47
531.431	22749.52
531.632	22765.9
531.833	22929.74
532.035	22892.88
532.236	23308.61
532.437	23312.71
532.638	23011.66
532.839	23308.61
533.04	23327.05
533.241	22942.03
533.442	23626.05
533.643	23437.64
533.844	23488.84
534.045	23841.09
534.246	23406.92
534.447	23527.75
534.648	23351.62
534.849	23818.56
535.05	23507.27
535.251	23777.6
535.451	23417.16
535.652	23734.59
535.853	23777.6
536.054	23759.17
536.255	23853.37
536.456	23492.93
536.657	24017.21
536.857	23783.74
537.058	23499.08
537.259	24009.02
537.46	23914.81
537.66	23454.02
537.861	23898.43
538.062	23875.9
538.263	23789.89
538.463	23722.3
538.664	23871.81
538.865	24324.41
539.065	23900.48
539.266	23613.76
539.466	24199.48
539.667	23492.93
539.868	23826.75
540.068	23912.77
540.269	23368.01
540.469	24011.07
540.67	23746.88
540.87	23931.2
541.071	23626.05
541.271	23978.3
541.472	23664.96
541.672	23773.5
541.873	23906.62
542.073	23847.23
542.274	24017.21
542.474	23867.71
542.675	23847.23
542.875	24346.94
543.075	23658.82
543.276	23839.04
543.476	24004.92
543.676	23558.47
543.877	23701.82
544.077	23953.73
544.277	24025.4
544.478	23650.63
544.678	23748.93
544.878	23812.42
545.078	24121.66
545.279	23585.09
545.479	23820.61
545.679	23812.42
545.879	23961.92
546.079	23869.76
546.28	23851.33
546.48	23613.76
546.68	23824.7
546.88	23812.42
547.08	24166.71
547.28	23763.26
547.48	23552.32
547.68	24181.05
547.88	23746.88
548.081	23980.35
548.281	23781.7
548.481	24072.51
548.681	24146.23
548.881	24121.66
549.081	23851.33
549.28	23839.04
549.48	23869.76
549.68	23644.48
549.88	23990.59
550.08	23673.15
550.28	23855.42
550.48	23826.75
550.68	24267.06
550.88	23644.48
551.08	23804.22
551.279	23685.44
551.479	23517.51
551.679	23851.33
551.879	23497.03
552.079	23830.85
552.278	24009.02
552.478	23955.77
552.678	23912.77
552.878	23927.1
553.077	23894.33
553.277	23716.16
553.477	24258.87
553.676	23912.77
553.876	23806.27
554.076	23613.76
554.275	23736.64
554.475	23511.36
554.674	23888.19
554.874	23683.39
555.074	23775.55
555.273	23683.39
555.473	23732.54
555.672	23290.18
555.872	23488.84
556.071	23576.9
556.271	23611.71
556.47	23431.49
556.67	23177.54
556.869	23236.94
557.068	23357.77
557.268	23159.11
557.467	23325
557.667	23148.87
557.866	23531.84
558.065	23048.52
558.265	23005.52
558.464	23157.07
558.663	23083.34
558.863	23069
559.062	23347.53
559.261	22753.62
559.461	22806.86
559.66	22821.2
559.859	22767.95
560.058	22813.01
560.258	22819.15
560.457	22659.41
560.656	23056.71
560.855	22782.29
561.054	22802.77
561.253	22571.35
561.453	22409.56
561.652	22483.28
561.851	22567.25
562.05	22647.12
562.249	22430.04
562.448	22622.55
562.647	22417.75
562.846	22233.43
563.045	22452.56
563.244	22051.16
563.443	22434.13
563.642	22251.86
563.841	22319.45
564.04	21959
564.239	22280.53
564.438	21932.38
564.637	22077.79
564.836	22073.69
565.035	21584.23
565.234	21926.24
565.432	21725.54
565.631	21995.87
565.83	21875.04
566.029	21717.34
566.228	21586.27
566.427	21647.71
566.625	21193.06
566.824	21264.74
567.023	21553.51
567.222	21064.04
567.42	21535.07
567.619	21236.07
567.818	21064.04
568.016	21068.14
568.215	21416.29
568.414	20920.68
568.612	21066.09
568.811	20892.01
569.01	21107.05
569.208	20644.21
569.407	21223.78
569.605	20554.1
569.804	20869.48
570.002	20762.99
570.201	20656.5
570.4	20310.39
570.598	20431.22
570.797	20480.37
570.995	20267.38
571.193	20005.24
571.392	20451.7
571.59	19956.09
571.789	20152.7
571.987	20251
572.186	19966.33
572.384	19943.8
572.582	19673.47
572.781	19759.49
572.979	19652.99
573.177	19696
573.376	19624.32
573.574	19411.33
573.772	19763.58
573.971	19437.95
574.169	19181.96
574.367	19141
574.565	19255.68
574.763	18983.3
574.962	19102.09
575.16	18860.43
575.358	19077.51
575.556	18815.37
575.754	19169.67
575.952	18432.4
576.151	18864.52
576.349	18448.79
576.547	18491.79
576.745	18434.45
576.943	18481.55
577.141	18489.74
577.339	18311.57
577.537	18418.07
577.735	18364.82
577.933	18094.49
578.131	18192.79
578.329	18067.86
578.527	18119.06
578.725	17660.32
578.923	18094.49
579.121	17795.48
579.319	17539.49
579.516	17715.61
579.714	17531.3
579.912	17623.45
580.11	17457.57
580.308	17400.23
580.506	17400.23
580.704	16925.1
580.901	17408.42
581.099	17090.98
581.297	17189.28
581.495	17267.11
581.692	16968.1
581.89	17090.98
582.088	17084.84
582.285	17039.78
582.483	16773.55
582.681	16867.75
582.878	16632.24
583.076	16626.09
583.274	16691.63
583.471	16415.15
583.669	16478.64
583.866	16239.03
584.064	16386.48
584.262	16247.22
584.459	16562.61
584.657	16071.09
584.854	16525.74
585.052	16001.46
585.249	16099.77
585.447	16286.13
585.644	15581.63
585.841	16040.37
586.039	15899.06
586.236	15677.88
586.434	15923.64
586.631	15659.45
586.828	16001.46
587.026	15722.94
587.223	15827.39
587.42	15720.89
587.618	15731.13
587.815	15434.18
588.012	15301.06
588.21	15565.25
588.407	15167.94
588.604	14899.66
588.801	15075.78
588.999	15026.63
589.196	15086.02
589.393	15159.75
589.59	14830.02
589.787	15049.16
589.984	14739.91
590.182	14594.51
590.379	14854.6
590.576	14821.83
590.773	14684.62
590.97	14832.07
591.167	14668.23
591.364	14361.04
591.561	14457.29
591.758	14344.66
591.955	14483.92
592.152	14537.16
592.349	14244.31
592.546	14428.62
592.743	14303.7
592.94	14180.82
593.137	14127.57
593.334	14463.44
593.531	14164.43
593.727	14076.37
593.924	14166.48
594.121	14014.93
594.318	13963.73
594.515	13656.54
594.712	13930.97
594.908	13906.39
595.105	13724.12
595.302	13627.87
595.499	13697.5
595.696	13597.15
595.892	13699.55
596.089	13392.35
596.286	13738.46
596.482	13558.24
596.679	13672.92
596.876	13773.27
597.072	13298.14
597.269	13380.06
597.466	13140.45
597.662	13269.47
597.859	13234.66
598.055	13421.02
598.252	13122.02
598.448	12904.93
598.645	13015.52
598.841	12898.79
599.038	12964.32
599.234	13091.3
599.431	12943.85
599.627	12984.8
599.824	13062.63
600.02	12726.76
600.217	12810.73
600.413	12691.94
600.609	12536.3
600.806	12548.59
601.002	12673.51
601.198	12403.18
601.395	12317.17
601.591	12417.52
601.787	12423.66
601.984	12149.23
602.18	12390.89
602.376	12149.23
602.572	12028.4
602.769	12171.76
602.965	11973.11
603.161	12282.35
603.357	12118.51
603.553	12059.12
603.75	11991.54
603.946	11901.43
604.142	11923.96
604.338	11813.37
604.534	12059.12
604.73	11540.99
604.926	11667.96
605.122	11633.15
605.318	11483.64
605.514	11448.83
605.71	11389.44
605.906	11373.05
606.102	11405.82
606.298	11475.45
606.494	11366.91
606.69	11297.28
606.886	11246.08
607.082	11104.77
607.278	11237.89
607.474	10895.88
607.67	11078.15
607.866	11108.87
608.062	11158.02
608.257	11012.61
608.453	10899.97
608.649	10877.44
608.845	10793.48
609.041	10754.57
609.236	10750.47
609.432	10744.33
609.628	10758.66
609.824	10713.61
610.019	10498.57
610.215	10605.06
610.411	10613.26
610.606	10396.17
610.802	10592.78
610.998	10220.05
611.193	10244.62
611.389	10461.71
611.584	10174.99
611.78	10140.18
611.976	10381.84
612.171	9974.29
612.367	10183.18
612.562	9951.76
612.758	9873.94
612.953	10142.22
613.149	9871.89
613.344	9871.89
613.539	10179.09
613.735	9945.62
613.93	9843.22
614.126	9890.32
614.321	9955.86
614.517	9800.21
614.712	9970.19
614.907	9871.89
615.103	9689.62
615.298	9488.92
615.493	9681.43
615.688	9579.03
615.884	9626.14
616.079	9189.92
616.274	9472.54
616.47	9468.44
616.665	9411.1
616.86	9306.65
617.055	9501.21
617.25	9290.27
617.445	9226.78
617.641	9226.78
617.836	9300.51
618.031	9036.32
618.226	9183.77
618.421	9206.3
618.616	9206.3
618.811	9118.24
619.006	9003.55
619.201	8751.65
619.396	8950.31
619.591	8733.22
619.786	9136.67
619.981	8626.73
620.176	8675.88
620.371	8675.88
620.566	8725.03
620.761	8413.74
620.956	8778.28
621.151	8569.38
621.346	8270.38
621.541	8397.35
621.735	8290.86
621.93	8383.02
622.125	8380.97
622.32	8217.13
622.515	8292.91
622.709	8204.85
622.904	8215.09
623.099	7954.99
623.294	8004.14
623.488	7840.31
623.683	7905.84
623.878	7623.22
624.072	7828.02
624.267	7920.18
624.462	7793.2
624.656	7565.88
624.851	7748.15
625.046	7574.07
625.24	7531.06
625.435	7617.08
625.629	7490.1
625.824	7508.54
626.018	7432.76
626.213	7246.4
626.407	7232.06
626.602	7291.45
626.796	7313.98
626.991	7176.77
627.185	7117.37
627.38	7131.71
627.574	7096.89
627.768	6994.5
627.963	6855.23
628.157	6842.95
628.352	6945.34
628.546	6912.58
628.74	6941.25
628.935	6818.37
629.129	6971.97
629.323	6677.06
629.517	6650.44
629.712	6797.89
629.906	6730.31
630.1	6593.09
630.294	6556.23
630.489	6660.68
630.683	6621.77
630.877	6416.97
631.071	6431.3
631.265	6455.88
631.459	6378.06
631.653	6386.25
631.848	6396.49
632.042	6277.71
632.236	6216.27
632.43	6326.86
632.624	6398.54
632.818	6300.23
633.012	6163.02
633.206	6175.31
633.4	6097.49
633.594	5950.03
633.788	5988.94
633.982	5939.79
634.176	5902.93
634.369	5821.01
634.563	5898.83
634.757	5749.33
634.951	5980.75
635.145	5786.19
635.339	5706.32
635.533	5853.78
635.726	5720.66
635.92	5771.86
636.114	5798.48
636.308	5616.21
636.501	5710.42
636.695	5696.08
636.889	5497.43
637.083	5515.86
637.276	5622.36
637.47	5528.15
637.664	5466.71
637.857	5468.76
638.051	5403.22
638.244	5409.37
638.438	5266.01
638.632	5235.29
638.825	5239.39
639.019	5302.87
639.212	5235.29
639.406	5081.69
639.599	5175.9
639.793	5153.37
639.986	4868.7
640.18	5063.26
640.373	5026.4
640.567	4903.52
640.76	4975.2
640.954	4936.29
641.147	4856.42
641.34	4717.15
641.534	4846.18
641.727	4940.38
641.92	4846.18
642.114	4733.54
642.307	4833.89
642.5	4747.87
642.694	4680.29
642.887	4555.37
643.08	4596.32
643.273	4592.23
643.467	4465.25
643.66	4500.07
643.853	4559.46
644.046	4444.77
644.239	4502.12
644.432	4366.95
644.626	4473.45
644.819	4282.99
645.012	4457.06
645.205	4350.57
645.398	4319.85
645.591	4201.07
645.784	4137.58
645.977	4055.66
646.17	4133.48
646.363	4170.35
646.556	3926.64
646.749	4186.73
646.942	4115.05
647.135	4000.37
647.328	3957.36
647.521	3940.97
647.714	3945.07
647.907	3764.85
648.099	3838.58
648.292	3938.93
648.485	3805.81
648.678	3693.17
648.871	3664.5
649.064	3715.7
649.256	3736.18
649.449	3639.92
649.642	3705.46
649.835	3641.97
650.027	3424.89
650.22	3535.48
650.413	3596.92
650.605	3492.47
650.798	3531.38
650.991	3543.67
651.183	3517.05
651.376	3547.76
651.568	3451.51
651.761	3504.76
651.954	3336.82
652.146	3285.62
652.339	3291.77
652.531	3285.62
652.724	3228.28
652.916	3209.85
653.109	3158.65
653.301	3211.9
653.494	3308.15
653.686	3134.07
653.879	3158.65
654.071	2994.81
654.263	3105.4
654.456	2890.37
654.648	3039.87
654.84	2970.24
655.033	3013.24
655.225	3003
655.417	2941.57
655.61	2912.89
655.802	2982.53
655.994	2894.46
656.186	2769.54
656.379	2773.63
656.571	2708.1
656.763	2761.34
656.955	2734.72
657.148	2802.3
657.34	2755.2
657.532	2660.99
657.724	2734.72
657.916	2718.34
658.108	2648.71
658.3	2548.36
658.492	2531.97
658.684	2503.3
658.876	2531.97
659.068	2624.13
659.26	2484.87
659.452	2566.79
659.644	2550.4
659.836	2484.87
660.028	2429.57
660.22	2370.18
660.412	2423.43
660.604	2493.06
660.796	2343.56
660.988	2314.89
661.18	2329.22
661.372	2212.49
661.563	2337.41
661.755	2316.94
661.947	2306.7
662.139	2171.53
662.331	2280.07
662.522	2280.07
662.714	2187.91
662.906	2065.04
663.097	2175.63
663.289	2060.94
663.481	2026.12
663.673	2067.08
663.864	2065.04
664.056	2013.84
664.247	2079.37
664.439	2071.18
664.631	2087.56
664.822	2083.47
665.014	1993.36
665.205	1880.72
665.397	1770.13
665.588	1911.44
665.78	1868.43
665.971	1874.57
666.163	1852.05
666.354	1870.48
666.546	1798.8
666.737	1860.24
666.929	1874.57
667.12	1796.75
667.311	1872.53
667.503	1794.7
667.694	1829.52
667.885	1768.08
668.077	1704.59
668.268	1667.73
668.459	1749.65
668.651	1585.81
668.842	1813.13
669.033	1772.18
669.224	1700.5
669.416	1739.41
669.607	1761.94
669.798	1690.26
669.989	1686.16
670.18	1546.9
670.371	1493.65
670.563	1634.96
670.754	1577.62
670.945	1649.3
671.136	1649.3
671.327	1565.33
671.518	1608.34
671.709	1655.44
671.9	1624.72
672.091	1651.35
672.282	1551
672.473	1456.79
672.664	1528.47
672.855	1528.47
673.046	1510.04
673.237	1577.62
673.428	1514.13
673.619	1505.94
673.809	1393.3
674	1485.46
674.191	1503.89
674.382	1411.73
674.573	1514.13
674.764	1491.6
674.954	1542.8
675.145	1458.84
675.336	1444.5
675.527	1548.95
675.717	1458.84
675.908	1505.94
676.099	1464.98
676.289	1499.8
676.48	1413.78
676.671	1485.46
676.861	1456.79
677.052	1473.17
677.243	1340.05
677.433	1483.41
677.624	1446.55
677.814	1383.06
678.005	1534.61
678.195	1401.49
678.386	1352.34
678.576	1387.16
678.767	1532.56
678.957	1444.5
679.148	1514.13
679.338	1413.78
679.529	1458.84
679.719	1407.64
679.909	1395.35
680.1	1483.41
680.29	1409.69
680.481	1417.88
680.671	1381.01
680.861	1323.67
681.052	1325.72
681.242	1360.53
681.432	1335.96
681.622	1481.36
681.813	1297.05
682.003	1362.58
682.193	1333.91
682.383	1327.77
682.573	1411.73
682.764	1450.64
682.954	1432.21
683.144	1434.26
683.334	1413.78
683.524	1407.64
683.714	1335.96
683.904	1295
684.094	1399.45
684.284	1364.63
684.474	1452.69
684.664	1321.62
684.854	1362.58
685.044	1417.88
685.234	1292.95
685.424	1360.53
685.614	1417.88
685.804	1387.16
685.994	1395.35
686.184	1432.21
686.374	1344.15
686.564	1317.53
686.753	1344.15
686.943	1387.16
687.133	1483.41
687.323	1419.92
687.513	1325.72
687.702	1483.41
687.892	1485.46
688.082	1426.07
688.272	1374.87
688.461	1389.21
688.651	1464.98
688.841	1483.41
689.03	1430.16
689.22	1473.17
689.41	1421.97
689.599	1352.34
689.789	1428.12
689.979	1397.4
690.168	1399.45
690.358	1397.4
690.547	1499.8
690.737	1411.73
690.926	1421.97
691.116	1477.27
691.305	1507.99
691.495	1495.7
691.684	1432.21
691.874	1534.61
692.063	1579.67
692.252	1460.88
692.442	1481.36
692.631	1458.84
692.82	1460.88
693.01	1524.37
693.199	1559.19
693.388	1540.76
693.578	1495.7
693.767	1620.63
693.956	1454.74
694.146	1489.56
694.335	1440.4
694.524	1499.8
694.713	1514.13
694.902	1473.17
695.092	1553.04
695.281	1477.27
695.47	1458.84
695.659	1438.36
695.848	1432.21
696.037	1534.61
696.226	1481.36
696.415	1524.37
696.604	1542.8
696.793	1622.67
696.982	1491.6
697.171	1532.56
697.36	1639.06
697.549	1551
697.738	1551
697.927	1567.38
698.116	1475.22
698.305	1448.6
698.494	1542.8
698.683	1630.87
698.872	1530.52
699.061	1536.66
699.25	1561.23
699.438	1561.23
699.627	1544.85
699.816	1567.38
700.005	1637.01
700.193	1575.57
700.382	1551
700.571	1551
700.76	1507.99
700.948	1649.3
701.137	1559.19
701.326	1514.13
701.514	1602.19
701.703	1565.33
701.892	1553.04
702.08	1524.37
702.269	1641.11
702.457	1520.28
702.646	1637.01
702.834	1536.66
703.023	1563.28
703.212	1641.11
703.4	1602.19
703.589	1579.67
703.777	1522.32
703.965	1518.23
704.154	1622.67
704.342	1526.42
704.531	1544.85
704.719	1497.75
704.907	1577.62
705.096	1479.32
705.284	1665.68
705.472	1469.08
705.661	1479.32
705.849	1553.04
706.037	1573.52
706.226	1454.74
706.414	1428.12
706.602	1581.71
706.79	1503.89
706.979	1407.64
707.167	1524.37
707.355	1507.99
707.543	1405.59
707.731	1512.08
707.919	1428.12
708.107	1434.26
708.296	1561.23
708.484	1467.03
708.672	1456.79
708.86	1462.93
709.048	1413.78
709.236	1424.02
709.424	1426.07
709.612	1452.69
709.8	1372.82
709.988	1331.86
710.176	1385.11
710.364	1450.64
710.551	1344.15
710.739	1313.43
710.927	1426.07
711.115	1409.69
711.303	1245.85
711.491	1413.78
711.679	1284.76
711.866	1362.58
712.054	1409.69
712.242	1448.6
712.43	1370.77
712.617	1405.59
712.805	1317.53
712.993	1198.74
713.181	1352.34
713.368	1354.39
713.556	1374.87
713.744	1297.05
713.931	1350.29
714.119	1299.09
714.306	1241.75
714.494	1311.38
714.682	1270.42
714.869	1163.93
715.057	1266.33
715.244	1200.79
715.432	1303.19
715.619	1292.95
715.807	1270.42
715.994	1225.37
716.182	1231.51
716.369	1237.66
716.556	1235.61
716.744	1211.03
716.931	1247.9
717.119	1161.88
717.306	1274.52
717.493	1180.31
717.681	1188.5
717.868	1168.02
718.055	1170.07
718.242	1172.12
718.43	1190.55
718.617	1215.13
718.804	1174.17
718.991	1192.6
719.179	1090.2
719.366	1190.55
719.553	1219.22
719.74	1122.97
719.927	1043.1
720.114	1077.91
720.301	1100.44
720.488	1092.25
720.676	1120.92
720.863	1116.83
721.05	1102.49
721.237	1110.68
721.424	1079.96
721.611	1112.73
721.798	963.23
721.985	1079.96
722.172	1069.72
722.358	1082.01
722.545	1088.15
722.732	1116.83
722.919	1016.48
723.106	1139.35
723.293	1086.11
723.48	1122.97
723.667	1161.88
723.853	1104.54
724.04	1049.24
724.227	940.7
724.414	1030.81
724.6	1016.48
724.787	998.04
724.974	1055.39
725.161	1041.05
725.347	1032.86
725.534	1024.67
725.72	993.95
725.907	1069.72
726.094	996
726.28	885.41
726.467	1002.14
726.653	944.8
726.84	996
727.027	1018.52
727.213	950.94
727.4	1000.09
727.586	942.75
727.773	942.75
727.959	969.37
728.145	1026.71
728.332	944.8
728.518	957.08
728.705	893.6
728.891	875.17
729.077	985.76
729.264	877.21
729.45	926.36
729.636	893.6
729.823	899.74
730.009	934.56
730.195	877.21
730.382	819.87
730.568	963.23
730.754	936.6
730.94	897.69
731.126	834.21
731.313	905.88
731.499	912.03
731.685	967.32
731.871	864.93
732.057	903.84
732.243	854.69
732.429	836.25
732.615	918.17
732.801	799.39
732.987	895.65
733.173	819.87
733.359	879.26
733.545	846.49
733.731	826.01
733.917	811.68
734.103	856.73
734.289	895.65
734.475	723.62
734.661	877.21
734.847	791.2
735.033	766.62
735.219	768.67
735.404	795.29
735.59	850.59
735.776	846.49
735.962	864.93
736.148	860.83
736.333	889.5
736.519	883.36
736.705	832.16
736.89	787.1
737.076	783.01
737.262	858.78
737.447	692.9
737.633	819.87
737.819	838.3
738.004	758.43
738.19	723.62
738.375	838.3
738.561	772.77
738.747	768.67
738.932	731.81
739.118	713.38
739.303	848.54
739.489	750.24
739.674	795.29
739.859	699.04
740.045	680.61
740.23	725.66
740.416	729.76
740.601	748.19
740.786	748.19
740.972	715.42
741.157	723.62
741.342	621.22
741.528	662.18
741.713	731.81
741.898	680.61
742.084	719.52
742.269	752.29
742.454	748.19
742.639	682.66
742.824	682.66
743.01	653.98
743.195	740
743.38	666.27
743.565	615.07
743.75	690.85
743.935	647.84
744.12	807.58
744.305	621.22
744.49	635.55
744.675	682.66
744.86	629.41
745.045	653.98
745.23	715.42
745.415	606.88
745.6	684.7
745.785	606.88
745.97	658.08
746.155	641.7
746.34	635.55
746.525	598.69
746.71	680.61
746.895	615.07
747.079	565.92
747.264	645.79
747.449	643.74
747.634	651.94
747.819	574.11
748.003	551.59
748.188	541.35
748.373	600.74
748.557	565.92
748.742	567.97
748.927	565.92
749.111	598.69
749.296	600.74
749.481	524.96
749.665	584.35
749.85	547.49
750.034	633.5
750.219	565.92
750.404	531.11
750.588	477.86
750.773	557.73
750.957	541.35
751.141	467.62
751.326	500.39
751.51	543.39
751.695	524.96
751.879	426.66
752.064	598.69
752.248	463.52
752.432	522.91
752.617	438.95
752.801	541.35
752.985	451.24
753.17	451.24
753.354	500.39
753.538	490.15
753.722	434.85
753.907	529.06
754.091	447.14
754.275	486.05
754.459	467.62
754.643	463.52
754.828	500.39
755.012	471.72
755.196	516.77
755.38	461.48
755.564	404.13
755.748	438.95
755.932	475.81
756.116	486.05
756.3	436.9
756.484	430.76
756.668	420.52
756.852	412.32
757.036	428.71
757.22	430.76
757.404	363.17
757.588	471.72
757.772	402.08
757.956	430.76
758.14	367.27
758.323	406.18
758.507	385.7
758.691	397.99
758.875	375.46
759.059	354.98
759.242	424.61
759.426	262.82
759.61	361.13
759.794	316.07
759.977	377.51
760.161	430.76
760.345	377.51
760.528	385.7
760.712	391.84
760.895	352.93
761.079	410.28
761.263	307.88
761.446	346.79
761.63	363.17
761.813	357.03
761.997	447.14
762.18	445.09
762.364	404.13
762.547	393.89
762.731	311.97
762.914	316.07
763.098	332.45
763.281	307.88
763.464	365.22
763.648	332.45
763.831	324.26
764.015	293.54
764.198	359.08
764.381	320.17
764.564	303.78
764.748	316.07
764.931	381.6
765.114	281.25
765.297	389.8
765.481	277.16
765.664	295.59
765.847	375.46
766.03	281.25
766.213	328.36
766.397	238.25
766.58	350.89
766.763	289.45
766.946	324.26
767.129	373.41
767.312	275.11
767.495	350.89
767.678	340.65
767.861	336.55
768.044	232.1
768.227	275.11
768.41	273.06
768.593	289.45
768.776	266.92
768.959	287.4
769.142	354.98
769.324	369.32
769.507	359.08
769.69	291.49
769.873	305.83
770.056	318.12
770.239	285.35
770.421	338.6
770.604	258.73
770.787	301.73
770.97	324.26
771.152	240.3
771.335	297.64
771.518	311.97
771.7	334.5
771.883	293.54
772.066	297.64
772.248	266.92
772.431	318.12
772.613	271.01
772.796	264.87
772.978	271.01
773.161	287.4
773.343	301.73
773.526	303.78
773.708	293.54
773.891	266.92
774.073	316.07
774.256	213.67
774.438	281.25
774.621	256.68
774.803	281.25
774.985	219.82
775.168	309.93
775.35	254.63
775.532	256.68
775.715	252.58
775.897	234.15
776.079	193.19
776.261	254.63
776.444	264.87
776.626	287.4
776.808	258.73
776.99	244.39
777.173	223.91
777.355	209.58
777.537	260.77
777.719	266.92
777.901	322.21
778.083	199.34
778.265	234.15
778.447	230.06
778.629	164.52
778.811	262.82
778.993	244.39
779.175	275.11
779.357	219.82
779.539	246.44
779.721	133.8
779.903	176.81
780.085	252.58
780.267	213.67
780.449	244.39
780.631	213.67
780.812	228.01
780.994	230.06
781.176	178.86
781.358	131.75
781.54	170.66
781.721	90.79
781.903	172.71
782.085	260.77
782.267	230.06
782.448	176.81
782.63	164.52
782.812	209.58
782.993	238.25
783.175	139.94
783.357	129.7
783.538	207.53
783.72	176.81
783.901	225.96
784.083	172.71
784.264	211.62
784.446	152.23
784.627	230.06
784.809	172.71
784.99	199.34
785.172	203.43
785.353	223.91
785.535	139.94
785.716	199.34
785.897	148.14
786.079	201.38
786.26	193.19
786.441	187.05
786.623	141.99
786.804	94.89
786.985	164.52
787.167	170.66
787.348	105.13
787.529	187.05
787.71	195.24
787.891	209.58
788.073	123.56
788.254	125.61
788.435	189.1
788.616	205.48
788.797	113.32
788.978	158.38
789.159	187.05
789.34	203.43
789.522	113.32
789.703	191.14
789.884	146.09
790.065	115.37
790.246	199.34
790.427	209.58
790.607	205.48
790.788	150.18
790.969	88.75
791.15	148.14
791.331	88.75
791.512	66.22
791.693	125.61
791.874	160.42
792.054	105.13
792.235	168.62
792.416	119.46
792.597	53.93
792.778	76.46
792.958	158.38
793.139	115.37
793.32	94.89
793.5	146.09
793.681	117.42
793.862	88.75
794.042	127.66
794.223	127.66
794.404	33.45
794.584	68.27
794.765	117.42
794.945	164.52
795.126	123.56
795.306	101.03
795.487	90.79
795.667	80.55
795.848	101.03
796.028	117.42
796.209	150.18
796.389	78.51
796.57	98.99
796.75	152.23
796.93	141.99
797.111	127.66
797.291	86.7
797.471	105.13
797.652	133.8
797.832	74.41
798.012	70.31
798.192	66.22
798.373	84.65
798.553	150.18
798.733	154.28
798.913	133.8
799.093	137.9
799.274	119.46
799.454	107.18
799.634	80.55
799.814	64.17
799.994	129.7
800.174	105.13
800.354	86.7
800.534	35.5
800.714	121.51
800.894	86.7
801.074	49.83
801.254	156.33
801.434	-3.41
801.614	55.98
801.794	96.94
801.974	283.3
802.154	78.51
802.334	101.03
802.514	35.5
802.693	127.66
802.873	158.38
803.053	107.18
803.233	62.12
803.413	129.7
803.592	35.5
803.772	129.7
803.952	58.03
804.131	107.18
804.311	115.37
804.491	72.36
804.67	105.13
804.85	66.22
805.03	66.22
805.209	82.6
805.389	35.5
805.568	88.75
805.748	74.41
805.928	27.31
806.107	74.41
806.287	31.4
806.466	103.08
806.646	76.46
806.825	43.69
807.004	72.36
807.184	76.46
807.363	199.34
807.543	80.55
807.722	109.23
807.901	55.98
808.081	123.56
808.26	58.03
808.439	47.79
808.619	64.17
808.798	66.22
808.977	150.18
809.156	125.61
809.336	109.23
809.515	84.65
809.694	37.55
809.873	74.41
810.052	53.93
810.231	101.03
810.411	90.79
810.59	117.42
810.769	90.79
810.948	39.59
811.127	76.46
811.306	-7.51
811.485	37.55
811.664	117.42
811.843	53.93
812.022	113.32
812.201	29.35
812.38	70.31
812.559	15.02
812.737	115.37
812.916	-7.51
813.095	25.26
813.274	105.13
813.453	58.03
813.632	86.7
813.811	158.38
813.989	35.5
814.168	37.55
814.347	2.73
814.526	115.37
814.704	90.79
814.883	76.46
815.062	-13.65
815.24	29.35
815.419	45.74
815.598	35.5
815.776	68.27
815.955	101.03
816.133	113.32
816.312	119.46
816.49	76.46
816.669	66.22
816.847	58.03
817.026	117.42
817.204	-13.65
817.383	94.89
817.561	0.68
817.74	17.07
817.918	39.59
818.097	86.7
818.275	15.02
818.453	-11.61
818.632	53.93
818.81	109.23
818.988	76.46
819.167	70.31
819.345	58.03
819.523	70.31
819.701	62.12
819.879	15.02
820.058	-21.85
820.236	82.6
820.414	15.02
820.592	31.4
820.77	55.98
820.948	6.83
821.127	17.07
821.305	74.41
821.483	35.5
821.661	49.83
821.839	-19.8
822.017	29.35
822.195	82.6
822.373	113.32
822.551	-7.51
822.729	78.51
822.907	-5.46
823.085	66.22
823.262	60.07
823.44	-17.75
823.618	49.83
823.796	31.4
823.974	43.69
824.152	94.89
824.329	37.55
824.507	90.79
824.685	12.97
824.863	107.18
825.04	4.78
825.218	29.35
825.396	90.79
825.574	74.41
825.751	107.18
825.929	4.78
826.107	6.83
826.284	51.88
826.462	6.83
826.639	49.83
826.817	31.4
826.994	17.07
827.172	66.22
827.349	60.07
827.527	66.22
827.704	43.69
827.882	31.4
828.059	43.69
828.237	10.92
828.414	27.31
828.591	70.31
828.769	80.55
828.946	25.26
829.124	148.14
829.301	82.6
829.478	58.03
829.655	101.03
829.833	53.93
830.01	49.83
830.187	27.31
830.364	-60.76
830.542	29.35
830.719	37.55
830.896	107.18
831.073	49.83
831.25	35.5
831.427	33.45
831.604	86.7
831.782	41.64
831.959	82.6
832.136	29.35
832.313	43.69
832.49	4.78
832.667	111.27
832.844	-17.75
833.021	76.46
833.198	-17.75
833.374	4.78
833.551	45.74
833.728	68.27
833.905	45.74
834.082	88.75
834.259	35.5
834.436	0.68
834.612	-13.65
834.789	19.11
834.966	53.93
835.143	29.35
835.319	53.93
835.496	-62.8
835.673	4.78
835.85	-21.85
836.026	2.73
836.203	90.79
836.38	58.03
836.556	41.64
836.733	25.26
836.909	12.97
837.086	-13.65
837.262	15.02
837.439	8.87
837.616	25.26
837.792	51.88
837.968	37.55
838.145	66.22
838.321	80.55
838.498	-7.51
838.674	47.79
838.851	53.93
839.027	10.92
839.203	39.59
839.38	58.03
839.556	12.97
839.732	101.03
839.909	-23.89
840.085	51.88
840.261	37.55
840.437	-1.37
840.614	27.31
840.79	2.73
840.966	17.07
841.142	23.21
841.318	0.68
841.494	41.64
841.671	78.51
841.847	51.88
842.023	10.92
842.199	-1.37
842.375	-25.94
842.551	62.12
842.727	41.64
842.903	62.12
843.079	10.92
843.255	72.36
843.431	-13.65
843.607	82.6
843.783	60.07
843.959	23.21
844.134	51.88
844.31	10.92
844.486	45.74
844.662	51.88
844.838	0.68
845.013	-27.99
845.189	-5.46
845.365	82.6
845.541	80.55
845.716	35.5
845.892	-13.65
846.068	15.02
846.244	35.5
846.419	4.78
846.595	49.83
846.77	37.55
846.946	51.88
847.122	4.78
847.297	60.07
847.473	-15.7
847.648	25.26
847.824	47.79
847.999	41.64
848.175	25.26
848.35	-44.37
848.526	-5.46
848.701	6.83
848.876	37.55
849.052	68.27
849.227	-13.65
849.403	15.02
849.578	0.68
849.753	27.31
849.929	84.65
850.104	19.11
850.279	17.07
850.454	66.22
850.63	-21.85
850.805	62.12
850.98	-32.08
851.155	41.64
851.33	2.73
851.505	35.5
851.681	68.27
851.856	12.97
852.031	23.21
852.206	15.02
852.381	-30.04
852.556	10.92
852.731	0.68
852.906	12.97
853.081	23.21
853.256	-1.37
853.431	35.5
853.606	-19.8
853.781	64.17
853.956	21.16
854.131	78.51
854.305	12.97
854.48	-11.61
854.655	19.11
854.83	86.7
855.005	2.73
855.18	86.7
855.354	-11.61
855.529	58.03
855.704	2.73
855.879	51.88
856.053	-27.99
856.228	-42.32
856.403	55.98
856.577	51.88
856.752	39.59
856.926	70.31
857.101	-40.28
857.276	-3.41
857.45	-36.18
857.625	4.78
857.799	27.31
857.974	39.59
858.148	10.92
858.323	0.68
858.497	19.11
858.672	6.83
858.846	15.02
859.02	115.37
859.195	8.87
859.369	58.03
859.543	17.07
859.718	2.73
859.892	41.64
860.066	-5.46
860.241	0.68
860.415	37.55
860.589	27.31
860.763	6.83
860.938	49.83
861.112	66.22
861.286	-46.42
861.46	-32.08
861.634	2.73
861.808	21.16
861.982	-27.99
862.157	68.27
862.331	0.68
862.505	0.68
862.679	49.83
862.853	17.07
863.027	-5.46
863.201	35.5
863.375	-5.46
863.549	-5.46
863.722	-21.85
863.896	19.11
864.07	-23.89
864.244	66.22
864.418	62.12
864.592	53.93
864.766	-17.75
864.939	64.17
865.113	-30.04
865.287	31.4
865.461	25.26
865.634	-1.37
865.808	27.31
865.982	-23.89
866.156	-32.08
866.329	8.87
866.503	78.51
866.676	21.16
866.85	-21.85
867.024	-11.61
867.197	27.31
867.371	98.99
867.544	-15.7
867.718	-5.46
867.891	12.97
868.065	6.83
868.238	10.92
868.412	92.84
868.585	-13.65
868.759	21.16
868.932	-5.46
869.105	-5.46
869.279	39.59
869.452	-32.08
869.625	0.68
869.799	66.22
869.972	105.13
870.145	27.31
870.319	6.83
870.492	51.88
870.665	27.31
870.838	94.89
871.011	41.64
871.185	-21.85
871.358	60.07
871.531	27.31
871.704	-30.04
871.877	55.98
872.05	-85.33
872.223	10.92
872.396	19.11
872.569	88.75
872.742	-5.46
872.915	10.92
873.088	0.68
873.261	-5.46
873.434	88.75
873.607	-11.61
873.78	-15.7
873.953	-27.99
874.126	-44.37
874.299	41.64
874.471	15.02
874.644	60.07
874.817	49.83
874.99	12.97
875.163	-13.65
875.335	84.65
875.508	12.97
875.681	98.99
875.853	53.93
876.026	-19.8
876.199	-15.7
876.371	-38.23
876.544	88.75
876.717	12.97
876.889	43.69
877.062	-27.99
877.234	19.11
877.407	23.21
877.579	17.07
877.752	33.45
877.924	17.07
878.097	-15.7
878.269	-7.51
878.442	29.35
878.614	-11.61
878.786	15.02
878.959	-3.41
879.131	-3.41
879.303	-13.65
879.476	-13.65
879.648	29.35
879.82	8.87
879.993	29.35
880.165	-5.46
880.337	-68.95
880.509	35.5
880.681	10.92
880.854	-15.7
881.026	62.12
881.198	21.16
881.37	49.83
881.542	4.78
881.714	35.5
881.886	15.02
882.058	125.61
882.23	-3.41
882.402	-54.61
882.574	31.4
882.746	76.46
882.918	-7.51
883.09	-34.13
883.262	-52.56
883.434	41.64
883.606	-73.04
883.778	-44.37
883.95	49.83
884.122	21.16
884.293	-17.75
884.465	35.5
884.637	-7.51
884.809	-71
884.98	4.78
885.152	-13.65
885.324	-32.08
885.496	-7.51
885.667	21.16
885.839	17.07
886.011	-23.89
886.182	-5.46
886.354	70.31
886.525	15.02
886.697	60.07
886.869	-23.89
887.04	41.64
887.212	25.26
887.383	-5.46
887.555	25.26
887.726	25.26
887.897	82.6
888.069	76.46
888.24	-11.61
888.412	33.45
888.583	-13.65
888.754	-36.18
888.926	49.83
889.097	-3.41
889.268	27.31
889.44	-25.94
889.611	8.87
889.782	74.41
889.953	-19.8
890.125	-36.18
890.296	-13.65
890.467	0.68
890.638	6.83
890.809	82.6
890.98	-19.8
891.151	45.74
891.323	33.45
891.494	60.07
891.665	12.97
891.836	41.64
892.007	12.97
892.178	23.21
892.349	-30.04
892.52	-15.7
892.691	-7.51
892.862	31.4
893.032	-81.24
893.203	62.12
893.374	-11.61
893.545	82.6
893.716	6.83
893.887	64.17
894.057	60.07
894.228	2.73
894.399	-38.23
894.57	25.26
894.74	-40.28
894.911	25.26
895.082	-71
895.253	17.07
895.423	49.83
895.594	-15.7
895.764	66.22
895.935	-9.56
896.106	-32.08
896.276	-13.65
896.447	-21.85
896.617	10.92
896.788	35.5
896.958	-19.8
897.129	-42.32
897.299	66.22
897.47	0.68
897.64	62.12
897.81	39.59
897.981	29.35
898.151	-38.23
898.322	-19.8
898.492	39.59
898.662	10.92
898.832	-46.42
899.003	15.02
899.173	10.92
899.343	-48.47
899.513	0.68
