Data from USB4F104151__51__13-53-28-857.txt Node

Date: Thu Mar 13 13:53:28 EDT 2025
User: louis
Spectrometer: USB4F10415
Trigger mode: 4
Integration Time (sec): 1.000000E-2
Scans to average: 1
Electric dark correction enabled: true
Nonlinearity correction enabled: false
Boxcar width: 0
XAxis mode: Wavelengths
Number of Pixels in Spectrum: 3648
>>>>>Begin Spectral Data<<<<<
178.204	-34.99
178.424	-34.99
178.644	-34.99
178.864	-26.79
179.084	-45.23
179.304	-20.65
179.524	18.26
179.744	48.98
179.964	-22.7
180.184	81.75
180.404	-10.41
180.624	-10.41
180.844	-4.27
181.064	-53.42
181.283	-26.79
181.503	8.02
181.723	-8.36
181.943	-61.61
182.163	-47.27
182.383	3.93
182.602	-4.27
182.822	-2.22
183.042	-22.7
183.262	12.12
183.482	24.4
183.701	-37.03
183.921	-24.75
184.141	-6.31
184.361	12.12
184.58	-26.79
184.8	53.08
185.02	38.74
185.239	8.02
185.459	-12.46
185.679	98.13
185.898	1.88
186.118	55.12
186.338	-4.27
186.557	-43.18
186.777	18.26
186.997	-45.23
187.216	63.32
187.436	-0.17
187.655	20.31
187.875	3.93
188.095	12.12
188.314	-63.66
188.534	30.55
188.753	32.6
188.973	-4.27
189.192	-6.31
189.412	-2.22
189.631	16.21
189.851	102.23
190.07	-16.55
190.29	-4.27
190.509	26.45
190.729	40.79
190.948	-22.7
191.168	67.41
191.387	75.6
191.607	-32.94
191.826	38.74
192.045	-0.17
192.265	14.17
192.484	73.56
192.704	-4.27
192.923	14.17
193.142	59.22
193.362	-45.23
193.581	63.32
193.8	30.55
194.02	-20.65
194.239	36.69
194.458	-18.6
194.678	46.93
194.897	46.93
195.116	8.02
195.335	65.36
195.555	69.46
195.774	20.31
195.993	20.31
196.212	-24.75
196.432	3.93
196.651	75.6
196.87	12.12
197.089	18.26
197.308	10.07
197.528	48.98
197.747	12.12
197.966	5.97
198.185	-24.75
198.404	12.12
198.623	-22.7
198.842	26.45
199.062	34.64
199.281	16.21
199.5	-34.99
199.719	34.64
199.938	1.88
200.157	71.51
200.376	-4.27
200.595	67.41
200.814	-22.7
201.033	8.02
201.252	-41.13
201.471	-4.27
201.69	44.88
201.909	8.02
202.128	42.84
202.347	38.74
202.566	63.32
202.785	-26.79
203.004	-41.13
203.223	24.4
203.442	46.93
203.661	87.89
203.879	-45.23
204.098	18.26
204.317	-18.6
204.536	-43.18
204.755	1.88
204.974	53.08
205.193	77.65
205.411	26.45
205.63	16.21
205.849	12.12
206.068	-86.19
206.287	5.97
206.505	-45.23
206.724	12.12
206.943	77.65
207.162	26.45
207.381	-30.89
207.599	10.07
207.818	63.32
208.037	-8.36
208.255	8.02
208.474	71.51
208.693	48.98
208.911	22.36
209.13	24.4
209.349	10.07
209.567	-73.9
209.786	-0.17
210.005	-12.46
210.223	-0.17
210.442	77.65
210.661	24.4
210.879	3.93
211.098	22.36
211.316	-26.79
211.535	94.04
211.753	20.31
211.972	51.03
212.191	-28.84
212.409	-8.36
212.628	-22.7
212.846	18.26
213.065	-20.65
213.283	57.17
213.502	-14.51
213.72	1.88
213.938	16.21
214.157	16.21
214.375	73.56
214.594	-12.46
214.812	-4.27
215.031	44.88
215.249	-14.51
215.467	36.69
215.686	67.41
215.904	30.55
216.122	12.12
216.341	73.56
216.559	-20.65
216.778	69.46
216.996	59.22
217.214	32.6
217.432	-10.41
217.651	-12.46
217.869	-37.03
218.087	16.21
218.306	5.97
218.524	5.97
218.742	-20.65
218.96	-8.36
219.179	65.36
219.397	75.6
219.615	32.6
219.833	8.02
220.051	-39.08
220.27	26.45
220.488	69.46
220.706	26.45
220.924	-24.75
221.142	-22.7
221.36	18.26
221.578	38.74
221.796	3.93
222.015	14.17
222.233	14.17
222.451	-22.7
222.669	14.17
222.887	63.32
223.105	32.6
223.323	38.74
223.541	18.26
223.759	67.41
223.977	-71.85
224.195	-14.51
224.413	61.27
224.631	-61.61
224.849	18.26
225.067	3.93
225.285	-16.55
225.503	5.97
225.721	-14.51
225.939	10.07
226.157	32.6
226.375	34.64
226.592	-69.8
226.81	104.28
227.028	34.64
227.246	79.7
227.464	-26.79
227.682	69.46
227.9	-6.31
228.117	-8.36
228.335	-59.56
228.553	65.36
228.771	-12.46
228.989	48.98
229.206	71.51
229.424	38.74
229.642	-2.22
229.86	71.51
230.077	63.32
230.295	51.03
230.513	26.45
230.731	61.27
230.948	57.17
231.166	38.74
231.384	30.55
231.601	51.03
231.819	61.27
232.037	69.46
232.254	20.31
232.472	8.02
232.689	24.4
232.907	51.03
233.125	42.84
233.342	18.26
233.56	-12.46
233.777	18.26
233.995	10.07
234.213	63.32
234.43	40.79
234.648	-28.84
234.865	24.4
235.083	40.79
235.3	26.45
235.518	-2.22
235.735	-51.37
235.953	24.4
236.17	36.69
236.388	-6.31
236.605	-0.17
236.822	57.17
237.04	28.5
237.257	12.12
237.475	-8.36
237.692	34.64
237.909	34.64
238.127	18.26
238.344	-37.03
238.562	-10.41
238.779	-6.31
238.996	10.07
239.214	-20.65
239.431	53.08
239.648	-10.41
239.865	18.26
240.083	-20.65
240.3	100.18
240.517	-10.41
240.735	69.46
240.952	65.36
241.169	18.26
241.386	12.12
241.603	12.12
241.821	94.04
242.038	34.64
242.255	8.02
242.472	18.26
242.689	57.17
242.907	89.94
243.124	53.08
243.341	69.46
243.558	14.17
243.775	-4.27
243.992	32.6
244.209	51.03
244.426	55.12
244.643	18.26
244.86	-16.55
245.078	44.88
245.295	-18.6
245.512	-39.08
245.729	10.07
245.946	46.93
246.163	10.07
246.38	-18.6
246.597	59.22
246.814	30.55
247.031	48.98
247.248	-22.7
247.464	-8.36
247.681	26.45
247.898	8.02
248.115	51.03
248.332	51.03
248.549	16.21
248.766	18.26
248.983	81.75
249.2	53.08
249.417	-20.65
249.633	28.5
249.85	44.88
250.067	12.12
250.284	-0.17
250.501	10.07
250.717	46.93
250.934	63.32
251.151	-51.37
251.368	51.03
251.585	28.5
251.801	16.21
252.018	83.8
252.235	40.79
252.451	48.98
252.668	-43.18
252.885	-28.84
253.102	-8.36
253.318	-16.55
253.535	-53.42
253.752	-6.31
253.968	14.17
254.185	-20.65
254.401	46.93
254.618	3.93
254.835	40.79
255.051	-4.27
255.268	53.08
255.484	59.22
255.701	38.74
255.917	53.08
256.134	22.36
256.351	44.88
256.567	53.08
256.784	28.5
257	-28.84
257.217	71.51
257.433	5.97
257.65	8.02
257.866	81.75
258.082	-26.79
258.299	44.88
258.515	24.4
258.732	-12.46
258.948	1.88
259.165	116.56
259.381	-14.51
259.597	57.17
259.814	94.04
260.03	-10.41
260.246	3.93
260.463	44.88
260.679	59.22
260.895	18.26
261.112	40.79
261.328	-32.94
261.544	-10.41
261.761	89.94
261.977	12.12
262.193	51.03
262.409	-37.03
262.626	42.84
262.842	53.08
263.058	14.17
263.274	5.97
263.49	22.36
263.707	61.27
263.923	-30.89
264.139	-8.36
264.355	40.79
264.571	81.75
264.787	40.79
265.004	-2.22
265.22	73.56
265.436	24.4
265.652	22.36
265.868	22.36
266.084	71.51
266.3	32.6
266.516	81.75
266.732	-20.65
266.948	14.17
267.164	8.02
267.38	12.12
267.596	8.02
267.812	-71.85
268.028	-0.17
268.244	38.74
268.46	34.64
268.676	57.17
268.892	26.45
269.108	-24.75
269.324	14.17
269.54	-24.75
269.756	30.55
269.972	-12.46
270.188	-37.03
270.403	-47.27
270.619	75.6
270.835	-55.47
271.051	118.61
271.267	69.46
271.483	-4.27
271.698	48.98
271.914	-30.89
272.13	73.56
272.346	24.4
272.562	46.93
272.777	32.6
272.993	44.88
273.209	24.4
273.425	77.65
273.64	48.98
273.856	48.98
274.072	59.22
274.287	34.64
274.503	48.98
274.719	28.5
274.934	75.6
275.15	16.21
275.366	20.31
275.581	53.08
275.797	-49.32
276.012	71.51
276.228	-4.27
276.444	-0.17
276.659	87.89
276.875	-32.94
277.09	53.08
277.306	38.74
277.521	-61.61
277.737	34.64
277.952	69.46
278.168	34.64
278.383	73.56
278.599	-20.65
278.814	42.84
279.03	53.08
279.245	34.64
279.461	53.08
279.676	30.55
279.892	10.07
280.107	5.97
280.322	51.03
280.538	32.6
280.753	-57.51
280.969	46.93
281.184	-14.51
281.399	79.7
281.615	30.55
281.83	8.02
282.045	14.17
282.26	-4.27
282.476	75.6
282.691	-39.08
282.906	5.97
283.122	61.27
283.337	1.88
283.552	12.12
283.767	81.75
283.983	75.6
284.198	122.71
284.413	116.56
284.628	-8.36
284.843	81.75
285.058	5.97
285.274	46.93
285.489	53.08
285.704	-28.84
285.919	-32.94
286.134	14.17
286.349	5.97
286.564	-53.42
286.779	-8.36
286.995	-32.94
287.21	38.74
287.425	-0.17
287.64	-30.89
287.855	-0.17
288.07	12.12
288.285	46.93
288.5	-34.99
288.715	-10.41
288.93	87.89
289.145	61.27
289.36	8.02
289.575	40.79
289.79	81.75
290.004	28.5
290.219	61.27
290.434	12.12
290.649	30.55
290.864	8.02
291.079	-4.27
291.294	108.37
291.509	-30.89
291.724	71.51
291.938	-0.17
292.153	10.07
292.368	87.89
292.583	26.45
292.798	38.74
293.012	32.6
293.227	71.51
293.442	36.69
293.657	38.74
293.871	91.99
294.086	67.41
294.301	12.12
294.516	8.02
294.73	108.37
294.945	-0.17
295.16	-55.47
295.374	36.69
295.589	16.21
295.804	-2.22
296.018	-10.41
296.233	-10.41
296.447	28.5
296.662	-39.08
296.877	36.69
297.091	-18.6
297.306	10.07
297.52	30.55
297.735	12.12
297.949	34.64
298.164	36.69
298.378	22.36
298.593	-20.65
298.807	-32.94
299.022	-30.89
299.236	55.12
299.451	-43.18
299.665	-51.37
299.88	-8.36
300.094	51.03
300.309	1.88
300.523	102.23
300.737	-20.65
300.952	-16.55
301.166	36.69
301.381	-16.55
301.595	-10.41
301.809	85.84
302.024	26.45
302.238	71.51
302.452	-20.65
302.667	-0.17
302.881	57.17
303.095	12.12
303.309	-34.99
303.524	46.93
303.738	104.28
303.952	-41.13
304.166	42.84
304.381	36.69
304.595	40.79
304.809	14.17
305.023	91.99
305.237	-28.84
305.452	18.26
305.666	48.98
305.88	28.5
306.094	104.28
306.308	-12.46
306.522	-34.99
306.736	75.6
306.95	46.93
307.164	-0.17
307.379	38.74
307.593	77.65
307.807	38.74
308.021	-2.22
308.235	16.21
308.449	42.84
308.663	16.21
308.877	1.88
309.091	61.27
309.305	18.26
309.519	59.22
309.733	36.69
309.947	18.26
310.161	-18.6
310.374	-30.89
310.588	91.99
310.802	44.88
311.016	44.88
311.23	14.17
311.444	20.31
311.658	55.12
311.872	42.84
312.085	48.98
312.299	8.02
312.513	-4.27
312.727	46.93
312.941	14.17
313.154	40.79
313.368	20.31
313.582	71.51
313.796	-18.6
314.009	-8.36
314.223	-53.42
314.437	53.08
314.651	53.08
314.864	-43.18
315.078	77.65
315.292	26.45
315.505	-4.27
315.719	16.21
315.933	16.21
316.146	44.88
316.36	91.99
316.573	46.93
316.787	22.36
317.001	5.97
317.214	12.12
317.428	-6.31
317.641	-43.18
317.855	44.88
318.068	59.22
318.282	18.26
318.495	65.36
318.709	14.17
318.922	14.17
319.136	14.17
319.349	77.65
319.563	-2.22
319.776	110.42
319.99	-2.22
320.203	28.5
320.417	69.46
320.63	38.74
320.843	65.36
321.057	28.5
321.27	61.27
321.483	-26.79
321.697	55.12
321.91	10.07
322.124	18.26
322.337	57.17
322.55	1.88
322.763	16.21
322.977	65.36
323.19	-10.41
323.403	44.88
323.617	-8.36
323.83	77.65
324.043	32.6
324.256	63.32
324.469	10.07
324.683	-8.36
324.896	3.93
325.109	44.88
325.322	-18.6
325.535	87.89
325.748	67.41
325.962	12.12
326.175	-30.89
326.388	122.71
326.601	-4.27
326.814	8.02
327.027	-18.6
327.24	8.02
327.453	1.88
327.666	12.12
327.879	-24.75
328.092	20.31
328.305	-32.94
328.518	14.17
328.731	3.93
328.944	-39.08
329.157	5.97
329.37	-43.18
329.583	30.55
329.796	59.22
330.009	69.46
330.222	77.65
330.435	83.8
330.648	18.26
330.861	77.65
331.073	67.41
331.286	30.55
331.499	87.89
331.712	-22.7
331.925	28.5
332.138	42.84
332.35	114.52
332.563	-20.65
332.776	59.22
332.989	40.79
333.202	-55.47
333.414	22.36
333.627	44.88
333.84	83.8
334.053	5.97
334.265	12.12
334.478	53.08
334.691	-0.17
334.903	8.02
335.116	-16.55
335.329	-2.22
335.541	26.45
335.754	116.56
335.966	-10.41
336.179	67.41
336.392	-43.18
336.604	69.46
336.817	94.04
337.029	22.36
337.242	-41.13
337.454	61.27
337.667	71.51
337.88	87.89
338.092	65.36
338.305	53.08
338.517	-55.47
338.729	57.17
338.942	73.56
339.154	40.79
339.367	46.93
339.579	8.02
339.792	40.79
340.004	65.36
340.217	24.4
340.429	14.17
340.641	-14.51
340.854	44.88
341.066	-24.75
341.278	26.45
341.491	-10.41
341.703	-4.27
341.915	5.97
342.128	34.64
342.34	65.36
342.552	75.6
342.764	110.42
342.977	-4.27
343.189	34.64
343.401	44.88
343.613	5.97
343.826	26.45
344.038	42.84
344.25	-22.7
344.462	-14.51
344.674	36.69
344.886	-12.46
345.099	42.84
345.311	51.03
345.523	108.37
345.735	59.22
345.947	87.89
346.159	63.32
346.371	-69.8
346.583	-2.22
346.795	48.98
347.007	34.64
347.219	-8.36
347.431	46.93
347.643	73.56
347.855	48.98
348.067	44.88
348.279	12.12
348.491	26.45
348.703	20.31
348.915	-10.41
349.127	-22.7
349.339	-8.36
349.551	32.6
349.763	38.74
349.975	42.84
350.187	-28.84
350.399	34.64
350.61	18.26
350.822	-18.6
351.034	73.56
351.246	87.89
351.458	59.22
351.669	69.46
351.881	-24.75
352.093	46.93
352.305	77.65
352.517	34.64
352.728	28.5
352.94	79.7
353.152	73.56
353.363	-30.89
353.575	-8.36
353.787	-18.6
353.999	22.36
354.21	20.31
354.422	44.88
354.633	16.21
354.845	-20.65
355.057	-8.36
355.268	141.14
355.48	40.79
355.692	65.36
355.903	61.27
356.115	65.36
356.326	46.93
356.538	34.64
356.749	5.97
356.961	46.93
357.172	-12.46
357.384	-20.65
357.595	51.03
357.807	34.64
358.018	85.84
358.23	61.27
358.441	-10.41
358.653	12.12
358.864	-20.65
359.075	57.17
359.287	89.94
359.498	51.03
359.709	12.12
359.921	40.79
360.132	55.12
360.344	22.36
360.555	48.98
360.766	34.64
360.977	-8.36
361.189	40.79
361.4	102.23
361.611	137.04
361.823	34.64
362.034	26.45
362.245	40.79
362.456	67.41
362.667	46.93
362.879	44.88
363.09	10.07
363.301	81.75
363.512	-34.99
363.723	44.88
363.935	-47.27
364.146	55.12
364.357	-14.51
364.568	-18.6
364.779	79.7
364.99	104.28
365.201	51.03
365.412	83.8
365.623	12.12
365.834	51.03
366.045	77.65
366.256	20.31
366.467	14.17
366.678	-61.61
366.889	-47.27
367.1	57.17
367.311	46.93
367.522	61.27
367.733	1.88
367.944	59.22
368.155	-2.22
368.366	26.45
368.577	63.32
368.788	59.22
368.999	83.8
369.209	-18.6
369.42	10.07
369.631	28.5
369.842	40.79
370.053	36.69
370.264	16.21
370.474	-10.41
370.685	-51.37
370.896	75.6
371.107	36.69
371.317	48.98
371.528	55.12
371.739	24.4
371.95	20.31
372.16	77.65
372.371	51.03
372.582	5.97
372.792	89.94
373.003	77.65
373.214	-0.17
373.424	-8.36
373.635	14.17
373.846	67.41
374.056	53.08
374.267	36.69
374.477	24.4
374.688	40.79
374.898	28.5
375.109	55.12
375.319	38.74
375.53	48.98
375.74	-8.36
375.951	42.84
376.161	28.5
376.372	75.6
376.582	20.31
376.793	40.79
377.003	-26.79
377.214	20.31
377.424	28.5
377.635	3.93
377.845	85.84
378.055	110.42
378.266	57.17
378.476	77.65
378.686	42.84
378.897	53.08
379.107	118.61
379.317	36.69
379.528	51.03
379.738	18.26
379.948	69.46
380.158	55.12
380.369	38.74
380.579	71.51
380.789	8.02
380.999	48.98
381.21	55.12
381.42	124.76
381.63	32.6
381.84	20.31
382.05	16.21
382.261	44.88
382.471	65.36
382.681	65.36
382.891	20.31
383.101	63.32
383.311	20.31
383.521	24.4
383.731	87.89
383.941	-26.79
384.151	46.93
384.361	-22.7
384.571	32.6
384.781	32.6
384.991	87.89
385.201	85.84
385.411	-6.31
385.621	104.28
385.831	57.17
386.041	22.36
386.251	12.12
386.461	26.45
386.671	55.12
386.881	67.41
387.091	96.08
387.301	81.75
387.511	73.56
387.72	118.61
387.93	46.93
388.14	53.08
388.35	42.84
388.56	-0.17
388.769	48.98
388.979	34.64
389.189	-0.17
389.399	96.08
389.609	77.65
389.818	110.42
390.028	75.6
390.238	34.64
390.447	53.08
390.657	28.5
390.867	18.26
391.076	65.36
391.286	28.5
391.496	100.18
391.705	18.26
391.915	124.76
392.125	77.65
392.334	-18.6
392.544	-14.51
392.753	85.84
392.963	12.12
393.172	98.13
393.382	75.6
393.591	32.6
393.801	73.56
394.01	67.41
394.22	67.41
394.429	65.36
394.639	20.31
394.848	40.79
395.058	83.8
395.267	61.27
395.477	38.74
395.686	91.99
395.895	1.88
396.105	46.93
396.314	85.84
396.524	59.22
396.733	77.65
396.942	48.98
397.152	98.13
397.361	34.64
397.57	34.64
397.78	61.27
397.989	106.32
398.198	100.18
398.407	51.03
398.617	89.94
398.826	63.32
399.035	85.84
399.244	139.09
399.453	67.41
399.663	108.37
399.872	81.75
400.081	122.71
400.29	51.03
400.499	110.42
400.708	110.42
400.917	87.89
401.127	116.56
401.336	77.65
401.545	120.66
401.754	96.08
401.963	87.89
402.172	36.69
402.381	89.94
402.59	87.89
402.799	16.21
403.008	163.67
403.217	77.65
403.426	100.18
403.635	89.94
403.844	73.56
404.053	145.24
404.262	57.17
404.471	53.08
404.68	59.22
404.888	149.33
405.097	10.07
405.306	100.18
405.515	75.6
405.724	108.37
405.933	73.56
406.142	79.7
406.35	184.15
406.559	85.84
406.768	141.14
406.977	163.67
407.185	141.14
407.394	65.36
407.603	77.65
407.812	89.94
408.02	120.66
408.229	190.29
408.438	169.81
408.646	182.1
408.855	132.95
409.064	106.32
409.272	182.1
409.481	165.71
409.69	141.14
409.898	126.8
410.107	194.39
410.315	182.1
410.524	266.07
410.733	202.58
410.941	304.98
411.15	165.71
411.358	223.06
411.567	257.87
411.775	243.54
411.984	253.78
412.192	212.82
412.401	307.02
412.609	339.79
412.818	286.54
413.026	358.22
413.234	327.5
413.443	280.4
413.651	376.66
413.86	298.83
414.068	393.04
414.276	401.23
414.485	401.23
414.693	446.29
414.901	520.01
415.11	444.24
415.318	481.1
415.526	528.21
415.734	472.91
415.943	538.45
416.151	487.25
416.359	503.63
416.567	585.55
416.776	511.82
416.984	546.64
417.192	669.52
417.4	642.89
417.608	526.16
417.817	646.99
418.025	636.75
418.233	663.37
418.441	671.56
418.649	722.76
418.857	862.02
419.065	833.35
419.273	843.59
419.481	851.78
419.689	913.22
419.897	956.23
420.105	866.12
420.313	923.46
420.521	980.81
420.729	1048.39
420.937	1019.72
421.145	1099.59
421.353	1146.69
421.561	1173.32
421.769	1158.98
421.977	1191.75
422.185	1236.8
422.393	1304.39
422.601	1498.94
422.809	1343.3
423.017	1382.21
423.224	1478.46
423.432	1523.52
423.64	1511.23
423.848	1646.4
424.056	1593.15
424.263	1824.57
424.471	1750.84
424.679	1875.77
424.887	1881.91
425.094	1965.88
425.302	1916.73
425.51	1933.11
425.718	2142
425.925	2088.76
426.133	2174.77
426.341	2381.62
426.548	2383.66
426.756	2531.12
426.964	2563.89
427.171	2629.42
427.379	2637.61
427.586	2764.59
427.794	2750.25
428.001	2789.16
428.209	2934.57
428.417	2850.6
428.624	3196.71
428.832	3153.7
429.039	3186.47
429.247	3217.19
429.454	3473.18
429.662	3704.6
429.869	3432.22
430.076	3690.27
430.284	3653.41
430.491	3747.61
430.699	3983.13
430.906	3981.08
431.114	3995.42
431.321	4210.45
431.528	4220.69
431.736	4566.8
431.943	4759.31
432.15	4523.79
432.358	4642.57
432.565	4923.15
432.772	4998.92
432.979	4988.68
433.187	5306.12
433.394	5342.98
433.601	5547.78
433.808	5676.8
434.016	5564.16
434.223	5809.92
434.43	6162.17
434.637	6123.26
434.844	6383.35
435.052	6387.44
435.259	6504.18
435.466	6551.28
435.673	6358.77
435.88	6915.82
436.087	7196.39
436.294	7356.13
436.501	7128.81
436.708	7349.99
436.915	7382.76
437.122	7810.78
437.329	7798.49
437.537	7991
437.743	8265.43
437.95	8144.6
438.157	8445.65
438.364	8715.98
438.571	8771.28
438.778	8687.31
438.985	9559.75
439.192	9207.5
439.399	9475.78
439.606	9330.37
439.813	9987.77
440.02	10352.31
440.227	10497.72
440.433	10051.26
440.64	10534.58
440.847	10669.75
441.054	10780.34
441.261	11556.52
441.467	11263.66
441.674	11556.52
441.881	11896.48
442.088	11746.98
442.294	11951.77
442.501	12283.55
442.708	12480.15
442.914	12754.58
443.121	13315.72
443.328	13221.52
443.534	14102.14
443.741	13569.67
443.948	13569.67
444.154	14495.35
444.361	14411.39
444.568	14564.98
444.774	14505.59
444.981	14605.94
445.187	14921.33
445.394	15482.47
445.6	15330.92
445.807	16993.87
446.013	15937.12
446.22	16549.46
446.426	17071.7
446.633	17141.33
446.839	17946.18
447.046	17098.32
447.252	17843.78
447.459	18007.62
447.665	18187.84
447.871	18720.31
448.078	19705.38
448.284	18439.74
448.491	18890.29
448.697	19787.3
448.903	19828.26
449.11	20268.58
449.316	20094.5
449.522	19955.24
449.728	20624.92
449.935	20727.32
450.141	20749.85
450.347	21161.49
450.553	20366.88
450.76	20827.67
450.966	21657.1
451.172	21177.87
451.378	21671.43
451.584	21421.58
451.791	21796.36
451.997	21548.56
452.203	21986.82
452.409	22119.94
452.615	21820.94
452.821	21095.96
453.027	20932.12
453.233	21921.29
453.44	21028.37
453.646	21347.86
453.852	21315.09
454.058	21306.9
454.264	20966.93
454.47	21413.39
454.676	20770.33
454.882	21483.02
455.088	19637.8
455.294	20057.64
455.5	20002.34
455.705	20176.42
455.911	19504.68
456.117	19136.05
456.323	18986.55
456.529	17835.59
456.735	18658.87
456.941	17989.19
457.147	17866.31
457.352	17147.47
457.558	17143.38
457.764	17122.9
457.97	16664.15
458.176	16238.17
458.381	16547.42
458.587	15427.18
458.793	15738.47
458.999	14687.86
459.204	15646.31
459.41	15230.57
459.616	14556.79
459.821	14485.11
460.027	14245.5
460.233	13950.59
460.438	13315.72
460.644	13389.45
460.85	12967.57
461.055	12842.64
461.261	12676.76
461.466	11783.84
461.672	11255.47
461.878	12160.67
462.083	11175.59
462.289	11202.22
462.494	11062.96
462.7	10514.1
462.905	10256.06
463.111	10497.72
463.316	10616.5
463.522	10520.24
463.727	10563.25
463.932	10395.32
464.138	10448.57
464.343	10380.98
464.549	9981.63
464.754	10475.19
464.959	10403.51
465.165	10256.06
465.37	9619.14
465.575	9565.89
465.781	9973.44
465.986	10055.36
466.191	9637.57
466.397	9461.44
466.602	8840.91
466.807	9445.06
467.012	9524.93
467.218	9531.08
467.423	9236.17
467.628	9256.65
467.833	9750.21
468.038	9240.26
468.244	9131.72
468.449	9711.3
468.654	8974.03
468.859	8971.98
469.064	9070.28
469.269	8769.23
469.474	8838.86
469.679	8795.86
469.885	8722.13
470.09	8900.3
470.295	8632.02
470.5	8527.57
470.705	8455.89
470.91	8298.2
471.115	8242.9
471.32	8330.97
471.525	8371.93
471.73	8025.82
471.935	8042.2
472.139	7849.69
472.344	7894.75
472.549	7818.97
472.754	7751.39
472.959	7401.19
473.164	7319.27
473.369	7259.88
473.574	7501.54
473.778	7374.56
473.983	7407.33
474.188	7548.64
474.393	7278.31
474.598	7087.85
474.802	7106.28
475.007	7059.18
475.212	7096.04
475.417	6901.48
475.621	6749.93
475.826	6758.13
476.031	6774.51
476.235	6426.36
476.44	6653.68
476.645	6668.02
476.849	6602.48
477.054	6434.55
477.259	6348.53
477.463	6188.79
477.668	6184.69
477.872	6389.49
478.077	6313.72
478.282	6002.43
478.486	5998.33
478.691	6010.62
478.895	6143.74
479.1	5832.44
479.304	5748.48
479.509	5791.48
479.713	5799.68
479.918	5758.72
480.122	5678.85
480.326	5820.16
480.531	5760.77
480.735	5648.13
480.94	5627.65
481.144	5771.01
481.348	5519.11
481.553	5547.78
481.757	5463.81
481.961	5662.46
482.166	5613.31
482.37	5603.07
482.574	5433.09
482.778	5486.34
482.983	5584.64
483.187	5478.15
483.391	5555.97
483.595	5457.67
483.8	5414.66
484.004	5551.87
484.208	5453.57
484.412	5385.99
484.616	5545.73
484.821	5527.3
485.025	5523.2
485.229	5568.26
485.433	5402.37
485.637	5486.34
485.841	5504.77
486.045	5351.17
486.249	5496.58
486.453	5445.38
486.657	5474.05
486.861	5588.74
487.065	5408.51
487.269	5650.18
487.473	5412.61
487.677	5390.08
487.881	5515.01
488.085	5398.27
488.289	5531.39
488.493	5390.08
488.697	5435.14
488.901	5680.89
489.105	5543.68
489.309	5560.06
489.512	5596.93
489.716	5627.65
489.92	5627.65
490.124	5611.26
490.328	5672.7
490.531	5695.23
490.735	5680.89
490.939	5746.43
491.143	5455.62
491.346	5719.81
491.55	5779.2
491.754	5707.52
491.958	5838.59
492.161	5781.25
492.365	5801.72
492.569	5789.44
492.772	5805.82
492.976	5994.23
493.18	6037.24
493.383	5918.46
493.587	5930.75
493.79	6000.38
493.994	5887.74
494.197	6096.63
494.401	6215.41
494.605	6285.05
494.808	6190.84
495.012	6248.18
495.215	6242.04
495.419	6461.17
495.622	6399.73
495.825	6518.51
496.029	6442.74
496.232	6561.52
496.436	6582
496.639	6790.89
496.843	6749.93
497.046	6868.72
497.249	6852.33
497.453	6876.91
497.656	6858.48
497.859	7085.8
498.063	7030.51
498.266	7288.55
498.469	7280.36
498.673	7395.04
498.876	7468.77
499.079	7470.82
499.282	7427.81
499.485	7833.31
499.689	7714.53
499.892	7821.02
500.095	7958.24
500.298	7954.14
500.501	8001.24
500.705	8263.38
500.908	8367.83
501.111	8257.24
501.314	8572.63
501.517	8615.63
501.72	8789.71
501.923	8685.26
502.126	8832.72
502.329	8990.41
502.532	9101
502.735	9002.7
502.938	9287.37
503.141	9357
503.344	9471.68
503.547	9553.6
503.75	9924.29
503.953	9756.35
504.156	9877.18
504.359	9965.25
504.562	10012.35
504.765	10196.67
504.968	10491.57
505.17	10553.01
505.373	10659.51
505.576	10682.03
505.779	10817.2
505.982	10989.23
506.185	11103.92
506.387	11124.4
506.59	11253.42
506.793	11712.16
506.996	11474.6
507.198	11941.54
507.401	11781.79
507.604	11759.27
507.807	12154.52
508.009	12318.36
508.212	12263.07
508.415	12486.29
508.617	12641.94
508.82	12764.82
509.022	12930.7
509.225	13006.48
509.428	13244.04
509.63	13282.95
509.833	13145.74
510.035	13430.41
510.238	13680.26
510.44	13895.3
510.643	13995.65
510.845	14292.6
511.048	14098.05
511.25	14517.88
511.453	14485.11
511.655	14941.81
511.858	14851.7
512.06	14808.69
512.262	15263.34
512.465	15214.19
512.667	15521.38
512.87	15674.98
513.072	15681.13
513.274	16023.14
513.477	16180.83
513.679	16524.89
513.881	16303.71
514.084	16711.25
514.286	16703.06
514.488	16899.67
514.69	17315.41
514.893	17270.35
515.095	17669.7
515.297	17679.94
515.499	17520.2
515.701	17983.04
515.904	18122.3
516.106	18167.36
516.308	18433.6
516.51	18998.84
516.712	18804.28
516.914	19068.47
517.116	19408.43
517.318	19576.36
517.52	19510.83
517.722	19703.34
517.925	19904.04
518.127	20258.34
518.329	20358.69
518.531	20291.1
518.733	20626.97
518.935	20737.56
519.136	20932.12
519.338	21102.1
519.54	21399.05
519.742	21575.18
519.944	21593.61
520.146	22140.42
520.348	21841.42
520.55	22334.98
520.752	22593.02
520.954	22791.67
521.155	22384.13
521.357	23004.66
521.559	23277.04
521.761	23492.08
521.963	23473.65
522.164	23696.88
522.366	23913.96
522.568	24159.72
522.77	24194.53
522.971	24528.35
523.173	24428
523.375	24675.8
523.576	24743.39
523.778	24845.79
523.98	25400.79
524.181	25423.31
524.383	25384.4
524.584	25488.85
524.786	25828.81
524.988	25497.04
525.189	25546.19
525.391	26066.38
525.592	26119.62
525.794	26088.9
525.995	26586.56
526.197	26465.73
526.398	26424.77
526.6	27012.54
526.801	26631.61
527.003	27061.69
527.204	26987.96
527.406	27174.33
527.607	27076.02
527.808	27379.12
528.01	26691.01
528.211	27502
528.412	28093.86
528.614	27723.18
528.815	27786.67
529.016	27741.61
529.218	27487.67
529.419	27917.74
529.62	27958.7
529.822	27649.46
530.023	28169.64
530.224	28247.46
530.425	28181.93
530.626	27829.68
530.828	27694.51
531.029	28405.16
531.23	28181.93
531.431	28157.35
531.632	28470.69
531.833	28509.6
532.035	28265.89
532.236	28777.89
532.437	28679.58
532.638	28513.7
532.839	28517.79
533.04	28671.39
533.241	28226.98
533.442	29109.66
533.643	28659.1
533.844	28558.75
534.045	29066.65
534.246	28648.86
534.447	28689.82
534.648	29152.66
534.849	28849.57
535.05	28689.82
535.251	28630.43
535.451	28499.36
535.652	28945.82
535.853	28609.95
536.054	28800.41
536.255	28632.48
536.456	28695.97
536.657	29123.99
536.857	28917.15
537.058	28542.37
537.259	28992.92
537.46	28906.91
537.66	29078.94
537.861	28843.42
538.062	28640.67
538.263	28904.86
538.463	28624.29
538.664	28960.16
538.865	28706.21
539.065	29117.85
539.266	28923.29
539.466	29357.46
539.667	28986.78
539.868	29035.93
540.068	28960.16
540.269	28808.61
540.469	28841.37
540.67	28851.61
540.87	28698.02
541.071	28835.23
541.271	29164.95
541.472	28423.59
541.672	28904.86
541.873	28700.06
542.073	28462.5
542.274	29083.03
542.474	28798.37
542.675	28669.34
542.875	29412.76
543.075	28638.62
543.276	28724.64
543.476	29050.27
543.676	29154.71
543.877	28917.15
544.077	28587.43
544.277	29029.79
544.478	28863.9
544.678	28736.93
544.878	28706.21
545.078	28761.5
545.279	28902.81
545.479	28626.34
545.679	28728.73
545.879	28347.81
546.079	28896.67
546.28	28595.62
546.48	28372.39
546.68	28616.1
546.88	28554.66
547.08	28413.35
547.28	28675.49
547.48	28648.86
547.68	28528.03
547.88	28278.18
548.081	28593.57
548.281	28704.16
548.481	28726.69
548.681	28960.16
548.881	28648.86
549.081	28757.41
549.28	28450.21
549.48	28939.68
549.68	28396.96
549.88	28761.5
550.08	28829.09
550.28	28628.38
550.48	28718.5
550.68	28769.69
550.88	28423.59
551.08	28540.32
551.279	28663.2
551.479	28181.93
551.679	28485.03
551.879	28814.75
552.079	28755.36
552.278	28442.02
552.478	28906.91
552.678	28403.11
552.878	28390.82
553.077	28435.88
553.277	28364.2
553.477	28894.62
553.676	28439.97
553.876	28556.71
554.076	28290.47
554.275	28257.7
554.475	28292.52
554.674	28489.12
554.874	28521.89
555.074	28278.18
555.273	28618.14
555.473	28442.02
555.672	28239.27
555.872	28210.6
556.071	28143.02
556.271	28325.29
556.47	27960.75
556.67	27884.97
556.869	27964.84
557.068	28097.96
557.268	27696.56
557.467	27747.76
557.667	28284.33
557.866	27702.7
558.065	27692.46
558.265	27645.36
558.464	27999.66
558.663	27977.13
558.863	27633.07
559.062	27831.72
559.261	27479.47
559.461	27792.81
559.66	27268.53
559.859	27698.61
560.058	27493.81
560.258	27557.3
560.457	26754.49
560.656	27403.7
560.855	27153.85
561.054	27463.09
561.253	27350.45
561.453	26955.19
561.652	27512.24
561.851	27162.04
562.05	27057.59
562.249	26944.95
562.448	27362.74
562.647	26983.87
562.846	26846.65
563.045	26998.2
563.244	26711.49
563.443	26998.2
563.642	26392
563.841	26760.64
564.04	26600.9
564.239	27014.59
564.438	26488.26
564.637	26807.74
564.836	26740.16
565.035	26475.97
565.234	26672.57
565.432	26592.7
565.631	26281.41
565.83	26557.89
566.029	26441.15
566.228	26443.2
566.427	26346.95
566.625	26021.32
566.824	25814.48
567.023	26299.84
567.222	25640.4
567.42	25939.4
567.619	25875.91
567.818	25677.26
568.016	25853.39
568.215	25775.56
568.414	25472.46
568.612	25664.97
568.811	25550.29
569.01	25359.83
569.208	25021.91
569.407	25705.93
569.605	25347.54
569.804	25601.49
570.002	25202.13
570.201	25392.59
570.4	25042.39
570.598	24716.76
570.797	24935.9
570.995	25114.07
571.193	24376.8
571.392	24868.31
571.59	24565.21
571.789	24862.17
571.987	24845.79
572.186	24759.77
572.384	24346.08
572.582	24841.69
572.781	24694.24
572.979	24176.1
573.177	24260.07
573.376	24075.75
573.574	23918.06
573.772	23979.5
573.971	23741.93
574.169	23653.87
574.367	23582.19
574.565	23811.56
574.763	24032.74
574.962	23629.29
575.16	23342.58
575.358	23621.1
575.556	23078.39
575.754	24042.98
575.952	22945.27
576.151	23563.76
576.349	23174.64
576.547	23035.38
576.745	22916.6
576.943	23193.08
577.141	23000.57
577.339	22822.39
577.537	22887.93
577.735	23100.92
577.933	22560.25
578.131	22435.33
578.329	22447.61
578.527	22291.97
578.725	22322.69
578.923	22392.32
579.121	22369.79
579.319	22220.29
579.516	22275.59
579.714	22564.35
579.912	21970.44
580.11	22103.56
580.308	22259.2
580.506	22003.21
580.704	21589.52
580.901	21847.56
581.099	21913.09
581.297	21945.86
581.495	21702.15
581.692	21876.23
581.89	21464.59
582.088	21739.02
582.285	21243.41
582.483	21589.52
582.681	21327.38
582.878	21227.03
583.076	20997.65
583.274	21440.01
583.471	20995.6
583.669	20913.69
583.866	20981.27
584.064	21020.18
584.262	20815.38
584.459	21081.62
584.657	20786.71
584.854	20629.02
585.052	20434.46
585.249	20819.48
585.447	20708.89
585.644	20266.53
585.841	20219.42
586.039	20561.44
586.236	20004.39
586.434	20196.9
586.631	20143.65
586.828	20211.23
587.026	19955.24
587.223	19973.67
587.42	19967.52
587.618	19764.78
587.815	19570.22
588.012	19707.43
588.21	19623.47
588.407	19717.67
588.604	19590.7
588.801	19428.91
588.999	19467.82
589.196	19295.79
589.393	19590.7
589.59	19277.36
589.787	19074.61
589.984	19093.04
590.182	18890.29
590.379	19097.14
590.576	19115.57
590.773	19177.01
590.97	18847.29
591.167	18929.2
591.364	18748.98
591.561	18851.38
591.758	18656.82
591.955	18505.27
592.152	18779.7
592.349	18542.14
592.546	18486.84
592.743	18402.88
592.94	18222.66
593.137	18200.13
593.334	18425.4
593.531	17886.79
593.727	18384.44
593.924	18069.06
594.121	17874.5
594.318	18062.91
594.515	17923.65
594.712	17976.9
594.908	17897.03
595.105	17997.38
595.302	17737.29
595.499	17710.66
595.696	17790.53
595.892	17454.67
596.089	17677.9
596.286	17636.94
596.482	17376.84
596.679	17538.63
596.876	17587.78
597.072	17385.04
597.269	17606.22
597.466	17186.38
597.662	17116.75
597.859	17124.94
598.055	16909.91
598.252	16928.34
598.448	17014.35
598.645	17045.07
598.841	16811.6
599.038	16797.27
599.234	16997.97
599.431	16686.68
599.627	16522.84
599.824	16719.45
600.02	16328.28
600.217	16549.46
600.413	16408.15
600.609	16174.69
600.806	16129.63
601.002	16350.81
601.198	16252.51
601.395	16516.7
601.591	16178.78
601.787	15877.73
601.984	15881.83
602.18	16297.56
602.376	16158.3
602.572	16088.67
602.769	15783.52
602.965	15953.51
603.161	15838.82
603.357	15476.33
603.553	15603.3
603.75	15552.1
603.946	15648.36
604.142	15431.27
604.338	15621.73
604.534	15734.37
604.73	15355.5
604.926	15330.92
605.122	15429.23
605.318	15177.33
605.514	15195.76
605.71	15019.63
605.906	14730.87
606.102	14747.25
606.298	14950
606.494	15025.78
606.69	15005.3
606.886	15066.74
607.082	14706.29
607.278	15007.34
607.474	14777.97
607.67	14712.44
607.866	14610.04
608.062	14741.11
608.257	14419.58
608.453	14741.11
608.649	14569.08
608.845	14317.18
609.041	14194.3
609.236	14577.27
609.432	14513.78
609.628	14610.04
609.824	14159.49
610.019	14235.26
610.215	14096
610.411	14270.08
610.606	14147.2
610.802	14073.47
610.998	14296.7
611.193	14145.15
611.389	14126.72
611.584	13938.3
611.78	13829.76
611.976	13964.93
612.171	13928.06
612.367	14052.99
612.562	13803.14
612.758	13837.95
612.953	13803.14
613.149	13737.6
613.344	13657.73
613.539	13774.47
613.735	13784.71
613.93	13500.04
614.126	13661.83
614.321	13710.98
614.517	13622.92
614.712	13545.09
614.907	13280.91
615.103	13428.36
615.298	13246.09
615.493	13543.05
615.688	13293.19
615.884	13457.03
616.079	13137.55
616.274	13248.14
616.47	12959.38
616.665	13131.4
616.86	13018.77
617.055	13223.56
617.25	13198.99
617.445	13311.63
617.641	12967.57
617.836	13043.34
618.031	12945.04
618.226	12703.38
618.421	12764.82
618.616	12797.59
618.811	12828.31
619.006	12990.1
619.201	12687
619.396	12652.18
619.591	12506.77
619.786	12785.3
619.981	12404.38
620.176	12605.08
620.371	12287.64
620.566	12293.79
620.761	12361.37
620.956	12420.76
621.151	12021.41
621.346	12342.94
621.541	11902.62
621.735	12252.83
621.93	11931.3
622.125	11916.96
622.32	11673.25
622.515	11663.01
622.709	11792.03
622.904	11589.28
623.099	11574.95
623.294	11620
623.488	11097.77
623.683	11595.43
623.878	11267.75
624.072	11224.75
624.267	11191.98
624.462	10962.61
624.656	11079.34
624.851	10970.8
625.046	10968.75
625.24	10899.12
625.435	10823.34
625.629	10907.31
625.824	10626.74
626.018	10835.63
626.213	10383.03
626.407	10530.48
626.602	10262.2
626.796	10395.32
626.991	10544.82
627.185	10270.39
627.38	10344.12
627.574	10206.91
627.768	10184.38
627.963	10112.7
628.157	9967.29
628.352	9926.33
628.546	9760.45
628.74	9932.48
628.935	10024.64
629.129	10030.78
629.323	9742.02
629.517	9674.43
629.712	9619.14
629.906	9406.15
630.1	9455.3
630.294	9475.78
630.489	9418.44
630.683	9447.11
630.877	9207.5
631.071	9240.26
631.265	9322.18
631.459	9213.64
631.653	9027.28
631.848	9039.56
632.042	9053.9
632.236	9141.96
632.43	9039.56
632.624	8957.64
632.818	8752.85
633.012	8861.39
633.206	8816.33
633.4	8632.02
633.594	8795.86
633.788	8709.84
633.982	8765.14
634.176	8494.8
634.369	8464.08
634.563	8560.34
634.757	8414.93
634.951	8304.34
635.145	8330.97
635.339	8437.46
635.533	8087.26
635.726	8160.98
635.92	8242.9
636.114	8117.98
636.308	8021.72
636.501	8230.62
636.695	8040.15
636.889	7859.93
637.083	7841.5
637.276	7708.38
637.47	7749.34
637.664	7864.03
637.857	7778.01
638.051	7757.53
638.244	7624.42
638.438	7630.56
638.632	7448.29
638.825	7589.6
639.019	7429.86
639.212	7458.53
639.406	7438.05
639.599	7325.41
639.793	7218.92
639.986	7278.31
640.18	7249.64
640.373	7108.33
640.567	7026.41
640.76	7091.95
640.954	7096.04
641.147	6905.58
641.34	6862.57
641.534	7048.94
641.727	6952.68
641.92	6858.48
642.114	6803.18
642.307	6967.02
642.5	6858.48
642.694	6602.48
642.887	6684.4
643.08	6764.27
643.273	6569.71
643.467	6661.87
643.66	6711.02
643.853	6467.31
644.046	6412.02
644.239	6354.68
644.432	6352.63
644.626	6424.31
644.819	6297.33
645.012	6352.63
645.205	6215.41
645.398	6252.28
645.591	6143.74
645.784	6209.27
645.977	6082.3
646.17	6080.25
646.363	5953.27
646.556	5832.44
646.749	5875.45
646.942	6012.67
647.135	5940.99
647.328	5828.35
647.521	5965.56
647.714	5666.56
647.907	5936.89
648.099	5615.36
648.292	5740.29
648.485	5603.07
648.678	5592.83
648.871	5639.94
649.064	5644.03
649.256	5500.67
649.449	5431.04
649.642	5519.11
649.835	5390.08
650.027	5367.56
650.22	5369.6
650.413	5404.42
650.605	5228.29
650.798	5297.92
650.991	5242.63
651.183	5318.4
651.376	5109.51
651.568	5162.76
651.761	5170.95
651.954	5070.6
652.146	5173
652.339	4970.25
652.531	4978.44
652.724	4955.91
652.916	4943.63
653.109	4951.82
653.301	5017.35
653.494	4861.71
653.686	4828.94
653.879	4941.58
654.071	4769.55
654.263	4833.04
654.456	4824.84
654.648	4865.8
654.84	4591.38
655.033	4646.67
655.225	4663.05
655.417	4554.51
655.61	4615.95
655.802	4624.14
655.994	4544.27
656.186	4601.62
656.379	4550.42
656.571	4589.33
656.763	4302.61
656.955	4402.96
657.148	4194.07
657.34	4364.05
657.532	4370.19
657.724	4253.46
657.916	4294.42
658.108	4300.56
658.3	4140.82
658.492	4226.84
658.684	4171.54
658.876	4106.01
659.068	4069.14
659.26	4071.19
659.452	3972.89
659.644	4167.45
659.836	3985.18
660.028	4044.57
660.22	3936.03
660.412	3872.54
660.604	3872.54
660.796	3864.35
660.988	3890.97
661.18	3823.39
661.372	3886.87
661.563	3907.35
661.755	3731.23
661.947	3766.04
662.139	3821.34
662.331	3856.15
662.522	3735.32
662.714	3690.27
662.906	3577.63
663.097	3657.5
663.289	3774.24
663.481	3522.34
663.673	3626.78
663.864	3446.56
664.056	3690.27
664.247	3553.06
664.439	3493.66
664.631	3495.71
664.822	3589.92
665.014	3530.53
665.205	3374.88
665.397	3342.11
665.588	3407.65
665.78	3370.79
665.971	3428.13
666.163	3473.18
666.354	3323.68
666.546	3272.48
666.737	3335.97
666.929	3155.75
667.12	3264.29
667.311	3239.72
667.503	3184.42
667.694	3249.96
667.885	3178.28
668.077	3252
668.268	3219.24
668.459	3176.23
668.651	3172.13
668.842	3061.54
669.033	3129.13
669.224	3165.99
669.416	3127.08
669.607	3092.26
669.798	3053.35
669.989	3151.65
670.18	3071.78
670.371	3039.01
670.563	3028.78
670.754	3018.54
670.945	2895.66
671.136	2989.86
671.327	2875.18
671.518	2801.45
671.709	2891.56
671.9	2926.38
672.091	2965.29
672.282	2989.86
672.473	2832.17
672.664	2750.25
672.855	2856.75
673.046	2862.89
673.237	2948.9
673.428	2664.24
673.619	2918.18
673.809	2791.21
674	2760.49
674.191	2770.73
674.382	2639.66
674.573	2789.16
674.764	2826.03
674.954	2711.34
675.145	2801.45
675.336	2742.06
675.527	2682.67
675.717	2676.52
675.908	2719.53
676.099	2688.81
676.289	2668.33
676.48	2496.3
676.671	2592.56
676.861	2668.33
677.052	2647.85
677.243	2514.73
677.433	2651.95
677.624	2588.46
677.814	2574.13
678.005	2576.17
678.195	2557.74
678.386	2547.5
678.576	2389.81
678.767	2510.64
678.957	2529.07
679.148	2529.07
679.338	2455.34
679.529	2461.49
679.719	2414.38
679.909	2426.67
680.1	2522.93
680.29	2488.11
680.481	2418.48
680.671	2436.91
680.861	2467.63
681.052	2416.43
681.242	2383.66
681.432	2352.95
681.622	2344.75
681.813	2326.32
682.003	2385.71
682.193	2395.95
682.383	2416.43
682.573	2283.31
682.764	2385.71
682.954	2361.14
683.144	2391.86
683.334	2281.27
683.524	2447.15
683.714	2291.51
683.904	2201.4
684.094	2350.9
684.284	2262.83
684.474	2207.54
684.664	2395.95
684.854	2279.22
685.044	2369.33
685.234	2334.51
685.424	2236.21
685.614	2166.58
685.804	2277.17
685.994	2252.59
686.184	2371.38
686.374	2365.23
686.564	2219.83
686.753	2295.6
686.943	2217.78
687.133	2211.64
687.323	2123.57
687.513	2209.59
687.702	2217.78
687.892	2219.83
688.082	2234.16
688.272	2201.4
688.461	2256.69
688.651	2115.38
688.841	2207.54
689.03	2170.68
689.22	2113.33
689.41	2123.57
689.599	2203.44
689.789	2084.66
689.979	2068.28
690.168	2154.29
690.358	2139.96
690.547	2191.16
690.737	2090.81
690.926	2033.46
691.116	2113.33
691.305	2213.68
691.495	2088.76
691.684	2049.85
691.874	2047.8
692.063	2064.18
692.252	2086.71
692.442	2082.61
692.631	2025.27
692.82	1986.36
693.01	2010.93
693.199	1943.35
693.388	2004.79
693.578	2074.42
693.767	1996.6
693.956	1972.02
694.146	2058.04
694.335	1974.07
694.524	2025.27
694.713	1953.59
694.902	2049.85
695.092	1976.12
695.281	1945.4
695.47	2058.04
695.659	1935.16
695.848	1947.45
696.037	1945.4
696.226	1965.88
696.415	1935.16
696.604	1969.98
696.793	2006.84
696.982	1939.26
697.171	1996.6
697.36	1961.78
697.549	1877.82
697.738	1959.74
697.927	1982.26
698.116	1994.55
698.305	1984.31
698.494	1969.98
698.683	2010.93
698.872	1972.02
699.061	2012.98
699.25	1937.21
699.438	2004.79
699.627	1943.35
699.816	1916.73
700.005	1972.02
700.193	1972.02
700.382	1990.45
700.571	1969.98
700.76	1986.36
700.948	1980.22
701.137	1924.92
701.326	1900.34
701.514	1939.26
701.703	1871.67
701.892	1896.25
702.08	1986.36
702.269	1947.45
702.457	1916.73
702.646	1988.41
702.834	1910.58
703.023	1869.62
703.212	1910.58
703.4	1853.24
703.589	1814.33
703.777	1949.5
703.965	1816.38
704.154	1867.58
704.342	1902.39
704.531	1908.54
704.719	1783.61
704.907	1888.06
705.096	1740.6
705.284	1720.12
705.472	1894.2
705.661	1789.75
705.849	1791.8
706.037	1746.75
706.226	1853.24
706.414	1789.75
706.602	1767.23
706.79	1769.27
706.979	1756.99
707.167	1851.19
707.355	1797.95
707.543	1709.88
707.731	1744.7
707.919	1716.03
708.107	1726.27
708.296	1632.06
708.484	1697.6
708.672	1693.5
708.86	1722.17
709.048	1744.7
709.236	1763.13
709.424	1771.32
709.612	1703.74
709.8	1797.95
709.988	1740.6
710.176	1732.41
710.364	1734.46
710.551	1666.88
710.739	1627.96
710.927	1638.2
711.115	1781.56
711.303	1650.49
711.491	1642.3
711.679	1699.64
711.866	1675.07
712.054	1689.4
712.242	1601.34
712.43	1707.84
712.617	1748.79
712.805	1576.77
712.993	1720.12
713.181	1658.68
713.368	1670.97
713.556	1576.77
713.744	1611.58
713.931	1578.81
714.119	1591.1
714.306	1623.87
714.494	1574.72
714.682	1627.96
714.869	1476.41
715.057	1572.67
715.244	1546.05
715.432	1541.95
715.619	1625.92
715.807	1480.51
715.994	1562.43
716.182	1425.22
716.369	1494.85
716.556	1476.41
716.744	1523.52
716.931	1441.6
717.119	1515.33
717.306	1509.18
717.493	1503.04
717.681	1462.08
717.868	1537.85
718.055	1462.08
718.242	1529.66
718.43	1552.19
718.617	1537.85
718.804	1398.59
718.991	1562.43
719.179	1402.69
719.366	1433.41
719.553	1343.3
719.74	1453.89
719.927	1371.97
720.114	1453.89
720.301	1408.83
720.488	1515.33
720.676	1404.74
720.863	1390.4
721.05	1351.49
721.237	1394.5
721.424	1441.6
721.611	1490.75
721.798	1386.3
721.985	1376.06
722.172	1322.82
722.358	1394.5
722.545	1406.78
722.732	1341.25
722.919	1431.36
723.106	1347.39
723.293	1355.58
723.48	1363.78
723.667	1300.29
723.853	1343.3
724.04	1306.43
724.227	1314.63
724.414	1333.06
724.6	1281.86
724.787	1351.49
724.974	1269.57
725.161	1302.34
725.347	1181.51
725.534	1294.15
725.72	1249.09
725.907	1226.56
726.094	1306.43
726.28	1296.19
726.467	1247.04
726.653	1206.08
726.84	1343.3
727.027	1314.63
727.213	1269.57
727.4	1294.15
727.586	1124.16
727.773	1179.46
727.959	1253.19
728.145	1236.8
728.332	1249.09
728.518	1232.71
728.705	1230.66
728.891	1228.61
729.077	1263.43
729.264	1269.57
729.45	1232.71
729.636	1283.91
729.823	1146.69
730.009	1091.4
730.195	1130.31
730.382	1142.6
730.568	1105.73
730.754	1193.8
730.94	1099.59
731.126	1189.7
731.313	1132.36
731.499	1158.98
731.685	1238.85
731.871	1165.12
732.057	1179.46
732.243	1152.84
732.429	1118.02
732.615	1103.68
732.801	1193.8
732.987	1079.11
733.173	1111.88
733.359	1152.84
733.545	1130.31
733.731	1138.5
733.917	1175.36
734.103	1077.06
734.289	1169.22
734.475	1089.35
734.661	1242.95
734.847	1152.84
735.033	1199.94
735.219	1128.26
735.404	1068.87
735.59	1128.26
735.776	1060.68
735.962	1064.77
736.148	1122.12
736.333	1120.07
736.519	1021.77
736.705	1064.77
736.89	1040.2
737.076	999.24
737.262	1027.91
737.447	1099.59
737.633	1095.49
737.819	1089.35
738.004	1140.55
738.19	1077.06
738.375	991.05
738.561	1015.62
738.747	958.28
738.932	1007.43
739.118	964.42
739.303	1052.49
739.489	1046.34
739.674	1032.01
739.859	995.14
740.045	937.8
740.23	1011.53
740.416	1009.48
740.601	1025.86
740.786	948.04
740.972	948.04
741.157	1021.77
741.342	991.05
741.528	896.84
741.713	950.09
741.898	935.75
742.084	943.94
742.269	974.66
742.454	905.03
742.639	941.89
742.824	880.46
743.01	943.94
743.195	915.27
743.38	829.26
743.565	907.08
743.75	923.46
743.935	907.08
744.12	878.41
744.305	923.46
744.49	868.17
744.675	833.35
744.86	898.89
745.045	896.84
745.23	905.03
745.415	909.13
745.6	880.46
745.785	829.26
745.97	816.97
746.155	857.93
746.34	890.7
746.525	827.21
746.71	790.35
746.895	812.87
747.079	806.73
747.264	839.5
747.449	833.35
747.634	796.49
747.819	800.59
748.003	837.45
748.188	810.82
748.373	773.96
748.557	741.19
748.742	831.3
748.927	784.2
749.111	870.22
749.296	679.75
749.481	745.29
749.665	776.01
749.85	683.85
750.034	739.15
750.219	771.91
750.404	765.77
750.588	743.24
750.773	724.81
750.957	683.85
751.141	761.67
751.326	735.05
751.51	696.14
751.695	704.33
751.879	739.15
752.064	728.91
752.248	679.75
752.432	700.23
752.617	644.94
752.801	667.47
752.985	720.71
753.17	784.2
753.354	743.24
753.538	651.08
753.722	667.47
753.907	634.7
754.091	675.66
754.275	698.19
754.459	579.4
754.643	624.46
754.828	755.53
755.012	646.99
755.196	608.08
755.38	597.84
755.564	694.09
755.748	675.66
755.932	634.7
756.116	550.73
756.3	595.79
756.484	577.36
756.668	534.35
756.852	509.77
757.036	626.51
757.22	569.16
757.404	626.51
757.588	673.61
757.772	479.05
757.956	603.98
758.14	556.88
758.323	548.68
758.507	509.77
758.691	624.46
758.875	569.16
759.059	563.02
759.242	624.46
759.426	556.88
759.61	503.63
759.794	532.3
759.977	530.25
760.161	649.04
760.345	472.91
760.528	470.86
760.712	507.73
760.895	548.68
761.079	493.39
761.263	587.6
761.446	606.03
761.63	546.64
761.813	481.1
761.997	495.44
762.18	505.68
762.364	581.45
762.547	536.4
762.731	509.77
762.914	509.77
763.098	542.54
763.281	517.97
763.464	552.78
763.648	462.67
763.831	517.97
764.015	481.1
764.198	472.91
764.381	456.53
764.564	458.57
764.748	511.82
764.931	458.57
765.114	421.71
765.297	474.96
765.481	442.19
765.664	497.49
765.847	456.53
766.03	554.83
766.213	532.3
766.397	483.15
766.58	530.25
766.763	460.62
766.946	411.47
767.129	456.53
767.312	456.53
767.495	440.14
767.678	380.75
767.861	393.04
768.044	382.8
768.227	446.29
768.41	436.05
768.593	462.67
768.776	468.81
768.959	487.25
769.142	448.33
769.324	444.24
769.507	460.62
769.69	452.43
769.873	407.38
770.056	450.38
770.239	470.86
770.421	407.38
770.604	448.33
770.787	413.52
770.97	360.27
771.152	454.48
771.335	374.61
771.518	415.57
771.7	423.76
771.883	427.85
772.066	431.95
772.248	411.47
772.431	362.32
772.613	411.47
772.796	380.75
772.978	388.94
773.161	397.14
773.343	440.14
773.526	429.9
773.708	393.04
773.891	395.09
774.073	319.31
774.256	362.32
774.438	405.33
774.621	323.41
774.803	337.74
774.985	370.51
775.168	421.71
775.35	376.66
775.532	407.38
775.715	405.33
775.897	458.57
776.079	319.31
776.261	247.63
776.444	253.78
776.626	352.08
776.808	309.07
776.99	372.56
777.173	366.42
777.355	321.36
777.537	368.46
777.719	341.84
777.901	343.89
778.083	374.61
778.265	307.02
778.447	309.07
778.629	294.74
778.811	345.94
778.993	243.54
779.175	296.78
779.357	280.4
779.539	339.79
779.721	339.79
779.903	300.88
780.085	276.31
780.267	360.27
780.449	317.26
780.631	286.54
780.812	239.44
780.994	280.4
781.176	313.17
781.358	251.73
781.54	229.2
781.721	243.54
781.903	241.49
782.085	270.16
782.267	280.4
782.448	212.82
782.63	245.59
782.812	255.83
782.993	253.78
783.175	292.69
783.357	274.26
783.538	276.31
783.72	264.02
783.901	276.31
784.083	272.21
784.264	225.11
784.446	282.45
784.627	282.45
784.809	261.97
784.99	266.07
785.172	186.19
785.353	225.11
785.535	225.11
785.716	264.02
785.897	200.53
786.079	245.59
786.26	235.35
786.441	180.05
786.623	196.43
786.804	167.76
786.985	229.2
787.167	300.88
787.348	212.82
787.529	304.98
787.71	268.11
787.891	223.06
788.073	202.58
788.254	128.85
788.435	229.2
788.616	233.3
788.797	202.58
788.978	204.63
789.159	214.87
789.34	198.48
789.522	173.91
789.703	206.67
789.884	210.77
790.065	237.39
790.246	204.63
790.427	304.98
790.607	186.19
790.788	139.09
790.969	139.09
791.15	153.43
791.331	188.24
791.512	202.58
791.693	186.19
791.874	198.48
792.054	165.71
792.235	137.04
792.416	178
792.597	81.75
792.778	118.61
792.958	139.09
793.139	188.24
793.32	221.01
793.5	169.81
793.681	204.63
793.862	194.39
794.042	223.06
794.223	143.19
794.404	233.3
794.584	165.71
794.765	114.52
794.945	145.24
795.126	278.35
795.306	210.77
795.487	161.62
795.667	110.42
795.848	173.91
796.028	225.11
796.209	214.87
796.389	132.95
796.57	173.91
796.75	180.05
796.93	182.1
797.111	167.76
797.291	104.28
797.471	112.47
797.652	169.81
797.832	145.24
798.012	161.62
798.192	157.52
798.373	112.47
798.553	124.76
798.733	139.09
798.913	100.18
799.093	157.52
799.274	94.04
799.454	87.89
799.634	106.32
799.814	169.81
799.994	171.86
800.174	135
800.354	184.15
800.534	30.55
800.714	71.51
800.894	157.52
801.074	106.32
801.254	110.42
801.434	180.05
801.614	114.52
801.794	85.84
801.974	341.84
802.154	163.67
802.334	167.76
802.514	65.36
802.693	171.86
802.873	118.61
803.053	120.66
803.233	141.14
803.413	157.52
803.592	126.8
803.772	200.53
803.952	104.28
804.131	130.9
804.311	124.76
804.491	83.8
804.67	91.99
804.85	77.65
805.03	71.51
805.209	143.19
805.389	118.61
805.568	51.03
805.748	73.56
805.928	87.89
806.107	69.46
806.287	143.19
806.466	69.46
806.646	141.14
806.825	38.74
807.004	139.09
807.184	112.47
807.363	94.04
807.543	85.84
807.722	79.7
807.901	94.04
808.081	79.7
808.26	73.56
808.439	44.88
808.619	44.88
808.798	44.88
808.977	75.6
809.156	143.19
809.336	167.76
809.515	118.61
809.694	122.71
809.873	79.7
810.052	137.04
810.231	67.41
810.411	96.08
810.59	159.57
810.769	38.74
810.948	200.53
811.127	34.64
811.306	100.18
811.485	173.91
811.664	132.95
811.843	71.51
812.022	108.37
812.201	71.51
812.38	104.28
812.559	102.23
812.737	124.76
812.916	77.65
813.095	157.52
813.274	108.37
813.453	98.13
813.632	122.71
813.811	77.65
813.989	116.56
814.168	94.04
814.347	30.55
814.526	63.32
814.704	73.56
814.883	67.41
815.062	42.84
815.24	57.17
815.419	116.56
815.598	96.08
815.776	44.88
815.955	48.98
816.133	34.64
816.312	44.88
816.49	67.41
816.669	57.17
816.847	102.23
817.026	48.98
817.204	61.27
817.383	48.98
817.561	65.36
817.74	36.69
817.918	5.97
818.097	77.65
818.275	48.98
818.453	75.6
818.632	135
818.81	51.03
818.988	110.42
819.167	61.27
819.345	132.95
819.523	71.51
819.701	34.64
819.879	91.99
820.058	96.08
820.236	59.22
820.414	42.84
820.592	1.88
820.77	81.75
820.948	67.41
821.127	24.4
821.305	96.08
821.483	110.42
821.661	57.17
821.839	94.04
822.017	46.93
822.195	8.02
822.373	42.84
822.551	118.61
822.729	120.66
822.907	85.84
823.085	116.56
823.262	24.4
823.44	71.51
823.618	55.12
823.796	81.75
823.974	77.65
824.152	71.51
824.329	61.27
824.507	46.93
824.685	120.66
824.863	26.45
825.04	81.75
825.218	137.04
825.396	30.55
825.574	57.17
825.751	44.88
825.929	94.04
826.107	44.88
826.284	122.71
826.462	57.17
826.639	38.74
826.817	18.26
826.994	32.6
827.172	-30.89
827.349	106.32
827.527	77.65
827.704	77.65
827.882	63.32
828.059	48.98
828.237	42.84
828.414	69.46
828.591	53.08
828.769	32.6
828.946	69.46
829.124	69.46
829.301	48.98
829.478	85.84
829.655	77.65
829.833	116.56
830.01	-10.41
830.187	51.03
830.364	81.75
830.542	22.36
830.719	96.08
830.896	40.79
831.073	-2.22
831.25	91.99
831.427	69.46
831.604	87.89
831.782	36.69
831.959	42.84
832.136	51.03
832.313	5.97
832.49	98.13
832.667	-22.7
832.844	36.69
833.021	16.21
833.198	46.93
833.374	-2.22
833.551	53.08
833.728	132.95
833.905	59.22
834.082	22.36
834.259	28.5
834.436	91.99
834.612	22.36
834.789	51.03
834.966	100.18
835.143	-20.65
835.319	16.21
835.496	65.36
835.673	38.74
835.85	67.41
836.026	32.6
836.203	69.46
836.38	85.84
836.556	22.36
836.733	30.55
836.909	71.51
837.086	32.6
837.262	67.41
837.439	-0.17
837.616	34.64
837.792	-39.08
837.968	12.12
838.145	42.84
838.321	100.18
838.498	10.07
838.674	44.88
838.851	34.64
839.027	98.13
839.203	16.21
839.38	-14.51
839.556	-55.47
839.732	46.93
839.909	30.55
840.085	22.36
840.261	-16.55
840.437	91.99
840.614	-18.6
840.79	28.5
840.966	46.93
841.142	28.5
841.318	26.45
841.494	40.79
841.671	-16.55
841.847	14.17
842.023	20.31
842.199	91.99
842.375	24.4
842.551	-63.66
842.727	28.5
842.903	16.21
843.079	-22.7
843.255	40.79
843.431	10.07
843.607	32.6
843.783	24.4
843.959	44.88
844.134	44.88
844.31	48.98
844.486	-14.51
844.662	94.04
844.838	71.51
845.013	24.4
845.189	38.74
845.365	14.17
845.541	20.31
845.716	51.03
845.892	46.93
846.068	79.7
846.244	59.22
846.419	42.84
846.595	-16.55
846.77	36.69
846.946	-18.6
847.122	34.64
847.297	-12.46
847.473	34.64
847.648	98.13
847.824	36.69
847.999	-2.22
848.175	16.21
848.35	38.74
848.526	106.32
848.701	5.97
848.876	110.42
849.052	89.94
849.227	18.26
849.403	-8.36
849.578	12.12
849.753	81.75
849.929	75.6
850.104	5.97
850.279	40.79
850.454	69.46
850.63	116.56
850.805	69.46
850.98	38.74
851.155	57.17
851.33	69.46
851.505	51.03
851.681	59.22
851.856	40.79
852.031	32.6
852.206	30.55
852.381	48.98
852.556	-34.99
852.731	61.27
852.906	10.07
853.081	40.79
853.256	71.51
853.431	-12.46
853.606	53.08
853.781	-49.32
853.956	40.79
854.131	-8.36
854.305	44.88
854.48	-12.46
854.655	75.6
854.83	3.93
855.005	-8.36
855.18	38.74
855.354	-20.65
855.529	-2.22
855.704	-8.36
855.879	14.17
856.053	-0.17
856.228	32.6
856.403	38.74
856.577	-16.55
856.752	16.21
856.926	32.6
857.101	71.51
857.276	40.79
857.45	1.88
857.625	-20.65
857.799	44.88
857.974	71.51
858.148	36.69
858.323	87.89
858.497	24.4
858.672	-51.37
858.846	-10.41
859.02	44.88
859.195	24.4
859.369	42.84
859.543	-43.18
859.718	24.4
859.892	-4.27
860.066	24.4
860.241	-12.46
860.415	-8.36
860.589	102.23
860.763	5.97
860.938	38.74
861.112	26.45
861.286	30.55
861.46	16.21
861.634	26.45
861.808	-41.13
861.982	1.88
862.157	55.12
862.331	32.6
862.505	12.12
862.679	59.22
862.853	1.88
863.027	8.02
863.201	67.41
863.375	5.97
863.549	-34.99
863.722	36.69
863.896	53.08
864.07	8.02
864.244	18.26
864.418	12.12
864.592	32.6
864.766	16.21
864.939	40.79
865.113	42.84
865.287	22.36
865.461	34.64
865.634	28.5
865.808	-14.51
865.982	-14.51
866.156	-2.22
866.329	40.79
866.503	-43.18
866.676	40.79
866.85	22.36
867.024	46.93
867.197	-4.27
867.371	12.12
867.544	-12.46
867.718	1.88
867.891	-16.55
868.065	12.12
868.238	24.4
868.412	28.5
868.585	-39.08
868.759	61.27
868.932	-45.23
869.105	-10.41
869.279	38.74
869.452	20.31
869.625	18.26
869.799	48.98
869.972	-59.56
870.145	87.89
870.319	5.97
870.492	-6.31
870.665	5.97
870.838	61.27
871.011	-22.7
871.185	28.5
871.358	73.56
871.531	32.6
871.704	-41.13
871.877	-39.08
872.05	3.93
872.223	-0.17
872.396	1.88
872.569	79.7
872.742	81.75
872.915	14.17
873.088	16.21
873.261	-4.27
873.434	44.88
873.607	30.55
873.78	30.55
873.953	-26.79
874.126	-22.7
874.299	-39.08
874.471	38.74
874.644	16.21
874.817	-0.17
874.99	69.46
875.163	-45.23
875.335	-12.46
875.508	-8.36
875.681	-20.65
875.853	-24.75
876.026	20.31
876.199	30.55
876.371	-8.36
876.544	28.5
876.717	65.36
876.889	10.07
877.062	-6.31
877.234	-41.13
877.407	48.98
877.579	65.36
877.752	-26.79
877.924	3.93
878.097	46.93
878.269	-47.27
878.442	-14.51
878.614	16.21
878.786	-10.41
878.959	10.07
879.131	42.84
879.303	20.31
879.476	12.12
879.648	28.5
879.82	3.93
879.993	18.26
880.165	59.22
880.337	-75.95
880.509	-2.22
880.681	-8.36
880.854	-30.89
881.026	-69.8
881.198	44.88
881.37	1.88
881.542	24.4
881.714	-37.03
881.886	-41.13
882.058	-14.51
882.23	34.64
882.402	14.17
882.574	85.84
882.746	30.55
882.918	24.4
883.09	44.88
883.262	-6.31
883.434	5.97
883.606	-14.51
883.778	26.45
883.95	75.6
884.122	5.97
884.293	12.12
884.465	22.36
884.637	69.46
884.809	38.74
884.98	28.5
885.152	32.6
885.324	1.88
885.496	-12.46
885.667	22.36
885.839	22.36
886.011	81.75
886.182	-39.08
886.354	-47.27
886.525	36.69
886.697	-18.6
886.869	59.22
887.04	-49.32
887.212	22.36
887.383	75.6
887.555	44.88
887.726	46.93
887.897	-41.13
888.069	38.74
888.24	42.84
888.412	-6.31
888.583	53.08
888.754	-20.65
888.926	12.12
889.097	22.36
889.268	-22.7
889.44	-20.65
889.611	1.88
889.782	3.93
889.953	-12.46
890.125	44.88
890.296	65.36
890.467	1.88
890.638	-53.42
890.809	32.6
890.98	42.84
891.151	40.79
891.323	42.84
891.494	36.69
891.665	-51.37
891.836	61.27
892.007	-16.55
892.178	24.4
892.349	102.23
892.52	-8.36
892.691	3.93
892.862	-10.41
893.032	-45.23
893.203	77.65
893.374	28.5
893.545	34.64
893.716	18.26
893.887	46.93
894.057	-18.6
894.228	-45.23
894.399	-32.94
894.57	108.37
894.74	-26.79
894.911	5.97
895.082	-53.42
895.253	18.26
895.423	-65.71
895.594	24.4
895.764	-12.46
895.935	-26.79
896.106	46.93
896.276	20.31
896.447	42.84
896.617	-47.27
896.788	5.97
896.958	30.55
897.129	32.6
897.299	94.04
897.47	48.98
897.64	-61.61
897.81	63.32
897.981	-49.32
898.151	-14.51
898.322	-24.75
898.492	36.69
898.662	-106.67
898.832	-61.61
899.003	20.31
899.173	-22.7
899.343	16.21
899.513	10.07
