Data from USB4F104151__294__14-02-49-296.txt Node

Date: Thu Mar 13 14:02:49 EDT 2025
User: louis
Spectrometer: USB4F10415
Trigger mode: 4
Integration Time (sec): 1.000000E-2
Scans to average: 1
Electric dark correction enabled: true
Nonlinearity correction enabled: false
Boxcar width: 0
XAxis mode: Wavelengths
Number of Pixels in Spectrum: 3648
>>>>>Begin Spectral Data<<<<<
178.204	-64.51
178.424	-64.51
178.644	-64.51
178.864	-37.89
179.084	-54.27
179.304	44.03
179.524	-11.26
179.744	-25.6
179.964	-5.12
180.184	-11.26
180.404	54.27
180.624	-5.12
180.844	-33.79
181.064	-48.13
181.283	9.22
181.503	64.51
181.723	-31.74
181.943	-23.55
182.163	15.36
182.383	-48.13
182.602	-35.84
182.822	19.46
183.042	-3.07
183.262	-27.65
183.482	-64.51
183.701	-35.84
183.921	29.7
184.141	-13.31
184.361	-1.02
184.58	-5.12
184.8	48.13
185.02	13.31
185.239	56.32
185.459	-3.07
185.679	33.79
185.898	-19.46
186.118	19.46
186.338	25.6
186.557	13.31
186.777	21.5
186.997	11.26
187.216	-13.31
187.436	13.31
187.655	-33.79
187.875	29.7
188.095	-52.22
188.314	117.76
188.534	-21.5
188.753	11.26
188.973	123.9
189.192	-27.65
189.412	-5.12
189.631	-29.7
189.851	19.46
190.07	25.6
190.29	-5.12
190.509	23.55
190.729	-11.26
190.948	-33.79
191.168	17.41
191.387	5.12
191.607	-9.22
191.826	-46.08
192.045	7.17
192.265	-46.08
192.484	13.31
192.704	19.46
192.923	-25.6
193.142	21.5
193.362	-23.55
193.581	54.27
193.8	35.84
194.02	27.65
194.239	21.5
194.458	37.89
194.678	-25.6
194.897	-27.65
195.116	27.65
195.335	13.31
195.555	-3.07
195.774	37.89
195.993	33.79
196.212	-19.46
196.432	-1.02
196.651	-52.22
196.87	-39.94
197.089	15.36
197.308	-15.36
197.528	-9.22
197.747	-56.32
197.966	-17.41
198.185	-19.46
198.404	11.26
198.623	-1.02
198.842	-5.12
199.062	29.7
199.281	50.18
199.5	-21.5
199.719	-19.46
199.938	52.22
200.157	-11.26
200.376	19.46
200.595	-64.51
200.814	-7.17
201.033	-23.55
201.252	15.36
201.471	-29.7
201.69	-25.6
201.909	70.65
202.128	29.7
202.347	-3.07
202.566	-25.6
202.785	-15.36
203.004	-41.98
203.223	44.03
203.442	-13.31
203.661	-13.31
203.879	37.89
204.098	-31.74
204.317	-5.12
204.536	27.65
204.755	-37.89
204.974	1.02
205.193	5.12
205.411	60.42
205.63	-29.7
205.849	23.55
206.068	11.26
206.287	-9.22
206.505	-7.17
206.724	-21.5
206.943	-19.46
207.162	-54.27
207.381	7.17
207.599	21.5
207.818	-41.98
208.037	-13.31
208.255	21.5
208.474	44.03
208.693	21.5
208.911	9.22
209.13	-25.6
209.349	-21.5
209.567	15.36
209.786	37.89
210.005	-62.46
210.223	5.12
210.442	-48.13
210.661	15.36
210.879	31.74
211.098	52.22
211.316	82.94
211.535	46.08
211.753	13.31
211.972	11.26
212.191	-27.65
212.409	-37.89
212.628	-37.89
212.846	15.36
213.065	-35.84
213.283	37.89
213.502	33.79
213.72	33.79
213.938	31.74
214.157	11.26
214.375	84.99
214.594	-9.22
214.812	-62.46
215.031	-5.12
215.249	-11.26
215.467	5.12
215.686	5.12
215.904	27.65
216.122	5.12
216.341	54.27
216.559	-19.46
216.778	48.13
216.996	-68.61
217.214	-39.94
217.432	-41.98
217.651	39.94
217.869	17.41
218.087	-44.03
218.306	-62.46
218.524	-39.94
218.742	-52.22
218.96	21.5
219.179	27.65
219.397	-11.26
219.615	27.65
219.833	37.89
220.051	-29.7
220.27	27.65
220.488	11.26
220.706	23.55
220.924	21.5
221.142	33.79
221.36	29.7
221.578	3.07
221.796	54.27
222.015	31.74
222.233	21.5
222.451	39.94
222.669	-11.26
222.887	-27.65
223.105	35.84
223.323	-35.84
223.541	-29.7
223.759	52.22
223.977	-52.22
224.195	44.03
224.413	3.07
224.631	7.17
224.849	-7.17
225.067	29.7
225.285	-11.26
225.503	-19.46
225.721	13.31
225.939	60.42
226.157	-25.6
226.375	-21.5
226.592	-15.36
226.81	-7.17
227.028	15.36
227.246	-5.12
227.464	-17.41
227.682	27.65
227.9	11.26
228.117	5.12
228.335	3.07
228.553	-29.7
228.771	56.32
228.989	39.94
229.206	-13.31
229.424	50.18
229.642	-58.37
229.86	-13.31
230.077	52.22
230.295	-9.22
230.513	72.7
230.731	-17.41
230.948	11.26
231.166	27.65
231.384	-37.89
231.601	-17.41
231.819	19.46
232.037	21.5
232.254	31.74
232.472	7.17
232.689	17.41
232.907	56.32
233.125	37.89
233.342	68.61
233.56	35.84
233.777	7.17
233.995	3.07
234.213	-3.07
234.43	27.65
234.648	50.18
234.865	-3.07
235.083	11.26
235.3	-29.7
235.518	-52.22
235.735	17.41
235.953	-13.31
236.17	27.65
236.388	60.42
236.605	35.84
236.822	5.12
237.04	48.13
237.257	-1.02
237.475	11.26
237.692	-5.12
237.909	-13.31
238.127	-5.12
238.344	35.84
238.562	54.27
238.779	3.07
238.996	-33.79
239.214	-48.13
239.431	-7.17
239.648	37.89
239.865	-46.08
240.083	-9.22
240.3	-5.12
240.517	-3.07
240.735	13.31
240.952	76.8
241.169	66.56
241.386	-25.6
241.603	29.7
241.821	11.26
242.038	64.51
242.255	-1.02
242.472	-44.03
242.689	-33.79
242.907	-11.26
243.124	13.31
243.341	17.41
243.558	25.6
243.775	-33.79
243.992	54.27
244.209	21.5
244.426	46.08
244.643	-13.31
244.86	7.17
245.078	80.89
245.295	29.7
245.512	5.12
245.729	3.07
245.946	23.55
246.163	56.32
246.38	19.46
246.597	46.08
246.814	62.46
247.031	-7.17
247.248	-35.84
247.464	19.46
247.681	68.61
247.898	66.56
248.115	11.26
248.332	33.79
248.549	89.09
248.766	-44.03
248.983	1.02
249.2	3.07
249.417	19.46
249.633	23.55
249.85	13.31
250.067	-11.26
250.284	-13.31
250.501	41.98
250.717	46.08
250.934	3.07
251.151	15.36
251.368	35.84
251.585	-13.31
251.801	29.7
252.018	27.65
252.235	-1.02
252.451	-27.65
252.668	-5.12
252.885	41.98
253.102	-9.22
253.318	-17.41
253.535	13.31
253.752	-13.31
253.968	44.03
254.185	-13.31
254.401	-19.46
254.618	37.89
254.835	-21.5
255.051	37.89
255.268	15.36
255.484	-9.22
255.701	-33.79
255.917	60.42
256.134	-25.6
256.351	3.07
256.567	80.89
256.784	37.89
257	-11.26
257.217	3.07
257.433	-5.12
257.65	3.07
257.866	23.55
258.082	-7.17
258.299	17.41
258.515	48.13
258.732	-37.89
258.948	52.22
259.165	-29.7
259.381	50.18
259.597	15.36
259.814	-7.17
260.03	-44.03
260.246	48.13
260.463	-31.74
260.679	-29.7
260.895	27.65
261.112	-54.27
261.328	-136.19
261.544	-13.31
261.761	50.18
261.977	41.98
262.193	95.23
262.409	29.7
262.626	9.22
262.842	15.36
263.058	-23.55
263.274	80.89
263.49	60.42
263.707	-5.12
263.923	17.41
264.139	-56.32
264.355	-31.74
264.571	11.26
264.787	13.31
265.004	19.46
265.22	52.22
265.436	11.26
265.652	48.13
265.868	-5.12
266.084	-37.89
266.3	39.94
266.516	-17.41
266.732	-44.03
266.948	-39.94
267.164	15.36
267.38	17.41
267.596	68.61
267.812	-7.17
268.028	29.7
268.244	-21.5
268.46	44.03
268.676	17.41
268.892	19.46
269.108	15.36
269.324	-62.46
269.54	-19.46
269.756	-21.5
269.972	60.42
270.188	54.27
270.403	-11.26
270.619	21.5
270.835	7.17
271.051	44.03
271.267	-19.46
271.483	-25.6
271.698	-1.02
271.914	44.03
272.13	-11.26
272.346	19.46
272.562	5.12
272.777	80.89
272.993	9.22
273.209	11.26
273.425	23.55
273.64	15.36
273.856	21.5
274.072	-25.6
274.287	58.37
274.503	-23.55
274.719	-15.36
274.934	-23.55
275.15	-60.42
275.366	29.7
275.581	23.55
275.797	44.03
276.012	111.61
276.228	-62.46
276.444	56.32
276.659	25.6
276.875	-9.22
277.09	-17.41
277.306	35.84
277.521	-37.89
277.737	41.98
277.952	15.36
278.168	19.46
278.383	80.89
278.599	-50.18
278.814	-33.79
279.03	9.22
279.245	7.17
279.461	19.46
279.676	-91.13
279.892	-3.07
280.107	-1.02
280.322	-64.51
280.538	91.13
280.753	70.65
280.969	-29.7
281.184	9.22
281.399	60.42
281.615	9.22
281.83	-25.6
282.045	-21.5
282.26	15.36
282.476	3.07
282.691	-13.31
282.906	-7.17
283.122	33.79
283.337	15.36
283.552	62.46
283.767	-87.04
283.983	62.46
284.198	13.31
284.413	17.41
284.628	-56.32
284.843	44.03
285.058	19.46
285.274	27.65
285.489	-5.12
285.704	3.07
285.919	25.6
286.134	-78.85
286.349	41.98
286.564	46.08
286.779	58.37
286.995	52.22
287.21	15.36
287.425	-5.12
287.64	-68.61
287.855	-50.18
288.07	76.8
288.285	39.94
288.5	33.79
288.715	39.94
288.93	80.89
289.145	5.12
289.36	21.5
289.575	5.12
289.79	1.02
290.004	21.5
290.219	11.26
290.434	29.7
290.649	-7.17
290.864	-17.41
291.079	29.7
291.294	13.31
291.509	41.98
291.724	-1.02
291.938	3.07
292.153	52.22
292.368	17.41
292.583	-3.07
292.798	1.02
293.012	15.36
293.227	44.03
293.442	44.03
293.657	-15.36
293.871	-64.51
294.086	74.75
294.301	-5.12
294.516	29.7
294.73	27.65
294.945	-15.36
295.16	11.26
295.374	-58.37
295.589	21.5
295.804	19.46
296.018	-13.31
296.233	93.18
296.447	21.5
296.662	-25.6
296.877	74.75
297.091	-50.18
297.306	5.12
297.52	3.07
297.735	103.42
297.949	31.74
298.164	3.07
298.378	-33.79
298.593	-13.31
298.807	19.46
299.022	72.7
299.236	-13.31
299.451	-72.7
299.665	103.42
299.88	54.27
300.094	-66.56
300.309	15.36
300.523	15.36
300.737	37.89
300.952	66.56
301.166	-15.36
301.381	-11.26
301.595	44.03
301.809	-15.36
302.024	-17.41
302.238	-13.31
302.452	9.22
302.667	3.07
302.881	41.98
303.095	84.99
303.309	23.55
303.524	52.22
303.738	115.71
303.952	48.13
304.166	-1.02
304.381	-54.27
304.595	72.7
304.809	1.02
305.023	44.03
305.237	62.46
305.452	19.46
305.666	27.65
305.88	-11.26
306.094	-11.26
306.308	-48.13
306.522	39.94
306.736	21.5
306.95	-101.37
307.164	44.03
307.379	21.5
307.593	64.51
307.807	-3.07
308.021	58.37
308.235	-15.36
308.449	-1.02
308.663	50.18
308.877	76.8
309.091	31.74
309.305	-29.7
309.519	41.98
309.733	-29.7
309.947	-52.22
310.161	62.46
310.374	3.07
310.588	-9.22
310.802	27.65
311.016	11.26
311.23	19.46
311.444	13.31
311.658	7.17
311.872	64.51
312.085	3.07
312.299	48.13
312.513	9.22
312.727	52.22
312.941	-35.84
313.154	19.46
313.368	19.46
313.582	41.98
313.796	27.65
314.009	5.12
314.223	-29.7
314.437	41.98
314.651	35.84
314.864	-17.41
315.078	44.03
315.292	-9.22
315.505	35.84
315.719	23.55
315.933	33.79
316.146	-68.61
316.36	72.7
316.573	87.04
316.787	54.27
317.001	-54.27
317.214	-19.46
317.428	11.26
317.641	9.22
317.855	1.02
318.068	7.17
318.282	91.13
318.495	29.7
318.709	3.07
318.922	-23.55
319.136	58.37
319.349	58.37
319.563	58.37
319.776	-3.07
319.99	-3.07
320.203	13.31
320.417	7.17
320.63	41.98
320.843	29.7
321.057	84.99
321.27	17.41
321.483	-5.12
321.697	-1.02
321.91	35.84
322.124	35.84
322.337	-3.07
322.55	25.6
322.763	46.08
322.977	50.18
323.19	7.17
323.403	-29.7
323.617	15.36
323.83	-13.31
324.043	7.17
324.256	11.26
324.469	33.79
324.683	1.02
324.896	48.13
325.109	84.99
325.322	-7.17
325.535	5.12
325.748	9.22
325.962	-17.41
326.175	11.26
326.388	103.42
326.601	119.81
326.814	15.36
327.027	46.08
327.24	-19.46
327.453	-1.02
327.666	23.55
327.879	58.37
328.092	44.03
328.305	7.17
328.518	46.08
328.731	-21.5
328.944	62.46
329.157	13.31
329.37	-27.65
329.583	-7.17
329.796	21.5
330.009	44.03
330.222	-13.31
330.435	13.31
330.648	-5.12
330.861	13.31
331.073	13.31
331.286	-7.17
331.499	113.66
331.712	3.07
331.925	29.7
332.138	-19.46
332.35	50.18
332.563	72.7
332.776	-9.22
332.989	44.03
333.202	84.99
333.414	25.6
333.627	11.26
333.84	17.41
334.053	-11.26
334.265	7.17
334.478	9.22
334.691	3.07
334.903	-62.46
335.116	15.36
335.329	-5.12
335.541	99.33
335.754	7.17
335.966	5.12
336.179	35.84
336.392	37.89
336.604	3.07
336.817	21.5
337.029	-11.26
337.242	15.36
337.454	-1.02
337.667	3.07
337.88	56.32
338.092	-19.46
338.305	27.65
338.517	3.07
338.729	35.84
338.942	7.17
339.154	44.03
339.367	13.31
339.579	11.26
339.792	19.46
340.004	52.22
340.217	-13.31
340.429	-3.07
340.641	9.22
340.854	89.09
341.066	1.02
341.278	97.28
341.491	84.99
341.703	50.18
341.915	-33.79
342.128	19.46
342.34	76.8
342.552	7.17
342.764	25.6
342.977	19.46
343.189	62.46
343.401	78.85
343.613	93.18
343.826	-27.65
344.038	-3.07
344.25	7.17
344.462	13.31
344.674	-58.37
344.886	-1.02
345.099	52.22
345.311	23.55
345.523	74.75
345.735	91.13
345.947	25.6
346.159	-13.31
346.371	-19.46
346.583	19.46
346.795	19.46
347.007	11.26
347.219	37.89
347.431	58.37
347.643	52.22
347.855	27.65
348.067	29.7
348.279	19.46
348.491	23.55
348.703	31.74
348.915	27.65
349.127	72.7
349.339	-13.31
349.551	44.03
349.763	-11.26
349.975	-7.17
350.187	29.7
350.399	62.46
350.61	33.79
350.822	11.26
351.034	44.03
351.246	35.84
351.458	17.41
351.669	-52.22
351.881	-13.31
352.093	19.46
352.305	54.27
352.517	13.31
352.728	27.65
352.94	66.56
353.152	39.94
353.363	27.65
353.575	-19.46
353.787	-25.6
353.999	66.56
354.21	37.89
354.422	-23.55
354.633	-44.03
354.845	-29.7
355.057	70.65
355.268	27.65
355.48	44.03
355.692	95.23
355.903	52.22
356.115	-11.26
356.326	44.03
356.538	-33.79
356.749	11.26
356.961	25.6
357.172	-21.5
357.384	46.08
357.595	39.94
357.807	21.5
358.018	9.22
358.23	25.6
358.441	-9.22
358.653	70.65
358.864	-21.5
359.075	11.26
359.287	84.99
359.498	48.13
359.709	-33.79
359.921	39.94
360.132	37.89
360.344	-19.46
360.555	11.26
360.766	41.98
360.977	-29.7
361.189	25.6
361.4	44.03
361.611	37.89
361.823	19.46
362.034	35.84
362.245	-3.07
362.456	-1.02
362.667	52.22
362.879	27.65
363.09	-7.17
363.301	33.79
363.512	-3.07
363.723	-62.46
363.935	44.03
364.146	-3.07
364.357	54.27
364.568	52.22
364.779	31.74
364.99	27.65
365.201	41.98
365.412	29.7
365.623	9.22
365.834	56.32
366.045	76.8
366.256	62.46
366.467	-15.36
366.678	-5.12
366.889	19.46
367.1	5.12
367.311	41.98
367.522	-29.7
367.733	15.36
367.944	-19.46
368.155	25.6
368.366	-5.12
368.577	76.8
368.788	60.42
368.999	-66.56
369.209	1.02
369.42	23.55
369.631	37.89
369.842	13.31
370.053	35.84
370.264	29.7
370.474	17.41
370.685	21.5
370.896	-19.46
371.107	5.12
371.317	60.42
371.528	39.94
371.739	21.5
371.95	37.89
372.16	27.65
372.371	29.7
372.582	23.55
372.792	-35.84
373.003	48.13
373.214	37.89
373.424	31.74
373.635	31.74
373.846	-7.17
374.056	72.7
374.267	31.74
374.477	48.13
374.688	23.55
374.898	-3.07
375.109	-9.22
375.319	-1.02
375.53	107.52
375.74	60.42
375.951	-15.36
376.161	138.24
376.372	35.84
376.582	80.89
376.793	60.42
377.003	-21.5
377.214	19.46
377.424	29.7
377.635	-5.12
377.845	-11.26
378.055	21.5
378.266	64.51
378.476	58.37
378.686	89.09
378.897	52.22
379.107	-5.12
379.317	9.22
379.528	1.02
379.738	29.7
379.948	-23.55
380.158	70.65
380.369	119.81
380.579	23.55
380.789	39.94
380.999	-23.55
381.21	-27.65
381.42	-27.65
381.63	56.32
381.84	76.8
382.05	80.89
382.261	19.46
382.471	19.46
382.681	35.84
382.891	19.46
383.101	44.03
383.311	72.7
383.521	70.65
383.731	39.94
383.941	27.65
384.151	31.74
384.361	44.03
384.571	15.36
384.781	-13.31
384.991	50.18
385.201	19.46
385.411	48.13
385.621	62.46
385.831	52.22
386.041	97.28
386.251	-9.22
386.461	54.27
386.671	33.79
386.881	27.65
387.091	11.26
387.301	62.46
387.511	35.84
387.72	3.07
387.93	21.5
388.14	19.46
388.35	39.94
388.56	72.7
388.769	-33.79
388.979	44.03
389.189	27.65
389.399	66.56
389.609	76.8
389.818	35.84
390.028	50.18
390.238	-1.02
390.447	56.32
390.657	23.55
390.867	109.57
391.076	9.22
391.286	101.37
391.496	3.07
391.705	11.26
391.915	-21.5
392.125	68.61
392.334	-19.46
392.544	52.22
392.753	46.08
392.963	7.17
393.172	-13.31
393.382	99.33
393.591	19.46
393.801	54.27
394.01	27.65
394.22	44.03
394.429	15.36
394.639	54.27
394.848	60.42
395.058	-17.41
395.267	64.51
395.477	64.51
395.686	68.61
395.895	91.13
396.105	72.7
396.314	48.13
396.524	89.09
396.733	50.18
396.942	11.26
397.152	68.61
397.361	74.75
397.57	72.7
397.78	58.37
397.989	91.13
398.198	125.95
398.407	70.65
398.617	-3.07
398.826	39.94
399.035	48.13
399.244	142.33
399.453	66.56
399.663	25.6
399.872	117.76
400.081	39.94
400.29	125.95
400.499	125.95
400.708	164.86
400.917	87.04
401.127	134.14
401.336	60.42
401.545	68.61
401.754	99.33
401.963	62.46
402.172	144.38
402.381	62.46
402.59	152.57
402.799	164.86
403.008	41.98
403.217	95.23
403.426	68.61
403.635	121.85
403.844	70.65
404.053	168.96
404.262	101.37
404.471	84.99
404.68	175.1
404.888	111.61
405.097	119.81
405.306	125.95
405.515	171.01
405.724	164.86
405.933	191.49
406.142	136.19
406.35	191.49
406.559	166.91
406.768	144.38
406.977	158.72
407.185	183.29
407.394	166.91
407.603	171.01
407.812	224.25
408.02	261.12
408.229	197.63
408.438	128
408.646	234.49
408.855	246.78
409.064	267.26
409.272	211.96
409.481	300.03
409.69	275.45
409.898	277.5
410.107	324.6
410.315	234.49
410.524	297.98
410.733	326.65
410.941	314.36
411.15	297.98
411.358	295.93
411.567	334.84
411.775	420.86
411.984	388.09
412.192	429.05
412.401	408.57
412.609	404.47
412.818	431.1
413.026	480.25
413.234	560.12
413.443	455.67
413.651	457.72
413.86	431.1
414.068	519.16
414.276	547.83
414.485	541.69
414.693	562.17
414.901	639.99
415.11	599.03
415.318	619.51
415.526	562.17
415.734	717.81
415.943	717.81
416.151	707.57
416.359	752.63
416.567	680.95
416.776	814.07
416.984	887.79
417.192	932.85
417.4	863.22
417.608	898.03
417.817	877.55
418.025	928.75
418.233	1037.3
418.441	1135.6
418.649	1119.21
418.857	1180.65
419.065	1217.52
419.273	1258.48
419.481	1307.63
419.689	1258.48
419.897	1289.2
420.105	1410.03
420.313	1514.47
420.521	1526.76
420.729	1553.38
420.937	1606.63
421.145	1596.39
421.353	1627.11
421.561	1674.21
421.769	1823.72
421.977	1850.34
422.185	1788.9
422.393	1954.79
422.601	2010.08
422.809	2079.71
423.017	2067.42
423.224	2104.29
423.432	2272.22
423.64	2247.65
423.848	2431.96
424.056	2419.68
424.263	2667.48
424.471	2624.47
424.679	2661.34
424.887	2841.56
425.094	2829.27
425.302	2892.76
425.51	3025.87
425.718	3034.07
425.925	3120.08
426.133	3281.87
426.341	3355.6
426.548	3519.43
426.756	3584.97
426.964	3576.78
427.171	3843.01
427.379	3836.87
427.586	3933.12
427.794	4123.59
428.001	4295.61
428.209	4545.47
428.417	4426.68
428.624	4713.4
428.832	4676.54
429.039	4836.28
429.247	4862.9
429.454	5245.87
429.662	5575.59
429.869	5053.36
430.076	5321.65
430.284	5258.16
430.491	5653.42
430.699	5804.97
430.906	5759.91
431.114	6022.05
431.321	6251.42
431.528	6382.49
431.736	6513.56
431.943	7025.56
432.15	6843.29
432.358	7005.08
432.565	7287.7
432.772	7252.88
432.979	7621.52
433.187	7771.02
433.394	7877.51
433.601	8391.55
433.808	8360.83
434.016	8211.33
434.223	8797.05
434.43	9190.26
434.637	9059.19
434.844	9610.09
435.052	9692.01
435.259	9587.57
435.466	9825.13
435.673	9810.79
435.88	10359.65
436.087	10971.99
436.294	10840.92
436.501	10492.77
436.708	10863.45
436.915	10881.88
437.122	11799.37
437.329	11529.04
437.537	11813.71
437.743	12176.2
437.95	12030.79
438.157	12737.34
438.364	13136.7
438.571	13347.64
438.778	13042.49
438.985	14332.71
439.192	13728.56
439.399	13986.6
439.606	14054.19
439.813	14893.85
440.02	15571.73
440.227	15391.51
440.433	15127.32
440.64	15641.36
440.847	15391.51
441.054	15964.94
441.261	16792.32
441.467	16853.76
441.674	17296.12
441.881	17752.82
442.088	17765.1
442.294	17349.37
442.501	18143.98
442.708	18586.34
442.914	19444.44
443.121	20019.92
443.328	19632.85
443.534	20638.41
443.741	20298.44
443.948	19991.25
444.154	21494.46
444.361	21496.5
444.568	21629.62
444.774	21373.63
444.981	21623.48
445.187	22147.76
445.394	23505.56
445.6	22891.17
445.807	25139.84
446.013	24068.75
446.22	24339.08
446.426	25092.74
446.633	25533.05
446.839	26524.27
447.046	25350.78
447.252	26714.73
447.459	26903.14
447.665	26714.73
447.871	27712.09
448.078	29086.28
448.284	27978.33
448.491	28312.14
448.697	29430.33
448.903	29901.37
449.11	30108.21
449.316	29768.25
449.522	29973.05
449.728	31212.07
449.935	31228.45
450.141	31052.33
450.347	31869.47
450.553	31068.71
450.76	31171.11
450.966	32375.31
451.172	31998.49
451.378	32971.27
451.584	32182.8
451.791	32920.07
451.997	33083.91
452.203	33280.52
452.409	33145.35
452.615	32889.35
452.821	31787.55
453.027	31699.48
453.233	33194.5
453.44	31824.41
453.646	32295.44
453.852	32461.33
454.058	33022.47
454.264	32029.21
454.47	32662.03
454.676	31877.66
454.882	32776.72
455.088	30112.31
455.294	30448.18
455.5	30927.4
455.705	31037.99
455.911	29772.35
456.117	29227.59
456.323	29135.43
456.529	27664.99
456.735	28463.69
456.941	27859.54
457.147	27556.44
457.352	26411.63
457.558	26350.19
457.764	26374.77
457.97	26088.05
458.176	25365.12
458.381	25223.81
458.587	24070.8
458.793	24382.09
458.999	22964.9
459.204	24482.44
459.41	23659.16
459.616	22305.45
459.821	22289.07
460.027	22284.97
460.233	21600.95
460.438	20978.37
460.644	20961.98
460.85	19958.48
461.055	19577.56
461.261	19716.82
461.466	17965.81
461.672	17748.72
461.878	19061.47
462.083	17838.83
462.289	17365.75
462.494	16960.25
462.7	16544.52
462.905	15833.87
463.111	16476.93
463.316	16591.62
463.522	16325.38
463.727	16247.56
463.932	16251.66
464.138	16233.22
464.343	16370.44
464.549	15633.17
464.754	16388.87
464.959	15952.65
465.165	15923.98
465.37	15194.9
465.575	14971.68
465.781	15577.87
465.986	15557.39
466.191	15004.44
466.397	14666.53
466.602	14048.04
466.807	14482.21
467.012	14502.69
467.218	14498.59
467.423	14318.37
467.628	14181.16
467.833	14717.73
468.038	14373.67
468.244	14052.14
468.449	14646.05
468.654	14076.71
468.859	14175.02
469.064	13990.7
469.269	13300.53
469.474	13527.86
469.679	13552.43
469.885	13355.83
470.09	13278.01
470.295	13396.79
470.5	13026.11
470.705	13081.4
470.91	12870.46
471.115	12792.64
471.32	12915.51
471.525	12548.93
471.73	12815.16
471.935	12550.98
472.139	12036.94
472.344	12108.62
472.549	12036.94
472.754	12116.81
472.959	11809.61
473.164	11371.35
473.369	11332.44
473.574	11705.17
473.778	11578.19
473.983	11406.16
474.188	11510.61
474.393	10924.89
474.598	11031.38
474.802	11064.15
475.007	10918.75
475.212	10849.11
475.417	10433.38
475.621	10394.47
475.826	10511.2
476.031	10386.27
476.235	10095.46
476.44	10369.89
476.645	10208.1
476.849	10163.04
477.054	10060.65
477.259	9802.6
477.463	9833.32
477.668	9685.87
477.872	9831.27
478.077	9694.06
478.282	9263.99
478.486	9259.89
478.691	9032.57
478.895	9132.92
479.1	9040.76
479.304	9173.88
479.509	8776.57
479.713	9063.29
479.918	8708.99
480.122	8416.13
480.326	8903.54
480.531	8733.56
480.735	8745.85
480.94	8500.09
481.144	8907.64
481.348	8375.17
481.553	8854.39
481.757	8496
481.961	8575.87
482.166	8661.88
482.37	8582.01
482.574	8287.11
482.778	8287.11
482.983	8647.55
483.187	8565.63
483.391	8582.01
483.595	8424.32
483.8	8356.74
484.004	8448.9
484.208	8647.55
484.412	8483.71
484.616	8604.54
484.821	8352.64
485.025	8278.91
485.229	8620.92
485.433	8313.73
485.637	8434.56
485.841	8371.07
486.045	8340.35
486.249	8434.56
486.453	8387.46
486.657	8498.05
486.861	8270.72
487.065	8356.74
487.269	8330.11
487.473	8207.23
487.677	8510.33
487.881	8502.14
488.085	8571.77
488.289	8500.09
488.493	8287.11
488.697	8457.09
488.901	8446.85
489.105	8481.66
489.309	8483.71
489.512	8506.24
489.716	8274.82
489.92	8563.58
490.124	8352.64
490.328	8706.94
490.531	8563.58
490.735	8491.9
490.939	8571.77
491.143	8835.96
491.346	8645.5
491.55	8907.64
491.754	8780.67
491.958	8743.8
492.161	8639.36
492.365	8704.89
492.569	9046.9
492.772	8825.72
492.976	9141.11
493.18	9020.28
493.383	9233.27
493.587	9227.12
493.79	9212.79
493.994	9401.2
494.197	9200.5
494.401	9397.1
494.605	9476.98
494.808	9692.01
495.012	9538.41
495.215	9567.09
495.419	9884.52
495.622	9829.23
495.825	9859.95
496.029	9661.29
496.232	9976.68
496.436	10081.13
496.639	10181.48
496.843	10140.52
497.046	10357.6
497.249	10451.81
497.453	10736.48
497.656	10875.74
497.859	10797.92
498.063	10842.97
498.266	11168.6
498.469	11070.3
498.673	11123.54
498.876	11385.68
499.079	11400.02
499.282	11498.32
499.485	11651.92
499.689	11858.76
499.892	11942.73
500.095	12161.86
500.298	12407.62
500.501	12249.93
500.705	12596.03
500.908	12632.9
501.111	12858.17
501.314	12825.4
501.517	13065.02
501.72	13439.79
501.923	13108.02
502.126	13380.4
502.329	13601.58
502.532	14023.47
502.735	13865.77
502.938	14191.4
503.141	14265.13
503.344	14504.74
503.547	14566.18
503.75	14990.11
503.953	15180.57
504.156	15354.65
504.359	15110.94
504.562	15387.41
504.765	15840.01
504.968	16010
505.17	16048.91
505.373	16325.38
505.576	16548.61
505.779	16616.19
505.982	16671.49
506.185	17001.21
506.387	16907.01
506.59	17324.79
506.793	17457.91
506.996	17502.96
507.198	18053.87
507.401	18082.54
507.604	18092.78
507.807	18911.97
508.009	18606.82
508.212	18907.87
508.415	18991.84
508.617	19692.24
508.82	19600.08
509.022	19387.1
509.225	20175.56
509.428	20169.42
509.63	20445.9
509.833	20374.22
510.035	20925.12
510.238	20761.28
510.44	21396.15
510.643	21736.12
510.845	21873.33
511.048	21662.39
511.25	22530.73
511.453	22317.74
511.655	23020.19
511.858	22794.92
512.06	23200.41
512.262	23571.1
512.465	23726.74
512.667	23876.24
512.87	24109.71
513.072	24396.43
513.274	24793.73
513.477	24836.74
513.679	25211.52
513.881	25401.98
514.084	25698.94
514.286	25768.57
514.488	25879.16
514.69	26552.94
514.893	26716.78
515.095	26772.07
515.297	27439.71
515.499	27359.84
515.701	28029.52
515.904	28226.13
516.106	28383.82
516.308	28500.56
516.51	28867.14
516.712	29092.42
516.914	29235.78
517.116	29780.54
517.318	30317.11
517.52	30630.44
517.722	30310.96
517.925	30618.16
518.127	31371.81
518.329	31509.02
518.531	31425.06
518.733	31914.52
518.935	32342.55
519.136	32406.03
519.338	32987.66
519.54	33034.76
519.742	33479.17
519.944	33808.89
520.146	34269.69
520.348	34218.49
520.55	34654.7
520.752	34636.27
520.954	35471.84
521.155	35049.96
521.357	35834.33
521.559	35957.21
521.761	36299.22
521.963	36325.85
522.164	36547.03
522.366	36868.56
522.568	37450.18
522.77	37626.31
522.971	37761.47
523.173	37429.7
523.375	38216.12
523.576	38316.47
523.778	38533.56
523.98	38545.84
524.181	39109.04
524.383	39221.67
524.584	39514.53
524.786	39690.66
524.988	39682.47
525.189	39932.32
525.391	40198.55
525.592	40692.12
525.794	40784.27
525.995	40513.94
526.197	41183.63
526.398	40778.13
526.6	40989.07
526.801	41499.01
527.003	41509.25
527.204	41748.87
527.406	42367.35
527.607	41959.81
527.808	42897.78
528.01	41949.57
528.211	41998.72
528.412	43260.27
528.614	43159.92
528.815	43088.24
529.016	43260.27
529.218	43159.92
529.419	43280.75
529.62	43125.1
529.822	43204.97
530.023	43559.27
530.224	43366.76
530.425	43247.98
530.626	43198.83
530.828	43196.78
531.029	44747.09
531.23	43491.69
531.431	43848.03
531.632	44374.36
531.833	44067.17
532.035	44220.77
532.236	44431.71
532.437	44548.44
532.638	43923.81
532.839	44003.68
533.04	44413.27
533.241	44173.66
533.442	45396.3
533.643	44413.27
533.844	44267.87
534.045	44519.77
534.246	44312.92
534.447	45087.06
534.648	44343.64
534.849	44595.54
535.05	44147.04
535.251	44716.37
535.451	44548.44
535.652	44667.22
535.853	44966.23
536.054	44747.09
536.255	44710.23
536.456	44509.53
536.657	45341
536.857	44630.36
537.058	44417.37
537.259	45211.98
537.46	44890.45
537.66	44673.37
537.861	44865.88
538.062	44634.45
538.263	44497.24
538.463	44593.5
538.664	44677.46
538.865	44884.31
539.065	45097.3
539.266	44579.16
539.466	45146.45
539.667	44431.71
539.868	45390.16
540.068	44745.05
540.269	44892.5
540.469	44595.54
540.67	44394.84
540.87	44882.26
541.071	44824.92
541.271	44906.83
541.472	45220.17
541.672	44683.61
541.873	44196.19
542.073	44032.35
542.274	45312.33
542.474	44708.18
542.675	44718.42
542.875	45142.35
543.075	44755.29
543.276	44271.96
543.476	45324.62
543.676	44159.33
543.877	44964.18
544.077	44474.71
544.277	44499.29
544.478	44714.33
544.678	44751.19
544.878	44829.01
545.078	44302.68
545.279	43995.49
545.479	44419.42
545.679	44464.47
545.879	44687.7
546.079	44919.12
546.28	44638.55
546.48	44169.57
546.68	44493.15
546.88	44675.41
547.08	44415.32
547.28	44384.6
547.48	43854.18
547.68	44460.38
547.88	44380.51
548.081	44212.57
548.281	44431.71
548.481	44159.33
548.681	44673.37
548.881	44353.88
549.081	44597.59
549.28	44044.64
549.48	44439.9
549.68	44530.01
549.88	44994.9
550.08	43987.3
550.28	44321.12
550.48	44243.29
550.68	44874.07
550.88	44091.74
551.08	44314.97
551.279	44085.6
551.479	44054.88
551.679	44505.43
551.879	44042.59
552.079	44464.47
552.278	43934.05
552.478	44636.5
552.678	44237.15
552.878	44513.62
553.077	44138.85
553.277	44077.41
553.477	44323.16
553.676	44028.26
553.876	44151.13
554.076	43852.13
554.275	43780.45
554.475	43563.37
554.674	43929.95
554.874	43936.1
555.074	43829.6
555.273	43934.05
555.473	44206.43
555.672	43692.39
555.872	43557.22
556.071	43659.62
556.271	44357.98
556.47	43082.09
556.67	43331.95
556.869	43358.57
557.068	43704.68
557.268	43417.96
557.467	42912.11
557.667	43592.04
557.866	43307.37
558.065	43223.4
558.265	43176.3
558.464	42918.26
558.663	43436.39
558.863	42735.99
559.062	43628.9
559.261	42830.19
559.461	43088.24
559.66	42697.08
559.859	42576.25
560.058	42766.71
560.258	42692.98
560.457	42244.48
560.656	42756.47
560.855	42576.25
561.054	42404.22
561.253	42158.46
561.453	42207.61
561.652	42408.31
561.851	42211.71
562.05	42385.79
562.249	42101.12
562.448	42301.82
562.647	41951.62
562.846	42076.54
563.045	41998.72
563.244	41171.34
563.443	42297.72
563.642	41427.34
563.841	41695.62
564.04	41433.48
564.239	42125.69
564.438	41396.62
564.637	41472.39
564.836	41589.13
565.035	40929.68
565.234	41288.07
565.432	41017.74
565.631	40663.44
565.83	40950.16
566.029	41372.04
566.228	40853.9
566.427	41187.72
566.625	40724.88
566.824	40284.57
567.023	40804.75
567.222	39913.89
567.42	40542.61
567.619	40450.45
567.818	40346.01
568.016	40540.57
568.215	40470.93
568.414	40012.19
568.612	40264.09
568.811	39938.46
569.01	39840.16
569.208	39711.14
569.407	39989.66
569.605	39154.09
569.804	39803.3
570.002	39279.02
570.201	39952.8
570.4	38523.32
570.598	39045.55
570.797	39135.66
570.995	38982.06
571.193	38789.55
571.392	38980.01
571.59	38408.63
571.789	38621.62
571.987	38154.68
572.186	38797.74
572.384	38009.28
572.582	38465.97
572.781	38187.45
572.979	37779.9
573.177	37994.94
573.376	38060.48
573.574	37503.43
573.772	37804.48
573.971	37466.56
574.169	37439.94
574.367	37245.38
574.565	37292.49
574.763	36735.44
574.962	36665.81
575.16	36698.58
575.358	36837.84
575.556	36841.93
575.754	36868.56
575.952	36565.46
576.151	36735.44
576.349	35783.13
576.547	36415.96
576.745	36323.8
576.943	36227.54
577.141	36305.37
577.339	36149.72
577.537	35572.19
577.735	35643.87
577.933	35381.73
578.131	35877.34
578.329	35271.14
578.527	35123.69
578.725	34814.44
578.923	35471.84
579.121	35152.36
579.319	34699.76
579.516	35217.89
579.714	35006.95
579.912	34466.29
580.11	34796.01
580.308	34413.04
580.506	34331.12
580.704	33716.73
580.901	34279.92
581.099	34355.7
581.297	33839.61
581.495	33700.35
581.692	34028.02
581.89	33622.53
582.088	33937.91
582.285	33567.23
582.483	33782.27
582.681	33554.94
582.878	33253.89
583.076	33010.18
583.274	33143.3
583.471	32852.49
583.669	33106.44
583.866	32731.66
584.064	32772.62
584.262	32664.08
584.459	32676.37
584.657	32457.23
584.854	32645.65
585.052	31992.34
585.249	32473.62
585.447	31879.71
585.644	31861.27
585.841	32033.3
586.039	32252.44
586.236	31885.85
586.434	31326.75
586.631	31357.47
586.828	31523.36
587.026	31529.5
587.223	31279.65
587.42	31365.67
587.618	31375.91
587.815	30886.44
588.012	30855.72
588.21	31109.67
588.407	31322.66
588.604	30698.03
588.801	30552.62
588.999	30599.73
589.196	30784.04
589.393	30706.22
589.59	30556.72
589.787	29985.33
589.984	30122.55
590.182	29901.37
590.379	30231.09
590.576	30169.65
590.773	29583.93
590.97	29952.57
591.167	29852.22
591.364	29424.19
591.561	29667.9
591.758	28973.64
591.955	29291.07
592.152	29596.22
592.349	29141.57
592.546	29440.57
592.743	29227.59
592.94	28693.07
593.137	29139.52
593.334	29123.14
593.531	28478.03
593.727	28478.03
593.924	28516.94
594.121	28262.99
594.318	28398.16
594.515	28101.2
594.712	28344.91
594.908	28095.06
595.105	28424.78
595.302	27978.33
595.499	28123.73
595.696	28019.28
595.892	27548.25
596.089	27667.03
596.286	27771.48
596.482	27650.65
596.679	27425.37
596.876	27626.07
597.072	27144.8
597.269	27595.35
597.466	27165.28
597.662	27163.23
597.859	27083.36
598.055	27241.06
598.252	26483.31
598.448	26788.46
598.645	26866.28
598.841	26202.74
599.038	26335.85
599.234	26411.63
599.431	26042.99
599.627	26163.82
599.824	26468.97
600.02	26231.41
600.217	26155.63
600.413	26114.67
600.609	25760.37
600.806	25942.64
601.002	25948.79
601.198	25584.25
601.395	25131.65
601.591	25442.94
601.787	25225.86
601.984	25266.81
602.18	25367.16
602.376	25232
602.572	25014.91
602.769	24922.76
602.965	24777.35
603.161	24961.67
603.357	24607.37
603.553	24758.92
603.75	24658.57
603.946	24421
604.142	24453.77
604.338	24244.88
604.534	24220.3
604.73	24201.87
604.926	24341.13
605.122	24015.51
605.318	23995.03
605.514	23825.04
605.71	23716.5
605.906	23636.63
606.102	23636.63
606.298	23814.8
606.494	23554.71
606.69	23429.79
606.886	23749.27
607.082	23218.85
607.278	23329.44
607.474	22825.64
607.67	23173.79
607.866	22948.51
608.062	23270.04
608.257	22981.28
608.453	22760.1
608.649	23108.26
608.845	22948.51
609.041	22778.53
609.236	22825.64
609.432	22639.27
609.628	22557.35
609.824	22368.94
610.019	22450.86
610.215	22561.45
610.411	22520.49
610.606	22350.51
610.802	22219.44
610.998	22270.64
611.193	22178.48
611.389	22020.78
611.584	21875.38
611.78	21736.12
611.976	21881.52
612.171	22055.6
612.367	21824.18
612.562	21650.1
612.758	21469.88
612.953	21699.25
613.149	21633.72
613.344	21240.51
613.539	21598.9
613.735	21504.7
613.93	21498.55
614.126	21293.76
614.321	21451.45
614.517	20949.7
614.712	20953.79
614.907	21283.52
615.103	21256.89
615.298	21246.65
615.493	21174.97
615.688	20761.28
615.884	21283.52
616.079	20851.39
616.274	20906.69
616.47	20839.11
616.665	20708.04
616.86	20691.65
617.055	20679.36
617.25	20372.17
617.445	20644.55
617.641	20275.91
617.836	20605.64
618.031	20159.18
618.226	20507.34
618.421	20138.7
618.616	20148.94
618.811	19712.72
619.006	20257.48
619.201	19624.66
619.396	19786.45
619.591	19370.71
619.786	19858.13
619.981	19116.76
620.176	19763.92
620.371	19026.65
620.566	19370.71
620.761	19499.73
620.956	19301.08
621.151	18952.93
621.346	18979.55
621.541	18770.66
621.735	18778.85
621.93	18586.34
622.125	18694.88
622.32	18232.04
622.515	18596.58
622.709	18219.75
622.904	18289.38
623.099	18393.83
623.294	18242.28
623.488	17787.63
623.683	17910.51
623.878	17646.32
624.072	17824.5
624.267	17527.54
624.462	17558.26
624.656	17216.25
624.851	17189.63
625.046	17316.6
625.24	17038.08
625.435	17009.4
625.629	16786.18
625.824	16747.26
626.018	16657.15
626.213	16546.56
626.407	16698.11
626.602	16171.79
626.796	16306.95
626.991	16317.19
627.185	16519.94
627.38	15938.32
627.574	16073.48
627.768	15864.59
627.963	15870.73
628.157	15649.55
628.352	15686.42
628.546	15420.18
628.74	15696.66
628.935	15446.8
629.129	15450.9
629.323	15301.4
629.517	15072.03
629.712	15063.83
629.906	15031.07
630.1	14934.81
630.294	14787.36
630.489	14795.55
630.683	14975.77
630.877	14521.12
631.071	14611.23
631.265	14560.03
631.459	14469.92
631.653	14222.12
631.848	14385.96
632.042	14361.38
632.236	14299.94
632.43	13869.87
632.624	14013.23
632.818	14023.47
633.012	13941.55
633.206	13790
633.4	13851.44
633.594	13599.54
633.788	13890.35
633.982	13517.62
634.176	13538.1
634.369	13288.25
634.563	13505.33
634.757	13181.75
634.951	13073.21
635.145	13212.47
635.339	13181.75
635.533	12962.62
635.726	12888.89
635.92	12718.91
636.114	12833.6
636.308	12475.2
636.501	12813.12
636.695	12684.09
636.889	12632.9
637.083	12335.94
637.276	12309.32
637.47	12276.55
637.664	12129.09
637.857	12168.01
638.051	12327.75
638.244	12092.23
638.438	12067.66
638.632	11889.48
638.825	11739.98
639.019	11541.33
639.212	11506.51
639.406	11570
639.599	11592.53
639.793	11688.78
639.986	11367.25
640.18	11350.87
640.373	11371.35
640.567	11029.34
640.76	11357.01
640.954	10902.36
641.147	11129.69
641.34	11008.86
641.534	10914.65
641.727	10873.69
641.92	10783.58
642.114	10703.71
642.307	10754.91
642.5	10611.55
642.694	10380.13
642.887	10423.14
643.08	10603.36
643.273	10314.59
643.467	10263.4
643.66	10228.58
643.853	10304.35
644.046	10081.13
644.239	10247.01
644.432	10161
644.626	9941.86
644.819	10054.5
645.012	9859.95
645.205	9851.75
645.398	9882.47
645.591	9872.23
645.784	9847.66
645.977	9550.7
646.17	9507.69
646.363	9513.84
646.556	9343.86
646.749	9436.02
646.942	9347.95
647.135	9259.89
647.328	9384.82
647.521	9231.22
647.714	9073.53
647.907	9108.34
648.099	9118.58
648.292	9057.14
648.485	8840.06
648.678	8651.64
648.871	8711.04
649.064	8561.53
649.256	8813.43
649.449	8610.68
649.642	8526.72
649.835	8557.44
650.027	8395.65
650.22	8489.85
650.413	8334.21
650.605	8313.73
650.798	8254.34
650.991	8338.3
651.183	8205.19
651.376	8221.57
651.568	8096.64
651.761	8186.76
651.954	8164.23
652.146	8084.36
652.339	8082.31
652.531	7799.69
652.724	7902.09
652.916	7652.24
653.109	7926.66
653.301	7832.46
653.494	7637.9
653.686	7535.5
653.879	7773.07
654.071	7568.27
654.263	7484.3
654.456	7443.34
654.648	7713.67
654.84	7261.07
655.033	7320.46
655.225	7572.36
655.417	7179.15
655.61	7254.93
655.802	7089.04
655.994	7113.62
656.186	7195.54
656.379	7072.66
656.571	6865.82
656.763	6900.63
656.955	6802.33
657.148	7023.51
657.34	6777.75
657.532	6818.71
657.724	6722.46
657.916	6605.72
658.108	6519.71
658.3	6648.73
658.492	6699.93
658.684	6509.47
658.876	6517.66
659.068	6450.08
659.26	6405.02
659.452	6400.93
659.644	6392.73
659.836	6316.96
660.028	6171.55
660.22	6286.24
660.412	6284.19
660.604	6151.07
660.796	6263.71
660.988	6015.91
661.18	6075.3
661.372	6067.11
661.563	5985.19
661.755	5966.76
661.947	5954.47
662.139	5868.45
662.331	5802.92
662.522	5794.73
662.714	5794.73
662.906	5807.02
663.097	5755.82
663.289	5700.52
663.481	5757.86
663.673	5743.53
663.864	5485.48
664.056	5520.3
664.247	5561.26
664.439	5381.04
664.631	5422
664.822	5452.72
665.014	5442.48
665.205	5360.56
665.397	5383.09
665.588	5358.51
665.78	5307.31
665.971	5352.37
666.163	5235.63
666.354	5168.05
666.546	5166
666.737	5120.95
666.929	5065.65
667.12	5239.73
667.311	5122.99
667.503	5004.21
667.694	4969.4
667.885	5059.51
668.077	4942.77
668.268	4830.13
668.459	5049.27
668.651	4819.89
668.842	4854.71
669.033	4828.09
669.224	4762.55
669.416	4729.78
669.607	4787.13
669.798	4834.23
669.989	4680.63
670.18	4789.17
670.371	4674.49
670.563	4682.68
670.754	4666.3
670.945	4697.02
671.136	4547.51
671.327	4524.99
671.518	4467.64
671.709	4524.99
671.9	4662.2
672.091	4447.16
672.282	4377.53
672.473	4477.88
672.664	4547.51
672.855	4350.91
673.046	4416.44
673.237	4355.01
673.428	4355.01
673.619	4363.2
673.809	4357.05
674	4133.82
674.191	4182.98
674.382	4180.93
674.573	4289.47
674.764	4166.59
674.954	4225.98
675.145	4109.25
675.336	4101.06
675.527	4178.88
675.717	4207.55
675.908	4111.3
676.099	4045.76
676.289	4041.67
676.48	3992.52
676.671	4045.76
676.861	4025.28
677.052	3959.75
677.243	4053.95
677.433	3998.66
677.624	3949.51
677.814	3931.08
678.005	4047.81
678.195	3898.31
678.386	3853.25
678.576	3935.17
678.767	3675.08
678.957	3861.45
679.148	3982.28
679.338	3861.45
679.529	3718.09
679.719	3769.29
679.909	3871.68
680.1	3713.99
680.29	3754.95
680.481	3822.53
680.671	3845.06
680.861	3656.65
681.052	3646.41
681.242	3806.15
681.432	3789.77
681.622	3707.85
681.813	3544.01
682.003	3675.08
682.193	3673.03
682.383	3711.94
682.573	3621.83
682.764	3707.85
682.954	3462.09
683.144	3523.53
683.334	3619.78
683.524	3564.49
683.714	3582.92
683.904	3482.57
684.094	3535.82
684.284	3648.46
684.474	3650.5
684.664	3451.85
684.854	3611.59
685.044	3470.28
685.234	3544.01
685.424	3455.95
685.614	3462.09
685.804	3486.67
685.994	3427.28
686.184	3474.38
686.374	3470.28
686.564	3386.32
686.753	3472.33
686.943	3482.57
687.133	3339.21
687.323	3390.41
687.513	3392.46
687.702	3275.73
687.892	3337.17
688.082	3337.17
688.272	3343.31
688.461	3255.25
688.651	3402.7
688.841	3279.82
689.03	3306.45
689.22	3298.25
689.41	3271.63
689.599	3224.53
689.789	3251.15
689.979	3218.38
690.168	3314.64
690.358	3167.18
690.547	3204.05
690.737	3283.92
690.926	3156.94
691.116	3216.33
691.305	3224.53
691.495	3109.84
691.684	3181.52
691.874	3126.22
692.063	3242.96
692.252	3027.92
692.442	3103.7
692.631	3130.32
692.82	3140.56
693.01	3130.32
693.199	3236.81
693.388	3099.6
693.578	3148.75
693.767	3179.47
693.956	3193.81
694.146	3105.74
694.335	2997.2
694.524	3136.46
694.713	3058.64
694.902	3070.93
695.092	3148.75
695.281	3275.73
695.47	3171.28
695.659	3023.83
695.848	3109.84
696.037	3171.28
696.226	3087.31
696.415	3152.85
696.604	3062.74
696.793	3025.87
696.982	3038.16
697.171	3091.41
697.36	2941.91
697.549	3056.59
697.738	3122.13
697.927	3011.54
698.116	3095.5
698.305	3064.79
698.494	3064.79
698.683	2984.91
698.872	3150.8
699.061	2929.62
699.25	2956.24
699.438	2890.71
699.627	3021.78
699.816	3036.11
700.005	2995.15
700.193	2956.24
700.382	3001.3
700.571	3001.3
700.76	3087.31
700.948	2898.9
701.137	2931.67
701.326	2939.86
701.514	2882.52
701.703	2903
701.892	2884.56
702.08	2978.77
702.269	2876.37
702.457	2884.56
702.646	2812.89
702.834	2833.36
703.023	2948.05
703.212	2841.56
703.4	3003.35
703.589	2794.45
703.777	2849.75
703.965	2853.84
704.154	2733.01
704.342	2837.46
704.531	2839.51
704.719	2722.77
704.907	2821.08
705.096	2753.49
705.284	2763.73
705.472	2929.62
705.661	2753.49
705.849	2790.36
706.037	2673.62
706.226	2763.73
706.414	2665.43
706.602	2714.58
706.79	2919.38
706.979	2640.86
707.167	2597.85
707.355	2642.9
707.543	2636.76
707.731	2630.62
707.919	2773.97
708.107	2632.66
708.296	2722.77
708.484	2601.94
708.672	2665.43
708.86	2554.84
709.048	2632.66
709.236	2567.13
709.424	2685.91
709.612	2526.17
709.8	2655.19
709.988	2624.47
710.176	2589.66
710.364	2608.09
710.551	2491.35
710.739	2507.74
710.927	2481.11
711.115	2487.26
711.303	2528.22
711.491	2462.68
711.679	2438.11
711.866	2460.63
712.054	2413.53
712.242	2339.8
712.43	2509.79
712.617	2362.33
712.805	2458.59
712.993	2391
713.181	2391
713.368	2397.15
713.556	2264.03
713.744	2270.17
713.931	2395.1
714.119	2280.41
714.306	2380.76
714.494	2399.2
714.682	2251.74
714.869	2386.91
715.057	2243.55
715.244	2237.41
715.432	2261.98
715.619	2280.41
715.807	2239.45
715.994	2251.74
716.182	2255.84
716.369	2270.17
716.556	2190.3
716.744	2194.4
716.931	2161.63
717.119	2307.04
717.306	2218.97
717.493	2188.25
717.681	2198.49
717.868	2169.82
718.055	2194.4
718.242	2155.49
718.43	2200.54
718.617	2161.63
718.804	2132.96
718.991	2022.37
719.179	2100.19
719.366	2048.99
719.553	2032.61
719.74	2108.38
719.927	2042.85
720.114	1977.31
720.301	2137.06
720.488	2012.13
720.676	2096.1
720.863	2034.66
721.05	2069.47
721.237	2069.47
721.424	2061.28
721.611	2010.08
721.798	2036.7
721.985	1850.34
722.172	1973.22
722.358	1942.5
722.545	1926.11
722.732	1924.07
722.919	1960.93
723.106	2001.89
723.293	1862.63
723.48	2044.9
723.667	1960.93
723.853	1850.34
724.04	1858.53
724.227	1919.97
724.414	1876.96
724.6	1827.81
724.787	1797.09
724.974	1895.4
725.161	1881.06
725.347	1813.48
725.534	1836
725.72	1813.48
725.907	1836
726.094	1887.2
726.28	1872.87
726.467	1856.48
726.653	1788.9
726.84	1772.52
727.027	1682.41
727.213	1780.71
727.4	1774.56
727.586	1772.52
727.773	1649.64
727.959	1768.42
728.145	1721.32
728.332	1747.94
728.518	1690.6
728.705	1680.36
728.891	1723.37
729.077	1743.85
729.264	1717.22
729.45	1676.26
729.636	1702.89
729.823	1700.84
730.009	1709.03
730.195	1723.37
730.382	1676.26
730.568	1745.89
730.754	1749.99
730.94	1715.17
731.126	1706.98
731.313	1715.17
731.499	1663.97
731.685	1598.44
731.871	1659.88
732.057	1637.35
732.243	1481.71
732.429	1629.16
732.615	1586.15
732.801	1561.58
732.987	1580.01
733.173	1590.25
733.359	1657.83
733.545	1530.86
733.731	1592.3
733.917	1547.24
734.103	1496.04
734.289	1520.62
734.475	1477.61
734.661	1543.14
734.847	1555.43
735.033	1493.99
735.219	1543.14
735.404	1584.1
735.59	1522.66
735.776	1530.86
735.962	1561.58
736.148	1479.66
736.333	1471.47
736.519	1391.59
736.705	1489.9
736.89	1438.7
737.076	1485.8
737.262	1407.98
737.447	1440.75
737.633	1399.79
737.819	1387.5
738.004	1344.49
738.19	1399.79
738.375	1403.88
738.561	1444.84
738.747	1469.42
738.932	1395.69
739.118	1426.41
739.303	1438.7
739.489	1332.2
739.674	1375.21
739.859	1285.1
740.045	1281
740.23	1309.68
740.416	1483.75
740.601	1338.35
740.786	1395.69
740.972	1293.29
741.157	1344.49
741.342	1289.2
741.528	1348.59
741.713	1266.67
741.898	1346.54
742.084	1207.28
742.269	1326.06
742.454	1293.29
742.639	1309.68
742.824	1346.54
743.01	1211.37
743.195	1287.15
743.38	1246.19
743.565	1242.09
743.75	1201.13
743.935	1238
744.12	1233.9
744.305	1309.68
744.49	1192.94
744.675	1223.66
744.86	1194.99
745.045	1158.13
745.23	1221.61
745.415	1158.13
745.6	1176.56
745.785	1137.65
745.97	1209.33
746.155	1151.98
746.34	1203.18
746.525	1068.02
746.71	1143.79
746.895	1199.09
747.079	1154.03
747.264	1113.07
747.449	1076.21
747.634	1055.73
747.819	1055.73
748.003	1027.06
748.188	1100.78
748.373	1059.82
748.557	1086.45
748.742	1022.96
748.927	1029.1
749.111	1094.64
749.296	1049.58
749.481	1074.16
749.665	979.95
749.85	1012.72
750.034	957.43
750.219	1047.54
750.404	973.81
750.588	979.95
750.773	1072.11
750.957	957.43
751.141	982
751.326	979.95
751.51	924.66
751.695	990.19
751.879	961.52
752.064	982
752.248	945.14
752.432	963.57
752.617	990.19
752.801	912.37
752.985	873.46
753.17	895.99
753.354	877.55
753.538	945.14
753.722	887.79
753.907	914.42
754.091	822.26
754.275	922.61
754.459	912.37
754.643	938.99
754.828	887.79
755.012	865.27
755.196	797.68
755.38	910.32
755.564	832.5
755.748	855.03
755.932	920.56
756.116	814.07
756.3	777.2
756.484	771.06
756.668	799.73
756.852	803.83
757.036	754.68
757.22	756.72
757.404	717.81
757.588	746.48
757.772	783.35
757.956	695.29
758.14	728.05
758.323	732.15
758.507	726
758.691	726
758.875	697.33
759.059	701.43
759.242	734.2
759.426	738.29
759.61	736.24
759.794	717.81
759.977	842.74
760.161	789.49
760.345	703.48
760.528	732.15
760.712	715.77
760.895	662.52
761.079	730.1
761.263	568.31
761.446	674.81
761.63	650.23
761.813	615.41
761.997	707.57
762.18	656.37
762.364	596.98
762.547	592.89
762.731	695.29
762.914	691.19
763.098	633.85
763.281	637.94
763.464	644.09
763.648	580.6
763.831	652.28
764.015	613.37
764.198	666.61
764.381	664.57
764.564	670.71
764.748	639.99
764.931	660.47
765.114	584.7
765.297	637.94
765.481	650.23
765.664	625.65
765.847	646.13
766.03	633.85
766.213	584.7
766.397	586.74
766.58	615.41
766.763	609.27
766.946	596.98
767.129	683
767.312	613.37
767.495	553.98
767.678	541.69
767.861	560.12
768.044	609.27
768.227	576.5
768.41	603.13
768.593	551.93
768.776	560.12
768.959	547.83
769.142	619.51
769.324	482.3
769.507	576.5
769.69	523.26
769.873	504.82
770.056	672.76
770.239	525.3
770.421	613.37
770.604	533.5
770.787	547.83
770.97	551.93
771.152	535.54
771.335	558.07
771.518	513.02
771.7	543.74
771.883	576.5
772.066	541.69
772.248	478.2
772.431	490.49
772.613	388.09
772.796	564.22
772.978	496.63
773.161	484.34
773.343	525.3
773.526	551.93
773.708	560.12
773.891	363.51
774.073	492.54
774.256	478.2
774.438	474.1
774.621	476.15
774.803	551.93
774.985	461.82
775.168	416.76
775.35	510.97
775.532	494.58
775.715	494.58
775.897	482.3
776.079	580.6
776.261	461.82
776.444	457.72
776.626	513.02
776.808	367.61
776.99	383.99
777.173	414.71
777.355	463.86
777.537	424.95
777.719	402.43
777.901	412.67
778.083	496.63
778.265	478.2
778.447	437.24
778.629	404.47
778.811	461.82
778.993	445.43
779.175	410.62
779.357	433.15
779.539	349.18
779.721	398.33
779.903	330.75
780.085	336.89
780.267	371.71
780.449	488.44
780.631	439.29
780.812	449.53
780.994	281.6
781.176	334.84
781.358	306.17
781.54	365.56
781.721	398.33
781.903	343.03
782.085	314.36
782.267	328.7
782.448	347.13
782.63	398.33
782.812	392.19
782.993	375.8
783.175	359.42
783.357	322.56
783.538	285.69
783.72	306.17
783.901	338.94
784.083	332.79
784.264	340.99
784.446	297.98
784.627	275.45
784.809	312.32
784.99	269.31
785.172	332.79
785.353	308.22
785.535	371.71
785.716	316.41
785.897	338.94
786.079	306.17
786.26	345.08
786.441	357.37
786.623	347.13
786.804	316.41
786.985	322.56
787.167	302.08
787.348	279.55
787.529	281.6
787.71	297.98
787.891	320.51
788.073	244.73
788.254	199.68
788.435	330.75
788.616	248.83
788.797	263.16
788.978	205.82
789.159	234.49
789.34	263.16
789.522	199.68
789.703	267.26
789.884	295.93
790.065	300.03
790.246	209.92
790.427	142.33
790.607	277.5
790.788	275.45
790.969	211.96
791.15	252.92
791.331	257.02
791.512	152.57
791.693	224.25
791.874	277.5
792.054	214.01
792.235	257.02
792.416	187.39
792.597	275.45
792.778	244.73
792.958	234.49
793.139	230.4
793.32	275.45
793.5	234.49
793.681	259.07
793.862	228.35
794.042	175.1
794.223	162.81
794.404	164.86
794.584	179.2
794.765	171.01
794.945	232.44
795.126	259.07
795.306	181.25
795.487	177.15
795.667	164.86
795.848	181.25
796.028	224.25
796.209	128
796.389	216.06
796.57	211.96
796.75	279.55
796.93	164.86
797.111	162.81
797.291	199.68
797.471	175.1
797.652	76.8
797.832	119.81
798.012	183.29
798.192	171.01
798.373	175.1
798.553	201.72
798.733	232.44
798.913	152.57
799.093	105.47
799.274	203.77
799.454	134.14
799.634	209.92
799.814	173.05
799.994	58.37
800.174	119.81
800.354	177.15
800.534	168.96
800.714	171.01
800.894	179.2
801.074	138.24
801.254	140.29
801.434	152.57
801.614	154.62
801.794	95.23
801.974	330.75
802.154	109.57
802.334	203.77
802.514	44.03
802.693	175.1
802.873	111.61
803.053	203.77
803.233	156.67
803.413	111.61
803.592	179.2
803.772	168.96
803.952	115.71
804.131	197.63
804.311	166.91
804.491	134.14
804.67	103.42
804.85	109.57
805.03	128
805.209	195.58
805.389	195.58
805.568	166.91
805.748	113.66
805.928	117.76
806.107	134.14
806.287	183.29
806.466	140.29
806.646	136.19
806.825	125.95
807.004	162.81
807.184	70.65
807.363	97.28
807.543	70.65
807.722	95.23
807.901	97.28
808.081	-7.17
808.26	41.98
808.439	87.04
808.619	109.57
808.798	125.95
808.977	142.33
809.156	107.52
809.336	76.8
809.515	103.42
809.694	121.85
809.873	70.65
810.052	33.79
810.231	89.09
810.411	166.91
810.59	162.81
810.769	117.76
810.948	121.85
811.127	17.41
811.306	78.85
811.485	173.05
811.664	142.33
811.843	140.29
812.022	89.09
812.201	130.05
812.38	144.38
812.559	123.9
812.737	93.18
812.916	97.28
813.095	99.33
813.274	166.91
813.453	70.65
813.632	95.23
813.811	41.98
813.989	113.66
814.168	60.42
814.347	103.42
814.526	119.81
814.704	164.86
814.883	76.8
815.062	121.85
815.24	175.1
815.419	3.07
815.598	46.08
815.776	29.7
815.955	119.81
816.133	70.65
816.312	64.51
816.49	13.31
816.669	76.8
816.847	27.65
817.026	91.13
817.204	35.84
817.383	52.22
817.561	99.33
817.74	130.05
817.918	62.46
818.097	21.5
818.275	66.56
818.453	48.13
818.632	105.47
818.81	56.32
818.988	52.22
819.167	115.71
819.345	35.84
819.523	72.7
819.701	39.94
819.879	78.85
820.058	52.22
820.236	93.18
820.414	84.99
820.592	93.18
820.77	5.12
820.948	52.22
821.127	52.22
821.305	99.33
821.483	21.5
821.661	150.53
821.839	19.46
822.017	68.61
822.195	21.5
822.373	41.98
822.551	107.52
822.729	76.8
822.907	17.41
823.085	119.81
823.262	76.8
823.44	56.32
823.618	99.33
823.796	39.94
823.974	48.13
824.152	123.9
824.329	177.15
824.507	64.51
824.685	27.65
824.863	52.22
825.04	44.03
825.218	70.65
825.396	37.89
825.574	-9.22
825.751	171.01
825.929	21.5
826.107	70.65
826.284	31.74
826.462	17.41
826.639	17.41
826.817	60.42
826.994	113.66
827.172	29.7
827.349	76.8
827.527	19.46
827.704	33.79
827.882	39.94
828.059	21.5
828.237	5.12
828.414	46.08
828.591	41.98
828.769	35.84
828.946	29.7
829.124	33.79
829.301	58.37
829.478	80.89
829.655	3.07
829.833	7.17
830.01	-17.41
830.187	35.84
830.364	11.26
830.542	46.08
830.719	27.65
830.896	113.66
831.073	-9.22
831.25	33.79
831.427	48.13
831.604	39.94
831.782	-19.46
831.959	7.17
832.136	29.7
832.313	-25.6
832.49	-9.22
832.667	60.42
832.844	-7.17
833.021	58.37
833.198	37.89
833.374	-25.6
833.551	66.56
833.728	15.36
833.905	39.94
834.082	37.89
834.259	35.84
834.436	27.65
834.612	62.46
834.789	50.18
834.966	41.98
835.143	52.22
835.319	3.07
835.496	41.98
835.673	-11.26
835.85	62.46
836.026	101.37
836.203	-19.46
836.38	-27.65
836.556	101.37
836.733	33.79
836.909	87.04
837.086	89.09
837.262	-84.99
837.439	54.27
837.616	1.02
837.792	37.89
837.968	134.14
838.145	37.89
838.321	44.03
838.498	-5.12
838.674	29.7
838.851	62.46
839.027	-56.32
839.203	64.51
839.38	-5.12
839.556	50.18
839.732	21.5
839.909	23.55
840.085	27.65
840.261	7.17
840.437	70.65
840.614	-37.89
840.79	-9.22
840.966	11.26
841.142	1.02
841.318	-3.07
841.494	-3.07
841.671	-9.22
841.847	-13.31
842.023	-13.31
842.199	-27.65
842.375	29.7
842.551	-27.65
842.727	-21.5
842.903	50.18
843.079	68.61
843.255	35.84
843.431	78.85
843.607	11.26
843.783	44.03
843.959	44.03
844.134	-33.79
844.31	25.6
844.486	3.07
844.662	37.89
844.838	7.17
845.013	46.08
845.189	-60.42
845.365	60.42
845.541	23.55
845.716	11.26
845.892	107.52
846.068	56.32
846.244	76.8
846.419	48.13
846.595	44.03
846.77	48.13
846.946	35.84
847.122	-13.31
847.297	29.7
847.473	35.84
847.648	44.03
847.824	-7.17
847.999	5.12
848.175	3.07
848.35	78.85
848.526	37.89
848.701	-29.7
848.876	60.42
849.052	39.94
849.227	52.22
849.403	17.41
849.578	-15.36
849.753	-5.12
849.929	29.7
850.104	-54.27
850.279	-27.65
850.454	-27.65
850.63	11.26
850.805	-46.08
850.98	50.18
851.155	-37.89
851.33	37.89
851.505	9.22
851.681	35.84
851.856	27.65
852.031	27.65
852.206	23.55
852.381	-46.08
852.556	60.42
852.731	-37.89
852.906	-9.22
853.081	-11.26
853.256	-15.36
853.431	-21.5
853.606	-52.22
853.781	33.79
853.956	7.17
854.131	27.65
854.305	-9.22
854.48	-17.41
854.655	35.84
854.83	-1.02
855.005	-33.79
855.18	-33.79
855.354	46.08
855.529	-15.36
855.704	-29.7
855.879	3.07
856.053	-46.08
856.228	-29.7
856.403	-13.31
856.577	17.41
856.752	9.22
856.926	27.65
857.101	-31.74
857.276	31.74
857.45	17.41
857.625	70.65
857.799	1.02
857.974	-9.22
858.148	21.5
858.323	27.65
858.497	-82.94
858.672	31.74
858.846	-13.31
859.02	44.03
859.195	23.55
859.369	-11.26
859.543	-21.5
859.718	-13.31
859.892	-66.56
860.066	11.26
860.241	7.17
860.415	7.17
860.589	37.89
860.763	50.18
860.938	-54.27
861.112	9.22
861.286	-25.6
861.46	-5.12
861.634	35.84
861.808	111.61
861.982	-9.22
862.157	-11.26
862.331	-19.46
862.505	44.03
862.679	-33.79
862.853	13.31
863.027	52.22
863.201	-9.22
863.375	-21.5
863.549	-9.22
863.722	62.46
863.896	-3.07
864.07	15.36
864.244	44.03
864.418	60.42
864.592	-1.02
864.766	3.07
864.939	35.84
865.113	-1.02
865.287	-41.98
865.461	-5.12
865.634	35.84
865.808	-7.17
865.982	31.74
866.156	27.65
866.329	25.6
866.503	-31.74
866.676	54.27
866.85	-78.85
867.024	84.99
867.197	-9.22
867.371	13.31
867.544	-17.41
867.718	3.07
867.891	-1.02
868.065	1.02
868.238	29.7
868.412	25.6
868.585	-68.61
868.759	-25.6
868.932	11.26
869.105	-33.79
869.279	-76.8
869.452	-50.18
869.625	-23.55
869.799	-33.79
869.972	7.17
870.145	-33.79
870.319	11.26
870.492	-27.65
870.665	39.94
870.838	-37.89
871.011	31.74
871.185	-50.18
871.358	-99.33
871.531	15.36
871.704	27.65
871.877	21.5
872.05	-13.31
872.223	9.22
872.396	7.17
872.569	17.41
872.742	-39.94
872.915	-9.22
873.088	-29.7
873.261	13.31
873.434	-1.02
873.607	-39.94
873.78	-82.94
873.953	7.17
874.126	-37.89
874.299	23.55
874.471	-1.02
874.644	39.94
874.817	7.17
874.99	41.98
875.163	-3.07
875.335	-44.03
875.508	44.03
875.681	9.22
875.853	-21.5
876.026	-64.51
876.199	11.26
876.371	-62.46
876.544	-23.55
876.717	-11.26
876.889	27.65
877.062	11.26
877.234	-19.46
877.407	11.26
877.579	-44.03
877.752	13.31
877.924	9.22
878.097	21.5
878.269	1.02
878.442	21.5
878.614	7.17
878.786	-78.85
878.959	-7.17
879.131	-15.36
879.303	-17.41
879.476	-1.02
879.648	-9.22
879.82	37.89
879.993	-56.32
880.165	-25.6
880.337	-37.89
880.509	-76.8
880.681	-35.84
880.854	-39.94
881.026	-58.37
881.198	5.12
881.37	-64.51
881.542	-13.31
881.714	-58.37
881.886	-3.07
882.058	-31.74
882.23	13.31
882.402	15.36
882.574	80.89
882.746	19.46
882.918	31.74
883.09	1.02
883.262	-68.61
883.434	-3.07
883.606	-17.41
883.778	-37.89
883.95	19.46
884.122	-35.84
884.293	-3.07
884.465	-17.41
884.637	-33.79
884.809	-7.17
884.98	25.6
885.152	-95.23
885.324	27.65
885.496	-9.22
885.667	-35.84
885.839	68.61
886.011	-29.7
886.182	56.32
886.354	-44.03
886.525	-87.04
886.697	-27.65
886.869	-91.13
887.04	27.65
887.212	29.7
887.383	70.65
887.555	-23.55
887.726	-1.02
887.897	-9.22
888.069	3.07
888.24	-52.22
888.412	-15.36
888.583	-19.46
888.754	64.51
888.926	33.79
889.097	29.7
889.268	-29.7
889.44	21.5
889.611	15.36
889.782	-15.36
889.953	-33.79
890.125	11.26
890.296	-54.27
890.467	-37.89
890.638	15.36
890.809	-31.74
890.98	-15.36
891.151	25.6
891.323	56.32
891.494	-41.98
891.665	-13.31
891.836	19.46
892.007	35.84
892.178	-87.04
892.349	-19.46
892.52	11.26
892.691	-48.13
892.862	-37.89
893.032	-37.89
893.203	21.5
893.374	-62.46
893.545	-7.17
893.716	1.02
893.887	23.55
894.057	101.37
894.228	19.46
894.399	7.17
894.57	21.5
894.74	29.7
894.911	-11.26
895.082	-50.18
895.253	-37.89
895.423	3.07
895.594	23.55
895.764	-70.65
895.935	5.12
896.106	-15.36
896.276	46.08
896.447	44.03
896.617	-15.36
896.788	-19.46
896.958	-5.12
897.129	-3.07
897.299	-44.03
897.47	31.74
897.64	-50.18
897.81	-13.31
897.981	-11.26
898.151	-17.41
898.322	33.79
898.492	-27.65
898.662	35.84
898.832	-13.31
899.003	-44.03
899.173	3.07
899.343	-33.79
899.513	-21.5
