Data from USB4F104151__114__13-54-57-547.txt Node

Date: Thu Mar 13 13:54:57 EDT 2025
User: louis
Spectrometer: USB4F10415
Trigger mode: 4
Integration Time (sec): 1.000000E-2
Scans to average: 1
Electric dark correction enabled: true
Nonlinearity correction enabled: false
Boxcar width: 0
XAxis mode: Wavelengths
Number of Pixels in Spectrum: 3648
>>>>>Begin Spectral Data<<<<<
178.204	-39.42
178.424	-39.42
178.644	-39.42
178.864	-127.49
179.084	-64
179.304	-31.23
179.524	34.3
179.744	-2.56
179.964	44.54
180.184	-66.05
180.404	9.73
180.624	28.16
180.844	-37.38
181.064	22.02
181.283	-8.7
181.503	-43.52
181.723	50.69
181.943	-55.81
182.163	15.87
182.383	1.54
182.602	13.82
182.822	15.87
183.042	-16.9
183.262	-61.95
183.482	38.4
183.701	-33.28
183.921	60.93
184.141	13.82
184.361	75.26
184.58	19.97
184.8	26.11
185.02	-12.8
185.239	89.6
185.459	24.06
185.679	17.92
185.898	73.21
186.118	48.64
186.338	36.35
186.557	28.16
186.777	7.68
186.997	95.74
187.216	9.73
187.436	42.5
187.655	-16.9
187.875	-51.71
188.095	28.16
188.314	7.68
188.534	-12.8
188.753	7.68
188.973	56.83
189.192	13.82
189.412	69.12
189.631	24.06
189.851	77.31
190.07	-43.52
190.29	9.73
190.509	69.12
190.729	36.35
190.948	32.26
191.168	77.31
191.387	52.74
191.607	54.78
191.826	19.97
192.045	38.4
192.265	-16.9
192.484	15.87
192.704	126.46
192.923	-0.51
193.142	99.84
193.362	65.02
193.581	40.45
193.8	28.16
194.02	38.4
194.239	24.06
194.458	46.59
194.678	-12.8
194.897	-6.66
195.116	75.26
195.335	7.68
195.555	1.54
195.774	-16.9
195.993	-4.61
196.212	-43.52
196.432	22.02
196.651	48.64
196.87	-57.86
197.089	79.36
197.308	13.82
197.528	38.4
197.747	22.02
197.966	32.26
198.185	46.59
198.404	-4.61
198.623	58.88
198.842	62.98
199.062	52.74
199.281	13.82
199.5	13.82
199.719	118.27
199.938	1.54
200.157	-18.94
200.376	36.35
200.595	3.58
200.814	9.73
201.033	83.45
201.252	22.02
201.471	-29.18
201.69	15.87
201.909	40.45
202.128	26.11
202.347	-6.66
202.566	-4.61
202.785	-4.61
203.004	-6.66
203.223	19.97
203.442	-8.7
203.661	13.82
203.879	17.92
204.098	28.16
204.317	24.06
204.536	112.13
204.755	-6.66
204.974	69.12
205.193	36.35
205.411	44.54
205.63	19.97
205.849	89.6
206.068	-20.99
206.287	-2.56
206.505	-25.09
206.724	65.02
206.943	22.02
207.162	15.87
207.381	30.21
207.599	28.16
207.818	44.54
208.037	50.69
208.255	-4.61
208.474	28.16
208.693	24.06
208.911	-0.51
209.13	-0.51
209.349	148.99
209.567	-4.61
209.786	79.36
210.005	-4.61
210.223	44.54
210.442	50.69
210.661	44.54
210.879	-2.56
211.098	-33.28
211.316	-8.7
211.535	71.17
211.753	24.06
211.972	93.69
212.191	-23.04
212.409	-2.56
212.628	19.97
212.846	7.68
213.065	-16.9
213.283	-59.9
213.502	-20.99
213.72	58.88
213.938	9.73
214.157	32.26
214.375	28.16
214.594	28.16
214.812	-18.94
215.031	-41.47
215.249	32.26
215.467	52.74
215.686	9.73
215.904	71.17
216.122	-47.62
216.341	89.6
216.559	3.58
216.778	-16.9
216.996	44.54
217.214	28.16
217.432	15.87
217.651	15.87
217.869	-14.85
218.087	34.3
218.306	-37.38
218.524	-4.61
218.742	1.54
218.96	15.87
219.179	-53.76
219.397	3.58
219.615	62.98
219.833	-23.04
220.051	46.59
220.27	83.45
220.488	30.21
220.706	3.58
220.924	36.35
221.142	-12.8
221.36	-0.51
221.578	-43.52
221.796	3.58
222.015	48.64
222.233	19.97
222.451	-12.8
222.669	5.63
222.887	48.64
223.105	-49.66
223.323	5.63
223.541	11.78
223.759	75.26
223.977	60.93
224.195	46.59
224.413	-31.23
224.631	-14.85
224.849	-20.99
225.067	83.45
225.285	13.82
225.503	46.59
225.721	-35.33
225.939	-51.71
226.157	48.64
226.375	44.54
226.592	-35.33
226.81	50.69
227.028	1.54
227.246	24.06
227.464	-39.42
227.682	95.74
227.9	-6.66
228.117	26.11
228.335	3.58
228.553	-14.85
228.771	-6.66
228.989	50.69
229.206	-70.14
229.424	5.63
229.642	26.11
229.86	-2.56
230.077	42.5
230.295	73.21
230.513	5.63
230.731	60.93
230.948	-23.04
231.166	30.21
231.384	-27.14
231.601	65.02
231.819	50.69
232.037	58.88
232.254	-64
232.472	-8.7
232.689	50.69
232.907	11.78
233.125	-51.71
233.342	-14.85
233.56	-27.14
233.777	-20.99
233.995	7.68
234.213	15.87
234.43	-39.42
234.648	75.26
234.865	54.78
235.083	42.5
235.3	73.21
235.518	1.54
235.735	-12.8
235.953	32.26
236.17	-49.66
236.388	-0.51
236.605	-18.94
236.822	9.73
237.04	58.88
237.257	34.3
237.475	-8.7
237.692	48.64
237.909	54.78
238.127	22.02
238.344	11.78
238.562	-14.85
238.779	46.59
238.996	-14.85
239.214	28.16
239.431	15.87
239.648	3.58
239.865	56.83
240.083	-23.04
240.3	48.64
240.517	67.07
240.735	89.6
240.952	46.59
241.169	83.45
241.386	34.3
241.603	22.02
241.821	54.78
242.038	-29.18
242.255	46.59
242.472	-2.56
242.689	54.78
242.907	34.3
243.124	1.54
243.341	32.26
243.558	26.11
243.775	7.68
243.992	83.45
244.209	17.92
244.426	56.83
244.643	79.36
244.86	56.83
245.078	15.87
245.295	24.06
245.512	48.64
245.729	1.54
245.946	36.35
246.163	95.74
246.38	93.69
246.597	26.11
246.814	15.87
247.031	-29.18
247.248	28.16
247.464	28.16
247.681	-16.9
247.898	62.98
248.115	-49.66
248.332	-47.62
248.549	52.74
248.766	46.59
248.983	108.03
249.2	-23.04
249.417	36.35
249.633	-12.8
249.85	11.78
250.067	19.97
250.284	9.73
250.501	28.16
250.717	15.87
250.934	-45.57
251.151	34.3
251.368	28.16
251.585	3.58
251.801	-25.09
252.018	-25.09
252.235	22.02
252.451	13.82
252.668	79.36
252.885	13.82
253.102	32.26
253.318	67.07
253.535	13.82
253.752	26.11
253.968	15.87
254.185	60.93
254.401	22.02
254.618	42.5
254.835	13.82
255.051	-6.66
255.268	5.63
255.484	67.07
255.701	26.11
255.917	32.26
256.134	69.12
256.351	7.68
256.567	-14.85
256.784	50.69
257	-6.66
257.217	42.5
257.433	3.58
257.65	-20.99
257.866	62.98
258.082	-25.09
258.299	5.63
258.515	73.21
258.732	58.88
258.948	62.98
259.165	24.06
259.381	-0.51
259.597	75.26
259.814	24.06
260.03	-8.7
260.246	-55.81
260.463	73.21
260.679	71.17
260.895	32.26
261.112	28.16
261.328	36.35
261.544	38.4
261.761	58.88
261.977	91.65
262.193	1.54
262.409	7.68
262.626	54.78
262.842	-14.85
263.058	-12.8
263.274	54.78
263.49	3.58
263.707	9.73
263.923	46.59
264.139	122.37
264.355	38.4
264.571	9.73
264.787	38.4
265.004	67.07
265.22	-8.7
265.436	17.92
265.652	-8.7
265.868	24.06
266.084	60.93
266.3	50.69
266.516	77.31
266.732	17.92
266.948	124.41
267.164	58.88
267.38	38.4
267.596	9.73
267.812	40.45
268.028	-23.04
268.244	34.3
268.46	50.69
268.676	-31.23
268.892	62.98
269.108	-33.28
269.324	-14.85
269.54	15.87
269.756	-4.61
269.972	19.97
270.188	-4.61
270.403	38.4
270.619	69.12
270.835	11.78
271.051	34.3
271.267	13.82
271.483	30.21
271.698	65.02
271.914	50.69
272.13	48.64
272.346	19.97
272.562	17.92
272.777	13.82
272.993	11.78
273.209	87.55
273.425	69.12
273.64	34.3
273.856	34.3
274.072	7.68
274.287	9.73
274.503	77.31
274.719	5.63
274.934	1.54
275.15	50.69
275.366	17.92
275.581	62.98
275.797	13.82
276.012	-2.56
276.228	54.78
276.444	26.11
276.659	-6.66
276.875	17.92
277.09	17.92
277.306	108.03
277.521	24.06
277.737	1.54
277.952	7.68
278.168	103.93
278.383	9.73
278.599	44.54
278.814	13.82
279.03	89.6
279.245	56.83
279.461	50.69
279.676	89.6
279.892	30.21
280.107	-6.66
280.322	28.16
280.538	-10.75
280.753	81.41
280.969	-25.09
281.184	3.58
281.399	-8.7
281.615	52.74
281.83	-0.51
282.045	15.87
282.26	50.69
282.476	26.11
282.691	5.63
282.906	-39.42
283.122	15.87
283.337	44.54
283.552	75.26
283.767	-10.75
283.983	40.45
284.198	7.68
284.413	110.08
284.628	77.31
284.843	-0.51
285.058	56.83
285.274	42.5
285.489	-14.85
285.704	22.02
285.919	38.4
286.134	22.02
286.349	148.99
286.564	36.35
286.779	50.69
286.995	48.64
287.21	-25.09
287.425	71.17
287.64	15.87
287.855	-12.8
288.07	50.69
288.285	40.45
288.5	42.5
288.715	65.02
288.93	-10.75
289.145	-39.42
289.36	54.78
289.575	11.78
289.79	73.21
290.004	-37.38
290.219	48.64
290.434	-14.85
290.649	22.02
290.864	-6.66
291.079	50.69
291.294	48.64
291.509	28.16
291.724	42.5
291.938	-49.66
292.153	58.88
292.368	79.36
292.583	52.74
292.798	65.02
293.012	69.12
293.227	71.17
293.442	-18.94
293.657	99.84
293.871	-20.99
294.086	9.73
294.301	75.26
294.516	79.36
294.73	-35.33
294.945	15.87
295.16	24.06
295.374	38.4
295.589	67.07
295.804	-20.99
296.018	56.83
296.233	11.78
296.447	58.88
296.662	11.78
296.877	34.3
297.091	89.6
297.306	67.07
297.52	65.02
297.735	52.74
297.949	5.63
298.164	30.21
298.378	28.16
298.593	40.45
298.807	19.97
299.022	24.06
299.236	7.68
299.451	34.3
299.665	-33.28
299.88	11.78
300.094	40.45
300.309	46.59
300.523	79.36
300.737	105.98
300.952	7.68
301.166	54.78
301.381	-4.61
301.595	83.45
301.809	69.12
302.024	40.45
302.238	26.11
302.452	17.92
302.667	85.5
302.881	48.64
303.095	-12.8
303.309	52.74
303.524	75.26
303.738	-31.23
303.952	26.11
304.166	48.64
304.381	-0.51
304.595	56.83
304.809	7.68
305.023	46.59
305.237	46.59
305.452	42.5
305.666	77.31
305.88	44.54
306.094	26.11
306.308	17.92
306.522	30.21
306.736	15.87
306.95	52.74
307.164	17.92
307.379	-25.09
307.593	44.54
307.807	7.68
308.021	22.02
308.235	-68.09
308.449	52.74
308.663	-4.61
308.877	108.03
309.091	-12.8
309.305	71.17
309.519	5.63
309.733	67.07
309.947	44.54
310.161	1.54
310.374	34.3
310.588	95.74
310.802	-14.85
311.016	32.26
311.23	97.79
311.444	26.11
311.658	85.5
311.872	75.26
312.085	42.5
312.299	93.69
312.513	-35.33
312.727	11.78
312.941	85.5
313.154	50.69
313.368	46.59
313.582	-4.61
313.796	58.88
314.009	-39.42
314.223	93.69
314.437	-4.61
314.651	1.54
314.864	-18.94
315.078	-39.42
315.292	62.98
315.505	77.31
315.719	36.35
315.933	40.45
316.146	-0.51
316.36	38.4
316.573	89.6
316.787	36.35
317.001	44.54
317.214	1.54
317.428	73.21
317.641	-31.23
317.855	17.92
318.068	-0.51
318.282	79.36
318.495	93.69
318.709	56.83
318.922	26.11
319.136	-70.14
319.349	79.36
319.563	9.73
319.776	71.17
319.99	40.45
320.203	1.54
320.417	62.98
320.63	-35.33
320.843	85.5
321.057	-2.56
321.27	73.21
321.483	56.83
321.697	46.59
321.91	54.78
322.124	36.35
322.337	48.64
322.55	75.26
322.763	65.02
322.977	56.83
323.19	9.73
323.403	52.74
323.617	5.63
323.83	81.41
324.043	38.4
324.256	52.74
324.469	42.5
324.683	75.26
324.896	32.26
325.109	48.64
325.322	19.97
325.535	85.5
325.748	89.6
325.962	103.93
326.175	28.16
326.388	108.03
326.601	36.35
326.814	54.78
327.027	126.46
327.24	34.3
327.453	32.26
327.666	50.69
327.879	1.54
328.092	42.5
328.305	101.89
328.518	81.41
328.731	-59.9
328.944	42.5
329.157	1.54
329.37	122.37
329.583	105.98
329.796	34.3
330.009	54.78
330.222	85.5
330.435	38.4
330.648	56.83
330.861	87.55
331.073	28.16
331.286	60.93
331.499	22.02
331.712	69.12
331.925	34.3
332.138	32.26
332.35	50.69
332.563	81.41
332.776	42.5
332.989	48.64
333.202	56.83
333.414	-10.75
333.627	54.78
333.84	38.4
334.053	75.26
334.265	54.78
334.478	50.69
334.691	83.45
334.903	65.02
335.116	32.26
335.329	48.64
335.541	-20.99
335.754	40.45
335.966	5.63
336.179	81.41
336.392	60.93
336.604	26.11
336.817	28.16
337.029	28.16
337.242	7.68
337.454	15.87
337.667	48.64
337.88	42.5
338.092	5.63
338.305	13.82
338.517	95.74
338.729	97.79
338.942	128.51
339.154	-12.8
339.367	-23.04
339.579	3.58
339.792	17.92
340.004	62.98
340.217	132.61
340.429	60.93
340.641	-2.56
340.854	-16.9
341.066	3.58
341.278	22.02
341.491	75.26
341.703	73.21
341.915	69.12
342.128	5.63
342.34	56.83
342.552	-18.94
342.764	-27.14
342.977	69.12
343.189	50.69
343.401	24.06
343.613	46.59
343.826	81.41
344.038	69.12
344.25	30.21
344.462	9.73
344.674	56.83
344.886	75.26
345.099	-8.7
345.311	17.92
345.523	36.35
345.735	32.26
345.947	62.98
346.159	7.68
346.371	118.27
346.583	67.07
346.795	79.36
347.007	-6.66
347.219	48.64
347.431	46.59
347.643	1.54
347.855	5.63
348.067	26.11
348.279	67.07
348.491	120.32
348.703	1.54
348.915	58.88
349.127	93.69
349.339	28.16
349.551	48.64
349.763	62.98
349.975	69.12
350.187	19.97
350.399	91.65
350.61	65.02
350.822	17.92
351.034	24.06
351.246	48.64
351.458	93.69
351.669	-33.28
351.881	50.69
352.093	32.26
352.305	112.13
352.517	17.92
352.728	48.64
352.94	40.45
353.152	3.58
353.363	-0.51
353.575	7.68
353.787	69.12
353.999	15.87
354.21	19.97
354.422	85.5
354.633	48.64
354.845	44.54
355.057	50.69
355.268	54.78
355.48	28.16
355.692	44.54
355.903	99.84
356.115	17.92
356.326	22.02
356.538	58.88
356.749	3.58
356.961	36.35
357.172	62.98
357.384	38.4
357.595	15.87
357.807	3.58
358.018	128.51
358.23	38.4
358.441	48.64
358.653	46.59
358.864	13.82
359.075	81.41
359.287	65.02
359.498	56.83
359.709	-2.56
359.921	89.6
360.132	73.21
360.344	-41.47
360.555	93.69
360.766	42.5
360.977	79.36
361.189	30.21
361.4	85.5
361.611	75.26
361.823	85.5
362.034	44.54
362.245	-45.57
362.456	30.21
362.667	52.74
362.879	-18.94
363.09	24.06
363.301	69.12
363.512	-16.9
363.723	17.92
363.935	48.64
364.146	42.5
364.357	75.26
364.568	67.07
364.779	46.59
364.99	-4.61
365.201	46.59
365.412	87.55
365.623	13.82
365.834	48.64
366.045	-29.18
366.256	7.68
366.467	-25.09
366.678	36.35
366.889	101.89
367.1	56.83
367.311	95.74
367.522	24.06
367.733	91.65
367.944	67.07
368.155	32.26
368.366	42.5
368.577	62.98
368.788	89.6
368.999	40.45
369.209	19.97
369.42	48.64
369.631	67.07
369.842	26.11
370.053	30.21
370.264	56.83
370.474	48.64
370.685	81.41
370.896	30.21
371.107	24.06
371.317	42.5
371.528	62.98
371.739	-0.51
371.95	28.16
372.16	42.5
372.371	-31.23
372.582	36.35
372.792	40.45
373.003	-27.14
373.214	-10.75
373.424	69.12
373.635	34.3
373.846	11.78
374.056	93.69
374.267	28.16
374.477	77.31
374.688	-14.85
374.898	36.35
375.109	81.41
375.319	30.21
375.53	-16.9
375.74	44.54
375.951	75.26
376.161	67.07
376.372	48.64
376.582	34.3
376.793	52.74
377.003	-27.14
377.214	60.93
377.424	32.26
377.635	69.12
377.845	28.16
378.055	56.83
378.266	3.58
378.476	69.12
378.686	77.31
378.897	52.74
379.107	-55.81
379.317	65.02
379.528	67.07
379.738	99.84
379.948	60.93
380.158	71.17
380.369	-2.56
380.579	103.93
380.789	124.41
380.999	122.37
381.21	126.46
381.42	50.69
381.63	42.5
381.84	77.31
382.05	118.27
382.261	89.6
382.471	69.12
382.681	3.58
382.891	28.16
383.101	17.92
383.311	1.54
383.521	44.54
383.731	-0.51
383.941	75.26
384.151	42.5
384.361	46.59
384.571	62.98
384.781	40.45
384.991	69.12
385.201	58.88
385.411	89.6
385.621	73.21
385.831	77.31
386.041	69.12
386.251	22.02
386.461	83.45
386.671	103.93
386.881	46.59
387.091	77.31
387.301	65.02
387.511	-2.56
387.72	108.03
387.93	136.7
388.14	-57.86
388.35	42.5
388.56	56.83
388.769	52.74
388.979	73.21
389.189	71.17
389.399	52.74
389.609	108.03
389.818	9.73
390.028	89.6
390.238	69.12
390.447	30.21
390.657	3.58
390.867	67.07
391.076	34.3
391.286	67.07
391.496	60.93
391.705	83.45
391.915	52.74
392.125	52.74
392.334	30.21
392.544	48.64
392.753	87.55
392.963	81.41
393.172	42.5
393.382	3.58
393.591	83.45
393.801	69.12
394.01	-6.66
394.22	7.68
394.429	77.31
394.639	65.02
394.848	69.12
395.058	105.98
395.267	128.51
395.477	34.3
395.686	103.93
395.895	-49.66
396.105	103.93
396.314	69.12
396.524	32.26
396.733	71.17
396.942	114.17
397.152	89.6
397.361	136.7
397.57	138.75
397.78	30.21
397.989	62.98
398.198	146.94
398.407	126.46
398.617	112.13
398.826	60.93
399.035	114.17
399.244	-33.28
399.453	81.41
399.663	67.07
399.872	99.84
400.081	110.08
400.29	54.78
400.499	124.41
400.708	89.6
400.917	71.17
401.127	65.02
401.336	36.35
401.545	155.13
401.754	175.61
401.963	167.42
402.172	54.78
402.381	167.42
402.59	34.3
402.799	42.5
403.008	75.26
403.217	87.55
403.426	65.02
403.635	89.6
403.844	91.65
404.053	124.41
404.262	73.21
404.471	202.24
404.68	93.69
404.888	126.46
405.097	112.13
405.306	161.28
405.515	77.31
405.724	105.98
405.933	153.09
406.142	161.28
406.35	138.75
406.559	120.32
406.768	189.95
406.977	142.85
407.185	171.52
407.394	95.74
407.603	187.9
407.812	161.28
408.02	218.62
408.229	192
408.438	124.41
408.646	200.19
408.855	142.85
409.064	169.47
409.272	146.94
409.481	222.72
409.69	273.92
409.898	179.71
410.107	249.34
410.315	245.24
410.524	140.8
410.733	204.28
410.941	265.72
411.15	271.87
411.358	251.39
411.567	255.48
411.775	290.3
411.984	267.77
412.192	394.75
412.401	409.08
412.609	415.23
412.818	323.07
413.026	400.89
413.234	372.22
413.443	368.12
413.651	409.08
413.86	507.38
414.068	417.27
414.276	447.99
414.485	378.36
414.693	456.19
414.901	558.58
415.11	585.21
415.318	560.63
415.526	568.82
415.734	595.45
415.943	568.82
416.151	730.61
416.359	611.83
416.567	679.41
416.776	663.03
416.984	740.85
417.192	749.04
417.4	769.52
417.608	650.74
417.817	767.48
418.025	835.06
418.233	896.5
418.441	814.58
418.649	894.45
418.857	962.03
419.065	941.55
419.273	876.02
419.481	992.75
419.689	1048.05
419.897	1093.1
420.105	1127.92
420.313	1138.16
420.521	1183.21
420.729	1258.99
420.937	1205.74
421.145	1302
421.353	1381.87
421.561	1428.97
421.769	1428.97
421.977	1525.22
422.185	1469.93
422.393	1623.53
422.601	1648.1
422.809	1658.34
423.017	1707.49
423.224	1648.1
423.432	1859.04
423.64	1943.01
423.848	1953.25
424.056	2008.55
424.263	2170.33
424.471	2110.94
424.679	2090.46
424.887	2301.4
425.094	2295.26
425.302	2491.87
425.51	2475.48
425.718	2514.39
425.925	2530.78
426.133	2541.02
426.341	2702.81
426.548	3016.15
426.756	2821.59
426.964	2899.41
427.171	3167.7
427.379	3147.22
427.586	3145.17
427.794	3319.25
428.001	3507.66
428.209	3540.43
428.417	3548.62
428.624	3685.83
428.832	3894.72
429.039	3794.37
429.247	3759.56
429.454	4111.81
429.662	4324.8
429.869	4087.23
430.076	4380.09
430.284	4304.32
430.491	4459.96
430.699	4799.93
430.906	4822.45
431.114	4836.79
431.321	4955.57
431.528	5135.79
431.736	5483.95
431.943	5533.1
432.15	5539.24
432.358	5350.83
432.565	5744.04
432.772	5719.46
432.979	6106.53
433.187	6139.3
433.394	6303.14
433.601	6794.65
433.808	6643.1
434.016	6657.43
434.223	6921.62
434.43	7372.18
434.637	7171.47
434.844	7558.54
435.052	7923.08
435.259	7749
435.466	7785.87
435.673	7822.73
435.88	8050.05
436.087	8707.45
436.294	8719.74
436.501	8394.11
436.708	8623.48
436.915	8985.97
437.122	9291.12
437.329	9338.23
437.537	9563.5
437.743	9848.17
437.95	9756.01
438.157	10274.15
438.364	10425.7
438.571	10331.49
438.778	10583.39
438.985	11658.57
439.192	10896.73
439.399	11709.77
439.606	11128.15
439.813	11717.97
440.02	12715.33
440.227	12399.94
440.433	12076.36
440.64	12799.29
440.847	12385.6
441.054	12959.03
441.261	13618.48
441.467	13485.36
441.674	13704.49
441.881	14226.73
442.088	14159.14
442.294	14030.12
442.501	14531.87
442.708	14589.22
442.914	15357.21
443.121	16123.15
443.328	15371.54
443.534	16542.98
443.741	16192.78
443.948	16117
444.154	17329.4
444.361	17145.08
444.568	17052.92
444.774	16809.22
444.981	17251.58
445.187	17927.41
445.394	18513.13
445.6	18377.96
445.807	20053.2
446.013	19291.35
446.22	19553.49
446.426	20382.92
446.633	20464.84
446.839	21361.85
447.046	20231.37
447.252	21445.82
447.459	21324.99
447.665	21499.06
447.871	22228.14
448.078	23200.93
448.284	22156.46
448.491	22652.07
448.697	23573.66
448.903	23762.07
449.11	23995.54
449.316	23891.09
449.522	24317.07
449.728	24841.35
449.935	24863.88
450.141	24863.88
450.347	25361.53
450.553	24673.42
450.76	24667.27
450.966	25777.27
451.172	25537.66
451.378	26211.44
451.584	25738.36
451.791	26164.34
451.997	25883.77
452.203	26119.28
452.409	26561.64
452.615	26487.92
452.821	25308.29
453.027	25058.43
453.233	26477.68
453.44	25001.09
453.646	25595
453.852	25777.27
454.058	26086.51
454.264	25187.46
454.47	25834.61
454.676	25226.37
454.882	26066.03
455.088	23776.41
455.294	23950.48
455.5	24251.53
455.705	24753.29
455.911	23542.94
456.117	23338.14
456.323	23039.14
456.529	21726.39
456.735	22797.48
456.941	22170.8
457.147	21802.16
457.352	21019.84
457.558	20931.78
457.764	20790.47
457.97	20483.27
458.176	20212.94
458.381	20040.91
458.587	19246.3
458.793	19098.84
458.999	18113.77
459.204	19139.8
459.41	18932.96
459.616	17442.04
459.821	17669.36
460.027	17597.68
460.233	17145.08
460.438	16416.01
460.644	16770.3
460.85	15697.17
461.055	15506.71
461.261	15344.92
461.466	14513.44
461.672	13901.1
461.878	14935.32
462.083	14085.42
462.289	13520.18
462.494	13569.33
462.7	12993.85
462.905	12639.55
463.111	12922.17
463.316	13059.38
463.522	12709.18
463.727	12836.16
463.932	12801.34
464.138	12735.81
464.343	12508.48
464.549	12197.19
464.754	12657.98
464.959	12582.21
465.165	12574.02
465.37	11869.51
465.575	11832.65
465.781	12338.5
465.986	12289.35
466.191	11951.43
466.397	11566.42
466.602	10892.63
466.807	11298.13
467.012	11423.06
467.218	11291.99
467.423	11115.86
467.628	11355.47
467.833	11740.49
468.038	11193.69
468.244	11140.44
468.449	11447.63
468.654	11066.71
468.859	11048.28
469.064	10972.5
469.269	10622.3
469.474	10755.42
469.679	10777.95
469.885	10378.59
470.09	10704.22
470.295	10536.29
470.5	10239.33
470.705	10382.69
470.91	10196.32
471.115	10261.86
471.32	10206.56
471.525	10022.25
471.73	9971.05
471.935	9858.41
472.139	9745.77
472.344	9528.69
472.549	9700.72
472.754	9463.15
472.959	9332.08
473.164	9100.66
473.369	8988.02
473.574	9481.58
473.778	9213.3
473.983	8998.26
474.188	9256.31
474.393	8727.93
474.598	8686.97
474.802	8582.53
475.007	8611.2
475.212	8527.23
475.417	8162.69
475.621	8199.55
475.826	8199.55
476.031	8060.29
476.235	7929.22
476.44	7910.79
476.645	7939.46
476.849	7847.3
477.054	7681.42
477.259	7695.75
477.463	7845.26
477.668	7568.78
477.872	7689.61
478.077	7505.29
478.282	7273.87
478.486	7220.63
478.691	7429.52
478.895	7200.15
479.1	7085.46
479.304	7206.29
479.509	7095.7
479.713	7097.75
479.918	6925.72
480.122	6768.02
480.326	7038.36
480.531	6892.95
480.735	6718.87
480.94	6591.9
481.144	7050.64
481.348	6593.95
481.553	6755.74
481.757	6686.11
481.961	6702.49
482.166	6978.97
482.37	6751.64
482.574	6868.38
482.778	6733.21
482.983	6796.7
483.187	6690.2
483.391	6782.36
483.595	6784.41
483.8	6454.69
484.004	6659.48
484.208	6839.7
484.412	6808.98
484.616	6722.97
484.821	6581.66
485.025	6335.9
485.229	6751.64
485.433	6540.7
485.637	6610.33
485.841	6583.71
486.045	6469.02
486.249	6606.24
486.453	6495.64
486.657	6524.32
486.861	6544.8
487.065	6376.86
487.269	6651.29
487.473	6397.34
487.677	6684.06
487.881	6677.91
488.085	6737.31
488.289	6528.41
488.493	6454.69
488.697	6639
488.901	6813.08
489.105	6784.41
489.309	6522.27
489.512	6602.14
489.716	6784.41
489.92	6608.28
490.124	6643.1
490.328	6835.61
490.531	6714.78
490.735	6931.86
490.939	6788.5
491.143	6639
491.346	6866.33
491.55	7069.08
491.754	7021.97
491.958	6878.62
492.161	7056.79
492.365	6985.11
492.569	7013.78
492.772	7038.36
492.976	7282.06
493.18	7189.91
493.383	7052.69
493.587	7372.18
493.79	7169.43
493.994	7232.91
494.197	7363.98
494.401	7554.44
494.605	7353.74
494.808	7587.21
495.012	7642.51
495.215	7488.91
495.419	7712.14
495.622	7755.15
495.825	7871.88
496.029	7703.95
496.232	7935.37
496.436	7830.92
496.639	8017.29
496.843	8017.29
497.046	8197.51
497.249	8154.5
497.453	8424.83
497.656	8535.42
497.859	8537.47
498.063	8551.81
498.266	8914.3
498.469	8807.8
498.673	8760.7
498.876	9057.65
499.079	9033.08
499.282	9141.62
499.485	9162.1
499.689	9373.04
499.892	9483.63
500.095	9549.17
500.298	9772.39
500.501	9768.3
500.705	9991.53
500.908	10030.44
501.111	9964.9
501.314	10225
501.517	10198.37
501.72	10591.58
501.923	10468.7
502.126	10794.33
502.329	10888.54
502.532	11013.46
502.735	10972.5
502.938	11234.64
503.141	11214.16
503.344	11699.53
503.547	11480.4
503.75	11683.15
503.953	11930.95
504.156	12156.23
504.359	12014.92
504.562	12152.13
504.765	12408.13
504.968	12684.61
505.17	12713.28
505.373	12703.04
505.576	12674.37
505.779	13286.71
505.982	13061.43
506.185	13495.6
506.387	13448.5
506.59	13741.36
506.793	13886.76
506.996	13976.87
507.198	14257.45
507.401	14318.89
507.604	14394.66
507.807	14810.4
508.009	15142.17
508.212	14937.37
508.415	15078.68
508.617	15209.75
508.82	15508.76
509.022	15402.26
509.225	15912.21
509.428	16000.27
509.63	16053.52
509.833	16190.73
510.035	16778.5
510.238	16696.58
510.44	17073.4
510.643	17063.16
510.845	17345.78
511.048	17353.98
511.25	17732.85
511.453	17233.15
511.655	18353.38
511.858	18056.43
512.06	18570.47
512.262	18926.82
512.465	18627.81
512.667	19080.41
512.87	19229.91
513.072	19283.16
513.274	19815.63
513.477	20055.25
513.679	20047.05
513.881	20247.76
514.084	20577.48
514.286	20511.94
514.488	20860.1
514.69	21601.46
514.893	21552.31
515.095	21707.96
515.297	21886.13
515.499	21996.72
515.701	22248.62
515.904	22688.93
516.106	22559.91
516.308	22983.84
516.51	23237.79
516.712	23512.22
516.914	23805.08
517.116	24124.56
517.318	24202.38
517.52	24302.73
517.722	24183.95
517.925	24857.73
518.127	25068.67
518.329	25545.85
518.531	25347.2
518.733	25617.53
518.935	25879.67
519.136	26354.8
519.338	26729.58
519.54	26457.2
519.742	27059.3
519.944	27173.99
520.146	27683.93
520.348	27745.37
520.55	27743.32
520.752	28068.95
520.954	28492.88
521.155	28275.79
521.357	28927.05
521.559	29082.69
521.761	29258.82
521.963	29508.67
522.164	29996.09
522.366	29817.91
522.568	30350.38
522.77	30420.02
522.971	31251.49
523.173	30624.81
523.375	30884.9
523.576	31153.19
523.778	31325.22
523.98	31906.84
524.181	31906.84
524.383	31902.75
524.584	32369.68
524.786	32162.84
524.988	32197.65
525.189	32668.69
525.391	33254.4
525.592	33240.07
525.794	33010.7
525.995	33518.59
526.197	33692.67
526.398	33545.22
526.6	33977.34
526.801	33938.43
527.003	34407.41
527.204	34247.67
527.406	34503.67
527.607	34741.23
527.808	34921.45
528.01	34456.56
528.211	35013.61
528.412	35429.35
528.614	35331.04
528.815	35326.95
529.016	35580.9
529.218	35290.09
529.419	35464.16
529.62	35951.58
529.822	35855.32
530.023	35857.37
530.224	35601.38
530.425	35984.35
530.626	35797.98
530.828	35791.84
531.029	36455.38
531.23	36234.2
531.431	36393.94
531.632	36348.89
531.833	36623.31
532.035	37067.72
532.236	36447.19
532.437	36565.97
532.638	36584.4
532.839	36588.5
533.04	36801.49
533.241	36348.89
533.442	37145.55
533.643	36848.59
533.844	36604.88
534.045	36828.11
534.246	36332.5
534.447	37288.9
534.648	36836.3
534.849	36953.04
535.05	36623.31
535.251	36869.07
535.451	37010.38
535.652	37059.53
535.853	37133.26
536.054	36971.47
536.255	37528.52
536.456	36922.32
536.657	37274.57
536.857	37284.81
537.058	36936.65
537.259	37180.36
537.46	37336.01
537.66	36760.53
537.861	37057.48
538.062	36785.1
538.263	37276.62
538.463	37065.67
538.664	37448.64
538.865	37903.29
539.065	37221.32
539.266	37073.87
539.466	37565.38
539.667	36875.21
539.868	37628.87
540.068	36946.89
540.269	36924.36
540.469	37618.63
540.67	36967.37
540.87	37305.29
541.071	37338.05
541.271	37178.31
541.472	37129.16
541.672	36991.95
541.873	36871.12
542.073	36512.72
542.274	37559.23
542.474	36914.12
542.675	36959.18
542.875	37567.43
543.075	37311.43
543.276	36903.88
543.476	37239.75
543.676	36942.8
543.877	37344.2
544.077	37086.15
544.277	37249.99
544.478	36914.12
544.678	37084.11
544.878	36936.65
545.078	37450.69
545.279	37053.39
545.479	37051.34
545.679	37348.29
545.879	37145.55
546.079	36991.95
546.28	37041.1
546.48	36662.22
546.68	37708.74
546.88	37147.59
547.08	37245.9
547.28	36987.85
547.48	36735.95
547.68	37239.75
547.88	36473.81
548.081	37010.38
548.281	37071.82
548.481	36731.86
548.681	36914.12
548.881	37254.09
549.081	37180.36
549.28	37063.63
549.48	37243.85
549.68	36975.56
549.88	37589.95
550.08	36602.83
550.28	37014.48
550.48	36910.03
550.68	37272.52
550.88	36981.71
551.08	37276.62
551.279	36770.77
551.479	36537.3
551.679	36907.98
551.879	37022.67
552.079	36977.61
552.278	36805.58
552.478	36811.73
552.678	36887.5
552.878	37022.67
553.077	37026.76
553.277	36817.87
553.477	37080.01
553.676	36846.54
553.876	36867.02
554.076	36533.2
554.275	36815.82
554.475	36375.51
554.674	36651.98
554.874	36692.94
555.074	36428.76
555.273	36383.7
555.473	37014.48
555.672	36492.24
555.872	36572.11
556.071	36312.02
556.271	36684.75
556.47	36496.34
556.67	35945.44
556.869	36273.11
557.068	35994.59
557.268	36236.25
557.467	36488.15
557.667	36146.14
557.866	36402.13
558.065	35572.71
558.265	35754.97
558.464	35726.3
558.663	36170.71
558.863	35705.82
559.062	36246.49
559.261	35421.16
559.461	36152.28
559.66	35415.01
559.859	35337.19
560.058	35308.52
560.258	35580.9
560.457	35259.37
560.656	35417.06
560.855	35197.93
561.054	35658.72
561.253	34929.64
561.453	35320.81
561.652	35132.39
561.851	35711.97
562.05	35015.66
562.249	35056.62
562.448	34724.85
562.647	34886.64
562.846	34589.68
563.045	34941.93
563.244	34735.09
563.443	34802.67
563.642	34307.06
563.841	34651.12
564.04	34446.32
564.239	34634.74
564.438	34343.92
564.637	34839.53
564.836	34747.37
565.035	33713.15
565.234	34157.56
565.432	34266.1
565.631	34089.98
565.83	34169.85
566.029	33965.05
566.228	33926.14
566.427	34012.15
566.625	33537.02
566.824	33133.57
567.023	33485.83
567.222	33291.27
567.42	34141.18
567.619	33451.01
567.818	33469.44
568.016	33364.99
568.215	33442.82
568.414	33014.79
568.612	33635.33
568.811	32850.95
569.01	33133.57
569.208	32490.51
569.407	32949.26
569.605	32500.75
569.804	32998.41
570.002	32328.72
570.201	32457.74
570.4	32310.29
570.598	32162.84
570.797	32214.04
570.995	31935.51
571.193	31771.68
571.392	32136.21
571.59	31466.53
571.789	31648.8
571.987	31863.83
572.186	31384.61
572.384	31491.1
572.582	31732.76
572.781	31306.79
572.979	30981.16
573.177	31145
573.376	31362.08
573.574	30600.24
573.772	31341.6
573.971	30655.53
574.169	30825.51
574.367	30649.39
574.565	30905.38
574.763	30581.81
574.962	30381.1
575.16	30565.42
575.358	30272.56
575.556	29832.25
575.754	30477.36
575.952	29834.3
576.151	30352.43
576.349	29637.69
576.547	29721.66
576.745	29615.16
576.943	29633.6
577.141	29576.25
577.339	29467.71
577.537	29432.89
577.735	29213.76
577.933	28591.18
578.131	29445.18
578.329	29084.74
578.527	28675.15
578.725	28890.18
578.923	29015.11
579.121	28527.69
579.319	28490.83
579.516	28777.54
579.714	28595.28
579.912	28460.11
580.11	28277.84
580.308	28652.62
580.506	28249.17
580.704	27835.48
580.901	28052.56
581.099	28013.65
581.297	27837.53
581.495	27499.61
581.692	27944.02
581.89	27337.82
582.088	27786.33
582.285	27243.62
582.483	27655.26
582.681	27339.87
582.878	27401.31
583.076	26928.23
583.274	27692.12
583.471	26944.61
583.669	26942.56
583.866	26711.14
584.064	26846.31
584.262	26471.53
584.459	26883.17
584.657	26625.13
584.854	26989.67
585.052	26195.06
585.249	26725.48
585.447	26279.02
585.644	25973.88
585.841	25932.92
586.039	26285.17
586.236	25576.57
586.434	25721.98
586.631	25793.65
586.828	25613.43
587.026	25662.58
587.223	25535.61
587.42	25508.99
587.618	25517.18
587.815	25074.82
588.012	25508.99
588.21	24822.92
588.407	25234.56
588.604	24847.49
588.801	24896.64
588.999	24867.97
589.196	24714.37
589.393	24841.35
589.59	24556.68
589.787	24493.19
589.984	24837.25
590.182	24312.97
590.379	24212.62
590.576	24085.65
590.773	24394.89
590.97	23884.95
591.167	24206.48
591.364	23850.13
591.561	24339.6
591.758	23856.28
591.955	23966.87
592.152	23819.41
592.349	23665.81
592.546	23538.84
592.743	23456.92
592.94	23127.2
593.137	23301.28
593.334	23542.94
593.531	23059.62
593.727	23172.25
593.924	23141.53
594.121	22949.03
594.318	23194.78
594.515	22936.74
594.712	23391.39
594.908	22856.87
595.105	23080.1
595.302	22523.05
595.499	22537.38
595.696	22461.61
595.892	22420.65
596.089	22402.22
596.286	22588.58
596.482	21855.41
596.679	22219.95
596.876	22432.94
597.072	22039.73
597.269	22131.89
597.466	22072.5
597.662	21929.14
597.859	22045.87
598.055	22084.78
598.252	21877.94
598.448	21810.36
598.645	21834.93
598.841	21275.84
599.038	21669.05
599.234	21617.85
599.431	21089.47
599.627	21163.2
599.824	21341.37
600.02	21003.46
600.217	20974.78
600.413	21028.03
600.609	20903.11
600.806	20712.64
601.002	21007.55
601.198	20782.27
601.395	20702.4
601.591	20554.95
601.787	20657.35
601.984	20495.56
602.18	20554.95
602.376	20485.32
602.572	20122.83
602.769	20415.69
602.965	20071.63
603.161	20231.37
603.357	20018.38
603.553	19913.94
603.75	20108.49
603.946	19844.31
604.142	19983.57
604.338	19743.95
604.534	19717.33
604.73	19672.28
604.926	19303.64
605.122	19174.62
605.318	19252.44
605.514	19455.19
605.71	19176.67
605.906	19162.33
606.102	19262.68
606.298	19092.7
606.494	19121.37
606.69	19152.09
606.886	18932.96
607.082	18697.44
607.278	18904.29
607.474	18593
607.67	18785.51
607.866	18658.53
608.062	18521.32
608.257	18435.3
608.453	18250.99
608.649	18496.74
608.845	18529.51
609.041	18119.92
609.236	18418.92
609.432	18187.5
609.628	18117.87
609.824	18128.11
610.019	18009.33
610.215	18052.33
610.411	18199.79
610.606	17796.34
610.802	17937.65
610.998	17818.86
611.193	17831.15
611.389	17925.36
611.584	17620.21
611.78	17562.87
611.976	17632.5
612.171	17730.8
612.367	17427.7
612.562	17231.1
612.758	17149.18
612.953	17116.41
613.149	17409.27
613.344	17077.5
613.539	17421.56
613.735	17143.03
613.93	17333.5
614.126	17245.43
614.321	17128.7
614.517	17048.83
614.712	16909.57
614.907	16903.42
615.103	17001.72
615.298	16682.24
615.493	16811.26
615.688	16794.88
615.884	16981.24
616.079	16590.08
616.274	16938.24
616.47	16520.45
616.665	16487.68
616.86	16407.81
617.055	16487.68
617.25	16145.67
617.445	16592.13
617.641	15951.12
617.836	16147.72
618.031	15912.21
618.226	16055.56
618.421	15910.16
618.616	16018.7
618.811	15936.78
619.006	16104.71
619.201	15621.39
619.396	15949.07
619.591	15482.13
619.786	15570.19
619.981	15461.65
620.176	15482.13
620.371	15445.27
620.566	15230.23
620.761	15230.23
620.956	15187.22
621.151	14898.46
621.346	15285.53
621.541	14566.69
621.735	14976.28
621.93	15004.96
622.125	14652.7
622.32	14542.11
622.515	14583.07
622.709	14368.04
622.904	14445.86
623.099	14310.69
623.294	14331.17
623.488	14130.47
623.683	14279.97
623.878	14044.46
624.072	13944.11
624.267	13978.92
624.462	13894.96
624.656	13905.2
624.851	13782.32
625.046	13557.04
625.24	13598
625.435	13315.38
625.629	13458.74
625.824	13450.55
626.018	13286.71
626.213	13034.81
626.407	13053.24
626.602	13188.41
626.796	13006.14
626.991	12784.96
627.185	12883.26
627.38	12672.32
627.574	12754.24
627.768	12539.2
627.963	12612.93
628.157	12426.56
628.352	12463.43
628.546	12305.73
628.74	12363.08
628.935	12197.19
629.129	12055.88
629.323	11988.3
629.517	12191.05
629.712	12019.02
629.906	11930.95
630.1	11787.6
630.294	11801.93
630.489	11726.16
630.683	11795.79
630.877	11681.1
631.071	11625.81
631.265	11613.52
631.459	11361.62
631.653	11312.47
631.848	11447.63
632.042	11111.77
632.236	11435.35
632.43	11148.63
632.624	11189.59
632.818	11109.72
633.012	10855.77
633.206	11009.37
633.4	10800.48
633.594	10855.77
633.788	10706.27
633.982	10677.6
634.176	10648.93
634.369	10720.6
634.563	10472.8
634.757	10421.6
634.951	10487.14
635.145	10298.72
635.339	10294.63
635.533	10145.13
635.726	10296.67
635.92	9989.48
636.114	10270.05
636.308	10085.73
636.501	10106.21
636.695	10083.69
636.889	9973.1
637.083	9895.27
637.276	9905.51
637.47	9788.78
637.664	9639.28
637.857	9651.56
638.051	9749.87
638.244	9416.05
638.438	9389.42
638.632	9571.69
638.825	9457.01
639.019	9463.15
639.212	9258.35
639.406	9244.02
639.599	9125.24
639.793	9250.16
639.986	8949.11
640.18	8967.54
640.373	8914.3
640.567	8908.15
640.76	8897.91
640.954	8811.9
641.147	8678.78
641.34	8510.85
641.534	8629.63
641.727	8508.8
641.92	8537.47
642.114	8504.7
642.307	8652.16
642.5	8451.46
642.694	8359.3
642.887	8334.72
643.08	8387.97
643.273	8400.26
643.467	8226.18
643.66	7996.81
643.853	8043.91
644.046	8023.43
644.239	8117.64
644.432	8007.05
644.626	7949.7
644.819	7761.29
645.012	7923.08
645.205	7775.63
645.398	7777.67
645.591	7775.63
645.784	7515.53
645.977	7488.91
646.17	7576.97
646.363	7456.14
646.556	7341.46
646.749	7411.09
646.942	7486.86
647.135	7222.67
647.328	7292.3
647.521	7093.65
647.714	7105.94
647.907	7251.35
648.099	7052.69
648.292	7083.41
648.485	7042.45
648.678	6800.79
648.871	6829.46
649.064	6897.05
649.256	6911.38
649.449	6944.15
649.642	6798.74
649.835	6661.53
650.027	6657.43
650.22	6743.45
650.413	6540.7
650.605	6716.83
650.798	6677.91
650.991	6546.84
651.183	6460.83
651.376	6421.92
651.568	6378.91
651.761	6405.53
651.954	6268.32
652.146	6264.22
652.339	6215.07
652.531	6317.47
652.724	6249.89
652.916	5832.1
653.109	6141.35
653.301	6288.8
653.494	5957.03
653.686	5920.17
653.879	5905.83
654.071	6051.24
654.263	5782.95
654.456	5967.27
654.648	5881.25
654.84	5696.94
655.033	5719.46
655.225	5596.59
655.417	5670.31
655.61	5520.81
655.802	5627.31
655.994	5340.59
656.186	5524.91
656.379	5354.93
656.571	5586.35
656.763	5307.82
656.955	5649.83
657.148	5563.82
657.34	5330.35
657.532	5338.54
657.724	5283.25
657.916	5258.67
658.108	5283.25
658.3	5176.75
658.492	5123.51
658.684	5184.94
658.876	5178.8
659.068	5103.03
659.26	4933.04
659.452	4969.91
659.644	4957.62
659.836	4990.39
660.028	5045.68
660.22	4904.37
660.412	4963.76
660.604	4783.54
660.796	4775.35
660.988	4818.36
661.18	4711.86
661.372	4701.62
661.563	4705.72
661.755	4664.76
661.947	4652.47
662.139	4699.58
662.331	4414.91
662.522	4498.88
662.714	4464.06
662.906	4484.54
663.097	4345.28
663.289	4472.25
663.481	4361.66
663.673	4390.33
663.864	4163.01
664.056	4349.37
664.247	4181.44
664.439	4113.86
664.631	4337.09
664.822	4267.45
665.014	4212.16
665.205	4281.79
665.397	4103.62
665.588	4226.5
665.78	4093.38
665.971	4015.55
666.163	3972.55
666.354	4081.09
666.546	4150.72
666.737	4072.9
666.929	3896.77
667.12	3999.17
667.311	3966.4
667.503	3968.45
667.694	3839.43
667.885	3872.2
668.077	3849.67
668.268	4040.13
668.459	3825.09
668.651	3833.29
668.842	3751.37
669.033	3847.62
669.224	3724.74
669.416	3843.53
669.607	3794.37
669.798	3687.88
669.989	3827.14
670.18	3599.82
670.371	3538.38
670.563	3630.54
670.754	3521.99
670.945	3519.95
671.136	3614.15
671.327	3546.57
671.518	3507.66
671.709	3608.01
671.9	3499.47
672.091	3489.23
672.282	3474.89
672.473	3425.74
672.664	3448.27
672.855	3397.07
673.046	3560.91
673.237	3526.09
673.428	3444.17
673.619	3323.34
673.809	3362.25
674	3364.3
674.191	3519.95
674.382	3327.44
674.573	3270.09
674.764	3319.25
674.954	3309.01
675.145	3302.86
675.336	3161.55
675.527	3284.43
675.717	3263.95
675.908	3245.52
676.099	3198.42
676.289	3212.75
676.48	3108.3
676.671	3194.32
676.861	3149.26
677.052	3216.85
677.243	3063.25
677.433	3063.25
677.624	3112.4
677.814	3098.06
678.005	3173.84
678.195	3087.82
678.386	3085.78
678.576	2975.19
678.767	2983.38
678.957	2946.52
679.148	2954.71
679.338	3018.19
679.529	2973.14
679.719	2993.62
679.909	2960.85
680.1	3010
680.29	2885.08
680.481	2983.38
680.671	2911.7
680.861	2917.84
681.052	2940.37
681.242	2956.75
681.432	2946.52
681.622	2907.6
681.813	2938.32
682.003	2860.5
682.193	2770.39
682.383	2952.66
682.573	2854.36
682.764	2747.86
682.954	2778.58
683.144	2885.08
683.334	2829.78
683.524	2770.39
683.714	2907.6
683.904	2823.64
684.094	2899.41
684.284	2858.45
684.474	2917.84
684.664	2766.29
684.854	2840.02
685.044	2762.2
685.234	2708.95
685.424	2862.55
685.614	2674.14
685.804	2745.81
685.994	2737.62
686.184	2725.33
686.374	2737.62
686.564	2717.14
686.753	2717.14
686.943	2745.81
687.133	2799.06
687.323	2754.01
687.513	2737.62
687.702	2667.99
687.892	2631.13
688.082	2694.61
688.272	2698.71
688.461	2571.74
688.651	2641.37
688.841	2618.84
689.03	2471.39
689.22	2667.99
689.41	2725.33
689.599	2590.17
689.789	2506.2
689.979	2657.75
690.168	2463.19
690.358	2672.09
690.547	2624.98
690.737	2616.79
690.926	2534.87
691.116	2653.66
691.305	2721.24
691.495	2469.34
691.684	2432.47
691.874	2616.79
692.063	2438.62
692.252	2559.45
692.442	2573.78
692.631	2495.96
692.82	2606.55
693.01	2532.83
693.199	2563.54
693.388	2545.11
693.578	2557.4
693.767	2545.11
693.956	2534.87
694.146	2407.9
694.335	2530.78
694.524	2375.13
694.713	2475.48
694.902	2450.91
695.092	2506.2
695.281	2473.43
695.47	2541.02
695.659	2481.63
695.848	2391.52
696.037	2577.88
696.226	2616.79
696.415	2495.96
696.604	2348.51
696.793	2459.1
696.982	2448.86
697.171	2455
697.36	2493.91
697.549	2403.8
697.738	2424.28
697.927	2403.8
698.116	2602.46
698.305	2389.47
698.494	2473.43
698.683	2420.19
698.872	2547.16
699.061	2512.35
699.25	2319.84
699.438	2387.42
699.627	2299.36
699.816	2371.04
700.005	2506.2
700.193	2475.48
700.382	2475.48
700.571	2475.48
700.76	2575.83
700.948	2323.93
701.137	2430.43
701.326	2438.62
701.514	2364.89
701.703	2354.65
701.892	2493.91
702.08	2438.62
702.269	2463.19
702.457	2407.9
702.646	2364.89
702.834	2317.79
703.023	2332.12
703.212	2330.08
703.4	2289.12
703.589	2307.55
703.777	2301.4
703.965	2430.43
704.154	2389.47
704.342	2360.8
704.531	2252.25
704.719	2334.17
704.907	2358.75
705.096	2432.47
705.284	2325.98
705.472	2358.75
705.661	2256.35
705.849	2285.02
706.037	2285.02
706.226	2147.81
706.414	2174.43
706.602	2313.69
706.79	2276.83
706.979	2229.73
707.167	2242.01
707.355	2112.99
707.543	2276.83
707.731	2145.76
707.919	2209.25
708.107	2194.91
708.296	2158.05
708.484	2104.8
708.672	2180.57
708.86	2145.76
709.048	2174.43
709.236	2125.28
709.424	2231.77
709.612	2067.94
709.8	2278.88
709.988	2014.69
710.176	2067.94
710.364	2104.8
710.551	2084.32
710.739	2186.72
710.927	2158.05
711.115	2004.45
711.303	2141.66
711.491	2004.45
711.679	2012.64
711.866	2084.32
712.054	2014.69
712.242	1940.96
712.43	1998.31
712.617	2039.26
712.805	2078.18
712.993	1971.68
713.181	2002.4
713.368	1957.35
713.556	1955.3
713.744	1861.09
713.931	1914.34
714.119	1936.87
714.306	1969.63
714.494	1857
714.682	1955.3
714.869	2065.89
715.057	1928.67
715.244	1836.52
715.432	2069.98
715.619	1861.09
715.807	1986.02
715.994	2033.12
716.182	1861.09
716.369	1914.34
716.556	1943.01
716.744	1887.72
716.931	1822.18
717.119	1795.56
717.306	1863.14
717.493	1887.72
717.681	1803.75
717.868	1854.95
718.055	1881.57
718.242	1854.95
718.43	1773.03
718.617	1914.34
718.804	1781.22
718.991	1715.69
719.179	1840.61
719.366	1764.84
719.553	1803.75
719.74	1709.54
719.927	1781.22
720.114	1721.83
720.301	1646.05
720.488	1762.79
720.676	1727.97
720.863	1711.59
721.05	1811.94
721.237	1674.73
721.424	1713.64
721.611	1818.08
721.798	1662.44
721.985	1646.05
722.172	1625.58
722.358	1721.83
722.545	1627.62
722.732	1568.23
722.919	1555.94
723.106	1572.33
723.293	1568.23
723.48	1596.9
723.667	1607.14
723.853	1531.37
724.04	1770.98
724.227	1695.21
724.414	1572.33
724.6	1658.34
724.787	1615.34
724.974	1564.14
725.161	1603.05
725.347	1590.76
725.534	1517.03
725.72	1629.67
725.907	1566.18
726.094	1529.32
726.28	1572.33
726.467	1523.18
726.653	1486.31
726.84	1541.61
727.027	1478.12
727.213	1537.51
727.4	1603.05
727.586	1537.51
727.773	1443.31
727.959	1543.66
728.145	1531.37
728.332	1439.21
728.518	1461.74
728.705	1416.68
728.891	1424.87
729.077	1459.69
729.264	1564.14
729.45	1506.79
729.636	1514.98
729.823	1471.98
730.009	1400.3
730.195	1461.74
730.382	1443.31
730.568	1361.39
730.754	1404.39
730.94	1441.26
731.126	1398.25
731.313	1394.15
731.499	1381.87
731.685	1410.54
731.871	1414.63
732.057	1412.59
732.243	1361.39
732.429	1390.06
732.615	1420.78
732.801	1394.15
732.987	1375.72
733.173	1326.57
733.359	1396.2
733.545	1439.21
733.731	1377.77
733.917	1390.06
734.103	1322.48
734.289	1385.96
734.475	1308.14
734.661	1342.96
734.847	1269.23
735.033	1404.39
735.219	1279.47
735.404	1381.87
735.59	1265.13
735.776	1293.8
735.962	1293.8
736.148	1365.48
736.333	1201.65
736.519	1277.42
736.705	1271.28
736.89	1265.13
737.076	1250.8
737.262	1328.62
737.447	1224.17
737.633	1283.56
737.819	1338.86
738.004	1205.74
738.19	1199.6
738.375	1279.47
738.561	1252.84
738.747	1177.07
738.932	1187.31
739.118	1222.13
739.303	1177.07
739.489	1215.98
739.674	1158.64
739.859	1209.84
740.045	1195.5
740.23	1220.08
740.416	1136.11
740.601	1117.68
740.786	1185.26
740.972	1152.49
741.157	1105.39
741.342	1132.01
741.528	1209.84
741.713	1154.54
741.898	1113.58
742.084	1154.54
742.269	1093.1
742.454	1170.93
742.639	1099.25
742.824	1080.82
743.01	1105.39
743.195	1121.77
743.38	1015.28
743.565	1091.06
743.75	1066.48
743.935	1138.16
744.12	1082.86
744.305	1111.54
744.49	986.61
744.675	1041.9
744.86	1041.9
745.045	1031.66
745.23	1095.15
745.415	1015.28
745.6	986.61
745.785	1072.62
745.97	1005.04
746.155	894.45
746.34	978.42
746.525	990.7
746.71	1017.33
746.895	939.51
747.079	919.03
747.264	1031.66
747.449	1056.24
747.634	990.7
747.819	921.07
748.003	972.27
748.188	949.75
748.373	1011.18
748.557	890.35
748.742	984.56
748.927	835.06
749.111	945.65
749.296	957.94
749.481	882.16
749.665	939.51
749.85	925.17
750.034	880.11
750.219	822.77
750.404	818.68
750.588	896.5
750.773	839.16
750.957	876.02
751.141	818.68
751.326	886.26
751.51	886.26
751.695	833.01
751.879	781.81
752.064	851.44
752.248	839.16
752.432	865.78
752.617	876.02
752.801	855.54
752.985	738.8
753.17	783.86
753.354	847.35
753.538	873.97
753.722	787.96
753.907	718.33
754.091	747
754.275	736.76
754.459	753.14
754.643	792.05
754.828	765.43
755.012	843.25
755.196	706.04
755.38	796.15
755.564	712.18
755.748	734.71
755.932	798.2
756.116	679.41
756.3	714.23
756.484	734.71
756.668	706.04
756.852	646.65
757.036	679.41
757.22	669.17
757.404	716.28
757.588	671.22
757.772	589.3
757.956	798.2
758.14	620.02
758.323	652.79
758.507	685.56
758.691	679.41
758.875	564.73
759.059	671.22
759.242	663.03
759.426	634.36
759.61	607.73
759.794	734.71
759.977	630.26
760.161	581.11
760.345	685.56
760.528	654.84
760.712	728.56
760.895	566.78
761.079	685.56
761.263	564.73
761.446	501.24
761.63	601.59
761.813	599.54
761.997	617.97
762.18	517.62
762.364	558.58
762.547	515.58
762.731	519.67
762.914	583.16
763.098	577.02
763.281	542.2
763.464	615.93
763.648	548.34
763.831	497.14
764.015	437.75
764.198	646.65
764.381	562.68
764.564	552.44
764.748	587.26
764.931	556.54
765.114	456.19
765.297	527.86
765.481	445.95
765.664	617.97
765.847	554.49
766.03	556.54
766.213	583.16
766.397	531.96
766.58	491
766.763	488.95
766.946	542.2
767.129	472.57
767.312	620.02
767.495	587.26
767.678	511.48
767.861	542.2
768.044	546.3
768.227	499.19
768.41	493.05
768.593	644.6
768.776	493.05
768.959	488.95
769.142	550.39
769.324	497.14
769.507	562.68
769.69	441.85
769.873	519.67
770.056	433.66
770.239	450.04
770.421	513.53
770.604	509.43
770.787	493.05
770.97	509.43
771.152	501.24
771.335	509.43
771.518	429.56
771.7	548.34
771.883	507.38
772.066	468.47
772.248	480.76
772.431	441.85
772.613	531.96
772.796	394.75
772.978	402.94
773.161	556.54
773.343	474.62
773.526	427.51
773.708	445.95
773.891	484.86
774.073	476.66
774.256	519.67
774.438	464.38
774.621	372.22
774.803	456.19
774.985	388.6
775.168	388.6
775.35	507.38
775.532	466.42
775.715	339.45
775.897	411.13
776.079	370.17
776.261	337.4
776.444	427.51
776.626	435.71
776.808	437.75
776.99	425.47
777.173	447.99
777.355	519.67
777.537	443.9
777.719	321.02
777.901	323.07
778.083	337.4
778.265	396.79
778.447	380.41
778.629	314.88
778.811	433.66
778.993	370.17
779.175	415.23
779.357	388.6
779.539	398.84
779.721	325.12
779.903	404.99
780.085	425.47
780.267	349.69
780.449	351.74
780.631	380.41
780.812	378.36
780.994	421.37
781.176	335.35
781.358	255.48
781.54	372.22
781.721	294.4
781.903	349.69
782.085	347.64
782.267	325.12
782.448	278.01
782.63	220.67
782.812	394.75
782.993	294.4
783.175	304.64
783.357	292.35
783.538	275.96
783.72	419.32
783.901	228.86
784.083	400.89
784.264	241.15
784.446	284.16
784.627	339.45
784.809	261.63
784.99	273.92
785.172	232.96
785.353	257.53
785.535	310.78
785.716	302.59
785.897	255.48
786.079	300.54
786.26	339.45
786.441	218.62
786.623	237.05
786.804	245.24
786.985	212.48
787.167	269.82
787.348	267.77
787.529	251.39
787.71	218.62
787.891	218.62
788.073	148.99
788.254	230.91
788.435	222.72
788.616	245.24
788.797	251.39
788.978	286.2
789.159	235
789.34	245.24
789.522	198.14
789.703	114.17
789.884	241.15
790.065	198.14
790.246	226.81
790.427	288.25
790.607	196.09
790.788	232.96
790.969	284.16
791.15	148.99
791.331	165.37
791.512	198.14
791.693	189.95
791.874	230.91
792.054	206.33
792.235	181.76
792.416	230.91
792.597	206.33
792.778	267.77
792.958	214.52
793.139	187.9
793.32	189.95
793.5	206.33
793.681	198.14
793.862	267.77
794.042	183.81
794.223	183.81
794.404	179.71
794.584	116.22
794.765	224.76
794.945	146.94
795.126	163.33
795.306	255.48
795.487	214.52
795.667	144.89
795.848	114.17
796.028	181.76
796.209	218.62
796.389	181.76
796.57	218.62
796.75	202.24
796.93	165.37
797.111	140.8
797.291	165.37
797.471	183.81
797.652	198.14
797.832	146.94
798.012	177.66
798.192	91.65
798.373	171.52
798.553	177.66
798.733	148.99
798.913	142.85
799.093	175.61
799.274	97.79
799.454	187.9
799.634	97.79
799.814	183.81
799.994	144.89
800.174	171.52
800.354	155.13
800.534	114.17
800.714	146.94
800.894	97.79
801.074	138.75
801.254	171.52
801.434	116.22
801.614	157.18
801.794	91.65
801.974	335.35
802.154	163.33
802.334	91.65
802.514	116.22
802.693	192
802.873	97.79
803.053	247.29
803.233	155.13
803.413	167.42
803.592	93.69
803.772	124.41
803.952	99.84
804.131	32.26
804.311	157.18
804.491	167.42
804.67	148.99
804.85	218.62
805.03	142.85
805.209	146.94
805.389	126.46
805.568	87.55
805.748	71.17
805.928	153.09
806.107	169.47
806.287	79.36
806.466	148.99
806.646	138.75
806.825	167.42
807.004	95.74
807.184	132.61
807.363	161.28
807.543	118.27
807.722	134.65
807.901	83.45
808.081	239.1
808.26	122.37
808.439	69.12
808.619	136.7
808.798	140.8
808.977	99.84
809.156	114.17
809.336	99.84
809.515	138.75
809.694	103.93
809.873	128.51
810.052	85.5
810.231	144.89
810.411	62.98
810.59	144.89
810.769	126.46
810.948	60.93
811.127	93.69
811.306	73.21
811.485	130.56
811.664	140.8
811.843	116.22
812.022	87.55
812.201	69.12
812.38	87.55
812.559	69.12
812.737	169.47
812.916	38.4
813.095	67.07
813.274	83.45
813.453	105.98
813.632	157.18
813.811	73.21
813.989	93.69
814.168	108.03
814.347	32.26
814.526	56.83
814.704	118.27
814.883	146.94
815.062	87.55
815.24	108.03
815.419	69.12
815.598	52.74
815.776	112.13
815.955	54.78
816.133	103.93
816.312	89.6
816.49	118.27
816.669	110.08
816.847	48.64
817.026	120.32
817.204	71.17
817.383	140.8
817.561	97.79
817.74	128.51
817.918	95.74
818.097	122.37
818.275	52.74
818.453	134.65
818.632	118.27
818.81	136.7
818.988	89.6
819.167	128.51
819.345	1.54
819.523	83.45
819.701	38.4
819.879	19.97
820.058	50.69
820.236	-41.47
820.414	79.36
820.592	50.69
820.77	81.41
820.948	32.26
821.127	28.16
821.305	110.08
821.483	32.26
821.661	67.07
821.839	13.82
822.017	34.3
822.195	79.36
822.373	91.65
822.551	93.69
822.729	67.07
822.907	83.45
823.085	101.89
823.262	48.64
823.44	75.26
823.618	44.54
823.796	116.22
823.974	83.45
824.152	62.98
824.329	3.58
824.507	128.51
824.685	91.65
824.863	52.74
825.04	101.89
825.218	67.07
825.396	108.03
825.574	71.17
825.751	44.54
825.929	69.12
826.107	52.74
826.284	40.45
826.462	77.31
826.639	97.79
826.817	134.65
826.994	15.87
827.172	108.03
827.349	50.69
827.527	24.06
827.704	81.41
827.882	36.35
828.059	71.17
828.237	42.5
828.414	83.45
828.591	95.74
828.769	95.74
828.946	56.83
829.124	97.79
829.301	58.88
829.478	116.22
829.655	97.79
829.833	122.37
830.01	15.87
830.187	19.97
830.364	34.3
830.542	83.45
830.719	87.55
830.896	69.12
831.073	71.17
831.25	-27.14
831.427	28.16
831.604	19.97
831.782	50.69
831.959	44.54
832.136	56.83
832.313	40.45
832.49	103.93
832.667	97.79
832.844	118.27
833.021	-20.99
833.198	46.59
833.374	116.22
833.551	58.88
833.728	1.54
833.905	85.5
834.082	7.68
834.259	58.88
834.436	118.27
834.612	30.21
834.789	97.79
834.966	77.31
835.143	40.45
835.319	50.69
835.496	17.92
835.673	62.98
835.85	99.84
836.026	17.92
836.203	60.93
836.38	118.27
836.556	77.31
836.733	13.82
836.909	85.5
837.086	54.78
837.262	124.41
837.439	34.3
837.616	34.3
837.792	69.12
837.968	132.61
838.145	22.02
838.321	83.45
838.498	-35.33
838.674	-10.75
838.851	32.26
839.027	56.83
839.203	46.59
839.38	-14.85
839.556	50.69
839.732	91.65
839.909	7.68
840.085	54.78
840.261	5.63
840.437	75.26
840.614	42.5
840.79	91.65
840.966	46.59
841.142	69.12
841.318	40.45
841.494	87.55
841.671	1.54
841.847	17.92
842.023	79.36
842.199	3.58
842.375	30.21
842.551	15.87
842.727	-20.99
842.903	22.02
843.079	17.92
843.255	34.3
843.431	42.5
843.607	69.12
843.783	-25.09
843.959	32.26
844.134	11.78
844.31	17.92
844.486	54.78
844.662	46.59
844.838	89.6
845.013	87.55
845.189	24.06
845.365	105.98
845.541	50.69
845.716	40.45
845.892	40.45
846.068	1.54
846.244	15.87
846.419	24.06
846.595	52.74
846.77	-6.66
846.946	5.63
847.122	34.3
847.297	56.83
847.473	15.87
847.648	65.02
847.824	75.26
847.999	-12.8
848.175	15.87
848.35	30.21
848.526	9.73
848.701	-39.42
848.876	15.87
849.052	87.55
849.227	-14.85
849.403	5.63
849.578	-31.23
849.753	15.87
849.929	58.88
850.104	-47.62
850.279	34.3
850.454	17.92
850.63	36.35
850.805	95.74
850.98	112.13
851.155	44.54
851.33	28.16
851.505	40.45
851.681	65.02
851.856	69.12
852.031	48.64
852.206	75.26
852.381	15.87
852.556	-61.95
852.731	-102.91
852.906	-6.66
853.081	7.68
853.256	77.31
853.431	3.58
853.606	42.5
853.781	108.03
853.956	32.26
854.131	87.55
854.305	9.73
854.48	7.68
854.655	24.06
854.83	77.31
855.005	54.78
855.18	-27.14
855.354	9.73
855.529	146.94
855.704	50.69
855.879	36.35
856.053	-18.94
856.228	58.88
856.403	36.35
856.577	17.92
856.752	15.87
856.926	3.58
857.101	30.21
857.276	67.07
857.45	13.82
857.625	7.68
857.799	11.78
857.974	-2.56
858.148	-12.8
858.323	9.73
858.497	40.45
858.672	32.26
858.846	3.58
859.02	83.45
859.195	103.93
859.369	75.26
859.543	13.82
859.718	13.82
859.892	22.02
860.066	19.97
860.241	60.93
860.415	46.59
860.589	-18.94
860.763	42.5
860.938	28.16
861.112	5.63
861.286	-20.99
861.46	46.59
861.634	-12.8
861.808	28.16
861.982	-55.81
862.157	11.78
862.331	67.07
862.505	3.58
862.679	56.83
862.853	7.68
863.027	-64
863.201	73.21
863.375	-10.75
863.549	11.78
863.722	-20.99
863.896	-35.33
864.07	1.54
864.244	-23.04
864.418	40.45
864.592	-2.56
864.766	19.97
864.939	54.78
865.113	19.97
865.287	77.31
865.461	-4.61
865.634	-29.18
865.808	-64
865.982	13.82
866.156	-20.99
866.329	-14.85
866.503	30.21
866.676	-6.66
866.85	52.74
867.024	9.73
867.197	40.45
867.371	-12.8
867.544	77.31
867.718	-23.04
867.891	46.59
868.065	-35.33
868.238	17.92
868.412	40.45
868.585	-6.66
868.759	11.78
868.932	67.07
869.105	-25.09
869.279	71.17
869.452	-23.04
869.625	-6.66
869.799	83.45
869.972	-49.66
870.145	5.63
870.319	-27.14
870.492	77.31
870.665	-39.42
870.838	9.73
871.011	50.69
871.185	38.4
871.358	19.97
871.531	65.02
871.704	-8.7
871.877	15.87
872.05	7.68
872.223	67.07
872.396	-53.76
872.569	44.54
872.742	67.07
872.915	5.63
873.088	75.26
873.261	-0.51
873.434	48.64
873.607	69.12
873.78	40.45
873.953	11.78
874.126	42.5
874.299	42.5
874.471	-37.38
874.644	-4.61
874.817	42.5
874.99	22.02
875.163	-6.66
875.335	69.12
875.508	34.3
875.681	38.4
875.853	-41.47
876.026	3.58
876.199	24.06
876.371	40.45
876.544	-35.33
876.717	1.54
876.889	-16.9
877.062	5.63
877.234	5.63
877.407	3.58
877.579	65.02
877.752	32.26
877.924	-2.56
878.097	42.5
878.269	3.58
878.442	42.5
878.614	46.59
878.786	19.97
878.959	28.16
879.131	-0.51
879.303	17.92
879.476	91.65
879.648	60.93
879.82	-4.61
879.993	-0.51
880.165	11.78
880.337	32.26
880.509	7.68
880.681	81.41
880.854	48.64
881.026	22.02
881.198	69.12
881.37	65.02
881.542	65.02
881.714	-6.66
881.886	58.88
882.058	34.3
882.23	-0.51
882.402	24.06
882.574	-12.8
882.746	26.11
882.918	60.93
883.09	38.4
883.262	-45.57
883.434	1.54
883.606	7.68
883.778	34.3
883.95	22.02
884.122	32.26
884.293	69.12
884.465	5.63
884.637	3.58
884.809	40.45
884.98	44.54
885.152	-4.61
885.324	58.88
885.496	7.68
885.667	-31.23
885.839	22.02
886.011	24.06
886.182	11.78
886.354	46.59
886.525	5.63
886.697	-0.51
886.869	-39.42
887.04	11.78
887.212	9.73
887.383	22.02
887.555	1.54
887.726	56.83
887.897	-33.28
888.069	42.5
888.24	-4.61
888.412	56.83
888.583	99.84
888.754	32.26
888.926	-0.51
889.097	17.92
889.268	9.73
889.44	-29.18
889.611	-41.47
889.782	-23.04
889.953	46.59
890.125	-74.24
890.296	-20.99
890.467	75.26
890.638	67.07
890.809	9.73
890.98	28.16
891.151	65.02
891.323	50.69
891.494	65.02
891.665	3.58
891.836	32.26
892.007	36.35
892.178	15.87
892.349	11.78
892.52	5.63
892.691	-0.51
892.862	-66.05
893.032	42.5
893.203	24.06
893.374	11.78
893.545	34.3
893.716	58.88
893.887	26.11
894.057	-31.23
894.228	-23.04
894.399	15.87
894.57	48.64
894.74	83.45
894.911	40.45
895.082	-10.75
895.253	-27.14
895.423	32.26
895.594	28.16
895.764	44.54
895.935	13.82
896.106	-14.85
896.276	56.83
896.447	54.78
896.617	40.45
896.788	87.55
896.958	-55.81
897.129	-23.04
897.299	-33.28
897.47	83.45
897.64	101.89
897.81	17.92
897.981	26.11
898.151	28.16
898.322	58.88
898.492	7.68
898.662	26.11
898.832	22.02
899.003	38.4
899.173	-16.9
899.343	1.54
899.513	22.02
