Data from USB4F104151__180__13-59-01-831.txt Node

Date: Thu Mar 13 13:59:01 EDT 2025
User: louis
Spectrometer: USB4F10415
Trigger mode: 4
Integration Time (sec): 1.000000E-2
Scans to average: 1
Electric dark correction enabled: true
Nonlinearity correction enabled: false
Boxcar width: 0
XAxis mode: Wavelengths
Number of Pixels in Spectrum: 3648
>>>>>Begin Spectral Data<<<<<
178.204	-45.06
178.424	-45.06
178.644	-45.06
178.864	-102.4
179.084	-55.3
179.304	-40.96
179.524	49.15
179.744	-47.1
179.964	4.1
180.184	-47.1
180.404	8.19
180.624	28.67
180.844	-79.87
181.064	14.34
181.283	28.67
181.503	53.25
181.723	28.67
181.943	0
182.163	-10.24
182.383	-10.24
182.602	14.34
182.822	-10.24
183.042	-12.29
183.262	-24.58
183.482	16.38
183.701	-26.62
183.921	83.97
184.141	-34.82
184.361	71.68
184.58	-55.3
184.8	-32.77
185.02	18.43
185.239	-16.38
185.459	10.24
185.679	16.38
185.898	-16.38
186.118	20.48
186.338	-28.67
186.557	-10.24
186.777	32.77
186.997	86.01
187.216	28.67
187.436	51.2
187.655	75.77
187.875	0
188.095	-102.4
188.314	-32.77
188.534	61.44
188.753	6.14
188.973	-26.62
189.192	61.44
189.412	-30.72
189.631	10.24
189.851	26.62
190.07	-26.62
190.29	34.82
190.509	0
190.729	10.24
190.948	20.48
191.168	65.54
191.387	69.63
191.607	-2.05
191.826	-63.49
192.045	-6.14
192.265	-4.1
192.484	-12.29
192.704	-20.48
192.923	-22.53
193.142	79.87
193.362	-43.01
193.581	-4.1
193.8	-28.67
194.02	30.72
194.239	22.53
194.458	-4.1
194.678	-4.1
194.897	0
195.116	12.29
195.335	-24.58
195.555	-63.49
195.774	47.1
195.993	30.72
196.212	43.01
196.432	-16.38
196.651	-20.48
196.87	-71.68
197.089	26.62
197.308	36.86
197.528	51.2
197.747	38.91
197.966	-65.53
198.185	28.67
198.404	-20.48
198.623	-4.1
198.842	69.63
199.062	-28.67
199.281	16.38
199.5	18.43
199.719	36.86
199.938	-24.58
200.157	77.82
200.376	22.53
200.595	67.58
200.814	-40.96
201.033	30.72
201.252	49.15
201.471	-38.91
201.69	-34.82
201.909	-49.15
202.128	-20.48
202.347	-53.25
202.566	-12.29
202.785	-4.1
203.004	26.62
203.223	20.48
203.442	-26.62
203.661	20.48
203.879	22.53
204.098	34.82
204.317	-40.96
204.536	-22.53
204.755	38.91
204.974	45.06
205.193	28.67
205.411	6.14
205.63	-57.34
205.849	-26.62
206.068	49.15
206.287	34.82
206.505	-49.15
206.724	-36.86
206.943	28.67
207.162	-2.05
207.381	-10.24
207.599	-18.43
207.818	24.58
208.037	26.62
208.255	20.48
208.474	20.48
208.693	40.96
208.911	-4.1
209.13	49.15
209.349	4.1
209.567	65.54
209.786	14.34
210.005	12.29
210.223	10.24
210.442	-12.29
210.661	-28.67
210.879	-36.86
211.098	-18.43
211.316	14.34
211.535	86.01
211.753	30.72
211.972	-32.77
212.191	-43.01
212.409	18.43
212.628	-51.2
212.846	86.01
213.065	32.77
213.283	-8.19
213.502	53.25
213.72	49.15
213.938	-34.82
214.157	-12.29
214.375	20.48
214.594	-51.2
214.812	-30.72
215.031	43.01
215.249	-28.67
215.467	10.24
215.686	14.34
215.904	55.3
216.122	-8.19
216.341	24.58
216.559	67.58
216.778	24.58
216.996	51.2
217.214	4.1
217.432	20.48
217.651	116.73
217.869	-24.58
218.087	14.34
218.306	14.34
218.524	71.68
218.742	-20.48
218.96	4.1
219.179	49.15
219.397	12.29
219.615	20.48
219.833	4.1
220.051	-22.53
220.27	36.86
220.488	28.67
220.706	57.34
220.924	20.48
221.142	71.68
221.36	4.1
221.578	16.38
221.796	57.34
222.015	-55.3
222.233	8.19
222.451	83.97
222.669	-8.19
222.887	-20.48
223.105	0
223.323	-53.25
223.541	71.68
223.759	-16.38
223.977	-14.34
224.195	65.54
224.413	57.34
224.631	-10.24
224.849	26.62
225.067	0
225.285	-34.82
225.503	36.86
225.721	-45.06
225.939	20.48
226.157	4.1
226.375	10.24
226.592	-24.58
226.81	14.34
227.028	-45.06
227.246	0
227.464	81.92
227.682	55.3
227.9	61.44
228.117	-92.16
228.335	-10.24
228.553	14.34
228.771	16.38
228.989	-10.24
229.206	-65.53
229.424	32.77
229.642	-34.82
229.86	94.21
230.077	14.34
230.295	81.92
230.513	38.91
230.731	-40.96
230.948	61.44
231.166	-2.05
231.384	32.77
231.601	-2.05
231.819	53.25
232.037	32.77
232.254	2.05
232.472	16.38
232.689	45.06
232.907	-20.48
233.125	14.34
233.342	45.06
233.56	-4.1
233.777	-4.1
233.995	-6.14
234.213	4.1
234.43	51.2
234.648	-14.34
234.865	-40.96
235.083	16.38
235.3	6.14
235.518	36.86
235.735	22.53
235.953	30.72
236.17	63.49
236.388	-4.1
236.605	-12.29
236.822	20.48
237.04	26.62
237.257	12.29
237.475	22.53
237.692	67.58
237.909	88.06
238.127	-36.86
238.344	10.24
238.562	26.62
238.779	45.06
238.996	-18.43
239.214	38.91
239.431	0
239.648	-30.72
239.865	18.43
240.083	36.86
240.3	30.72
240.517	36.86
240.735	-2.05
240.952	16.38
241.169	-22.53
241.386	32.77
241.603	8.19
241.821	-6.14
242.038	10.24
242.255	69.63
242.472	12.29
242.689	28.67
242.907	100.35
243.124	45.06
243.341	16.38
243.558	12.29
243.775	-28.67
243.992	10.24
244.209	20.48
244.426	65.54
244.643	81.92
244.86	-8.19
245.078	59.39
245.295	10.24
245.512	112.64
245.729	38.91
245.946	4.1
246.163	49.15
246.38	43.01
246.597	28.67
246.814	38.91
247.031	53.25
247.248	45.06
247.464	79.87
247.681	-30.72
247.898	12.29
248.115	114.69
248.332	14.34
248.549	8.19
248.766	81.92
248.983	8.19
249.2	61.44
249.417	38.91
249.633	45.06
249.85	32.77
250.067	-8.19
250.284	0
250.501	22.53
250.717	30.72
250.934	4.1
251.151	53.25
251.368	-12.29
251.585	38.91
251.801	36.86
252.018	2.05
252.235	-16.38
252.451	108.54
252.668	51.2
252.885	-38.91
253.102	-36.86
253.318	12.29
253.535	34.82
253.752	22.53
253.968	51.2
254.185	43.01
254.401	-69.63
254.618	40.96
254.835	59.39
255.051	53.25
255.268	0
255.484	0
255.701	10.24
255.917	63.49
256.134	-2.05
256.351	-32.77
256.567	-18.43
256.784	-43.01
257	-16.38
257.217	-2.05
257.433	-36.86
257.65	8.19
257.866	-8.19
258.082	49.15
258.299	86.01
258.515	2.05
258.732	22.53
258.948	53.25
259.165	43.01
259.381	4.1
259.597	38.91
259.814	65.54
260.03	14.34
260.246	120.83
260.463	36.86
260.679	-20.48
260.895	28.67
261.112	10.24
261.328	-2.05
261.544	-12.29
261.761	32.77
261.977	14.34
262.193	-4.1
262.409	-18.43
262.626	6.14
262.842	57.34
263.058	137.21
263.274	20.48
263.49	73.73
263.707	-69.63
263.923	67.58
264.139	14.34
264.355	-8.19
264.571	-43.01
264.787	38.91
265.004	-12.29
265.22	65.54
265.436	49.15
265.652	6.14
265.868	38.91
266.084	-2.05
266.3	38.91
266.516	20.48
266.732	-86.01
266.948	77.82
267.164	61.44
267.38	-10.24
267.596	86.01
267.812	-6.14
268.028	28.67
268.244	20.48
268.46	59.39
268.676	-2.05
268.892	-12.29
269.108	24.58
269.324	53.25
269.54	-28.67
269.756	14.34
269.972	36.86
270.188	-51.2
270.403	0
270.619	-20.48
270.835	90.11
271.051	45.06
271.267	-20.48
271.483	34.82
271.698	4.1
271.914	6.14
272.13	-36.86
272.346	-18.43
272.562	32.77
272.777	28.67
272.993	14.34
273.209	18.43
273.425	14.34
273.64	-53.25
273.856	22.53
274.072	36.86
274.287	-6.14
274.503	-4.1
274.719	-2.05
274.934	-43.01
275.15	57.34
275.366	26.62
275.581	4.1
275.797	16.38
276.012	18.43
276.228	-36.86
276.444	63.49
276.659	28.67
276.875	-34.82
277.09	-12.29
277.306	36.86
277.521	-45.06
277.737	4.1
277.952	-24.58
278.168	36.86
278.383	61.44
278.599	-26.62
278.814	71.68
279.03	12.29
279.245	53.25
279.461	47.1
279.676	12.29
279.892	63.49
280.107	24.58
280.322	24.58
280.538	34.82
280.753	4.1
280.969	4.1
281.184	-2.05
281.399	53.25
281.615	36.86
281.83	63.49
282.045	30.72
282.26	40.96
282.476	-75.77
282.691	-4.1
282.906	24.58
283.122	-20.48
283.337	38.91
283.552	86.01
283.767	69.63
283.983	-26.62
284.198	14.34
284.413	51.2
284.628	-36.86
284.843	38.91
285.058	34.82
285.274	0
285.489	36.86
285.704	-28.67
285.919	18.43
286.134	14.34
286.349	40.96
286.564	28.67
286.779	4.1
286.995	51.2
287.21	14.34
287.425	0
287.64	24.58
287.855	47.1
288.07	16.38
288.285	49.15
288.5	34.82
288.715	81.92
288.93	24.58
289.145	10.24
289.36	26.62
289.575	-114.69
289.79	-26.62
290.004	0
290.219	94.21
290.434	-8.19
290.649	57.34
290.864	14.34
291.079	22.53
291.294	45.06
291.509	24.58
291.724	-10.24
291.938	8.19
292.153	49.15
292.368	57.34
292.583	14.34
292.798	-18.43
293.012	-75.77
293.227	0
293.442	22.53
293.657	-6.14
293.871	94.21
294.086	51.2
294.301	-30.72
294.516	61.44
294.73	159.74
294.945	30.72
295.16	-28.67
295.374	22.53
295.589	-34.82
295.804	63.49
296.018	24.58
296.233	96.25
296.447	47.1
296.662	18.43
296.877	36.86
297.091	-36.86
297.306	57.34
297.52	43.01
297.735	28.67
297.949	4.1
298.164	57.34
298.378	32.77
298.593	28.67
298.807	34.82
299.022	26.62
299.236	53.25
299.451	16.38
299.665	4.1
299.88	-14.34
300.094	36.86
300.309	26.62
300.523	36.86
300.737	75.77
300.952	90.11
301.166	65.54
301.381	63.49
301.595	10.24
301.809	38.91
302.024	-32.77
302.238	-40.96
302.452	94.21
302.667	116.73
302.881	43.01
303.095	57.34
303.309	69.63
303.524	-18.43
303.738	4.1
303.952	24.58
304.166	14.34
304.381	-26.62
304.595	28.67
304.809	57.34
305.023	22.53
305.237	22.53
305.452	36.86
305.666	71.68
305.88	67.58
306.094	83.97
306.308	16.38
306.522	30.72
306.736	-38.91
306.95	22.53
307.164	137.21
307.379	-53.25
307.593	0
307.807	40.96
308.021	-2.05
308.235	53.25
308.449	20.48
308.663	32.77
308.877	65.54
309.091	96.25
309.305	53.25
309.519	-53.25
309.733	61.44
309.947	-18.43
310.161	77.82
310.374	-6.14
310.588	-28.67
310.802	0
311.016	36.86
311.23	14.34
311.444	-18.43
311.658	22.53
311.872	53.25
312.085	-40.96
312.299	18.43
312.513	-22.53
312.727	63.49
312.941	-16.38
313.154	32.77
313.368	-2.05
313.582	30.72
313.796	16.38
314.009	14.34
314.223	36.86
314.437	10.24
314.651	100.35
314.864	20.48
315.078	63.49
315.292	32.77
315.505	-20.48
315.719	-8.19
315.933	28.67
316.146	77.82
316.36	-14.34
316.573	53.25
316.787	-12.29
317.001	86.01
317.214	49.15
317.428	18.43
317.641	20.48
317.855	36.86
318.068	2.05
318.282	-36.86
318.495	57.34
318.709	-10.24
318.922	34.82
319.136	-2.05
319.349	69.63
319.563	-22.53
319.776	59.39
319.99	-32.77
320.203	18.43
320.417	59.39
320.63	-43.01
320.843	-4.1
321.057	47.1
321.27	47.1
321.483	20.48
321.697	65.54
321.91	20.48
322.124	18.43
322.337	-18.43
322.55	100.35
322.763	45.06
322.977	55.3
323.19	-2.05
323.403	6.14
323.617	75.77
323.83	-18.43
324.043	86.01
324.256	6.14
324.469	-26.62
324.683	71.68
324.896	86.01
325.109	79.87
325.322	10.24
325.535	24.58
325.748	49.15
325.962	24.58
326.175	8.19
326.388	65.54
326.601	-6.14
326.814	71.68
327.027	20.48
327.24	4.1
327.453	-4.1
327.666	30.72
327.879	22.53
328.092	26.62
328.305	14.34
328.518	34.82
328.731	18.43
328.944	12.29
329.157	69.63
329.37	-43.01
329.583	-14.34
329.796	65.54
330.009	4.1
330.222	110.59
330.435	-49.15
330.648	14.34
330.861	69.63
331.073	45.06
331.286	-83.97
331.499	-12.29
331.712	26.62
331.925	65.54
332.138	57.34
332.35	69.63
332.563	-4.1
332.776	59.39
332.989	0
333.202	45.06
333.414	36.86
333.627	14.34
333.84	-20.48
334.053	-45.06
334.265	49.15
334.478	12.29
334.691	16.38
334.903	30.72
335.116	26.62
335.329	-2.05
335.541	22.53
335.754	-40.96
335.966	-20.48
336.179	69.63
336.392	-49.15
336.604	47.1
336.817	8.19
337.029	28.67
337.242	57.34
337.454	49.15
337.667	-4.1
337.88	55.3
338.092	26.62
338.305	18.43
338.517	-2.05
338.729	-8.19
338.942	8.19
339.154	-2.05
339.367	100.35
339.579	-10.24
339.792	-32.77
340.004	-2.05
340.217	96.25
340.429	12.29
340.641	24.58
340.854	-20.48
341.066	-45.06
341.278	38.91
341.491	28.67
341.703	-4.1
341.915	55.3
342.128	47.1
342.34	77.82
342.552	-10.24
342.764	55.3
342.977	-12.29
343.189	43.01
343.401	28.67
343.613	-16.38
343.826	73.73
344.038	24.58
344.25	28.67
344.462	-8.19
344.674	16.38
344.886	30.72
345.099	6.14
345.311	-6.14
345.523	28.67
345.735	-4.1
345.947	45.06
346.159	45.06
346.371	18.43
346.583	-2.05
346.795	12.29
347.007	22.53
347.219	6.14
347.431	49.15
347.643	55.3
347.855	8.19
348.067	0
348.279	83.97
348.491	51.2
348.703	24.58
348.915	4.1
349.127	53.25
349.339	57.34
349.551	106.49
349.763	69.63
349.975	18.43
350.187	71.68
350.399	-63.49
350.61	47.1
350.822	38.91
351.034	-12.29
351.246	2.05
351.458	-4.1
351.669	57.34
351.881	81.92
352.093	40.96
352.305	61.44
352.517	12.29
352.728	73.73
352.94	45.06
353.152	-8.19
353.363	14.34
353.575	104.45
353.787	38.91
353.999	-14.34
354.21	104.45
354.422	57.34
354.633	30.72
354.845	36.86
355.057	38.91
355.268	59.39
355.48	16.38
355.692	-22.53
355.903	36.86
356.115	63.49
356.326	40.96
356.538	43.01
356.749	32.77
356.961	94.21
357.172	45.06
357.384	16.38
357.595	81.92
357.807	65.54
358.018	53.25
358.23	16.38
358.441	8.19
358.653	65.54
358.864	63.49
359.075	-12.29
359.287	2.05
359.498	-49.15
359.709	-40.96
359.921	-18.43
360.132	79.87
360.344	-71.68
360.555	65.54
360.766	-49.15
360.977	86.01
361.189	26.62
361.4	49.15
361.611	77.82
361.823	22.53
362.034	4.1
362.245	-28.67
362.456	45.06
362.667	53.25
362.879	-16.38
363.09	28.67
363.301	77.82
363.512	-18.43
363.723	-4.1
363.935	79.87
364.146	86.01
364.357	26.62
364.568	8.19
364.779	28.67
364.99	-18.43
365.201	49.15
365.412	77.82
365.623	38.91
365.834	55.3
366.045	38.91
366.256	-10.24
366.467	45.06
366.678	28.67
366.889	24.58
367.1	96.25
367.311	110.59
367.522	51.2
367.733	43.01
367.944	51.2
368.155	4.1
368.366	-18.43
368.577	45.06
368.788	79.87
368.999	12.29
369.209	86.01
369.42	69.63
369.631	53.25
369.842	-18.43
370.053	22.53
370.264	-2.05
370.474	-8.19
370.685	20.48
370.896	69.63
371.107	20.48
371.317	139.26
371.528	-2.05
371.739	36.86
371.95	32.77
372.16	96.25
372.371	2.05
372.582	-12.29
372.792	45.06
373.003	24.58
373.214	53.25
373.424	12.29
373.635	30.72
373.846	12.29
374.056	16.38
374.267	30.72
374.477	53.25
374.688	36.86
374.898	-28.67
375.109	-2.05
375.319	-16.38
375.53	-12.29
375.74	45.06
375.951	38.91
376.161	20.48
376.372	116.73
376.582	45.06
376.793	81.92
377.003	22.53
377.214	53.25
377.424	96.25
377.635	61.44
377.845	2.05
378.055	59.39
378.266	104.45
378.476	49.15
378.686	12.29
378.897	45.06
379.107	92.16
379.317	32.77
379.528	32.77
379.738	79.87
379.948	12.29
380.158	88.06
380.369	38.91
380.579	2.05
380.789	-12.29
380.999	6.14
381.21	22.53
381.42	135.17
381.63	22.53
381.84	28.67
382.05	61.44
382.261	75.77
382.471	22.53
382.681	14.34
382.891	45.06
383.101	106.49
383.311	4.1
383.521	0
383.731	20.48
383.941	47.1
384.151	16.38
384.361	34.82
384.571	24.58
384.781	-4.1
384.991	12.29
385.201	67.58
385.411	-92.16
385.621	-20.48
385.831	34.82
386.041	88.06
386.251	22.53
386.461	57.34
386.671	34.82
386.881	86.01
387.091	28.67
387.301	28.67
387.511	8.19
387.72	51.2
387.93	-24.58
388.14	67.58
388.35	43.01
388.56	45.06
388.769	14.34
388.979	86.01
389.189	-53.25
389.399	104.45
389.609	-12.29
389.818	135.17
390.028	81.92
390.238	8.19
390.447	-90.11
390.657	-36.86
390.867	36.86
391.076	81.92
391.286	81.92
391.496	38.91
391.705	32.77
391.915	59.39
392.125	86.01
392.334	59.39
392.544	20.48
392.753	34.82
392.963	96.25
393.172	-10.24
393.382	-32.77
393.591	145.41
393.801	6.14
394.01	59.39
394.22	59.39
394.429	20.48
394.639	77.82
394.848	102.4
395.058	55.3
395.267	65.54
395.477	43.01
395.686	86.01
395.895	34.82
396.105	77.82
396.314	16.38
396.524	65.54
396.733	86.01
396.942	151.55
397.152	10.24
397.361	83.97
397.57	102.4
397.78	40.96
397.989	92.16
398.198	55.3
398.407	110.59
398.617	71.68
398.826	45.06
399.035	69.63
399.244	67.58
399.453	65.54
399.663	124.93
399.872	114.69
400.081	12.29
400.29	30.72
400.499	20.48
400.708	151.55
400.917	51.2
401.127	112.64
401.336	51.2
401.545	139.26
401.754	75.77
401.963	114.69
402.172	96.25
402.381	61.44
402.59	79.87
402.799	135.17
403.008	131.07
403.217	112.64
403.426	45.06
403.635	114.69
403.844	49.15
404.053	96.25
404.262	100.35
404.471	169.98
404.68	77.82
404.888	104.45
405.097	118.78
405.306	94.21
405.515	227.32
405.724	167.93
405.933	102.4
406.142	92.16
406.35	167.93
406.559	94.21
406.768	241.66
406.977	172.03
407.185	155.65
407.394	192.51
407.603	235.52
407.812	153.6
408.02	163.84
408.229	133.12
408.438	114.69
408.646	258.04
408.855	243.71
409.064	233.47
409.272	219.13
409.481	290.81
409.69	210.94
409.898	186.37
410.107	243.71
410.315	301.05
410.524	219.13
410.733	284.67
410.941	325.63
411.15	282.62
411.358	346.11
411.567	358.39
411.775	346.11
411.984	352.25
412.192	419.83
412.401	442.36
412.609	428.03
412.818	460.79
413.026	358.39
413.234	419.83
413.443	475.13
413.651	524.28
413.86	491.51
414.068	428.03
414.276	479.22
414.485	491.51
414.693	604.15
414.901	608.25
415.11	651.25
415.318	657.4
415.526	610.29
415.734	679.93
415.943	714.74
416.151	669.69
416.359	720.89
416.567	784.37
416.776	808.95
416.984	831.48
417.192	821.24
417.4	903.15
417.608	837.62
417.817	917.49
418.025	919.54
418.233	1026.03
418.441	1026.03
418.649	1011.7
418.857	1071.09
419.065	1126.38
419.273	1036.27
419.481	1165.29
419.689	1253.36
419.897	1312.75
420.105	1271.79
420.313	1378.28
420.521	1460.2
420.729	1441.77
420.937	1464.3
421.145	1517.54
421.353	1644.52
421.561	1703.91
421.769	1761.25
421.977	1748.97
422.185	1732.58
422.393	1865.7
422.601	2039.78
422.809	2045.92
423.017	2007.01
423.224	2140.13
423.432	2103.26
423.64	2099.17
423.848	2322.4
424.056	2326.49
424.263	2428.89
424.471	2508.76
424.679	2486.23
424.887	2652.12
425.094	2760.66
425.302	2850.77
425.51	2920.4
425.718	2979.79
425.925	2977.75
426.133	3129.3
426.341	3272.65
426.548	3383.24
426.756	3493.83
426.964	3442.64
427.171	3686.34
427.379	3698.63
427.586	3817.41
427.794	3954.63
428.001	4079.55
428.209	4153.28
428.417	4175.81
428.624	4546.49
428.832	4491.2
429.039	4544.44
429.247	4468.67
429.454	4853.69
429.662	5173.17
429.869	4927.41
430.076	5193.65
430.284	5058.48
430.491	5359.53
430.699	5683.11
430.906	5623.72
431.114	5656.49
431.321	6012.84
431.528	5918.63
431.736	6254.5
431.943	6614.94
432.15	6483.87
432.358	6637.47
432.565	6944.66
432.772	7088.02
432.979	7182.23
433.187	7368.59
433.394	7473.04
433.601	8023.94
433.808	7849.86
434.016	8052.61
434.223	8515.45
434.43	8859.51
434.637	8587.13
434.844	9142.13
435.052	9553.77
435.259	9371.5
435.466	9387.89
435.673	9092.98
435.88	9873.26
436.087	10119.01
436.294	10321.76
436.501	10012.52
436.708	10272.61
436.915	10467.17
437.122	11079.51
437.329	11114.33
437.537	11382.61
437.743	11599.69
437.95	11583.31
438.157	12148.55
438.364	12451.65
438.571	12521.28
438.778	12521.28
438.985	13752.11
439.192	13131.58
439.399	13788.97
439.606	13150.01
439.813	13995.82
440.02	14919.45
440.227	14583.59
440.433	14640.93
440.64	15066.91
440.847	14886.68
441.054	15261.46
441.261	16207.62
441.467	15939.34
441.674	16365.32
441.881	16752.38
442.088	16867.07
442.294	16711.42
442.501	17170.17
442.708	17557.24
442.914	18226.92
443.121	19226.33
443.328	18890.46
443.534	19807.95
443.741	19519.19
443.948	19166.94
444.154	20598.47
444.361	20412.1
444.568	20676.29
444.774	20563.65
444.981	20471.5
445.187	21165.76
445.394	21925.55
445.6	21911.22
445.807	23973.52
446.013	22949.54
446.22	23299.74
446.426	24573.58
446.633	24503.95
446.839	25331.33
447.046	24198.8
447.252	25499.26
447.459	25853.56
447.665	25382.52
447.871	26664.55
448.078	27829.85
448.284	26386.03
448.491	26990.18
448.697	27924.05
448.903	28563.02
449.11	28585.55
449.316	28374.61
449.522	28982.85
449.728	29439.55
449.935	29791.8
450.141	29980.21
450.347	30582.32
450.553	29292.1
450.76	29826.62
450.966	30844.46
451.172	30359.09
451.378	30987.82
451.584	30625.32
451.791	31317.54
451.997	31151.65
452.203	31645.21
452.409	31888.92
452.615	31536.67
452.821	30453.3
453.027	29888.06
453.233	31692.32
453.44	30563.89
453.646	30703.15
453.852	30987.82
454.058	31575.58
454.264	30531.12
454.47	30914.09
454.676	30275.12
454.882	31114.79
455.088	28505.68
455.294	28980.81
455.5	29296.19
455.705	29634.11
455.911	28577.36
456.117	27944.53
456.323	27666.01
456.529	25953.91
456.735	27573.85
456.941	26629.74
457.147	26334.83
457.352	25294.46
457.558	25286.27
457.764	24819.33
457.97	24923.78
458.176	24030.87
458.381	24413.84
458.587	22953.63
458.793	22965.92
458.999	21874.35
459.204	23436.95
459.41	22847.14
459.616	21014.21
459.821	21221.05
460.027	21278.4
460.233	20909.76
460.438	19726.03
460.644	20088.53
460.85	19039.97
461.055	18874.08
461.261	18628.32
461.466	17368.82
461.672	16998.14
461.878	18044.65
462.083	16748.29
462.289	16594.69
462.494	16574.21
462.7	15517.46
462.905	15384.34
463.111	15707.92
463.316	15937.29
463.522	15728.4
463.727	15726.35
463.932	15802.13
464.138	15472.4
464.343	15499.03
464.549	14933.79
464.754	15671.06
464.959	15306.52
465.165	15161.11
465.37	14755.61
465.575	14245.67
465.781	14886.68
465.986	14591.78
466.191	14386.98
466.397	14200.62
466.602	13410.1
466.807	13944.62
467.012	14044.97
467.218	13905.71
467.423	13532.98
467.628	13885.23
467.833	14219.05
468.038	13645.62
468.244	13524.79
468.449	14067.5
468.654	13608.75
468.859	13543.22
469.064	13479.73
469.269	12885.82
469.474	13104.95
469.679	13197.11
469.885	12668.73
470.09	12982.07
470.295	13059.9
470.5	12597.06
470.705	12633.92
470.91	12353.35
471.115	12222.28
471.32	12373.83
471.525	12377.92
471.73	12121.93
471.935	12068.68
472.139	11652.94
472.344	11913.03
472.549	11622.22
472.754	11554.64
472.959	11368.27
473.164	11059.03
473.369	10852.19
473.574	11304.79
473.778	11341.65
473.983	11200.34
474.188	10964.82
474.393	10766.17
474.598	10647.39
474.802	10616.67
475.007	10651.49
475.212	10508.13
475.417	10141.54
475.621	10057.57
475.826	10164.07
476.031	9942.89
476.235	9690.99
476.44	9865.07
476.645	9723.76
476.849	9736.04
477.054	9590.64
477.259	9299.83
477.463	9604.97
477.668	9254.77
477.872	9353.07
478.077	9344.88
478.282	9103.22
478.486	9092.98
478.691	8851.32
478.895	8955.77
479.1	8710.01
479.304	8658.81
479.509	8580.99
479.713	8617.85
479.918	8499.07
480.122	8376.19
480.326	8451.97
480.531	8720.25
480.735	8368
480.94	8347.52
481.144	8566.65
481.348	8095.62
481.553	8251.27
481.757	8091.52
481.961	8105.86
482.166	8415.1
482.37	8363.9
482.574	8163.2
482.778	8083.33
482.983	8312.71
483.187	8341.38
483.391	8204.16
483.595	8083.33
483.8	8013.7
484.004	8134.53
484.208	8177.54
484.412	8148.87
484.616	8097.67
484.821	8247.17
485.025	8216.45
485.229	8314.75
485.433	8218.5
485.637	8361.86
485.841	8066.95
486.045	8198.02
486.249	8261.51
486.453	8138.63
486.657	8195.97
486.861	8402.82
487.065	8138.63
487.269	8243.07
487.473	8112
487.677	8370.05
487.881	8208.26
488.085	8140.68
488.289	8234.88
488.493	8193.92
488.697	8185.73
488.901	8376.19
489.105	8249.22
489.309	8298.37
489.512	8351.62
489.716	8376.19
489.92	8230.79
490.124	8273.79
490.328	8388.48
490.531	8335.23
490.735	8591.23
490.939	8382.34
491.143	8396.67
491.346	8359.81
491.55	8621.95
491.754	8855.42
491.958	8740.73
492.161	8673.15
492.365	8624
492.569	8640.38
492.772	8378.24
492.976	8755.07
493.18	8642.43
493.383	9006.97
493.587	9056.12
493.79	9162.61
493.994	8998.77
494.197	9146.23
494.401	9238.39
494.605	9244.53
494.808	9475.95
495.012	9434.99
495.215	9355.12
495.419	9506.67
495.622	9502.57
495.825	9549.68
496.029	9656.17
496.232	9936.74
496.436	9828.2
496.639	10192.74
496.843	10030.95
497.046	10348.39
497.249	10301.28
497.453	10487.65
497.656	10614.62
497.859	10633.05
498.063	10747.74
498.266	10751.84
498.469	11044.7
498.673	11183.96
498.876	11122.52
499.079	11321.17
499.282	11364.18
499.485	11560.78
499.689	11609.93
499.892	11794.25
500.095	11810.64
500.298	12293.96
500.501	12056.39
500.705	12408.64
500.908	12336.96
501.111	12523.33
501.314	12783.42
501.517	12857.15
501.72	12996.41
501.923	13223.73
502.126	13356.85
502.329	13557.55
502.532	13735.73
502.735	13965.1
502.938	14217
503.141	14253.86
503.344	14477.09
503.547	14417.7
503.75	14624.54
503.953	14917.4
504.156	15218.46
504.359	15357.72
504.562	15355.67
504.765	15707.92
504.968	15597.33
505.17	16008.97
505.373	16293.64
505.576	16336.65
505.779	16682.75
505.982	16727.81
506.185	17227.51
506.387	17010.43
506.59	17252.09
506.793	17579.76
506.996	17633.01
507.198	18302.7
507.401	17952.49
507.604	18534.12
507.807	18677.47
508.009	18892.51
508.212	18923.23
508.415	19152.6
508.617	19445.46
508.82	19705.56
509.022	19517.14
509.225	20143.82
509.428	20498.12
509.63	20577.99
509.833	20790.98
510.035	21212.86
510.238	21321.4
510.44	21587.64
510.643	21905.07
510.845	21923.51
511.048	21911.22
511.25	22423.21
511.453	22750.88
511.655	23633.56
511.858	23500.44
512.06	23590.55
512.262	23727.77
512.465	23889.56
512.667	24336.01
512.87	24469.13
513.072	24714.89
513.274	25319.04
513.477	25521.79
513.679	25767.54
513.881	26091.12
514.084	26357.36
514.286	26588.78
514.488	26902.12
514.69	27381.34
514.893	27522.65
515.095	27799.13
515.297	28139.09
515.499	28096.08
515.701	28841.54
515.904	29048.39
516.106	29009.48
516.308	29314.62
516.51	30037.56
516.712	30264.88
516.914	30350.9
517.116	30748.2
517.318	30547.5
517.52	30928.42
517.722	31028.77
517.925	32108.05
518.127	32075.29
518.329	32531.98
518.531	32538.13
518.733	33234.44
518.935	33197.57
519.136	33783.29
519.338	34287.09
519.54	34389.49
519.742	34555.38
519.944	35003.88
520.146	35577.31
520.348	35503.59
520.55	35812.83
520.752	35904.99
520.954	36371.93
521.155	36595.15
521.357	36957.64
521.559	37363.14
521.761	37852.61
521.963	37815.74
522.164	38153.66
522.366	38010.3
522.568	38944.17
522.77	38751.66
522.971	39108.01
523.173	39212.46
523.375	39677.35
523.576	39792.03
523.778	39959.97
523.98	40369.56
524.181	40777.11
524.383	41258.38
524.584	41268.62
524.786	41186.7
524.988	41600.39
525.189	41733.51
525.391	42016.13
525.592	42524.02
525.794	42343.8
525.995	42714.48
526.197	42597.75
526.398	42771.83
526.6	43240.81
526.801	43562.34
527.003	43666.79
527.204	43677.03
527.406	43885.92
527.607	44123.49
527.808	44545.37
528.01	43742.56
528.211	44348.76
528.412	45198.67
528.614	44973.39
528.815	44985.68
529.016	45262.16
529.218	44653.91
529.419	45575.5
529.62	45425.99
529.822	45487.43
530.023	45163.85
530.224	45399.37
530.425	45974.85
530.626	45204.81
530.828	45706.57
531.029	46431.55
531.23	45661.51
531.431	45835.59
531.632	46114.11
531.833	46021.95
532.035	46245.18
532.236	46087.49
532.437	46417.21
532.638	46413.12
532.839	46576.95
533.04	46644.54
533.241	46019.91
533.442	47355.18
533.643	46550.33
533.844	46224.7
534.045	46386.49
534.246	45890.88
534.447	47168.82
534.648	46372.16
534.849	46662.97
535.05	46196.03
535.251	46863.67
535.451	46669.11
535.652	47154.48
535.853	46916.92
536.054	46832.95
536.255	47609.13
536.456	46712.12
536.657	47525.16
536.857	47095.09
537.058	46808.37
537.259	47291.69
537.46	46703.93
537.66	46845.24
537.861	47181.1
538.062	46853.43
538.263	46955.83
538.463	46902.58
538.664	46613.82
538.865	46718.26
539.065	47068.47
539.266	46499.13
539.466	47281.45
539.667	46892.34
539.868	47205.68
540.068	47179.06
540.269	47283.5
540.469	47164.72
540.67	46419.26
540.87	47244.59
541.071	47004.98
541.271	47211.82
541.472	46990.64
541.672	46851.38
541.873	46931.25
542.073	46294.33
542.274	47334.7
542.474	46867.76
542.675	46544.19
542.875	47134
543.075	46955.83
543.276	46662.97
543.476	47377.71
543.676	46771.51
543.877	47041.84
544.077	47035.7
544.277	46845.24
544.478	46957.88
544.678	46929.2
544.878	46890.29
545.078	46669.11
545.279	46589.24
545.479	47088.95
545.679	47275.31
545.879	46767.41
546.079	47430.96
546.28	46693.69
546.48	46470.46
546.68	46478.65
546.88	47224.11
547.08	46837.05
547.28	46644.54
547.48	46173.5
547.68	46980.4
547.88	46908.72
548.081	46869.81
548.281	47125.81
548.481	46773.56
548.681	47209.78
548.881	46650.68
549.081	47068.47
549.28	46433.6
549.48	46884.15
549.68	46753.08
549.88	47410.48
550.08	46595.38
550.28	47127.86
550.48	46454.08
550.68	47115.57
550.88	46662.97
551.08	46634.3
551.279	46853.43
551.479	46046.53
551.679	46822.71
551.879	46476.6
552.079	47019.31
552.278	46333.24
552.478	46585.15
552.678	46470.46
552.878	46677.3
553.077	46622.01
553.277	45763.91
553.477	46626.1
553.676	46218.56
553.876	46853.43
554.076	46456.12
554.275	46267.71
554.475	45684.04
554.674	46220.61
554.874	46538.04
555.074	46128.45
555.273	46077.25
555.473	46351.68
555.672	46216.51
555.872	45964.61
556.071	46273.85
556.271	46347.58
556.47	45794.63
556.67	45591.88
556.869	46155.07
557.068	46429.5
557.268	45751.62
557.467	45860.16
557.667	46009.67
557.866	45792.58
558.065	45266.25
558.265	45360.46
558.464	45634.89
558.663	45679.94
558.863	45507.91
559.062	45886.79
559.261	44809.56
559.461	45899.08
559.66	45514.06
559.859	45421.9
560.058	44993.87
560.258	45227.34
560.457	44950.87
560.656	45495.63
560.855	45210.96
561.054	44901.71
561.253	44352.86
561.453	44887.38
561.652	44977.49
561.851	44690.77
562.05	44426.59
562.249	44582.23
562.448	44895.57
562.647	44608.86
562.846	44526.94
563.045	44281.18
563.244	44072.29
563.443	44625.24
563.642	43761
563.841	44350.81
564.04	43603.3
564.239	44688.73
564.438	43517.29
564.637	43865.44
564.836	44062.05
565.035	43554.15
565.234	44133.73
565.432	43640.17
565.631	43859.3
565.83	43849.06
566.029	43337.07
566.228	43332.97
566.427	43113.84
566.625	42939.76
566.824	42868.08
567.023	43206
567.222	42317.18
567.42	43249
567.619	43027.82
567.818	42888.56
568.016	42544.5
568.215	43064.69
568.414	42990.96
568.612	42882.42
568.811	42583.41
569.01	42868.08
569.208	42270.07
569.407	42517.88
569.605	42012.03
569.804	42446.2
570.002	41733.51
570.201	41926.02
570.4	41579.91
570.598	41340.3
570.797	41612.68
570.995	41549.19
571.193	40990.09
571.392	41475.46
571.59	40973.71
571.789	40854.93
571.987	41018.77
572.186	40973.71
572.384	40887.7
572.582	40928.66
572.781	40697.24
572.979	40504.73
573.177	40340.89
573.376	40443.29
573.574	40213.91
573.772	40211.87
573.971	39624.1
574.169	39443.88
574.367	39443.88
574.565	40238.49
574.763	39577
574.962	39677.35
575.16	38968.75
575.358	39597.48
575.556	38833.58
575.754	39480.74
575.952	38907.31
576.151	39239.08
576.349	38944.17
576.547	38868.4
576.745	38854.06
576.943	38976.94
577.141	38346.17
577.339	38659.51
577.537	38628.79
577.735	38288.82
577.933	38127.03
578.131	38290.87
578.329	37688.77
578.527	37492.16
578.725	37526.98
578.923	38188.47
579.121	37221.83
579.319	37170.63
579.516	37963.2
579.714	36945.36
579.912	37129.67
580.11	36818.38
580.308	37004.75
580.506	36709.84
580.704	36562.39
580.901	36742.61
581.099	36779.47
581.297	36083.16
581.495	36597.2
581.692	36322.77
581.89	36144.6
582.088	36529.62
582.285	35948
582.483	36126.17
582.681	35958.24
582.878	35714.53
583.076	35464.67
583.274	35708.38
583.471	35243.49
583.669	35429.86
583.866	34948.59
584.064	35483.11
584.262	35274.21
584.459	35061.22
584.657	34754.03
584.854	34708.97
585.052	33723.9
585.249	34799.08
585.447	34500.08
585.644	33891.83
585.841	34362.87
586.039	34487.79
586.236	33889.79
586.434	33873.4
586.631	33584.64
586.828	33713.66
587.026	33838.59
587.223	33742.33
587.42	33361.41
587.618	33398.27
587.815	33101.32
588.012	32865.8
588.21	32935.43
588.407	33318.4
588.604	33138.18
588.801	32443.92
588.999	32642.57
589.196	32812.56
589.393	32947.72
589.59	32503.31
589.787	32509.46
589.984	32380.43
590.182	31872.54
590.379	32237.08
590.576	31817.24
590.773	31931.93
590.97	32243.22
591.167	32030.23
591.364	31567.39
591.561	32013.85
591.758	31395.36
591.955	31297.06
592.152	31567.39
592.349	31260.19
592.546	31518.24
592.743	31225.38
592.94	31112.74
593.137	31002.15
593.334	30953
593.531	30541.36
593.727	30627.37
593.924	30715.44
594.121	30314.03
594.318	30762.54
594.515	30127.67
594.712	30150.2
594.908	29867.58
595.105	30463.54
595.302	30035.51
595.499	29767.23
595.696	29974.07
595.892	29812.28
596.089	30043.7
596.286	29720.12
596.482	29300.29
596.679	29742.65
596.876	29685.31
597.072	29320.77
597.269	29259.33
597.466	29163.07
597.662	29050.44
597.859	29007.43
598.055	29148.74
598.252	28864.07
598.448	29089.35
598.645	28716.62
598.841	28538.44
599.038	28606.03
599.234	28212.82
599.431	28493.39
599.627	28186.19
599.824	28284.5
600.02	28155.47
600.217	28055.12
600.413	27815.51
600.609	27792.98
600.806	28081.75
601.002	28184.15
601.198	27301.47
601.395	27539.04
601.591	27641.43
601.787	27479.64
601.984	27324
602.18	27448.93
602.376	26904.17
602.572	26758.76
602.769	26957.41
602.965	26941.03
603.161	27129.44
603.357	26629.74
603.553	26713.7
603.75	26287.73
603.946	26414.7
604.142	26332.78
604.338	26031.73
604.534	26234.48
604.73	26105.46
604.926	26048.11
605.122	26076.79
605.318	25767.54
605.514	25697.91
605.71	25499.26
605.906	25697.91
606.102	25529.98
606.298	25546.36
606.494	25247.36
606.69	25394.81
606.886	25532.03
607.082	24972.93
607.278	25095.81
607.474	24712.84
607.67	25224.83
607.866	24667.78
608.062	24919.68
608.257	24858.24
608.453	24624.78
608.649	24931.97
608.845	24317.58
609.041	24645.26
609.236	24675.98
609.432	24137.36
609.628	24444.56
609.824	24260.24
610.019	24071.82
610.215	23860.88
610.411	24272.53
610.606	23813.78
610.802	23926.42
610.998	23643.8
611.193	23631.51
611.389	23279.26
611.584	23551.64
611.78	23412.38
611.976	23529.11
612.171	23441.05
612.367	23359.13
612.562	23248.54
612.758	23215.77
612.953	22847.14
613.149	22982.31
613.344	23025.31
613.539	23318.17
613.735	22965.92
613.93	22615.72
614.126	22761.12
614.321	22894.24
614.517	22617.77
614.712	22484.65
614.907	22359.72
615.103	22353.58
615.298	22247.08
615.493	22550.18
615.688	21882.55
615.884	22382.25
616.079	21982.9
616.274	22113.97
616.47	22058.67
616.665	22113.97
616.86	22017.71
617.055	21857.97
617.25	21716.66
617.445	21903.03
617.641	21436.09
617.836	21829.3
618.031	21274.3
618.226	21784.24
618.421	21325.5
618.616	21630.65
618.811	20963.01
619.006	21317.31
619.201	20967.1
619.396	20938.43
619.591	20698.82
619.786	20956.86
619.981	20745.92
620.176	20799.17
620.371	20418.25
620.566	20369.1
620.761	20260.55
620.956	20293.32
621.151	19975.89
621.346	20250.31
621.541	19945.17
621.735	20158.16
621.93	19578.58
622.125	19830.48
622.32	19302.11
622.515	19476.18
622.709	19240.67
622.904	19148.51
623.099	19125.98
623.294	19318.49
623.488	18996.96
623.683	18966.24
623.878	18683.62
624.072	18548.45
624.267	18650.85
624.462	18669.28
624.656	18194.15
624.851	18433.77
625.046	18130.67
625.24	18370.28
625.435	17886.96
625.629	17995.5
625.824	18015.98
626.018	17805.04
626.213	17602.29
626.407	17610.48
626.602	17389.3
626.796	17415.93
626.991	17542.9
627.185	17194.75
627.38	17194.75
627.574	16924.41
627.768	16799.49
627.963	16865.02
628.157	16754.43
628.352	16772.86
628.546	16258.82
628.74	16598.79
628.935	16299.78
629.129	16373.51
629.323	16432.9
629.517	15970.06
629.712	16117.51
629.906	15838.99
630.1	15683.34
630.294	15820.56
630.489	15734.54
630.683	15920.91
630.877	15546.13
631.071	15425.3
631.265	15413.01
631.459	15238.94
631.653	15216.41
631.848	15130.39
632.042	15085.34
632.236	15218.46
632.43	14878.49
632.624	15030.04
632.818	14987.04
633.012	14489.38
633.206	14462.76
633.4	14831.39
633.594	14597.92
633.788	14479.14
633.982	14524.19
634.176	14264.1
634.369	13981.48
634.563	14321.45
634.757	14315.3
634.951	14143.27
635.145	14073.64
635.339	13717.29
635.533	13741.87
635.726	13649.71
635.92	13836.08
636.114	13575.98
636.308	13496.11
636.501	13541.17
636.695	13449.01
636.889	13336.37
637.083	13236.02
637.276	13272.89
637.47	13233.97
637.664	13358.9
637.857	13068.09
638.051	13002.55
638.244	12695.36
638.438	12777.28
638.632	12838.72
638.825	12830.52
639.019	12541.76
639.212	12603.2
639.406	12640.06
639.599	12361.54
639.793	12545.86
639.986	12169.03
640.18	12330.82
640.373	12164.93
640.567	12037.96
640.76	12111.69
640.954	11816.78
641.147	11931.47
641.34	11951.95
641.534	12005.19
641.727	11753.29
641.92	11661.13
642.114	11466.58
642.307	11398.99
642.5	11351.89
642.694	11523.92
642.887	11167.57
643.08	11517.78
643.273	11018.07
643.467	11284.31
643.66	10944.34
643.853	11075.41
644.046	10932.06
644.239	10897.24
644.432	10850.14
644.626	10854.23
644.819	10710.88
645.012	10784.6
645.205	10485.6
645.398	10555.23
645.591	10446.69
645.784	10409.83
645.977	10358.63
646.17	10293.09
646.363	10358.63
646.556	10047.33
646.749	10059.62
646.942	10049.38
647.135	9930.6
647.328	9965.42
647.521	9865.07
647.714	9987.94
647.907	9654.12
648.099	9615.21
648.292	9557.87
648.485	9654.12
648.678	9482.1
648.871	9303.92
649.064	9518.96
649.256	9459.57
649.449	9324.4
649.642	9258.87
649.835	9095.03
650.027	9174.9
650.22	8998.77
650.413	9031.54
650.605	9021.3
650.798	8830.84
650.991	8861.56
651.183	8845.18
651.376	8583.04
651.568	8554.37
651.761	8640.38
651.954	8800.12
652.146	8677.24
652.339	8550.27
652.531	8497.02
652.724	8658.81
652.916	8353.66
653.109	8386.43
653.301	8337.28
653.494	8345.47
653.686	7980.93
653.879	8083.33
654.071	7964.55
654.263	8003.46
654.456	7933.83
654.648	7999.37
654.84	7774.09
655.033	7919.5
655.225	7726.99
655.417	7706.51
655.61	7673.74
655.802	7495.57
655.994	7643.02
656.186	7522.19
656.379	7612.3
656.571	7554.96
656.763	7258
656.955	7307.15
657.148	7397.26
657.34	7399.31
657.532	7212.95
657.724	7194.51
657.916	7040.92
658.108	6942.61
658.3	7153.55
658.492	6905.75
658.684	6827.93
658.876	6815.64
659.068	6809.5
659.26	6684.57
659.452	6838.17
659.644	6668.19
659.836	6578.08
660.028	6608.8
660.22	6401.95
660.412	6496.16
660.604	6502.3
660.796	6401.95
660.988	6330.27
661.18	6303.65
661.372	6231.97
661.563	6191.01
661.755	6207.39
661.947	6178.72
662.139	6231.97
662.331	6123.43
662.522	6008.74
662.714	6145.95
662.906	6100.9
663.097	6004.64
663.289	5877.67
663.481	5926.82
663.673	5842.85
663.864	5713.83
664.056	5701.55
664.247	5711.78
664.439	5754.79
664.631	5517.23
664.822	5601.19
665.014	5713.83
665.205	5506.99
665.397	5474.22
665.588	5459.88
665.78	5351.34
665.971	5423.02
666.163	5318.57
666.354	5257.14
666.546	5253.04
666.737	5185.46
666.929	5328.81
667.12	5150.64
667.311	5132.21
667.503	5134.26
667.694	5134.26
667.885	4933.56
668.077	5038
668.268	4906.93
668.459	5117.87
668.651	4927.41
668.842	4999.09
669.033	4771.77
669.224	5021.62
669.416	4810.68
669.607	4943.8
669.798	4872.12
669.989	4845.49
670.18	4630.46
670.371	4814.77
670.563	4876.21
670.754	4644.79
670.945	4585.4
671.136	4739
671.327	4646.84
671.518	4487.1
671.709	4632.51
671.9	4560.83
672.091	4536.25
672.282	4589.5
672.473	4388.8
672.664	4390.85
672.855	4390.85
673.046	4419.52
673.237	4542.39
673.428	4321.21
673.619	4329.41
673.809	4284.35
674	4534.2
674.191	4278.21
674.382	4280.25
674.573	4364.22
674.764	4067.27
674.954	4202.43
675.145	4315.07
675.336	4188.1
675.527	4202.43
675.717	4216.77
675.908	4188.1
676.099	4130.75
676.289	4165.57
676.48	4186.05
676.671	3966.92
676.861	4091.84
677.052	3993.54
677.243	4046.79
677.433	4001.73
677.624	4034.5
677.814	4014.02
678.005	4091.84
678.195	3923.91
678.386	3936.2
678.576	3758.02
678.767	3848.13
678.957	3925.96
679.148	3813.32
679.338	3837.89
679.529	3866.56
679.719	3893.19
679.909	3848.13
680.1	3858.37
680.29	3721.16
680.481	3579.85
680.671	3811.27
680.861	3731.4
681.052	3739.59
681.242	3827.65
681.432	3870.66
681.622	3643.34
681.813	3788.74
682.003	3803.08
682.193	3583.95
682.383	3573.71
682.573	3620.81
682.764	3674.06
682.954	3739.59
683.144	3633.1
683.334	3577.8
683.524	3579.85
683.714	3674.06
683.904	3518.41
684.094	3549.13
684.284	3493.83
684.474	3629
684.664	3493.83
684.854	3645.38
685.044	3602.38
685.234	3551.18
685.424	3526.6
685.614	3411.92
685.804	3477.45
685.994	3448.78
686.184	3370.96
686.374	3426.25
686.564	3635.14
686.753	3483.59
686.943	3418.06
687.133	3450.83
687.323	3477.45
687.513	3497.93
687.702	3405.77
687.892	3368.91
688.082	3358.67
688.272	3401.68
688.461	3420.11
688.651	3375.05
688.841	3338.19
689.03	3323.85
689.22	3229.65
689.41	3416.01
689.599	3319.76
689.789	3321.81
689.979	3176.4
690.168	3473.35
690.358	3330
690.547	3293.13
690.737	3297.23
690.926	3321.81
691.116	3121.1
691.305	3391.44
691.495	3196.88
691.684	3286.99
691.874	3250.13
692.063	3276.75
692.252	3108.82
692.442	3379.15
692.631	3035.09
692.82	3270.61
693.01	3223.5
693.199	3166.16
693.388	3325.9
693.578	3219.41
693.767	3176.4
693.956	3200.98
694.146	3196.88
694.335	3164.11
694.524	3145.68
694.713	3190.74
694.902	3246.03
695.092	3272.65
695.281	3260.37
695.47	3221.45
695.659	3053.52
695.848	3162.06
696.037	3305.42
696.226	3100.62
696.415	3119.06
696.604	3090.38
696.793	3096.53
696.982	3051.47
697.171	3174.35
697.36	3037.14
697.549	3168.21
697.738	3200.98
697.927	3248.08
698.116	3203.02
698.305	3125.2
698.494	3162.06
698.683	3225.55
698.872	3129.3
699.061	3039.19
699.25	3207.12
699.438	3057.62
699.627	3151.82
699.816	3170.26
700.005	3166.16
700.193	3166.16
700.382	3067.86
700.571	3043.28
700.76	2910.16
700.948	3098.58
701.137	2996.18
701.326	2994.13
701.514	2994.13
701.703	2897.88
701.892	2957.27
702.08	2996.18
702.269	3030.99
702.457	3002.32
702.646	2967.51
702.834	2949.07
703.023	2922.45
703.212	2990.03
703.4	2969.55
703.589	2904.02
703.777	2924.5
703.965	2877.4
704.154	2922.45
704.342	2916.31
704.531	2871.25
704.719	2787.29
704.907	2906.07
705.096	2979.79
705.284	2850.77
705.472	2705.37
705.661	2815.96
705.849	2768.85
706.037	2826.2
706.226	2842.58
706.414	2803.67
706.602	2791.38
706.79	2865.11
706.979	2715.61
707.167	2758.61
707.355	2748.37
707.543	2707.41
707.731	2748.37
707.919	2775
708.107	2592.73
708.296	2729.94
708.484	2508.76
708.672	2691.03
708.86	2660.31
709.048	2672.6
709.236	2635.74
709.424	2545.63
709.612	2570.2
709.8	2500.57
709.988	2678.74
710.176	2598.87
710.364	2486.23
710.551	2471.9
710.739	2478.04
710.927	2725.85
711.115	2580.44
711.303	2463.71
711.491	2439.13
711.679	2566.1
711.866	2392.03
712.054	2408.41
712.242	2516.95
712.43	2414.56
712.617	2455.51
712.805	2494.43
712.993	2435.03
713.181	2355.16
713.368	2412.51
713.556	2420.7
713.744	2324.44
713.931	2228.19
714.119	2449.37
714.306	2297.82
714.494	2240.48
714.682	2260.96
714.869	2271.2
715.057	2201.57
715.244	2240.48
715.432	2324.44
715.619	2334.68
715.807	2222.05
715.994	2256.86
716.182	2150.37
716.369	2199.52
716.556	2248.67
716.744	2199.52
716.931	2179.04
717.119	2174.94
717.306	2185.18
717.493	2084.83
717.681	2127.84
717.868	2099.17
718.055	2174.94
718.242	2099.17
718.43	2213.85
718.617	2093.02
718.804	2101.22
718.991	2164.7
719.179	2047.97
719.366	2062.3
719.553	1923.04
719.74	2060.26
719.927	2056.16
720.114	1943.52
720.301	1968.1
720.488	1986.53
720.676	2107.36
720.863	1900.51
721.05	2021.35
721.237	1974.24
721.424	2021.35
721.611	1751.01
721.798	1898.47
721.985	1908.71
722.172	1777.64
722.358	1751.01
722.545	1865.7
722.732	1841.12
722.919	1873.89
723.106	1843.17
723.293	1912.8
723.48	1847.27
723.667	1861.6
723.853	1822.69
724.04	1900.51
724.227	1851.36
724.414	1744.87
724.6	1773.54
724.787	1779.68
724.974	1798.12
725.161	1814.5
725.347	1638.38
725.534	1812.45
725.72	1716.2
725.907	1804.26
726.094	1794.02
726.28	1718.25
726.467	1658.85
726.653	1615.85
726.84	1751.01
727.027	1759.21
727.213	1720.29
727.4	1665
727.586	1619.94
727.773	1593.32
727.959	1642.47
728.145	1771.49
728.332	1578.98
728.518	1687.53
728.705	1585.13
728.891	1505.26
729.077	1585.13
729.264	1492.97
729.45	1687.53
729.636	1560.55
729.823	1519.59
730.009	1538.02
730.195	1550.31
730.382	1581.03
730.568	1562.6
730.754	1597.42
730.94	1574.89
731.126	1535.98
731.313	1562.6
731.499	1558.5
731.685	1562.6
731.871	1507.3
732.057	1501.16
732.243	1466.35
732.429	1454.06
732.615	1480.68
732.801	1497.07
732.987	1589.22
733.173	1382.38
733.359	1417.19
733.545	1470.44
733.731	1490.92
733.917	1363.95
734.103	1441.77
734.289	1490.92
734.475	1300.46
734.661	1376.24
734.847	1345.52
735.033	1384.43
735.219	1441.77
735.404	1445.87
735.59	1390.57
735.776	1374.19
735.962	1349.61
736.148	1339.37
736.333	1347.56
736.519	1423.34
736.705	1427.43
736.89	1347.56
737.076	1241.07
737.262	1314.8
737.447	1206.25
737.633	1234.93
737.819	1349.61
738.004	1220.59
738.19	1339.37
738.375	1282.03
738.561	1359.85
738.747	1253.36
738.932	1196.01
739.118	1251.31
739.303	1236.97
739.489	1245.16
739.674	1208.3
739.859	1220.59
740.045	1236.97
740.23	1310.7
740.416	1226.73
740.601	1198.06
740.786	1150.96
740.972	1228.78
741.157	1150.96
741.342	1210.35
741.528	1181.68
741.713	1169.39
741.898	1267.69
742.084	1265.64
742.269	1169.39
742.454	1126.38
742.639	1279.98
742.824	1183.73
743.01	1097.71
743.195	1136.62
743.38	1142.77
743.565	1034.22
743.75	1128.43
743.935	1032.18
744.12	1093.62
744.305	987.12
744.49	1034.22
744.675	1071.09
744.86	1021.94
745.045	987.12
745.23	1130.48
745.415	1083.38
745.6	1005.55
745.785	1069.04
745.97	1112.05
746.155	1110
746.34	1046.51
746.525	1023.98
746.71	1011.7
746.895	1036.27
747.079	954.35
747.264	966.64
747.449	1060.85
747.634	974.83
747.819	970.74
748.003	935.92
748.188	925.68
748.373	958.45
748.557	1060.85
748.742	962.55
748.927	878.58
749.111	909.3
749.296	876.53
749.481	966.64
749.665	876.53
749.85	921.59
750.034	888.82
750.219	948.21
750.404	858.1
750.588	876.53
750.773	802.8
750.957	823.28
751.141	919.54
751.326	821.24
751.51	811
751.695	858.1
751.879	827.38
752.064	856.05
752.248	833.52
752.432	831.48
752.617	794.61
752.801	802.8
752.985	815.09
753.17	770.04
753.354	806.9
753.538	724.98
753.722	782.32
753.907	724.98
754.091	706.55
754.275	741.36
754.459	788.47
754.643	735.22
754.828	786.42
755.012	749.56
755.196	772.08
755.38	751.6
755.564	765.94
755.748	649.21
755.932	712.69
756.116	645.11
756.3	737.27
756.484	684.02
756.668	692.21
756.852	735.22
757.036	647.16
757.22	659.45
757.404	684.02
757.588	690.17
757.772	591.86
757.956	686.07
758.14	720.89
758.323	677.88
758.507	692.21
758.691	618.49
758.875	663.54
759.059	737.27
759.242	661.49
759.426	610.29
759.61	636.92
759.794	618.49
759.977	671.73
760.161	618.49
760.345	577.53
760.528	643.06
760.712	600.05
760.895	544.76
761.079	550.9
761.263	577.53
761.446	602.1
761.63	546.81
761.813	567.29
761.997	577.53
762.18	610.29
762.364	595.96
762.547	604.15
762.731	563.19
762.914	454.65
763.098	526.33
763.281	569.34
763.464	540.66
763.648	595.96
763.831	532.47
764.015	528.38
764.198	550.9
764.381	577.53
764.564	569.34
764.748	530.42
764.931	489.46
765.114	593.91
765.297	595.96
765.481	485.37
765.664	565.24
765.847	468.98
766.03	563.19
766.213	538.62
766.397	456.7
766.58	497.66
766.763	552.95
766.946	532.47
767.129	589.82
767.312	563.19
767.495	634.87
767.678	511.99
767.861	471.03
768.044	550.9
768.227	546.81
768.41	509.94
768.593	571.38
768.776	497.66
768.959	567.29
769.142	516.09
769.324	464.89
769.507	511.99
769.69	540.66
769.873	481.27
770.056	530.42
770.239	477.18
770.421	501.75
770.604	454.65
770.787	462.84
770.97	442.36
771.152	466.94
771.335	579.58
771.518	503.8
771.7	385.02
771.883	507.9
772.066	460.79
772.248	483.32
772.431	399.35
772.613	507.9
772.796	471.03
772.978	550.9
773.161	430.07
773.343	411.64
773.526	516.09
773.708	452.6
773.891	419.83
774.073	450.55
774.256	409.59
774.438	475.13
774.621	436.22
774.803	444.41
774.985	462.84
775.168	442.36
775.35	399.35
775.532	430.07
775.715	397.31
775.897	428.03
776.079	405.5
776.261	413.69
776.444	348.15
776.626	405.5
776.808	346.11
776.99	446.46
777.173	413.69
777.355	403.45
777.537	319.48
777.719	438.27
777.901	362.49
778.083	413.69
778.265	313.34
778.447	358.39
778.629	378.87
778.811	425.98
778.993	405.5
779.175	272.38
779.357	436.22
779.539	425.98
779.721	376.83
779.903	366.59
780.085	348.15
780.267	415.74
780.449	333.82
780.631	290.81
780.812	262.14
780.994	421.88
781.176	376.83
781.358	409.59
781.54	362.49
781.721	303.1
781.903	364.54
782.085	323.58
782.267	309.24
782.448	290.81
782.63	249.85
782.812	251.9
782.993	378.87
783.175	247.8
783.357	358.39
783.538	366.59
783.72	299
783.901	299
784.083	274.43
784.264	294.91
784.446	280.57
784.627	309.24
784.809	342.01
784.99	299
785.172	325.63
785.353	301.05
785.535	317.44
785.716	200.7
785.897	346.11
786.079	327.67
786.26	299
786.441	315.39
786.623	221.18
786.804	241.66
786.985	264.19
787.167	276.48
787.348	276.48
787.529	223.23
787.71	325.63
787.891	274.43
788.073	256
788.254	231.42
788.435	266.24
788.616	292.86
788.797	243.71
788.978	239.61
789.159	274.43
789.34	249.85
789.522	225.28
789.703	178.17
789.884	249.85
790.065	208.89
790.246	196.61
790.427	186.37
790.607	225.28
790.788	217.08
790.969	227.32
791.15	245.76
791.331	290.81
791.512	190.46
791.693	178.17
791.874	231.42
792.054	198.65
792.235	266.24
792.416	141.31
792.597	221.18
792.778	149.5
792.958	256
793.139	151.55
793.32	233.47
793.5	135.17
793.681	212.99
793.862	196.61
794.042	219.13
794.223	219.13
794.404	176.13
794.584	92.16
794.765	229.37
794.945	180.22
795.126	323.58
795.306	237.56
795.487	212.99
795.667	145.41
795.848	137.21
796.028	174.08
796.209	114.69
796.389	180.22
796.57	116.73
796.75	223.23
796.93	155.65
797.111	176.13
797.291	200.7
797.471	174.08
797.652	116.73
797.832	131.07
798.012	151.55
798.192	147.45
798.373	114.69
798.553	139.26
798.733	169.98
798.913	126.97
799.093	108.54
799.274	153.6
799.454	196.61
799.634	75.77
799.814	151.55
799.994	212.99
800.174	139.26
800.354	174.08
800.534	155.65
800.714	153.6
800.894	202.75
801.074	73.73
801.254	165.89
801.434	137.21
801.614	88.06
801.794	192.51
801.974	415.74
802.154	108.54
802.334	124.93
802.514	55.3
802.693	172.03
802.873	53.25
803.053	206.84
803.233	147.45
803.413	169.98
803.592	90.11
803.772	71.68
803.952	106.49
804.131	116.73
804.311	159.74
804.491	104.45
804.67	176.13
804.85	116.73
805.03	167.93
805.209	135.17
805.389	86.01
805.568	129.02
805.748	124.93
805.928	120.83
806.107	149.5
806.287	124.93
806.466	61.44
806.646	110.59
806.825	120.83
807.004	96.25
807.184	104.45
807.363	104.45
807.543	169.98
807.722	102.4
807.901	112.64
808.081	124.93
808.26	77.82
808.439	36.86
808.619	112.64
808.798	59.39
808.977	34.82
809.156	194.56
809.336	71.68
809.515	94.21
809.694	32.77
809.873	151.55
810.052	112.64
810.231	114.69
810.411	100.35
810.59	75.77
810.769	28.67
810.948	112.64
811.127	-8.19
811.306	110.59
811.485	96.25
811.664	169.98
811.843	174.08
812.022	133.12
812.201	102.4
812.38	69.63
812.559	90.11
812.737	114.69
812.916	47.1
813.095	90.11
813.274	104.45
813.453	102.4
813.632	102.4
813.811	61.44
813.989	57.34
814.168	61.44
814.347	83.97
814.526	-4.1
814.704	139.26
814.883	61.44
815.062	47.1
815.24	153.6
815.419	40.96
815.598	120.83
815.776	73.73
815.955	118.78
816.133	94.21
816.312	165.89
816.49	55.3
816.669	112.64
816.847	4.1
817.026	79.87
817.204	63.49
817.383	118.78
817.561	61.44
817.74	110.59
817.918	106.49
818.097	75.77
818.275	94.21
818.453	32.77
818.632	118.78
818.81	65.54
818.988	36.86
819.167	73.73
819.345	73.73
819.523	86.01
819.701	69.63
819.879	73.73
820.058	24.58
820.236	141.31
820.414	45.06
820.592	22.53
820.77	120.83
820.948	145.41
821.127	10.24
821.305	92.16
821.483	79.87
821.661	63.49
821.839	77.82
822.017	81.92
822.195	22.53
822.373	88.06
822.551	47.1
822.729	96.25
822.907	-26.62
823.085	49.15
823.262	20.48
823.44	112.64
823.618	88.06
823.796	-16.38
823.974	100.35
824.152	53.25
824.329	22.53
824.507	38.91
824.685	75.77
824.863	83.97
825.04	61.44
825.218	65.54
825.396	-2.05
825.574	49.15
825.751	-26.62
825.929	34.82
826.107	0
826.284	96.25
826.462	34.82
826.639	34.82
826.817	-2.05
826.994	-2.05
827.172	20.48
827.349	63.49
827.527	73.73
827.704	96.25
827.882	8.19
828.059	14.34
828.237	40.96
828.414	106.49
828.591	14.34
828.769	94.21
828.946	-6.14
829.124	14.34
829.301	6.14
829.478	102.4
829.655	55.3
829.833	57.34
830.01	43.01
830.187	75.77
830.364	0
830.542	79.87
830.719	96.25
830.896	4.1
831.073	-10.24
831.25	24.58
831.427	-8.19
831.604	135.17
831.782	12.29
831.959	118.78
832.136	18.43
832.313	36.86
832.49	18.43
832.667	30.72
832.844	18.43
833.021	94.21
833.198	43.01
833.374	65.54
833.551	30.72
833.728	16.38
833.905	12.29
834.082	-2.05
834.259	24.58
834.436	14.34
834.612	79.87
834.789	79.87
834.966	30.72
835.143	-4.1
835.319	8.19
835.496	40.96
835.673	61.44
835.85	69.63
836.026	61.44
836.203	65.54
836.38	-16.38
836.556	45.06
836.733	20.48
836.909	71.68
837.086	4.1
837.262	36.86
837.439	18.43
837.616	22.53
837.792	-2.05
837.968	79.87
838.145	-34.82
838.321	-2.05
838.498	16.38
838.674	77.82
838.851	32.77
839.027	67.58
839.203	30.72
839.38	28.67
839.556	-2.05
839.732	51.2
839.909	-20.48
840.085	18.43
840.261	-8.19
840.437	61.44
840.614	73.73
840.79	16.38
840.966	34.82
841.142	36.86
841.318	2.05
841.494	47.1
841.671	20.48
841.847	-2.05
842.023	55.3
842.199	-6.14
842.375	14.34
842.551	28.67
842.727	16.38
842.903	-12.29
843.079	34.82
843.255	59.39
843.431	57.34
843.607	53.25
843.783	-26.62
843.959	28.67
844.134	47.1
844.31	16.38
844.486	12.29
844.662	55.3
844.838	-16.38
845.013	32.77
845.189	6.14
845.365	51.2
845.541	10.24
845.716	83.97
845.892	14.34
846.068	-4.1
846.244	-16.38
846.419	12.29
846.595	-16.38
846.77	45.06
846.946	40.96
847.122	55.3
847.297	40.96
847.473	73.73
847.648	-34.82
847.824	45.06
847.999	16.38
848.175	12.29
848.35	6.14
848.526	2.05
848.701	71.68
848.876	18.43
849.052	59.39
849.227	45.06
849.403	-26.62
849.578	8.19
849.753	32.77
849.929	0
850.104	26.62
850.279	10.24
850.454	20.48
850.63	30.72
850.805	10.24
850.98	40.96
851.155	-12.29
851.33	6.14
851.505	2.05
851.681	36.86
851.856	-40.96
852.031	26.62
852.206	6.14
852.381	73.73
852.556	38.91
852.731	-32.77
852.906	-2.05
853.081	26.62
853.256	28.67
853.431	28.67
853.606	-45.06
853.781	24.58
853.956	-34.82
854.131	75.77
854.305	20.48
854.48	86.01
854.655	4.1
854.83	-4.1
855.005	-20.48
855.18	12.29
855.354	-8.19
855.529	-12.29
855.704	0
855.879	-12.29
856.053	-43.01
856.228	57.34
856.403	-59.39
856.577	-10.24
856.752	34.82
856.926	-18.43
857.101	-24.58
857.276	12.29
857.45	8.19
857.625	45.06
857.799	8.19
857.974	34.82
858.148	-8.19
858.323	30.72
858.497	30.72
858.672	-16.38
858.846	24.58
859.02	26.62
859.195	-10.24
859.369	2.05
859.543	57.34
859.718	8.19
859.892	-12.29
860.066	53.25
860.241	16.38
860.415	-10.24
860.589	20.48
860.763	47.1
860.938	26.62
861.112	22.53
861.286	-32.77
861.46	-16.38
861.634	18.43
861.808	34.82
861.982	-28.67
862.157	-28.67
862.331	-22.53
862.505	40.96
862.679	-8.19
862.853	20.48
863.027	53.25
863.201	-6.14
863.375	53.25
863.549	59.39
863.722	28.67
863.896	40.96
864.07	49.15
864.244	18.43
864.418	-22.53
864.592	2.05
864.766	47.1
864.939	-30.72
865.113	49.15
865.287	79.87
865.461	-24.58
865.634	-22.53
865.808	-12.29
865.982	16.38
866.156	-57.34
866.329	-65.53
866.503	-34.82
866.676	-12.29
866.85	-4.1
867.024	14.34
867.197	4.1
867.371	73.73
867.544	83.97
867.718	34.82
867.891	53.25
868.065	-36.86
868.238	-79.87
868.412	69.63
868.585	14.34
868.759	22.53
868.932	65.54
869.105	49.15
869.279	-30.72
869.452	0
869.625	12.29
869.799	22.53
869.972	-10.24
870.145	-49.15
870.319	4.1
870.492	-51.2
870.665	-12.29
870.838	65.54
871.011	-36.86
871.185	-24.58
871.358	8.19
871.531	45.06
871.704	57.34
871.877	110.59
872.05	-45.06
872.223	51.2
872.396	18.43
872.569	57.34
872.742	10.24
872.915	12.29
873.088	24.58
873.261	6.14
873.434	-30.72
873.607	12.29
873.78	24.58
873.953	20.48
874.126	24.58
874.299	-24.58
874.471	-49.15
874.644	69.63
874.817	22.53
874.99	100.35
875.163	-22.53
875.335	47.1
875.508	-108.54
875.681	75.77
875.853	-6.14
876.026	38.91
876.199	-55.3
876.371	20.48
876.544	-2.05
876.717	-38.91
876.889	-4.1
877.062	-10.24
877.234	-108.54
877.407	-45.06
877.579	4.1
877.752	36.86
877.924	28.67
878.097	36.86
878.269	32.77
878.442	6.14
878.614	36.86
878.786	-24.58
878.959	-22.53
879.131	-14.34
879.303	20.48
879.476	79.87
879.648	26.62
879.82	8.19
879.993	-18.43
880.165	-28.67
880.337	63.49
880.509	-18.43
880.681	-53.25
880.854	-22.53
881.026	-10.24
881.198	12.29
881.37	8.19
881.542	40.96
881.714	-45.06
881.886	-40.96
882.058	-32.77
882.23	43.01
882.402	-40.96
882.574	-49.15
882.746	-61.44
882.918	30.72
883.09	-24.58
883.262	-57.34
883.434	-24.58
883.606	8.19
883.778	-83.97
883.95	36.86
884.122	30.72
884.293	-32.77
884.465	-14.34
884.637	59.39
884.809	-24.58
884.98	30.72
885.152	-83.97
885.324	30.72
885.496	32.77
885.667	-34.82
885.839	30.72
886.011	10.24
886.182	-16.38
886.354	4.1
886.525	-69.63
886.697	18.43
886.869	-61.44
887.04	26.62
887.212	38.91
887.383	4.1
887.555	-53.25
887.726	18.43
887.897	14.34
888.069	38.91
888.24	4.1
888.412	-16.38
888.583	-57.34
888.754	-16.38
888.926	2.05
889.097	14.34
889.268	-12.29
889.44	-36.86
889.611	-16.38
889.782	14.34
889.953	20.48
890.125	-22.53
890.296	-40.96
890.467	-10.24
890.638	-20.48
890.809	18.43
890.98	-92.16
891.151	18.43
891.323	2.05
891.494	28.67
891.665	67.58
891.836	30.72
892.007	53.25
892.178	-34.82
892.349	14.34
892.52	-4.1
892.691	-24.58
892.862	-43.01
893.032	0
893.203	12.29
893.374	77.82
893.545	36.86
893.716	43.01
893.887	-16.38
894.057	24.58
894.228	32.77
894.399	-6.14
894.57	40.96
894.74	-6.14
894.911	10.24
895.082	-57.34
895.253	2.05
895.423	-26.62
895.594	-32.77
895.764	-12.29
895.935	-26.62
896.106	14.34
896.276	2.05
896.447	38.91
896.617	2.05
896.788	-34.82
896.958	-26.62
897.129	20.48
897.299	-26.62
897.47	-4.1
897.64	45.06
897.81	-12.29
897.981	20.48
898.151	43.01
898.322	-4.1
898.492	-18.43
898.662	30.72
898.832	0
899.003	-8.19
899.173	49.15
899.343	-14.34
899.513	-8.19
