Data from USB4F104151__174__13-58-56-891.txt Node

Date: Thu Mar 13 13:58:56 EDT 2025
User: louis
Spectrometer: USB4F10415
Trigger mode: 4
Integration Time (sec): 1.000000E-2
Scans to average: 1
Electric dark correction enabled: true
Nonlinearity correction enabled: false
Boxcar width: 0
XAxis mode: Wavelengths
Number of Pixels in Spectrum: 3648
>>>>>Begin Spectral Data<<<<<
178.204	-44.71
178.424	-44.71
178.644	-44.71
178.864	55.64
179.084	-3.75
179.304	20.82
179.524	-18.09
179.744	-67.24
179.964	47.44
180.184	33.11
180.404	-40.62
180.624	51.54
180.844	-32.43
181.064	-26.28
181.283	47.44
181.503	-22.19
181.723	6.49
181.943	14.68
182.163	47.44
182.383	-67.24
182.602	-24.23
182.822	59.73
183.042	14.68
183.262	0.34
183.482	-7.85
183.701	33.11
183.921	51.54
184.141	0.34
184.361	72.02
184.58	18.77
184.8	47.44
185.02	-1.71
185.239	-1.71
185.459	-67.24
185.679	43.35
185.898	35.16
186.118	69.97
186.338	121.17
186.557	-81.58
186.777	80.21
186.997	2.39
187.216	69.97
187.436	78.16
187.655	33.11
187.875	47.44
188.095	12.63
188.314	-16.04
188.534	33.11
188.753	-13.99
188.973	20.82
189.192	26.96
189.412	74.07
189.631	55.64
189.851	41.3
190.07	57.68
190.29	8.53
190.509	43.35
190.729	26.96
190.948	24.92
191.168	31.06
191.387	18.77
191.607	47.44
191.826	-20.14
192.045	39.25
192.265	-7.85
192.484	-1.71
192.704	12.63
192.923	6.49
193.142	33.11
193.362	16.73
193.581	-13.99
193.8	110.93
194.02	20.82
194.239	-7.85
194.458	80.21
194.678	78.16
194.897	18.77
195.116	6.49
195.335	-24.23
195.555	51.54
195.774	-1.71
195.993	10.58
196.212	51.54
196.432	41.3
196.651	-24.23
196.87	22.87
197.089	59.73
197.308	43.35
197.528	-13.99
197.747	74.07
197.966	49.49
198.185	16.73
198.404	16.73
198.623	-34.47
198.842	22.87
199.062	8.53
199.281	41.3
199.5	53.59
199.719	65.88
199.938	0.34
200.157	14.68
200.376	14.68
200.595	69.97
200.814	117.08
201.033	29.01
201.252	24.92
201.471	8.53
201.69	51.54
201.909	74.07
202.128	22.87
202.347	61.78
202.566	35.16
202.785	63.83
203.004	-95.91
203.223	16.73
203.442	33.11
203.661	14.68
203.879	29.01
204.098	98.64
204.317	35.16
204.536	-7.85
204.755	47.44
204.974	-32.43
205.193	-24.23
205.411	18.77
205.63	102.74
205.849	51.54
206.068	24.92
206.287	31.06
206.505	6.49
206.724	24.92
206.943	39.25
207.162	16.73
207.381	-5.8
207.599	72.02
207.818	37.2
208.037	18.77
208.255	8.53
208.474	18.77
208.693	16.73
208.911	69.97
209.13	-7.85
209.349	59.73
209.567	-9.9
209.786	72.02
210.005	-7.85
210.223	2.39
210.442	6.49
210.661	-5.8
210.879	33.11
211.098	6.49
211.316	20.82
211.535	-16.04
211.753	31.06
211.972	63.83
212.191	-18.09
212.409	33.11
212.628	31.06
212.846	-48.81
213.065	31.06
213.283	2.39
213.502	18.77
213.72	18.77
213.938	69.97
214.157	4.44
214.375	-9.9
214.594	-9.9
214.812	96.6
215.031	-11.95
215.249	18.77
215.467	31.06
215.686	29.01
215.904	72.02
216.122	6.49
216.341	84.31
216.559	6.49
216.778	65.88
216.996	61.78
217.214	49.49
217.432	35.16
217.651	72.02
217.869	55.64
218.087	82.26
218.306	8.53
218.524	39.25
218.742	-5.8
218.96	59.73
219.179	-28.33
219.397	78.16
219.615	29.01
219.833	76.12
220.051	-9.9
220.27	55.64
220.488	33.11
220.706	-87.72
220.924	22.87
221.142	22.87
221.36	22.87
221.578	43.35
221.796	47.44
222.015	43.35
222.233	55.64
222.451	35.16
222.669	-7.85
222.887	10.58
223.105	74.07
223.323	-61.1
223.541	-5.8
223.759	29.01
223.977	18.77
224.195	12.63
224.413	121.17
224.631	6.49
224.849	-24.23
225.067	-5.8
225.285	98.64
225.503	-40.62
225.721	-42.67
225.939	8.53
226.157	8.53
226.375	63.83
226.592	74.07
226.81	49.49
227.028	22.87
227.246	12.63
227.464	49.49
227.682	41.3
227.9	43.35
228.117	51.54
228.335	-7.85
228.553	35.16
228.771	-7.85
228.989	29.01
229.206	-26.28
229.424	14.68
229.642	33.11
229.86	51.54
230.077	45.4
230.295	-1.71
230.513	45.4
230.731	39.25
230.948	37.2
231.166	10.58
231.384	4.44
231.601	47.44
231.819	72.02
232.037	22.87
232.254	74.07
232.472	100.69
232.689	16.73
232.907	2.39
233.125	-24.23
233.342	10.58
233.56	53.59
233.777	14.68
233.995	55.64
234.213	125.27
234.43	2.39
234.648	4.44
234.865	33.11
235.083	6.49
235.3	24.92
235.518	63.83
235.735	31.06
235.953	53.59
236.17	-3.75
236.388	53.59
236.605	-38.57
236.822	72.02
237.04	6.49
237.257	112.98
237.475	20.82
237.692	51.54
237.909	12.63
238.127	53.59
238.344	29.01
238.562	14.68
238.779	84.31
238.996	-18.09
239.214	31.06
239.431	45.4
239.648	31.06
239.865	74.07
240.083	-1.71
240.3	0.34
240.517	-63.15
240.735	18.77
240.952	69.97
241.169	80.21
241.386	16.73
241.603	33.11
241.821	33.11
242.038	-16.04
242.255	24.92
242.472	31.06
242.689	84.31
242.907	26.96
243.124	-30.38
243.341	41.3
243.558	51.54
243.775	6.49
243.992	53.59
244.209	82.26
244.426	41.3
244.643	61.78
244.86	-36.52
245.078	51.54
245.295	-42.67
245.512	61.78
245.729	31.06
245.946	12.63
246.163	57.68
246.38	104.79
246.597	43.35
246.814	41.3
247.031	-20.14
247.248	106.84
247.464	-24.23
247.681	16.73
247.898	12.63
248.115	-63.15
248.332	-22.19
248.549	22.87
248.766	-36.52
248.983	65.88
249.2	18.77
249.417	67.92
249.633	49.49
249.85	6.49
250.067	4.44
250.284	24.92
250.501	59.73
250.717	24.92
250.934	14.68
251.151	6.49
251.368	-40.62
251.585	8.53
251.801	69.97
252.018	82.26
252.235	39.25
252.451	-24.23
252.668	45.4
252.885	86.36
253.102	6.49
253.318	96.6
253.535	-1.71
253.752	-5.8
253.968	29.01
254.185	35.16
254.401	4.44
254.618	-9.9
254.835	82.26
255.051	53.59
255.268	84.31
255.484	47.44
255.701	59.73
255.917	37.2
256.134	-3.75
256.351	88.4
256.567	16.73
256.784	-20.14
257	-40.62
257.217	31.06
257.433	123.22
257.65	65.88
257.866	39.25
258.082	47.44
258.299	63.83
258.515	20.82
258.732	29.01
258.948	49.49
259.165	18.77
259.381	57.68
259.597	14.68
259.814	61.78
260.03	92.5
260.246	82.26
260.463	49.49
260.679	55.64
260.895	0.34
261.112	0.34
261.328	-24.23
261.544	57.68
261.761	51.54
261.977	55.64
262.193	-3.75
262.409	26.96
262.626	20.82
262.842	33.11
263.058	35.16
263.274	-1.71
263.49	-1.71
263.707	-26.28
263.923	-30.38
264.139	2.39
264.355	39.25
264.571	41.3
264.787	8.53
265.004	-3.75
265.22	-34.47
265.436	24.92
265.652	-34.47
265.868	-1.71
266.084	-34.47
266.3	37.2
266.516	51.54
266.732	-9.9
266.948	-3.75
267.164	59.73
267.38	16.73
267.596	47.44
267.812	22.87
268.028	37.2
268.244	8.53
268.46	-7.85
268.676	-9.9
268.892	0.34
269.108	-3.75
269.324	8.53
269.54	-52.91
269.756	55.64
269.972	14.68
270.188	33.11
270.403	-22.19
270.619	-13.99
270.835	0.34
271.051	22.87
271.267	16.73
271.483	88.4
271.698	16.73
271.914	55.64
272.13	18.77
272.346	39.25
272.562	4.44
272.777	100.69
272.993	90.45
273.209	33.11
273.425	26.96
273.64	-38.57
273.856	18.77
274.072	110.93
274.287	-11.95
274.503	110.93
274.719	-7.85
274.934	39.25
275.15	33.11
275.366	43.35
275.581	2.39
275.797	67.92
276.012	43.35
276.228	-28.33
276.444	-36.52
276.659	47.44
276.875	94.55
277.09	24.92
277.306	10.58
277.521	26.96
277.737	6.49
277.952	59.73
278.168	41.3
278.383	67.92
278.599	-18.09
278.814	49.49
279.03	18.77
279.245	41.3
279.461	-44.71
279.676	96.6
279.892	86.36
280.107	72.02
280.322	-9.9
280.538	33.11
280.753	-32.43
280.969	69.97
281.184	74.07
281.399	76.12
281.615	35.16
281.83	6.49
282.045	-7.85
282.26	-9.9
282.476	24.92
282.691	14.68
282.906	96.6
283.122	6.49
283.337	-7.85
283.552	80.21
283.767	-13.99
283.983	55.64
284.198	31.06
284.413	82.26
284.628	63.83
284.843	-24.23
285.058	-5.8
285.274	67.92
285.489	43.35
285.704	-16.04
285.919	45.4
286.134	18.77
286.349	92.5
286.564	41.3
286.779	47.44
286.995	108.88
287.21	16.73
287.425	-3.75
287.64	33.11
287.855	-1.71
288.07	-40.62
288.285	31.06
288.5	16.73
288.715	12.63
288.93	37.2
289.145	67.92
289.36	82.26
289.575	39.25
289.79	41.3
290.004	37.2
290.219	78.16
290.434	18.77
290.649	100.69
290.864	24.92
291.079	16.73
291.294	8.53
291.509	63.83
291.724	-13.99
291.938	29.01
292.153	57.68
292.368	-3.75
292.583	18.77
292.798	67.92
293.012	-3.75
293.227	61.78
293.442	6.49
293.657	82.26
293.871	94.55
294.086	6.49
294.301	14.68
294.516	-50.86
294.73	-18.09
294.945	47.44
295.16	31.06
295.374	-20.14
295.589	51.54
295.804	12.63
296.018	72.02
296.233	43.35
296.447	115.03
296.662	-3.75
296.877	41.3
297.091	47.44
297.306	74.07
297.52	35.16
297.735	41.3
297.949	24.92
298.164	-42.67
298.378	41.3
298.593	24.92
298.807	22.87
299.022	24.92
299.236	4.44
299.451	82.26
299.665	18.77
299.88	2.39
300.094	24.92
300.309	65.88
300.523	45.4
300.737	55.64
300.952	4.44
301.166	55.64
301.381	-7.85
301.595	-13.99
301.809	39.25
302.024	59.73
302.238	41.3
302.452	55.64
302.667	45.4
302.881	55.64
303.095	-18.09
303.309	61.78
303.524	-32.43
303.738	24.92
303.952	74.07
304.166	20.82
304.381	-63.15
304.595	67.92
304.809	24.92
305.023	53.59
305.237	-9.9
305.452	39.25
305.666	14.68
305.88	-44.71
306.094	14.68
306.308	-18.09
306.522	-9.9
306.736	69.97
306.95	37.2
307.164	14.68
307.379	-71.34
307.593	61.78
307.807	80.21
308.021	59.73
308.235	2.39
308.449	-16.04
308.663	18.77
308.877	98.64
309.091	65.88
309.305	112.98
309.519	45.4
309.733	59.73
309.947	31.06
310.161	14.68
310.374	57.68
310.588	47.44
310.802	10.58
311.016	-7.85
311.23	-3.75
311.444	29.01
311.658	20.82
311.872	82.26
312.085	-71.34
312.299	14.68
312.513	22.87
312.727	22.87
312.941	6.49
313.154	63.83
313.368	63.83
313.582	92.5
313.796	-54.95
314.009	31.06
314.223	47.44
314.437	55.64
314.651	59.73
314.864	69.97
315.078	-11.95
315.292	53.59
315.505	22.87
315.719	98.64
315.933	39.25
316.146	14.68
316.36	37.2
316.573	14.68
316.787	72.02
317.001	-1.71
317.214	-13.99
317.428	10.58
317.641	55.64
317.855	-20.14
318.068	31.06
318.282	2.39
318.495	63.83
318.709	-3.75
318.922	139.6
319.136	24.92
319.349	57.68
319.563	96.6
319.776	45.4
319.99	6.49
320.203	14.68
320.417	57.68
320.63	-18.09
320.843	76.12
321.057	129.36
321.27	24.92
321.483	37.2
321.697	-7.85
321.91	6.49
322.124	117.08
322.337	88.4
322.55	-13.99
322.763	20.82
322.977	-34.47
323.19	-22.19
323.403	-46.76
323.617	26.96
323.83	110.93
324.043	33.11
324.256	4.44
324.469	-5.8
324.683	-13.99
324.896	4.44
325.109	-16.04
325.322	12.63
325.535	14.68
325.748	24.92
325.962	57.68
326.175	12.63
326.388	88.4
326.601	-9.9
326.814	29.01
327.027	2.39
327.24	18.77
327.453	20.82
327.666	35.16
327.879	57.68
328.092	78.16
328.305	69.97
328.518	2.39
328.731	69.97
328.944	41.3
329.157	39.25
329.37	41.3
329.583	129.36
329.796	31.06
330.009	-11.95
330.222	-16.04
330.435	24.92
330.648	55.64
330.861	26.96
331.073	6.49
331.286	8.53
331.499	98.64
331.712	29.01
331.925	72.02
332.138	63.83
332.35	-40.62
332.563	-3.75
332.776	24.92
332.989	31.06
333.202	-9.9
333.414	47.44
333.627	51.54
333.84	63.83
334.053	31.06
334.265	53.59
334.478	65.88
334.691	65.88
334.903	67.92
335.116	12.63
335.329	22.87
335.541	-1.71
335.754	24.92
335.966	22.87
336.179	53.59
336.392	39.25
336.604	145.75
336.817	80.21
337.029	2.39
337.242	-11.95
337.454	67.92
337.667	78.16
337.88	74.07
338.092	4.44
338.305	6.49
338.517	35.16
338.729	69.97
338.942	-1.71
339.154	18.77
339.367	74.07
339.579	41.3
339.792	-9.9
340.004	47.44
340.217	16.73
340.429	35.16
340.641	-26.28
340.854	57.68
341.066	39.25
341.278	6.49
341.491	108.88
341.703	-22.19
341.915	6.49
342.128	-1.71
342.34	33.11
342.552	74.07
342.764	-36.52
342.977	29.01
343.189	-5.8
343.401	88.4
343.613	10.58
343.826	61.78
344.038	39.25
344.25	2.39
344.462	-18.09
344.674	8.53
344.886	-1.71
345.099	-18.09
345.311	-46.76
345.523	43.35
345.735	10.58
345.947	84.31
346.159	41.3
346.371	90.45
346.583	53.59
346.795	76.12
347.007	74.07
347.219	18.77
347.431	76.12
347.643	47.44
347.855	20.82
348.067	139.6
348.279	2.39
348.491	47.44
348.703	45.4
348.915	4.44
349.127	53.59
349.339	45.4
349.551	22.87
349.763	94.55
349.975	41.3
350.187	37.2
350.399	0.34
350.61	39.25
350.822	31.06
351.034	-3.75
351.246	6.49
351.458	-11.95
351.669	6.49
351.881	55.64
352.093	-1.71
352.305	55.64
352.517	37.2
352.728	63.83
352.94	-79.53
353.152	59.73
353.363	92.5
353.575	80.21
353.787	125.27
353.999	102.74
354.21	55.64
354.422	18.77
354.633	33.11
354.845	76.12
355.057	-34.47
355.268	39.25
355.48	-7.85
355.692	22.87
355.903	26.96
356.115	4.44
356.326	14.68
356.538	20.82
356.749	82.26
356.961	29.01
357.172	33.11
357.384	22.87
357.595	22.87
357.807	-7.85
358.018	-38.57
358.23	88.4
358.441	0.34
358.653	22.87
358.864	41.3
359.075	29.01
359.287	49.49
359.498	117.08
359.709	31.06
359.921	26.96
360.132	-18.09
360.344	72.02
360.555	24.92
360.766	10.58
360.977	22.87
361.189	20.82
361.4	24.92
361.611	6.49
361.823	61.78
362.034	49.49
362.245	47.44
362.456	24.92
362.667	61.78
362.879	57.68
363.09	-24.23
363.301	45.4
363.512	35.16
363.723	63.83
363.935	45.4
364.146	-16.04
364.357	22.87
364.568	63.83
364.779	8.53
364.99	57.68
365.201	74.07
365.412	39.25
365.623	29.01
365.834	29.01
366.045	45.4
366.256	115.03
366.467	29.01
366.678	55.64
366.889	43.35
367.1	31.06
367.311	90.45
367.522	31.06
367.733	51.54
367.944	-18.09
368.155	-18.09
368.366	12.63
368.577	72.02
368.788	63.83
368.999	82.26
369.209	110.93
369.42	14.68
369.631	24.92
369.842	45.4
370.053	47.44
370.264	-7.85
370.474	-3.75
370.685	10.58
370.896	59.73
371.107	55.64
371.317	57.68
371.528	65.88
371.739	88.4
371.95	-5.8
372.16	31.06
372.371	14.68
372.582	51.54
372.792	80.21
373.003	26.96
373.214	39.25
373.424	57.68
373.635	35.16
373.846	96.6
374.056	59.73
374.267	63.83
374.477	-13.99
374.688	108.88
374.898	22.87
375.109	45.4
375.319	18.77
375.53	65.88
375.74	43.35
375.951	-16.04
376.161	84.31
376.372	55.64
376.582	96.6
376.793	106.84
377.003	88.4
377.214	-7.85
377.424	-7.85
377.635	117.08
377.845	-9.9
378.055	-5.8
378.266	12.63
378.476	76.12
378.686	22.87
378.897	84.31
379.107	72.02
379.317	53.59
379.528	67.92
379.738	61.78
379.948	96.6
380.158	88.4
380.369	65.88
380.579	110.93
380.789	8.53
380.999	33.11
381.21	65.88
381.42	106.84
381.63	14.68
381.84	37.2
382.05	37.2
382.261	112.98
382.471	61.78
382.681	-1.71
382.891	45.4
383.101	-65.19
383.311	90.45
383.521	37.2
383.731	53.59
383.941	18.77
384.151	-3.75
384.361	41.3
384.571	76.12
384.781	47.44
384.991	47.44
385.201	51.54
385.411	74.07
385.621	43.35
385.831	76.12
386.041	22.87
386.251	63.83
386.461	72.02
386.671	80.21
386.881	-38.57
387.091	74.07
387.301	8.53
387.511	-63.15
387.72	39.25
387.93	41.3
388.14	-1.71
388.35	102.74
388.56	51.54
388.769	14.68
388.979	10.58
389.189	110.93
389.399	57.68
389.609	57.68
389.818	61.78
390.028	88.4
390.238	31.06
390.447	12.63
390.657	37.2
390.867	43.35
391.076	-18.09
391.286	22.87
391.496	-1.71
391.705	31.06
391.915	61.78
392.125	41.3
392.334	96.6
392.544	39.25
392.753	57.68
392.963	18.77
393.172	80.21
393.382	72.02
393.591	41.3
393.801	22.87
394.01	115.03
394.22	98.64
394.429	106.84
394.639	20.82
394.848	55.64
395.058	82.26
395.267	59.73
395.477	76.12
395.686	41.3
395.895	106.84
396.105	90.45
396.314	8.53
396.524	72.02
396.733	133.46
396.942	-18.09
397.152	94.55
397.361	53.59
397.57	94.55
397.78	61.78
397.989	53.59
398.198	149.84
398.407	43.35
398.617	92.5
398.826	82.26
399.035	14.68
399.244	55.64
399.453	61.78
399.663	90.45
399.872	112.98
400.081	-7.85
400.29	24.92
400.499	43.35
400.708	115.03
400.917	80.21
401.127	82.26
401.336	53.59
401.545	104.79
401.754	92.5
401.963	106.84
402.172	59.73
402.381	47.44
402.59	47.44
402.799	78.16
403.008	98.64
403.217	104.79
403.426	82.26
403.635	69.97
403.844	47.44
404.053	57.68
404.262	112.98
404.471	176.47
404.68	96.6
404.888	106.84
405.097	45.4
405.306	104.79
405.515	82.26
405.724	88.4
405.933	98.64
406.142	151.89
406.35	137.56
406.559	158.03
406.768	96.6
406.977	123.22
407.185	239.95
407.394	104.79
407.603	45.4
407.812	244.05
408.02	215.38
408.229	153.94
408.438	178.51
408.646	86.36
408.855	151.89
409.064	168.27
409.272	186.71
409.481	293.2
409.69	221.52
409.898	194.9
410.107	133.46
410.315	198.99
410.524	115.03
410.733	227.67
410.941	268.63
411.15	211.28
411.358	256.34
411.567	285.01
411.775	233.81
411.984	260.43
412.192	285.01
412.401	289.1
412.609	311.63
412.818	317.78
413.026	285.01
413.234	385.36
413.443	420.17
413.651	346.45
413.86	352.59
414.068	395.6
414.276	282.96
414.485	411.98
414.693	401.74
414.901	450.89
415.11	434.51
415.318	477.52
415.526	444.75
415.734	504.14
415.943	418.13
416.151	543.05
416.359	504.14
416.567	477.52
416.776	594.25
416.984	584.01
417.192	573.77
417.4	524.62
417.608	620.88
417.817	690.51
418.025	739.66
418.233	758.09
418.441	749.9
418.649	729.42
418.857	735.56
419.065	745.8
419.273	811.34
419.481	893.26
419.689	983.37
419.897	887.11
420.105	1005.89
420.313	1026.37
420.521	940.36
420.729	989.51
420.937	977.22
421.145	1163.59
421.353	1067.33
421.561	1145.16
421.769	1235.27
421.977	1270.08
422.185	1329.47
422.393	1261.89
422.601	1288.51
422.809	1380.67
423.017	1513.79
423.224	1472.83
423.432	1573.18
423.64	1481.02
423.848	1593.66
424.056	1687.87
424.263	1706.3
424.471	1708.35
424.679	1726.78
424.887	2001.21
425.094	1950.01
425.302	2011.45
425.51	1990.97
425.718	2154.8
425.925	2017.59
426.133	2224.44
426.341	2240.82
426.548	2375.99
426.756	2414.9
426.964	2369.84
427.171	2570.54
427.379	2574.64
427.586	2636.08
427.794	2703.66
428.001	2883.88
428.209	3023.14
428.417	2986.28
428.624	3043.62
428.832	3060.01
429.039	3094.82
429.247	3096.87
429.454	3506.46
429.662	3490.08
429.869	3383.59
430.076	3531.04
430.284	3574.05
430.491	3586.33
430.699	3836.19
430.906	3852.57
431.114	3815.71
431.321	4088.09
431.528	4339.99
431.736	4438.29
431.943	4577.55
432.15	4630.8
432.358	4505.87
432.565	4765.96
432.772	4860.17
432.979	5081.35
433.187	5107.98
433.394	4993.29
433.601	5376.26
433.808	5411.07
434.016	5394.69
434.223	5716.22
434.43	6115.58
434.637	5904.64
434.844	6142.2
435.052	6387.96
435.259	6359.28
435.466	6433.01
435.673	6357.24
435.88	6746.35
436.087	6920.43
436.294	7110.89
436.501	6938.86
436.708	7055.59
436.915	7260.39
437.122	7631.07
437.329	7366.88
437.537	7821.53
437.743	8102.11
437.95	7995.61
438.157	8364.25
438.364	8603.86
438.571	8546.51
438.778	8730.83
438.985	9386.18
439.192	9183.43
439.399	9451.72
439.606	9124.04
439.813	9621.7
440.02	10178.75
440.227	10057.92
440.433	9865.41
440.64	10256.57
440.847	10299.58
441.054	10369.21
441.261	11153.58
441.467	10979.5
441.674	11169.96
441.881	11894.94
442.088	11550.89
442.294	11477.16
442.501	11905.18
442.708	12054.69
442.914	12501.14
443.121	12951.7
443.328	12783.76
443.534	13660.29
443.741	13281.42
443.948	12937.36
444.154	14037.12
444.361	13846.66
444.568	14037.12
444.774	14061.69
444.981	14076.03
445.187	14727.28
445.394	15042.67
445.6	14903.41
445.807	16269.41
446.013	15521.9
446.22	16050.27
446.426	16556.12
446.633	16736.34
446.839	17356.88
447.046	16791.64
447.252	17647.69
447.459	17801.29
447.665	17465.42
447.871	18112.58
448.078	19146.8
448.284	18333.76
448.491	18808.89
448.697	19421.23
448.903	19552.3
449.11	19806.25
449.316	19451.95
449.522	19791.91
449.728	20377.63
449.935	20422.69
450.141	20453.41
450.347	20854.81
450.553	20424.73
450.76	20508.7
450.966	21067.8
451.172	20881.43
451.378	21592.08
451.584	20969.49
451.791	21364.75
451.997	21604.36
452.203	22042.63
452.409	21819.4
452.615	21757.96
452.821	21170.19
453.027	20766.74
453.233	21651.47
453.44	21100.56
453.646	21291.02
453.852	21127.19
454.058	21981.19
454.264	20662.3
454.47	21368.85
454.676	20740.12
454.882	21583.88
455.088	19791.91
455.294	20285.47
455.5	20299.81
455.705	20338.72
455.911	19472.43
456.117	19181.62
456.323	19126.32
456.529	18165.82
456.735	18794.55
456.941	18171.97
457.147	18012.23
457.352	17533
457.558	17295.44
457.764	17145.94
457.97	16980.05
458.176	16623.7
458.381	16513.11
458.587	15691.88
458.793	15706.21
458.999	14891.12
459.204	16128.1
459.41	15581.29
459.616	14432.38
459.821	14682.23
460.027	14715
460.233	14301.31
460.438	13772.93
460.644	13736.07
460.85	12974.22
461.055	13095.05
461.261	12671.12
461.466	11835.55
461.672	11589.8
461.878	12286.11
462.083	11622.56
462.289	11397.29
462.494	11161.77
462.7	10789.04
462.905	10430.65
463.111	10739.89
463.316	10983.6
463.522	10762.42
463.727	10844.34
463.932	10692.79
464.138	10600.63
464.343	10678.45
464.549	10324.15
464.754	10703.03
464.959	10383.54
465.165	10743.99
465.37	10000.57
465.575	9763.01
465.781	10100.92
465.986	10258.62
466.191	9910.46
466.397	9738.43
466.602	9111.75
466.807	9599.17
467.012	9672.9
467.218	9586.88
467.423	9435.33
467.628	9529.54
467.833	10115.26
468.038	9660.61
468.244	9296.07
468.449	9738.43
468.654	9337.03
468.859	9224.39
469.064	9150.67
469.269	8954.06
469.474	8943.82
469.679	9171.15
469.885	8861.9
470.09	9007.31
470.295	8726.74
470.5	8607.95
470.705	8736.98
470.91	8523.99
471.115	8716.5
471.32	8708.3
471.525	8464.6
471.73	8468.69
471.935	8149.21
472.139	8149.21
472.344	8036.57
472.549	8075.48
472.754	7956.7
472.959	7854.3
473.164	7665.89
473.369	7749.86
473.574	7778.53
473.778	7874.78
473.983	7635.17
474.188	7491.81
474.393	7276.77
474.598	7289.06
474.802	7389.41
475.007	7198.95
475.212	7221.48
475.417	7094.51
475.621	6940.91
475.826	7047.4
476.031	6803.69
476.235	6809.84
476.44	6983.91
476.645	6639.86
476.849	6766.83
477.054	6760.69
477.259	6404.34
477.463	6441.2
477.668	6203.64
477.872	6402.29
478.077	6363.38
478.282	6174.97
478.486	6209.78
478.691	6103.29
478.895	6129.91
479.1	5986.55
479.304	6076.66
479.509	5896.44
479.713	6164.73
479.918	5869.82
480.122	5865.72
480.326	5810.43
480.531	5937.4
480.735	5751.04
480.94	5693.69
481.144	5966.07
481.348	5622.02
481.553	5693.69
481.757	5609.73
481.961	5699.84
482.166	5814.52
482.37	5841.15
482.574	5638.4
482.778	5576.96
482.983	5732.61
483.187	5712.13
483.391	5742.85
483.595	5732.61
483.8	5583.1
484.004	5642.5
484.208	5599.49
484.412	5675.26
484.616	5513.47
484.821	5734.65
485.025	5576.96
485.229	5554.43
485.433	5761.28
485.637	5642.5
485.841	5693.69
486.045	5613.82
486.249	5687.55
486.453	5566.72
486.657	5632.26
486.861	5773.57
487.065	5617.92
487.269	5667.07
487.473	5429.51
487.677	5560.58
487.881	5609.73
488.085	5720.32
488.289	5638.4
488.493	5650.69
488.697	5830.91
488.901	5830.91
489.105	5740.8
489.309	5804.28
489.512	5818.62
489.716	5632.26
489.92	5771.52
490.124	5804.28
490.328	5787.9
490.531	5658.88
490.735	5757.18
490.939	5888.25
491.143	5808.38
491.346	5918.97
491.55	5910.78
491.754	5972.22
491.958	5923.07
492.161	5910.78
492.365	6086.9
492.569	6146.3
492.772	5978.36
492.976	6199.54
493.18	6250.74
493.383	6412.53
493.587	6351.09
493.79	6275.32
493.994	6299.89
494.197	6330.61
494.401	6498.55
494.605	6471.92
494.808	6426.87
495.012	6531.31
495.215	6545.65
495.419	6637.81
495.622	6613.23
495.825	6699.25
496.029	6998.25
496.232	6961.39
496.436	6830.32
496.639	7067.88
496.843	7008.49
497.046	7454.95
497.249	7264.49
497.453	7262.44
497.656	7426.28
497.859	7409.89
498.063	7424.23
498.266	7622.88
498.469	7643.36
498.673	7801.05
498.876	7960.8
499.079	8028.38
499.282	7905.5
499.485	8171.74
499.689	8118.49
499.892	8276.18
500.095	8302.81
500.298	8487.12
500.501	8421.59
500.705	8728.78
500.908	8796.37
501.111	9165
501.314	8943.82
501.517	9171.15
501.72	9388.23
501.923	9187.53
502.126	9470.15
502.329	9754.82
502.532	9664.71
502.735	9742.53
502.938	9963.71
503.141	10082.49
503.344	10176.7
503.547	10111.16
503.75	10436.79
503.953	10574
504.156	10602.68
504.359	10975.41
504.562	10795.18
504.765	11188.39
504.968	11231.4
505.17	11460.77
505.373	11356.33
505.576	12001.44
505.779	11815.07
505.982	11911.33
506.185	12327.07
506.387	12134.56
506.59	12445.85
506.793	12681.36
506.996	12728.47
507.198	13207.69
507.401	12845.2
507.604	13271.18
507.807	13549.7
508.009	13795.46
508.212	13891.71
508.415	14026.88
508.617	14098.56
508.82	14264.44
509.022	14098.56
509.225	14370.94
509.428	14741.62
509.63	14909.55
509.833	14940.27
510.035	15366.25
510.238	15083.63
510.44	15519.85
510.643	15896.67
510.845	16171.1
511.048	16007.27
511.25	16416.86
511.453	16494.68
511.655	17086.54
511.858	17313.87
512.06	17195.09
512.262	17639.5
512.465	17567.82
512.667	17678.41
512.87	18044.99
513.072	18075.71
513.274	18587.71
513.477	18737.21
513.679	18976.82
513.881	19077.17
514.084	19402.8
514.286	19380.27
514.488	19511.34
514.69	20176.93
514.893	20310.05
515.095	20226.08
515.297	20854.81
515.499	20668.44
515.701	20985.88
515.904	21536.78
516.106	21520.4
516.308	21817.35
516.51	22104.07
516.712	22411.26
516.914	22456.32
517.116	22847.48
517.318	22728.7
517.52	23070.71
517.722	23197.68
517.925	23691.24
518.127	23674.86
518.329	24410.08
518.531	24459.23
518.733	24463.33
518.935	24608.73
519.136	25231.32
519.338	25425.87
519.54	25698.25
519.742	25843.66
519.944	26181.57
520.146	26496.96
520.348	26623.94
520.55	26402.75
520.752	26755.01
520.954	27041.72
521.155	27379.64
521.357	27609.01
521.559	28133.29
521.761	28403.62
521.963	28325.8
522.164	28932
522.366	29046.68
522.568	29108.12
522.77	29228.95
522.971	29759.38
523.173	29548.43
523.375	29941.64
523.576	30259.08
523.778	29970.32
523.98	30408.58
524.181	30310.28
524.383	30701.44
524.584	31125.37
524.786	31483.76
524.988	31428.47
525.189	31608.69
525.391	32024.43
525.592	32010.09
525.794	32053.1
525.995	32397.16
526.197	32710.5
526.398	32356.2
526.6	32737.12
526.801	32919.39
527.003	32884.58
527.204	32989.02
527.406	33750.87
527.607	33302.36
527.808	33857.36
528.01	33257.31
528.211	33791.83
528.412	34312.01
528.614	34060.11
528.815	33994.57
529.016	34576.2
529.218	34176.84
529.419	33959.76
529.62	34785.09
529.822	34217.8
530.023	34752.32
530.224	34580.29
530.425	34336.59
530.626	34545.48
530.828	34654.02
531.029	35264.32
531.23	34760.51
531.431	34942.78
531.632	35100.48
531.833	35620.66
532.035	35518.26
532.236	35624.76
532.437	35295.03
532.638	35331.9
532.839	35170.11
533.04	35493.69
533.241	34858.82
533.442	36065.07
533.643	35737.4
533.844	35503.93
534.045	35876.66
534.246	35280.7
534.447	35772.21
534.648	35862.32
534.849	35481.4
535.05	35800.88
535.251	35974.96
535.451	35587.89
535.652	35735.35
535.853	36230.96
536.054	36159.28
536.255	36267.82
536.456	35866.42
536.657	35938.1
536.857	35587.89
537.058	35956.53
537.259	36325.16
537.46	36130.61
537.66	35909.43
537.861	36171.57
538.062	36071.21
538.263	36046.64
538.463	35983.15
538.664	36032.3
538.865	35852.08
539.065	36091.69
539.266	35598.13
539.466	36235.05
539.667	35821.36
539.868	36290.35
540.068	35671.86
540.269	35919.67
540.469	36063.02
540.67	36167.47
540.87	36013.87
541.071	35907.38
541.271	36237.1
541.472	36089.65
541.672	35780.4
541.873	35737.4
542.073	35981.1
542.274	36187.95
542.474	35608.37
542.675	35954.48
542.875	36095.79
543.075	35931.95
543.276	35991.34
543.476	36218.67
543.676	35979.06
543.877	36091.69
544.077	36124.46
544.277	36046.64
544.478	36329.26
544.678	35802.93
544.878	35979.06
545.078	36368.17
545.279	35825.46
545.479	35934
545.679	36026.16
545.879	35890.99
546.079	36063.02
546.28	35905.33
546.48	35714.87
546.68	35817.27
546.88	36241.2
547.08	36083.5
547.28	35641.14
547.48	35649.33
547.68	35827.51
547.88	35888.95
548.081	36007.73
548.281	36163.37
548.481	35729.2
548.681	35923.76
548.881	35856.18
549.081	35958.58
549.28	35845.94
549.48	35823.41
549.68	35987.25
549.88	36220.72
550.08	36218.67
550.28	36032.3
550.48	36046.64
550.68	36187.95
550.88	35794.74
551.08	35905.33
551.279	36163.37
551.479	35964.72
551.679	35618.61
551.879	35495.74
552.079	36165.42
552.278	36067.12
552.478	35479.35
552.678	35819.31
552.878	35968.82
553.077	35819.31
553.277	35469.11
553.477	35895.09
553.676	35710.77
553.876	35847.99
554.076	35755.83
554.275	35319.61
554.475	35168.06
554.674	35422.01
554.874	35696.44
555.074	35454.78
555.273	35780.4
555.473	35540.79
555.672	35342.14
555.872	35335.99
556.071	35219.26
556.271	35467.06
556.47	35002.18
556.67	34887.49
556.869	35123.01
557.068	35475.26
557.268	35129.15
557.467	35151.68
557.667	35112.77
557.866	35063.61
558.065	35026.75
558.265	34766.66
558.464	34422.6
558.663	35088.19
558.863	34484.04
559.062	34905.92
559.261	34309.96
559.461	34809.67
559.66	34029.39
559.859	34481.99
560.058	34264.91
560.258	34559.81
560.457	34027.34
560.656	34637.64
560.855	34318.15
561.054	34520.9
561.253	34105.16
561.453	34178.89
561.652	34207.56
561.851	34066.25
562.05	34117.45
562.249	33818.45
562.448	34182.99
562.647	34092.88
562.846	33707.86
563.045	34244.43
563.244	33734.48
563.443	34117.45
563.642	33619.8
563.841	33748.82
564.04	33597.27
564.239	33900.37
564.438	33451.86
564.637	33668.95
564.836	33580.88
565.035	33304.41
565.234	33652.56
565.432	33410.9
565.631	33240.92
565.83	33122.14
566.029	33220.44
566.228	32849.76
566.427	33023.84
566.625	32956.25
566.824	32401.25
567.023	32773.99
567.222	32327.53
567.42	33228.63
567.619	32765.79
567.818	32446.31
568.016	32618.34
568.215	32599.91
568.414	32438.12
568.612	32497.51
568.811	32051.05
569.01	32487.27
569.208	31797.1
569.407	31940.46
569.605	31782.77
569.804	32472.93
570.002	31930.22
570.201	31842.16
570.4	31698.8
570.598	31545.2
570.797	31117.18
570.995	31371.13
571.193	30654.34
571.392	31475.57
571.59	31082.36
571.789	31164.28
571.987	31313.78
572.186	31063.93
572.384	30621.57
572.582	31360.89
572.781	30955.39
572.979	30420.87
573.177	30625.67
573.376	30887.81
573.574	30185.35
573.772	30553.99
573.971	30054.28
574.169	30097.29
574.367	29896.59
574.565	29867.92
574.763	29788.05
574.962	29712.27
575.16	29331.35
575.358	29742.99
575.556	29290.39
575.754	30128.01
575.952	29296.53
576.151	29781.9
576.349	29001.63
576.547	28809.12
576.745	29267.86
576.943	29308.82
577.141	28950.43
577.339	28913.56
577.537	28473.25
577.735	28684.19
577.933	28389.28
578.131	28934.04
578.329	28653.47
578.527	28577.7
578.725	28467.11
578.923	28479.39
579.121	28166.06
579.319	28217.25
579.516	28006.31
579.714	28006.31
579.912	27735.98
580.11	28039.08
580.308	27858.86
580.506	27588.53
580.704	27119.54
580.901	27316.15
581.099	27426.74
581.297	27205.56
581.495	27180.98
581.692	27613.1
581.89	26875.84
582.088	27234.23
582.285	27160.5
582.483	26871.74
582.681	26922.94
582.878	26816.44
583.076	26519.49
583.274	26521.54
583.471	26138.57
583.669	26560.45
583.866	26314.69
584.064	26326.98
584.262	25749.45
584.459	26273.73
584.657	26132.42
584.854	26288.07
585.052	25532.37
585.249	25972.68
585.447	25855.95
585.644	25503.7
585.841	25673.68
586.039	25645.01
586.236	25065.43
586.434	25259.99
586.631	25212.88
586.828	25225.17
587.026	24995.8
587.223	25008.09
587.42	24965.08
587.618	25026.52
587.815	24672.22
588.012	24791
588.21	24416.22
588.407	24866.78
588.604	24539.1
588.801	24227.81
588.999	24295.39
589.196	24238.05
589.393	24532.96
589.59	24303.59
589.787	24117.22
589.984	23807.98
590.182	23676.91
590.379	23908.33
590.576	23893.99
590.773	23836.65
590.97	23713.77
591.167	23896.04
591.364	23445.49
591.561	23394.29
591.758	23668.72
591.955	23322.61
592.152	23293.94
592.349	23468.02
592.546	23369.71
592.743	23291.89
592.94	22986.74
593.137	22976.5
593.334	22896.63
593.531	22534.14
593.727	22972.41
593.924	22902.78
594.121	22624.25
594.318	22773.75
594.515	22153.22
594.712	22360.06
594.908	22458.37
595.105	22583.29
595.302	22145.03
595.499	22077.44
595.696	22431.74
595.892	21870.6
596.089	22315.01
596.286	22099.97
596.482	22108.16
596.679	22059.01
596.876	21886.98
597.072	22005.77
597.269	22159.36
597.466	21645.32
597.662	21612.56
597.859	21446.67
598.055	21755.91
598.252	21485.58
598.448	21526.54
598.645	21182.48
598.841	21321.74
599.038	21112.85
599.234	21078.04
599.431	20660.25
599.627	21010.45
599.824	21135.38
600.02	20662.3
600.217	20787.22
600.413	20453.41
600.609	20754.46
600.806	20260.9
601.002	20600.86
601.198	20725.79
601.395	20426.78
601.591	20410.4
601.787	20162.59
601.984	19990.56
602.18	20287.52
602.376	19773.48
602.572	19959.84
602.769	19810.34
602.965	19658.79
603.161	19871.78
603.357	19816.49
603.553	19554.35
603.75	19691.56
603.946	19390.51
604.142	19728.42
604.338	19089.46
604.534	19421.23
604.73	19134.51
604.926	18964.53
605.122	19318.83
605.318	19410.99
605.514	19097.65
605.71	18780.21
605.906	18763.83
606.102	18800.69
606.298	18522.17
606.494	18667.58
606.69	18872.37
606.886	18720.82
607.082	18483.26
607.278	18335.81
607.474	18198.59
607.67	18292.8
607.866	18139.2
608.062	18155.58
608.257	18001.99
608.453	18346.05
608.649	18176.06
608.845	17815.62
609.041	17942.6
609.236	18153.54
609.432	17750.09
609.628	17977.41
609.824	17516.62
610.019	17530.95
610.215	17852.48
610.411	17965.12
610.606	17330.25
610.802	17594.44
610.998	17500.23
611.193	17303.63
611.389	17152.08
611.584	17156.18
611.78	16932.95
611.976	17059.92
612.171	16904.28
612.367	17373.26
612.562	17113.17
612.758	16859.22
612.953	16859.22
613.149	16713.81
613.344	16971.86
613.539	17135.7
613.735	16851.03
613.93	16814.16
614.126	16351.32
614.321	16638.04
614.517	16504.92
614.712	16539.74
614.907	16351.32
615.103	16355.42
615.298	16410.71
615.493	16535.64
615.688	16261.21
615.884	16435.29
616.079	16142.43
616.274	15970.4
616.47	16062.56
616.665	15976.55
616.86	15908.96
617.055	15976.55
617.25	16050.27
617.445	15947.87
617.641	15822.95
617.836	16005.22
618.031	15489.13
618.226	15921.25
618.421	15362.15
618.616	15716.45
618.811	15405.16
619.006	15597.67
619.201	15265.9
619.396	15343.72
619.591	15134.83
619.786	15206.51
619.981	14684.28
620.176	15407.21
620.371	14864.5
620.566	15120.49
620.761	14893.17
620.956	14760.05
621.151	14514.3
621.346	14784.63
621.541	14469.24
621.735	14463.1
621.93	14096.51
622.125	14428.28
622.32	14047.36
622.515	14133.37
622.709	14145.66
622.904	14028.93
623.099	13756.55
623.294	13949.06
623.488	13355.15
623.683	13738.12
623.878	13633.67
624.072	13643.91
624.267	13594.76
624.462	13295.75
624.656	13187.21
624.851	13154.44
625.046	13215.88
625.24	13250.7
625.435	12957.84
625.629	12710.04
625.824	12787.86
626.018	12789.91
626.213	12417.18
626.407	12615.83
626.602	12542.1
626.796	12605.59
626.991	12589.21
627.185	12499.09
627.38	12396.7
627.574	12187.8
627.768	12146.84
627.963	12044.45
628.157	11849.89
628.352	12052.64
628.546	11843.74
628.74	11980.96
628.935	11761.83
629.129	11817.12
629.323	11702.43
629.517	11659.43
629.712	11540.65
629.906	11567.27
630.1	11491.49
630.294	11428.01
630.489	11210.92
630.683	11454.63
630.877	11360.42
631.071	11014.32
631.265	11180.2
631.459	11042.99
631.653	11186.35
631.848	10956.97
632.042	10764.47
632.236	10979.5
632.43	10727.6
632.624	10965.17
632.818	10819.76
633.012	10621.11
633.206	10864.82
633.4	10623.16
633.594	10537.14
633.788	10584.24
633.982	10481.85
634.176	10350.78
634.369	10242.23
634.563	10225.85
634.757	10172.6
634.951	10043.58
635.145	10115.26
635.339	10238.14
635.533	10090.68
635.726	10016.96
635.92	9918.65
636.114	9994.43
636.308	9601.22
636.501	10029.24
636.695	9595.07
636.889	9767.1
637.083	9636.03
637.276	9621.7
637.47	9394.37
637.664	9421
637.857	9511.11
638.051	9504.96
638.244	9386.18
638.438	9361.61
638.632	9115.85
638.825	9238.73
639.019	9105.61
639.212	9156.81
639.406	8988.88
639.599	8913.1
639.793	9095.37
639.986	8665.3
640.18	8685.78
640.373	8767.7
640.567	8521.94
640.76	8597.71
640.954	8700.11
641.147	8503.51
641.34	8573.14
641.534	8335.57
641.727	8521.94
641.92	8517.84
642.114	8317.14
642.307	8290.52
642.5	8179.93
642.694	8073.43
642.887	7997.66
643.08	8120.54
643.273	8048.86
643.467	8044.76
643.66	7893.21
643.853	7948.51
644.046	7794.91
644.239	8016.09
644.432	7530.72
644.626	7647.46
644.819	7620.83
645.012	7532.77
645.205	7626.98
645.398	7573.73
645.591	7457
645.784	7362.79
645.977	7547.11
646.17	7362.79
646.363	7325.93
646.556	7213.29
646.749	7237.86
646.942	7157.99
647.135	7065.83
647.328	7233.77
647.521	7149.8
647.714	6920.43
647.907	7014.63
648.099	6779.12
648.292	6883.56
648.485	6705.39
648.678	6697.2
648.871	6797.55
649.064	6607.09
649.256	6633.71
649.449	6596.85
649.642	6621.42
649.835	6562.03
650.027	6482.16
650.22	6504.69
650.413	6414.58
650.605	6537.46
650.798	6369.52
650.991	6279.41
651.183	6316.28
651.376	6244.6
651.568	6430.96
651.761	6146.3
651.954	6119.67
652.146	6043.9
652.339	5998.84
652.531	5998.84
652.724	5941.5
652.916	5884.16
653.109	5814.52
653.301	5716.22
653.494	5732.61
653.686	5613.82
653.879	5824.76
654.071	5646.59
654.263	5652.74
654.456	5658.88
654.648	5628.16
654.84	5486.85
655.033	5497.09
655.225	5368.07
655.417	5552.38
655.61	5509.38
655.802	5337.35
655.994	5370.12
656.186	5339.4
656.379	5294.34
656.571	5308.68
656.763	5200.13
656.955	5064.97
657.148	5179.65
657.34	5132.55
657.532	4997.39
657.724	5046.54
657.916	4983.05
658.108	4960.52
658.3	4808.97
658.492	4774.16
658.684	4784.4
658.876	4706.57
659.068	4768.01
659.26	4710.67
659.452	4753.68
659.644	4618.51
659.836	4733.2
660.028	4622.61
660.22	4452.63
660.412	4546.83
660.604	4475.15
660.796	4354.32
660.988	4366.61
661.18	4454.67
661.372	4319.51
661.563	4440.34
661.755	4309.27
661.947	4372.75
662.139	4305.17
662.331	4192.53
662.522	4096.28
662.714	4172.05
662.906	4018.46
663.097	4225.3
663.289	4049.18
663.481	4075.8
663.673	4100.37
663.864	4030.74
664.056	4038.94
664.247	3875.1
664.439	3883.29
664.631	3928.35
664.822	3754.27
665.014	3871
665.205	3760.41
665.397	3758.36
665.588	3643.68
665.78	3619.1
665.971	3596.57
666.163	3651.87
666.354	3766.56
666.546	3602.72
666.737	3477.79
666.929	3688.73
667.12	3547.42
667.311	3455.26
667.503	3424.55
667.694	3387.68
667.885	3465.5
668.077	3387.68
668.268	3320.1
668.459	3430.69
668.651	3397.92
668.842	3438.88
669.033	3336.48
669.224	3428.64
669.416	3363.11
669.607	3383.59
669.798	3299.62
669.989	3236.13
670.18	3242.28
670.371	3154.21
670.563	3207.46
670.754	3055.91
670.945	3186.98
671.136	3113.25
671.327	3162.41
671.518	3154.21
671.709	3103.01
671.9	3072.29
672.091	3098.92
672.282	3105.06
672.473	3094.82
672.664	3041.57
672.855	2990.38
673.046	3113.25
673.237	2973.99
673.428	2941.22
673.619	3008.81
673.809	2926.89
674	2914.6
674.191	2947.37
674.382	2859.31
674.573	2812.2
674.764	2834.73
674.954	2836.78
675.145	2791.72
675.336	2855.21
675.527	2883.88
675.717	2955.56
675.908	2855.21
676.099	2816.3
676.289	2900.27
676.48	2761
676.671	2701.61
676.861	2726.19
677.052	2724.14
677.243	2728.24
677.433	2779.43
677.624	2810.15
677.814	2687.28
678.005	2720.04
678.195	2644.27
678.386	2736.43
678.576	2695.47
678.767	2650.41
678.957	2660.65
679.148	2609.45
679.338	2638.13
679.529	2771.24
679.719	2545.97
679.909	2595.12
680.1	2593.07
680.29	2597.17
680.481	2531.63
680.671	2578.73
680.861	2689.32
681.052	2521.39
681.242	2521.39
681.432	2591.02
681.622	2513.2
681.813	2683.18
682.003	2531.63
682.193	2486.58
682.383	2451.76
682.573	2490.67
682.764	2548.01
682.954	2568.49
683.144	2480.43
683.334	2560.3
683.524	2566.45
683.714	2468.14
683.904	2412.85
684.094	2513.2
684.284	2500.91
684.474	2382.13
684.664	2496.82
684.854	2464.05
685.044	2548.01
685.234	2437.42
685.424	2515.25
685.614	2519.34
685.804	2404.66
685.994	2396.46
686.184	2570.54
686.374	2431.28
686.564	2470.19
686.753	2451.76
686.943	2447.66
687.133	2382.13
687.323	2378.03
687.513	2427.18
687.702	2451.76
687.892	2423.09
688.082	2414.9
688.272	2443.57
688.461	2398.51
688.651	2359.6
688.841	2494.77
689.03	2459.95
689.22	2365.75
689.41	2398.51
689.599	2310.45
689.789	2322.74
689.979	2378.03
690.168	2330.93
690.358	2357.55
690.547	2296.11
690.737	2373.94
690.926	2476.34
691.116	2373.94
691.305	2441.52
691.495	2287.92
691.684	2459.95
691.874	2447.66
692.063	2351.41
692.252	2459.95
692.442	2496.82
692.631	2386.22
692.82	2220.34
693.01	2328.88
693.199	2265.39
693.388	2335.03
693.578	2400.56
693.767	2345.27
693.956	2242.87
694.146	2304.31
694.335	2384.18
694.524	2421.04
694.713	2369.84
694.902	2558.25
695.092	2371.89
695.281	2380.08
695.47	2312.5
695.659	2421.04
695.848	2285.87
696.037	2335.03
696.226	2347.31
696.415	2447.66
696.604	2466.1
696.793	2302.26
696.982	2249.01
697.171	2261.3
697.36	2431.28
697.549	2398.51
697.738	2365.75
697.927	2384.18
698.116	2386.22
698.305	2361.65
698.494	2308.4
698.683	2369.84
698.872	2316.59
699.061	2335.03
699.25	2394.42
699.438	2332.98
699.627	2277.68
699.816	2306.35
700.005	2251.06
700.193	2357.55
700.382	2347.31
700.571	2351.41
700.76	2363.7
700.948	2316.59
701.137	2361.65
701.326	2265.39
701.514	2363.7
701.703	2341.17
701.892	2302.26
702.08	2277.68
702.269	2324.79
702.457	2287.92
702.646	2341.17
702.834	2249.01
703.023	2273.59
703.212	2298.16
703.4	2279.73
703.589	2222.39
703.777	2226.48
703.965	2189.62
704.154	2163
704.342	2234.68
704.531	2109.75
704.719	2261.3
704.907	2146.61
705.096	2210.1
705.284	2181.43
705.472	2220.34
705.661	2185.52
705.849	2169.14
706.037	2208.05
706.226	2124.08
706.414	2261.3
706.602	2193.72
706.79	2261.3
706.979	2085.17
707.167	2105.65
707.355	1993.01
707.543	2087.22
707.731	2107.7
707.919	2054.45
708.107	2056.5
708.296	1980.73
708.484	2031.93
708.672	1980.73
708.86	2076.98
709.048	2074.93
709.236	1990.97
709.424	2093.37
709.612	2001.21
709.8	1993.01
709.988	1921.34
710.176	2005.3
710.364	1988.92
710.551	2013.49
710.739	1859.9
710.927	1925.43
711.115	2033.97
711.303	2005.3
711.491	1964.34
711.679	1851.71
711.866	1947.96
712.054	1950.01
712.242	1968.44
712.43	1859.9
712.617	1851.71
712.805	1829.18
712.993	1837.37
713.181	1780.03
713.368	1935.67
713.556	1968.44
713.744	1741.11
713.931	1874.23
714.119	1845.56
714.306	1831.23
714.494	1769.79
714.682	1728.83
714.869	1808.7
715.057	1782.07
715.244	1753.4
715.432	1841.47
715.619	1751.35
715.807	1845.56
715.994	1808.7
716.182	1739.07
716.369	1753.4
716.556	1718.59
716.744	1612.09
716.931	1728.83
717.119	1716.54
717.306	1681.72
717.493	1712.44
717.681	1706.3
717.868	1636.67
718.055	1554.75
718.242	1675.58
718.43	1737.02
718.617	1634.62
718.804	1616.19
718.991	1591.61
719.179	1636.67
719.366	1532.22
719.553	1515.84
719.74	1562.94
719.927	1530.17
720.114	1530.17
720.301	1601.85
720.488	1610.04
720.676	1493.31
720.863	1575.23
721.05	1589.57
721.237	1519.93
721.424	1413.44
721.611	1560.89
721.798	1601.85
721.985	1546.56
722.172	1444.16
722.358	1456.45
722.545	1526.08
722.732	1464.64
722.919	1472.83
723.106	1417.54
723.293	1446.21
723.48	1450.3
723.667	1411.39
723.853	1483.07
724.04	1392.96
724.227	1497.41
724.414	1411.39
724.6	1370.43
724.787	1450.3
724.974	1431.87
725.161	1423.68
725.347	1403.2
725.534	1302.85
725.72	1347.9
725.907	1401.15
726.094	1349.95
726.28	1300.8
726.467	1319.23
726.653	1440.06
726.84	1349.95
727.027	1282.37
727.213	1288.51
727.4	1282.37
727.586	1237.31
727.773	1265.99
727.959	1282.37
728.145	1354.05
728.332	1247.55
728.518	1245.51
728.705	1317.19
728.891	1274.18
729.077	1253.7
729.264	1171.78
729.45	1288.51
729.636	1210.69
729.823	1155.4
730.009	1241.41
730.195	1276.23
730.382	1202.5
730.568	1294.66
730.754	1204.55
730.94	1218.88
731.126	1182.02
731.313	1032.52
731.499	1270.08
731.685	1157.44
731.871	1251.65
732.057	1173.83
732.243	1175.88
732.429	1204.55
732.615	1177.92
732.801	1186.12
732.987	1155.4
733.173	1216.83
733.359	1171.78
733.545	1130.82
733.731	1159.49
733.917	1149.25
734.103	1155.4
734.289	1079.62
734.475	1116.48
734.661	1057.09
734.847	1085.76
735.033	1077.57
735.219	1005.89
735.404	1153.35
735.59	964.93
735.776	1065.29
735.962	1055.05
736.148	1075.52
736.333	1073.48
736.519	1050.95
736.705	1034.57
736.89	1001.8
737.076	1040.71
737.262	1065.29
737.447	1026.37
737.633	1001.8
737.819	1009.99
738.004	1048.9
738.19	971.08
738.375	1024.33
738.561	1009.99
738.747	1036.61
738.932	905.54
739.118	987.46
739.303	1085.76
739.489	930.12
739.674	913.74
739.859	942.41
740.045	985.41
740.23	880.97
740.416	917.83
740.601	930.12
740.786	829.77
740.972	909.64
741.157	876.87
741.342	981.32
741.528	840.01
741.713	964.93
741.898	954.69
742.084	946.5
742.269	895.3
742.454	909.64
742.639	950.6
742.824	958.79
743.01	862.54
743.195	934.22
743.38	948.55
743.565	799.05
743.75	807.24
743.935	985.41
744.12	885.06
744.305	766.28
744.49	835.91
744.675	913.74
744.86	770.38
745.045	860.49
745.23	809.29
745.415	891.21
745.6	770.38
745.785	819.53
745.97	915.78
746.155	840.01
746.34	858.44
746.525	774.47
746.71	710.99
746.895	727.37
747.079	770.38
747.264	751.95
747.449	801.1
747.634	813.38
747.819	792.91
748.003	743.75
748.188	741.71
748.373	745.8
748.557	801.1
748.742	753.99
748.927	819.53
749.111	700.75
749.296	696.65
749.481	680.27
749.665	770.38
749.85	667.98
750.034	667.98
750.219	735.56
750.404	655.69
750.588	706.89
750.773	680.27
750.957	723.27
751.141	713.03
751.326	674.12
751.51	684.36
751.695	731.47
751.879	729.42
752.064	651.6
752.248	674.12
752.432	645.45
752.617	649.55
752.801	686.41
752.985	747.85
753.17	641.36
753.354	667.98
753.538	569.68
753.722	692.55
753.907	584.01
754.091	594.25
754.275	616.78
754.459	549.2
754.643	612.68
754.828	592.2
755.012	565.58
755.196	543.05
755.38	479.57
755.564	563.53
755.748	592.2
755.932	551.24
756.116	588.11
756.3	571.72
756.484	590.16
756.668	565.58
756.852	598.35
757.036	592.2
757.22	606.54
757.404	549.2
757.588	573.77
757.772	610.64
757.956	575.82
758.14	524.62
758.323	498
758.507	448.85
758.691	573.77
758.875	502.09
759.059	491.85
759.242	493.9
759.426	473.42
759.61	495.95
759.794	500.05
759.977	538.96
760.161	534.86
760.345	475.47
760.528	551.24
760.712	495.95
760.895	491.85
761.079	457.04
761.263	469.33
761.446	471.37
761.63	493.9
761.813	489.81
761.997	418.13
762.18	414.03
762.364	498
762.547	489.81
762.731	471.37
762.914	426.32
763.098	411.98
763.281	448.85
763.464	479.57
763.648	454.99
763.831	510.29
764.015	467.28
764.198	498
764.381	493.9
764.564	475.47
764.748	418.13
764.931	454.99
765.114	368.98
765.297	407.89
765.481	381.26
765.664	381.26
765.847	383.31
766.03	498
766.213	401.74
766.397	477.52
766.58	491.85
766.763	506.19
766.946	371.02
767.129	430.41
767.312	368.98
767.495	477.52
767.678	399.7
767.861	424.27
768.044	434.51
768.227	405.84
768.41	405.84
768.593	454.99
768.776	399.7
768.959	383.31
769.142	414.03
769.324	403.79
769.507	475.47
769.69	393.55
769.873	475.47
770.056	366.93
770.239	434.51
770.421	430.41
770.604	444.75
770.787	403.79
770.97	393.55
771.152	360.78
771.335	409.94
771.518	373.07
771.7	336.21
771.883	346.45
772.066	389.46
772.248	444.75
772.431	352.59
772.613	346.45
772.796	424.27
772.978	399.7
773.161	401.74
773.343	325.97
773.526	356.69
773.708	424.27
773.891	422.22
774.073	366.93
774.256	366.93
774.438	377.17
774.621	403.79
774.803	375.12
774.985	299.34
775.168	389.46
775.35	362.83
775.532	350.54
775.715	323.92
775.897	389.46
776.079	401.74
776.261	293.2
776.444	350.54
776.626	350.54
776.808	377.17
776.99	325.97
777.173	344.4
777.355	319.82
777.537	303.44
777.719	368.98
777.901	336.21
778.083	311.63
778.265	330.06
778.447	348.5
778.629	272.72
778.811	242
778.993	301.39
779.175	293.2
779.357	348.5
779.539	235.86
779.721	266.58
779.903	325.97
780.085	325.97
780.267	237.91
780.449	264.53
780.631	282.96
780.812	342.35
780.994	278.87
781.176	272.72
781.358	235.86
781.54	227.67
781.721	319.82
781.903	192.85
782.085	278.87
782.267	254.29
782.448	315.73
782.63	190.8
782.812	262.48
782.993	250.19
783.175	268.63
783.357	229.71
783.538	377.17
783.72	262.48
783.901	244.05
784.083	225.62
784.264	350.54
784.446	227.67
784.627	213.33
784.809	248.15
784.99	264.53
785.172	225.62
785.353	274.77
785.535	158.03
785.716	203.09
785.897	155.99
786.079	260.43
786.26	233.81
786.441	155.99
786.623	209.23
786.804	190.8
786.985	268.63
787.167	229.71
787.348	285.01
787.529	190.8
787.71	201.04
787.891	262.48
788.073	205.14
788.254	198.99
788.435	106.84
788.616	176.47
788.797	123.22
788.978	190.8
789.159	215.38
789.34	248.15
789.522	248.15
789.703	215.38
789.884	168.27
790.065	168.27
790.246	153.94
790.427	170.32
790.607	211.28
790.788	141.65
790.969	123.22
791.15	180.56
791.331	145.75
791.512	162.13
791.693	211.28
791.874	145.75
792.054	201.04
792.235	205.14
792.416	209.23
792.597	155.99
792.778	125.27
792.958	139.6
793.139	196.95
793.32	129.36
793.5	67.92
793.681	155.99
793.862	168.27
794.042	139.6
794.223	207.19
794.404	155.99
794.584	129.36
794.765	123.22
794.945	143.7
795.126	139.6
795.306	119.12
795.487	155.99
795.667	186.71
795.848	59.73
796.028	131.41
796.209	123.22
796.389	119.12
796.57	172.37
796.75	155.99
796.93	151.89
797.111	104.79
797.291	112.98
797.471	141.65
797.652	76.12
797.832	100.69
798.012	196.95
798.192	100.69
798.373	176.47
798.553	133.46
798.733	123.22
798.913	153.94
799.093	123.22
799.274	137.56
799.454	129.36
799.634	72.02
799.814	147.8
799.994	145.75
800.174	133.46
800.354	117.08
800.534	164.18
800.714	123.22
800.894	96.6
801.074	117.08
801.254	108.88
801.434	129.36
801.614	94.55
801.794	139.6
801.974	330.06
802.154	84.31
802.334	176.47
802.514	57.68
802.693	170.32
802.873	31.06
803.053	106.84
803.233	112.98
803.413	121.17
803.592	8.53
803.772	155.99
803.952	121.17
804.131	82.26
804.311	115.03
804.491	137.56
804.67	133.46
804.85	153.94
805.03	98.64
805.209	147.8
805.389	211.28
805.568	92.5
805.748	143.7
805.928	137.56
806.107	133.46
806.287	131.41
806.466	106.84
806.646	57.68
806.825	92.5
807.004	84.31
807.184	33.11
807.363	90.45
807.543	82.26
807.722	162.13
807.901	182.61
808.081	67.92
808.26	92.5
808.439	65.88
808.619	55.64
808.798	104.79
808.977	86.36
809.156	141.65
809.336	112.98
809.515	80.21
809.694	78.16
809.873	74.07
810.052	135.51
810.231	78.16
810.411	96.6
810.59	39.25
810.769	115.03
810.948	6.49
811.127	90.45
811.306	133.46
811.485	49.49
811.664	82.26
811.843	100.69
812.022	61.78
812.201	121.17
812.38	121.17
812.559	65.88
812.737	65.88
812.916	49.49
813.095	104.79
813.274	127.32
813.453	24.92
813.632	26.96
813.811	108.88
813.989	92.5
814.168	117.08
814.347	69.97
814.526	39.25
814.704	88.4
814.883	86.36
815.062	53.59
815.24	96.6
815.419	55.64
815.598	108.88
815.776	37.2
815.955	45.4
816.133	55.64
816.312	112.98
816.49	-7.85
816.669	110.93
816.847	61.78
817.026	84.31
817.204	55.64
817.383	90.45
817.561	82.26
817.74	106.84
817.918	125.27
818.097	139.6
818.275	16.73
818.453	102.74
818.632	55.64
818.81	74.07
818.988	10.58
819.167	72.02
819.345	69.97
819.523	104.79
819.701	43.35
819.879	67.92
820.058	80.21
820.236	90.45
820.414	14.68
820.592	90.45
820.77	78.16
820.948	63.83
821.127	80.21
821.305	104.79
821.483	106.84
821.661	84.31
821.839	39.25
822.017	45.4
822.195	100.69
822.373	76.12
822.551	57.68
822.729	90.45
822.907	88.4
823.085	14.68
823.262	69.97
823.44	2.39
823.618	41.3
823.796	67.92
823.974	65.88
824.152	88.4
824.329	67.92
824.507	67.92
824.685	29.01
824.863	39.25
825.04	102.74
825.218	82.26
825.396	47.44
825.574	110.93
825.751	59.73
825.929	55.64
826.107	45.4
826.284	-1.71
826.462	12.63
826.639	63.83
826.817	8.53
826.994	131.41
827.172	43.35
827.349	65.88
827.527	123.22
827.704	4.44
827.882	51.54
828.059	57.68
828.237	26.96
828.414	24.92
828.591	-61.1
828.769	20.82
828.946	-20.14
829.124	59.73
829.301	18.77
829.478	47.44
829.655	41.3
829.833	24.92
830.01	18.77
830.187	74.07
830.364	29.01
830.542	57.68
830.719	63.83
830.896	55.64
831.073	2.39
831.25	18.77
831.427	0.34
831.604	31.06
831.782	76.12
831.959	76.12
832.136	35.16
832.313	-7.85
832.49	88.4
832.667	55.64
832.844	110.93
833.021	16.73
833.198	67.92
833.374	-9.9
833.551	-20.14
833.728	117.08
833.905	78.16
834.082	0.34
834.259	65.88
834.436	-16.04
834.612	20.82
834.789	18.77
834.966	49.49
835.143	10.58
835.319	35.16
835.496	29.01
835.673	22.87
835.85	4.44
836.026	47.44
836.203	86.36
836.38	-16.04
836.556	6.49
836.733	106.84
836.909	39.25
837.086	-1.71
837.262	-3.75
837.439	80.21
837.616	104.79
837.792	37.2
837.968	14.68
838.145	6.49
838.321	26.96
838.498	39.25
838.674	51.54
838.851	47.44
839.027	76.12
839.203	-13.99
839.38	43.35
839.556	67.92
839.732	47.44
839.909	94.55
840.085	63.83
840.261	47.44
840.437	33.11
840.614	37.2
840.79	121.17
840.966	8.53
841.142	2.39
841.318	-7.85
841.494	67.92
841.671	47.44
841.847	22.87
842.023	26.96
842.199	0.34
842.375	72.02
842.551	98.64
842.727	-11.95
842.903	59.73
843.079	76.12
843.255	6.49
843.431	6.49
843.607	22.87
843.783	24.92
843.959	33.11
844.134	74.07
844.31	61.78
844.486	26.96
844.662	14.68
844.838	-1.71
845.013	80.21
845.189	-20.14
845.365	33.11
845.541	141.65
845.716	74.07
845.892	26.96
846.068	26.96
846.244	8.53
846.419	47.44
846.595	-13.99
846.77	90.45
846.946	-28.33
847.122	55.64
847.297	53.59
847.473	72.02
847.648	67.92
847.824	12.63
847.999	61.78
848.175	53.59
848.35	6.49
848.526	-1.71
848.701	49.49
848.876	47.44
849.052	2.39
849.227	-5.8
849.403	2.39
849.578	53.59
849.753	24.92
849.929	47.44
850.104	84.31
850.279	24.92
850.454	10.58
850.63	41.3
850.805	14.68
850.98	-7.85
851.155	18.77
851.33	43.35
851.505	43.35
851.681	102.74
851.856	24.92
852.031	20.82
852.206	35.16
852.381	-3.75
852.556	22.87
852.731	72.02
852.906	-18.09
853.081	-18.09
853.256	49.49
853.431	39.25
853.606	14.68
853.781	88.4
853.956	-26.28
854.131	14.68
854.305	-11.95
854.48	59.73
854.655	-9.9
854.83	-18.09
855.005	22.87
855.18	-3.75
855.354	90.45
855.529	96.6
855.704	18.77
855.879	74.07
856.053	-20.14
856.228	59.73
856.403	49.49
856.577	43.35
856.752	47.44
856.926	115.03
857.101	57.68
857.276	22.87
857.45	35.16
857.625	57.68
857.799	18.77
857.974	6.49
858.148	6.49
858.323	84.31
858.497	-32.43
858.672	47.44
858.846	41.3
859.02	-22.19
859.195	-9.9
859.369	47.44
859.543	0.34
859.718	61.78
859.892	-34.47
860.066	18.77
860.241	-18.09
860.415	18.77
860.589	18.77
860.763	59.73
860.938	-7.85
861.112	6.49
861.286	-1.71
861.46	31.06
861.634	-18.09
861.808	55.64
861.982	-57
862.157	12.63
862.331	53.59
862.505	35.16
862.679	82.26
862.853	-16.04
863.027	98.64
863.201	74.07
863.375	78.16
863.549	39.25
863.722	33.11
863.896	72.02
864.07	22.87
864.244	-24.23
864.418	8.53
864.592	72.02
864.766	86.36
864.939	47.44
865.113	-30.38
865.287	121.17
865.461	18.77
865.634	47.44
865.808	41.3
865.982	55.64
866.156	14.68
866.329	39.25
866.503	41.3
866.676	26.96
866.85	8.53
867.024	55.64
867.197	41.3
867.371	8.53
867.544	37.2
867.718	43.35
867.891	20.82
868.065	69.97
868.238	24.92
868.412	18.77
868.585	10.58
868.759	16.73
868.932	35.16
869.105	-13.99
869.279	63.83
869.452	-22.19
869.625	-13.99
869.799	115.03
869.972	-40.62
870.145	18.77
870.319	49.49
870.492	51.54
870.665	-5.8
870.838	67.92
871.011	47.44
871.185	-13.99
871.358	-79.53
871.531	33.11
871.704	14.68
871.877	-22.19
872.05	-7.85
872.223	-7.85
872.396	-22.19
872.569	88.4
872.742	18.77
872.915	43.35
873.088	4.44
873.261	-5.8
873.434	-9.9
873.607	-13.99
873.78	-36.52
873.953	-11.95
874.126	82.26
874.299	67.92
874.471	-52.91
874.644	33.11
874.817	-9.9
874.99	6.49
875.163	-46.76
875.335	80.21
875.508	72.02
875.681	61.78
875.853	-26.28
876.026	22.87
876.199	31.06
876.371	31.06
876.544	72.02
876.717	16.73
876.889	14.68
877.062	29.01
877.234	37.2
877.407	2.39
877.579	18.77
877.752	94.55
877.924	37.2
878.097	110.93
878.269	8.53
878.442	-5.8
878.614	45.4
878.786	26.96
878.959	22.87
879.131	-16.04
879.303	57.68
879.476	-44.71
879.648	22.87
879.82	63.83
879.993	49.49
880.165	0.34
880.337	-20.14
880.509	39.25
880.681	20.82
880.854	10.58
881.026	20.82
881.198	98.64
881.37	8.53
881.542	-48.81
881.714	8.53
881.886	57.68
882.058	69.97
882.23	47.44
882.402	4.44
882.574	-28.33
882.746	51.54
882.918	24.92
883.09	-20.14
883.262	-16.04
883.434	-22.19
883.606	-9.9
883.778	20.82
883.95	16.73
884.122	41.3
884.293	29.01
884.465	14.68
884.637	4.44
884.809	-16.04
884.98	16.73
885.152	55.64
885.324	63.83
885.496	-26.28
885.667	6.49
885.839	57.68
886.011	-36.52
886.182	12.63
886.354	43.35
886.525	49.49
886.697	90.45
886.869	-28.33
887.04	65.88
887.212	65.88
887.383	72.02
887.555	47.44
887.726	8.53
887.897	51.54
888.069	61.78
888.24	20.82
888.412	47.44
888.583	41.3
888.754	63.83
888.926	90.45
889.097	6.49
889.268	-9.9
889.44	-11.95
889.611	41.3
889.782	24.92
889.953	4.44
890.125	49.49
890.296	-7.85
890.467	-7.85
890.638	-24.23
890.809	-26.28
890.98	76.12
891.151	6.49
891.323	-13.99
891.494	14.68
891.665	33.11
891.836	-26.28
892.007	22.87
892.178	-40.62
892.349	10.58
892.52	0.34
892.691	-24.23
892.862	-13.99
893.032	35.16
893.203	31.06
893.374	55.64
893.545	31.06
893.716	-18.09
893.887	98.64
894.057	37.2
894.228	-7.85
894.399	-24.23
894.57	-1.71
894.74	-42.67
894.911	43.35
895.082	61.78
895.253	-1.71
895.423	-9.9
895.594	33.11
895.764	-26.28
895.935	33.11
896.106	41.3
896.276	2.39
896.447	-30.38
896.617	-9.9
896.788	31.06
896.958	0.34
897.129	-18.09
897.299	-83.63
897.47	-9.9
897.64	63.83
897.81	-26.28
897.981	43.35
898.151	12.63
898.322	-38.57
898.492	-28.33
898.662	-11.95
898.832	2.39
899.003	47.44
899.173	-34.47
899.343	26.96
899.513	-42.67
