Data from USB4F104151__61__13-53-40-595.txt Node

Date: Thu Mar 13 13:53:40 EDT 2025
User: louis
Spectrometer: USB4F10415
Trigger mode: 4
Integration Time (sec): 1.000000E-2
Scans to average: 1
Electric dark correction enabled: true
Nonlinearity correction enabled: false
Boxcar width: 0
XAxis mode: Wavelengths
Number of Pixels in Spectrum: 3648
>>>>>Begin Spectral Data<<<<<
178.204	-93.35
178.424	-93.35
178.644	-93.35
178.864	-50.35
179.084	52.05
179.304	43.86
179.524	4.95
179.744	25.43
179.964	-48.3
180.184	-15.53
180.404	35.67
180.624	0.85
180.844	27.48
181.064	-5.29
181.283	-46.25
181.503	7
181.723	-29.87
181.943	-95.4
182.163	19.29
182.383	23.38
182.602	11.09
182.822	21.33
183.042	11.09
183.262	-9.39
183.482	66.39
183.701	-17.58
183.921	47.96
184.141	-13.48
184.361	15.19
184.58	72.53
184.8	37.72
185.02	-52.39
185.239	52.05
185.459	19.29
185.679	33.62
185.898	7
186.118	35.67
186.338	-13.48
186.557	-33.96
186.777	21.33
186.997	-23.72
187.216	45.91
187.436	62.29
187.655	39.76
187.875	21.33
188.095	21.33
188.314	-17.58
188.534	33.62
188.753	-31.91
188.973	-66.73
189.192	50
189.412	-17.58
189.631	41.81
189.851	17.24
190.07	31.57
190.29	4.95
190.509	33.62
190.729	68.44
190.948	-11.43
191.168	66.39
191.387	-9.39
191.607	19.29
191.826	9.05
192.045	-21.67
192.265	70.48
192.484	41.81
192.704	103.25
192.923	37.72
193.142	21.33
193.362	95.06
193.581	27.48
193.8	-13.48
194.02	66.39
194.239	35.67
194.458	60.24
194.678	-23.72
194.897	39.76
195.116	7
195.335	52.05
195.555	-15.53
195.774	4.95
195.993	50
196.212	27.48
196.432	52.05
196.651	25.43
196.87	-15.53
197.089	117.59
197.308	21.33
197.528	35.67
197.747	-33.96
197.966	-11.43
198.185	41.81
198.404	-46.25
198.623	-9.39
198.842	-9.39
199.062	43.86
199.281	41.81
199.5	17.24
199.719	41.81
199.938	-1.19
200.157	39.76
200.376	-56.49
200.595	0.85
200.814	35.67
201.033	35.67
201.252	-1.19
201.471	-15.53
201.69	-5.29
201.909	47.96
202.128	-15.53
202.347	-7.34
202.566	13.14
202.785	52.05
203.004	-15.53
203.223	31.57
203.442	-3.24
203.661	17.24
203.879	19.29
204.098	-5.29
204.317	-17.58
204.536	43.86
204.755	11.09
204.974	9.05
205.193	7
205.411	58.2
205.63	0.85
205.849	117.59
206.068	-21.67
206.287	-23.72
206.505	27.48
206.724	4.95
206.943	-36.01
207.162	56.15
207.381	0.85
207.599	25.43
207.818	4.95
208.037	-81.07
208.255	-5.29
208.474	17.24
208.693	60.24
208.911	-9.39
209.13	23.38
209.349	-1.19
209.567	62.29
209.786	76.63
210.005	4.95
210.223	-66.73
210.442	39.76
210.661	45.91
210.879	7
211.098	-29.87
211.316	-23.72
211.535	-38.06
211.753	-23.72
211.972	41.81
212.191	7
212.409	-9.39
212.628	-3.24
212.846	-5.29
213.065	93.01
213.283	27.48
213.502	50
213.72	50
213.938	9.05
214.157	58.2
214.375	-42.15
214.594	-46.25
214.812	13.14
215.031	27.48
215.249	43.86
215.467	-17.58
215.686	33.62
215.904	90.96
216.122	0.85
216.341	29.52
216.559	37.72
216.778	45.91
216.996	23.38
217.214	9.05
217.432	7
217.651	68.44
217.869	17.24
218.087	70.48
218.306	-31.91
218.524	15.19
218.742	23.38
218.96	-62.63
219.179	78.68
219.397	7
219.615	109.4
219.833	-13.48
220.051	31.57
220.27	62.29
220.488	-23.72
220.706	4.95
220.924	31.57
221.142	0.85
221.36	17.24
221.578	50
221.796	-29.87
222.015	31.57
222.233	-11.43
222.451	113.49
222.669	72.53
222.887	-3.24
223.105	-3.24
223.323	2.9
223.541	31.57
223.759	2.9
223.977	-9.39
224.195	31.57
224.413	19.29
224.631	41.81
224.849	13.14
225.067	56.15
225.285	99.16
225.503	-17.58
225.721	21.33
225.939	62.29
226.157	72.53
226.375	19.29
226.592	9.05
226.81	-1.19
227.028	68.44
227.246	41.81
227.464	60.24
227.682	41.81
227.9	52.05
228.117	39.76
228.335	2.9
228.553	39.76
228.771	17.24
228.989	15.19
229.206	56.15
229.424	39.76
229.642	-29.87
229.86	15.19
230.077	25.43
230.295	15.19
230.513	23.38
230.731	58.2
230.948	39.76
231.166	27.48
231.384	17.24
231.601	-36.01
231.819	31.57
232.037	76.63
232.254	29.52
232.472	21.33
232.689	21.33
232.907	25.43
233.125	62.29
233.342	54.1
233.56	-79.02
233.777	33.62
233.995	41.81
234.213	19.29
234.43	43.86
234.648	64.34
234.865	27.48
235.083	64.34
235.3	-5.29
235.518	0.85
235.735	17.24
235.953	0.85
236.17	52.05
236.388	35.67
236.605	37.72
236.822	68.44
237.04	-19.63
237.257	-13.48
237.475	-3.24
237.692	37.72
237.909	54.1
238.127	45.91
238.344	15.19
238.562	25.43
238.779	58.2
238.996	-11.43
239.214	60.24
239.431	50
239.648	66.39
239.865	23.38
240.083	97.11
240.3	-7.34
240.517	60.24
240.735	0.85
240.952	9.05
241.169	-13.48
241.386	-101.55
241.603	52.05
241.821	27.48
242.038	33.62
242.255	35.67
242.472	35.67
242.689	-36.01
242.907	47.96
243.124	-89.26
243.341	-31.91
243.558	-25.77
243.775	62.29
243.992	-5.29
244.209	-11.43
244.426	-27.82
244.643	0.85
244.86	9.05
245.078	33.62
245.295	-1.19
245.512	80.72
245.729	11.09
245.946	76.63
246.163	43.86
246.38	21.33
246.597	-50.35
246.814	54.1
247.031	27.48
247.248	9.05
247.464	31.57
247.681	52.05
247.898	45.91
248.115	33.62
248.332	-42.15
248.549	56.15
248.766	72.53
248.983	39.76
249.2	2.9
249.417	17.24
249.633	15.19
249.85	43.86
250.067	39.76
250.284	27.48
250.501	43.86
250.717	29.52
250.934	-23.72
251.151	0.85
251.368	11.09
251.585	64.34
251.801	54.1
252.018	-31.91
252.235	54.1
252.451	-3.24
252.668	60.24
252.885	11.09
253.102	-21.67
253.318	70.48
253.535	54.1
253.752	-25.77
253.968	21.33
254.185	70.48
254.401	72.53
254.618	-25.77
254.835	64.34
255.051	7
255.268	23.38
255.484	43.86
255.701	39.76
255.917	-9.39
256.134	54.1
256.351	111.44
256.567	-15.53
256.784	17.24
257	-7.34
257.217	78.68
257.433	74.58
257.65	47.96
257.866	72.53
258.082	4.95
258.299	-58.54
258.515	17.24
258.732	-11.43
258.948	27.48
259.165	4.95
259.381	-38.06
259.597	93.01
259.814	-7.34
260.03	-5.29
260.246	70.48
260.463	0.85
260.679	27.48
260.895	15.19
261.112	13.14
261.328	11.09
261.544	47.96
261.761	105.3
261.977	-27.82
262.193	37.72
262.409	43.86
262.626	31.57
262.842	43.86
263.058	27.48
263.274	45.91
263.49	-27.82
263.707	13.14
263.923	33.62
264.139	15.19
264.355	-3.24
264.571	11.09
264.787	-13.48
265.004	109.4
265.22	43.86
265.436	7
265.652	43.86
265.868	66.39
266.084	-3.24
266.3	17.24
266.516	29.52
266.732	52.05
266.948	37.72
267.164	76.63
267.38	93.01
267.596	82.77
267.812	11.09
268.028	-19.63
268.244	-11.43
268.46	9.05
268.676	56.15
268.892	-50.35
269.108	35.67
269.324	41.81
269.54	54.1
269.756	50
269.972	35.67
270.188	82.77
270.403	-29.87
270.619	70.48
270.835	35.67
271.051	-11.43
271.267	-9.39
271.483	35.67
271.698	41.81
271.914	62.29
272.13	66.39
272.346	-42.15
272.562	9.05
272.777	52.05
272.993	9.05
273.209	9.05
273.425	-52.39
273.64	25.43
273.856	0.85
274.072	0.85
274.287	-48.3
274.503	2.9
274.719	50
274.934	37.72
275.15	58.2
275.366	-44.2
275.581	11.09
275.797	39.76
276.012	39.76
276.228	54.1
276.444	52.05
276.659	4.95
276.875	2.9
277.09	25.43
277.306	-7.34
277.521	-5.29
277.737	-40.11
277.952	-15.53
278.168	23.38
278.383	23.38
278.599	-64.68
278.814	99.16
279.03	-13.48
279.245	60.24
279.461	11.09
279.676	23.38
279.892	64.34
280.107	88.92
280.322	15.19
280.538	82.77
280.753	-1.19
280.969	29.52
281.184	7
281.399	58.2
281.615	-33.96
281.83	47.96
282.045	56.15
282.26	52.05
282.476	-58.54
282.691	29.52
282.906	33.62
283.122	-11.43
283.337	56.15
283.552	2.9
283.767	-1.19
283.983	45.91
284.198	13.14
284.413	27.48
284.628	88.92
284.843	23.38
285.058	47.96
285.274	-13.48
285.489	-1.19
285.704	47.96
285.919	33.62
286.134	2.9
286.349	31.57
286.564	-5.29
286.779	-11.43
286.995	-13.48
287.21	21.33
287.425	43.86
287.64	11.09
287.855	-27.82
288.07	25.43
288.285	23.38
288.5	13.14
288.715	33.62
288.93	-29.87
289.145	-29.87
289.36	-3.24
289.575	70.48
289.79	31.57
290.004	52.05
290.219	39.76
290.434	4.95
290.649	13.14
290.864	4.95
291.079	2.9
291.294	4.95
291.509	58.2
291.724	19.29
291.938	21.33
292.153	0.85
292.368	0.85
292.583	41.81
292.798	-48.3
293.012	-21.67
293.227	-27.82
293.442	11.09
293.657	31.57
293.871	41.81
294.086	74.58
294.301	17.24
294.516	58.2
294.73	50
294.945	-54.44
295.16	15.19
295.374	82.77
295.589	60.24
295.804	2.9
296.018	82.77
296.233	50
296.447	31.57
296.662	-19.63
296.877	31.57
297.091	2.9
297.306	0.85
297.52	29.52
297.735	86.87
297.949	78.68
298.164	88.92
298.378	-1.19
298.593	78.68
298.807	35.67
299.022	11.09
299.236	70.48
299.451	68.44
299.665	-21.67
299.88	58.2
300.094	43.86
300.309	13.14
300.523	39.76
300.737	39.76
300.952	45.91
301.166	80.72
301.381	7
301.595	60.24
301.809	-21.67
302.024	4.95
302.238	0.85
302.452	64.34
302.667	37.72
302.881	37.72
303.095	-5.29
303.309	52.05
303.524	-56.49
303.738	11.09
303.952	21.33
304.166	2.9
304.381	29.52
304.595	111.44
304.809	95.06
305.023	50
305.237	-38.06
305.452	-27.82
305.666	-38.06
305.88	-9.39
306.094	11.09
306.308	0.85
306.522	86.87
306.736	11.09
306.95	84.82
307.164	-23.72
307.379	0.85
307.593	37.72
307.807	62.29
308.021	64.34
308.235	11.09
308.449	62.29
308.663	11.09
308.877	11.09
309.091	13.14
309.305	82.77
309.519	74.58
309.733	41.81
309.947	58.2
310.161	41.81
310.374	27.48
310.588	23.38
310.802	-50.35
311.016	54.1
311.23	-50.35
311.444	23.38
311.658	41.81
311.872	105.3
312.085	62.29
312.299	-1.19
312.513	60.24
312.727	47.96
312.941	13.14
313.154	27.48
313.368	2.9
313.582	58.2
313.796	-21.67
314.009	43.86
314.223	80.72
314.437	90.96
314.651	33.62
314.864	58.2
315.078	27.48
315.292	19.29
315.505	15.19
315.719	39.76
315.933	0.85
316.146	27.48
316.36	72.53
316.573	54.1
316.787	-19.63
317.001	56.15
317.214	-21.67
317.428	-64.68
317.641	-40.11
317.855	27.48
318.068	-3.24
318.282	-119.98
318.495	23.38
318.709	25.43
318.922	-17.58
319.136	88.92
319.349	17.24
319.563	31.57
319.776	-15.53
319.99	-31.91
320.203	9.05
320.417	58.2
320.63	105.3
320.843	62.29
321.057	37.72
321.27	2.9
321.483	109.4
321.697	-23.72
321.91	35.67
322.124	-19.63
322.337	7
322.55	37.72
322.763	107.35
322.977	50
323.19	158.55
323.403	19.29
323.617	90.96
323.83	78.68
324.043	33.62
324.256	56.15
324.469	7
324.683	-5.29
324.896	54.1
325.109	43.86
325.322	-31.91
325.535	58.2
325.748	11.09
325.962	50
326.175	-1.19
326.388	27.48
326.601	37.72
326.814	45.91
327.027	29.52
327.24	21.33
327.453	39.76
327.666	37.72
327.879	88.92
328.092	56.15
328.305	0.85
328.518	52.05
328.731	90.96
328.944	70.48
329.157	33.62
329.37	-15.53
329.583	-21.67
329.796	41.81
330.009	47.96
330.222	4.95
330.435	17.24
330.648	72.53
330.861	52.05
331.073	23.38
331.286	11.09
331.499	60.24
331.712	66.39
331.925	-9.39
332.138	-9.39
332.35	4.95
332.563	117.59
332.776	27.48
332.989	133.97
333.202	60.24
333.414	13.14
333.627	19.29
333.84	-11.43
334.053	27.48
334.265	45.91
334.478	60.24
334.691	13.14
334.903	17.24
335.116	80.72
335.329	50
335.541	-7.34
335.754	60.24
335.966	-62.63
336.179	56.15
336.392	-68.78
336.604	23.38
336.817	-7.34
337.029	47.96
337.242	-23.72
337.454	4.95
337.667	50
337.88	88.92
338.092	11.09
338.305	72.53
338.517	7
338.729	88.92
338.942	50
339.154	45.91
339.367	47.96
339.579	4.95
339.792	47.96
340.004	56.15
340.217	-38.06
340.429	37.72
340.641	-19.63
340.854	23.38
341.066	11.09
341.278	72.53
341.491	31.57
341.703	29.52
341.915	19.29
342.128	2.9
342.34	4.95
342.552	29.52
342.764	-1.19
342.977	21.33
343.189	52.05
343.401	7
343.613	-25.77
343.826	-25.77
344.038	2.9
344.25	19.29
344.462	21.33
344.674	-13.48
344.886	13.14
345.099	115.54
345.311	7
345.523	4.95
345.735	-48.3
345.947	41.81
346.159	-38.06
346.371	25.43
346.583	43.86
346.795	82.77
347.007	39.76
347.219	56.15
347.431	2.9
347.643	66.39
347.855	23.38
348.067	64.34
348.279	-3.24
348.491	43.86
348.703	62.29
348.915	-9.39
349.127	68.44
349.339	-27.82
349.551	88.92
349.763	80.72
349.975	-54.44
350.187	45.91
350.399	39.76
350.61	35.67
350.822	-21.67
351.034	35.67
351.246	76.63
351.458	-58.54
351.669	33.62
351.881	47.96
352.093	33.62
352.305	23.38
352.517	45.91
352.728	25.43
352.94	9.05
353.152	58.2
353.363	-9.39
353.575	-11.43
353.787	-44.2
353.999	86.87
354.21	58.2
354.422	78.68
354.633	-13.48
354.845	-38.06
355.057	45.91
355.268	-3.24
355.48	52.05
355.692	-15.53
355.903	11.09
356.115	0.85
356.326	-25.77
356.538	103.25
356.749	47.96
356.961	-1.19
357.172	-60.59
357.384	113.49
357.595	7
357.807	29.52
358.018	-44.2
358.23	52.05
358.441	74.58
358.653	-23.72
358.864	66.39
359.075	25.43
359.287	52.05
359.498	-5.29
359.709	21.33
359.921	23.38
360.132	76.63
360.344	17.24
360.555	-13.48
360.766	78.68
360.977	33.62
361.189	64.34
361.4	19.29
361.611	39.76
361.823	74.58
362.034	52.05
362.245	31.57
362.456	-36.01
362.667	68.44
362.879	-23.72
363.09	23.38
363.301	-13.48
363.512	70.48
363.723	66.39
363.935	11.09
364.146	-5.29
364.357	62.29
364.568	-13.48
364.779	-25.77
364.99	74.58
365.201	101.2
365.412	27.48
365.623	17.24
365.834	-3.24
366.045	-7.34
366.256	31.57
366.467	99.16
366.678	35.67
366.889	-62.63
367.1	86.87
367.311	45.91
367.522	39.76
367.733	7
367.944	4.95
368.155	-3.24
368.366	52.05
368.577	-1.19
368.788	33.62
368.999	43.86
369.209	9.05
369.42	31.57
369.631	86.87
369.842	31.57
370.053	-19.63
370.264	0.85
370.474	33.62
370.685	2.9
370.896	54.1
371.107	-3.24
371.317	52.05
371.528	33.62
371.739	4.95
371.95	15.19
372.16	9.05
372.371	-9.39
372.582	13.14
372.792	-50.35
373.003	66.39
373.214	2.9
373.424	19.29
373.635	-15.53
373.846	39.76
374.056	17.24
374.267	64.34
374.477	35.67
374.688	45.91
374.898	-7.34
375.109	-11.43
375.319	2.9
375.53	9.05
375.74	17.24
375.951	52.05
376.161	88.92
376.372	11.09
376.582	9.05
376.793	41.81
377.003	86.87
377.214	-5.29
377.424	-44.2
377.635	68.44
377.845	37.72
378.055	17.24
378.266	23.38
378.476	105.3
378.686	68.44
378.897	70.48
379.107	23.38
379.317	119.64
379.528	52.05
379.738	11.09
379.948	-23.72
380.158	90.96
380.369	62.29
380.579	19.29
380.789	60.24
380.999	93.01
381.21	54.1
381.42	17.24
381.63	-9.39
381.84	15.19
382.05	13.14
382.261	35.67
382.471	13.14
382.681	39.76
382.891	-5.29
383.101	86.87
383.311	41.81
383.521	97.11
383.731	56.15
383.941	86.87
384.151	-29.87
384.361	37.72
384.571	23.38
384.781	9.05
384.991	-3.24
385.201	9.05
385.411	27.48
385.621	37.72
385.831	-1.19
386.041	66.39
386.251	47.96
386.461	84.82
386.671	50
386.881	33.62
387.091	64.34
387.301	33.62
387.511	56.15
387.72	-7.34
387.93	74.58
388.14	56.15
388.35	41.81
388.56	125.78
388.769	9.05
388.979	9.05
389.189	33.62
389.399	105.3
389.609	39.76
389.818	43.86
390.028	15.19
390.238	74.58
390.447	-46.25
390.657	72.53
390.867	52.05
391.076	33.62
391.286	68.44
391.496	103.25
391.705	35.67
391.915	43.86
392.125	47.96
392.334	-11.43
392.544	90.96
392.753	4.95
392.963	52.05
393.172	113.49
393.382	-27.82
393.591	154.45
393.801	50
394.01	109.4
394.22	33.62
394.429	23.38
394.639	52.05
394.848	33.62
395.058	88.92
395.267	39.76
395.477	-27.82
395.686	47.96
395.895	133.97
396.105	113.49
396.314	21.33
396.524	54.1
396.733	64.34
396.942	35.67
397.152	88.92
397.361	109.4
397.57	88.92
397.78	15.19
397.989	68.44
398.198	33.62
398.407	66.39
398.617	62.29
398.826	84.82
399.035	31.57
399.244	82.77
399.453	80.72
399.663	33.62
399.872	68.44
400.081	76.63
400.29	72.53
400.499	-5.29
400.708	68.44
400.917	125.78
401.127	90.96
401.336	72.53
401.545	74.58
401.754	86.87
401.963	101.2
402.172	97.11
402.381	2.9
402.59	-1.19
402.799	76.63
403.008	129.88
403.217	11.09
403.426	21.33
403.635	76.63
403.844	54.1
404.053	4.95
404.262	56.15
404.471	121.68
404.68	37.72
404.888	35.67
405.097	80.72
405.306	97.11
405.515	86.87
405.724	103.25
405.933	140.12
406.142	131.92
406.35	31.57
406.559	43.86
406.768	72.53
406.977	117.59
407.185	103.25
407.394	11.09
407.603	127.83
407.812	66.39
408.02	123.73
408.229	146.26
408.438	64.34
408.646	101.2
408.855	142.16
409.064	189.27
409.272	129.88
409.481	60.24
409.69	164.69
409.898	203.6
410.107	133.97
410.315	121.68
410.524	205.65
410.733	166.74
410.941	181.07
411.15	170.83
411.358	211.79
411.567	232.27
411.775	203.6
411.984	205.65
412.192	162.64
412.401	219.99
412.609	258.9
412.818	256.85
413.026	283.47
413.234	262.99
413.443	242.51
413.651	277.33
413.86	281.43
414.068	312.14
414.276	330.58
414.485	306
414.693	303.95
414.901	363.34
415.11	379.73
415.318	373.58
415.526	383.82
415.734	457.55
415.943	475.98
416.151	435.02
416.359	428.88
416.567	473.93
416.776	439.12
416.984	490.32
417.192	557.9
417.4	502.61
417.608	498.51
417.817	586.57
418.025	600.91
418.233	594.76
418.441	607.05
418.649	672.59
418.857	691.02
419.065	746.31
419.273	629.58
419.481	682.83
419.689	774.99
419.897	756.55
420.105	713.55
420.313	842.57
420.521	863.05
420.729	891.72
420.937	891.72
421.145	949.06
421.353	1008.45
421.561	1071.94
421.769	1010.5
421.977	1084.23
422.185	1125.19
422.393	1162.05
422.601	1295.17
422.809	1295.17
423.017	1182.53
423.224	1286.98
423.432	1307.46
423.64	1360.7
423.848	1389.38
424.056	1465.15
424.263	1510.21
424.471	1487.68
424.679	1471.29
424.887	1540.93
425.094	1692.48
425.302	1639.23
425.51	1643.32
425.718	1786.68
425.925	1770.3
426.133	1899.32
426.341	1973.05
426.548	2065.21
426.756	2083.64
426.964	1989.43
427.171	2229.04
427.379	2304.82
427.586	2296.63
427.794	2356.02
428.001	2482.99
428.209	2646.83
428.417	2503.47
428.624	2667.31
428.832	2777.9
429.039	2603.82
429.247	2724.65
429.454	2960.17
429.662	3085.09
429.869	2884.39
430.076	3111.72
430.284	3148.58
430.491	3304.23
430.699	3410.72
430.906	3431.2
431.114	3453.73
431.321	3613.47
431.528	3695.39
431.736	3779.36
431.943	3869.47
432.15	4057.88
432.358	3955.48
432.565	4162.33
432.772	4154.13
432.979	4254.48
433.187	4430.61
433.394	4328.21
433.601	4774.67
433.808	4803.34
434.016	4727.57
434.223	4952.84
434.43	5186.31
434.637	5116.68
434.844	5507.84
435.052	5493.51
435.259	5417.73
435.466	5669.63
435.673	5446.4
435.88	5925.63
436.087	6230.77
436.294	6056.7
436.501	6087.42
436.708	6118.14
436.915	6509.3
437.122	6595.31
437.329	6796.01
437.537	7031.53
437.743	6896.36
437.95	6849.26
438.157	7359.21
438.364	7559.91
438.571	7527.14
438.778	7625.44
438.985	8149.72
439.192	7910.11
439.399	8325.85
439.606	8096.47
439.813	8405.72
440.02	8884.94
440.227	8962.76
440.433	8727.25
440.64	9011.92
440.847	8813.26
441.054	9147.08
441.261	9622.21
441.467	9611.97
441.674	9726.66
441.881	10136.25
442.088	10173.11
442.294	10273.46
442.501	10416.82
442.708	10556.08
442.914	10771.12
443.121	11432.61
443.328	10912.43
443.534	11860.64
443.741	11530.92
443.948	11305.64
444.154	12266.14
444.361	12282.52
444.568	12122.78
444.774	12247.71
444.981	12323.48
445.187	12776.08
445.394	13267.59
445.6	13116.05
445.807	14510.71
446.013	13724.29
446.22	13933.18
446.426	14436.99
446.633	14711.41
446.839	15123.05
447.046	14615.16
447.252	15260.27
447.459	15344.24
447.665	15090.29
447.871	16042.59
448.078	16695.89
448.284	15975.01
448.491	15952.48
448.697	16601.69
448.903	16917.08
449.11	17033.81
449.316	17121.87
449.522	16992.85
449.728	17703.5
449.935	17834.57
450.141	17889.86
450.347	18250.3
450.553	17431.12
450.76	17834.57
450.966	18416.19
451.172	18186.82
451.378	18688.57
451.584	18182.72
451.791	18698.81
451.997	18485.82
452.203	18717.24
452.409	19075.63
452.615	18694.71
452.821	17830.47
453.027	17588.81
453.233	18719.29
453.44	17916.48
453.646	18307.65
453.852	18045.51
454.058	18498.11
454.264	17896
454.47	18379.32
454.676	17828.42
454.882	18424.38
455.088	16745.05
455.294	16884.31
455.5	17226.32
455.705	17412.68
455.911	16501.34
456.117	16419.42
456.323	16067.17
456.529	15307.37
456.735	15878.76
456.941	15483.5
457.147	15002.22
457.352	14668.41
457.558	14647.93
457.764	14641.78
457.97	14453.37
458.176	13781.64
458.381	13914.75
458.587	13193.87
458.793	13228.68
458.999	12565.14
459.204	13609.61
459.41	13179.53
459.616	12047.01
459.821	12274.33
460.027	12210.84
460.233	11805.35
460.438	11256.49
460.644	11322.02
460.85	10879.66
461.055	10795.7
461.261	10787.5
461.466	10093.24
461.672	9618.11
461.878	10148.54
462.083	9714.37
462.289	9499.33
462.494	9331.4
462.7	9114.31
462.905	8743.63
463.111	9050.83
463.316	9263.82
463.522	8952.52
463.727	9063.12
463.932	8923.85
464.138	8714.96
464.343	8878.8
464.549	8747.73
464.754	8909.52
464.959	8739.54
465.165	8710.86
465.37	8471.25
465.575	8291.03
465.781	8587.99
465.986	8501.97
466.191	8395.48
466.397	8129.24
466.602	7666.4
466.807	7965.4
467.012	7992.03
467.218	8049.37
467.423	8098.52
467.628	7846.62
467.833	8452.82
468.038	8000.22
468.244	7887.58
468.449	8022.75
468.654	7942.88
468.859	7795.42
469.064	7613.15
469.269	7416.55
469.474	7420.64
469.679	7645.92
469.885	7344.87
470.09	7488.23
470.295	7586.53
470.5	7273.19
470.705	7086.83
470.91	7041.77
471.115	7033.58
471.32	7113.45
471.525	7238.37
471.73	6851.31
471.935	7039.72
472.139	6707.95
472.344	6888.17
472.549	6607.6
472.754	6617.84
472.959	6494.96
473.164	6361.84
473.369	6386.42
473.574	6517.49
473.778	6380.28
473.983	6251.25
474.188	6267.64
474.393	6028.03
474.598	5989.11
474.802	6195.96
475.007	5929.72
475.212	5978.87
475.417	5772.03
475.621	5712.64
475.826	5643.01
476.031	5643.01
476.235	5497.6
476.44	5573.38
476.645	5526.27
476.849	5571.33
477.054	5669.63
477.259	5374.72
477.463	5344
477.668	5249.8
477.872	5212.93
478.077	5272.32
478.282	5219.08
478.486	5051.14
478.691	5077.77
478.895	5114.63
479.1	4952.84
479.304	5120.78
479.509	4969.23
479.713	5010.18
479.918	4778.76
480.122	4872.97
480.326	4707.09
480.531	4799.24
480.735	4766.48
480.94	4805.39
481.144	5055.24
481.348	4725.52
481.553	4616.97
481.757	4692.75
481.961	4829.96
482.166	4778.76
482.37	4592.4
482.574	4641.55
482.778	4680.46
482.983	4836.11
483.187	4539.15
483.391	4813.58
483.595	4569.87
483.8	4625.17
484.004	4860.68
484.208	4731.66
484.412	4637.45
484.616	4573.97
484.821	4653.84
485.025	4594.45
485.229	4573.97
485.433	4616.97
485.637	4639.5
485.841	4592.4
486.045	4596.5
486.249	4653.84
486.453	4608.78
486.657	4573.97
486.861	4746
487.065	4594.45
487.269	4637.45
487.473	4623.12
487.677	4735.76
487.881	4809.48
488.085	4735.76
488.289	4676.37
488.493	4721.42
488.697	4731.66
488.901	4813.58
489.105	4795.15
489.309	4776.72
489.512	4803.34
489.716	4702.99
489.92	4748.04
490.124	4762.38
490.328	4868.88
490.531	4750.09
490.735	4868.88
490.939	4799.24
491.143	4700.94
491.346	4875.02
491.55	4825.87
491.754	4879.11
491.958	5008.14
492.161	4907.79
492.365	4983.56
492.569	4958.99
492.772	5006.09
492.976	5059.34
493.18	5171.97
493.383	5090.06
493.587	5071.62
493.79	5133.06
493.994	5155.59
494.197	5272.32
494.401	5266.18
494.605	5174.02
494.808	5243.65
495.012	5243.65
495.215	5270.28
495.419	5335.81
495.622	5430.02
495.825	5610.24
496.029	5483.27
496.232	5536.51
496.436	5501.7
496.639	5776.13
496.843	5665.53
497.046	5815.04
497.249	6005.5
497.453	6025.98
497.656	5966.59
497.859	5995.26
498.063	6290.17
498.266	6114.04
498.469	6071.03
498.673	6134.52
498.876	6195.96
499.079	6404.85
499.282	6456.05
499.485	6494.96
499.689	6699.76
499.892	6656.75
500.095	6753.01
500.298	7070.44
500.501	6822.64
500.705	7009
500.908	7156.46
501.111	7111.4
501.314	7170.79
501.517	7383.78
501.72	7504.61
501.923	7426.79
502.126	7602.91
502.329	7752.42
502.532	7897.82
502.735	7856.86
502.938	8127.19
503.141	8129.24
503.344	8258.26
503.547	8131.29
503.75	8288.98
503.953	8395.48
504.156	8418
504.359	8456.92
504.562	8602.32
504.765	8751.82
504.968	8923.85
505.17	8991.44
505.373	9120.46
505.576	9243.34
505.779	9372.36
505.982	9302.73
506.185	9671.36
506.387	9587.4
506.59	9652.93
506.793	9976.51
506.996	9945.79
507.198	10185.4
507.401	10023.61
507.604	10328.76
507.807	10386.1
508.009	10556.08
508.212	10767.03
508.415	10855.09
508.617	10910.38
508.82	10951.34
509.022	10982.06
509.225	11459.24
509.428	11520.68
509.63	11479.72
509.833	11678.37
510.035	11977.37
510.238	11883.17
510.44	11938.46
510.643	12255.9
510.845	12401.3
511.048	12268.19
511.25	12706.45
511.453	12688.02
511.655	13066.89
511.858	13054.61
512.06	13030.03
512.262	13478.54
512.465	13369.99
512.667	13748.87
512.87	13742.72
513.072	13699.72
513.274	14246.52
513.477	14195.32
513.679	14180.99
513.881	14379.64
514.084	14586.49
514.286	14918.26
514.488	14819.96
514.69	15202.93
514.893	15407.72
515.095	15553.13
515.297	15788.64
515.499	15633
515.701	15968.87
515.904	16296.54
516.106	16304.73
516.308	16501.34
516.51	16788.05
516.712	16689.75
516.914	17222.22
517.116	17162.83
517.318	17265.23
517.52	17500.75
517.722	17345.1
517.925	17762.89
518.127	17924.68
518.329	18047.55
518.531	18131.52
518.733	18770.49
518.935	18704.95
519.136	18725.43
519.338	18870.84
519.54	19030.58
519.742	19497.52
519.944	19479.08
520.146	19687.98
520.348	19857.96
520.55	19958.31
520.752	20324.9
520.954	20593.18
521.155	20392.48
521.357	20800.02
521.559	21056.02
521.761	21490.19
521.963	21404.17
522.164	21352.98
522.366	21539.34
522.568	21850.63
522.77	21803.53
522.971	22399.49
523.173	21895.69
523.375	22157.83
523.576	22200.83
523.778	22358.53
523.98	23044.6
524.181	22893.05
524.383	23253.49
524.584	23333.36
524.786	23183.86
524.988	23439.86
525.189	23697.9
525.391	23568.88
525.592	23876.07
525.794	23892.46
525.995	24029.67
526.197	23921.13
526.398	24388.07
526.6	24324.58
526.801	24826.33
527.003	24562.14
527.204	24687.07
527.406	24846.81
527.607	24914.39
527.808	24666.59
528.01	24818.14
528.211	25039.32
528.412	25457.1
528.614	25477.58
528.815	25383.38
529.016	25553.36
529.218	25334.23
529.419	25782.73
529.62	25598.41
529.822	25395.67
530.023	25840.08
530.224	25815.5
530.425	25713.1
530.626	25878.99
530.828	25663.95
531.029	26175.94
531.23	26094.02
531.431	25823.69
531.632	26249.67
531.833	26190.28
532.035	26264
532.236	26319.3
532.437	26450.37
532.638	25991.62
532.839	26458.56
533.04	26599.87
533.241	26331.59
533.442	26692.03
533.643	26520
533.844	26485.19
534.045	26761.66
534.246	26282.44
534.447	26685.89
534.648	26481.09
534.849	26444.23
535.05	26343.88
535.251	26393.03
535.451	26536.38
535.652	26538.43
535.853	26544.58
536.054	26644.93
536.255	26667.45
536.456	26423.75
536.657	27021.75
536.857	26667.45
537.058	26538.43
537.259	26839.48
537.46	26757.57
537.66	26309.06
537.861	27017.66
538.062	26816.96
538.263	26737.09
538.463	26864.06
538.664	26499.52
538.865	26487.23
539.065	26378.69
539.266	26765.76
539.466	26960.31
539.667	26481.09
539.868	26859.96
540.068	26853.82
540.269	26466.75
540.469	26868.16
540.67	26986.94
540.87	26669.5
541.071	26640.83
541.271	26814.91
541.472	26724.8
541.672	26659.26
541.873	26886.59
542.073	26345.92
542.274	26997.18
542.474	26491.33
542.675	26421.7
542.875	26933.69
543.075	26812.86
543.276	26235.33
543.476	26718.65
543.676	26642.88
543.877	26638.78
544.077	26626.5
544.277	26747.33
544.478	26403.27
544.678	26472.9
544.878	26866.11
545.078	26909.11
545.279	26487.23
545.479	26698.17
545.679	26667.45
545.879	26730.94
546.079	26679.74
546.28	26628.54
546.48	26290.63
546.68	26745.28
546.88	26673.6
547.08	26767.8
547.28	26735.04
547.48	26352.07
547.68	26862.01
547.88	26350.02
548.081	26829.24
548.281	26706.37
548.481	26382.79
548.681	26864.06
548.881	26517.95
549.081	26786.24
549.28	26372.55
549.48	26542.53
549.68	26429.89
549.88	26833.34
550.08	26481.09
550.28	26628.54
550.48	26573.25
550.68	26606.02
550.88	26421.7
551.08	26433.99
551.279	26601.92
551.479	26173.89
551.679	26599.87
551.879	26669.5
552.079	26753.47
552.278	26341.83
552.478	26184.13
552.678	26415.55
552.878	26677.69
553.077	26268.1
553.277	26212.81
553.477	26722.75
553.676	26280.39
553.876	26726.85
554.076	26368.45
554.275	26425.79
554.475	26200.52
554.674	26163.65
554.874	26479.04
555.074	26276.29
555.273	26235.33
555.473	26190.28
555.672	26091.98
555.872	26046.92
556.071	26337.73
556.271	26241.48
556.47	25915.85
556.67	25921.99
556.869	26100.17
557.068	26048.97
557.268	25332.18
557.467	25797.07
557.667	25698.77
557.866	26005.96
558.065	25653.71
558.265	25735.63
558.464	25799.12
558.663	26079.69
558.863	25448.91
559.062	25668.05
559.261	25457.1
559.461	25618.89
559.66	25205.2
559.859	25684.43
560.058	25283.03
560.258	25274.84
560.457	25125.33
560.656	25125.33
560.855	25260.5
561.054	25166.29
561.253	24848.86
561.453	25119.19
561.652	25147.86
561.851	25229.78
562.05	24793.56
562.249	24721.88
562.448	25059.8
562.647	25123.29
562.846	24838.62
563.045	24838.62
563.244	24533.47
563.443	25055.7
563.642	24658.4
563.841	24627.68
564.04	24549.85
564.239	24617.44
564.438	24357.35
564.637	24609.25
564.836	24678.88
565.035	24234.47
565.234	24646.11
565.432	24406.5
565.631	24101.35
565.83	24437.22
566.029	24119.78
566.228	24158.69
566.427	23939.56
566.625	23755.24
566.824	23521.77
567.023	23898.6
567.222	23910.89
567.42	23693.8
567.619	23769.58
567.818	23624.17
568.016	23458.29
568.215	23689.71
568.414	23517.68
568.612	23849.45
568.811	23374.32
569.01	23718.38
569.208	23030.26
569.407	23276.02
569.605	23089.65
569.804	23253.49
570.002	22684.16
570.201	22954.49
570.4	22774.27
570.598	22729.21
570.797	22508.03
570.995	22983.16
571.193	22372.86
571.392	22694.4
571.59	22358.53
571.789	22692.35
571.987	22395.39
572.186	22405.63
572.384	22065.67
572.582	22034.95
572.781	22350.34
572.979	21944.84
573.177	22088.2
573.376	22143.49
573.574	21635.6
573.772	21985.8
573.971	21676.55
574.169	21686.79
574.367	21545.48
574.565	21578.25
574.763	21651.98
574.962	21398.03
575.16	21195.28
575.358	21281.3
575.556	21115.41
575.754	21174.8
575.952	20873.75
576.151	21185.04
576.349	21060.12
576.547	20746.78
576.745	20861.46
576.943	20654.62
577.141	20677.15
577.339	20894.23
577.537	20705.82
577.735	20617.75
577.933	20488.73
578.131	20531.74
578.329	20482.59
578.527	20283.94
578.725	20277.79
578.923	20472.35
579.121	20216.35
579.319	19808.81
579.516	20294.18
579.714	20068.9
579.912	19792.42
580.11	19700.26
580.308	19831.33
580.506	19837.48
580.704	19657.26
580.901	19829.29
581.099	19659.31
581.297	19493.42
581.495	19395.12
581.692	19421.74
581.89	18971.19
582.088	19374.64
582.285	19214.9
582.483	19374.64
582.681	19092.02
582.878	19323.44
583.076	19106.35
583.274	18967.09
583.471	18674.23
583.669	18985.52
583.866	18575.93
584.064	19137.07
584.262	18682.42
584.459	18711.1
584.657	18461.24
584.854	18557.5
585.052	18432.57
585.249	18479.68
585.447	18539.07
585.644	18205.25
585.841	18143.81
586.039	18401.85
586.236	18152
586.434	17928.77
586.631	18117.18
586.828	17826.37
587.026	17949.25
587.223	17908.29
587.42	17920.58
587.618	17875.52
587.815	17592.9
588.012	17652.3
588.21	17785.41
588.407	17664.58
588.604	17517.13
588.801	17437.26
588.999	17304.14
589.196	17205.84
589.393	17351.24
589.59	17298
589.787	17265.23
589.984	17107.54
590.182	16835.16
590.379	17338.96
590.576	17162.83
590.773	17154.64
590.97	16663.13
591.167	16849.49
591.364	16585.3
591.561	16876.12
591.758	16675.41
591.955	16982.61
592.152	16704.09
592.349	16820.82
592.546	16622.17
592.743	16708.18
592.94	16075.36
593.137	16411.23
593.334	16491.1
593.531	16206.43
593.727	16204.38
593.924	16255.58
594.121	16104.03
594.318	16089.7
594.515	15952.48
594.712	16095.84
594.908	16007.78
595.105	15917.67
595.302	15721.06
595.499	15690.34
595.696	15805.03
595.892	15747.69
596.089	15932
596.286	15811.17
596.482	15426.15
596.679	15493.74
596.876	15321.71
597.072	15534.7
597.269	15491.69
597.466	15305.32
597.662	15233.64
597.859	15204.97
598.055	15258.22
598.252	15028.85
598.448	15327.85
598.645	15106.67
598.841	15049.33
599.038	15235.69
599.234	15043.18
599.431	14787.19
599.627	14824.05
599.824	14662.26
600.02	14803.57
600.217	14721.65
600.413	14686.84
600.609	14750.32
600.806	14639.73
601.002	14570.1
601.198	14428.79
601.395	14549.62
601.591	14160.51
601.787	14393.98
601.984	14518.9
602.18	14219.9
602.376	14256.76
602.572	13859.46
602.769	14217.85
602.965	13929.09
603.161	14099.07
603.357	13826.69
603.553	13826.69
603.75	13875.84
603.946	13673.09
604.142	13765.25
604.338	13458.06
604.534	13900.42
604.73	13458.06
604.926	13607.56
605.122	13685.38
605.318	13462.15
605.514	13347.47
605.71	13255.31
605.906	13181.58
606.102	13320.84
606.298	13460.1
606.494	13464.2
606.69	13138.57
606.886	13249.16
607.082	13056.65
607.278	13279.88
607.474	12913.3
607.67	13120.14
607.866	12917.39
608.062	12886.67
608.257	12923.54
608.453	12876.43
608.649	12806.8
608.845	12677.78
609.041	12888.72
609.236	12911.25
609.432	12511.89
609.628	12653.2
609.824	12673.68
610.019	12608.15
610.215	12448.41
610.411	12405.4
610.606	12362.39
610.802	12384.92
610.998	12493.46
611.193	12241.56
611.389	12214.94
611.584	12225.18
611.78	12098.2
611.976	12276.38
612.171	12432.02
612.367	12161.69
612.562	12233.37
612.758	12094.11
612.953	12036.77
613.149	12247.71
613.344	11936.42
613.539	12075.68
613.735	11874.98
613.93	12251.8
614.126	11899.55
614.321	12116.64
614.517	11911.84
614.712	11659.94
614.907	11752.1
615.103	11567.78
615.298	11799.2
615.493	11854.5
615.688	11518.63
615.884	11518.63
616.079	11702.95
616.274	11573.92
616.47	11248.3
616.665	11506.34
616.86	11643.56
617.055	11582.12
617.25	11246.25
617.445	11524.77
617.641	11205.29
617.836	11410.09
618.031	11344.55
618.226	11289.26
618.421	11172.52
618.616	11088.56
618.811	11123.37
619.006	11240.11
619.201	11000.49
619.396	11092.65
619.591	10738.35
619.786	11018.93
619.981	10801.84
620.176	10871.47
620.371	10666.67
620.566	10660.53
620.761	10711.73
620.956	11059.88
621.151	10422.97
621.346	10724.02
621.541	10248.89
621.735	10429.11
621.93	10187.45
622.125	10457.78
622.32	10257.08
622.515	10128.06
622.709	10285.75
622.904	10220.22
623.099	9888.45
623.294	10209.98
623.488	9898.69
623.683	9865.92
623.878	9630.4
624.072	9876.16
624.267	9917.12
624.462	9616.07
624.656	9714.37
624.851	9792.19
625.046	9472.71
625.24	9513.67
625.435	9546.44
625.629	9528
625.824	9198.28
626.018	9364.17
626.213	9206.47
626.407	9386.69
626.602	9065.16
626.796	9016.01
626.991	9132.75
627.185	8876.75
627.38	8981.2
627.574	8948.43
627.768	8850.13
627.963	8766.16
628.157	8760.02
628.352	8657.62
628.546	8602.32
628.74	8485.59
628.935	8547.03
629.129	8581.84
629.323	8241.88
629.517	8305.37
629.712	8350.42
629.906	8162.01
630.1	8116.95
630.294	8282.84
630.489	8182.49
630.683	8045.27
630.877	8153.82
631.071	8094.43
631.265	8348.37
631.459	7953.12
631.653	7967.45
631.848	7865.05
632.042	7830.24
632.236	8131.29
632.43	7709.41
632.624	7776.99
632.818	7707.36
633.012	7617.25
633.206	7514.85
633.4	7695.07
633.594	7506.66
633.788	7408.36
633.982	7449.32
634.176	7394.02
634.369	7373.54
634.563	7271.14
634.757	7312.1
634.951	7301.86
635.145	7379.68
635.339	7244.52
635.533	6972.14
635.726	7062.25
635.92	6996.71
636.114	7185.13
636.308	7037.67
636.501	6918.89
636.695	7152.36
636.889	6894.32
637.083	6879.98
637.276	6820.59
637.47	6765.29
637.664	6734.57
637.857	6652.66
638.051	6738.67
638.244	6623.98
638.438	6531.83
638.632	6589.17
638.825	6488.82
639.019	6542.07
639.212	6560.5
639.406	6447.86
639.599	6419.19
639.793	6406.9
639.986	6218.49
640.18	6329.08
640.373	6161.14
640.567	6095.61
640.76	6148.86
640.954	6183.67
641.147	6230.77
641.34	5989.11
641.534	6028.03
641.727	5980.92
641.92	6011.64
642.114	5751.55
642.307	5931.77
642.5	5759.74
642.694	5903.1
642.887	5851.9
643.08	5788.41
643.273	5714.69
643.467	5546.75
643.66	5686.01
643.853	5507.84
644.046	5489.41
644.239	5538.56
644.432	5530.37
644.626	5305.09
644.819	5442.31
645.012	5352.2
645.205	5417.73
645.398	5290.76
645.591	5133.06
645.784	5214.98
645.977	5212.93
646.17	5225.22
646.363	5264.13
646.556	5090.06
646.749	5085.96
646.942	5108.49
647.135	4954.89
647.328	5139.21
647.521	4911.88
647.714	4897.55
647.907	4991.75
648.099	4913.93
648.292	4823.82
648.485	4789
648.678	4829.96
648.871	4967.18
649.064	4752.14
649.256	4823.82
649.449	4684.56
649.642	4547.34
649.835	4659.98
650.027	4668.17
650.22	4377.36
650.413	4471.57
650.605	4676.37
650.798	4469.52
650.991	4418.32
651.183	4479.76
651.376	4301.59
651.568	4467.47
651.761	4375.31
651.954	4387.6
652.146	4379.41
652.339	4297.49
652.531	4358.93
652.724	4266.77
652.916	4125.46
653.109	4231.96
653.301	4115.22
653.494	4287.25
653.686	4191
653.879	4201.24
654.071	4172.57
654.263	3994.39
654.456	4088.6
654.648	4025.11
654.84	3951.39
655.033	4008.73
655.225	3916.57
655.417	3877.66
655.61	3998.49
655.802	4045.59
655.994	3844.89
656.186	3910.43
656.379	3861.27
656.571	3973.91
656.763	3781.4
656.955	3871.51
657.148	3713.82
657.34	3810.08
657.532	3685.15
657.724	3609.37
657.916	3609.37
658.108	3613.47
658.3	3646.24
658.492	3527.46
658.684	3492.64
658.876	3412.77
659.068	3506.98
659.26	3380
659.452	3429.15
659.644	3515.17
659.836	3435.3
660.028	3416.87
660.22	3441.44
660.412	3361.57
660.604	3277.6
660.796	3273.51
660.988	3339.04
661.18	3330.85
661.372	3216.16
661.563	3146.53
661.755	3253.03
661.947	3183.4
662.139	3179.3
662.331	3164.97
662.522	3048.23
662.714	3056.42
662.906	3160.87
663.097	3128.1
663.289	3052.33
663.481	3126.05
663.673	3031.85
663.864	2954.02
664.056	2986.79
664.247	3033.9
664.439	2839.34
664.631	2927.4
664.822	2956.07
665.014	2923.3
665.205	2929.45
665.397	2927.4
665.588	2945.83
665.78	2894.63
665.971	2804.52
666.163	2851.63
666.354	2908.97
666.546	2806.57
666.737	2847.53
666.929	2878.25
667.12	2843.43
667.311	2847.53
667.503	2759.47
667.694	2661.16
667.885	2681.64
668.077	2667.31
668.268	2569.01
668.459	2681.64
668.651	2655.02
668.842	2503.47
669.033	2648.88
669.224	2638.64
669.416	2523.95
669.607	2599.73
669.798	2503.47
669.989	2552.62
670.18	2564.91
670.371	2595.63
670.563	2482.99
670.754	2556.72
670.945	2433.84
671.136	2425.65
671.327	2538.29
671.518	2425.65
671.709	2487.09
671.9	2415.41
672.091	2368.31
672.282	2589.49
672.473	2503.47
672.664	2513.71
672.855	2304.82
673.046	2482.99
673.237	2257.71
673.428	2310.96
673.619	2265.91
673.809	2282.29
674	2411.31
674.191	2386.74
674.382	2345.78
674.573	2374.45
674.764	2358.07
674.954	2347.83
675.145	2261.81
675.336	2290.48
675.527	2216.76
675.717	2339.63
675.908	2278.19
676.099	2149.17
676.289	2261.81
676.48	2196.28
676.671	2206.52
676.861	2149.17
677.052	2222.9
677.243	2227
677.433	2263.86
677.624	2233.14
677.814	2177.84
678.005	2204.47
678.195	2237.24
678.386	2229.04
678.576	2218.8
678.767	2120.5
678.957	2224.95
679.148	2093.88
679.338	2130.74
679.529	2110.26
679.719	2243.38
679.909	2196.28
680.1	2186.04
680.29	2186.04
680.481	2106.17
680.671	2169.65
680.861	2071.35
681.052	2112.31
681.242	2005.81
681.432	2042.68
681.622	2120.5
681.813	2081.59
682.003	2091.83
682.193	2059.06
682.383	2116.41
682.573	2122.55
682.764	2126.64
682.954	2108.21
683.144	2050.87
683.334	2085.69
683.524	2147.12
683.714	2036.53
683.904	2108.21
684.094	1950.52
684.284	2009.91
684.474	2014.01
684.664	2065.21
684.854	1973.05
685.044	1973.05
685.234	2042.68
685.424	2081.59
685.614	1958.71
685.804	2018.1
685.994	2030.39
686.184	2063.16
686.374	1901.37
686.564	2054.97
686.753	1993.53
686.943	1983.29
687.133	1966.9
687.323	2020.15
687.513	2071.35
687.702	1964.86
687.892	1895.22
688.082	2001.72
688.272	1989.43
688.461	1944.38
688.651	2022.2
688.841	1932.09
689.03	1917.75
689.22	1846.07
689.41	1874.74
689.599	1884.98
689.789	1907.51
689.979	1809.21
690.168	1936.18
690.358	1971
690.547	1749.82
690.737	1973.05
690.926	1870.65
691.116	1850.17
691.305	1977.14
691.495	1819.45
691.684	1899.32
691.874	1925.94
692.063	1946.42
692.252	1915.7
692.442	1925.94
692.631	1850.17
692.82	1821.5
693.01	1833.79
693.199	1899.32
693.388	1827.64
693.578	1889.08
693.767	1966.9
693.956	1792.83
694.146	1854.27
694.335	1884.98
694.524	1792.83
694.713	1807.16
694.902	1837.88
695.092	1962.81
695.281	1874.74
695.47	1784.63
695.659	1852.22
695.848	1776.44
696.037	1907.51
696.226	1823.55
696.415	1882.94
696.604	1954.62
696.793	1893.18
696.982	1747.77
697.171	1835.83
697.36	1780.54
697.549	1774.39
697.738	1905.46
697.927	1907.51
698.116	1827.64
698.305	1887.03
698.494	1889.08
698.683	1805.11
698.872	1807.16
699.061	1805.11
699.25	1874.74
699.438	1815.35
699.627	1911.61
699.816	1866.55
700.005	1788.73
700.193	1901.37
700.382	1870.65
700.571	1899.32
700.76	1887.03
700.948	1796.92
701.137	1811.26
701.326	1704.76
701.514	1612.6
701.703	1823.55
701.892	1715
702.08	1784.63
702.269	1825.59
702.457	1702.72
702.646	1835.83
702.834	1776.44
703.023	1911.61
703.212	1833.79
703.4	1835.83
703.589	1772.35
703.777	1854.27
703.965	1776.44
704.154	1870.65
704.342	1831.74
704.531	1780.54
704.719	1741.63
704.907	1829.69
705.096	1764.15
705.284	1876.79
705.472	1907.51
705.661	1856.31
705.849	1710.91
706.037	1778.49
706.226	1676.09
706.414	1700.67
706.602	1737.53
706.79	1639.23
706.979	1762.11
707.167	1749.82
707.355	1669.95
707.543	1735.48
707.731	1741.63
707.919	1663.8
708.107	1702.72
708.296	1694.52
708.484	1669.95
708.672	1727.29
708.86	1694.52
709.048	1553.21
709.236	1600.32
709.424	1651.52
709.612	1626.94
709.8	1653.56
709.988	1745.72
710.176	1694.52
710.364	1770.3
710.551	1618.75
710.739	1669.95
710.927	1579.84
711.115	1651.52
711.303	1669.95
711.491	1598.27
711.679	1626.94
711.866	1637.18
712.054	1616.7
712.242	1657.66
712.43	1659.71
712.617	1567.55
712.805	1553.21
712.993	1575.74
713.181	1581.89
713.368	1649.47
713.556	1663.8
713.744	1610.56
713.931	1622.84
714.119	1520.45
714.306	1651.52
714.494	1528.64
714.682	1610.56
714.869	1557.31
715.057	1555.26
715.244	1508.16
715.432	1512.25
715.619	1526.59
715.807	1493.82
715.994	1575.74
716.182	1545.02
716.369	1616.7
716.556	1530.69
716.744	1528.64
716.931	1493.82
717.119	1540.93
717.306	1553.21
717.493	1467.2
717.681	1456.96
717.868	1428.29
718.055	1491.77
718.242	1456.96
718.43	1479.49
718.617	1409.86
718.804	1473.34
718.991	1442.62
719.179	1440.58
719.366	1401.66
719.553	1372.99
719.74	1465.15
719.927	1405.76
720.114	1434.43
720.301	1434.43
720.488	1463.1
720.676	1391.42
720.863	1401.66
721.05	1377.09
721.237	1315.65
721.424	1420.1
721.611	1377.09
721.798	1338.18
721.985	1416
722.172	1301.31
722.358	1334.08
722.545	1317.7
722.732	1305.41
722.919	1307.46
723.106	1342.27
723.293	1352.51
723.48	1456.96
723.667	1305.41
723.853	1284.93
724.04	1319.75
724.227	1319.75
724.414	1272.64
724.6	1346.37
724.787	1221.44
724.974	1266.5
725.161	1155.91
725.347	1270.59
725.534	1237.83
725.72	1309.51
725.907	1395.52
726.094	1289.03
726.28	1268.55
726.467	1182.53
726.653	1291.07
726.84	1325.89
727.027	1375.04
727.213	1246.02
727.4	1278.79
727.586	1166.15
727.773	1272.64
727.959	1284.93
728.145	1184.58
728.332	1188.68
728.518	1217.35
728.705	1252.16
728.891	1180.48
729.077	1205.06
729.264	1168.2
729.45	1137.48
729.636	1246.02
729.823	1160
730.009	1250.11
730.195	1305.41
730.382	1160
730.568	1182.53
730.754	1184.58
730.94	1125.19
731.126	1223.49
731.313	1196.87
731.499	1172.29
731.685	1162.05
731.871	1117
732.057	1137.48
732.243	1157.96
732.429	1061.7
732.615	1100.61
732.801	1256.26
732.987	1211.2
733.173	1203.01
733.359	1108.8
733.545	1155.91
733.731	1139.52
733.917	1114.95
734.103	1123.14
734.289	1131.33
734.475	1133.38
734.661	1135.43
734.847	1149.76
735.033	1211.2
735.219	1170.24
735.404	1098.56
735.59	994.12
735.776	1106.76
735.962	1209.15
736.148	1170.24
736.333	1110.85
736.519	1057.61
736.705	1164.1
736.89	1090.37
737.076	1092.42
737.262	1000.26
737.447	1135.43
737.633	1051.46
737.819	1088.32
738.004	1016.65
738.19	1067.85
738.375	1024.84
738.561	1172.29
738.747	1024.84
738.932	1069.89
739.118	1125.19
739.303	1141.57
739.489	1094.47
739.674	961.35
739.859	1016.65
740.045	1057.61
740.23	1088.32
740.416	1030.98
740.601	994.12
740.786	1006.41
740.972	1022.79
741.157	1096.52
741.342	981.83
741.528	906.06
741.713	1026.89
741.898	981.83
742.084	1030.98
742.269	1006.41
742.454	1033.03
742.639	1002.31
742.824	1020.74
743.01	914.25
743.195	957.25
743.38	953.16
743.565	981.83
743.75	1022.79
743.935	965.45
744.12	916.3
744.305	934.73
744.49	983.88
744.675	852.81
744.86	967.49
745.045	955.21
745.23	920.39
745.415	955.21
745.6	1002.31
745.785	889.67
745.97	930.63
746.155	881.48
746.34	867.14
746.525	889.67
746.71	811.85
746.895	795.47
747.079	944.97
747.264	881.48
747.449	891.72
747.634	922.44
747.819	867.14
748.003	762.7
748.188	830.28
748.373	811.85
748.557	867.14
748.742	817.99
748.927	738.12
749.111	863.05
749.296	815.94
749.481	811.85
749.665	861
749.85	791.37
750.034	731.98
750.219	715.59
750.404	760.65
750.588	791.37
750.773	772.94
750.957	803.66
751.141	736.07
751.326	774.99
751.51	727.88
751.695	703.31
751.879	705.35
752.064	721.74
752.248	807.75
752.432	805.71
752.617	641.87
752.801	795.47
752.985	660.3
753.17	760.65
753.354	697.16
753.538	731.98
753.722	729.93
753.907	734.03
754.091	676.68
754.275	699.21
754.459	699.21
754.643	660.3
754.828	656.2
755.012	639.82
755.196	611.15
755.38	713.55
755.564	641.87
755.748	676.68
755.932	672.59
756.116	639.82
756.3	635.72
756.484	695.11
756.668	670.54
756.852	611.15
757.036	641.87
757.22	633.68
757.404	643.92
757.588	666.44
757.772	578.38
757.956	578.38
758.14	539.47
758.323	533.33
758.507	566.09
758.691	541.52
758.875	660.3
759.059	611.15
759.242	498.51
759.426	562
759.61	508.75
759.794	549.71
759.977	555.85
760.161	562
760.345	566.09
760.528	562
760.712	549.71
760.895	623.44
761.079	609.1
761.263	572.24
761.446	553.8
761.63	539.47
761.813	467.79
761.997	531.28
762.18	580.43
762.364	531.28
762.547	441.17
762.731	531.28
762.914	506.7
763.098	537.42
763.281	510.8
763.464	582.48
763.648	484.17
763.831	508.75
764.015	480.08
764.198	455.5
764.381	498.51
764.564	496.46
764.748	531.28
764.931	502.61
765.114	537.42
765.297	510.8
765.481	516.94
765.664	480.08
765.847	443.21
766.03	484.17
766.213	408.4
766.397	514.89
766.58	486.22
766.763	463.69
766.946	502.61
767.129	510.8
767.312	469.84
767.495	441.17
767.678	455.5
767.861	469.84
768.044	484.17
768.227	482.13
768.41	482.13
768.593	559.95
768.776	514.89
768.959	447.31
769.142	533.33
769.324	469.84
769.507	414.54
769.69	392.02
769.873	408.4
770.056	418.64
770.239	523.09
770.421	463.69
770.604	416.59
770.787	420.69
770.97	439.12
771.152	441.17
771.335	422.73
771.518	490.32
771.7	453.45
771.883	428.88
772.066	451.41
772.248	424.78
772.431	396.11
772.613	475.98
772.796	408.4
772.978	447.31
773.161	467.79
773.343	392.02
773.526	363.34
773.708	373.58
773.891	346.96
774.073	314.19
774.256	355.15
774.438	385.87
774.621	334.67
774.803	377.68
774.985	441.17
775.168	385.87
775.35	328.53
775.532	402.26
775.715	338.77
775.897	373.58
776.079	346.96
776.261	383.82
776.444	357.2
776.626	400.21
776.808	400.21
776.99	404.3
777.173	320.34
777.355	314.19
777.537	394.06
777.719	363.34
777.901	269.14
778.083	316.24
778.265	365.39
778.447	273.23
778.629	287.57
778.811	363.34
778.993	394.06
779.175	326.48
779.357	379.73
779.539	326.48
779.721	346.96
779.903	283.47
780.085	338.77
780.267	340.82
780.449	308.05
780.631	308.05
780.812	344.91
780.994	332.62
781.176	254.8
781.358	240.47
781.54	250.71
781.721	306
781.903	240.47
782.085	289.62
782.267	332.62
782.448	295.76
782.63	293.71
782.812	230.23
782.993	349.01
783.175	258.9
783.357	320.34
783.538	224.08
783.72	226.13
783.901	254.8
784.083	299.86
784.264	238.42
784.446	238.42
784.627	277.33
784.809	224.08
784.99	240.47
785.172	224.08
785.353	293.71
785.535	193.36
785.716	258.9
785.897	238.42
786.079	222.03
786.26	275.28
786.441	279.38
786.623	252.75
786.804	248.66
786.985	258.9
787.167	295.76
787.348	238.42
787.529	189.27
787.71	238.42
787.891	199.51
788.073	115.54
788.254	271.19
788.435	224.08
788.616	164.69
788.797	213.84
788.978	191.31
789.159	277.33
789.34	238.42
789.522	213.84
789.703	136.02
789.884	222.03
790.065	228.18
790.246	183.12
790.427	174.93
790.607	219.99
790.788	158.55
790.969	258.9
791.15	138.07
791.331	217.94
791.512	207.7
791.693	168.79
791.874	209.75
792.054	209.75
792.235	152.4
792.416	138.07
792.597	234.32
792.778	201.55
792.958	187.22
793.139	209.75
793.32	152.4
793.5	209.75
793.681	222.03
793.862	164.69
794.042	150.36
794.223	125.78
794.404	111.44
794.584	160.59
794.765	150.36
794.945	252.75
795.126	146.26
795.306	176.98
795.487	115.54
795.667	101.2
795.848	123.73
796.028	148.31
796.209	195.41
796.389	105.3
796.57	148.31
796.75	164.69
796.93	203.6
797.111	185.17
797.291	45.91
797.471	166.74
797.652	140.12
797.832	123.73
798.012	119.64
798.192	101.2
798.373	133.97
798.553	160.59
798.733	166.74
798.913	117.59
799.093	154.45
799.274	215.89
799.454	144.21
799.634	125.78
799.814	140.12
799.994	144.21
800.174	101.2
800.354	154.45
800.534	199.51
800.714	125.78
800.894	199.51
801.074	84.82
801.254	133.97
801.434	107.35
801.614	107.35
801.794	60.24
801.974	351.06
802.154	95.06
802.334	103.25
802.514	60.24
802.693	146.26
802.873	148.31
803.053	62.29
803.233	72.53
803.413	35.67
803.592	113.49
803.772	115.54
803.952	105.3
804.131	86.87
804.311	154.45
804.491	150.36
804.67	168.79
804.85	136.02
805.03	95.06
805.209	162.64
805.389	113.49
805.568	76.63
805.748	107.35
805.928	121.68
806.107	103.25
806.287	107.35
806.466	119.64
806.646	107.35
806.825	82.77
807.004	60.24
807.184	150.36
807.363	138.07
807.543	136.02
807.722	90.96
807.901	119.64
808.081	166.74
808.26	103.25
808.439	115.54
808.619	74.58
808.798	84.82
808.977	168.79
809.156	109.4
809.336	54.1
809.515	105.3
809.694	60.24
809.873	123.73
810.052	88.92
810.231	136.02
810.411	136.02
810.59	45.91
810.769	74.58
810.948	105.3
811.127	31.57
811.306	103.25
811.485	45.91
811.664	166.74
811.843	99.16
812.022	23.38
812.201	111.44
812.38	115.54
812.559	29.52
812.737	58.2
812.916	41.81
813.095	111.44
813.274	68.44
813.453	21.33
813.632	41.81
813.811	68.44
813.989	90.96
814.168	97.11
814.347	99.16
814.526	158.55
814.704	113.49
814.883	90.96
815.062	113.49
815.24	121.68
815.419	84.82
815.598	82.77
815.776	68.44
815.955	150.36
816.133	60.24
816.312	35.67
816.49	23.38
816.669	62.29
816.847	121.68
817.026	56.15
817.204	115.54
817.383	95.06
817.561	93.01
817.74	70.48
817.918	95.06
818.097	35.67
818.275	103.25
818.453	101.2
818.632	74.58
818.81	123.73
818.988	84.82
819.167	107.35
819.345	115.54
819.523	23.38
819.701	45.91
819.879	62.29
820.058	152.4
820.236	35.67
820.414	93.01
820.592	99.16
820.77	2.9
820.948	72.53
821.127	70.48
821.305	33.62
821.483	27.48
821.661	43.86
821.839	60.24
822.017	7
822.195	11.09
822.373	93.01
822.551	54.1
822.729	74.58
822.907	109.4
823.085	37.72
823.262	56.15
823.44	64.34
823.618	0.85
823.796	-3.24
823.974	35.67
824.152	105.3
824.329	101.2
824.507	84.82
824.685	86.87
824.863	21.33
825.04	66.39
825.218	66.39
825.396	66.39
825.574	17.24
825.751	31.57
825.929	62.29
826.107	58.2
826.284	93.01
826.462	84.82
826.639	109.4
826.817	70.48
826.994	60.24
827.172	-11.43
827.349	60.24
827.527	45.91
827.704	72.53
827.882	133.97
828.059	76.63
828.237	72.53
828.414	17.24
828.591	68.44
828.769	68.44
828.946	25.43
829.124	105.3
829.301	50
829.478	70.48
829.655	62.29
829.833	76.63
830.01	90.96
830.187	21.33
830.364	23.38
830.542	74.58
830.719	88.92
830.896	52.05
831.073	39.76
831.25	47.96
831.427	19.29
831.604	-9.39
831.782	-15.53
831.959	82.77
832.136	41.81
832.313	70.48
832.49	43.86
832.667	82.77
832.844	35.67
833.021	93.01
833.198	21.33
833.374	15.19
833.551	107.35
833.728	56.15
833.905	105.3
834.082	97.11
834.259	58.2
834.436	17.24
834.612	78.68
834.789	21.33
834.966	93.01
835.143	68.44
835.319	64.34
835.496	29.52
835.673	-3.24
835.85	23.38
836.026	-27.82
836.203	70.48
836.38	25.43
836.556	43.86
836.733	78.68
836.909	17.24
837.086	70.48
837.262	2.9
837.439	80.72
837.616	-11.43
837.792	82.77
837.968	99.16
838.145	35.67
838.321	58.2
838.498	43.86
838.674	17.24
838.851	0.85
839.027	37.72
839.203	50
839.38	80.72
839.556	72.53
839.732	60.24
839.909	41.81
840.085	54.1
840.261	-9.39
840.437	0.85
840.614	56.15
840.79	70.48
840.966	84.82
841.142	17.24
841.318	37.72
841.494	35.67
841.671	74.58
841.847	9.05
842.023	-17.58
842.199	23.38
842.375	-3.24
842.551	84.82
842.727	15.19
842.903	39.76
843.079	43.86
843.255	9.05
843.431	54.1
843.607	17.24
843.783	-3.24
843.959	84.82
844.134	-38.06
844.31	78.68
844.486	4.95
844.662	23.38
844.838	45.91
845.013	47.96
845.189	9.05
845.365	37.72
845.541	45.91
845.716	19.29
845.892	13.14
846.068	74.58
846.244	68.44
846.419	23.38
846.595	21.33
846.77	27.48
846.946	33.62
847.122	58.2
847.297	37.72
847.473	54.1
847.648	43.86
847.824	58.2
847.999	19.29
848.175	54.1
848.35	2.9
848.526	21.33
848.701	47.96
848.876	11.09
849.052	41.81
849.227	19.29
849.403	15.19
849.578	58.2
849.753	-72.87
849.929	-1.19
850.104	136.02
850.279	11.09
850.454	33.62
850.63	-60.59
850.805	64.34
850.98	54.1
851.155	4.95
851.33	115.54
851.505	39.76
851.681	70.48
851.856	-7.34
852.031	35.67
852.206	13.14
852.381	17.24
852.556	70.48
852.731	25.43
852.906	33.62
853.081	7
853.256	9.05
853.431	2.9
853.606	-25.77
853.781	60.24
853.956	-15.53
854.131	9.05
854.305	88.92
854.48	113.49
854.655	-27.82
854.83	27.48
855.005	35.67
855.18	-9.39
855.354	-46.25
855.529	25.43
855.704	60.24
855.879	0.85
856.053	-13.48
856.228	54.1
856.403	15.19
856.577	39.76
856.752	21.33
856.926	103.25
857.101	56.15
857.276	45.91
857.45	23.38
857.625	58.2
857.799	47.96
857.974	58.2
858.148	25.43
858.323	45.91
858.497	23.38
858.672	37.72
858.846	21.33
859.02	17.24
859.195	13.14
859.369	43.86
859.543	-17.58
859.718	-3.24
859.892	-11.43
860.066	78.68
860.241	45.91
860.415	-7.34
860.589	74.58
860.763	25.43
860.938	41.81
861.112	23.38
861.286	-3.24
861.46	103.25
861.634	23.38
861.808	27.48
861.982	39.76
862.157	58.2
862.331	25.43
862.505	-29.87
862.679	50
862.853	21.33
863.027	41.81
863.201	54.1
863.375	50
863.549	31.57
863.722	82.77
863.896	54.1
864.07	19.29
864.244	9.05
864.418	7
864.592	17.24
864.766	13.14
864.939	-31.91
865.113	115.54
865.287	54.1
865.461	29.52
865.634	109.4
865.808	23.38
865.982	-3.24
866.156	-40.11
866.329	37.72
866.503	56.15
866.676	23.38
866.85	82.77
867.024	-1.19
867.197	37.72
867.371	-27.82
867.544	-9.39
867.718	76.63
867.891	15.19
868.065	-5.29
868.238	-25.77
868.412	62.29
868.585	7
868.759	29.52
868.932	-17.58
869.105	82.77
869.279	-23.72
869.452	9.05
869.625	37.72
869.799	2.9
869.972	9.05
870.145	7
870.319	54.1
870.492	72.53
870.665	95.06
870.838	115.54
871.011	15.19
871.185	0.85
871.358	-1.19
871.531	-31.91
871.704	-52.39
871.877	41.81
872.05	33.62
872.223	78.68
872.396	70.48
872.569	33.62
872.742	-9.39
872.915	-38.06
873.088	-42.15
873.261	13.14
873.434	60.24
873.607	31.57
873.78	52.05
873.953	-11.43
874.126	-19.63
874.299	11.09
874.471	-25.77
874.644	27.48
874.817	41.81
874.99	23.38
875.163	25.43
875.335	72.53
875.508	-3.24
875.681	-3.24
875.853	-17.58
876.026	27.48
876.199	56.15
876.371	74.58
876.544	-15.53
876.717	-5.29
876.889	-27.82
877.062	2.9
877.234	47.96
877.407	27.48
877.579	-31.91
877.752	-23.72
877.924	-15.53
878.097	23.38
878.269	66.39
878.442	17.24
878.614	-15.53
878.786	-1.19
878.959	-42.15
879.131	86.87
879.303	19.29
879.476	-3.24
879.648	-5.29
879.82	37.72
879.993	54.1
880.165	4.95
880.337	74.58
880.509	-1.19
880.681	9.05
880.854	-13.48
881.026	17.24
881.198	-83.11
881.37	-17.58
881.542	-46.25
881.714	-5.29
881.886	-33.96
882.058	41.81
882.23	66.39
882.402	39.76
882.574	43.86
882.746	-52.39
882.918	35.67
883.09	-1.19
883.262	58.2
883.434	-21.67
883.606	-17.58
883.778	-15.53
883.95	62.29
884.122	-17.58
884.293	-1.19
884.465	-21.67
884.637	11.09
884.809	-91.31
884.98	-31.91
885.152	-11.43
885.324	7
885.496	52.05
885.667	9.05
885.839	56.15
886.011	33.62
886.182	-44.2
886.354	13.14
886.525	13.14
886.697	-7.34
886.869	29.52
887.04	33.62
887.212	-17.58
887.383	37.72
887.555	-15.53
887.726	21.33
887.897	-25.77
888.069	-33.96
888.24	-21.67
888.412	60.24
888.583	-31.91
888.754	58.2
888.926	-27.82
889.097	76.63
889.268	-7.34
889.44	9.05
889.611	-25.77
889.782	2.9
889.953	-31.91
890.125	-9.39
890.296	-36.01
890.467	33.62
890.638	19.29
890.809	39.76
890.98	19.29
891.151	-3.24
891.323	15.19
891.494	15.19
891.665	-5.29
891.836	45.91
892.007	58.2
892.178	-29.87
892.349	-81.07
892.52	19.29
892.691	-11.43
892.862	-19.63
893.032	-1.19
893.203	29.52
893.374	-13.48
893.545	13.14
893.716	68.44
893.887	33.62
894.057	9.05
894.228	15.19
894.399	-33.96
894.57	21.33
894.74	56.15
894.911	29.52
895.082	-31.91
895.253	-11.43
895.423	-38.06
895.594	-58.54
895.764	27.48
895.935	-19.63
896.106	-40.11
896.276	33.62
896.447	4.95
896.617	27.48
896.788	-17.58
896.958	-36.01
897.129	9.05
897.299	39.76
897.47	27.48
897.64	27.48
897.81	52.05
897.981	35.67
898.151	4.95
898.322	0.85
898.492	-3.24
898.662	-9.39
898.832	-19.63
899.003	13.14
899.173	-38.06
899.343	27.48
899.513	-9.39
