Data from USB4F104151__246__14-01-19-736.txt Node

Date: Thu Mar 13 14:01:19 EDT 2025
User: louis
Spectrometer: USB4F10415
Trigger mode: 4
Integration Time (sec): 1.000000E-2
Scans to average: 1
Electric dark correction enabled: true
Nonlinearity correction enabled: false
Boxcar width: 0
XAxis mode: Wavelengths
Number of Pixels in Spectrum: 3648
>>>>>Begin Spectral Data<<<<<
178.204	-33.45
178.424	-33.45
178.644	-33.45
178.864	-12.97
179.084	-55.98
179.304	36.18
179.524	40.28
179.744	-47.79
179.964	15.7
180.184	17.75
180.404	-17.07
180.624	-66.22
180.844	44.37
181.064	11.61
181.283	21.85
181.503	-0.68
181.723	-55.98
181.943	-37.55
182.163	19.8
182.383	79.19
182.602	-25.26
182.822	62.8
183.042	13.65
183.262	-25.26
183.482	21.85
183.701	21.85
183.921	-12.97
184.141	-45.74
184.361	13.65
184.58	71
184.8	50.52
185.02	-8.87
185.239	36.18
185.459	-51.88
185.679	32.08
185.898	-37.55
186.118	1.37
186.338	-45.74
186.557	9.56
186.777	-29.35
186.997	77.14
187.216	32.08
187.436	-33.45
187.655	3.41
187.875	21.85
188.095	77.14
188.314	32.08
188.534	-23.21
188.753	44.37
188.973	-92.84
189.192	60.76
189.412	95.57
189.631	44.37
189.851	11.61
190.07	30.04
190.29	81.24
190.509	15.7
190.729	-96.94
190.948	34.13
191.168	75.09
191.387	-2.73
191.607	-17.07
191.826	5.46
192.045	-31.4
192.265	-19.11
192.484	-27.31
192.704	5.46
192.923	13.65
193.142	48.47
193.362	-53.93
193.581	-10.92
193.8	85.33
194.02	7.51
194.239	44.37
194.458	-37.55
194.678	-4.78
194.897	42.32
195.116	11.61
195.335	-35.5
195.555	30.04
195.774	-12.97
195.993	5.46
196.212	32.08
196.432	-47.79
196.651	-2.73
196.87	13.65
197.089	93.52
197.308	52.56
197.528	11.61
197.747	-35.5
197.966	-33.45
198.185	128.34
198.404	-4.78
198.623	60.76
198.842	-8.87
199.062	-12.97
199.281	77.14
199.5	-21.16
199.719	-47.79
199.938	25.94
200.157	15.7
200.376	-4.78
200.595	44.37
200.814	5.46
201.033	11.61
201.252	3.41
201.471	-10.92
201.69	-6.83
201.909	73.04
202.128	-12.97
202.347	38.23
202.566	-35.5
202.785	-45.74
203.004	-0.68
203.223	-33.45
203.442	46.42
203.661	-66.22
203.879	11.61
204.098	42.32
204.317	-84.65
204.536	-12.97
204.755	85.33
204.974	11.61
205.193	3.41
205.411	17.75
205.63	-37.55
205.849	-23.21
206.068	9.56
206.287	3.41
206.505	27.99
206.724	40.28
206.943	79.19
207.162	19.8
207.381	-58.03
207.599	-25.26
207.818	-23.21
208.037	-4.78
208.255	1.37
208.474	64.85
208.693	52.56
208.911	48.47
209.13	-21.16
209.349	-2.73
209.567	15.7
209.786	-58.03
210.005	11.61
210.223	54.61
210.442	-55.98
210.661	-2.73
210.879	75.09
211.098	-2.73
211.316	-55.98
211.535	9.56
211.753	42.32
211.972	13.65
212.191	-15.02
212.409	60.76
212.628	-53.93
212.846	60.76
213.065	-35.5
213.283	-4.78
213.502	32.08
213.72	-37.55
213.938	21.85
214.157	36.18
214.375	5.46
214.594	27.99
214.812	54.61
215.031	-53.93
215.249	71
215.467	36.18
215.686	3.41
215.904	-17.07
216.122	-37.55
216.341	71
216.559	-4.78
216.778	56.66
216.996	19.8
217.214	-37.55
217.432	-64.17
217.651	46.42
217.869	-60.07
218.087	17.75
218.306	68.95
218.524	-35.5
218.742	60.76
218.96	-25.26
219.179	66.9
219.397	56.66
219.615	21.85
219.833	44.37
220.051	27.99
220.27	-25.26
220.488	60.76
220.706	5.46
220.924	-31.4
221.142	-10.92
221.36	36.18
221.578	34.13
221.796	-10.92
222.015	19.8
222.233	-12.97
222.451	-49.83
222.669	-12.97
222.887	-2.73
223.105	-25.26
223.323	73.04
223.541	-43.69
223.759	13.65
223.977	-29.35
224.195	7.51
224.413	27.99
224.631	21.85
224.849	64.85
225.067	32.08
225.285	7.51
225.503	19.8
225.721	-55.98
225.939	-43.69
226.157	-45.74
226.375	38.23
226.592	66.9
226.81	-43.69
227.028	-4.78
227.246	62.8
227.464	-29.35
227.682	-27.31
227.9	-31.4
228.117	21.85
228.335	17.75
228.553	7.51
228.771	36.18
228.989	48.47
229.206	-8.87
229.424	-6.83
229.642	9.56
229.86	60.76
230.077	11.61
230.295	52.56
230.513	-58.03
230.731	13.65
230.948	21.85
231.166	38.23
231.384	-29.35
231.601	71
231.819	19.8
232.037	-35.5
232.254	-37.55
232.472	-39.59
232.689	-21.16
232.907	5.46
233.125	-74.41
233.342	19.8
233.56	17.75
233.777	89.43
233.995	52.56
234.213	-29.35
234.43	42.32
234.648	9.56
234.865	1.37
235.083	-4.78
235.3	-29.35
235.518	-2.73
235.735	60.76
235.953	71
236.17	44.37
236.388	38.23
236.605	38.23
236.822	50.52
237.04	36.18
237.257	36.18
237.475	-21.16
237.692	42.32
237.909	-31.4
238.127	60.76
238.344	-8.87
238.562	64.85
238.779	46.42
238.996	52.56
239.214	-4.78
239.431	-12.97
239.648	-2.73
239.865	-4.78
240.083	30.04
240.3	44.37
240.517	-37.55
240.735	19.8
240.952	-21.16
241.169	21.85
241.386	-8.87
241.603	-0.68
241.821	30.04
242.038	60.76
242.255	-0.68
242.472	19.8
242.689	44.37
242.907	-37.55
243.124	77.14
243.341	11.61
243.558	-60.07
243.775	3.41
243.992	19.8
244.209	1.37
244.426	-33.45
244.643	7.51
244.86	1.37
245.078	21.85
245.295	44.37
245.512	-33.45
245.729	23.89
245.946	3.41
246.163	-8.87
246.38	-4.78
246.597	27.99
246.814	97.62
247.031	-6.83
247.248	5.46
247.464	-21.16
247.681	19.8
247.898	1.37
248.115	-62.12
248.332	-29.35
248.549	-43.69
248.766	54.61
248.983	-43.69
249.2	19.8
249.417	44.37
249.633	5.46
249.85	13.65
250.067	15.7
250.284	54.61
250.501	-8.87
250.717	11.61
250.934	15.7
251.151	38.23
251.368	-17.07
251.585	-12.97
251.801	-12.97
252.018	15.7
252.235	40.28
252.451	17.75
252.668	-23.21
252.885	56.66
253.102	48.47
253.318	-37.55
253.535	-21.16
253.752	3.41
253.968	40.28
254.185	11.61
254.401	-53.93
254.618	32.08
254.835	46.42
255.051	68.95
255.268	5.46
255.484	30.04
255.701	7.51
255.917	109.91
256.134	40.28
256.351	-25.26
256.567	11.61
256.784	40.28
257	60.76
257.217	95.57
257.433	-27.31
257.65	66.9
257.866	91.48
258.082	-25.26
258.299	-17.07
258.515	11.61
258.732	-51.88
258.948	3.41
259.165	-43.69
259.381	-12.97
259.597	58.71
259.814	-51.88
260.03	46.42
260.246	54.61
260.463	5.46
260.679	25.94
260.895	19.8
261.112	-15.02
261.328	-27.31
261.544	54.61
261.761	46.42
261.977	27.99
262.193	-4.78
262.409	46.42
262.626	40.28
262.842	27.99
263.058	23.89
263.274	5.46
263.49	-27.31
263.707	19.8
263.923	19.8
264.139	-8.87
264.355	66.9
264.571	11.61
264.787	3.41
265.004	62.8
265.22	30.04
265.436	-10.92
265.652	-6.83
265.868	62.8
266.084	-64.17
266.3	3.41
266.516	32.08
266.732	-8.87
266.948	48.47
267.164	-43.69
267.38	52.56
267.596	60.76
267.812	32.08
268.028	85.33
268.244	25.94
268.46	19.8
268.676	-39.59
268.892	40.28
269.108	-35.5
269.324	-53.93
269.54	46.42
269.756	17.75
269.972	48.47
270.188	15.7
270.403	-19.11
270.619	-35.5
270.835	-45.74
271.051	27.99
271.267	-10.92
271.483	101.72
271.698	3.41
271.914	42.32
272.13	3.41
272.346	5.46
272.562	5.46
272.777	77.14
272.993	36.18
273.209	38.23
273.425	5.46
273.64	3.41
273.856	32.08
274.072	9.56
274.287	-27.31
274.503	-29.35
274.719	23.89
274.934	77.14
275.15	13.65
275.366	-21.16
275.581	-25.26
275.797	52.56
276.012	54.61
276.228	40.28
276.444	17.75
276.659	54.61
276.875	1.37
277.09	27.99
277.306	-33.45
277.521	-33.45
277.737	38.23
277.952	9.56
278.168	11.61
278.383	-4.78
278.599	81.24
278.814	56.66
279.03	34.13
279.245	68.95
279.461	-12.97
279.676	15.7
279.892	-21.16
280.107	46.42
280.322	-17.07
280.538	23.89
280.753	19.8
280.969	-33.45
281.184	-49.83
281.399	30.04
281.615	-39.59
281.83	34.13
282.045	11.61
282.26	-12.97
282.476	-19.11
282.691	101.72
282.906	77.14
283.122	27.99
283.337	21.85
283.552	-27.31
283.767	19.8
283.983	11.61
284.198	60.76
284.413	3.41
284.628	19.8
284.843	54.61
285.058	11.61
285.274	11.61
285.489	-19.11
285.704	95.57
285.919	-43.69
286.134	85.33
286.349	40.28
286.564	19.8
286.779	3.41
286.995	-17.07
287.21	11.61
287.425	11.61
287.64	60.76
287.855	85.33
288.07	-2.73
288.285	23.89
288.5	87.38
288.715	-17.07
288.93	-2.73
289.145	-41.64
289.36	60.76
289.575	5.46
289.79	30.04
290.004	-45.74
290.219	15.7
290.434	23.89
290.649	-53.93
290.864	-27.31
291.079	3.41
291.294	-2.73
291.509	21.85
291.724	-29.35
291.938	7.51
292.153	17.75
292.368	27.99
292.583	-0.68
292.798	44.37
293.012	-2.73
293.227	13.65
293.442	-33.45
293.657	60.76
293.871	-4.78
294.086	79.19
294.301	-10.92
294.516	15.7
294.73	30.04
294.945	27.99
295.16	68.95
295.374	68.95
295.589	5.46
295.804	-39.59
296.018	-21.16
296.233	44.37
296.447	5.46
296.662	21.85
296.877	62.8
297.091	-109.22
297.306	-0.68
297.52	7.51
297.735	62.8
297.949	-10.92
298.164	-92.84
298.378	3.41
298.593	-45.74
298.807	-17.07
299.022	-84.65
299.236	-25.26
299.451	44.37
299.665	-27.31
299.88	-2.73
300.094	85.33
300.309	36.18
300.523	44.37
300.737	-19.11
300.952	-19.11
301.166	44.37
301.381	-37.55
301.595	25.94
301.809	-41.64
302.024	-12.97
302.238	27.99
302.452	-0.68
302.667	85.33
302.881	40.28
303.095	81.24
303.309	7.51
303.524	15.7
303.738	32.08
303.952	-41.64
304.166	-19.11
304.381	-60.07
304.595	-37.55
304.809	-17.07
305.023	-2.73
305.237	68.95
305.452	54.61
305.666	-19.11
305.88	7.51
306.094	52.56
306.308	-27.31
306.522	27.99
306.736	3.41
306.95	15.7
307.164	38.23
307.379	62.8
307.593	-29.35
307.807	87.38
308.021	54.61
308.235	19.8
308.449	-68.27
308.663	38.23
308.877	30.04
309.091	32.08
309.305	21.85
309.519	-4.78
309.733	32.08
309.947	-12.97
310.161	71
310.374	27.99
310.588	11.61
310.802	19.8
311.016	13.65
311.23	-21.16
311.444	85.33
311.658	-21.16
311.872	13.65
312.085	54.61
312.299	38.23
312.513	23.89
312.727	40.28
312.941	-35.5
313.154	54.61
313.368	97.62
313.582	25.94
313.796	54.61
314.009	23.89
314.223	54.61
314.437	-68.27
314.651	66.9
314.864	62.8
315.078	34.13
315.292	-27.31
315.505	-31.4
315.719	5.46
315.933	-58.03
316.146	77.14
316.36	21.85
316.573	48.47
316.787	5.46
317.001	48.47
317.214	44.37
317.428	21.85
317.641	-12.97
317.855	-19.11
318.068	13.65
318.282	64.85
318.495	73.04
318.709	27.99
318.922	5.46
319.136	-12.97
319.349	46.42
319.563	42.32
319.776	109.91
319.99	7.51
320.203	-6.83
320.417	27.99
320.63	46.42
320.843	38.23
321.057	13.65
321.27	23.89
321.483	32.08
321.697	1.37
321.91	-72.36
322.124	-27.31
322.337	-37.55
322.55	-33.45
322.763	-2.73
322.977	85.33
323.19	19.8
323.403	19.8
323.617	-39.59
323.83	42.32
324.043	19.8
324.256	-12.97
324.469	44.37
324.683	15.7
324.896	-25.26
325.109	38.23
325.322	44.37
325.535	-4.78
325.748	75.09
325.962	-12.97
326.175	-10.92
326.388	58.71
326.601	38.23
326.814	13.65
327.027	-25.26
327.24	42.32
327.453	-4.78
327.666	-6.83
327.879	15.7
328.092	48.47
328.305	-17.07
328.518	21.85
328.731	54.61
328.944	30.04
329.157	13.65
329.37	30.04
329.583	56.66
329.796	21.85
330.009	-27.31
330.222	-12.97
330.435	36.18
330.648	-17.07
330.861	15.7
331.073	27.99
331.286	-8.87
331.499	23.89
331.712	32.08
331.925	-10.92
332.138	17.75
332.35	32.08
332.563	60.76
332.776	79.19
332.989	56.66
333.202	-21.16
333.414	64.85
333.627	21.85
333.84	1.37
334.053	-10.92
334.265	-10.92
334.478	-12.97
334.691	5.46
334.903	42.32
335.116	11.61
335.329	15.7
335.541	36.18
335.754	1.37
335.966	3.41
336.179	-4.78
336.392	25.94
336.604	101.72
336.817	44.37
337.029	-21.16
337.242	-17.07
337.454	-4.78
337.667	3.41
337.88	5.46
338.092	5.46
338.305	85.33
338.517	56.66
338.729	-21.16
338.942	19.8
339.154	5.46
339.367	27.99
339.579	-6.83
339.792	50.52
340.004	25.94
340.217	32.08
340.429	-4.78
340.641	-17.07
340.854	48.47
341.066	27.99
341.278	21.85
341.491	30.04
341.703	-31.4
341.915	15.7
342.128	-21.16
342.34	23.89
342.552	23.89
342.764	64.85
342.977	-51.88
343.189	-51.88
343.401	101.72
343.613	-39.59
343.826	-31.4
344.038	62.8
344.25	19.8
344.462	-19.11
344.674	77.14
344.886	11.61
345.099	-17.07
345.311	13.65
345.523	-8.87
345.735	73.04
345.947	-2.73
346.159	-53.93
346.371	11.61
346.583	38.23
346.795	13.65
347.007	23.89
347.219	103.76
347.431	-15.02
347.643	52.56
347.855	13.65
348.067	32.08
348.279	15.7
348.491	79.19
348.703	3.41
348.915	38.23
349.127	64.85
349.339	-37.55
349.551	3.41
349.763	-37.55
349.975	-21.16
350.187	81.24
350.399	-15.02
350.61	1.37
350.822	-33.45
351.034	-10.92
351.246	-17.07
351.458	11.61
351.669	5.46
351.881	-12.97
352.093	87.38
352.305	48.47
352.517	7.51
352.728	46.42
352.94	40.28
353.152	42.32
353.363	19.8
353.575	60.76
353.787	13.65
353.999	9.56
354.21	19.8
354.422	-2.73
354.633	-35.5
354.845	21.85
355.057	7.51
355.268	-8.87
355.48	-10.92
355.692	38.23
355.903	38.23
356.115	46.42
356.326	15.7
356.538	27.99
356.749	36.18
356.961	52.56
357.172	38.23
357.384	-4.78
357.595	5.46
357.807	-0.68
358.018	13.65
358.23	5.46
358.441	-29.35
358.653	54.61
358.864	-90.79
359.075	3.41
359.287	7.51
359.498	30.04
359.709	-27.31
359.921	-31.4
360.132	44.37
360.344	48.47
360.555	13.65
360.766	-23.21
360.977	46.42
361.189	89.43
361.4	3.41
361.611	-21.16
361.823	64.85
362.034	50.52
362.245	21.85
362.456	34.13
362.667	3.41
362.879	44.37
363.09	52.56
363.301	27.99
363.512	-35.5
363.723	21.85
363.935	-60.07
364.146	64.85
364.357	-4.78
364.568	23.89
364.779	-0.68
364.99	1.37
365.201	19.8
365.412	60.76
365.623	-62.12
365.834	7.51
366.045	103.76
366.256	40.28
366.467	27.99
366.678	64.85
366.889	-21.16
367.1	21.85
367.311	-19.11
367.522	56.66
367.733	64.85
367.944	27.99
368.155	11.61
368.366	5.46
368.577	3.41
368.788	3.41
368.999	5.46
369.209	44.37
369.42	11.61
369.631	54.61
369.842	11.61
370.053	-17.07
370.264	36.18
370.474	81.24
370.685	-6.83
370.896	3.41
371.107	7.51
371.317	77.14
371.528	7.51
371.739	50.52
371.95	5.46
372.16	-15.02
372.371	44.37
372.582	7.51
372.792	68.95
373.003	73.04
373.214	-31.4
373.424	-6.83
373.635	32.08
373.846	11.61
374.056	7.51
374.267	-49.83
374.477	-78.51
374.688	54.61
374.898	3.41
375.109	36.18
375.319	75.09
375.53	1.37
375.74	-17.07
375.951	-2.73
376.161	15.7
376.372	71
376.582	77.14
376.793	30.04
377.003	85.33
377.214	-6.83
377.424	3.41
377.635	27.99
377.845	-25.26
378.055	32.08
378.266	-25.26
378.476	-8.87
378.686	23.89
378.897	48.47
379.107	15.7
379.317	68.95
379.528	1.37
379.738	7.51
379.948	27.99
380.158	42.32
380.369	60.76
380.579	3.41
380.789	15.7
380.999	50.52
381.21	-4.78
381.42	30.04
381.63	-29.35
381.84	52.56
382.05	77.14
382.261	150.87
382.471	-6.83
382.681	97.62
382.891	-12.97
383.101	56.66
383.311	19.8
383.521	54.61
383.731	50.52
383.941	40.28
384.151	13.65
384.361	73.04
384.571	-8.87
384.781	93.52
384.991	36.18
385.201	-23.21
385.411	-25.26
385.621	27.99
385.831	77.14
386.041	21.85
386.251	34.13
386.461	116.05
386.671	-17.07
386.881	109.91
387.091	19.8
387.301	40.28
387.511	-12.97
387.72	-15.02
387.93	-0.68
388.14	146.77
388.35	52.56
388.56	62.8
388.769	52.56
388.979	54.61
389.189	-23.21
389.399	-10.92
389.609	7.51
389.818	62.8
390.028	7.51
390.238	46.42
390.447	-4.78
390.657	68.95
390.867	48.47
391.076	46.42
391.286	-21.16
391.496	44.37
391.705	-21.16
391.915	58.71
392.125	44.37
392.334	-25.26
392.544	23.89
392.753	89.43
392.963	56.66
393.172	71
393.382	-29.35
393.591	128.34
393.801	19.8
394.01	68.95
394.22	27.99
394.429	48.47
394.639	-19.11
394.848	99.67
395.058	103.76
395.267	52.56
395.477	27.99
395.686	46.42
395.895	44.37
396.105	71
396.314	46.42
396.524	62.8
396.733	105.81
396.942	93.52
397.152	17.75
397.361	142.68
397.57	3.41
397.78	142.68
397.989	87.38
398.198	81.24
398.407	48.47
398.617	-15.02
398.826	15.7
399.035	34.13
399.244	60.76
399.453	60.76
399.663	15.7
399.872	97.62
400.081	52.56
400.29	52.56
400.499	36.18
400.708	-2.73
400.917	87.38
401.127	107.86
401.336	85.33
401.545	120.15
401.754	60.76
401.963	66.9
402.172	27.99
402.381	46.42
402.59	-4.78
402.799	89.43
403.008	-25.26
403.217	62.8
403.426	132.44
403.635	44.37
403.844	154.96
404.053	36.18
404.262	15.7
404.471	116.05
404.68	128.34
404.888	89.43
405.097	105.81
405.306	64.85
405.515	52.56
405.724	130.39
405.933	109.91
406.142	163.15
406.35	85.33
406.559	27.99
406.768	122.2
406.977	93.52
407.185	114
407.394	163.15
407.603	52.56
407.812	105.81
408.02	122.2
408.229	111.96
408.438	52.56
408.646	114
408.855	71
409.064	122.2
409.272	191.83
409.481	136.53
409.69	167.25
409.898	177.49
410.107	62.8
410.315	138.58
410.524	150.87
410.733	208.21
410.941	208.21
411.15	159.06
411.358	232.79
411.567	257.36
411.775	238.93
411.984	245.07
412.192	210.26
412.401	224.59
412.609	238.93
412.818	234.83
413.026	283.99
413.234	349.52
413.443	208.21
413.651	263.51
413.86	314.7
414.068	378.19
414.276	382.29
414.485	384.34
414.693	275.79
414.901	443.73
415.11	347.47
415.318	441.68
415.526	494.93
415.734	384.34
415.943	378.19
416.151	486.73
416.359	458.06
416.567	496.97
416.776	480.59
416.984	558.41
417.192	554.32
417.4	603.47
417.608	496.97
417.817	478.54
418.025	609.61
418.233	628.04
418.441	613.71
418.649	724.3
418.857	650.57
419.065	742.73
419.273	716.11
419.481	691.53
419.689	810.31
419.897	836.94
420.105	814.41
420.313	857.42
420.521	881.99
420.729	920.9
420.937	894.28
421.145	1008.97
421.353	988.49
421.561	1119.56
421.769	1154.37
421.977	1097.03
422.185	1178.95
422.393	1189.19
422.601	1289.54
422.809	1211.71
423.017	1240.39
423.224	1203.52
423.432	1420.61
423.64	1449.28
423.848	1473.85
424.056	1545.53
424.263	1596.73
424.471	1584.45
424.679	1545.53
424.887	1836.35
425.094	1754.43
425.302	1774.91
425.51	1799.48
425.718	1879.35
425.925	1908.02
426.133	1959.22
426.341	2028.85
426.548	2229.56
426.756	2106.68
426.964	2231.6
427.171	2278.71
427.379	2432.3
427.586	2424.11
427.794	2448.69
428.001	2587.95
428.209	2727.21
428.417	2633.01
428.624	2837.8
428.832	3007.78
429.039	2854.19
429.247	2819.37
429.454	3085.61
429.662	3243.3
429.869	3087.65
430.076	3372.32
430.284	3271.97
430.491	3274.02
430.699	3573.02
430.906	3484.96
431.114	3564.83
431.321	3708.19
431.528	3835.16
431.736	3980.57
431.943	4252.95
432.15	4109.59
432.358	4082.97
432.565	4431.12
432.772	4447.51
432.979	4689.17
433.187	4562.19
433.394	4644.11
433.601	5012.74
433.808	5025.03
434.016	5102.86
434.223	5246.21
434.43	5506.31
434.637	5418.24
434.844	5702.91
435.052	5805.31
435.259	5840.12
435.466	5891.32
435.673	5786.88
435.88	6198.52
436.087	6354.16
436.294	6423.8
436.501	6333.68
436.708	6360.31
436.915	6687.98
437.122	7044.33
437.329	7015.66
437.537	7202.02
437.743	7380.2
437.95	7208.17
438.157	7630.05
438.364	7722.21
438.571	7687.39
438.778	8060.12
438.985	8617.17
439.192	8465.62
439.399	8557.78
439.606	8389.85
439.813	8875.21
440.02	9520.32
440.227	9243.85
440.433	9051.34
440.64	9452.74
440.847	9346.25
441.054	9661.63
441.261	10368.18
441.467	10237.11
441.674	10415.29
441.881	10738.87
442.088	10726.58
442.294	10620.08
442.501	10562.74
442.708	11062.44
442.914	11410.6
443.121	11836.58
443.328	11644.07
443.534	12739.73
443.741	12072.09
443.948	11984.03
444.154	12848.27
444.361	12690.58
444.568	12803.22
444.774	12770.45
444.981	13018.25
445.187	13384.84
445.394	13804.67
445.6	14011.52
445.807	15158.38
446.013	14441.59
446.22	14668.92
446.426	15381.61
446.633	15502.44
446.839	16002.15
447.046	15199.34
447.252	16184.41
447.459	16018.53
447.665	16002.15
447.871	16768.09
448.078	17421.39
448.284	16616.54
448.491	17216.59
448.697	17392.72
448.903	17925.19
449.11	18220.1
449.316	17974.34
449.522	18261.05
449.728	18633.78
449.935	18785.33
450.141	18971.7
450.347	19274.8
450.553	18619.45
450.76	18949.17
450.966	19399.73
451.172	19258.42
451.378	19997.73
451.584	19311.66
451.791	19588.14
451.997	19940.39
452.203	20153.38
452.409	20194.34
452.615	19940.39
452.821	19205.17
453.027	19100.72
453.233	19794.98
453.44	19313.71
453.646	19272.75
453.852	19653.67
454.058	19606.57
454.264	19426.35
454.47	19590.19
454.676	19160.11
454.882	19579.95
455.088	17970.24
455.294	18416.7
455.5	18828.34
455.705	18988.08
455.911	17855.56
456.117	17566.79
456.323	17570.89
456.529	16485.47
456.735	17331.28
456.941	16559.19
457.147	16426.07
457.352	16082.02
457.558	15797.35
457.764	15950.95
457.97	15643.75
458.176	15123.57
458.381	15189.1
458.587	14249.08
458.793	14546.04
458.999	13796.48
459.204	14611.57
459.41	14564.47
459.616	13452.42
459.821	13495.43
460.027	13425.8
460.233	13079.69
460.438	12481.69
460.644	12608.66
460.85	12102.81
461.055	11912.35
461.261	11746.47
461.466	11089.07
461.672	10552.5
461.878	11328.68
462.083	10808.5
462.289	10439.86
462.494	10343.61
462.7	10026.17
462.905	9542.85
463.111	9761.98
463.316	10001.6
463.522	9622.72
463.727	9868.48
463.932	9745.6
464.138	9739.46
464.343	9807.04
464.549	9465.03
464.754	9733.31
464.959	9643.2
465.165	9417.93
465.37	9215.18
465.575	8903.89
465.781	9381.06
465.986	9309.38
466.191	9075.91
466.397	8910.03
466.602	8502.48
466.807	8869.07
467.012	8774.86
467.218	8694.99
467.423	8568.02
467.628	8748.24
467.833	9034.96
468.038	8643.79
468.244	8641.75
468.449	8645.84
468.654	8404.18
468.859	8383.7
469.064	8371.41
469.269	8201.43
469.474	8090.84
469.679	8324.31
469.885	7998.68
470.09	8189.14
470.295	8137.95
470.5	7875.81
470.705	7937.24
470.91	7800.03
471.115	7611.62
471.32	8033.5
471.525	7609.57
471.73	7605.47
471.935	7515.36
472.139	7331.05
472.344	7392.48
472.549	7453.92
472.754	7242.98
472.959	7165.16
473.164	6851.82
473.369	6941.93
473.574	7304.42
473.778	7105.77
473.983	7060.71
474.188	6845.68
474.393	6704.37
474.598	6671.6
474.802	6548.72
475.007	6358.26
475.212	6597.87
475.417	6382.84
475.621	6290.68
475.826	6460.66
476.031	6311.16
476.235	6208.76
476.44	6208.76
476.645	6137.08
476.849	5909.76
477.054	5991.67
477.259	5942.52
477.463	5737.73
477.668	5723.39
477.872	5795.07
478.077	5604.61
478.282	5520.64
478.486	5629.18
478.691	5510.4
478.895	5678.33
479.1	5547.26
479.304	5477.63
479.509	5352.71
479.713	5379.33
479.918	5379.33
480.122	5387.52
480.326	5477.63
480.531	5379.33
480.735	5305.6
480.94	5149.96
481.144	5389.57
481.348	5256.45
481.553	5147.91
481.757	5020.94
481.961	5035.27
482.166	5258.5
482.37	5246.21
482.574	5184.77
482.778	5051.66
482.983	5152.01
483.187	5068.04
483.391	5207.3
483.595	5047.56
483.8	5016.84
484.004	5205.25
484.208	5125.38
484.412	5113.1
484.616	5278.98
484.821	5121.29
485.025	5020.94
485.229	5027.08
485.433	4953.35
485.637	5111.05
485.841	5135.62
486.045	5096.71
486.249	5123.34
486.453	5070.09
486.657	4979.98
486.861	5057.8
487.065	4906.25
487.269	5209.35
487.473	4893.96
487.677	5119.24
487.881	5090.57
488.085	5100.81
488.289	5152.01
488.493	5000.46
488.697	5178.63
488.901	5139.72
489.105	5287.17
489.309	5131.53
489.512	5174.53
489.716	5049.61
489.92	5190.92
490.124	5278.98
490.328	5291.27
490.531	5238.02
490.735	5293.32
490.939	5223.69
491.143	5330.18
491.346	5174.53
491.55	5420.29
491.754	5217.54
491.958	5451.01
492.161	5428.48
492.365	5324.04
492.569	5340.42
492.772	5211.4
492.976	5467.39
493.18	5565.7
493.383	5559.55
493.587	5782.78
493.79	5606.66
493.994	5559.55
494.197	5707.01
494.401	5758.21
494.605	5799.16
494.808	5833.98
495.012	5831.93
495.215	5940.47
495.419	5911.8
495.622	5919.99
495.825	5848.32
496.029	5895.42
496.232	6030.59
496.436	6233.33
496.639	6317.3
496.843	6229.24
497.046	6339.83
497.249	6395.12
497.453	6544.63
497.656	6518
497.859	6599.92
498.063	6735.09
498.266	6876.4
498.469	6769.9
498.673	6870.25
498.876	6970.6
499.079	7261.41
499.282	6900.97
499.485	7259.37
499.689	7349.48
499.892	7392.48
500.095	7376.1
500.298	7511.27
500.501	7572.71
500.705	7699.68
500.908	7828.7
501.111	7941.34
501.314	8060.12
501.517	8180.95
501.72	8357.08
501.923	8217.82
502.126	8418.52
502.329	8488.15
502.532	8676.56
502.735	8436.95
502.938	8807.63
503.141	8842.45
503.344	8875.21
503.547	9194.7
503.75	9245.9
503.953	9358.53
504.156	9262.28
504.359	9592
504.562	9540.8
504.765	9905.34
504.968	9995.45
505.17	9927.87
505.373	9948.35
505.576	10384.57
505.779	10396.85
505.982	10433.72
506.185	10663.09
506.387	10773.68
506.59	10841.26
506.793	11211.95
506.996	10914.99
507.198	11449.51
507.401	11234.47
507.604	11367.59
507.807	11799.71
508.009	11947.17
508.212	11883.68
508.415	12018.85
508.617	12313.75
508.82	12373.14
509.022	12237.98
509.225	12803.22
509.428	12862.61
509.63	13014.16
509.833	13204.62
510.035	13249.68
510.238	13245.58
510.44	13569.16
510.643	13851.78
510.845	13986.94
511.048	14062.72
511.25	14392.44
511.453	14290.04
511.655	14937.2
511.858	14720.12
512.06	14912.63
512.262	14984.3
512.465	15215.73
512.667	15600.74
512.87	15592.55
513.072	15653.99
513.274	16026.72
513.477	16286.81
513.679	16391.26
513.881	16546.9
514.084	16604.25
514.286	16833.62
514.488	17218.64
514.69	17280.08
514.893	17585.22
515.095	17710.15
515.297	17966.15
515.499	18082.88
515.701	18332.73
515.904	18148.42
516.106	18443.32
516.308	18533.43
516.51	19190.83
516.712	19205.17
516.914	19375.15
517.116	19719.21
517.318	19682.34
517.52	20180
517.722	20073.51
517.925	20427.81
518.127	20644.89
518.329	20859.93
518.531	20915.22
518.733	21359.63
518.935	21670.92
519.136	21419.02
519.338	21906.44
519.54	22101
519.742	22692.86
519.944	22232.07
520.146	22868.98
520.348	22848.5
520.55	22987.77
520.752	23260.15
520.954	23555.05
521.155	23387.12
521.357	24292.32
521.559	24320.99
521.761	24583.13
521.963	24331.23
522.164	24599.52
522.366	24644.57
522.568	25119.7
522.77	25158.61
522.971	25697.23
523.173	25553.87
523.375	25678.8
523.576	25730
523.778	26088.39
523.98	26620.86
524.181	26708.93
524.383	26491.84
524.584	26614.72
524.786	27272.12
524.988	26991.55
525.189	27403.19
525.391	27354.04
525.592	27612.08
525.794	27855.79
525.995	27769.77
526.197	28101.54
526.398	28201.89
526.6	28281.77
526.801	28249
527.003	28584.87
527.204	28717.98
527.406	28965.79
527.607	29129.62
527.808	29215.64
528.01	28922.78
528.211	29293.46
528.412	29684.62
528.614	29899.66
528.815	29688.72
529.016	29868.94
529.218	29684.62
529.419	29455.25
529.62	30051.21
529.822	29760.4
530.023	30045.07
530.224	29954.96
530.425	30061.45
530.626	29807.5
530.828	30002.06
531.029	30681.99
531.23	30270.34
531.431	30546.82
531.632	30833.53
531.833	30598.02
532.035	30811.01
532.236	30548.87
532.437	30878.59
532.638	30712.7
532.839	30665.6
533.04	30931.84
533.241	30706.56
533.442	31259.51
533.643	31218.55
533.844	31060.86
534.045	31175.55
534.246	30849.92
534.447	31507.32
534.648	30835.58
534.849	30974.84
535.05	30530.44
535.251	31460.21
535.451	31015.8
535.652	31259.51
535.853	31030.14
536.054	31394.68
536.255	31204.22
536.456	30892.93
536.657	31636.34
536.857	31101.82
537.058	30876.54
537.259	31646.58
537.46	31570.8
537.66	30995.32
537.861	31282.04
538.062	31187.83
538.263	30944.13
538.463	31409.01
538.664	31083.39
538.865	31746.93
539.065	31775.6
539.266	31419.25
539.466	31622
539.667	30860.16
539.868	31363.96
540.068	31380.34
540.269	31118.2
540.469	31314.81
540.67	31118.2
540.87	30987.13
541.071	31130.49
541.271	31447.93
541.472	31015.8
541.672	31077.24
541.873	31275.9
542.073	30964.6
542.274	31335.29
542.474	31325.05
542.675	30790.53
542.875	31404.92
543.075	31269.75
543.276	31159.16
543.476	31560.56
543.676	30927.74
543.877	31644.53
544.077	31460.21
544.277	30833.53
544.478	31470.45
544.678	31333.24
544.878	31116.15
545.078	31017.85
545.279	31261.56
545.479	30946.17
545.679	31255.42
545.879	31648.63
546.079	31308.66
546.28	31003.52
546.48	30804.86
546.68	31298.42
546.88	31181.69
547.08	31300.47
547.28	31282.04
547.48	30987.13
547.68	31263.61
547.88	30831.49
548.081	31507.32
548.281	31228.79
548.481	30899.07
548.681	31282.04
548.881	31454.07
549.081	31103.87
549.28	31040.38
549.48	31394.68
549.68	31073.15
549.88	31103.87
550.08	30903.17
550.28	31193.98
550.48	31028.09
550.68	31376.25
550.88	31144.83
551.08	31206.27
551.279	31265.66
551.479	30929.79
551.679	31159.16
551.879	30976.89
552.079	31329.14
552.278	31214.46
552.478	31130.49
552.678	31122.3
552.878	31259.51
553.077	30888.83
553.277	30788.48
553.477	31163.26
553.676	30493.57
553.876	31009.66
554.076	30894.97
554.275	30972.8
554.475	30724.99
554.674	30931.84
554.874	30647.17
555.074	30624.64
555.273	31034.24
555.473	30761.86
555.672	30839.68
555.872	30739.33
556.071	30593.92
556.271	30446.47
556.47	30323.59
556.67	30600.07
556.869	30462.85
557.068	30626.69
557.268	30380.93
557.467	30382.98
557.667	30444.42
557.866	30311.3
558.065	30167.94
558.265	30188.42
558.464	29995.92
558.663	30278.54
558.863	29563.79
559.062	30045.07
559.261	29756.3
559.461	30286.73
559.66	29995.92
559.859	30133.13
560.058	29623.19
560.258	29637.52
560.457	29979.53
560.656	29911.95
560.855	29801.36
561.054	30034.83
561.253	29643.66
561.453	29803.41
561.652	29660.05
561.851	29711.25
562.05	29299.61
562.249	29178.78
562.448	29397.91
562.647	29338.52
562.846	29229.98
563.045	29547.41
563.244	28750.75
563.443	29287.32
563.642	28939.16
563.841	29303.7
564.04	29090.71
564.239	29213.59
564.438	28732.32
564.637	28926.88
564.836	28973.98
565.035	28507.04
565.234	28720.03
565.432	28599.2
565.631	28498.85
565.83	28554.15
566.029	28400.55
566.228	28380.07
566.427	28421.03
566.625	28345.25
566.824	28152.74
567.023	28423.08
567.222	27780.01
567.42	28271.53
567.619	27863.98
567.818	27771.82
568.016	27872.17
568.215	28089.26
568.414	27700.14
568.612	28052.39
568.811	27476.91
569.01	27456.43
569.208	27194.29
569.407	27362.23
569.605	27032.5
569.804	27538.35
570.002	27081.66
570.201	27286.45
570.4	27001.79
570.598	26872.76
570.797	26801.08
570.995	26907.58
571.193	26620.86
571.392	26764.22
571.59	26538.94
571.789	26530.75
571.987	26285
572.186	26348.48
572.384	26176.45
572.582	26432.45
572.781	26248.13
572.979	26037.19
573.177	25844.68
573.376	25744.33
573.574	25834.44
573.772	25879.5
573.971	25598.93
574.169	25600.97
574.367	25703.37
574.565	25701.33
574.763	25265.11
574.962	25056.22
575.16	25285.59
575.358	25611.21
575.556	24712.16
575.754	25230.29
575.952	24945.62
576.151	24984.54
576.349	24812.51
576.547	24957.91
576.745	24751.07
576.943	24761.31
577.141	24550.37
577.339	24697.82
577.537	24179.68
577.735	24146.92
577.933	24232.93
578.131	24042.47
578.329	24132.58
578.527	23962.6
578.725	24009.7
578.923	24206.31
579.121	23667.69
579.319	23550.96
579.516	23858.15
579.714	23493.61
579.912	23624.68
580.11	23129.08
580.308	23596.01
580.506	23583.73
580.704	22987.77
580.901	23342.07
581.099	23274.48
581.297	23170.04
581.495	22942.71
581.692	23043.06
581.89	22803.45
582.088	22842.36
582.285	22348.8
582.483	22563.84
582.681	22832.12
582.878	22696.95
583.076	22119.43
583.274	22406.14
583.471	22129.67
583.669	22473.73
583.866	22141.96
584.064	22381.57
584.262	22148.1
584.459	22252.55
584.657	21941.25
584.854	21773.32
585.052	21257.23
585.249	21838.86
585.447	21736.46
585.644	21603.34
585.841	21562.38
586.039	21879.82
586.236	21480.46
586.434	21195.79
586.631	21160.98
586.828	21132.31
587.026	21347.34
587.223	21181.46
587.42	20960.28
587.618	21197.84
587.815	20726.81
588.012	20892.69
588.21	20786.2
588.407	20691.99
588.604	20960.28
588.801	20436
588.999	20696.09
589.196	20589.6
589.393	20425.76
589.59	20204.58
589.787	20288.54
589.984	20282.4
590.182	19797.03
590.379	20251.68
590.576	20024.36
590.773	19778.6
590.97	19776.55
591.167	20106.27
591.364	19696.68
591.561	20180
591.758	19631.15
591.955	19620.91
592.152	19708.97
592.349	19477.55
592.546	19393.58
592.743	19467.31
592.94	19369.01
593.137	19412.01
593.334	19192.88
593.531	18994.23
593.727	19258.42
593.924	19217.46
594.121	18938.93
594.318	19119.15
594.515	18822.2
594.712	19086.39
594.908	18684.98
595.105	18891.83
595.302	18687.03
595.499	18889.78
595.696	18566.2
595.892	18179.14
596.089	18592.83
596.286	18420.8
596.482	18304.06
596.679	18291.77
596.876	18488.38
597.072	17945.67
597.269	17859.65
597.466	17826.89
597.662	18240.58
597.859	18066.5
598.055	17853.51
598.252	18101.31
598.448	18052.16
598.645	17693.77
598.841	17648.71
599.038	17579.08
599.234	17615.94
599.431	17443.92
599.627	17390.67
599.824	17491.02
600.02	17349.71
600.217	17488.97
600.413	17206.35
600.609	17056.85
600.806	17116.24
601.002	17060.94
601.198	17134.67
601.395	16716.89
601.591	17222.73
601.787	16878.68
601.984	16671.83
602.18	16991.31
602.376	16673.88
602.572	16753.75
602.769	16555.1
602.965	16499.8
603.161	16372.83
603.357	16362.59
603.553	16589.91
603.75	16344.16
603.946	16309.34
604.142	16340.06
604.338	15965.28
604.534	16233.57
604.73	16018.53
604.926	15955.04
605.122	16323.68
605.318	15991.91
605.514	15797.35
605.71	15717.48
605.906	15570.02
606.102	15582.31
606.298	15721.57
606.494	15539.3
606.69	15404.14
606.886	15588.46
607.082	15287.4
607.278	15465.58
607.474	15133.81
607.67	15537.26
607.866	14972.02
608.062	15322.22
608.257	15088.75
608.453	15176.81
608.649	15268.97
608.845	15045.74
609.041	14982.26
609.236	15215.73
609.432	14912.63
609.628	14791.8
609.824	14732.4
610.019	14738.55
610.215	14693.49
610.411	14781.56
610.606	14630.01
610.802	14699.64
610.998	14589.05
611.193	14566.52
611.389	14453.88
611.584	14546.04
611.78	14374.01
611.976	14431.35
612.171	14365.82
612.367	14171.26
612.562	14228.6
612.758	13952.13
612.953	14034.05
613.149	14240.89
613.344	14087.29
613.539	13948.03
613.735	14011.52
613.93	13937.79
614.126	13622.41
614.321	14036.1
614.517	13849.73
614.712	13874.31
614.907	13628.55
615.103	13667.46
615.298	13507.72
615.493	13821.06
615.688	13589.64
615.884	13794.43
616.079	13403.27
616.274	13702.28
616.47	13294.73
616.665	13616.26
616.86	13366.41
617.055	13341.83
617.25	13313.16
617.445	13522.05
617.641	13042.83
617.836	13352.07
618.031	12821.65
618.226	13106.32
618.421	12991.63
618.616	13116.56
618.811	12815.51
619.006	12924.05
619.201	12807.31
619.396	12661.91
619.591	12342.42
619.786	12792.98
619.981	12551.32
620.176	12706.96
620.371	12412.06
620.566	12405.91
620.761	12385.43
620.956	12522.65
621.151	12186.78
621.346	12176.54
621.541	12045.47
621.735	12059.81
621.93	11971.74
622.125	11918.5
622.32	11873.44
622.515	11840.67
622.709	11644.07
622.904	11711.65
623.099	11611.3
623.294	11521.19
623.488	11676.84
623.683	11539.62
623.878	11365.54
624.072	11293.86
624.267	11332.78
624.462	11388.07
624.656	11119.79
624.851	11222.19
625.046	10929.33
625.24	10812.59
625.435	10859.7
625.629	10886.32
625.824	10929.33
626.018	10904.75
626.213	10370.23
626.407	10712.24
626.602	10423.48
626.796	10556.6
626.991	10513.59
627.185	10263.74
627.38	10372.28
627.574	10187.96
627.768	10376.38
627.963	10075.32
628.157	10144.95
628.352	9946.3
628.546	9852.09
628.74	10087.61
628.935	9686.21
629.129	9985.21
629.323	9843.9
629.517	9954.49
629.712	9843.9
629.906	9561.28
630.1	9551.04
630.294	9665.73
630.489	9301.19
630.683	9331.91
630.877	9311.43
631.071	9458.89
631.265	9260.23
631.459	9282.76
631.653	8953.04
631.848	9106.63
632.042	9231.56
632.236	9041.1
632.43	9129.16
632.624	9190.6
632.818	9047.24
633.012	8774.86
633.206	9032.91
633.4	8768.72
633.594	8725.71
633.788	8742.1
633.982	8637.65
634.176	8563.92
634.369	8572.11
634.563	8506.58
634.757	8402.13
634.951	8457.43
635.145	8553.68
635.339	8400.09
635.533	8248.54
635.726	8389.85
635.92	8142.04
636.114	8127.71
636.308	8135.9
636.501	8064.22
636.695	8101.08
636.889	7974.11
637.083	8096.99
637.276	7916.76
637.47	7894.24
637.664	7816.41
637.857	7869.66
638.051	7793.89
638.244	7560.42
638.438	7726.3
638.632	7582.95
638.825	7601.38
639.019	7404.77
639.212	7503.07
639.406	7535.84
639.599	7546.08
639.793	7423.2
639.986	7183.59
640.18	7285.99
640.373	7111.91
640.567	7197.93
640.76	7206.12
640.954	7116.01
641.147	6935.79
641.34	7165.16
641.534	7017.71
641.727	7101.67
641.92	6857.96
642.114	6989.03
642.307	6888.68
642.5	6860.01
642.694	6743.28
642.887	6640.88
643.08	6513.91
643.273	6657.26
643.467	6757.61
643.66	6434.04
643.853	6507.76
644.046	6403.32
644.239	6423.8
644.432	6323.44
644.626	6196.47
644.819	6206.71
645.012	6262.01
645.205	6237.43
645.398	6257.91
645.591	6020.35
645.784	5958.91
645.977	5887.23
646.17	6055.16
646.363	6006.01
646.556	5881.08
646.749	6042.87
646.942	5944.57
647.135	5778.69
647.328	5836.03
647.521	5764.35
647.714	5645.57
647.907	5719.29
648.099	5580.03
648.292	5635.33
648.485	5547.26
648.678	5598.46
648.871	5616.9
649.064	5475.59
649.256	5319.94
649.449	5481.73
649.642	5526.78
649.835	5324.04
650.027	5360.9
650.22	5360.9
650.413	5240.07
650.605	5186.82
650.798	5235.97
650.991	5137.67
651.183	5076.23
651.376	5043.46
651.568	5045.51
651.761	5047.56
651.954	5070.09
652.146	5049.61
652.339	4928.78
652.531	5086.47
652.724	4928.78
652.916	4775.18
653.109	4859.15
653.301	4799.76
653.494	4783.37
653.686	4680.97
653.879	4787.47
654.071	4691.21
654.263	4594.96
654.456	4625.68
654.648	4611.34
654.84	4560.14
655.033	4439.31
655.225	4420.88
655.417	4547.86
655.61	4490.51
655.802	4474.13
655.994	4494.61
656.186	4420.88
656.379	4422.93
656.571	4287.76
656.763	4320.53
656.955	4289.81
657.148	4304.15
657.34	4132.12
657.532	4248.85
657.724	4222.23
657.916	4193.56
658.108	4164.89
658.3	4021.53
658.492	4035.86
658.684	4042.01
658.876	3992.86
659.068	3968.28
659.26	3943.71
659.452	3999
659.644	3904.79
659.836	3898.65
660.028	3790.11
660.22	3697.95
660.412	3796.25
660.604	3869.98
660.796	3833.11
660.988	3820.83
661.18	3693.85
661.372	3558.69
661.563	3732.76
661.755	3622.17
661.947	3603.74
662.139	3628.32
662.331	3466.53
662.522	3484.96
662.714	3564.83
662.906	3460.38
663.097	3499.3
663.289	3491.1
663.481	3503.39
663.673	3542.3
663.864	3271.97
664.056	3228.96
664.247	3253.54
664.439	3347.75
664.631	3282.21
664.822	3290.4
665.014	3138.85
665.205	3284.26
665.397	3294.5
665.588	3265.83
665.78	3134.76
665.971	3116.33
666.163	3224.87
666.354	3224.87
666.546	3077.41
666.737	3095.85
666.929	3052.84
667.12	3024.17
667.311	3095.85
667.503	3075.37
667.694	3056.93
667.885	2964.78
668.077	2972.97
668.268	2891.05
668.459	3058.98
668.651	2977.06
668.842	2817.32
669.033	3101.99
669.224	2884.91
669.416	2856.23
669.607	2868.52
669.798	2829.61
669.989	2862.38
670.18	2839.85
670.371	2819.37
670.563	2856.23
670.754	2684.2
670.945	2680.11
671.136	2712.88
671.327	2796.84
671.518	2768.17
671.709	2764.08
671.9	2784.55
672.091	2692.4
672.282	2514.22
672.473	2733.36
672.664	2653.48
672.855	2669.87
673.046	2723.12
673.237	2596.14
673.428	2782.51
673.619	2655.53
673.809	2557.23
674	2626.86
674.191	2581.81
674.382	2485.55
674.573	2512.17
674.764	2553.13
674.954	2657.58
675.145	2536.75
675.336	2651.44
675.527	2485.55
675.717	2594.09
675.908	2407.73
676.099	2590
676.289	2481.46
676.48	2432.3
676.671	2512.17
676.861	2405.68
677.052	2495.79
677.243	2452.78
677.433	2395.44
677.624	2571.57
677.814	2446.64
678.005	2581.81
678.195	2389.3
678.386	2409.78
678.576	2487.6
678.767	2389.3
678.957	2503.98
679.148	2422.06
679.338	2383.15
679.529	2374.96
679.719	2387.25
679.909	2417.97
680.1	2405.68
680.29	2377.01
680.481	2395.44
680.671	2276.66
680.861	2360.63
681.052	2422.06
681.242	2395.44
681.432	2440.5
681.622	2334
681.813	2407.73
682.003	2321.71
682.193	2272.56
682.383	2338.1
682.573	2368.82
682.764	2354.48
682.954	2364.72
683.144	2315.57
683.334	2313.52
683.524	2364.72
683.714	2247.99
683.904	2278.71
684.094	2221.36
684.284	2315.57
684.474	2202.93
684.664	2225.46
684.854	2129.2
685.044	2372.91
685.234	2241.84
685.424	2243.89
685.614	2166.07
685.804	2344.24
685.994	2180.4
686.184	2215.22
686.374	2278.71
686.564	2297.14
686.753	2243.89
686.943	2215.22
687.133	2202.93
687.323	2399.54
687.513	2307.38
687.702	2250.03
687.892	2250.03
688.082	2213.17
688.272	2143.54
688.461	2131.25
688.651	2223.41
688.841	2192.69
689.03	2252.08
689.22	2121.01
689.41	2182.45
689.599	2186.55
689.789	2145.59
689.979	2247.99
690.168	2209.08
690.358	2157.88
690.547	2262.32
690.737	2174.26
690.926	2194.74
691.116	2178.36
691.305	2309.43
691.495	2086.2
691.684	2075.96
691.874	2123.06
692.063	2108.73
692.252	2086.2
692.442	2118.97
692.631	2094.39
692.82	2227.51
693.01	2166.07
693.199	2059.57
693.388	2110.77
693.578	2219.32
693.767	2188.6
693.956	2096.44
694.146	2192.69
694.335	2088.25
694.524	2084.15
694.713	2135.35
694.902	2276.66
695.092	2110.77
695.281	2071.86
695.47	2276.66
695.659	2137.4
695.848	2145.59
696.037	2133.3
696.226	2315.57
696.415	2213.17
696.604	2069.81
696.793	2092.34
696.982	2166.07
697.171	2153.78
697.36	2245.94
697.549	2149.68
697.738	2118.97
697.927	2207.03
698.116	2065.72
698.305	2180.4
698.494	2170.16
698.683	2176.31
698.872	2168.12
699.061	2161.97
699.25	2080.05
699.438	2211.12
699.627	2196.79
699.816	2219.32
700.005	2225.46
700.193	2047.29
700.382	2108.73
700.571	2198.84
700.76	2137.4
700.948	2110.77
701.137	2051.38
701.326	2092.34
701.514	2149.68
701.703	2125.11
701.892	2061.62
702.08	2078.01
702.269	2192.69
702.457	2149.68
702.646	2078.01
702.834	2147.64
703.023	2139.44
703.212	2252.08
703.4	2088.25
703.589	1998.13
703.777	2028.85
703.965	2022.71
704.154	2037.05
704.342	2080.05
704.531	2047.29
704.719	2080.05
704.907	2067.77
705.096	1940.79
705.284	2067.77
705.472	1928.5
705.661	1961.27
705.849	2039.09
706.037	2053.43
706.226	1891.64
706.414	2020.66
706.602	1989.94
706.79	1932.6
706.979	1961.27
707.167	2047.29
707.355	2026.81
707.543	1916.22
707.731	2037.05
707.919	1953.08
708.107	1873.21
708.296	2008.37
708.484	1838.39
708.672	1985.85
708.86	1916.22
709.048	1961.27
709.236	1961.27
709.424	1920.31
709.612	1946.94
709.8	1938.74
709.988	1961.27
710.176	1844.54
710.364	1930.55
710.551	1951.03
710.739	1887.54
710.927	1905.98
711.115	1901.88
711.303	1815.87
711.491	1819.96
711.679	1746.23
711.866	1871.16
712.054	1776.95
712.242	1799.48
712.43	1826.11
712.617	1819.96
712.805	1805.63
712.993	1744.19
713.181	1826.11
713.368	1785.15
713.556	1842.49
713.744	1832.25
713.931	1766.71
714.119	1748.28
714.306	1840.44
714.494	1787.19
714.682	1742.14
714.869	1699.13
715.057	1658.17
715.244	1649.98
715.432	1731.9
715.619	1674.56
715.807	1668.41
715.994	1727.8
716.182	1703.23
716.369	1703.23
716.556	1647.93
716.744	1576.25
716.931	1746.23
717.119	1641.79
717.306	1652.03
717.493	1637.69
717.681	1676.6
717.868	1645.88
718.055	1735.99
718.242	1654.08
718.43	1654.08
718.617	1637.69
718.804	1635.64
718.991	1486.14
719.179	1590.59
719.366	1621.31
719.553	1617.21
719.74	1568.06
719.927	1453.38
720.114	1527.1
720.301	1568.06
720.488	1695.04
720.676	1447.23
720.863	1543.49
721.05	1572.16
721.237	1551.68
721.424	1441.09
721.611	1475.9
721.798	1469.76
721.985	1490.24
722.172	1504.57
722.358	1510.72
722.545	1535.29
722.732	1588.54
722.919	1477.95
723.106	1504.57
723.293	1439.04
723.48	1471.81
723.667	1471.81
723.853	1396.03
724.04	1414.46
724.227	1381.7
724.414	1426.75
724.6	1365.31
724.787	1342.78
724.974	1381.7
725.161	1404.22
725.347	1318.21
725.534	1416.51
725.72	1396.03
725.907	1344.83
726.094	1461.57
726.28	1361.22
726.467	1371.46
726.653	1387.84
726.84	1332.55
727.027	1436.99
727.213	1297.73
727.4	1348.93
727.586	1285.44
727.773	1340.74
727.959	1355.07
728.145	1287.49
728.332	1404.22
728.518	1283.39
728.705	1398.08
728.891	1244.48
729.077	1283.39
729.264	1240.39
729.45	1285.44
729.636	1361.22
729.823	1365.31
730.009	1264.96
730.195	1340.74
730.382	1318.21
730.568	1291.59
730.754	1314.11
730.94	1344.83
731.126	1234.24
731.313	1273.15
731.499	1224
731.685	1267.01
731.871	1201.47
732.057	1205.57
732.243	1240.39
732.429	1119.56
732.615	1250.63
732.801	1174.85
732.987	1201.47
733.173	1287.49
733.359	1240.39
733.545	1076.55
733.731	1271.11
733.917	1172.8
734.103	1283.39
734.289	1191.24
734.475	1137.99
734.661	1189.19
734.847	1234.24
735.033	1207.62
735.219	1178.95
735.404	1252.67
735.59	1076.55
735.776	1238.34
735.962	1056.07
736.148	1178.95
736.333	1092.93
736.519	1236.29
736.705	1133.89
736.89	1162.56
737.076	1107.27
737.262	1092.93
737.447	1148.23
737.633	1074.5
737.819	1094.98
738.004	1135.94
738.19	1037.64
738.375	1162.56
738.561	994.63
738.747	1006.92
738.932	1078.6
739.118	1051.97
739.303	1029.45
739.489	1076.55
739.674	1064.26
739.859	1008.97
740.045	1090.88
740.23	1064.26
740.416	1035.59
740.601	1060.17
740.786	1029.45
740.972	1027.4
741.157	1045.83
741.342	988.49
741.528	982.34
741.713	1058.12
741.898	982.34
742.084	1013.06
742.269	1027.4
742.454	1025.35
742.639	986.44
742.824	1027.4
743.01	859.46
743.195	1074.5
743.38	951.62
743.565	947.53
743.75	892.23
743.935	990.53
744.12	1013.06
744.305	1004.87
744.49	929.1
744.675	875.85
744.86	982.34
745.045	963.91
745.23	943.43
745.415	941.38
745.6	925
745.785	894.28
745.97	892.23
746.155	855.37
746.34	939.34
746.525	1019.21
746.71	826.7
746.895	896.33
747.079	806.22
747.264	869.7
747.449	884.04
747.634	902.47
747.819	871.75
748.003	781.64
748.188	793.93
748.373	904.52
748.557	904.52
748.742	855.37
748.927	937.29
749.111	871.75
749.296	818.5
749.481	814.41
749.665	767.31
749.85	861.51
750.034	847.18
750.219	832.84
750.404	777.55
750.588	873.8
750.773	675.15
750.957	732.49
751.141	752.97
751.326	789.83
751.51	699.72
751.695	730.44
751.879	734.54
752.064	832.84
752.248	732.49
752.432	705.87
752.617	800.07
752.801	771.4
752.985	691.53
753.17	650.57
753.354	759.11
753.538	654.67
753.722	761.16
753.907	720.2
754.091	705.87
754.275	701.77
754.459	640.33
754.643	634.19
754.828	752.97
755.012	716.11
755.196	675.15
755.38	732.49
755.564	705.87
755.748	656.72
755.932	656.72
756.116	707.91
756.3	685.39
756.484	681.29
756.668	607.56
756.852	687.43
757.036	634.19
757.22	654.67
757.404	597.32
757.588	587.08
757.772	619.85
757.956	572.75
758.14	609.61
758.323	648.52
758.507	523.6
758.691	519.5
758.875	626
759.059	632.14
759.242	619.85
759.426	644.43
759.61	529.74
759.794	542.03
759.977	505.17
760.161	578.89
760.345	492.88
760.528	458.06
760.712	525.65
760.895	519.5
761.079	599.37
761.263	488.78
761.446	595.28
761.63	435.53
761.813	533.84
761.997	550.22
762.18	482.64
762.364	558.41
762.547	480.59
762.731	568.65
762.914	437.58
763.098	515.41
763.281	513.36
763.464	501.07
763.648	494.93
763.831	564.56
764.015	425.29
764.198	394.58
764.381	472.4
764.564	433.49
764.748	527.69
764.931	505.17
765.114	462.16
765.297	478.54
765.481	421.2
765.664	544.08
765.847	451.92
766.03	445.77
766.213	449.87
766.397	462.16
766.58	431.44
766.763	503.12
766.946	531.79
767.129	537.93
767.312	427.34
767.495	511.31
767.678	494.93
767.861	456.01
768.044	494.93
768.227	425.29
768.41	433.49
768.593	431.44
768.776	380.24
768.959	419.15
769.142	437.58
769.324	392.53
769.507	486.73
769.69	478.54
769.873	415.06
770.056	492.88
770.239	417.1
770.421	421.2
770.604	308.56
770.787	449.87
770.97	355.66
771.152	384.34
771.335	433.49
771.518	464.21
771.7	490.83
771.883	417.1
772.066	326.99
772.248	370
772.431	466.25
772.613	435.53
772.796	435.53
772.978	380.24
773.161	333.14
773.343	355.66
773.526	394.58
773.708	419.15
773.891	355.66
774.073	384.34
774.256	460.11
774.438	367.95
774.621	347.47
774.803	390.48
774.985	390.48
775.168	374.1
775.35	378.19
775.532	390.48
775.715	359.76
775.897	326.99
776.079	388.43
776.261	372.05
776.444	298.32
776.626	413.01
776.808	236.88
776.99	353.62
777.173	320.85
777.355	359.76
777.537	277.84
777.719	408.91
777.901	314.7
778.083	331.09
778.265	349.52
778.447	333.14
778.629	337.23
778.811	339.28
778.993	343.38
779.175	335.18
779.357	337.23
779.539	273.75
779.721	310.61
779.903	277.84
780.085	345.42
780.267	273.75
780.449	240.98
780.631	322.9
780.812	335.18
780.994	292.18
781.176	281.94
781.358	322.9
781.54	271.7
781.721	343.38
781.903	310.61
782.085	306.51
782.267	236.88
782.448	261.46
782.63	314.7
782.812	275.79
782.993	224.59
783.175	259.41
783.357	216.4
783.538	265.55
783.72	251.22
783.901	357.71
784.083	249.17
784.264	214.35
784.446	267.6
784.627	232.79
784.809	324.94
784.99	177.49
785.172	281.94
785.353	228.69
785.535	206.16
785.716	191.83
785.897	245.07
786.079	240.98
786.26	177.49
786.441	249.17
786.623	185.68
786.804	212.31
786.985	240.98
787.167	220.5
787.348	206.16
787.529	208.21
787.71	208.21
787.891	234.83
788.073	238.93
788.254	216.4
788.435	165.2
788.616	181.59
788.797	195.92
788.978	243.03
789.159	259.41
789.34	204.11
789.522	134.48
789.703	202.07
789.884	228.69
790.065	249.17
790.246	202.07
790.427	224.59
790.607	152.91
790.788	208.21
790.969	120.15
791.15	142.68
791.331	216.4
791.512	171.35
791.693	124.24
791.874	173.39
792.054	202.07
792.235	191.83
792.416	171.35
792.597	136.53
792.778	200.02
792.958	163.15
793.139	136.53
793.32	181.59
793.5	159.06
793.681	183.63
793.862	163.15
794.042	150.87
794.223	191.83
794.404	126.29
794.584	89.43
794.765	212.31
794.945	111.96
795.126	87.38
795.306	122.2
795.487	165.2
795.667	175.44
795.848	191.83
796.028	120.15
796.209	114
796.389	114
796.57	116.05
796.75	197.97
796.93	132.44
797.111	173.39
797.291	144.72
797.471	200.02
797.652	105.81
797.832	99.67
798.012	103.76
798.192	157.01
798.373	105.81
798.553	183.63
798.733	95.57
798.913	165.2
799.093	144.72
799.274	79.19
799.454	136.53
799.634	185.68
799.814	103.76
799.994	81.24
800.174	58.71
800.354	126.29
800.534	105.81
800.714	109.91
800.894	109.91
801.074	97.62
801.254	128.34
801.434	210.26
801.614	120.15
801.794	185.68
801.974	376.14
802.154	136.53
802.334	97.62
802.514	132.44
802.693	109.91
802.873	111.96
803.053	138.58
803.233	93.52
803.413	218.45
803.592	71
803.772	109.91
803.952	126.29
804.131	126.29
804.311	111.96
804.491	87.38
804.67	97.62
804.85	85.33
805.03	58.71
805.209	79.19
805.389	165.2
805.568	97.62
805.748	44.37
805.928	-4.78
806.107	73.04
806.287	111.96
806.466	107.86
806.646	136.53
806.825	50.52
807.004	77.14
807.184	75.09
807.363	73.04
807.543	103.76
807.722	79.19
807.901	116.05
808.081	126.29
808.26	138.58
808.439	107.86
808.619	40.28
808.798	97.62
808.977	54.61
809.156	140.63
809.336	56.66
809.515	50.52
809.694	60.76
809.873	167.25
810.052	114
810.231	136.53
810.411	68.95
810.59	36.18
810.769	60.76
810.948	60.76
811.127	77.14
811.306	89.43
811.485	95.57
811.664	60.76
811.843	58.71
812.022	134.48
812.201	-39.59
812.38	68.95
812.559	60.76
812.737	111.96
812.916	101.72
813.095	46.42
813.274	116.05
813.453	52.56
813.632	126.29
813.811	44.37
813.989	-37.55
814.168	95.57
814.347	95.57
814.526	68.95
814.704	95.57
814.883	66.9
815.062	46.42
815.24	60.76
815.419	64.85
815.598	91.48
815.776	21.85
815.955	54.61
816.133	120.15
816.312	52.56
816.49	-0.68
816.669	101.72
816.847	93.52
817.026	3.41
817.204	23.89
817.383	130.39
817.561	17.75
817.74	83.28
817.918	11.61
818.097	3.41
818.275	5.46
818.453	-17.07
818.632	54.61
818.81	142.68
818.988	71
819.167	46.42
819.345	52.56
819.523	130.39
819.701	17.75
819.879	109.91
820.058	109.91
820.236	62.8
820.414	111.96
820.592	38.23
820.77	54.61
820.948	64.85
821.127	66.9
821.305	68.95
821.483	46.42
821.661	109.91
821.839	71
822.017	126.29
822.195	79.19
822.373	71
822.551	11.61
822.729	85.33
822.907	-21.16
823.085	105.81
823.262	40.28
823.44	109.91
823.618	161.11
823.796	126.29
823.974	11.61
824.152	66.9
824.329	38.23
824.507	111.96
824.685	56.66
824.863	23.89
825.04	21.85
825.218	107.86
825.396	25.94
825.574	87.38
825.751	93.52
825.929	-15.02
826.107	11.61
826.284	32.08
826.462	138.58
826.639	-4.78
826.817	-35.5
826.994	15.7
827.172	107.86
827.349	89.43
827.527	58.71
827.704	120.15
827.882	19.8
828.059	64.85
828.237	7.51
828.414	79.19
828.591	-4.78
828.769	85.33
828.946	-31.4
829.124	21.85
829.301	93.52
829.478	-21.16
829.655	38.23
829.833	40.28
830.01	60.76
830.187	21.85
830.364	27.99
830.542	91.48
830.719	40.28
830.896	91.48
831.073	-25.26
831.25	1.37
831.427	27.99
831.604	73.04
831.782	-31.4
831.959	5.46
832.136	52.56
832.313	42.32
832.49	71
832.667	-8.87
832.844	52.56
833.021	83.28
833.198	11.61
833.374	71
833.551	11.61
833.728	64.85
833.905	50.52
834.082	21.85
834.259	23.89
834.436	101.72
834.612	56.66
834.789	-2.73
834.966	105.81
835.143	54.61
835.319	1.37
835.496	93.52
835.673	99.67
835.85	11.61
836.026	5.46
836.203	23.89
836.38	-45.74
836.556	83.28
836.733	21.85
836.909	85.33
837.086	15.7
837.262	-58.03
837.439	56.66
837.616	44.37
837.792	50.52
837.968	87.38
838.145	-33.45
838.321	3.41
838.498	42.32
838.674	68.95
838.851	7.51
839.027	75.09
839.203	-29.35
839.38	17.75
839.556	-4.78
839.732	79.19
839.909	5.46
840.085	44.37
840.261	34.13
840.437	46.42
840.614	9.56
840.79	64.85
840.966	97.62
841.142	73.04
841.318	-12.97
841.494	5.46
841.671	-15.02
841.847	46.42
842.023	48.47
842.199	60.76
842.375	36.18
842.551	62.8
842.727	19.8
842.903	1.37
843.079	13.65
843.255	52.56
843.431	-4.78
843.607	-58.03
843.783	58.71
843.959	48.47
844.134	7.51
844.31	40.28
844.486	56.66
844.662	-8.87
844.838	77.14
845.013	-17.07
845.189	7.51
845.365	126.29
845.541	52.56
845.716	62.8
845.892	-4.78
846.068	-2.73
846.244	-39.59
846.419	73.04
846.595	60.76
846.77	1.37
846.946	19.8
847.122	36.18
847.297	46.42
847.473	9.56
847.648	17.75
847.824	44.37
847.999	3.41
848.175	3.41
848.35	62.8
848.526	25.94
848.701	27.99
848.876	89.43
849.052	40.28
849.227	30.04
849.403	-10.92
849.578	-25.26
849.753	36.18
849.929	107.86
850.104	-0.68
850.279	27.99
850.454	-15.02
850.63	-2.73
850.805	42.32
850.98	-10.92
851.155	11.61
851.33	56.66
851.505	48.47
851.681	128.34
851.856	-45.74
852.031	-10.92
852.206	-12.97
852.381	19.8
852.556	27.99
852.731	19.8
852.906	40.28
853.081	-10.92
853.256	60.76
853.431	9.56
853.606	3.41
853.781	13.65
853.956	-15.02
854.131	23.89
854.305	30.04
854.48	-6.83
854.655	23.89
854.83	56.66
855.005	99.67
855.18	7.51
855.354	-45.74
855.529	9.56
855.704	19.8
855.879	-8.87
856.053	23.89
856.228	19.8
856.403	46.42
856.577	5.46
856.752	-74.41
856.926	3.41
857.101	-58.03
857.276	5.46
857.45	30.04
857.625	34.13
857.799	32.08
857.974	-15.02
858.148	-45.74
858.323	9.56
858.497	56.66
858.672	-17.07
858.846	-43.69
859.02	3.41
859.195	-31.4
859.369	60.76
859.543	-27.31
859.718	-33.45
859.892	89.43
860.066	-15.02
860.241	52.56
860.415	11.61
860.589	-60.07
860.763	54.61
860.938	-15.02
861.112	5.46
861.286	3.41
861.46	77.14
861.634	62.8
861.808	44.37
861.982	7.51
862.157	42.32
862.331	-17.07
862.505	36.18
862.679	-17.07
862.853	95.57
863.027	40.28
863.201	56.66
863.375	-53.93
863.549	56.66
863.722	-21.16
863.896	54.61
864.07	-6.83
864.244	5.46
864.418	25.94
864.592	5.46
864.766	23.89
864.939	15.7
865.113	-53.93
865.287	30.04
865.461	-6.83
865.634	32.08
865.808	-4.78
865.982	56.66
866.156	-17.07
866.329	36.18
866.503	-29.35
866.676	-10.92
866.85	-12.97
867.024	27.99
867.197	7.51
867.371	62.8
867.544	44.37
867.718	-29.35
867.891	5.46
868.065	-4.78
868.238	-10.92
868.412	101.72
868.585	-39.59
868.759	21.85
868.932	1.37
869.105	27.99
869.279	-21.16
869.452	38.23
869.625	7.51
869.799	-10.92
869.972	-0.68
870.145	-25.26
870.319	-31.4
870.492	-37.55
870.665	3.41
870.838	32.08
871.011	64.85
871.185	34.13
871.358	-27.31
871.531	54.61
871.704	-4.78
871.877	7.51
872.05	-4.78
872.223	-0.68
872.396	50.52
872.569	46.42
872.742	3.41
872.915	13.65
873.088	-17.07
873.261	-53.93
873.434	-25.26
873.607	30.04
873.78	126.29
873.953	-25.26
874.126	-27.31
874.299	19.8
874.471	36.18
874.644	62.8
874.817	13.65
874.99	25.94
875.163	48.47
875.335	11.61
875.508	34.13
875.681	62.8
875.853	23.89
876.026	42.32
876.199	-27.31
876.371	58.71
876.544	-51.88
876.717	-25.26
876.889	44.37
877.062	-35.5
877.234	-29.35
877.407	13.65
877.579	-10.92
877.752	-19.11
877.924	-60.07
878.097	71
878.269	19.8
878.442	-17.07
878.614	66.9
878.786	-8.87
878.959	32.08
879.131	5.46
879.303	9.56
879.476	-2.73
879.648	-6.83
879.82	62.8
879.993	-2.73
880.165	-33.45
880.337	40.28
880.509	-12.97
880.681	-19.11
880.854	17.75
881.026	19.8
881.198	30.04
881.37	3.41
881.542	11.61
881.714	48.47
881.886	-21.16
882.058	-21.16
882.23	25.94
882.402	-23.21
882.574	-29.35
882.746	-19.11
882.918	-25.26
883.09	36.18
883.262	-25.26
883.434	23.89
883.606	25.94
883.778	-47.79
883.95	75.09
884.122	-45.74
884.293	50.52
884.465	-37.55
884.637	-4.78
884.809	-31.4
884.98	-4.78
885.152	-8.87
885.324	27.99
885.496	-45.74
885.667	-10.92
885.839	23.89
886.011	-55.98
886.182	87.38
886.354	-2.73
886.525	3.41
886.697	-23.21
886.869	-31.4
887.04	36.18
887.212	-29.35
887.383	1.37
887.555	-12.97
887.726	-68.27
887.897	19.8
888.069	46.42
888.24	5.46
888.412	60.76
888.583	-84.65
888.754	-29.35
888.926	-37.55
889.097	5.46
889.268	1.37
889.44	23.89
889.611	3.41
889.782	13.65
889.953	-27.31
890.125	87.38
890.296	-60.07
890.467	1.37
890.638	-51.88
890.809	54.61
890.98	3.41
891.151	44.37
891.323	-49.83
891.494	68.95
891.665	40.28
891.836	17.75
892.007	21.85
892.178	15.7
892.349	-86.7
892.52	-29.35
892.691	46.42
892.862	7.51
893.032	-49.83
893.203	-21.16
893.374	-17.07
893.545	17.75
893.716	48.47
893.887	34.13
894.057	-58.03
894.228	-51.88
894.399	-17.07
894.57	30.04
894.74	25.94
894.911	30.04
895.082	-19.11
895.253	7.51
895.423	93.52
895.594	-12.97
895.764	7.51
895.935	-74.41
896.106	-2.73
896.276	-27.31
896.447	5.46
896.617	50.52
896.788	-19.11
896.958	-4.78
897.129	-21.16
897.299	54.61
897.47	-23.21
897.64	-0.68
897.81	48.47
897.981	62.8
898.151	48.47
898.322	-6.83
898.492	60.76
898.662	27.99
898.832	19.8
899.003	-27.31
899.173	54.61
899.343	-19.11
899.513	32.08
