Data from USB4F104151__167__13-58-50-952.txt Node

Date: Thu Mar 13 13:58:50 EDT 2025
User: louis
Spectrometer: USB4F10415
Trigger mode: 4
Integration Time (sec): 1.000000E-2
Scans to average: 1
Electric dark correction enabled: true
Nonlinearity correction enabled: false
Boxcar width: 0
XAxis mode: Wavelengths
Number of Pixels in Spectrum: 3648
>>>>>Begin Spectral Data<<<<<
178.204	-67.58
178.424	-67.58
178.644	-67.58
178.864	-18.43
179.084	-67.58
179.304	-24.58
179.524	34.82
179.744	-18.43
179.964	-22.53
180.184	-38.91
180.404	28.67
180.624	2.05
180.844	4.1
181.064	-8.19
181.283	-40.96
181.503	59.39
181.723	24.58
181.943	6.14
182.163	2.05
182.383	59.39
182.602	32.77
182.822	-22.53
183.042	-40.96
183.262	38.91
183.482	-22.53
183.701	-16.38
183.921	-2.05
184.141	43.01
184.361	18.43
184.58	-34.82
184.8	-2.05
185.02	-0
185.239	34.82
185.459	88.06
185.679	79.87
185.898	-8.19
186.118	-14.34
186.338	8.19
186.557	-47.1
186.777	45.06
186.997	12.29
187.216	6.14
187.436	34.82
187.655	16.38
187.875	45.06
188.095	-65.54
188.314	24.58
188.534	32.77
188.753	-16.38
188.973	38.91
189.192	-4.1
189.412	-53.25
189.631	-14.34
189.851	57.34
190.07	-57.34
190.29	2.05
190.509	75.77
190.729	-20.48
190.948	67.58
191.168	57.34
191.387	18.43
191.607	16.38
191.826	57.34
192.045	38.91
192.265	34.82
192.484	14.34
192.704	49.15
192.923	-45.06
193.142	69.63
193.362	36.86
193.581	40.96
193.8	34.82
194.02	-8.19
194.239	30.72
194.458	40.96
194.678	14.34
194.897	45.06
195.116	-0
195.335	-22.53
195.555	51.2
195.774	-40.96
195.993	4.1
196.212	47.1
196.432	14.34
196.651	61.44
196.87	-34.82
197.089	36.86
197.308	24.58
197.528	-0
197.747	-16.38
197.966	36.86
198.185	38.91
198.404	38.91
198.623	22.53
198.842	51.2
199.062	8.19
199.281	22.53
199.5	-36.86
199.719	51.2
199.938	47.1
200.157	79.87
200.376	18.43
200.595	28.67
200.814	32.77
201.033	36.86
201.252	73.73
201.471	57.34
201.69	57.34
201.909	-49.15
202.128	18.43
202.347	-16.38
202.566	-22.53
202.785	20.48
203.004	-22.53
203.223	81.92
203.442	14.34
203.661	2.05
203.879	-28.67
204.098	43.01
204.317	-51.2
204.536	-12.29
204.755	10.24
204.974	4.1
205.193	71.68
205.411	40.96
205.63	4.1
205.849	65.53
206.068	-20.48
206.287	-12.29
206.505	53.25
206.724	-8.19
206.943	-12.29
207.162	-0
207.381	24.58
207.599	28.67
207.818	40.96
208.037	-10.24
208.255	55.3
208.474	-22.53
208.693	36.86
208.911	16.38
209.13	-2.05
209.349	16.38
209.567	61.44
209.786	65.53
210.005	18.43
210.223	28.67
210.442	34.82
210.661	26.62
210.879	47.1
211.098	22.53
211.316	22.53
211.535	73.73
211.753	-30.72
211.972	-28.67
212.191	-10.24
212.409	61.44
212.628	43.01
212.846	30.72
213.065	-57.34
213.283	36.86
213.502	61.44
213.72	-4.1
213.938	6.14
214.157	40.96
214.375	45.06
214.594	-14.34
214.812	28.67
215.031	65.53
215.249	-4.1
215.467	-36.86
215.686	-16.38
215.904	-32.77
216.122	-4.1
216.341	77.82
216.559	36.86
216.778	28.67
216.996	4.1
217.214	32.77
217.432	-4.1
217.651	-0
217.869	28.67
218.087	104.45
218.306	-2.05
218.524	12.29
218.742	-36.86
218.96	65.53
219.179	49.15
219.397	-38.91
219.615	-30.72
219.833	-30.72
220.051	-26.62
220.27	28.67
220.488	51.2
220.706	90.11
220.924	36.86
221.142	40.96
221.36	-22.53
221.578	45.06
221.796	26.62
222.015	-8.19
222.233	-77.82
222.451	8.19
222.669	-71.68
222.887	-8.19
223.105	61.44
223.323	65.53
223.541	43.01
223.759	49.15
223.977	-53.25
224.195	-6.14
224.413	4.1
224.631	45.06
224.849	-12.29
225.067	4.1
225.285	-14.34
225.503	36.86
225.721	40.96
225.939	-8.19
226.157	16.38
226.375	75.77
226.592	-16.38
226.81	45.06
227.028	40.96
227.246	81.92
227.464	-0
227.682	147.45
227.9	28.67
228.117	-55.3
228.335	-2.05
228.553	57.34
228.771	20.48
228.989	12.29
229.206	71.68
229.424	26.62
229.642	51.2
229.86	-24.58
230.077	-12.29
230.295	-34.82
230.513	16.38
230.731	4.1
230.948	-0
231.166	92.16
231.384	30.72
231.601	55.3
231.819	73.73
232.037	24.58
232.254	6.14
232.472	-22.53
232.689	-0
232.907	53.25
233.125	2.05
233.342	-20.48
233.56	-28.67
233.777	-8.19
233.995	49.15
234.213	59.39
234.43	-34.82
234.648	69.63
234.865	36.86
235.083	34.82
235.3	38.91
235.518	14.34
235.735	36.86
235.953	30.72
236.17	51.2
236.388	-26.62
236.605	-24.58
236.822	67.58
237.04	-16.38
237.257	8.19
237.475	18.43
237.692	40.96
237.909	47.1
238.127	55.3
238.344	4.1
238.562	65.53
238.779	-4.1
238.996	20.48
239.214	-51.2
239.431	12.29
239.648	-4.1
239.865	65.53
240.083	63.49
240.3	-63.49
240.517	-40.96
240.735	40.96
240.952	71.68
241.169	45.06
241.386	59.39
241.603	32.77
241.821	24.58
242.038	-0
242.255	6.14
242.472	20.48
242.689	10.24
242.907	49.15
243.124	77.82
243.341	45.06
243.558	75.77
243.775	-0
243.992	28.67
244.209	26.62
244.426	73.73
244.643	63.49
244.86	-10.24
245.078	114.69
245.295	16.38
245.512	-18.43
245.729	-4.1
245.946	-20.48
246.163	-0
246.38	36.86
246.597	14.34
246.814	-16.38
247.031	12.29
247.248	6.14
247.464	10.24
247.681	-114.69
247.898	40.96
248.115	18.43
248.332	20.48
248.549	-6.14
248.766	45.06
248.983	10.24
249.2	2.05
249.417	38.91
249.633	8.19
249.85	-0
250.067	55.3
250.284	-26.62
250.501	-20.48
250.717	-45.06
250.934	12.29
251.151	106.49
251.368	-26.62
251.585	14.34
251.801	6.14
252.018	2.05
252.235	75.77
252.451	18.43
252.668	53.25
252.885	79.87
253.102	32.77
253.318	94.21
253.535	6.14
253.752	16.38
253.968	104.45
254.185	-2.05
254.401	49.15
254.618	-102.4
254.835	10.24
255.051	59.39
255.268	16.38
255.484	-16.38
255.701	57.34
255.917	73.73
256.134	-47.1
256.351	4.1
256.567	22.53
256.784	-43.01
257	51.2
257.217	6.14
257.433	-0
257.65	45.06
257.866	71.68
258.082	55.3
258.299	75.77
258.515	32.77
258.732	53.25
258.948	8.19
259.165	-0
259.381	8.19
259.597	-6.14
259.814	61.44
260.03	-4.1
260.246	24.58
260.463	14.34
260.679	16.38
260.895	61.44
261.112	45.06
261.328	-40.96
261.544	14.34
261.761	34.82
261.977	49.15
262.193	18.43
262.409	38.91
262.626	40.96
262.842	18.43
263.058	-10.24
263.274	22.53
263.49	34.82
263.707	59.39
263.923	30.72
264.139	-79.87
264.355	-2.05
264.571	59.39
264.787	-61.44
265.004	55.3
265.22	16.38
265.436	-30.72
265.652	18.43
265.868	67.58
266.084	16.38
266.3	32.77
266.516	22.53
266.732	53.25
266.948	59.39
267.164	36.86
267.38	20.48
267.596	122.88
267.812	8.19
268.028	77.82
268.244	-16.38
268.46	-49.15
268.676	-16.38
268.892	40.96
269.108	-0
269.324	32.77
269.54	69.63
269.756	-8.19
269.972	-22.53
270.188	90.11
270.403	36.86
270.619	2.05
270.835	92.16
271.051	49.15
271.267	32.77
271.483	34.82
271.698	20.48
271.914	18.43
272.13	-24.58
272.346	75.77
272.562	32.77
272.777	51.2
272.993	57.34
273.209	24.58
273.425	-8.19
273.64	-4.1
273.856	65.53
274.072	22.53
274.287	24.58
274.503	16.38
274.719	67.58
274.934	28.67
275.15	71.68
275.366	-12.29
275.581	24.58
275.797	71.68
276.012	34.82
276.228	30.72
276.444	6.14
276.659	-24.58
276.875	32.77
277.09	-55.3
277.306	-2.05
277.521	34.82
277.737	40.96
277.952	61.44
278.168	-6.14
278.383	18.43
278.599	-4.1
278.814	63.49
279.03	47.1
279.245	71.68
279.461	-10.24
279.676	-45.06
279.892	14.34
280.107	14.34
280.322	-51.2
280.538	26.62
280.753	-8.19
280.969	22.53
281.184	18.43
281.399	-2.05
281.615	16.38
281.83	106.49
282.045	38.91
282.26	-8.19
282.476	-38.91
282.691	32.77
282.906	4.1
283.122	10.24
283.337	-4.1
283.552	49.15
283.767	51.2
283.983	20.48
284.198	40.96
284.413	18.43
284.628	45.06
284.843	34.82
285.058	49.15
285.274	20.48
285.489	36.86
285.704	12.29
285.919	-16.38
286.134	20.48
286.349	36.86
286.564	26.62
286.779	49.15
286.995	61.44
287.21	-0
287.425	63.49
287.64	-0
287.855	36.86
288.07	20.48
288.285	28.67
288.5	28.67
288.715	71.68
288.93	6.14
289.145	26.62
289.36	-32.77
289.575	-32.77
289.79	94.21
290.004	-32.77
290.219	2.05
290.434	63.49
290.649	-4.1
290.864	-24.58
291.079	12.29
291.294	67.58
291.509	30.72
291.724	-4.1
291.938	-43.01
292.153	-8.19
292.368	79.87
292.583	10.24
292.798	36.86
293.012	30.72
293.227	34.82
293.442	49.15
293.657	-12.29
293.871	-69.63
294.086	55.3
294.301	-22.53
294.516	-8.19
294.73	12.29
294.945	12.29
295.16	26.62
295.374	90.11
295.589	6.14
295.804	2.05
296.018	59.39
296.233	-8.19
296.447	57.34
296.662	-45.06
296.877	81.92
297.091	6.14
297.306	51.2
297.52	55.3
297.735	57.34
297.949	16.38
298.164	32.77
298.378	92.16
298.593	10.24
298.807	-12.29
299.022	61.44
299.236	-4.1
299.451	38.91
299.665	14.34
299.88	75.77
300.094	-8.19
300.309	36.86
300.523	-4.1
300.737	55.3
300.952	-4.1
301.166	49.15
301.381	-47.1
301.595	-2.05
301.809	-53.25
302.024	-22.53
302.238	-22.53
302.452	24.58
302.667	71.68
302.881	32.77
303.095	47.1
303.309	32.77
303.524	32.77
303.738	-28.67
303.952	38.91
304.166	49.15
304.381	-61.44
304.595	40.96
304.809	51.2
305.023	10.24
305.237	-0
305.452	45.06
305.666	16.38
305.88	45.06
306.094	-53.25
306.308	-8.19
306.522	26.62
306.736	43.01
306.95	2.05
307.164	-20.48
307.379	34.82
307.593	14.34
307.807	-0
308.021	92.16
308.235	57.34
308.449	47.1
308.663	28.67
308.877	75.77
309.091	49.15
309.305	86.01
309.519	69.63
309.733	36.86
309.947	-53.25
310.161	47.1
310.374	28.67
310.588	45.06
310.802	32.77
311.016	4.1
311.23	65.53
311.444	-14.34
311.658	-0
311.872	83.97
312.085	-6.14
312.299	63.49
312.513	12.29
312.727	10.24
312.941	8.19
313.154	45.06
313.368	63.49
313.582	90.11
313.796	12.29
314.009	40.96
314.223	28.67
314.437	40.96
314.651	16.38
314.864	65.53
315.078	-4.1
315.292	96.25
315.505	34.82
315.719	-16.38
315.933	16.38
316.146	81.92
316.36	34.82
316.573	57.34
316.787	24.58
317.001	49.15
317.214	57.34
317.428	34.82
317.641	73.73
317.855	63.49
318.068	8.19
318.282	16.38
318.495	-2.05
318.709	71.68
318.922	120.83
319.136	73.73
319.349	55.3
319.563	55.3
319.776	38.91
319.99	38.91
320.203	81.92
320.417	12.29
320.63	-0
320.843	86.01
321.057	55.3
321.27	34.82
321.483	28.67
321.697	57.34
321.91	36.86
322.124	51.2
322.337	16.38
322.55	40.96
322.763	8.19
322.977	55.3
323.19	16.38
323.403	-14.34
323.617	24.58
323.83	-0
324.043	24.58
324.256	30.72
324.469	30.72
324.683	34.82
324.896	-6.14
325.109	65.53
325.322	45.06
325.535	-4.1
325.748	-4.1
325.962	34.82
326.175	24.58
326.388	14.34
326.601	71.68
326.814	10.24
327.027	-10.24
327.24	40.96
327.453	8.19
327.666	30.72
327.879	10.24
328.092	75.77
328.305	-2.05
328.518	30.72
328.731	-2.05
328.944	26.62
329.157	26.62
329.37	18.43
329.583	57.34
329.796	96.25
330.009	-108.54
330.222	-34.82
330.435	40.96
330.648	65.53
330.861	-36.86
331.073	32.77
331.286	2.05
331.499	-2.05
331.712	-12.29
331.925	55.3
332.138	40.96
332.35	94.21
332.563	16.38
332.776	75.77
332.989	16.38
333.202	-2.05
333.414	49.15
333.627	51.2
333.84	-4.1
334.053	-24.58
334.265	14.34
334.478	14.34
334.691	14.34
334.903	-12.29
335.116	34.82
335.329	51.2
335.541	51.2
335.754	14.34
335.966	-20.48
336.179	16.38
336.392	-0
336.604	28.67
336.817	-4.1
337.029	51.2
337.242	34.82
337.454	100.35
337.667	26.62
337.88	16.38
338.092	43.01
338.305	65.53
338.517	16.38
338.729	104.45
338.942	65.53
339.154	18.43
339.367	6.14
339.579	83.97
339.792	-16.38
340.004	67.58
340.217	-14.34
340.429	-18.43
340.641	47.1
340.854	-30.72
341.066	2.05
341.278	28.67
341.491	43.01
341.703	92.16
341.915	75.77
342.128	36.86
342.34	79.87
342.552	59.39
342.764	106.49
342.977	126.97
343.189	73.73
343.401	18.43
343.613	-40.96
343.826	18.43
344.038	-2.05
344.25	-26.62
344.462	4.1
344.674	-36.86
344.886	-6.14
345.099	49.15
345.311	59.39
345.523	26.62
345.735	24.58
345.947	22.53
346.159	-6.14
346.371	22.53
346.583	34.82
346.795	96.25
347.007	36.86
347.219	4.1
347.431	38.91
347.643	2.05
347.855	-8.19
348.067	40.96
348.279	-8.19
348.491	45.06
348.703	10.24
348.915	-32.77
349.127	14.34
349.339	73.73
349.551	-22.53
349.763	8.19
349.975	40.96
350.187	51.2
350.399	28.67
350.61	-16.38
350.822	30.72
351.034	59.39
351.246	32.77
351.458	59.39
351.669	-26.62
351.881	45.06
352.093	-20.48
352.305	-8.19
352.517	83.97
352.728	73.73
352.94	18.43
353.152	12.29
353.363	43.01
353.575	-8.19
353.787	71.68
353.999	77.82
354.21	81.92
354.422	59.39
354.633	4.1
354.845	36.86
355.057	-55.3
355.268	14.34
355.48	24.58
355.692	8.19
355.903	69.63
356.115	43.01
356.326	-30.72
356.538	-8.19
356.749	106.49
356.961	51.2
357.172	-4.1
357.384	86.01
357.595	88.06
357.807	45.06
358.018	-18.43
358.23	43.01
358.441	57.34
358.653	59.39
358.864	-12.29
359.075	-0
359.287	49.15
359.498	20.48
359.709	28.67
359.921	28.67
360.132	22.53
360.344	51.2
360.555	2.05
360.766	-6.14
360.977	10.24
361.189	12.29
361.4	-34.82
361.611	65.53
361.823	79.87
362.034	67.58
362.245	79.87
362.456	30.72
362.667	32.77
362.879	38.91
363.09	61.44
363.301	40.96
363.512	114.69
363.723	10.24
363.935	-0
364.146	38.91
364.357	4.1
364.568	28.67
364.779	26.62
364.99	83.97
365.201	34.82
365.412	24.58
365.623	30.72
365.834	57.34
366.045	94.21
366.256	12.29
366.467	10.24
366.678	-4.1
366.889	-36.86
367.1	45.06
367.311	28.67
367.522	65.53
367.733	34.82
367.944	81.92
368.155	4.1
368.366	28.67
368.577	51.2
368.788	83.97
368.999	-8.19
369.209	96.25
369.42	55.3
369.631	57.34
369.842	-0
370.053	63.49
370.264	10.24
370.474	57.34
370.685	45.06
370.896	114.69
371.107	-32.77
371.317	14.34
371.528	55.3
371.739	71.68
371.95	92.16
372.16	114.69
372.371	-12.29
372.582	22.53
372.792	102.4
373.003	53.25
373.214	43.01
373.424	49.15
373.635	-18.43
373.846	26.62
374.056	32.77
374.267	34.82
374.477	34.82
374.688	-2.05
374.898	32.77
375.109	-10.24
375.319	-2.05
375.53	92.16
375.74	40.96
375.951	10.24
376.161	47.1
376.372	67.58
376.582	-20.48
376.793	12.29
377.003	34.82
377.214	20.48
377.424	24.58
377.635	34.82
377.845	65.53
378.055	75.77
378.266	-16.38
378.476	22.53
378.686	24.58
378.897	94.21
379.107	40.96
379.317	16.38
379.528	77.82
379.738	57.34
379.948	14.34
380.158	57.34
380.369	28.67
380.579	90.11
380.789	36.86
380.999	43.01
381.21	16.38
381.42	57.34
381.63	-24.58
381.84	69.63
382.05	75.77
382.261	26.62
382.471	43.01
382.681	114.69
382.891	38.91
383.101	-28.67
383.311	30.72
383.521	26.62
383.731	49.15
383.941	40.96
384.151	79.87
384.361	114.69
384.571	59.39
384.781	51.2
384.991	12.29
385.201	57.34
385.411	-4.1
385.621	-4.1
385.831	43.01
386.041	47.1
386.251	61.44
386.461	100.35
386.671	81.92
386.881	28.67
387.091	-30.72
387.301	73.73
387.511	139.26
387.72	22.53
387.93	40.96
388.14	-8.19
388.35	18.43
388.56	55.3
388.769	20.48
388.979	32.77
389.189	28.67
389.399	69.63
389.609	28.67
389.818	49.15
390.028	-20.48
390.238	53.25
390.447	40.96
390.657	90.11
390.867	43.01
391.076	32.77
391.286	55.3
391.496	108.54
391.705	40.96
391.915	-2.05
392.125	43.01
392.334	90.11
392.544	45.06
392.753	8.19
392.963	63.49
393.172	88.06
393.382	32.77
393.591	10.24
393.801	-36.86
394.01	102.4
394.22	63.49
394.429	88.06
394.639	-6.14
394.848	77.82
395.058	59.39
395.267	43.01
395.477	49.15
395.686	83.97
395.895	104.45
396.105	75.77
396.314	32.77
396.524	106.49
396.733	55.3
396.942	55.3
397.152	57.34
397.361	92.16
397.57	40.96
397.78	24.58
397.989	120.83
398.198	-8.19
398.407	90.11
398.617	155.65
398.826	51.2
399.035	110.59
399.244	49.15
399.453	57.34
399.663	69.63
399.872	141.31
400.081	114.69
400.29	34.82
400.499	65.53
400.708	94.21
400.917	34.82
401.127	147.45
401.336	2.05
401.545	65.53
401.754	57.34
401.963	118.78
402.172	92.16
402.381	86.01
402.59	108.54
402.799	20.48
403.008	49.15
403.217	139.26
403.426	59.39
403.635	90.11
403.844	65.53
404.053	100.35
404.262	116.73
404.471	106.49
404.68	90.11
404.888	57.34
405.097	126.97
405.306	116.73
405.515	114.69
405.724	159.74
405.933	81.92
406.142	114.69
406.35	104.45
406.559	149.5
406.768	108.54
406.977	143.36
407.185	169.98
407.394	131.07
407.603	137.21
407.812	188.41
408.02	145.41
408.229	194.56
408.438	221.18
408.646	196.6
408.855	204.8
409.064	151.55
409.272	188.41
409.481	258.04
409.69	212.99
409.898	262.14
410.107	198.65
410.315	264.19
410.524	188.41
410.733	229.37
410.941	192.51
411.15	231.42
411.358	272.38
411.567	315.39
411.775	270.33
411.984	253.95
412.192	307.2
412.401	319.48
412.609	284.67
412.818	311.29
413.026	307.2
413.234	317.44
413.443	380.92
413.651	350.2
413.86	311.29
414.068	413.69
414.276	362.49
414.485	403.45
414.693	342.01
414.901	479.22
415.11	444.41
415.318	395.26
415.526	434.17
415.734	471.03
415.943	516.09
416.151	593.91
416.359	530.42
416.567	555
416.776	514.04
416.984	684.02
417.192	634.87
417.4	628.73
417.608	544.76
417.817	663.54
418.025	694.26
418.233	770.04
418.441	780.28
418.649	759.8
418.857	860.15
419.065	872.43
419.273	882.67
419.481	847.86
419.689	933.87
419.897	993.26
420.105	991.22
420.313	1038.32
420.521	1054.7
420.729	1009.65
420.937	1198.06
421.145	1167.34
421.353	1282.03
421.561	1349.61
421.769	1204.21
421.977	1335.28
422.185	1372.14
422.393	1495.02
422.601	1421.29
422.809	1452.01
423.017	1396.71
423.224	1439.72
423.432	1679.33
423.64	1556.46
423.848	1861.6
424.056	1714.15
424.263	1740.77
424.471	1888.23
424.679	1957.86
424.887	2064.35
425.094	2074.59
425.302	2127.84
425.51	2166.75
425.718	2228.19
425.925	2156.51
426.133	2396.12
426.341	2293.72
426.548	2457.56
426.756	2527.19
426.964	2609.11
427.171	2750.42
427.379	2787.29
427.586	2791.38
427.794	2811.86
428.001	2914.26
428.209	3164.11
428.417	3119.06
428.624	3426.25
428.832	3325.9
429.039	3303.37
429.247	3280.85
429.454	3651.53
429.662	3844.04
429.869	3682.25
430.076	3852.23
430.284	3766.21
430.491	3889.09
430.699	4204.48
430.906	4042.69
431.114	4196.29
431.321	4325.31
431.528	4491.2
431.736	4784.05
431.943	5097.39
432.15	4667.32
432.358	4966.32
432.565	5070.77
432.772	5062.58
432.979	5390.25
433.187	5332.91
433.394	5527.47
433.601	5865.38
433.808	5824.42
434.016	5795.75
434.223	6123.43
434.43	6430.62
434.637	6277.02
434.844	6862.74
435.052	6674.33
435.259	6750.1
435.466	6899.61
435.673	6698.91
435.88	7317.39
436.087	7481.23
436.294	7604.11
436.501	7397.26
436.708	7597.96
436.915	7675.79
437.122	8087.43
437.329	8101.76
437.537	8359.81
437.743	8632.19
437.95	8308.61
438.157	8781.69
438.364	9201.52
438.571	9211.76
438.778	9322.35
438.985	10186.6
439.192	9613.17
439.399	9822.06
439.606	9635.69
439.813	10145.64
440.02	11032.41
440.227	10518.37
440.433	10411.87
440.64	11026.26
440.847	11093.85
441.054	11120.47
441.261	11790.16
441.467	11702.09
441.674	12146.5
441.881	12441.41
442.088	12334.92
442.294	12441.41
442.501	12566.34
442.708	12732.22
442.914	13348.66
443.121	13811.5
443.328	13332.28
443.534	14540.58
443.741	14135.08
443.948	13766.45
444.154	15007.51
444.361	14583.59
444.568	15007.51
444.774	15009.56
444.981	15345.43
445.187	15634.19
445.394	16133.9
445.6	15912.72
445.807	17592.05
446.013	16660.23
446.22	17207.03
446.426	17737.46
446.633	17731.31
446.839	18276.07
447.046	17700.59
447.252	18783.97
447.459	18284.26
447.665	18753.25
447.871	19521.24
448.078	20379.34
448.284	19322.59
448.491	20068.05
448.697	20575.94
448.903	21130.94
449.11	21184.19
449.316	20784.83
449.522	21262.01
449.728	21448.38
449.935	22009.52
450.141	22046.38
450.347	22220.46
450.553	21448.38
450.76	21575.35
450.966	22711.97
451.172	22224.56
451.378	23027.36
451.584	22484.65
451.791	23096.99
451.997	22742.69
452.203	23185.05
452.409	23404.19
452.615	22771.36
452.821	22437.55
453.027	22267.56
453.233	23488.15
453.44	22222.51
453.646	22585
453.852	23078.56
454.058	23226.01
454.264	22064.82
454.47	22797.99
454.676	21923.51
454.882	23131.81
455.088	21155.52
455.294	21118.65
455.5	21413.56
455.705	21819.06
455.911	21202.62
456.117	20371.15
456.323	20344.52
456.529	19209.95
456.735	20170.44
456.941	19535.57
457.147	19142.36
457.352	18564.84
457.558	18489.06
457.764	18489.06
457.97	18067.18
458.176	17706.74
458.381	17882.86
458.587	16738.05
458.793	16910.08
458.999	15957.77
459.204	17172.22
459.41	16441.09
459.616	15478.55
459.821	15763.22
460.027	15191.83
460.233	15157.02
460.438	14673.7
460.644	14741.28
460.85	14094.12
461.055	13879.08
461.261	13610.8
461.466	12740.41
461.672	12324.68
461.878	13287.22
462.083	12261.19
462.289	12107.59
462.494	11937.61
462.7	11607.89
462.905	11173.72
463.111	11558.74
463.316	11530.06
463.522	11448.15
463.727	11534.16
463.932	11571.02
464.138	11364.18
464.343	11362.13
464.549	11134.81
464.754	11317.08
464.959	11296.6
465.165	11267.92
465.37	10618.72
465.575	10354.53
465.781	10856.28
465.986	10970.97
466.191	10467.17
466.397	10448.74
466.602	9877.35
466.807	10096.49
467.012	10235.75
467.218	10102.63
467.423	10112.87
467.628	10219.36
467.833	10413.92
468.038	10057.57
468.244	9787.24
468.449	10297.19
468.654	9924.46
468.859	9754.48
469.064	10043.24
469.269	9469.81
469.474	9377.65
469.679	9697.13
469.885	9430.9
470.09	9561.97
470.295	9430.9
470.5	9312.11
470.705	9332.59
470.91	9312.11
471.115	9113.46
471.32	9142.13
471.525	9035.64
471.73	8865.66
471.935	8734.59
472.139	8576.89
472.344	8679.29
472.549	8734.59
472.754	8527.74
472.959	8351.62
473.164	8116.1
473.369	8122.24
473.574	8324.99
473.778	8392.58
473.983	8359.81
474.188	8114.05
474.393	7905.16
474.598	8015.75
474.802	7640.97
475.007	7659.4
475.212	7782.28
475.417	7403.41
475.621	7557
475.826	7561.1
476.031	7260.05
476.235	7255.95
476.44	7391.12
476.645	7159.7
476.849	7276.43
477.054	7098.26
477.259	7065.49
477.463	6895.51
477.668	6881.18
477.872	6934.42
478.077	6850.46
478.282	6569.88
478.486	6653.85
478.691	6557.6
478.895	6580.12
479.1	6449.05
479.304	6479.77
479.509	6160.29
479.713	6236.06
479.918	6227.87
480.122	6281.12
480.326	6254.5
480.531	6404
480.735	6399.9
480.94	6221.73
481.144	6348.7
481.348	6039.46
481.553	6145.95
481.757	6008.74
481.961	5943.21
482.166	6186.91
482.37	6205.35
482.574	5824.42
482.778	6078.37
482.983	6184.87
483.187	6057.89
483.391	6274.98
483.595	6033.32
483.8	5834.66
484.004	5894.05
484.208	5990.31
484.412	5904.29
484.616	6166.43
484.821	6299.55
485.025	5853.09
485.229	5955.49
485.433	6098.85
485.637	6102.95
485.841	6082.47
486.045	5834.66
486.249	6086.56
486.453	5820.33
486.657	5988.26
486.861	5926.82
487.065	5986.21
487.269	5973.92
487.473	6123.43
487.677	6127.52
487.881	6207.39
488.085	5961.64
488.289	5980.07
488.493	6109.09
488.697	6080.42
488.901	6240.16
489.105	6082.47
489.309	6125.47
489.512	6258.59
489.716	6080.42
489.92	6111.14
490.124	5992.36
490.328	6266.78
490.531	6262.69
490.735	6297.5
490.939	6291.36
491.143	6166.43
491.346	6264.74
491.55	6365.09
491.754	6369.18
491.958	6397.85
492.161	6387.61
492.365	6299.55
492.569	6360.99
492.772	6510.49
492.976	6541.21
493.18	6506.4
493.383	6571.93
493.587	6784.92
493.79	6670.23
493.994	6653.85
494.197	6645.66
494.401	6809.5
494.605	6797.21
494.808	6899.61
495.012	7028.63
495.215	6959
495.419	7061.4
495.622	7174.03
495.825	7278.48
496.029	7276.43
496.232	7290.77
496.436	7352.21
496.639	7473.04
496.843	7561.1
497.046	7708.55
497.249	7819.14
497.453	7690.12
497.656	7788.43
497.859	7892.87
498.063	7882.63
498.266	8202.11
498.469	8142.72
498.673	8128.39
498.876	8310.66
499.079	8374.14
499.282	8613.76
499.485	8773.5
499.689	8693.63
499.892	8974.2
500.095	9078.65
500.298	9262.96
500.501	9219.96
500.705	9424.75
500.908	9404.27
501.111	9670.51
501.314	9645.93
501.517	9621.36
501.72	9826.15
501.923	10051.43
502.126	10133.35
502.329	10293.09
502.532	10288.99
502.735	10598.24
502.938	10641.25
503.141	10702.68
503.344	10962.78
503.547	10927.96
503.75	11018.07
503.953	11274.07
504.156	11265.88
504.359	11628.37
504.562	11583.31
504.765	11880.27
504.968	11814.73
505.17	12193.61
505.373	12400.45
505.576	12494.66
505.779	12674.88
505.982	12656.45
506.185	13143.86
506.387	12988.22
506.59	13049.66
506.793	13418.29
506.996	13604.66
507.198	13969.19
507.401	13799.21
507.604	14247.72
507.807	14165.8
508.009	14348.07
508.212	14663.46
508.415	14669.6
508.617	14972.7
508.82	15114.01
509.022	15300.37
509.225	15576.85
509.428	15599.38
509.63	15701.78
509.833	15996.68
510.035	16473.86
510.238	16424.71
510.44	16664.32
510.643	16953.09
510.845	16983.8
511.048	16940.8
511.25	17499.89
511.453	17401.59
511.655	18177.77
511.858	17839.86
512.06	18011.89
512.262	18384.62
512.465	18265.83
512.667	18722.53
512.87	19089.12
513.072	19291.87
513.274	19711.7
513.477	19941.07
513.679	20094.67
513.881	20473.54
514.084	20586.18
514.286	20713.16
514.488	20874.95
514.69	21575.35
514.893	21458.62
515.095	21731
515.297	22046.38
515.499	22253.23
515.701	22419.11
515.904	22550.18
516.106	22736.55
516.308	23168.67
516.51	23221.92
516.712	23385.76
516.914	23760.53
517.116	24186.51
517.318	24505.99
517.52	24825.48
517.722	24880.77
517.925	25067.14
518.127	25554.55
518.329	25763.45
518.531	25781.88
518.733	26443.37
518.935	26449.52
519.136	26570.35
519.338	26953.32
519.54	27014.76
519.742	27428.45
519.944	27752.02
520.146	28221.01
520.348	28530.25
520.55	28380.75
520.752	28751.43
520.954	29023.81
521.155	28980.81
521.357	29470.27
521.559	29611.58
521.761	30037.56
521.963	30252.59
522.164	30565.93
522.366	30610.99
522.568	30586.41
522.77	31032.87
522.971	31376.93
523.173	31397.41
523.375	31407.65
523.576	31878.68
523.778	31907.35
523.98	32450.06
524.181	32497.17
524.383	32802.32
524.584	33338.88
524.786	32890.38
524.988	32937.48
525.189	33476.1
525.391	33590.78
525.592	34035.19
525.794	33938.94
525.995	34000.38
526.197	34029.05
526.398	34168.31
526.6	34520.56
526.801	34754.03
527.003	35012.07
527.204	34874.86
527.406	35257.83
527.607	35227.11
527.808	35728.86
528.01	35380.71
528.211	35464.67
528.412	36437.46
528.614	35907.04
528.815	35681.76
529.016	36173.27
529.218	35847.65
529.419	36267.48
529.62	36253.14
529.822	36478.42
530.023	36638.16
530.224	36726.22
530.425	36672.98
530.626	36410.84
530.828	36769.23
531.029	37555.65
531.23	36480.47
531.431	36859.34
531.632	36871.63
531.833	37316.04
532.035	37436.87
532.236	37328.33
532.437	37584.32
532.638	37307.85
532.839	37707.2
533.04	37664.19
533.241	37025.23
533.442	37799.36
533.643	37692.86
533.844	37293.51
534.045	37637.57
534.246	37434.82
534.447	37971.39
534.648	37725.63
534.849	37776.83
535.05	37565.89
535.251	37879.23
535.451	37871.04
535.652	37737.92
535.853	37864.89
536.054	37879.23
536.255	37821.89
536.456	37690.82
536.657	38133.18
536.857	37553.6
537.058	37629.38
537.259	38018.49
537.46	38104.51
537.66	37916.09
537.861	38139.32
538.062	38090.17
538.263	38106.55
538.463	37961.15
538.664	37998.01
538.865	38317.5
539.065	38028.73
539.266	37719.49
539.466	38282.68
539.667	37463.49
539.868	38342.07
540.068	37983.68
540.269	38096.31
540.469	38421.94
540.67	37785.02
540.87	37516.74
541.071	37942.72
541.271	38124.99
541.472	38069.69
541.672	37946.81
541.873	37967.29
542.073	37465.54
542.274	38481.33
542.474	37871.04
542.675	37805.5
542.875	38348.21
543.075	37703.1
543.276	37670.34
543.476	38174.14
543.676	37768.64
543.877	38192.57
544.077	37858.75
544.277	38000.06
544.478	38145.47
544.678	37998.01
544.878	38020.54
545.078	37791.17
545.279	37649.86
545.479	38010.3
545.679	38106.55
545.879	37735.87
546.079	37926.33
546.28	37879.23
546.48	37774.78
546.68	38229.43
546.88	38020.54
547.08	37959.1
547.28	37967.29
547.48	37653.95
547.68	38155.71
547.88	37692.86
548.081	37918.14
548.281	37793.22
548.481	37797.31
548.681	38182.33
548.881	37952.96
549.081	37567.94
549.28	37592.51
549.48	38067.64
549.68	38053.31
549.88	38567.35
550.08	37723.58
550.28	38165.95
550.48	38147.51
550.68	38151.61
550.88	37545.41
551.08	37838.27
551.279	37987.77
551.479	37443.01
551.679	37668.29
551.879	37830.08
552.079	37901.76
552.278	37678.53
552.478	37969.34
552.678	37715.39
552.878	37973.44
553.077	37875.13
553.277	37764.54
553.477	38155.71
553.676	37279.18
553.876	37504.45
554.076	37307.85
554.275	37371.33
554.475	37416.39
554.674	37846.46
554.874	37678.53
555.074	37332.42
555.273	37983.68
555.473	37803.46
555.672	37033.42
555.872	37268.94
556.071	36969.93
556.271	37623.23
556.47	36828.62
556.67	36699.6
556.869	37500.36
557.068	37512.64
557.268	37221.83
557.467	36773.33
557.667	36836.81
557.866	36625.87
558.065	36875.73
558.265	36771.28
558.464	36578.77
558.663	37043.66
558.863	36023.77
559.062	37152.2
559.261	36290.01
559.461	36881.87
559.66	36457.94
559.859	36462.04
560.058	36169.18
560.258	36330.97
560.457	36257.24
560.656	36535.76
560.855	36472.28
561.054	36527.57
561.253	36003.29
561.453	36314.58
561.652	36298.2
561.851	36083.16
562.05	36115.93
562.249	36025.82
562.448	36173.27
562.647	35988.95
562.846	35714.53
563.045	36009.43
563.244	35597.79
563.443	36048.35
563.642	35243.49
563.841	35765.73
564.04	35546.59
564.239	35866.08
564.438	35436
564.637	35296.74
564.836	35278.31
565.035	35311.08
565.234	35153.38
565.432	35208.68
565.631	35075.56
565.83	35241.45
566.029	34924.01
566.228	34719.21
566.427	34887.15
566.625	34481.65
566.824	34385.4
567.023	34868.72
567.222	34252.28
567.42	34991.59
567.619	34524.66
567.818	34692.59
568.016	34219.51
568.215	34584.05
568.414	34158.07
568.612	34516.47
568.811	33990.14
569.01	34438.64
569.208	33623.55
569.407	33824.25
569.605	33222.15
569.804	33846.78
570.002	33707.52
570.201	33795.58
570.4	33316.36
570.598	33144.33
570.797	33562.11
570.995	33295.88
571.193	32939.53
571.392	33375.75
571.59	33033.74
571.789	33146.37
571.987	32607.76
572.186	33062.41
572.384	32601.61
572.582	32333.33
572.781	32765.45
572.979	32503.31
573.177	32030.23
573.376	32362
573.574	31954.46
573.772	32341.52
573.971	31843.87
574.169	31901.21
574.367	31426.08
574.565	31753.76
574.763	31555.1
574.962	31620.64
575.16	31417.89
575.358	31665.69
575.556	31051.3
575.754	31876.63
575.952	31002.15
576.151	31225.38
576.349	30672.43
576.547	30770.73
576.745	31045.16
576.943	30834.22
577.141	30672.43
577.339	30553.65
577.537	30645.8
577.735	30565.93
577.933	30025.27
578.131	30162.48
578.329	29931.06
578.527	29591.1
578.725	29886.01
578.923	30088.76
579.121	29890.1
579.319	30099
579.516	29732.41
579.714	29670.97
579.912	29476.41
580.11	29331.01
580.308	29081.16
580.506	29341.25
580.704	28991.05
580.901	29212.23
581.099	29244.99
581.297	28495.44
581.495	28900.93
581.692	28933.7
581.89	28479.05
582.088	28651.08
582.285	28304.98
582.483	28761.67
582.681	28436.05
582.878	28169.81
583.076	27936.34
583.274	28233.3
583.471	27946.58
583.669	27764.31
583.866	27647.58
584.064	27807.32
584.262	27491.93
584.459	27776.6
584.657	27524.7
584.854	27811.42
585.052	27174.5
585.249	27385.44
585.447	27475.55
585.644	27332.19
585.841	27135.59
586.039	27180.64
586.236	26809.96
586.434	26820.2
586.631	26689.13
586.828	26467.95
587.026	26410.6
587.223	26654.31
587.42	26369.65
587.618	26537.58
587.815	26107.51
588.012	26142.32
588.21	26291.82
588.407	26148.46
588.604	25878.13
588.801	25706.1
588.999	25996.92
589.196	25939.57
589.393	25845.37
589.59	25882.23
589.787	25566.84
589.984	25384.57
590.182	25134.72
590.379	25499.26
590.576	25130.62
590.773	25259.65
590.97	25345.66
591.167	25249.41
591.364	24766.09
591.561	25013.89
591.758	24737.41
591.955	24708.74
592.152	24895.11
592.349	24577.67
592.546	24733.32
592.743	24596.1
592.94	24213.13
593.137	24293.01
593.334	24186.51
593.531	24045.2
593.727	24149.65
593.924	24080.02
594.121	23862.93
594.318	24143.5
594.515	23733.91
594.712	23912.08
594.908	23297.69
595.105	24067.73
595.302	23525.02
595.499	23688.85
595.696	23434.91
595.892	23180.96
596.089	23344.8
596.286	23379.61
596.482	22949.54
596.679	23092.9
596.876	23271.07
597.072	23105.18
597.269	23082.66
597.466	22759.08
597.662	22937.25
597.859	22589.1
598.055	22929.06
598.252	22736.55
598.448	22513.32
598.645	22396.59
598.841	22171.31
599.038	22513.32
599.234	22488.74
599.431	22132.4
599.627	21911.22
599.824	22390.44
600.02	21999.28
600.217	22193.84
600.413	21839.54
600.609	21917.36
600.806	21475
601.002	22036.14
601.198	21681.85
601.395	21487.29
601.591	21288.64
601.787	21706.42
601.984	21210.81
602.18	21587.64
602.376	21104.32
602.572	21055.17
602.769	21325.5
602.965	21102.27
603.161	21118.65
603.357	20801.22
603.553	20778.69
603.75	20786.88
603.946	20498.12
604.142	20584.13
604.338	20278.99
604.534	20782.79
604.73	20426.44
604.926	20385.48
605.122	20528.84
605.318	20022.99
605.514	19857.1
605.71	19789.52
605.906	19818.19
606.102	19975.89
606.298	20055.76
606.494	19877.58
606.69	19678.93
606.886	19754.71
607.082	19396.31
607.278	19449.56
607.474	19351.26
607.67	19603.16
607.866	19109.6
608.062	19453.66
608.257	19308.25
608.453	19152.6
608.649	19211.99
608.845	18960.09
609.041	18966.24
609.236	18765.54
609.432	19019.49
609.628	18749.15
609.824	18702.05
610.019	18652.9
610.215	18759.39
610.411	18669.28
610.606	18499.3
610.802	18558.69
610.998	18357.99
611.193	18706.15
611.389	18325.22
611.584	18636.52
611.78	17983.21
611.976	18233.07
612.171	18177.77
612.367	17962.73
612.562	17958.64
612.758	17706.74
612.953	17704.69
613.149	17966.83
613.344	17645.3
613.539	18018.03
613.735	17809.14
613.93	17794.8
614.126	17774.32
614.321	17725.17
614.517	17381.11
614.712	17536.76
614.907	17075.96
615.103	17479.41
615.298	17278.71
615.493	17317.62
615.688	16918.27
615.884	17522.42
616.079	16979.71
616.274	17227.51
616.47	16959.23
616.665	17028.86
616.86	16555.78
617.055	16772.86
617.25	17008.38
617.445	16975.61
617.641	16647.94
617.836	16725.76
618.031	16424.71
618.226	16623.36
618.421	16340.74
618.616	16516.87
618.811	16115.47
619.006	16506.63
619.201	16025.36
619.396	16031.5
619.591	15867.66
619.786	15972.11
619.981	15818.51
620.176	15982.35
620.371	15709.97
620.566	15851.28
620.761	15656.72
620.956	15671.06
621.151	15339.29
621.346	15435.54
621.541	15341.33
621.735	15429.4
621.93	15181.59
622.125	15240.98
622.32	14790.43
622.515	15005.47
622.709	14798.62
622.904	14886.68
623.099	14741.28
623.294	14765.85
623.488	14495.52
623.683	14610.21
623.878	14098.22
624.072	14501.67
624.267	14221.09
624.462	14243.62
624.656	14223.14
624.851	14081.83
625.046	14157.61
625.24	13731.63
625.435	13594.42
625.629	13805.36
625.824	13414.2
626.018	13561.65
626.213	13244.21
626.407	13631.28
626.602	13279.03
626.796	13426.48
626.991	13453.11
627.185	13264.69
627.38	13319.99
627.574	12816.19
627.768	13053.75
627.963	12969.79
628.157	12871.48
628.352	13094.71
628.546	12715.84
628.74	12599.1
628.935	12527.42
629.129	12459.84
629.323	12566.34
629.517	12212.04
629.712	12255.04
629.906	12273.48
630.1	11796.3
630.294	12185.41
630.489	12058.44
630.683	12189.51
630.877	11890.51
631.071	11765.58
631.265	12009.29
631.459	11876.17
631.653	11560.78
631.848	11755.34
632.042	11566.93
632.236	11636.56
632.43	11300.69
632.624	11485.01
632.818	11523.92
633.012	11380.56
633.206	11458.39
633.4	11333.46
633.594	11040.6
633.788	11130.71
633.982	11044.7
634.176	10825.56
634.369	11050.84
634.563	10909.53
634.757	10811.23
634.951	10903.39
635.145	10850.14
635.339	10786.65
635.533	10409.83
635.726	10573.66
635.92	10420.06
636.114	10495.84
636.308	10354.53
636.501	10338.15
636.695	10518.37
636.889	10145.64
637.083	10043.24
637.276	9981.8
637.47	10076.01
637.664	9926.5
637.857	9789.29
638.051	9676.65
638.244	9789.29
638.438	9920.36
638.632	9760.62
638.825	9643.88
639.019	9619.31
639.212	9748.33
639.406	9539.44
639.599	9656.17
639.793	9334.64
639.986	9336.69
640.18	9506.67
640.373	9271.15
640.567	9226.1
640.76	9144.18
640.954	9144.18
641.147	9074.55
641.34	8914.81
641.534	8925.05
641.727	8996.73
641.92	8923
642.114	8798.07
642.307	8808.31
642.5	8693.63
642.694	8607.61
642.887	8511.36
643.08	8683.39
643.273	8331.14
643.467	8474.49
643.66	8220.55
643.853	8454.01
644.046	8249.22
644.239	8449.92
644.432	8212.35
644.626	8195.97
644.819	8089.48
645.012	8167.3
645.205	8021.89
645.398	7985.03
645.591	7841.67
645.784	7782.28
645.977	7630.73
646.17	7905.16
646.363	7874.44
646.556	7548.81
646.749	7628.68
646.942	7606.16
647.135	7509.9
647.328	7458.7
647.521	7610.25
647.714	7368.59
647.907	7325.58
648.099	7315.34
648.292	7116.69
648.485	7110.55
648.678	7079.83
648.871	7077.78
649.064	6987.67
649.256	6879.13
649.449	6907.8
649.642	6911.89
649.835	6899.61
650.027	6879.13
650.22	6881.18
650.413	6819.74
650.605	6782.87
650.798	6598.56
650.991	6731.67
651.183	6612.89
651.376	6651.8
651.568	6485.92
651.761	6565.79
651.954	6602.65
652.146	6356.89
652.339	6422.43
652.531	6354.85
652.724	6268.83
652.916	6197.15
653.109	6223.78
653.301	5982.12
653.494	6127.52
653.686	5959.59
653.879	6281.12
654.071	6070.18
654.263	5824.42
654.456	6053.8
654.648	5918.63
654.84	5832.61
655.033	5832.61
655.225	5719.98
655.417	5767.08
655.61	5734.31
655.802	5726.12
655.994	5717.93
656.186	5668.78
656.379	5425.07
656.571	5676.97
656.763	5468.08
656.955	5533.61
657.148	5451.69
657.34	5312.43
657.532	5248.94
657.724	5326.77
657.916	5355.44
658.108	5078.96
658.3	5171.12
658.492	5255.09
658.684	5113.78
658.876	5066.67
659.068	5044.15
659.26	4861.88
659.452	4935.6
659.644	4995
659.836	4820.92
660.028	4919.22
660.22	4790.2
660.412	4806.58
660.604	4749.24
660.796	4736.95
660.988	4648.89
661.18	4495.29
661.372	4681.66
661.563	4616.12
661.755	4503.48
661.947	4491.2
662.139	4558.78
662.331	4431.8
662.522	4325.31
662.714	4433.85
662.906	4466.62
663.097	4300.73
663.289	4358.08
663.481	4327.36
663.673	4399.04
663.864	4181.95
664.056	4122.56
664.247	4124.61
664.439	3973.06
664.631	4171.71
664.822	4054.98
665.014	4061.12
665.205	4124.61
665.397	3815.37
665.588	3934.15
665.78	4018.11
665.971	3880.9
666.163	3956.68
666.354	3837.89
666.546	3839.94
666.737	3815.37
666.929	3968.96
667.12	3973.06
667.311	3844.04
667.503	3753.93
667.694	3727.3
667.885	3729.35
668.077	3606.47
668.268	3608.52
668.459	3518.41
668.651	3594.19
668.842	3620.81
669.033	3555.27
669.224	3577.8
669.416	3454.92
669.607	3418.06
669.798	3342.28
669.989	3459.02
670.18	3450.83
670.371	3397.58
670.563	3442.64
670.754	3450.83
670.945	3362.76
671.136	3293.13
671.327	3375.05
671.518	3336.14
671.709	3213.26
671.9	3297.23
672.091	3295.18
672.282	3207.12
672.473	3311.57
672.664	3229.65
672.855	3139.54
673.046	3166.16
673.237	3035.09
673.428	3203.02
673.619	3125.2
673.809	3119.06
674	3131.34
674.191	3094.48
674.382	3043.28
674.573	3049.43
674.764	3039.19
674.954	3141.58
675.145	3063.76
675.336	2981.84
675.527	3149.78
675.717	3137.49
675.908	2979.79
676.099	3106.77
676.289	2942.93
676.48	3020.75
676.671	2877.4
676.861	3010.51
677.052	2949.07
677.243	2895.83
677.433	2942.93
677.624	2981.84
677.814	2875.35
678.005	2920.4
678.195	2901.97
678.386	2893.78
678.576	2949.07
678.767	2928.6
678.957	2830.29
679.148	2852.82
679.338	2820.05
679.529	2908.12
679.719	2770.9
679.909	2934.74
680.1	2754.52
680.29	2818.01
680.481	2764.76
680.671	2715.61
680.861	2770.9
681.052	2852.82
681.242	2664.41
681.432	2715.61
681.622	2756.57
681.813	2721.75
682.003	2723.8
682.193	2643.93
682.383	2725.85
682.573	2750.42
682.764	2600.92
682.954	2674.65
683.144	2654.17
683.334	2664.41
683.524	2697.17
683.714	2576.34
683.904	2678.74
684.094	2553.82
684.284	2648.02
684.474	2699.22
684.664	2596.82
684.854	2545.63
685.044	2609.11
685.234	2684.89
685.424	2572.25
685.614	2598.87
685.804	2621.4
685.994	2623.45
686.184	2650.07
686.374	2635.74
686.564	2500.57
686.753	2650.07
686.943	2566.1
687.133	2621.4
687.323	2588.63
687.513	2578.39
687.702	2693.08
687.892	2459.61
688.082	2482.14
688.272	2584.54
688.461	2553.82
688.651	2596.82
688.841	2549.72
689.03	2645.98
689.22	2473.95
689.41	2531.29
689.599	2457.56
689.789	2547.67
689.979	2482.14
690.168	2475.99
690.358	2471.9
690.547	2576.34
690.737	2516.95
690.926	2449.37
691.116	2508.76
691.305	2549.72
691.495	2598.87
691.684	2457.56
691.874	2490.33
692.063	2412.51
692.252	2342.88
692.442	2512.86
692.631	2439.13
692.82	2533.34
693.01	2570.2
693.199	2514.91
693.388	2574.3
693.578	2424.79
693.767	2535.39
693.956	2498.52
694.146	2484.19
694.335	2471.9
694.524	2490.33
694.713	2410.46
694.902	2553.82
695.092	2488.28
695.281	2496.47
695.47	2457.56
695.659	2541.53
695.848	2449.37
696.037	2496.47
696.226	2371.55
696.415	2488.28
696.604	2537.43
696.793	2543.58
696.982	2459.61
697.171	2568.15
697.36	2543.58
697.549	2400.22
697.738	2451.42
697.927	2486.23
698.116	2496.47
698.305	2504.67
698.494	2594.78
698.683	2584.54
698.872	2404.32
699.061	2543.58
699.25	2510.81
699.438	2541.53
699.627	2383.84
699.816	2613.21
700.005	2508.76
700.193	2400.22
700.382	2572.25
700.571	2383.84
700.76	2367.45
700.948	2383.84
701.137	2461.66
701.326	2363.36
701.514	2535.39
701.703	2498.52
701.892	2377.69
702.08	2435.03
702.269	2373.6
702.457	2367.45
702.646	2387.93
702.834	2502.62
703.023	2398.17
703.212	2371.55
703.4	2402.27
703.589	2326.49
703.777	2406.36
703.965	2209.76
704.154	2293.72
704.342	2383.84
704.531	2230.24
704.719	2340.83
704.907	2277.34
705.096	2283.49
705.284	2314.2
705.472	2279.39
705.661	2344.92
705.849	2250.72
706.037	2297.82
706.226	2295.77
706.414	2220
706.602	2297.82
706.79	2287.58
706.979	2240.48
707.167	2234.33
707.355	2252.77
707.543	2193.37
707.731	2246.62
707.919	2267.1
708.107	2197.47
708.296	2105.31
708.484	2193.37
708.672	2117.6
708.86	2142.18
709.048	2133.98
709.236	2088.93
709.424	2080.74
709.612	2136.03
709.8	2086.88
709.988	2052.06
710.176	2058.21
710.364	2070.5
710.551	2064.35
710.739	2033.63
710.927	2097.12
711.115	2123.74
711.303	1992.67
711.491	1951.71
711.679	1902.56
711.866	2088.93
712.054	2066.4
712.242	2058.21
712.43	2064.35
712.617	2013.15
712.805	1894.37
712.993	1828.84
713.181	1980.39
713.368	1896.42
713.556	1959.91
713.744	1925.09
713.931	1888.23
714.119	1920.99
714.306	1920.99
714.494	1945.57
714.682	1902.56
714.869	1857.51
715.057	1798.12
715.244	1925.09
715.432	1873.89
715.619	1853.41
715.807	1826.79
715.994	1873.89
716.182	1832.93
716.369	1857.51
716.556	1812.45
716.744	1746.92
716.931	1769.44
717.119	1720.29
717.306	1775.59
717.493	1818.6
717.681	1746.92
717.868	1703.91
718.055	1806.31
718.242	1695.72
718.43	1677.29
718.617	1738.73
718.804	1671.14
718.991	1593.32
719.179	1736.68
719.366	1548.26
719.553	1712.1
719.74	1695.72
719.927	1617.9
720.114	1615.85
720.301	1630.18
720.488	1605.61
720.676	1630.18
720.863	1669.09
721.05	1593.32
721.237	1607.66
721.424	1673.19
721.611	1556.46
721.798	1644.52
721.985	1615.85
722.172	1572.84
722.358	1556.46
722.545	1562.6
722.732	1540.07
722.919	1568.74
723.106	1468.39
723.293	1437.67
723.48	1552.36
723.667	1484.78
723.853	1454.06
724.04	1511.4
724.227	1359.85
724.414	1519.59
724.6	1503.21
724.787	1476.59
724.974	1476.59
725.161	1460.2
725.347	1480.68
725.534	1423.34
725.72	1454.06
725.907	1382.38
726.094	1378.28
726.28	1411.05
726.467	1345.52
726.653	1507.3
726.84	1470.44
727.027	1460.2
727.213	1392.62
727.4	1411.05
727.586	1298.41
727.773	1343.47
727.959	1384.43
728.145	1378.28
728.332	1390.57
728.518	1425.39
728.705	1368.04
728.891	1236.97
729.077	1304.56
729.264	1351.66
729.45	1247.21
729.636	1353.71
729.823	1239.02
730.009	1310.7
730.195	1196.01
730.382	1318.89
730.568	1200.11
730.754	1263.6
730.94	1230.83
731.126	1343.47
731.313	1374.19
731.499	1318.89
731.685	1187.82
731.871	1230.83
732.057	1284.08
732.243	1267.69
732.429	1232.88
732.615	1239.02
732.801	1171.44
732.987	1148.91
733.173	1282.03
733.359	1161.2
733.545	1157.1
733.731	1110
733.917	1200.11
734.103	1146.86
734.289	1150.96
734.475	1208.3
734.661	1171.44
734.847	1093.62
735.033	1150.96
735.219	1179.63
735.404	1161.2
735.59	1097.71
735.776	1161.2
735.962	1157.1
736.148	1245.16
736.333	1155.05
736.519	1130.48
736.705	1075.18
736.89	1064.94
737.076	1017.84
737.262	1032.18
737.447	1124.33
737.633	1040.37
737.819	999.41
738.004	1105.9
738.19	1007.6
738.375	1066.99
738.561	1089.52
738.747	966.64
738.932	1116.14
739.118	1019.89
739.303	1058.8
739.489	989.17
739.674	1011.7
739.859	1007.6
740.045	1044.46
740.23	978.93
740.416	1001.46
740.601	1017.84
740.786	987.12
740.972	974.83
741.157	1040.37
741.342	917.49
741.528	964.59
741.713	983.02
741.898	993.26
742.084	989.17
742.269	999.41
742.454	899.06
742.639	950.26
742.824	954.35
743.01	952.31
743.195	966.64
743.38	937.97
743.565	942.07
743.75	925.68
743.935	888.82
744.12	923.63
744.305	841.72
744.49	909.3
744.675	770.04
744.86	847.86
745.045	909.3
745.23	907.25
745.415	864.24
745.6	897.01
745.785	866.29
745.97	778.23
746.155	860.15
746.34	854
746.525	772.08
746.71	817.14
746.895	860.15
747.079	856.05
747.264	800.76
747.449	884.72
747.634	905.2
747.819	813.04
748.003	804.85
748.188	743.41
748.373	733.17
748.557	751.6
748.742	714.74
748.927	749.56
749.111	739.32
749.296	802.8
749.481	765.94
749.665	755.7
749.85	692.21
750.034	675.83
750.219	759.8
750.404	788.47
750.588	774.13
750.773	716.79
750.957	706.55
751.141	739.32
751.326	659.45
751.51	598.01
751.695	673.78
751.879	696.31
752.064	671.73
752.248	751.6
752.432	731.12
752.617	706.55
752.801	700.41
752.985	677.88
753.17	688.12
753.354	673.78
753.538	704.5
753.722	630.77
753.907	624.63
754.091	643.06
754.275	677.88
754.459	749.56
754.643	663.54
754.828	655.35
755.012	661.49
755.196	567.29
755.38	550.9
755.564	624.63
755.748	677.88
755.932	595.96
756.116	608.25
756.3	532.47
756.484	585.72
756.668	657.4
756.852	567.29
757.036	548.86
757.22	557.05
757.404	532.47
757.588	563.19
757.772	593.91
757.956	622.58
758.14	548.86
758.323	610.29
758.507	479.22
758.691	536.57
758.875	579.58
759.059	559.1
759.242	499.7
759.426	532.47
759.61	448.51
759.794	507.9
759.977	499.7
760.161	509.94
760.345	440.31
760.528	434.17
760.712	591.86
760.895	561.14
761.079	501.75
761.263	559.1
761.446	491.51
761.63	528.38
761.813	567.29
761.997	487.42
762.18	477.18
762.364	468.98
762.547	413.69
762.731	456.7
762.914	552.95
763.098	423.93
763.281	444.41
763.464	456.7
763.648	507.9
763.831	423.93
764.015	454.65
764.198	460.79
764.381	452.6
764.564	497.66
764.748	413.69
764.931	436.22
765.114	399.35
765.297	487.42
765.481	393.21
765.664	475.13
765.847	475.13
766.03	475.13
766.213	456.7
766.397	448.51
766.58	466.94
766.763	462.84
766.946	401.4
767.129	507.9
767.312	483.32
767.495	475.13
767.678	460.79
767.861	417.79
768.044	397.31
768.227	436.22
768.41	475.13
768.593	454.65
768.776	483.32
768.959	503.8
769.142	415.74
769.324	446.46
769.507	503.8
769.69	454.65
769.873	374.78
770.056	434.17
770.239	362.49
770.421	448.51
770.604	446.46
770.787	407.55
770.97	376.83
771.152	372.73
771.335	458.74
771.518	356.35
771.7	346.11
771.883	450.55
772.066	448.51
772.248	391.16
772.431	438.27
772.613	387.07
772.796	413.69
772.978	389.11
773.161	421.88
773.343	440.31
773.526	442.36
773.708	401.4
773.891	331.77
774.073	352.25
774.256	380.92
774.438	389.11
774.621	368.63
774.803	364.54
774.985	313.34
775.168	352.25
775.35	405.5
775.532	354.3
775.715	407.55
775.897	294.91
776.079	401.4
776.261	348.15
776.444	337.91
776.626	376.83
776.808	299
776.99	249.85
777.173	344.06
777.355	315.39
777.537	311.29
777.719	319.48
777.901	270.33
778.083	389.11
778.265	278.52
778.447	344.06
778.629	333.82
778.811	321.53
778.993	251.9
779.175	307.2
779.357	305.15
779.539	282.62
779.721	278.52
779.903	313.34
780.085	231.42
780.267	362.49
780.449	270.33
780.631	321.53
780.812	296.96
780.994	335.87
781.176	323.58
781.358	276.48
781.54	288.76
781.721	305.15
781.903	210.94
782.085	274.43
782.267	315.39
782.448	194.56
782.63	288.76
782.812	296.96
782.993	231.42
783.175	180.22
783.357	350.2
783.538	249.85
783.72	339.96
783.901	239.61
784.083	296.96
784.264	247.8
784.446	212.99
784.627	172.03
784.809	264.19
784.99	319.48
785.172	202.75
785.353	231.42
785.535	217.08
785.716	206.84
785.897	247.8
786.079	194.56
786.26	286.72
786.441	237.56
786.623	260.09
786.804	204.8
786.985	260.09
787.167	204.8
787.348	198.65
787.529	186.37
787.71	200.7
787.891	315.39
788.073	190.46
788.254	215.04
788.435	204.8
788.616	229.37
788.797	215.04
788.978	227.32
789.159	229.37
789.34	266.24
789.522	153.6
789.703	184.32
789.884	147.45
790.065	188.41
790.246	172.03
790.427	139.26
790.607	178.17
790.788	245.76
790.969	227.32
791.15	153.6
791.331	212.99
791.512	169.98
791.693	149.5
791.874	145.41
792.054	237.56
792.235	165.89
792.416	190.46
792.597	182.27
792.778	147.45
792.958	165.89
793.139	208.89
793.32	159.74
793.5	143.36
793.681	229.37
793.862	169.98
794.042	180.22
794.223	243.71
794.404	157.69
794.584	157.69
794.765	161.79
794.945	215.04
795.126	141.31
795.306	108.54
795.487	139.26
795.667	159.74
795.848	112.64
796.028	172.03
796.209	141.31
796.389	110.59
796.57	81.92
796.75	81.92
796.93	169.98
797.111	114.69
797.291	153.6
797.471	194.56
797.652	131.07
797.832	122.88
798.012	155.65
798.192	147.45
798.373	133.12
798.553	157.69
798.733	116.73
798.913	131.07
799.093	143.36
799.274	102.4
799.454	167.93
799.634	114.69
799.814	131.07
799.994	88.06
800.174	172.03
800.354	116.73
800.534	176.13
800.714	165.89
800.894	106.49
801.074	133.12
801.254	102.4
801.434	90.11
801.614	90.11
801.794	90.11
801.974	403.45
802.154	100.35
802.334	157.69
802.514	104.45
802.693	139.26
802.873	147.45
803.053	149.5
803.233	75.77
803.413	161.79
803.592	24.58
803.772	32.77
803.952	114.69
804.131	149.5
804.311	141.31
804.491	75.77
804.67	36.86
804.85	77.82
805.03	124.93
805.209	102.4
805.389	45.06
805.568	90.11
805.748	106.49
805.928	86.01
806.107	108.54
806.287	122.88
806.466	106.49
806.646	124.93
806.825	133.12
807.004	100.35
807.184	61.44
807.363	129.02
807.543	98.3
807.722	118.78
807.901	81.92
808.081	81.92
808.26	57.34
808.439	110.59
808.619	106.49
808.798	159.74
808.977	122.88
809.156	118.78
809.336	174.08
809.515	135.17
809.694	90.11
809.873	100.35
810.052	92.16
810.231	137.21
810.411	139.26
810.59	61.44
810.769	151.55
810.948	112.64
811.127	28.67
811.306	98.3
811.485	61.44
811.664	194.56
811.843	126.97
812.022	104.45
812.201	122.88
812.38	69.63
812.559	81.92
812.737	32.77
812.916	86.01
813.095	184.32
813.274	159.74
813.453	112.64
813.632	30.72
813.811	83.97
813.989	-6.14
814.168	73.73
814.347	90.11
814.526	65.53
814.704	69.63
814.883	47.1
815.062	36.86
815.24	108.54
815.419	-20.48
815.598	90.11
815.776	116.73
815.955	43.01
816.133	43.01
816.312	96.25
816.49	69.63
816.669	83.97
816.847	110.59
817.026	43.01
817.204	24.58
817.383	20.48
817.561	26.62
817.74	55.3
817.918	63.49
818.097	40.96
818.275	79.87
818.453	92.16
818.632	-16.38
818.81	86.01
818.988	40.96
819.167	83.97
819.345	18.43
819.523	26.62
819.701	63.49
819.879	73.73
820.058	65.53
820.236	90.11
820.414	73.73
820.592	59.39
820.77	36.86
820.948	94.21
821.127	28.67
821.305	65.53
821.483	77.82
821.661	67.58
821.839	16.38
822.017	83.97
822.195	51.2
822.373	63.49
822.551	28.67
822.729	116.73
822.907	40.96
823.085	94.21
823.262	57.34
823.44	34.82
823.618	36.86
823.796	131.07
823.974	49.15
824.152	75.77
824.329	49.15
824.507	81.92
824.685	2.05
824.863	30.72
825.04	57.34
825.218	30.72
825.396	-34.82
825.574	40.96
825.751	26.62
825.929	32.77
826.107	79.87
826.284	71.68
826.462	32.77
826.639	61.44
826.817	4.1
826.994	57.34
827.172	30.72
827.349	59.39
827.527	-34.82
827.704	2.05
827.882	67.58
828.059	69.63
828.237	14.34
828.414	49.15
828.591	-4.1
828.769	-8.19
828.946	53.25
829.124	32.77
829.301	6.14
829.478	12.29
829.655	-0
829.833	108.54
830.01	92.16
830.187	129.02
830.364	79.87
830.542	38.91
830.719	90.11
830.896	102.4
831.073	69.63
831.25	40.96
831.427	22.53
831.604	43.01
831.782	69.63
831.959	32.77
832.136	4.1
832.313	51.2
832.49	47.1
832.667	24.58
832.844	108.54
833.021	24.58
833.198	67.58
833.374	40.96
833.551	-12.29
833.728	73.73
833.905	4.1
834.082	45.06
834.259	32.77
834.436	24.58
834.612	-4.1
834.789	38.91
834.966	-8.19
835.143	10.24
835.319	-18.43
835.496	116.73
835.673	2.05
835.85	100.35
836.026	47.1
836.203	77.82
836.38	-26.62
836.556	86.01
836.733	-28.67
836.909	174.08
837.086	6.14
837.262	-57.34
837.439	20.48
837.616	-30.72
837.792	43.01
837.968	45.06
838.145	-8.19
838.321	40.96
838.498	24.58
838.674	61.44
838.851	34.82
839.027	18.43
839.203	40.96
839.38	18.43
839.556	65.53
839.732	-0
839.909	45.06
840.085	8.19
840.261	8.19
840.437	73.73
840.614	63.49
840.79	30.72
840.966	-8.19
841.142	69.63
841.318	10.24
841.494	24.58
841.671	43.01
841.847	34.82
842.023	22.53
842.199	59.39
842.375	61.44
842.551	83.97
842.727	49.15
842.903	61.44
843.079	43.01
843.255	77.82
843.431	63.49
843.607	28.67
843.783	28.67
843.959	45.06
844.134	-18.43
844.31	6.14
844.486	86.01
844.662	90.11
844.838	57.34
845.013	75.77
845.189	77.82
845.365	4.1
845.541	14.34
845.716	8.19
845.892	26.62
846.068	14.34
846.244	65.53
846.419	65.53
846.595	110.59
846.77	-47.1
846.946	90.11
847.122	47.1
847.297	45.06
847.473	49.15
847.648	77.82
847.824	-14.34
847.999	18.43
848.175	12.29
848.35	73.73
848.526	49.15
848.701	24.58
848.876	-2.05
849.052	30.72
849.227	-40.96
849.403	-16.38
849.578	65.53
849.753	-36.86
849.929	67.58
850.104	-20.48
850.279	10.24
850.454	8.19
850.63	36.86
850.805	-6.14
850.98	55.3
851.155	-22.53
851.33	43.01
851.505	-6.14
851.681	38.91
851.856	12.29
852.031	43.01
852.206	10.24
852.381	20.48
852.556	-20.48
852.731	83.97
852.906	-22.53
853.081	36.86
853.256	26.62
853.431	36.86
853.606	16.38
853.781	45.06
853.956	-0
854.131	26.62
854.305	-16.38
854.48	30.72
854.655	57.34
854.83	-61.44
855.005	-38.91
855.18	10.24
855.354	34.82
855.529	8.19
855.704	4.1
855.879	-55.3
856.053	16.38
856.228	65.53
856.403	45.06
856.577	12.29
856.752	73.73
856.926	57.34
857.101	-10.24
857.276	45.06
857.45	18.43
857.625	43.01
857.799	-4.1
857.974	10.24
858.148	-38.91
858.323	-10.24
858.497	-28.67
858.672	-4.1
858.846	-4.1
859.02	40.96
859.195	16.38
859.369	65.53
859.543	8.19
859.718	47.1
859.892	38.91
860.066	100.35
860.241	22.53
860.415	36.86
860.589	36.86
860.763	73.73
860.938	-67.58
861.112	10.24
861.286	-8.19
861.46	-12.29
861.634	36.86
861.808	-69.63
861.982	53.25
862.157	-16.38
862.331	34.82
862.505	-2.05
862.679	16.38
862.853	8.19
863.027	69.63
863.201	6.14
863.375	-57.34
863.549	-47.1
863.722	-45.06
863.896	90.11
864.07	14.34
864.244	-43.01
864.418	40.96
864.592	-14.34
864.766	-32.77
864.939	4.1
865.113	-16.38
865.287	28.67
865.461	-34.82
865.634	-2.05
865.808	59.39
865.982	-4.1
866.156	10.24
866.329	-0
866.503	-36.86
866.676	-38.91
866.85	-90.11
867.024	51.2
867.197	24.58
867.371	51.2
867.544	30.72
867.718	-0
867.891	32.77
868.065	-67.58
868.238	-30.72
868.412	20.48
868.585	8.19
868.759	6.14
868.932	-28.67
869.105	18.43
869.279	-73.73
869.452	98.3
869.625	-47.1
869.799	36.86
869.972	-8.19
870.145	22.53
870.319	-10.24
870.492	26.62
870.665	30.72
870.838	40.96
871.011	10.24
871.185	26.62
871.358	-26.62
871.531	36.86
871.704	47.1
871.877	-4.1
872.05	45.06
872.223	4.1
872.396	-36.86
872.569	30.72
872.742	-40.96
872.915	75.77
873.088	45.06
873.261	-36.86
873.434	32.77
873.607	-26.62
873.78	59.39
873.953	34.82
874.126	-63.49
874.299	92.16
874.471	49.15
874.644	2.05
874.817	6.14
874.99	59.39
875.163	49.15
875.335	-116.73
875.508	-90.11
875.681	-6.14
875.853	-34.82
876.026	18.43
876.199	2.05
876.371	-14.34
876.544	-12.29
876.717	57.34
876.889	32.77
877.062	-16.38
877.234	16.38
877.407	8.19
877.579	-4.1
877.752	10.24
877.924	-14.34
878.097	-16.38
878.269	47.1
878.442	2.05
878.614	63.49
878.786	26.62
878.959	24.58
879.131	6.14
879.303	-4.1
879.476	34.82
879.648	71.68
879.82	34.82
879.993	-16.38
880.165	-14.34
880.337	-18.43
880.509	14.34
880.681	-6.14
880.854	8.19
881.026	24.58
881.198	28.67
881.37	38.91
881.542	-4.1
881.714	-34.82
881.886	-14.34
882.058	2.05
882.23	20.48
882.402	22.53
882.574	36.86
882.746	36.86
882.918	67.58
883.09	24.58
883.262	-71.68
883.434	-2.05
883.606	53.25
883.778	-2.05
883.95	59.39
884.122	65.53
884.293	94.21
884.465	-57.34
884.637	-8.19
884.809	-8.19
884.98	12.29
885.152	-8.19
885.324	59.39
885.496	22.53
885.667	-2.05
885.839	40.96
886.011	86.01
886.182	-0
886.354	57.34
886.525	57.34
886.697	-2.05
886.869	26.62
887.04	-16.38
887.212	36.86
887.383	-14.34
887.555	32.77
887.726	6.14
887.897	-16.38
888.069	-30.72
888.24	-14.34
888.412	32.77
888.583	-24.58
888.754	-43.01
888.926	86.01
889.097	-49.15
889.268	18.43
889.44	28.67
889.611	32.77
889.782	-47.1
889.953	49.15
890.125	22.53
890.296	24.58
890.467	-22.53
890.638	38.91
890.809	65.53
890.98	12.29
891.151	26.62
891.323	40.96
891.494	-4.1
891.665	12.29
891.836	-28.67
892.007	73.73
892.178	14.34
892.349	16.38
892.52	18.43
892.691	-47.1
892.862	-6.14
893.032	-0
893.203	26.62
893.374	-26.62
893.545	32.77
893.716	-45.06
893.887	4.1
894.057	-51.2
894.228	4.1
894.399	22.53
894.57	43.01
894.74	63.49
894.911	-16.38
895.082	40.96
895.253	51.2
895.423	-36.86
895.594	53.25
895.764	4.1
895.935	49.15
896.106	24.58
896.276	-20.48
896.447	-0
896.617	-22.53
896.788	57.34
896.958	8.19
897.129	-45.06
897.299	-24.58
897.47	4.1
897.64	10.24
897.81	-18.43
897.981	16.38
898.151	4.1
898.322	-51.2
898.492	-14.34
898.662	-26.62
898.832	-71.68
899.003	40.96
899.173	-16.38
899.343	-12.29
899.513	16.38
