Data from USB4F104151__10__13-52-14-805.txt Node

Date: Thu Mar 13 13:52:14 EDT 2025
User: louis
Spectrometer: USB4F10415
Trigger mode: 4
Integration Time (sec): 1.000000E-2
Scans to average: 1
Electric dark correction enabled: true
Nonlinearity correction enabled: false
Boxcar width: 0
XAxis mode: Wavelengths
Number of Pixels in Spectrum: 3648
>>>>>Begin Spectral Data<<<<<
178.204	-124.07
178.424	-124.07
178.644	-124.07
178.864	9.05
179.084	-89.26
179.304	11.09
179.524	-60.59
179.744	-7.34
179.964	-33.96
180.184	-1.19
180.404	11.09
180.624	31.57
180.844	-19.63
181.064	-17.58
181.283	-33.96
181.503	4.95
181.723	115.54
181.943	-46.25
182.163	17.24
182.383	-48.3
182.602	-3.24
182.822	-9.39
183.042	13.14
183.262	-81.07
183.482	-31.91
183.701	11.09
183.921	-17.58
184.141	7
184.361	60.24
184.58	-11.43
184.8	-42.15
185.02	-81.07
185.239	88.92
185.459	76.63
185.679	56.15
185.898	21.33
186.118	131.92
186.338	43.86
186.557	-11.43
186.777	19.29
186.997	43.86
187.216	21.33
187.436	15.19
187.655	54.1
187.875	21.33
188.095	88.92
188.314	25.43
188.534	64.34
188.753	-25.77
188.973	11.09
189.192	-25.77
189.412	76.63
189.631	54.1
189.851	9.05
190.07	-42.15
190.29	-9.39
190.509	4.95
190.729	47.96
190.948	27.48
191.168	70.48
191.387	25.43
191.607	17.24
191.826	-64.68
192.045	27.48
192.265	31.57
192.484	4.95
192.704	29.52
192.923	15.19
193.142	86.87
193.362	-21.67
193.581	-9.39
193.8	-17.58
194.02	11.09
194.239	33.62
194.458	60.24
194.678	25.43
194.897	-17.58
195.116	31.57
195.335	80.72
195.555	-40.11
195.774	-11.43
195.993	0.85
196.212	-44.2
196.432	15.19
196.651	41.81
196.87	56.15
197.089	50
197.308	43.86
197.528	-44.2
197.747	64.34
197.966	113.49
198.185	-1.19
198.404	80.72
198.623	47.96
198.842	-17.58
199.062	15.19
199.281	15.19
199.5	-25.77
199.719	39.76
199.938	21.33
200.157	-9.39
200.376	-19.63
200.595	-97.45
200.814	90.96
201.033	-25.77
201.252	-23.72
201.471	-46.25
201.69	35.67
201.909	41.81
202.128	-9.39
202.347	68.44
202.566	2.9
202.785	9.05
203.004	-19.63
203.223	15.19
203.442	47.96
203.661	19.29
203.879	-1.19
204.098	60.24
204.317	31.57
204.536	76.63
204.755	-15.53
204.974	-87.21
205.193	27.48
205.411	13.14
205.63	-15.53
205.849	70.48
206.068	43.86
206.287	82.77
206.505	58.2
206.724	84.82
206.943	43.86
207.162	-19.63
207.381	27.48
207.599	60.24
207.818	-19.63
208.037	60.24
208.255	-33.96
208.474	37.72
208.693	-21.67
208.911	31.57
209.13	-11.43
209.349	-9.39
209.567	-58.54
209.786	97.11
210.005	0.85
210.223	66.39
210.442	-85.16
210.661	-44.2
210.879	58.2
211.098	0.85
211.316	-60.59
211.535	95.06
211.753	13.14
211.972	56.15
212.191	-11.43
212.409	33.62
212.628	-11.43
212.846	-13.48
213.065	58.2
213.283	39.76
213.502	64.34
213.72	-5.29
213.938	-48.3
214.157	23.38
214.375	66.39
214.594	-19.63
214.812	-11.43
215.031	68.44
215.249	31.57
215.467	-56.49
215.686	62.29
215.904	-27.82
216.122	4.95
216.341	-54.44
216.559	27.48
216.778	35.67
216.996	9.05
217.214	25.43
217.432	31.57
217.651	29.52
217.869	43.86
218.087	50
218.306	-23.72
218.524	52.05
218.742	99.16
218.96	17.24
219.179	-19.63
219.397	33.62
219.615	41.81
219.833	-7.34
220.051	-68.78
220.27	-11.43
220.488	7
220.706	-21.67
220.924	-15.53
221.142	-29.87
221.36	21.33
221.578	11.09
221.796	7
222.015	-19.63
222.233	45.91
222.451	15.19
222.669	-11.43
222.887	15.19
223.105	-40.11
223.323	-21.67
223.541	66.39
223.759	21.33
223.977	80.72
224.195	-1.19
224.413	-31.91
224.631	72.53
224.849	-21.67
225.067	2.9
225.285	29.52
225.503	29.52
225.721	31.57
225.939	58.2
226.157	-42.15
226.375	58.2
226.592	97.11
226.81	23.38
227.028	-1.19
227.246	52.05
227.464	2.9
227.682	105.3
227.9	23.38
228.117	-50.35
228.335	-17.58
228.553	-31.91
228.771	-29.87
228.989	-52.39
229.206	54.1
229.424	-23.72
229.642	-25.77
229.86	-13.48
230.077	31.57
230.295	70.48
230.513	-1.19
230.731	33.62
230.948	2.9
231.166	33.62
231.384	-52.39
231.601	39.76
231.819	-1.19
232.037	-5.29
232.254	41.81
232.472	41.81
232.689	-42.15
232.907	7
233.125	2.9
233.342	-7.34
233.56	33.62
233.777	9.05
233.995	-3.24
234.213	35.67
234.43	-31.91
234.648	72.53
234.865	70.48
235.083	68.44
235.3	-13.48
235.518	11.09
235.735	-3.24
235.953	-56.49
236.17	-38.06
236.388	-62.63
236.605	-29.87
236.822	43.86
237.04	45.91
237.257	-13.48
237.475	17.24
237.692	-5.29
237.909	37.72
238.127	37.72
238.344	41.81
238.562	-13.48
238.779	-68.78
238.996	41.81
239.214	41.81
239.431	-9.39
239.648	-29.87
239.865	4.95
240.083	-3.24
240.3	23.38
240.517	19.29
240.735	62.29
240.952	-27.82
241.169	29.52
241.386	35.67
241.603	66.39
241.821	-5.29
242.038	47.96
242.255	-58.54
242.472	25.43
242.689	33.62
242.907	9.05
243.124	-85.16
243.341	-42.15
243.558	97.11
243.775	39.76
243.992	23.38
244.209	29.52
244.426	29.52
244.643	23.38
244.86	27.48
245.078	11.09
245.295	39.76
245.512	54.1
245.729	25.43
245.946	29.52
246.163	-50.35
246.38	-15.53
246.597	17.24
246.814	7
247.031	11.09
247.248	17.24
247.464	47.96
247.681	21.33
247.898	15.19
248.115	58.2
248.332	-15.53
248.549	47.96
248.766	-40.11
248.983	68.44
249.2	-5.29
249.417	-9.39
249.633	-5.29
249.85	52.05
250.067	90.96
250.284	2.9
250.501	23.38
250.717	76.63
250.934	-50.35
251.151	-11.43
251.368	-1.19
251.585	2.9
251.801	29.52
252.018	-40.11
252.235	35.67
252.451	4.95
252.668	37.72
252.885	84.82
253.102	43.86
253.318	17.24
253.535	47.96
253.752	-23.72
253.968	-11.43
254.185	19.29
254.401	23.38
254.618	15.19
254.835	19.29
255.051	68.44
255.268	11.09
255.484	-3.24
255.701	-5.29
255.917	0.85
256.134	2.9
256.351	33.62
256.567	-60.59
256.784	11.09
257	-3.24
257.217	-25.77
257.433	21.33
257.65	-66.73
257.866	52.05
258.082	-23.72
258.299	-91.31
258.515	31.57
258.732	-3.24
258.948	15.19
259.165	37.72
259.381	13.14
259.597	7
259.814	-21.67
260.03	52.05
260.246	27.48
260.463	27.48
260.679	-15.53
260.895	33.62
261.112	25.43
261.328	2.9
261.544	-42.15
261.761	50
261.977	-11.43
262.193	23.38
262.409	-5.29
262.626	0.85
262.842	-19.63
263.058	7
263.274	13.14
263.49	15.19
263.707	43.86
263.923	101.2
264.139	-21.67
264.355	52.05
264.571	52.05
264.787	-21.67
265.004	37.72
265.22	15.19
265.436	70.48
265.652	15.19
265.868	35.67
266.084	-15.53
266.3	4.95
266.516	-58.54
266.732	68.44
266.948	-42.15
267.164	37.72
267.38	4.95
267.596	2.9
267.812	11.09
268.028	41.81
268.244	-74.92
268.46	41.81
268.676	-27.82
268.892	-5.29
269.108	70.48
269.324	76.63
269.54	80.72
269.756	80.72
269.972	-62.63
270.188	39.76
270.403	9.05
270.619	17.24
270.835	-3.24
271.051	-44.2
271.267	-11.43
271.483	43.86
271.698	54.1
271.914	47.96
272.13	-33.96
272.346	33.62
272.562	-19.63
272.777	35.67
272.993	-5.29
273.209	-40.11
273.425	-33.96
273.64	25.43
273.856	7
274.072	-9.39
274.287	13.14
274.503	-13.48
274.719	19.29
274.934	-25.77
275.15	7
275.366	-21.67
275.581	-11.43
275.797	50
276.012	-9.39
276.228	97.11
276.444	45.91
276.659	-5.29
276.875	-7.34
277.09	-38.06
277.306	-5.29
277.521	31.57
277.737	15.19
277.952	-23.72
278.168	-23.72
278.383	62.29
278.599	-38.06
278.814	60.24
279.03	-38.06
279.245	0.85
279.461	-27.82
279.676	-13.48
279.892	-9.39
280.107	17.24
280.322	37.72
280.538	43.86
280.753	-5.29
280.969	13.14
281.184	15.19
281.399	-5.29
281.615	33.62
281.83	88.92
282.045	-11.43
282.26	7
282.476	-7.34
282.691	-13.48
282.906	37.72
283.122	9.05
283.337	-42.15
283.552	-11.43
283.767	33.62
283.983	60.24
284.198	23.38
284.413	43.86
284.628	-21.67
284.843	-1.19
285.058	-29.87
285.274	37.72
285.489	-50.35
285.704	2.9
285.919	-33.96
286.134	23.38
286.349	21.33
286.564	-54.44
286.779	-33.96
286.995	4.95
287.21	43.86
287.425	21.33
287.64	-15.53
287.855	7
288.07	-7.34
288.285	41.81
288.5	-17.58
288.715	25.43
288.93	4.95
289.145	-9.39
289.36	35.67
289.575	4.95
289.79	39.76
290.004	-3.24
290.219	56.15
290.434	66.39
290.649	39.76
290.864	103.25
291.079	80.72
291.294	-5.29
291.509	7
291.724	-11.43
291.938	82.77
292.153	-17.58
292.368	-58.54
292.583	29.52
292.798	76.63
293.012	-23.72
293.227	-19.63
293.442	2.9
293.657	-25.77
293.871	19.29
294.086	13.14
294.301	45.91
294.516	13.14
294.73	103.25
294.945	-9.39
295.16	-13.48
295.374	88.92
295.589	70.48
295.804	-3.24
296.018	-7.34
296.233	-23.72
296.447	-3.24
296.662	-33.96
296.877	27.48
297.091	52.05
297.306	127.83
297.52	-7.34
297.735	35.67
297.949	-38.06
298.164	-76.97
298.378	54.1
298.593	-11.43
298.807	-31.91
299.022	27.48
299.236	19.29
299.451	4.95
299.665	13.14
299.88	64.34
300.094	7
300.309	-23.72
300.523	47.96
300.737	41.81
300.952	15.19
301.166	0.85
301.381	-5.29
301.595	-21.67
301.809	-40.11
302.024	7
302.238	31.57
302.452	47.96
302.667	-9.39
302.881	-5.29
303.095	25.43
303.309	19.29
303.524	-11.43
303.738	58.2
303.952	43.86
304.166	31.57
304.381	7
304.595	-11.43
304.809	-19.63
305.023	93.01
305.237	0.85
305.452	7
305.666	7
305.88	54.1
306.094	-27.82
306.308	7
306.522	-27.82
306.736	-15.53
306.95	21.33
307.164	15.19
307.379	4.95
307.593	31.57
307.807	11.09
308.021	27.48
308.235	23.38
308.449	-25.77
308.663	80.72
308.877	68.44
309.091	-13.48
309.305	82.77
309.519	-50.35
309.733	-3.24
309.947	-5.29
310.161	-52.39
310.374	45.91
310.588	74.58
310.802	-19.63
311.016	47.96
311.23	-85.16
311.444	52.05
311.658	60.24
311.872	-17.58
312.085	58.2
312.299	50
312.513	11.09
312.727	7
312.941	2.9
313.154	-5.29
313.368	25.43
313.582	0.85
313.796	-36.01
314.009	25.43
314.223	13.14
314.437	7
314.651	19.29
314.864	-3.24
315.078	13.14
315.292	-17.58
315.505	4.95
315.719	80.72
315.933	4.95
316.146	35.67
316.36	-31.91
316.573	146.26
316.787	45.91
317.001	-17.58
317.214	-33.96
317.428	29.52
317.641	-19.63
317.855	88.92
318.068	-17.58
318.282	33.62
318.495	54.1
318.709	35.67
318.922	-25.77
319.136	56.15
319.349	-17.58
319.563	-15.53
319.776	-5.29
319.99	-1.19
320.203	-17.58
320.417	29.52
320.63	80.72
320.843	9.05
321.057	-50.35
321.27	-25.77
321.483	54.1
321.697	76.63
321.91	9.05
322.124	25.43
322.337	-23.72
322.55	29.52
322.763	-21.67
322.977	37.72
323.19	17.24
323.403	2.9
323.617	27.48
323.83	7
324.043	70.48
324.256	-42.15
324.469	-19.63
324.683	-5.29
324.896	66.39
325.109	86.87
325.322	21.33
325.535	60.24
325.748	56.15
325.962	-13.48
326.175	35.67
326.388	47.96
326.601	17.24
326.814	39.76
327.027	21.33
327.24	15.19
327.453	-9.39
327.666	-42.15
327.879	21.33
328.092	-7.34
328.305	-25.77
328.518	11.09
328.731	54.1
328.944	60.24
329.157	-25.77
329.37	11.09
329.583	107.35
329.796	33.62
330.009	-31.91
330.222	0.85
330.435	7
330.648	23.38
330.861	25.43
331.073	0.85
331.286	-27.82
331.499	-36.01
331.712	-11.43
331.925	23.38
332.138	-29.87
332.35	-25.77
332.563	35.67
332.776	39.76
332.989	-19.63
333.202	23.38
333.414	17.24
333.627	35.67
333.84	-25.77
334.053	-9.39
334.265	37.72
334.478	-60.59
334.691	4.95
334.903	-19.63
335.116	41.81
335.329	13.14
335.541	11.09
335.754	7
335.966	13.14
336.179	43.86
336.392	39.76
336.604	-56.49
336.817	-23.72
337.029	54.1
337.242	4.95
337.454	43.86
337.667	-1.19
337.88	-7.34
338.092	-13.48
338.305	0.85
338.517	-17.58
338.729	25.43
338.942	60.24
339.154	-46.25
339.367	-40.11
339.579	-11.43
339.792	-36.01
340.004	-23.72
340.217	25.43
340.429	25.43
340.641	56.15
340.854	29.52
341.066	-31.91
341.278	68.44
341.491	80.72
341.703	35.67
341.915	2.9
342.128	60.24
342.34	4.95
342.552	17.24
342.764	31.57
342.977	56.15
343.189	-7.34
343.401	29.52
343.613	99.16
343.826	-38.06
344.038	47.96
344.25	56.15
344.462	45.91
344.674	56.15
344.886	9.05
345.099	29.52
345.311	29.52
345.523	64.34
345.735	-38.06
345.947	0.85
346.159	-13.48
346.371	29.52
346.583	-79.02
346.795	62.29
347.007	64.34
347.219	23.38
347.431	68.44
347.643	52.05
347.855	27.48
348.067	-7.34
348.279	47.96
348.491	-7.34
348.703	-19.63
348.915	37.72
349.127	70.48
349.339	45.91
349.551	11.09
349.763	-25.77
349.975	95.06
350.187	-33.96
350.399	21.33
350.61	47.96
350.822	-23.72
351.034	19.29
351.246	33.62
351.458	-13.48
351.669	9.05
351.881	-7.34
352.093	9.05
352.305	103.25
352.517	-15.53
352.728	60.24
352.94	119.64
353.152	-25.77
353.363	-1.19
353.575	45.91
353.787	31.57
353.999	-1.19
354.21	45.91
354.422	-27.82
354.633	64.34
354.845	109.4
355.057	-5.29
355.268	54.1
355.48	-29.87
355.692	21.33
355.903	17.24
356.115	39.76
356.326	29.52
356.538	-19.63
356.749	15.19
356.961	-23.72
357.172	-17.58
357.384	-15.53
357.595	-60.59
357.807	-15.53
358.018	29.52
358.23	41.81
358.441	62.29
358.653	23.38
358.864	-1.19
359.075	35.67
359.287	9.05
359.498	0.85
359.709	68.44
359.921	7
360.132	37.72
360.344	-11.43
360.555	23.38
360.766	37.72
360.977	-21.67
361.189	66.39
361.4	64.34
361.611	33.62
361.823	-46.25
362.034	0.85
362.245	15.19
362.456	84.82
362.667	7
362.879	-52.39
363.09	-3.24
363.301	27.48
363.512	-19.63
363.723	-27.82
363.935	0.85
364.146	-44.2
364.357	-13.48
364.568	19.29
364.779	-11.43
364.99	84.82
365.201	13.14
365.412	54.1
365.623	15.19
365.834	47.96
366.045	70.48
366.256	56.15
366.467	-21.67
366.678	31.57
366.889	-36.01
367.1	-3.24
367.311	-15.53
367.522	33.62
367.733	19.29
367.944	0.85
368.155	47.96
368.366	11.09
368.577	21.33
368.788	4.95
368.999	56.15
369.209	0.85
369.42	-13.48
369.631	-38.06
369.842	-9.39
370.053	66.39
370.264	56.15
370.474	-11.43
370.685	37.72
370.896	-3.24
371.107	21.33
371.317	72.53
371.528	19.29
371.739	45.91
371.95	4.95
372.16	99.16
372.371	-11.43
372.582	9.05
372.792	39.76
373.003	80.72
373.214	9.05
373.424	-9.39
373.635	82.77
373.846	-7.34
374.056	-31.91
374.267	19.29
374.477	47.96
374.688	37.72
374.898	-29.87
375.109	54.1
375.319	11.09
375.53	43.86
375.74	70.48
375.951	60.24
376.161	15.19
376.372	62.29
376.582	76.63
376.793	27.48
377.003	-74.92
377.214	-7.34
377.424	17.24
377.635	17.24
377.845	11.09
378.055	25.43
378.266	23.38
378.476	60.24
378.686	-23.72
378.897	33.62
379.107	-33.96
379.317	41.81
379.528	-17.58
379.738	-9.39
379.948	33.62
380.158	11.09
380.369	-54.44
380.579	23.38
380.789	43.86
380.999	-7.34
381.21	33.62
381.42	27.48
381.63	-3.24
381.84	-27.82
382.05	-11.43
382.261	45.91
382.471	-29.87
382.681	-60.59
382.891	19.29
383.101	25.43
383.311	0.85
383.521	33.62
383.731	0.85
383.941	33.62
384.151	35.67
384.361	-13.48
384.571	15.19
384.781	54.1
384.991	25.43
385.201	43.86
385.411	-66.73
385.621	-5.29
385.831	11.09
386.041	-15.53
386.251	-5.29
386.461	60.24
386.671	-5.29
386.881	-15.53
387.091	0.85
387.301	-13.48
387.511	-40.11
387.72	-23.72
387.93	52.05
388.14	9.05
388.35	-31.91
388.56	7
388.769	52.05
388.979	47.96
389.189	41.81
389.399	88.92
389.609	-36.01
389.818	31.57
390.028	21.33
390.238	45.91
390.447	43.86
390.657	-7.34
390.867	62.29
391.076	7
391.286	-3.24
391.496	9.05
391.705	39.76
391.915	-11.43
392.125	60.24
392.334	-7.34
392.544	54.1
392.753	31.57
392.963	-31.91
393.172	21.33
393.382	15.19
393.591	39.76
393.801	7
394.01	-9.39
394.22	23.38
394.429	37.72
394.639	35.67
394.848	35.67
395.058	-7.34
395.267	47.96
395.477	50
395.686	21.33
395.895	72.53
396.105	4.95
396.314	43.86
396.524	25.43
396.733	43.86
396.942	54.1
397.152	27.48
397.361	43.86
397.57	93.01
397.78	101.2
397.989	-31.91
398.198	56.15
398.407	19.29
398.617	80.72
398.826	27.48
399.035	29.52
399.244	2.9
399.453	101.2
399.663	39.76
399.872	-48.3
400.081	23.38
400.29	2.9
400.499	13.14
400.708	-5.29
400.917	-81.07
401.127	76.63
401.336	11.09
401.545	111.44
401.754	54.1
401.963	64.34
402.172	23.38
402.381	101.2
402.59	-31.91
402.799	15.19
403.008	-11.43
403.217	107.35
403.426	62.29
403.635	54.1
403.844	58.2
404.053	39.76
404.262	95.06
404.471	31.57
404.68	0.85
404.888	-15.53
405.097	-1.19
405.306	54.1
405.515	84.82
405.724	27.48
405.933	62.29
406.142	56.15
406.35	-7.34
406.559	45.91
406.768	80.72
406.977	160.59
407.185	13.14
407.394	66.39
407.603	66.39
407.812	90.96
408.02	58.2
408.229	97.11
408.438	29.52
408.646	58.2
408.855	54.1
409.064	113.49
409.272	68.44
409.481	129.88
409.69	154.45
409.898	50
410.107	86.87
410.315	58.2
410.524	131.92
410.733	107.35
410.941	117.59
411.15	142.16
411.358	97.11
411.567	80.72
411.775	111.44
411.984	152.4
412.192	172.88
412.401	166.74
412.609	156.5
412.818	164.69
413.026	121.68
413.234	185.17
413.443	156.5
413.651	158.55
413.86	144.21
414.068	150.36
414.276	123.73
414.485	170.83
414.693	193.36
414.901	238.42
415.11	195.41
415.318	215.89
415.526	228.18
415.734	226.13
415.943	289.62
416.151	299.86
416.359	211.79
416.567	228.18
416.776	275.28
416.984	320.34
417.192	256.85
417.4	346.96
417.608	213.84
417.817	277.33
418.025	389.97
418.233	318.29
418.441	338.77
418.649	318.29
418.857	346.96
419.065	291.66
419.273	402.26
419.481	373.58
419.689	410.45
419.897	443.21
420.105	490.32
420.313	455.5
420.521	533.33
420.729	447.31
420.937	486.22
421.145	510.8
421.353	549.71
421.561	568.14
421.769	580.43
421.977	623.44
422.185	584.52
422.393	676.68
422.601	650.06
422.809	654.16
423.017	660.3
423.224	725.83
423.432	717.64
423.64	723.79
423.848	842.57
424.056	830.28
424.263	891.72
424.471	953.16
424.679	869.19
424.887	936.78
425.094	987.97
425.302	932.68
425.51	959.3
425.718	967.49
425.925	1041.22
426.133	1045.32
426.341	1053.51
426.548	1133.38
426.756	1157.96
426.964	1203.01
427.171	1227.59
427.379	1246.02
427.586	1411.9
427.794	1338.18
428.001	1407.81
428.209	1499.97
428.417	1379.14
428.624	1508.16
428.832	1522.49
429.039	1610.56
429.247	1538.88
429.454	1649.47
429.662	1827.64
429.869	1633.08
430.076	1848.12
430.284	1747.77
430.491	1827.64
430.699	1856.31
430.906	1925.94
431.114	1942.33
431.321	2014.01
431.528	2042.68
431.736	2159.41
431.943	2374.45
432.15	2181.94
432.358	2270
432.565	2333.49
432.772	2337.59
432.979	2386.74
433.187	2636.59
433.394	2665.26
433.601	2816.81
433.808	2700.08
434.016	2685.74
434.223	2894.63
434.43	3097.38
434.637	2968.36
434.844	3044.13
435.052	3173.16
435.259	3158.82
435.466	3232.55
435.673	3189.54
435.88	3392.29
436.087	3404.58
436.294	3588.89
436.501	3545.89
436.708	3556.13
436.915	3556.13
437.122	3826.46
437.329	3701.53
437.537	4041.5
437.743	4068.12
437.95	3965.72
438.157	4303.64
438.364	4262.68
438.571	4262.68
438.778	4270.87
438.985	4678.41
439.192	4635.41
439.399	4631.31
439.606	4725.52
439.813	4938.51
440.02	5149.45
440.227	4946.7
440.433	5077.77
440.64	5008.14
440.847	5049.1
441.054	5171.97
441.261	5518.08
441.467	5475.07
441.674	5747.45
441.881	5915.39
442.088	5880.57
442.294	5667.58
442.501	5829.37
442.708	6056.7
442.914	6230.77
443.121	6529.78
443.328	6460.15
443.534	6871.79
443.741	6710
443.948	6517.49
444.154	7000.81
444.361	6892.27
444.568	6976.23
444.774	7170.79
444.981	6945.52
445.187	7439.08
445.394	7668.45
445.6	7514.85
445.807	8293.08
446.013	7881.44
446.22	7903.96
446.426	8250.07
446.633	8307.41
446.839	8606.42
447.046	8375
447.252	8850.13
447.459	8682.19
447.665	8950.48
447.871	9089.74
448.078	9497.28
448.284	9124.55
448.491	9568.96
448.697	9841.34
448.903	9804.48
449.11	9949.89
449.316	9841.34
449.522	10119.87
449.728	10273.46
449.935	10107.58
450.141	10064.57
450.347	10695.35
450.553	10273.46
450.76	10212.03
450.966	10496.69
451.172	10572.47
451.378	10683.06
451.584	10560.18
451.791	10758.83
451.997	10742.45
452.203	11035.31
452.409	10957.49
452.615	10697.39
452.821	10412.73
453.027	10443.45
453.233	10840.75
453.44	10490.55
453.646	10519.22
453.852	10621.62
454.058	10945.2
454.264	10416.82
454.47	10775.22
454.676	10261.18
454.882	10762.93
455.088	9775.81
455.294	10011.32
455.5	10224.31
455.705	10117.82
455.911	9788.1
456.117	9546.44
456.323	9546.44
456.529	8886.99
456.735	9335.49
456.941	9157.32
457.147	8919.76
457.352	8753.87
457.558	8512.21
457.764	8540.88
457.97	8481.49
458.176	8067.8
458.381	8092.38
458.587	7793.37
458.793	7834.33
458.999	7514.85
459.204	7910.11
459.41	7723.74
459.616	7297.77
459.821	7092.97
460.027	7271.14
460.233	6935.28
460.438	6722.29
460.644	6716.14
460.85	6341.36
461.055	6218.49
461.261	6306.55
461.466	5866.24
461.672	5602.05
461.878	5997.31
462.083	5716.73
462.289	5513.99
462.494	5452.55
462.7	5151.49
462.905	5319.43
463.111	5370.63
463.316	5153.54
463.522	5303.04
463.727	5397.25
463.932	5276.42
464.138	5094.15
464.343	5155.59
464.549	4961.03
464.754	5178.12
464.959	5126.92
465.165	5313.28
465.37	5006.09
465.575	4801.29
465.781	5151.49
465.986	5133.06
466.191	4854.54
466.397	4780.81
466.602	4664.08
466.807	4881.16
467.012	4723.47
467.218	4662.03
467.423	4582.16
467.628	4776.72
467.833	4877.07
468.038	4676.37
468.244	4504.34
468.449	4762.38
468.654	4584.21
468.859	4594.45
469.064	4586.26
469.269	4383.51
469.474	4365.07
469.679	4451.09
469.885	4313.88
470.09	4238.1
470.295	4289.3
470.5	4213.53
470.705	4320.02
470.91	4113.17
471.115	4068.12
471.32	4178.71
471.525	4307.73
471.73	4250.39
471.935	4145.94
472.139	3939.1
472.344	3937.05
472.549	3951.39
472.754	3891.99
472.959	3765.02
473.164	3715.87
473.369	3779.36
473.574	3930.91
473.778	3805.98
473.983	3640.09
474.188	3789.6
474.393	3474.21
474.598	3650.33
474.802	3539.74
475.007	3568.41
475.212	3504.93
475.417	3566.37
475.621	3371.81
475.826	3420.96
476.031	3396.39
476.235	3420.96
476.44	3488.54
476.645	3214.12
476.849	3418.91
477.054	3353.38
477.259	3265.32
477.463	3203.88
477.668	3183.4
477.872	3103.53
478.077	3154.73
478.282	2960.17
478.486	3035.94
478.691	2976.55
478.895	3007.27
479.1	2945.83
479.304	2845.48
479.509	2888.49
479.713	2913.06
479.918	2831.15
480.122	2859.82
480.326	2829.1
480.531	2792.23
480.735	2857.77
480.94	2890.54
481.144	2855.72
481.348	2730.8
481.553	2788.14
481.757	2900.78
481.961	2712.36
482.166	2779.95
482.37	2749.23
482.574	2700.08
482.778	2759.47
482.983	2738.99
483.187	2792.23
483.391	2835.24
483.595	2841.39
483.8	2847.53
484.004	2798.38
484.208	2962.22
484.412	2706.22
484.616	2687.79
484.821	2908.97
485.025	2765.61
485.229	2906.92
485.433	2786.09
485.637	2702.12
485.841	2630.45
486.045	2730.8
486.249	2808.62
486.453	2669.36
486.657	2781.99
486.861	2861.87
487.065	2749.23
487.269	2749.23
487.473	2761.52
487.677	2773.8
487.881	2798.38
488.085	2790.19
488.289	2767.66
488.493	2730.8
488.697	2933.54
488.901	2868.01
489.105	2687.79
489.309	2810.67
489.512	2777.9
489.716	2857.77
489.92	2843.43
490.124	2880.3
490.328	2878.25
490.531	2822.95
490.735	2874.15
490.939	2956.07
491.143	2941.74
491.346	2865.96
491.55	3013.42
491.754	2923.3
491.958	2913.06
492.161	2853.67
492.365	3099.43
492.569	3050.28
492.772	2898.73
492.976	3052.33
493.18	3117.86
493.383	3134.25
493.587	3148.58
493.79	3109.67
493.994	3113.77
494.197	3060.52
494.401	3212.07
494.605	3148.58
494.808	3322.66
495.012	3222.31
495.215	3183.4
495.419	3277.6
495.622	3183.4
495.825	3349.28
496.029	3367.71
496.232	3476.26
496.436	3365.67
496.639	3617.57
496.843	3541.79
497.046	3476.26
497.249	3646.24
497.453	3588.89
497.656	3726.11
497.859	3670.81
498.063	3629.85
498.266	3744.54
498.469	3681.05
498.673	3863.32
498.876	3982.1
499.079	4117.27
499.282	3965.72
499.485	3992.34
499.689	3994.39
499.892	4279.06
500.095	4201.24
500.298	4238.1
500.501	4340.5
500.705	4330.26
500.908	4514.58
501.111	4510.48
501.314	4500.24
501.517	4561.68
501.72	4670.22
501.923	4567.82
502.126	4721.42
502.329	4813.58
502.532	4776.72
502.735	4915.98
502.938	5102.34
503.141	5071.62
503.344	4987.66
503.547	5229.32
503.75	5440.26
503.953	5470.98
504.156	5434.11
504.359	5554.94
504.562	5399.3
504.765	5612.29
504.968	5649.15
505.17	5952.25
505.373	5839.61
505.576	5980.92
505.779	6089.46
505.982	6060.79
506.185	6464.24
506.387	6273.78
506.59	6384.37
506.793	6580.98
506.996	6447.86
507.198	6675.18
507.401	6785.77
507.604	6804.21
507.807	7058.15
508.009	7045.87
508.212	7318.25
508.415	7305.96
508.617	7289.57
508.82	7316.2
509.022	7453.41
509.225	7639.78
509.428	7801.57
509.63	7795.42
509.833	7893.72
510.035	8131.29
510.238	8145.63
510.44	8278.74
510.643	8155.86
510.845	8518.36
511.048	8424.15
511.25	8710.86
511.453	8850.13
511.655	9292.49
511.858	9093.83
512.06	9239.24
512.262	9337.54
512.465	9325.26
512.667	9687.75
512.87	9745.09
513.072	9747.14
513.274	10042.04
513.477	10214.07
513.679	10289.85
513.881	10232.51
514.084	10474.17
514.286	10562.23
514.488	10607.28
514.69	10963.63
514.893	11246.25
515.095	11305.64
515.297	11326.12
515.499	11510.44
515.701	11606.69
515.904	11922.08
516.106	12026.53
516.308	12112.54
516.51	12157.6
516.712	12444.31
516.914	12737.17
517.116	12718.74
517.318	13052.56
517.52	13009.55
517.722	13040.27
517.925	13269.64
518.127	13685.38
518.329	13609.61
518.531	13740.68
518.733	13806.21
518.935	14211.71
519.136	14076.54
519.338	14531.19
519.54	14578.29
519.742	14733.94
519.944	14883.44
520.146	15149.68
520.348	15268.46
520.55	15463.02
520.752	15716.97
520.954	15821.41
521.155	15866.47
521.357	16173.66
521.559	16396.89
521.761	16757.33
521.963	16607.83
522.164	16708.18
522.366	16982.61
522.568	17013.33
522.77	17486.41
522.971	17463.88
523.173	17431.12
523.375	17435.21
523.576	17580.62
523.778	17939.01
523.98	18209.34
524.181	18405.95
524.383	18362.94
524.584	18485.82
524.786	18575.93
524.988	18483.77
525.189	18729.53
525.391	18958.9
525.592	19116.59
525.794	19085.87
525.995	19407.41
526.197	19278.38
526.398	19706.41
526.6	19694.12
526.801	19636.78
527.003	19800.62
527.204	20095.52
527.406	20281.89
527.607	20062.76
527.808	20365.85
528.01	20279.84
528.211	20288.03
528.412	20853.27
528.614	20634.14
528.815	20843.03
529.016	20957.72
529.218	20746.78
529.419	20800.02
529.62	21252.63
529.822	21037.59
530.023	21074.45
530.224	21207.57
530.425	21223.95
530.626	21174.8
530.828	21287.44
531.029	21744.14
531.23	21494.29
531.431	21615.12
531.632	21393.93
531.833	21531.15
532.035	21350.93
532.236	21649.93
532.437	21748.23
532.638	21586.44
532.839	21740.04
533.04	22123.01
533.241	21592.59
533.442	22163.97
533.643	21977.61
533.844	21903.88
534.045	22067.72
534.246	22045.19
534.447	22090.24
534.648	22090.24
534.849	22012.42
535.05	22297.09
535.251	22295.04
535.451	22120.96
535.652	22290.95
535.853	22295.04
536.054	22204.93
536.255	22325.76
536.456	22227.46
536.657	22659.58
536.857	22116.87
537.058	22098.44
537.259	22452.73
537.46	22352.38
537.66	22157.83
537.861	22331.9
538.062	22145.54
538.263	22391.3
538.463	22288.9
538.664	22286.85
538.865	22530.56
539.065	22596.09
539.266	22389.25
539.466	22786.55
539.667	22209.03
539.868	22303.23
540.068	22718.97
540.269	22524.41
540.469	22462.97
540.67	22145.54
540.87	22385.15
541.071	22379.01
541.271	22163.97
541.472	22350.34
541.672	22514.17
541.873	22483.45
542.073	22143.49
542.274	22491.65
542.474	22331.9
542.675	22481.41
542.875	22641.15
543.075	22540.8
543.276	22061.57
543.476	22651.39
543.676	22469.12
543.877	22911.48
544.077	22344.19
544.277	22202.88
544.478	22501.89
544.678	22544.89
544.878	22376.96
545.078	22448.64
545.279	22108.68
545.479	22491.65
545.679	22444.54
545.879	22444.54
546.079	22729.21
546.28	22495.74
546.48	22280.71
546.68	22405.63
546.88	22440.45
547.08	22266.37
547.28	22589.95
547.48	22221.31
547.68	22419.97
547.88	22243.84
548.081	22260.23
548.281	22452.73
548.481	22657.53
548.681	22669.82
548.881	22393.34
549.081	22643.2
549.28	22438.4
549.48	22749.69
549.68	22346.24
549.88	22815.23
550.08	22440.45
550.28	22290.95
550.48	22407.68
550.68	22622.72
550.88	22114.82
551.08	22346.24
551.279	22526.46
551.479	22247.94
551.679	22444.54
551.879	22137.35
552.079	22542.85
552.278	22249.99
552.478	22567.42
552.678	22520.32
552.878	22602.24
553.077	22319.62
553.277	22374.91
553.477	22589.95
553.676	22532.61
553.876	22409.73
554.076	22110.72
554.275	21910.02
554.475	22145.54
554.674	22135.3
554.874	22350.34
555.074	21936.65
555.273	22331.9
555.473	22313.47
555.672	21899.78
555.872	22217.22
556.071	22131.2
556.271	22073.86
556.47	22127.11
556.67	22012.42
556.869	22000.13
557.068	21940.74
557.268	21867.02
557.467	21744.14
557.667	21803.53
557.866	21621.26
558.065	21654.03
558.265	21651.98
558.464	21699.08
558.663	21608.97
558.863	21586.44
559.062	21604.88
559.261	21135.89
559.461	21824.01
559.66	21369.36
559.859	21303.82
560.058	21107.22
560.258	21336.59
560.457	20984.34
560.656	21240.34
560.855	21488.14
561.054	21438.99
561.253	21004.82
561.453	20900.37
561.652	20972.05
561.851	21066.26
562.05	21154.32
562.249	20836.89
562.448	21008.92
562.647	20978.2
562.846	20759.06
563.045	20566.56
563.244	20634.14
563.443	20873.75
563.642	20392.48
563.841	20591.13
564.04	20494.88
564.239	20656.67
564.438	20423.2
564.637	20404.77
564.836	20611.61
565.035	20296.22
565.234	20185.63
565.432	20300.32
565.631	20328.99
565.83	20220.45
566.029	20032.04
566.228	20204.07
566.427	19978.79
566.625	20011.56
566.824	19843.62
567.023	20257.31
567.222	19554.86
567.42	20206.11
567.619	19747.37
567.818	19806.76
568.016	19388.97
568.215	20077.09
568.414	19552.81
568.612	19950.12
568.811	19599.91
569.01	19452.46
569.208	19556.91
569.407	19501.61
569.605	19272.24
569.804	19374.64
570.002	19059.25
570.201	19145.27
570.4	18620.99
570.598	18922.04
570.797	19040.82
570.995	18725.43
571.193	18717.24
571.392	18655.8
571.59	18565.69
571.789	18618.94
571.987	18461.24
572.186	18403.9
572.384	18338.37
572.582	18440.76
572.781	18149.95
572.979	17859.14
573.177	18141.76
573.376	17994.31
573.574	17859.14
573.772	18131.52
573.971	17752.65
574.169	17959.49
574.367	17683.02
574.565	17826.37
574.763	18027.07
574.962	17697.35
575.16	17226.32
575.358	17613.38
575.556	17197.65
575.754	17498.7
575.952	17205.84
576.151	17246.8
576.349	17074.77
576.547	16900.69
576.745	17101.39
576.943	17060.43
577.141	16759.38
577.339	16951.89
577.537	16747.09
577.735	16714.33
577.933	16544.34
578.131	16538.2
578.329	16204.38
578.527	16286.3
578.725	16294.49
578.923	16253.53
579.121	15995.49
579.319	16155.23
579.516	16337.5
579.714	16294.49
579.912	16302.68
580.11	16013.92
580.308	15819.36
580.506	15991.39
580.704	15602.28
580.901	15915.62
581.099	15956.58
581.297	15405.67
581.495	15608.42
581.692	15528.55
581.89	15704.68
582.088	15563.37
582.285	15786.6
582.483	15487.59
582.681	15354.48
582.878	15229.55
583.076	15278.7
583.274	15407.72
583.471	15346.28
583.669	15014.51
583.866	15069.81
584.064	15121.01
584.262	15114.86
584.459	14844.53
584.657	14830.2
584.854	14996.08
585.052	14666.36
585.249	14770.8
585.447	14703.22
585.644	14553.72
585.841	14551.67
586.039	14555.77
586.236	14283.39
586.434	14211.71
586.631	14359.16
586.828	14434.94
587.026	14408.31
587.223	14062.21
587.42	14273.15
587.618	14494.33
587.815	13953.66
588.012	13884.03
588.21	14150.27
588.407	14045.82
588.604	14035.58
588.801	13906.56
588.999	13908.61
589.196	13832.83
589.393	13499.02
589.59	13570.69
589.787	13591.17
589.984	13681.28
590.182	13582.98
590.379	13693.57
590.576	13259.4
590.773	13435.53
590.97	13343.37
591.167	13333.13
591.364	13025.93
591.561	13357.71
591.758	13390.47
591.955	13146.76
592.152	13087.37
592.349	13161.1
592.546	12866.19
592.743	12972.69
592.94	12898.96
593.137	13081.23
593.334	13032.08
593.531	12602.01
593.727	12677.78
593.924	12690.07
594.121	12417.69
594.318	12661.4
594.515	12581.53
594.712	12690.07
594.908	12499.61
595.105	12698.26
595.302	12567.19
595.499	12704.4
595.696	12524.18
595.892	12335.77
596.089	12481.17
596.286	12472.98
596.482	12505.75
596.679	12515.99
596.876	12171.93
597.072	12133.02
597.269	12114.59
597.466	12071.58
597.662	11997.85
597.859	12137.12
598.055	12139.16
598.252	11942.56
598.448	11899.55
598.645	11831.97
598.841	11700.9
599.038	11950.75
599.234	12087.96
599.431	11508.39
599.627	11774.63
599.824	11735.71
600.02	11561.64
600.217	11489.96
600.413	11565.73
600.609	11430.57
600.806	11449
601.002	11565.73
601.198	11307.69
601.395	11469.48
601.591	11328.17
601.787	11262.63
601.984	11393.7
602.18	11248.3
602.376	11106.99
602.572	11055.79
602.769	10973.87
602.965	10730.16
603.161	11070.12
603.357	10992.3
603.553	10922.67
603.75	10902.19
603.946	10678.96
604.142	10830.51
604.338	10701.49
604.534	10744.5
604.73	10592.95
604.926	10615.48
605.122	10595
605.318	10543.8
605.514	10320.57
605.71	10525.36
605.906	10283.7
606.102	10343.1
606.298	10332.86
606.494	10164.92
606.69	10316.47
606.886	10177.21
607.082	10328.76
607.278	10379.96
607.474	10070.72
607.67	10259.13
607.866	10037.95
608.062	10060.48
608.257	10072.76
608.453	9947.84
608.649	9845.44
608.845	9704.13
609.041	9736.9
609.236	9788.1
609.432	9769.66
609.628	9714.37
609.824	9640.64
610.019	9616.07
610.215	9697.99
610.411	9712.32
610.606	9652.93
610.802	9466.56
610.998	9325.26
611.193	9622.21
611.389	9282.25
611.584	9310.92
611.78	9153.23
611.976	9233.1
612.171	9224.9
612.367	9175.75
612.562	9153.23
612.758	9116.36
612.953	9083.59
613.149	9130.7
613.344	8962.76
613.539	9249.48
613.735	8975.05
613.93	9009.87
614.126	9081.55
614.321	9011.92
614.517	8895.18
614.712	8647.38
614.907	8788.69
615.103	8739.54
615.298	8813.26
615.493	8743.63
615.688	8653.52
615.884	8903.37
616.079	8803.02
616.274	8409.81
616.47	8712.91
616.665	8518.36
616.86	8536.79
617.055	8368.85
617.25	8723.15
617.445	8661.71
617.641	8266.46
617.836	8534.74
618.031	8284.89
618.226	8510.16
618.421	8291.03
618.616	8452.82
618.811	8184.54
619.006	8159.96
619.201	8082.14
619.396	8293.08
619.591	7981.79
619.786	8190.68
619.981	7992.03
620.176	8010.46
620.371	7922.4
620.566	7936.73
620.761	7891.68
620.956	7951.07
621.151	7525.09
621.346	7828.19
621.541	7572.19
621.735	7834.33
621.93	7627.49
622.125	7523.04
622.32	7389.92
622.515	7543.52
622.709	7113.45
622.904	7291.62
623.099	7295.72
623.294	7396.07
623.488	7027.43
623.683	7203.56
623.878	7168.74
624.072	7068.39
624.267	7097.07
624.462	7070.44
624.656	7221.99
624.851	6890.22
625.046	6873.84
625.24	6822.64
625.435	6875.88
625.629	6650.61
625.824	6656.75
626.018	6529.78
626.213	6630.13
626.407	6611.7
626.602	6525.68
626.796	6613.74
626.991	6658.8
627.185	6449.91
627.38	6484.72
627.574	6466.29
627.768	6382.32
627.963	6335.22
628.157	6417.14
628.352	6408.95
628.546	6175.48
628.74	6337.27
628.935	6296.31
629.129	6324.98
629.323	6111.99
629.517	6050.55
629.712	6042.36
629.906	5896.96
630.1	5982.97
630.294	6030.07
630.489	5794.56
630.683	5970.68
630.877	5987.07
631.071	5980.92
631.265	5839.61
631.459	5862.14
631.653	5765.89
631.848	5933.82
632.042	5569.28
632.236	5739.26
632.43	5452.55
632.624	5708.54
632.818	5532.42
633.012	5516.03
633.206	5575.42
633.4	5552.9
633.594	5622.53
633.788	5501.7
633.982	5563.14
634.176	5614.34
634.369	5292.8
634.563	5571.33
634.757	5319.43
634.951	5421.83
635.145	5366.53
635.339	5200.65
635.533	5180.17
635.726	5311.24
635.92	5188.36
636.114	5085.96
636.308	5235.46
636.501	4987.66
636.695	5030.66
636.889	5016.33
637.083	4979.47
637.276	4895.5
637.47	5001.99
637.664	4936.46
637.857	4946.7
638.051	4805.39
638.244	4936.46
638.438	4746
638.632	4909.83
638.825	4805.39
639.019	4616.97
639.212	4637.45
639.406	4719.37
639.599	4649.74
639.793	4680.46
639.986	4354.83
640.18	4580.11
640.373	4510.48
640.567	4526.86
640.76	4528.91
640.954	4342.55
641.147	4344.6
641.34	4336.4
641.534	4406.03
641.727	4377.36
641.92	4244.24
642.114	4168.47
642.307	4113.17
642.5	4254.48
642.694	4277.01
642.887	4113.17
643.08	4221.72
643.273	4129.56
643.467	4133.65
643.66	4160.28
643.853	3998.49
644.046	4139.8
644.239	4043.54
644.432	3959.58
644.626	3855.13
644.819	3816.22
645.012	3914.52
645.205	3896.09
645.398	3969.82
645.591	3808.03
645.784	3734.3
645.977	3695.39
646.17	3728.16
646.363	3672.86
646.556	3672.86
646.749	3662.62
646.942	3611.42
647.135	3513.12
647.328	3580.7
647.521	3627.81
647.714	3431.2
647.907	3476.26
648.099	3545.89
648.292	3406.63
648.485	3306.27
648.678	3238.69
648.871	3367.71
649.064	3334.95
649.256	3259.17
649.449	3300.13
649.642	3375.91
649.835	3263.27
650.027	3169.06
650.22	3267.36
650.413	3167.01
650.605	3140.39
650.798	3083.05
650.991	3072.81
651.183	3085.09
651.376	3074.85
651.568	3058.47
651.761	3044.13
651.954	3052.33
652.146	2837.29
652.339	3013.42
652.531	2982.7
652.724	2939.69
652.916	2788.14
653.109	2945.83
653.301	2835.24
653.494	2818.86
653.686	2757.42
653.879	2794.28
654.071	2968.36
654.263	2677.55
654.456	2661.16
654.648	2730.8
654.84	2773.8
655.033	2706.22
655.225	2816.81
655.417	2640.69
655.61	2657.07
655.802	2607.92
655.994	2622.25
656.186	2620.21
656.379	2681.64
656.571	2630.45
656.763	2536.24
656.955	2544.43
657.148	2495.28
657.34	2501.42
657.532	2497.33
657.724	2413.36
657.916	2466.61
658.108	2446.13
658.3	2343.73
658.492	2482.99
658.684	2235.19
658.876	2466.61
659.068	2304.82
659.26	2409.26
659.452	2347.83
659.644	2308.91
659.836	2218.8
660.028	2237.24
660.22	2229.04
660.412	2147.12
660.604	2181.94
660.796	2186.04
660.988	2204.47
661.18	2112.31
661.372	2054.97
661.563	2005.81
661.755	2020.15
661.947	1989.43
662.139	2116.41
662.331	1981.24
662.522	2026.29
662.714	1901.37
662.906	1911.61
663.097	1973.05
663.289	1962.81
663.481	1942.33
663.673	2040.63
663.864	1803.07
664.056	1753.91
664.247	1932.09
664.439	1839.93
664.631	1887.03
664.822	1975.1
665.014	1864.5
665.205	1846.07
665.397	1725.24
665.588	1825.59
665.78	1768.25
665.971	1772.35
666.163	1747.77
666.354	1796.92
666.546	1721.15
666.737	1706.81
666.929	1667.9
667.12	1823.55
667.311	1688.38
667.503	1717.05
667.694	1719.1
667.885	1690.43
668.077	1612.6
668.268	1696.57
668.459	1626.94
668.651	1645.37
668.842	1772.35
669.033	1553.21
669.224	1702.72
669.416	1592.13
669.607	1583.93
669.798	1612.6
669.989	1628.99
670.18	1620.8
670.371	1590.08
670.563	1538.88
670.754	1483.58
670.945	1571.65
671.136	1563.45
671.327	1504.06
671.518	1438.53
671.709	1563.45
671.9	1598.27
672.091	1450.82
672.282	1545.02
672.473	1499.97
672.664	1495.87
672.855	1514.3
673.046	1497.92
673.237	1497.92
673.428	1483.58
673.619	1471.29
673.809	1430.34
674	1461.06
674.191	1559.36
674.382	1557.31
674.573	1409.86
674.764	1456.96
674.954	1422.14
675.145	1452.86
675.336	1411.9
675.527	1465.15
675.717	1409.86
675.908	1448.77
676.099	1385.28
676.289	1436.48
676.48	1428.29
676.671	1389.38
676.861	1358.66
677.052	1456.96
677.243	1463.1
677.433	1391.42
677.624	1518.4
677.814	1450.82
678.005	1346.37
678.195	1332.03
678.386	1293.12
678.576	1284.93
678.767	1510.21
678.957	1416
679.148	1430.34
679.338	1391.42
679.529	1393.47
679.719	1354.56
679.909	1387.33
680.1	1430.34
680.29	1393.47
680.481	1448.77
680.671	1479.49
680.861	1444.67
681.052	1393.47
681.242	1440.58
681.432	1405.76
681.622	1329.99
681.813	1321.79
682.003	1420.1
682.193	1329.99
682.383	1418.05
682.573	1360.7
682.764	1397.57
682.954	1272.64
683.144	1502.01
683.334	1325.89
683.524	1471.29
683.714	1233.73
683.904	1360.7
684.094	1397.57
684.284	1385.28
684.474	1465.15
684.664	1375.04
684.854	1397.57
685.044	1397.57
685.234	1397.57
685.424	1403.71
685.614	1383.23
685.804	1389.38
685.994	1295.17
686.184	1360.7
686.374	1450.82
686.564	1377.09
686.753	1407.81
686.943	1456.96
687.133	1442.62
687.323	1370.94
687.513	1360.7
687.702	1387.33
687.892	1409.86
688.082	1426.24
688.272	1405.76
688.461	1407.81
688.651	1289.03
688.841	1497.92
689.03	1432.38
689.22	1436.48
689.41	1368.9
689.599	1403.71
689.789	1487.68
689.979	1413.95
690.168	1405.76
690.358	1479.49
690.547	1397.57
690.737	1436.48
690.926	1477.44
691.116	1391.42
691.305	1454.91
691.495	1342.27
691.684	1454.91
691.874	1481.53
692.063	1327.94
692.252	1356.61
692.442	1379.14
692.631	1426.24
692.82	1508.16
693.01	1497.92
693.199	1454.91
693.388	1407.81
693.578	1530.69
693.767	1440.58
693.956	1420.1
694.146	1440.58
694.335	1368.9
694.524	1469.25
694.713	1499.97
694.902	1491.77
695.092	1540.93
695.281	1469.25
695.47	1428.29
695.659	1469.25
695.848	1481.53
696.037	1362.75
696.226	1403.71
696.415	1499.97
696.604	1518.4
696.793	1561.41
696.982	1493.82
697.171	1542.97
697.36	1567.55
697.549	1487.68
697.738	1622.84
697.927	1403.71
698.116	1557.31
698.305	1477.44
698.494	1512.25
698.683	1549.12
698.872	1518.4
699.061	1495.87
699.25	1530.69
699.438	1440.58
699.627	1577.79
699.816	1598.27
700.005	1524.54
700.193	1637.18
700.382	1569.6
700.571	1487.68
700.76	1608.51
700.948	1606.46
701.137	1534.78
701.326	1518.4
701.514	1473.34
701.703	1542.97
701.892	1551.17
702.08	1510.21
702.269	1600.32
702.457	1571.65
702.646	1585.98
702.834	1565.5
703.023	1465.15
703.212	1555.26
703.4	1538.88
703.589	1547.07
703.777	1604.41
703.965	1508.16
704.154	1524.54
704.342	1594.17
704.531	1514.3
704.719	1413.95
704.907	1436.48
705.096	1493.82
705.284	1555.26
705.472	1430.34
705.661	1489.73
705.849	1545.02
706.037	1436.48
706.226	1563.45
706.414	1477.44
706.602	1573.69
706.79	1506.11
706.979	1504.06
707.167	1514.3
707.355	1477.44
707.543	1362.75
707.731	1502.01
707.919	1456.96
708.107	1512.25
708.296	1407.81
708.484	1405.76
708.672	1532.73
708.86	1422.14
709.048	1471.29
709.236	1358.66
709.424	1428.29
709.612	1375.04
709.8	1526.59
709.988	1479.49
710.176	1461.06
710.364	1403.71
710.551	1450.82
710.739	1485.63
710.927	1387.33
711.115	1383.23
711.303	1418.05
711.491	1399.62
711.679	1297.22
711.866	1311.55
712.054	1426.24
712.242	1477.44
712.43	1379.14
712.617	1372.99
712.805	1411.9
712.993	1336.13
713.181	1317.7
713.368	1350.46
713.556	1411.9
713.744	1280.83
713.931	1342.27
714.119	1291.07
714.306	1434.43
714.494	1389.38
714.682	1362.75
714.869	1317.7
715.057	1436.48
715.244	1280.83
715.432	1379.14
715.619	1340.22
715.807	1299.27
715.994	1301.31
716.182	1268.55
716.369	1280.83
716.556	1256.26
716.744	1243.97
716.931	1254.21
717.119	1243.97
717.306	1317.7
717.493	1182.53
717.681	1264.45
717.868	1262.4
718.055	1416
718.242	1262.4
718.43	1196.87
718.617	1252.16
718.804	1217.35
718.991	1192.77
719.179	1375.04
719.366	1225.54
719.553	1200.96
719.74	1221.44
719.927	1227.59
720.114	1248.07
720.301	1153.86
720.488	1229.63
720.676	1211.2
720.863	1190.72
721.05	1117
721.237	1168.2
721.424	1153.86
721.611	1157.96
721.798	1170.24
721.985	1192.77
722.172	1215.3
722.358	1157.96
722.545	1069.89
722.732	1061.7
722.919	1149.76
723.106	1125.19
723.293	1053.51
723.48	1151.81
723.667	1172.29
723.853	1084.23
724.04	1082.18
724.227	1037.13
724.414	1035.08
724.6	1049.41
724.787	1172.29
724.974	1172.29
725.161	985.93
725.347	1069.89
725.534	1057.61
725.72	996.17
725.907	1073.99
726.094	1131.33
726.28	1018.69
726.467	1084.23
726.653	1088.32
726.84	1086.28
727.027	1006.41
727.213	992.07
727.4	1071.94
727.586	1119.04
727.773	1035.08
727.959	922.44
728.145	971.59
728.332	1035.08
728.518	983.88
728.705	1110.85
728.891	1047.37
729.077	983.88
729.264	944.97
729.45	1033.03
729.636	916.3
729.823	904.01
730.009	951.11
730.195	1010.5
730.382	1028.93
730.568	1078.08
730.754	936.78
730.94	977.73
731.126	936.78
731.313	975.69
731.499	987.97
731.685	940.87
731.871	908.1
732.057	944.97
732.243	961.35
732.429	987.97
732.615	944.97
732.801	877.38
732.987	885.58
733.173	992.07
733.359	998.21
733.545	901.96
733.731	969.54
733.917	910.15
734.103	850.76
734.289	979.78
734.475	936.78
734.661	992.07
734.847	928.58
735.033	949.06
735.219	785.23
735.404	979.78
735.59	842.57
735.776	879.43
735.962	885.58
736.148	1016.65
736.333	961.35
736.519	891.72
736.705	793.42
736.89	906.06
737.076	861
737.262	803.66
737.447	893.77
737.633	895.82
737.819	924.49
738.004	828.23
738.19	887.62
738.375	836.42
738.561	828.23
738.747	752.46
738.932	809.8
739.118	883.53
739.303	801.61
739.489	885.58
739.674	889.67
739.859	822.09
740.045	822.09
740.23	744.27
740.416	858.95
740.601	723.79
740.786	885.58
740.972	811.85
741.157	774.99
741.342	803.66
741.528	768.84
741.713	889.67
741.898	813.9
742.084	820.04
742.269	779.08
742.454	770.89
742.639	809.8
742.824	772.94
743.01	770.89
743.195	795.47
743.38	705.35
743.565	760.65
743.75	758.6
743.935	756.55
744.12	785.23
744.305	619.34
744.49	682.83
744.675	820.04
744.86	711.5
745.045	717.64
745.23	672.59
745.415	774.99
745.6	682.83
745.785	740.17
745.97	695.11
746.155	699.21
746.34	777.03
746.525	746.31
746.71	709.45
746.895	674.64
747.079	654.16
747.264	656.2
747.449	596.81
747.634	713.55
747.819	654.16
748.003	672.59
748.188	580.43
748.373	709.45
748.557	693.07
748.742	617.29
748.927	645.96
749.111	705.35
749.296	684.87
749.481	605
749.665	652.11
749.85	693.07
750.034	596.81
750.219	631.63
750.404	645.96
750.588	533.33
750.773	574.28
750.957	625.48
751.141	658.25
751.326	574.28
751.51	547.66
751.695	598.86
751.879	486.22
752.064	617.29
752.248	584.52
752.432	580.43
752.617	555.85
752.801	582.48
752.985	559.95
753.17	627.53
753.354	527.18
753.538	572.24
753.722	533.33
753.907	510.8
754.091	504.65
754.275	594.76
754.459	549.71
754.643	535.37
754.828	590.67
755.012	518.99
755.196	428.88
755.38	541.52
755.564	525.13
755.748	525.13
755.932	473.93
756.116	463.69
756.3	523.09
756.484	394.06
756.668	494.41
756.852	492.37
757.036	453.45
757.22	478.03
757.404	473.93
757.588	508.75
757.772	492.37
757.956	537.42
758.14	482.13
758.323	396.11
758.507	406.35
758.691	455.5
758.875	514.89
759.059	525.13
759.242	371.54
759.426	377.68
759.61	412.5
759.794	475.98
759.977	420.69
760.161	396.11
760.345	414.54
760.528	482.13
760.712	398.16
760.895	392.02
761.079	394.06
761.263	439.12
761.446	420.69
761.63	430.93
761.813	543.57
761.997	424.78
762.18	355.15
762.364	400.21
762.547	455.5
762.731	392.02
762.914	482.13
763.098	406.35
763.281	412.5
763.464	420.69
763.648	359.25
763.831	338.77
764.015	432.97
764.198	371.54
764.381	402.26
764.564	334.67
764.748	349.01
764.931	408.4
765.114	357.2
765.297	332.62
765.481	308.05
765.664	381.78
765.847	254.8
766.03	396.11
766.213	340.82
766.397	406.35
766.58	346.96
766.763	392.02
766.946	377.68
767.129	371.54
767.312	322.38
767.495	418.64
767.678	338.77
767.861	408.4
768.044	406.35
768.227	353.1
768.41	383.82
768.593	330.58
768.776	379.73
768.959	306
769.142	291.66
769.324	389.97
769.507	336.72
769.69	289.62
769.873	336.72
770.056	322.38
770.239	281.43
770.421	377.68
770.604	273.23
770.787	306
770.97	291.66
771.152	375.63
771.335	342.86
771.518	353.1
771.7	344.91
771.883	349.01
772.066	334.67
772.248	306
772.431	365.39
772.613	322.38
772.796	262.99
772.978	283.47
773.161	336.72
773.343	332.62
773.526	287.57
773.708	287.57
773.891	297.81
774.073	320.34
774.256	381.78
774.438	342.86
774.621	308.05
774.803	332.62
774.985	285.52
775.168	283.47
775.35	289.62
775.532	267.09
775.715	363.34
775.897	297.81
776.079	283.47
776.261	258.9
776.444	244.56
776.626	262.99
776.808	310.1
776.99	275.28
777.173	240.47
777.355	312.14
777.537	228.18
777.719	316.24
777.901	232.27
778.083	283.47
778.265	213.84
778.447	265.04
778.629	265.04
778.811	271.19
778.993	295.76
779.175	219.99
779.357	254.8
779.539	236.37
779.721	197.46
779.903	275.28
780.085	236.37
780.267	267.09
780.449	213.84
780.631	248.66
780.812	262.99
780.994	277.33
781.176	283.47
781.358	269.14
781.54	199.51
781.721	158.55
781.903	291.66
782.085	166.74
782.267	211.79
782.448	164.69
782.63	256.85
782.812	203.6
782.993	201.55
783.175	219.99
783.357	164.69
783.538	148.31
783.72	113.49
783.901	183.12
784.083	203.6
784.264	170.83
784.446	90.96
784.627	172.88
784.809	224.08
784.99	168.79
785.172	160.59
785.353	154.45
785.535	172.88
785.716	209.75
785.897	138.07
786.079	166.74
786.26	232.27
786.441	172.88
786.623	150.36
786.804	113.49
786.985	144.21
787.167	217.94
787.348	109.4
787.529	138.07
787.71	191.31
787.891	228.18
788.073	144.21
788.254	201.55
788.435	224.08
788.616	68.44
788.797	115.54
788.978	131.92
789.159	142.16
789.34	154.45
789.522	195.41
789.703	140.12
789.884	152.4
790.065	170.83
790.246	187.22
790.427	193.36
790.607	144.21
790.788	95.06
790.969	99.16
791.15	150.36
791.331	64.34
791.512	136.02
791.693	113.49
791.874	125.78
792.054	154.45
792.235	142.16
792.416	142.16
792.597	133.97
792.778	160.59
792.958	107.35
793.139	189.27
793.32	119.64
793.5	103.25
793.681	158.55
793.862	232.27
794.042	105.3
794.223	119.64
794.404	86.87
794.584	99.16
794.765	109.4
794.945	64.34
795.126	142.16
795.306	113.49
795.487	203.6
795.667	97.11
795.848	113.49
796.028	154.45
796.209	146.26
796.389	88.92
796.57	164.69
796.75	58.2
796.93	109.4
797.111	158.55
797.291	72.53
797.471	109.4
797.652	133.97
797.832	64.34
798.012	121.68
798.192	84.82
798.373	66.39
798.553	119.64
798.733	39.76
798.913	179.03
799.093	19.29
799.274	84.82
799.454	133.97
799.634	140.12
799.814	150.36
799.994	113.49
800.174	68.44
800.354	119.64
800.534	121.68
800.714	107.35
800.894	111.44
801.074	39.76
801.254	62.29
801.434	152.4
801.614	58.2
801.794	82.77
801.974	283.47
802.154	115.54
802.334	76.63
802.514	19.29
802.693	50
802.873	60.24
803.053	76.63
803.233	29.52
803.413	23.38
803.592	0.85
803.772	146.26
803.952	101.2
804.131	68.44
804.311	74.58
804.491	133.97
804.67	37.72
804.85	103.25
805.03	66.39
805.209	179.03
805.389	78.68
805.568	72.53
805.748	70.48
805.928	119.64
806.107	50
806.287	121.68
806.466	11.09
806.646	150.36
806.825	103.25
807.004	86.87
807.184	68.44
807.363	97.11
807.543	58.2
807.722	68.44
807.901	37.72
808.081	105.3
808.26	54.1
808.439	86.87
808.619	70.48
808.798	84.82
808.977	86.87
809.156	111.44
809.336	93.01
809.515	121.68
809.694	86.87
809.873	97.11
810.052	58.2
810.231	80.72
810.411	41.81
810.59	191.31
810.769	68.44
810.948	-23.72
811.127	76.63
811.306	115.54
811.485	31.57
811.664	107.35
811.843	101.2
812.022	52.05
812.201	60.24
812.38	74.58
812.559	119.64
812.737	45.91
812.916	72.53
813.095	121.68
813.274	109.4
813.453	58.2
813.632	0.85
813.811	97.11
813.989	43.86
814.168	56.15
814.347	62.29
814.526	52.05
814.704	31.57
814.883	80.72
815.062	50
815.24	25.43
815.419	54.1
815.598	129.88
815.776	-36.01
815.955	86.87
816.133	125.78
816.312	90.96
816.49	74.58
816.669	68.44
816.847	43.86
817.026	56.15
817.204	50
817.383	56.15
817.561	45.91
817.74	82.77
817.918	103.25
818.097	50
818.275	58.2
818.453	84.82
818.632	17.24
818.81	-25.77
818.988	39.76
819.167	84.82
819.345	56.15
819.523	17.24
819.701	56.15
819.879	15.19
820.058	4.95
820.236	39.76
820.414	31.57
820.592	70.48
820.77	25.43
820.948	23.38
821.127	2.9
821.305	11.09
821.483	13.14
821.661	43.86
821.839	-5.29
822.017	43.86
822.195	41.81
822.373	76.63
822.551	50
822.729	68.44
822.907	11.09
823.085	121.68
823.262	27.48
823.44	-13.48
823.618	50
823.796	23.38
823.974	-17.58
824.152	39.76
824.329	13.14
824.507	7
824.685	37.72
824.863	43.86
825.04	-23.72
825.218	62.29
825.396	90.96
825.574	70.48
825.751	37.72
825.929	27.48
826.107	4.95
826.284	35.67
826.462	45.91
826.639	74.58
826.817	13.14
826.994	-5.29
827.172	33.62
827.349	111.44
827.527	23.38
827.704	7
827.882	-3.24
828.059	-9.39
828.237	105.3
828.414	33.62
828.591	41.81
828.769	21.33
828.946	27.48
829.124	-13.48
829.301	74.58
829.478	70.48
829.655	54.1
829.833	41.81
830.01	52.05
830.187	54.1
830.364	23.38
830.542	-3.24
830.719	27.48
830.896	52.05
831.073	66.39
831.25	9.05
831.427	11.09
831.604	127.83
831.782	-9.39
831.959	-76.97
832.136	27.48
832.313	56.15
832.49	11.09
832.667	76.63
832.844	-25.77
833.021	-7.34
833.198	95.06
833.374	-13.48
833.551	54.1
833.728	-11.43
833.905	4.95
834.082	35.67
834.259	82.77
834.436	86.87
834.612	7
834.789	35.67
834.966	13.14
835.143	99.16
835.319	37.72
835.496	68.44
835.673	82.77
835.85	50
836.026	23.38
836.203	97.11
836.38	-27.82
836.556	64.34
836.733	0.85
836.909	17.24
837.086	45.91
837.262	43.86
837.439	13.14
837.616	19.29
837.792	76.63
837.968	45.91
838.145	-1.19
838.321	-9.39
838.498	23.38
838.674	78.68
838.851	7
839.027	-36.01
839.203	103.25
839.38	37.72
839.556	45.91
839.732	66.39
839.909	33.62
840.085	64.34
840.261	64.34
840.437	78.68
840.614	-5.29
840.79	25.43
840.966	39.76
841.142	29.52
841.318	-3.24
841.494	58.2
841.671	74.58
841.847	58.2
842.023	60.24
842.199	27.48
842.375	-9.39
842.551	-7.34
842.727	52.05
842.903	50
843.079	-13.48
843.255	19.29
843.431	-11.43
843.607	19.29
843.783	84.82
843.959	15.19
844.134	-1.19
844.31	64.34
844.486	82.77
844.662	-9.39
844.838	-15.53
845.013	35.67
845.189	-13.48
845.365	66.39
845.541	0.85
845.716	2.9
845.892	-27.82
846.068	11.09
846.244	33.62
846.419	-11.43
846.595	23.38
846.77	56.15
846.946	-11.43
847.122	9.05
847.297	-19.63
847.473	33.62
847.648	-54.44
847.824	35.67
847.999	4.95
848.175	-11.43
848.35	0.85
848.526	17.24
848.701	-31.91
848.876	56.15
849.052	-23.72
849.227	2.9
849.403	19.29
849.578	-27.82
849.753	4.95
849.929	23.38
850.104	29.52
850.279	0.85
850.454	11.09
850.63	15.19
850.805	64.34
850.98	37.72
851.155	0.85
851.33	23.38
851.505	4.95
851.681	78.68
851.856	-13.48
852.031	52.05
852.206	-1.19
852.381	7
852.556	47.96
852.731	76.63
852.906	-40.11
853.081	4.95
853.256	43.86
853.431	23.38
853.606	-31.91
853.781	35.67
853.956	-31.91
854.131	33.62
854.305	68.44
854.48	27.48
854.655	29.52
854.83	41.81
855.005	9.05
855.18	45.91
855.354	-66.73
855.529	21.33
855.704	-3.24
855.879	-46.25
856.053	15.19
856.228	33.62
856.403	17.24
856.577	84.82
856.752	86.87
856.926	-48.3
857.101	-50.35
857.276	-17.58
857.45	-74.92
857.625	-17.58
857.799	-27.82
857.974	45.91
858.148	7
858.323	45.91
858.497	-5.29
858.672	-11.43
858.846	-46.25
859.02	72.53
859.195	-29.87
859.369	-13.48
859.543	-42.15
859.718	23.38
859.892	-9.39
860.066	-46.25
860.241	-3.24
860.415	13.14
860.589	-3.24
860.763	-17.58
860.938	-13.48
861.112	0.85
861.286	2.9
861.46	-50.35
861.634	11.09
861.808	54.1
861.982	-19.63
862.157	-11.43
862.331	2.9
862.505	-3.24
862.679	-52.39
862.853	62.29
863.027	11.09
863.201	109.4
863.375	-19.63
863.549	-48.3
863.722	41.81
863.896	-1.19
864.07	66.39
864.244	-17.58
864.418	-33.96
864.592	11.09
864.766	-27.82
864.939	15.19
865.113	39.76
865.287	-66.73
865.461	80.72
865.634	-50.35
865.808	-19.63
865.982	11.09
866.156	-62.63
866.329	-54.44
866.503	-19.63
866.676	52.05
866.85	-9.39
867.024	-5.29
867.197	-21.67
867.371	-23.72
867.544	-21.67
867.718	33.62
867.891	29.52
868.065	25.43
868.238	-19.63
868.412	-15.53
868.585	-11.43
868.759	11.09
868.932	-13.48
869.105	56.15
869.279	17.24
869.452	19.29
869.625	0.85
869.799	21.33
869.972	31.57
870.145	0.85
870.319	37.72
870.492	-46.25
870.665	-5.29
870.838	29.52
871.011	-7.34
871.185	43.86
871.358	21.33
871.531	31.57
871.704	-38.06
871.877	-33.96
872.05	29.52
872.223	45.91
872.396	-48.3
872.569	-7.34
872.742	-23.72
872.915	-7.34
873.088	-50.35
873.261	-7.34
873.434	27.48
873.607	52.05
873.78	19.29
873.953	4.95
874.126	-21.67
874.299	-7.34
874.471	-46.25
874.644	21.33
874.817	-27.82
874.99	-33.96
875.163	2.9
875.335	21.33
875.508	-3.24
875.681	37.72
875.853	17.24
876.026	-9.39
876.199	33.62
876.371	29.52
876.544	45.91
876.717	11.09
876.889	7
877.062	33.62
877.234	2.9
877.407	19.29
877.579	58.2
877.752	15.19
877.924	-1.19
878.097	25.43
878.269	25.43
878.442	-1.19
878.614	70.48
878.786	-29.87
878.959	13.14
879.131	13.14
879.303	-1.19
879.476	-36.01
879.648	-15.53
879.82	43.86
879.993	70.48
880.165	9.05
880.337	11.09
880.509	-9.39
880.681	-33.96
880.854	58.2
881.026	-19.63
881.198	29.52
881.37	-27.82
881.542	-46.25
881.714	-27.82
881.886	11.09
882.058	-13.48
882.23	11.09
882.402	-68.78
882.574	-64.68
882.746	-25.77
882.918	-9.39
883.09	56.15
883.262	7
883.434	39.76
883.606	-44.2
883.778	-1.19
883.95	-5.29
884.122	-17.58
884.293	2.9
884.465	-21.67
884.637	31.57
884.809	9.05
884.98	7
885.152	-7.34
885.324	41.81
885.496	15.19
885.667	-7.34
885.839	27.48
886.011	7
886.182	-1.19
886.354	37.72
886.525	-27.82
886.697	27.48
886.869	-81.07
887.04	13.14
887.212	43.86
887.383	11.09
887.555	-1.19
887.726	-3.24
887.897	15.19
888.069	11.09
888.24	-5.29
888.412	7
888.583	21.33
888.754	-13.48
888.926	-33.96
889.097	25.43
889.268	-33.96
889.44	-50.35
889.611	23.38
889.782	-9.39
889.953	-56.49
890.125	-64.68
890.296	-42.15
890.467	54.1
890.638	-60.59
890.809	-31.91
890.98	-15.53
891.151	-11.43
891.323	-1.19
891.494	15.19
891.665	-33.96
891.836	9.05
892.007	97.11
892.178	41.81
892.349	-60.59
892.52	-11.43
892.691	13.14
892.862	39.76
893.032	-13.48
893.203	68.44
893.374	2.9
893.545	21.33
893.716	-11.43
893.887	-29.87
894.057	-5.29
894.228	4.95
894.399	23.38
894.57	-1.19
894.74	21.33
894.911	80.72
895.082	-58.54
895.253	11.09
895.423	45.91
895.594	-7.34
895.764	-33.96
895.935	27.48
896.106	45.91
896.276	-17.58
896.447	76.63
896.617	15.19
896.788	-9.39
896.958	4.95
897.129	-56.49
897.299	7
897.47	45.91
897.64	19.29
897.81	13.14
897.981	9.05
898.151	4.95
898.322	-31.91
898.492	-7.34
898.662	60.24
898.832	19.29
899.003	39.76
899.173	-5.29
899.343	25.43
899.513	-36.01
