Data from USB4F104151__220__14-00-11-983.txt Node

Date: Thu Mar 13 14:00:11 EDT 2025
User: louis
Spectrometer: USB4F10415
Trigger mode: 4
Integration Time (sec): 1.000000E-2
Scans to average: 1
Electric dark correction enabled: true
Nonlinearity correction enabled: false
Boxcar width: 0
XAxis mode: Wavelengths
Number of Pixels in Spectrum: 3648
>>>>>Begin Spectral Data<<<<<
178.204	-94.55
178.424	-94.55
178.644	-94.55
178.864	-100.69
179.084	-88.4
179.304	-20.82
179.524	18.09
179.744	-29.01
179.964	-0.34
180.184	-31.06
180.404	34.47
180.624	-4.44
180.844	-16.73
181.064	-22.87
181.283	34.47
181.503	-0.34
181.723	38.57
181.943	-2.39
182.163	67.24
182.383	26.28
182.602	11.95
182.822	50.86
183.042	81.58
183.262	-12.63
183.482	26.28
183.701	-29.01
183.921	22.19
184.141	44.71
184.361	22.19
184.58	75.43
184.8	5.8
185.02	18.09
185.239	7.85
185.459	91.82
185.679	5.8
185.898	-14.68
186.118	71.34
186.338	48.81
186.557	9.9
186.777	-0.34
186.997	42.67
187.216	48.81
187.436	42.67
187.655	18.09
187.875	26.28
188.095	11.95
188.314	32.43
188.534	-2.39
188.753	91.82
188.973	-12.63
189.192	-29.01
189.412	44.71
189.631	108.2
189.851	38.57
190.07	-8.53
190.29	-2.39
190.509	-12.63
190.729	7.85
190.948	-39.25
191.168	28.33
191.387	57
191.607	20.14
191.826	26.28
192.045	36.52
192.265	-26.96
192.484	16.04
192.704	11.95
192.923	-29.01
193.142	71.34
193.362	-22.87
193.581	44.71
193.8	3.75
194.02	59.05
194.239	7.85
194.458	22.19
194.678	75.43
194.897	16.04
195.116	-6.49
195.335	30.38
195.555	63.15
195.774	26.28
195.993	28.33
196.212	65.19
196.432	-55.64
196.651	26.28
196.87	48.81
197.089	50.86
197.308	40.62
197.528	9.9
197.747	-18.77
197.966	79.53
198.185	-18.77
198.404	-43.35
198.623	30.38
198.842	59.05
199.062	46.76
199.281	-12.63
199.5	30.38
199.719	36.52
199.938	36.52
200.157	75.43
200.376	61.1
200.595	34.47
200.814	65.19
201.033	28.33
201.252	34.47
201.471	71.34
201.69	36.52
201.909	67.24
202.128	18.09
202.347	-6.49
202.566	59.05
202.785	28.33
203.004	-24.92
203.223	106.15
203.442	20.14
203.661	20.14
203.879	67.24
204.098	44.71
204.317	54.95
204.536	36.52
204.755	93.87
204.974	-12.63
205.193	1.71
205.411	48.81
205.63	-20.82
205.849	18.09
206.068	-16.73
206.287	63.15
206.505	-12.63
206.724	-35.16
206.943	83.63
207.162	-37.2
207.381	18.09
207.599	54.95
207.818	13.99
208.037	-14.68
208.255	59.05
208.474	13.99
208.693	1.71
208.911	52.91
209.13	50.86
209.349	-31.06
209.567	13.99
209.786	5.8
210.005	9.9
210.223	93.87
210.442	16.04
210.661	65.19
210.879	42.67
211.098	-8.53
211.316	-12.63
211.535	-20.82
211.753	32.43
211.972	-53.59
212.191	-4.44
212.409	3.75
212.628	18.09
212.846	48.81
213.065	9.9
213.283	3.75
213.502	9.9
213.72	-16.73
213.938	34.47
214.157	50.86
214.375	30.38
214.594	46.76
214.812	9.9
215.031	34.47
215.249	-8.53
215.467	24.23
215.686	63.15
215.904	52.91
216.122	5.8
216.341	44.71
216.559	-14.68
216.778	42.67
216.996	-26.96
217.214	34.47
217.432	-43.35
217.651	7.85
217.869	36.52
218.087	-6.49
218.306	3.75
218.524	42.67
218.742	30.38
218.96	85.67
219.179	16.04
219.397	59.05
219.615	30.38
219.833	38.57
220.051	-18.77
220.27	1.71
220.488	50.86
220.706	-18.77
220.924	-57.68
221.142	13.99
221.36	28.33
221.578	26.28
221.796	13.99
222.015	63.15
222.233	16.04
222.451	95.91
222.669	69.29
222.887	34.47
223.105	-35.16
223.323	89.77
223.541	-6.49
223.759	-8.53
223.977	22.19
224.195	3.75
224.413	28.33
224.631	-2.39
224.849	34.47
225.067	16.04
225.285	54.95
225.503	34.47
225.721	36.52
225.939	-6.49
226.157	61.1
226.375	61.1
226.592	-20.82
226.81	3.75
227.028	26.28
227.246	63.15
227.464	108.2
227.682	102.06
227.9	-29.01
228.117	28.33
228.335	36.52
228.553	18.09
228.771	24.23
228.989	50.86
229.206	20.14
229.424	42.67
229.642	44.71
229.86	-6.49
230.077	9.9
230.295	85.67
230.513	40.62
230.731	24.23
230.948	44.71
231.166	24.23
231.384	26.28
231.601	7.85
231.819	-6.49
232.037	67.24
232.254	-14.68
232.472	20.14
232.689	-2.39
232.907	57
233.125	-53.59
233.342	69.29
233.56	71.34
233.777	18.09
233.995	-2.39
234.213	-22.87
234.43	61.1
234.648	-8.53
234.865	46.76
235.083	34.47
235.3	57
235.518	38.57
235.735	48.81
235.953	69.29
236.17	11.95
236.388	48.81
236.605	-61.78
236.822	52.91
237.04	65.19
237.257	42.67
237.475	1.71
237.692	95.91
237.909	-39.25
238.127	-26.96
238.344	5.8
238.562	-6.49
238.779	7.85
238.996	-14.68
239.214	-31.06
239.431	114.34
239.648	73.39
239.865	26.28
240.083	3.75
240.3	67.24
240.517	-2.39
240.735	-4.44
240.952	44.71
241.169	75.43
241.386	20.14
241.603	-6.49
241.821	59.05
242.038	63.15
242.255	46.76
242.472	16.04
242.689	-8.53
242.907	18.09
243.124	-0.34
243.341	36.52
243.558	46.76
243.775	-37.2
243.992	24.23
244.209	-31.06
244.426	-20.82
244.643	3.75
244.86	-37.2
245.078	38.57
245.295	71.34
245.512	20.14
245.729	42.67
245.946	13.99
246.163	48.81
246.38	18.09
246.597	52.91
246.814	1.71
247.031	52.91
247.248	28.33
247.464	-12.63
247.681	-0.34
247.898	32.43
248.115	46.76
248.332	50.86
248.549	40.62
248.766	28.33
248.983	-2.39
249.2	61.1
249.417	91.82
249.633	26.28
249.85	7.85
250.067	13.99
250.284	75.43
250.501	22.19
250.717	59.05
250.934	-63.83
251.151	-4.44
251.368	3.75
251.585	50.86
251.801	30.38
252.018	11.95
252.235	-49.49
252.451	75.43
252.668	-26.96
252.885	20.14
253.102	83.63
253.318	24.23
253.535	65.19
253.752	63.15
253.968	50.86
254.185	100.01
254.401	54.95
254.618	-39.25
254.835	-45.4
255.051	71.34
255.268	9.9
255.484	77.48
255.701	50.86
255.917	79.53
256.134	22.19
256.351	97.96
256.567	22.19
256.784	13.99
257	83.63
257.217	46.76
257.433	24.23
257.65	38.57
257.866	38.57
258.082	-20.82
258.299	26.28
258.515	40.62
258.732	20.14
258.948	54.95
259.165	32.43
259.381	69.29
259.597	-6.49
259.814	32.43
260.03	-39.25
260.246	114.34
260.463	3.75
260.679	95.91
260.895	46.76
261.112	-26.96
261.328	20.14
261.544	42.67
261.761	30.38
261.977	-26.96
262.193	-8.53
262.409	-47.44
262.626	44.71
262.842	48.81
263.058	-43.35
263.274	46.76
263.49	24.23
263.707	75.43
263.923	-0.34
264.139	16.04
264.355	124.58
264.571	38.57
264.787	112.3
265.004	83.63
265.22	65.19
265.436	-31.06
265.652	34.47
265.868	13.99
266.084	18.09
266.3	67.24
266.516	-22.87
266.732	-55.64
266.948	65.19
267.164	5.8
267.38	67.24
267.596	38.57
267.812	34.47
268.028	42.67
268.244	26.28
268.46	20.14
268.676	38.57
268.892	22.19
269.108	-22.87
269.324	26.28
269.54	34.47
269.756	24.23
269.972	36.52
270.188	89.77
270.403	-22.87
270.619	91.82
270.835	36.52
271.051	69.29
271.267	50.86
271.483	34.47
271.698	77.48
271.914	-57.68
272.13	5.8
272.346	3.75
272.562	26.28
272.777	67.24
272.993	18.09
273.209	34.47
273.425	50.86
273.64	-26.96
273.856	140.97
274.072	59.05
274.287	57
274.503	46.76
274.719	-16.73
274.934	77.48
275.15	11.95
275.366	-18.77
275.581	134.82
275.797	34.47
276.012	-8.53
276.228	52.91
276.444	22.19
276.659	52.91
276.875	-0.34
277.09	63.15
277.306	20.14
277.521	91.82
277.737	-16.73
277.952	40.62
278.168	11.95
278.383	-0.34
278.599	42.67
278.814	38.57
279.03	36.52
279.245	28.33
279.461	22.19
279.676	16.04
279.892	32.43
280.107	3.75
280.322	106.15
280.538	13.99
280.753	34.47
280.969	95.91
281.184	-14.68
281.399	28.33
281.615	73.39
281.83	9.9
282.045	81.58
282.26	1.71
282.476	5.8
282.691	61.1
282.906	20.14
283.122	67.24
283.337	13.99
283.552	-6.49
283.767	63.15
283.983	24.23
284.198	63.15
284.413	-14.68
284.628	18.09
284.843	65.19
285.058	46.76
285.274	9.9
285.489	44.71
285.704	79.53
285.919	44.71
286.134	-39.25
286.349	24.23
286.564	81.58
286.779	116.39
286.995	22.19
287.21	-12.63
287.425	50.86
287.64	-0.34
287.855	65.19
288.07	67.24
288.285	81.58
288.5	-22.87
288.715	48.81
288.93	-12.63
289.145	36.52
289.36	79.53
289.575	44.71
289.79	50.86
290.004	32.43
290.219	-2.39
290.434	9.9
290.649	18.09
290.864	5.8
291.079	59.05
291.294	26.28
291.509	52.91
291.724	61.1
291.938	54.95
292.153	59.05
292.368	46.76
292.583	95.91
292.798	18.09
293.012	50.86
293.227	83.63
293.442	38.57
293.657	1.71
293.871	91.82
294.086	46.76
294.301	124.58
294.516	38.57
294.73	-37.2
294.945	36.52
295.16	26.28
295.374	40.62
295.589	85.67
295.804	34.47
296.018	57
296.233	-12.63
296.447	11.95
296.662	-14.68
296.877	46.76
297.091	59.05
297.306	9.9
297.52	87.72
297.735	34.47
297.949	5.8
298.164	42.67
298.378	24.23
298.593	1.71
298.807	46.76
299.022	22.19
299.236	18.09
299.451	-18.77
299.665	24.23
299.88	9.9
300.094	36.52
300.309	59.05
300.523	40.62
300.737	13.99
300.952	20.14
301.166	20.14
301.381	87.72
301.595	42.67
301.809	30.38
302.024	100.01
302.238	30.38
302.452	46.76
302.667	-29.01
302.881	50.86
303.095	-31.06
303.309	61.1
303.524	18.09
303.738	-22.87
303.952	-4.44
304.166	44.71
304.381	11.95
304.595	67.24
304.809	-37.2
305.023	34.47
305.237	18.09
305.452	57
305.666	36.52
305.88	13.99
306.094	85.67
306.308	38.57
306.522	18.09
306.736	24.23
306.95	40.62
307.164	20.14
307.379	13.99
307.593	-51.54
307.807	44.71
308.021	28.33
308.235	-8.53
308.449	-65.88
308.663	1.71
308.877	63.15
309.091	3.75
309.305	32.43
309.519	42.67
309.733	151.21
309.947	89.77
310.161	24.23
310.374	30.38
310.588	5.8
310.802	-63.83
311.016	30.38
311.23	-22.87
311.444	73.39
311.658	7.85
311.872	40.62
312.085	28.33
312.299	28.33
312.513	7.85
312.727	38.57
312.941	44.71
313.154	50.86
313.368	59.05
313.582	77.48
313.796	-47.44
314.009	11.95
314.223	-14.68
314.437	-8.53
314.651	9.9
314.864	30.38
315.078	46.76
315.292	-2.39
315.505	1.71
315.719	-4.44
315.933	65.19
316.146	-12.63
316.36	110.25
316.573	34.47
316.787	26.28
317.001	75.43
317.214	28.33
317.428	108.2
317.641	65.19
317.855	-12.63
318.068	3.75
318.282	38.57
318.495	65.19
318.709	46.76
318.922	18.09
319.136	-49.49
319.349	34.47
319.563	91.82
319.776	11.95
319.99	26.28
320.203	118.44
320.417	54.95
320.63	-35.16
320.843	52.91
321.057	91.82
321.27	34.47
321.483	73.39
321.697	100.01
321.91	18.09
322.124	36.52
322.337	46.76
322.55	73.39
322.763	44.71
322.977	34.47
323.19	-18.77
323.403	83.63
323.617	97.96
323.83	59.05
324.043	7.85
324.256	118.44
324.469	9.9
324.683	18.09
324.896	-29.01
325.109	59.05
325.322	46.76
325.535	-51.54
325.748	40.62
325.962	42.67
326.175	-0.34
326.388	54.95
326.601	69.29
326.814	50.86
327.027	30.38
327.24	-2.39
327.453	38.57
327.666	1.71
327.879	104.11
328.092	69.29
328.305	44.71
328.518	1.71
328.731	77.48
328.944	138.92
329.157	42.67
329.37	46.76
329.583	36.52
329.796	22.19
330.009	28.33
330.222	104.11
330.435	-10.58
330.648	59.05
330.861	9.9
331.073	40.62
331.286	7.85
331.499	87.72
331.712	9.9
331.925	28.33
332.138	-22.87
332.35	50.86
332.563	18.09
332.776	83.63
332.989	81.58
333.202	32.43
333.414	67.24
333.627	69.29
333.84	-12.63
334.053	26.28
334.265	-12.63
334.478	85.67
334.691	-14.68
334.903	65.19
335.116	3.75
335.329	44.71
335.541	57
335.754	69.29
335.966	73.39
336.179	71.34
336.392	77.48
336.604	-26.96
336.817	30.38
337.029	-10.58
337.242	7.85
337.454	114.34
337.667	-63.83
337.88	89.77
338.092	89.77
338.305	36.52
338.517	13.99
338.729	-6.49
338.942	-4.44
339.154	79.53
339.367	9.9
339.579	-63.83
339.792	30.38
340.004	83.63
340.217	26.28
340.429	9.9
340.641	114.34
340.854	-55.64
341.066	9.9
341.278	-2.39
341.491	91.82
341.703	24.23
341.915	24.23
342.128	91.82
342.34	38.57
342.552	50.86
342.764	-2.39
342.977	44.71
343.189	59.05
343.401	-12.63
343.613	91.82
343.826	-18.77
344.038	9.9
344.25	16.04
344.462	30.38
344.674	95.91
344.886	91.82
345.099	52.91
345.311	36.52
345.523	26.28
345.735	9.9
345.947	54.95
346.159	87.72
346.371	69.29
346.583	-2.39
346.795	32.43
347.007	26.28
347.219	36.52
347.431	59.05
347.643	36.52
347.855	20.14
348.067	48.81
348.279	1.71
348.491	67.24
348.703	3.75
348.915	-47.44
349.127	71.34
349.339	97.96
349.551	73.39
349.763	128.68
349.975	46.76
350.187	69.29
350.399	48.81
350.61	34.47
350.822	46.76
351.034	83.63
351.246	34.47
351.458	75.43
351.669	83.63
351.881	-6.49
352.093	57
352.305	77.48
352.517	145.06
352.728	75.43
352.94	36.52
353.152	42.67
353.363	-2.39
353.575	93.87
353.787	46.76
353.999	-10.58
354.21	50.86
354.422	9.9
354.633	52.91
354.845	50.86
355.057	130.73
355.268	20.14
355.48	48.81
355.692	67.24
355.903	57
356.115	67.24
356.326	9.9
356.538	71.34
356.749	81.58
356.961	79.53
357.172	57
357.384	61.1
357.595	50.86
357.807	30.38
358.018	-6.49
358.23	44.71
358.441	57
358.653	-6.49
358.864	28.33
359.075	40.62
359.287	83.63
359.498	28.33
359.709	95.91
359.921	40.62
360.132	38.57
360.344	95.91
360.555	-39.25
360.766	-2.39
360.977	20.14
361.189	18.09
361.4	59.05
361.611	116.39
361.823	20.14
362.034	-12.63
362.245	32.43
362.456	11.95
362.667	108.2
362.879	9.9
363.09	-22.87
363.301	-2.39
363.512	46.76
363.723	24.23
363.935	54.95
364.146	36.52
364.357	5.8
364.568	93.87
364.779	-2.39
364.99	18.09
365.201	5.8
365.412	134.82
365.623	65.19
365.834	65.19
366.045	48.81
366.256	46.76
366.467	-26.96
366.678	108.2
366.889	85.67
367.1	13.99
367.311	106.15
367.522	46.76
367.733	59.05
367.944	50.86
368.155	48.81
368.366	65.19
368.577	61.1
368.788	59.05
368.999	87.72
369.209	85.67
369.42	54.95
369.631	57
369.842	85.67
370.053	42.67
370.264	79.53
370.474	50.86
370.685	38.57
370.896	34.47
371.107	44.71
371.317	-0.34
371.528	-18.77
371.739	50.86
371.95	-8.53
372.16	59.05
372.371	11.95
372.582	5.8
372.792	89.77
373.003	28.33
373.214	42.67
373.424	59.05
373.635	36.52
373.846	34.47
374.056	63.15
374.267	83.63
374.477	59.05
374.688	83.63
374.898	52.91
375.109	20.14
375.319	1.71
375.53	38.57
375.74	57
375.951	-41.3
376.161	104.11
376.372	20.14
376.582	22.19
376.793	22.19
377.003	79.53
377.214	13.99
377.424	26.28
377.635	20.14
377.845	-41.3
378.055	65.19
378.266	57
378.476	-0.34
378.686	5.8
378.897	46.76
379.107	-31.06
379.317	81.58
379.528	34.47
379.738	36.52
379.948	30.38
380.158	34.47
380.369	7.85
380.579	-20.82
380.789	100.01
380.999	34.47
381.21	9.9
381.42	59.05
381.63	22.19
381.84	79.53
382.05	54.95
382.261	-4.44
382.471	26.28
382.681	91.82
382.891	83.63
383.101	59.05
383.311	34.47
383.521	91.82
383.731	1.71
383.941	18.09
384.151	85.67
384.361	91.82
384.571	54.95
384.781	81.58
384.991	79.53
385.201	102.06
385.411	18.09
385.621	59.05
385.831	46.76
386.041	77.48
386.251	5.8
386.461	57
386.671	42.67
386.881	57
387.091	26.28
387.301	77.48
387.511	9.9
387.72	20.14
387.93	5.8
388.14	61.1
388.35	30.38
388.56	77.48
388.769	112.3
388.979	100.01
389.189	52.91
389.399	36.52
389.609	67.24
389.818	83.63
390.028	69.29
390.238	87.72
390.447	67.24
390.657	42.67
390.867	110.25
391.076	54.95
391.286	-2.39
391.496	124.58
391.705	28.33
391.915	110.25
392.125	114.34
392.334	52.91
392.544	22.19
392.753	85.67
392.963	67.24
393.172	50.86
393.382	54.95
393.591	163.5
393.801	69.29
394.01	122.54
394.22	32.43
394.429	110.25
394.639	95.91
394.848	81.58
395.058	34.47
395.267	81.58
395.477	95.91
395.686	116.39
395.895	118.44
396.105	91.82
396.314	108.2
396.524	102.06
396.733	95.91
396.942	155.3
397.152	120.49
397.361	106.15
397.57	183.98
397.78	61.1
397.989	120.49
398.198	216.74
398.407	122.54
398.617	102.06
398.826	59.05
399.035	73.39
399.244	69.29
399.453	126.63
399.663	61.1
399.872	102.06
400.081	44.71
400.29	69.29
400.499	108.2
400.708	100.01
400.917	128.68
401.127	67.24
401.336	95.91
401.545	173.74
401.754	188.07
401.963	163.5
402.172	44.71
402.381	145.06
402.59	177.83
402.799	91.82
403.008	50.86
403.217	181.93
403.426	100.01
403.635	130.73
403.844	143.02
404.053	151.21
404.262	112.3
404.471	97.96
404.68	102.06
404.888	181.93
405.097	143.02
405.306	106.15
405.515	210.6
405.724	116.39
405.933	114.34
406.142	132.78
406.35	186.02
406.559	198.31
406.768	157.35
406.977	165.54
407.185	179.88
407.394	145.06
407.603	235.18
407.812	206.5
408.02	216.74
408.229	218.79
408.438	186.02
408.646	204.46
408.855	255.65
409.064	253.61
409.272	237.22
409.481	218.79
409.69	212.65
409.898	296.61
410.107	304.81
410.315	280.23
410.524	290.47
410.733	372.39
410.941	376.48
411.15	313
411.358	319.14
411.567	407.2
411.775	321.19
411.984	315.05
412.192	425.64
412.401	390.82
412.609	396.96
412.818	394.92
413.026	466.6
413.234	507.55
413.443	540.32
413.651	425.64
413.86	528.03
414.068	628.39
414.276	577.19
414.485	571.04
414.693	646.82
414.901	648.86
415.11	655.01
415.318	665.25
415.526	663.2
415.734	788.13
415.943	761.5
416.151	781.98
416.359	818.85
416.567	845.47
416.776	896.67
416.984	931.48
417.192	931.48
417.4	911
417.608	1001.12
417.817	982.68
418.025	984.73
418.233	1150.62
418.441	1062.55
418.649	1115.8
418.857	1068.7
419.065	1277.59
419.273	1298.07
419.481	1322.65
419.689	1296.02
419.897	1394.33
420.105	1431.19
420.313	1377.94
420.521	1513.11
420.729	1564.31
420.937	1558.16
421.145	1640.08
421.353	1660.56
421.561	1808.02
421.769	1861.26
421.977	1887.89
422.185	1824.4
422.393	2025.1
422.601	2053.77
422.809	2107.02
423.017	2141.83
423.224	2160.27
423.432	2379.4
423.64	2277
423.848	2590.34
424.056	2457.22
424.263	2561.67
424.471	2655.87
424.679	2705.03
424.887	2877.05
425.094	3020.41
425.302	2983.55
425.51	3053.18
425.718	3106.43
425.925	3186.3
426.133	3292.79
426.341	3442.29
426.548	3681.91
426.756	3686
426.964	3647.09
427.171	3817.07
427.379	4023.92
427.586	4062.83
427.794	4238.95
428.001	4423.27
428.209	4544.1
428.417	4447.85
428.624	4902.5
428.832	4767.33
429.039	4750.95
429.247	4900.45
429.454	5338.71
429.662	5631.57
429.869	5111.39
430.076	5652.05
430.284	5430.87
430.491	5559.89
430.699	6088.27
430.906	5965.39
431.114	6080.08
431.321	6329.93
431.528	6501.96
431.736	7036.48
431.943	7079.49
432.15	6719.04
432.358	7040.58
432.565	7358.01
432.772	7310.91
432.979	7695.93
433.187	7769.65
433.394	8003.12
433.601	8617.51
433.808	8427.05
434.016	8406.57
434.223	8748.58
434.43	9098.78
434.637	8910.37
434.844	9725.46
435.052	9770.52
435.259	9696.79
435.466	9952.79
435.673	9975.31
435.88	10438.16
436.087	10952.2
436.294	10944
436.501	10685.96
436.708	10843.65
436.915	11306.49
437.122	11619.83
437.329	11589.11
437.537	12090.87
437.743	12361.2
437.95	12221.94
438.157	13057.51
438.364	13219.3
438.571	13379.04
438.778	13137.38
438.985	14312.91
439.192	13987.29
439.399	14364.11
439.606	13952.47
439.813	15027.65
440.02	15742.39
440.227	15615.42
440.433	15384
440.64	15852.98
440.847	16047.54
441.054	16102.84
441.261	17268.13
441.467	16944.55
441.674	17388.96
441.881	18068.89
442.088	18048.41
442.294	17911.19
442.501	18204.05
442.708	18802.06
442.914	19203.46
443.121	20387.19
443.328	19510.66
443.534	20925.8
443.741	20383.09
443.948	20174.2
444.154	21554.53
444.361	21382.5
444.568	21636.45
444.774	21622.11
444.981	21859.68
445.187	22619.47
445.394	23389.51
445.6	22793.55
445.807	25570.6
446.013	24595.76
446.22	24732.98
446.426	25593.12
446.633	25912.61
446.839	27131.15
447.046	25773.35
447.252	26785.04
447.459	27342.09
447.665	26985.74
447.871	28423.42
448.078	29265.13
448.284	28062.97
448.491	28945.65
448.697	29791.46
448.903	30358.75
449.11	30733.53
449.316	30004.45
449.522	30422.23
449.728	31235.28
449.935	31343.82
450.141	31575.24
450.347	32199.87
450.553	31196.37
450.76	31425.74
450.966	32570.55
451.172	32156.86
451.378	33170.61
451.584	32277.69
451.791	33264.82
451.997	33111.22
452.203	33600.68
452.409	33486
452.615	33332.4
452.821	32117.95
453.027	31794.37
453.233	33387.69
453.44	32101.57
453.646	32429.24
453.852	32740.54
454.058	33223.86
454.264	32210.11
454.47	32437.44
454.676	32046.27
454.882	33096.88
455.088	29979.87
455.294	30715.09
455.5	31196.37
455.705	31476.94
455.911	30053.6
456.117	29426.92
456.323	29105.39
456.529	27899.14
456.735	28736.76
456.941	28261.63
457.147	27569.41
457.352	26776.85
457.558	26383.64
457.764	26570.01
457.97	26107.16
458.176	25668.9
458.381	25662.76
458.587	24257.85
458.793	24534.32
458.999	23287.11
459.204	24388.92
459.41	23981.37
459.616	22435.16
459.821	22611.28
460.027	22469.97
460.233	21699.94
460.438	20823.4
460.644	21093.74
460.85	20043.13
461.055	19875.2
461.261	19768.7
461.466	18421.14
461.672	17845.66
461.878	19219.85
462.083	17788.32
462.289	17327.52
462.494	17352.1
462.7	16405.94
462.905	16055.73
463.111	16649.64
463.316	16797.1
463.522	16414.13
463.727	16442.8
463.932	16553.39
464.138	15836.6
464.343	16307.63
464.549	15977.91
464.754	16461.23
464.959	16074.17
465.165	16367.02
465.37	15476.16
465.575	15220.16
465.781	15605.18
465.986	15719.87
466.191	15336.9
466.397	14706.12
466.602	14011.86
466.807	15021.51
467.012	14874.06
467.218	14814.66
467.423	14360.02
467.628	14568.91
467.833	15160.77
468.038	14321.1
468.244	14396.88
468.449	14720.46
468.654	14286.29
468.859	14020.05
469.064	14034.39
469.269	13575.64
469.474	13436.38
469.679	13639.13
469.885	13630.94
470.09	13792.73
470.295	13684.19
470.5	13329.89
470.705	13409.76
470.91	13151.71
471.115	12971.49
471.32	13166.05
471.525	12975.59
471.73	12922.34
471.935	12488.17
472.139	12353.01
472.344	12576.23
472.549	12303.85
472.754	12301.81
472.959	11902.45
473.164	11742.71
473.369	11458.04
473.574	11769.34
473.778	11967.99
473.983	11697.66
474.188	11544.06
474.393	11150.85
474.598	11343.36
474.802	11025.92
475.007	10974.72
475.212	11060.74
475.417	10640.9
475.621	10616.33
475.826	10896.9
476.031	10497.55
476.235	10186.26
476.44	10266.13
476.645	10178.06
476.849	10341.9
477.054	10186.26
477.259	10059.28
477.463	10018.32
477.668	9758.23
477.872	9782.81
478.077	9760.28
478.282	9627.16
478.486	9479.71
478.691	9358.88
478.895	9215.52
479.1	9303.58
479.304	9084.45
479.509	9100.83
479.713	9229.85
479.918	8971.81
480.122	8883.75
480.326	8795.68
480.531	8984.1
480.735	8728.1
480.94	8662.57
481.144	9158.17
481.348	8613.42
481.553	8961.57
481.757	8472.11
481.961	8597.03
482.166	8783.4
482.37	8787.49
482.574	8504.87
482.778	8584.74
482.983	8848.93
483.187	8594.98
483.391	8662.57
483.595	8533.54
483.8	8566.31
484.004	8685.09
484.208	8754.73
484.412	8543.78
484.616	8537.64
484.821	8746.53
485.025	8443.43
485.229	8717.86
485.433	8461.87
485.637	8793.64
485.841	8453.67
486.045	8525.35
486.249	8637.99
486.453	8566.31
486.657	8619.56
486.861	8584.74
487.065	8486.44
487.269	8791.59
487.473	8357.42
487.677	8494.63
487.881	8658.47
488.085	8531.5
488.289	8633.89
488.493	8574.5
488.697	8597.03
488.901	8588.84
489.105	8873.51
489.309	8683.05
489.512	8705.57
489.716	8699.43
489.92	8605.22
490.124	8660.52
490.328	8869.41
490.531	8797.73
490.735	8756.77
490.939	9010.72
491.143	8726.05
491.346	8853.03
491.55	9219.61
491.754	9072.16
491.958	9045.54
492.161	9195.04
492.365	9135.65
492.569	9147.94
492.772	9203.23
492.976	9301.53
493.18	9250.33
493.383	9408.03
493.587	9586.2
493.79	9424.41
493.994	9293.34
494.197	9682.45
494.401	9541.15
494.605	9733.65
494.808	9850.39
495.012	9637.4
495.215	9791
495.419	9897.49
495.622	9934.36
495.825	9969.17
496.029	10157.58
496.232	10259.98
496.436	10393.1
496.639	10638.86
496.843	10444.3
497.046	10700.3
497.249	10761.73
497.453	11085.31
497.656	11021.83
497.859	11093.51
498.063	11013.63
498.266	11435.52
498.469	11341.31
498.673	11388.41
498.876	11677.18
499.079	11757.05
499.282	11857.4
499.485	12234.22
499.689	12117.49
499.892	12439.02
500.095	12201.46
500.298	12645.87
500.501	12723.69
500.705	13045.22
500.908	13016.55
501.111	13430.24
501.314	13436.38
501.517	13569.5
501.72	13835.74
501.923	13835.74
502.126	14089.68
502.329	14083.54
502.532	14378.45
502.735	14335.44
502.938	14663.11
503.141	14759.37
503.344	15179.2
503.547	15052.23
503.75	15361.47
503.953	15758.78
504.156	15701.44
504.359	15934.9
504.562	15748.54
504.765	16287.15
504.968	16260.53
505.17	16887.21
505.373	16666.03
505.576	17202.6
505.779	17567.13
505.982	17442.21
506.185	17913.24
506.387	17814.94
506.59	18115.99
506.793	18718.09
506.996	18054.55
507.198	18998.66
507.401	18986.38
507.604	19041.67
507.807	19520.9
508.009	19903.87
508.212	19920.25
508.415	19953.02
508.617	20544.88
508.82	20571.5
509.022	20399.48
509.225	21091.69
509.428	21063.02
509.63	21495.14
509.833	21392.74
510.035	22099.29
510.238	21841.25
510.44	22269.27
510.643	22863.18
510.845	22740.3
511.048	23029.07
511.25	23336.26
511.453	23469.38
511.655	24200.51
511.858	24003.9
512.06	24280.38
512.262	24841.52
512.465	24634.67
512.667	25062.7
512.87	25580.84
513.072	25410.85
513.274	25976.09
513.477	26559.77
513.679	26479.89
513.881	26930.45
514.084	27188.49
514.286	27520.26
514.488	27761.92
514.69	28534.01
514.893	28505.34
515.095	28603.64
515.297	29091.05
515.499	29119.73
515.701	29578.47
515.904	29316.33
516.106	30074.08
516.308	30280.92
516.51	30692.57
516.712	30889.17
516.914	31276.24
517.116	31456.46
517.318	31896.77
517.52	32193.73
517.722	32191.68
517.925	32838.84
518.127	33164.46
518.329	33154.22
518.531	33092.79
518.733	34045.09
518.935	34460.83
519.136	34575.52
519.338	34874.52
519.54	35075.22
519.742	35650.7
519.944	35658.89
520.146	36103.3
520.348	36437.12
520.55	36836.47
520.752	36740.22
520.954	37516.4
521.155	37213.3
521.357	37590.13
521.559	38270.05
521.761	38730.84
521.963	38382.69
522.164	39126.1
522.366	39054.42
522.568	39572.56
522.77	39865.42
522.971	40318.02
523.173	39853.13
523.375	40291.4
523.576	40692.8
523.778	40911.93
523.98	41026.62
524.181	41503.79
524.383	41593.9
524.584	42212.39
524.786	42206.25
524.988	42124.33
525.189	42714.14
525.391	43152.41
525.592	43084.83
525.794	43131.93
525.995	43562
526.197	43662.35
526.398	43332.63
526.6	43660.3
526.801	43889.68
527.003	44301.32
527.204	44481.54
527.406	44540.93
527.607	44635.14
527.808	44758.02
528.01	44682.24
528.211	44897.28
528.412	46076.91
528.614	45538.29
528.815	45024.25
529.016	45323.26
529.218	45665.27
529.419	45224.95
529.62	45579.25
529.822	45763.57
530.023	45630.45
530.224	45876.21
530.425	45878.25
530.626	45652.98
530.828	46087.15
531.029	46980.06
531.23	46230.51
531.431	45900.78
531.632	46437.35
531.833	46691.3
532.035	46545.89
532.236	46730.21
532.437	46900.19
532.638	46582.76
532.839	46865.38
533.04	46797.79
533.241	46406.63
533.442	47436.76
533.643	47027.17
533.844	47070.17
534.045	47238.11
534.246	46629.86
534.447	47283.16
534.648	46914.53
534.849	46912.48
535.05	47129.56
535.251	46932.96
535.451	47266.78
535.652	47477.72
535.853	46971.87
536.054	47455.19
536.255	47645.65
536.456	46855.14
536.657	47514.58
536.857	47344.6
537.058	47016.93
537.259	47715.28
537.46	47449.05
537.66	47436.76
537.861	47289.31
538.062	47207.39
538.263	47539.16
538.463	47389.66
538.664	47094.75
538.865	47805.39
539.065	47571.92
539.266	47145.95
539.466	47641.56
539.667	46664.67
539.868	47782.87
540.068	47563.73
540.269	47320.02
540.469	47793.11
540.67	47270.87
540.87	47092.7
541.071	47234.01
541.271	47608.79
541.472	47455.19
541.672	47285.21
541.873	47182.81
542.073	46910.43
542.274	47748.05
542.474	47403.99
542.675	47072.22
542.875	47322.07
543.075	47268.83
543.276	46865.38
543.476	47293.4
543.676	46896.1
543.877	47461.33
544.077	47231.96
544.277	47109.08
544.478	47154.14
544.678	47422.42
544.878	47170.52
545.078	47084.51
545.279	46916.57
545.479	47008.73
545.679	47381.46
545.879	47102.94
546.079	47029.21
546.28	47002.59
546.48	46781.41
546.68	47586.26
546.88	47764.43
547.08	47328.22
547.28	46869.47
547.48	46601.19
547.68	47451.09
547.88	46615.52
548.081	47203.29
548.281	47086.56
548.481	46578.66
548.681	47461.33
548.881	47031.26
549.081	46830.56
549.28	47053.79
549.48	47322.07
549.68	47045.6
549.88	47428.57
550.08	46685.15
550.28	47320.02
550.48	46762.98
550.68	47375.32
550.88	46705.63
551.08	46988.25
551.279	46988.25
551.479	46404.58
551.679	46781.41
551.879	46730.21
552.079	47137.76
552.278	46519.27
552.478	46883.81
552.678	46722.02
552.878	47027.17
553.077	46814.18
553.277	46218.22
553.477	47258.59
553.676	46515.17
553.876	46967.77
554.076	46439.4
554.275	46472.17
554.475	46117.87
554.674	46713.83
554.874	46963.68
555.074	46808.03
555.273	46320.62
555.473	46973.92
555.672	46228.46
555.872	46019.56
556.071	46185.45
556.271	46599.14
556.47	46242.79
556.67	45933.55
556.869	46384.1
557.068	46246.89
557.268	46142.44
557.467	46250.98
557.667	46312.42
557.866	46228.46
558.065	45458.42
558.265	45738.99
558.464	45515.76
558.663	46142.44
558.863	45517.81
559.062	46205.93
559.261	45632.5
559.461	46005.23
559.66	45175.8
559.859	45392.89
560.058	45085.69
560.258	45284.34
560.457	45001.72
560.656	45442.04
560.855	44829.69
561.054	45339.64
561.253	44622.85
561.453	45239.29
561.652	45274.1
561.851	45171.71
562.05	44833.79
562.249	44164.1
562.448	44825.6
562.647	44735.49
562.846	44831.74
563.045	44663.81
563.244	44213.26
563.443	45011.96
563.642	44203.02
563.841	44565.51
564.04	44354.57
564.239	44801.02
564.438	43832.33
564.637	44088.33
564.836	44129.29
565.035	43727.89
565.234	44172.3
565.432	43934.73
565.631	43803.66
565.83	43863.05
566.029	43602.96
566.228	43791.37
566.427	43602.96
566.625	43514.9
566.824	43392.02
567.023	43944.97
567.222	42705.95
567.42	43549.71
567.619	43041.82
567.818	42765.34
568.016	42695.71
568.215	43394.07
568.414	43017.24
568.612	42943.52
568.811	42613.79
569.01	42689.57
569.208	42480.67
569.407	43029.53
569.605	42116.14
569.804	42773.53
570.002	41880.62
570.201	42552.35
570.4	42044.46
570.598	41862.19
570.797	41612.34
570.995	41866.28
571.193	41700.4
571.392	41700.4
571.59	41647.15
571.789	41233.46
571.987	41550.9
572.186	41370.68
572.384	41167.93
572.582	40858.68
572.781	40741.95
572.979	40942.65
573.177	41051.19
573.376	40539.2
573.574	40649.79
573.772	40891.45
573.971	40217.67
574.169	40225.86
574.367	40047.69
574.565	39937.1
574.763	39803.98
574.962	40295.49
575.16	39863.37
575.358	39988.3
575.556	39318.61
575.754	40221.76
575.952	39365.71
576.151	39588.94
576.349	38997.08
576.547	38806.62
576.745	39058.52
576.943	38970.46
577.141	38630.49
577.339	39027.8
577.537	38245.48
577.735	38784.09
577.933	38442.08
578.131	38257.76
578.329	38431.84
578.527	38120.55
578.725	38491.23
578.923	37925.99
579.121	37956.71
579.319	37751.91
579.516	37915.75
579.714	37463.15
579.912	37528.69
580.11	37323.89
580.308	37563.5
580.506	37338.22
580.704	36992.12
580.901	37338.22
581.099	37506.16
581.297	36443.26
581.495	36584.57
581.692	36854.9
581.89	36506.75
582.088	36936.82
582.285	36512.89
582.483	36623.48
582.681	36410.5
582.878	35894.41
583.076	35732.62
583.274	36177.03
583.471	35955.85
583.669	36076.68
583.866	35597.45
584.064	35935.37
584.262	35361.94
584.459	35443.85
584.657	35320.98
584.854	35529.87
585.052	34784.41
585.249	35136.66
585.447	34870.42
585.644	34962.58
585.841	34796.7
586.039	35179.67
586.236	34407.58
586.434	34522.27
586.631	34167.97
586.828	34077.86
587.026	34356.38
587.223	34389.15
587.42	33758.38
587.618	33911.97
587.815	33692.84
588.012	33954.98
588.21	33285.29
588.407	33967.27
588.604	33619.11
588.801	33150.13
588.999	33342.64
589.196	33029.3
589.393	33137.84
589.59	33178.8
589.787	32890.04
589.984	32836.79
590.182	32703.67
590.379	32814.26
590.576	32437.44
590.773	32376
590.97	32259.26
591.167	32582.84
591.364	31524.04
591.561	31962.31
591.758	31612.1
591.955	31585.48
592.152	31861.96
592.349	31567.05
592.546	31550.67
592.743	31681.74
592.94	31055.06
593.137	31485.13
593.334	31534.28
593.531	31108.3
593.727	31055.06
593.924	31202.51
594.121	30860.5
594.318	30801.11
594.515	30514.39
594.712	31032.53
594.908	30432.47
595.105	30608.6
595.302	30090.46
595.499	30385.37
595.696	30303.45
595.892	30430.43
596.089	30416.09
596.286	30498.01
596.482	30452.95
596.679	30002.4
596.876	29998.3
597.072	29646.05
597.269	29666.53
597.466	29525.22
597.662	29588.71
597.859	29578.47
598.055	29492.46
598.252	28855.54
598.448	29261.04
598.645	29080.81
598.841	28824.82
599.038	29015.28
599.234	28880.11
599.431	28857.59
599.627	28540.15
599.824	28785.91
600.02	28517.62
600.217	28513.53
600.413	28263.68
600.609	28210.43
600.806	28214.52
601.002	28456.18
601.198	27776.26
601.395	27542.79
601.591	27921.66
601.787	27540.74
601.984	27589.89
602.18	27677.96
602.376	27294.99
602.572	27389.19
602.769	27641.09
602.965	26991.89
603.161	27313.42
603.357	27065.61
603.553	27024.65
603.75	27020.56
603.946	26918.16
604.142	26686.74
604.338	26549.53
604.534	26445.08
604.73	26352.92
604.926	26367.26
605.122	26266.91
605.318	25861.41
605.514	25939.23
605.71	26158.36
605.906	25605.41
606.102	25814.3
606.298	25869.6
606.494	25494.82
606.69	25898.27
606.886	25672.99
607.082	25265.45
607.278	25840.93
607.474	24988.97
607.67	25212.2
607.866	24950.06
608.062	25257.26
608.257	25177.39
608.453	25025.84
608.649	25199.91
608.845	24675.63
609.041	24798.51
609.236	24755.5
609.432	24687.92
609.628	24665.39
609.824	24575.28
610.019	24476.98
610.215	24216.89
610.411	24573.24
610.606	24030.52
610.802	24509.75
610.998	24075.58
611.193	23924.03
611.389	23919.93
611.584	23838.01
611.78	23641.41
611.976	23604.55
612.171	23958.85
612.367	23768.38
612.562	23424.33
612.758	23223.62
612.953	22947.15
613.149	23553.35
613.344	23233.86
613.539	23665.99
613.735	23061.83
613.93	23076.17
614.126	23221.58
614.321	22998.35
614.517	23033.16
614.712	22717.78
614.907	22977.87
615.103	23014.73
615.298	22775.12
615.493	23129.42
615.688	22506.84
615.884	22771.02
616.079	22259.03
616.274	22216.02
616.47	22809.93
616.665	22299.99
616.86	22551.89
617.055	22338.9
617.25	22089.05
617.445	22605.14
617.641	21962.08
617.836	22351.19
618.031	21808.48
618.226	21886.3
618.421	21689.7
618.616	21828.96
618.811	21433.7
619.006	21831.01
619.201	21312.87
619.396	21538.15
619.591	21316.97
619.786	21462.37
619.981	20917.61
620.176	21224.81
620.371	21087.59
620.566	20995.43
620.761	20718.96
620.956	20897.13
621.151	20594.03
621.346	20788.59
621.541	20254.07
621.735	20278.65
621.93	19848.57
622.125	20305.27
622.32	19686.78
622.515	19737.98
622.709	19694.97
622.904	19893.63
623.099	19697.02
623.294	19889.53
623.488	19172.74
623.683	19260.8
623.878	19064.2
624.072	19160.45
624.267	19082.63
624.462	19004.81
624.656	18673.04
624.851	18593.17
625.046	18449.81
625.24	18431.38
625.435	18175.38
625.629	18273.68
625.824	18009.5
626.018	18208.15
626.213	17673.63
626.407	18140.57
626.602	17771.93
626.796	17763.74
626.991	17675.68
627.185	17581.47
627.38	17532.32
627.574	17069.48
627.768	17153.44
627.963	17100.2
628.157	16975.27
628.352	16901.54
628.546	16967.08
628.74	17092.01
628.935	16752.04
629.129	16532.91
629.323	16412.08
629.517	16362.93
629.712	16383.41
629.906	16297.39
630.1	15752.63
630.294	16129.46
630.489	15998.39
630.683	15904.18
630.877	15830.46
631.071	15904.18
631.265	15791.55
631.459	15773.11
631.653	15519.17
631.848	15533.5
632.042	15345.09
632.236	15144.39
632.43	15363.52
632.624	15171.01
632.818	15095.24
633.012	15007.17
633.206	14994.89
633.4	14951.88
633.594	14777.8
633.788	14796.23
633.982	14706.12
634.176	14749.13
634.369	14335.44
634.563	14396.88
634.757	14261.71
634.951	14427.6
635.145	14091.73
635.339	14175.7
635.533	13874.65
635.726	14153.17
635.92	13936.09
636.114	13880.79
636.308	13888.98
636.501	13628.89
636.695	13772.25
636.889	13391.33
637.083	13407.71
637.276	13432.29
637.47	13123.04
637.664	13321.7
637.857	13346.27
638.051	13176.29
638.244	12998.12
638.438	12854.76
638.632	12838.37
638.825	12838.37
639.019	12740.07
639.212	12578.28
639.406	12652.01
639.599	12598.76
639.793	12537.32
639.986	12537.32
640.18	12518.89
640.373	12418.54
640.567	12236.27
640.76	12406.25
640.954	11986.42
641.147	11929.08
641.34	11996.66
641.534	11998.71
641.727	11920.88
641.92	11978.23
642.114	11730.42
642.307	11652.6
642.5	11656.7
642.694	11593.21
642.887	11525.63
643.08	11421.18
643.273	11423.23
643.467	11400.7
643.66	11351.55
643.853	11044.35
644.046	11173.38
644.239	11064.83
644.432	11126.27
644.626	10784.26
644.819	10896.9
645.012	10946.05
645.205	10698.25
645.398	10692.1
645.591	10563.08
645.784	10497.55
645.977	10538.51
646.17	10487.31
646.363	10491.4
646.556	10350.09
646.749	10214.93
646.942	10167.82
647.135	9791
647.328	10196.5
647.521	9952.79
647.714	9760.28
647.907	9852.44
648.099	9932.31
648.292	9930.26
648.485	9846.29
648.678	9545.24
648.871	9637.4
649.064	9551.38
649.256	9653.78
649.449	9326.11
649.642	9217.57
649.835	9252.38
650.027	9297.44
650.22	9246.24
650.413	9330.2
650.605	8807.97
650.798	9018.91
650.991	8971.81
651.183	8926.75
651.376	8633.89
651.568	8826.4
651.761	8590.89
651.954	8678.95
652.146	8564.26
652.339	8689.19
652.531	8633.89
652.724	8531.5
652.916	8171.05
653.109	8298.03
653.301	8343.08
653.494	8265.26
653.686	8275.5
653.879	8212.01
654.071	8050.22
654.263	8246.83
654.456	8099.38
654.648	8048.18
654.84	7878.19
655.033	7896.63
655.225	7898.67
655.417	7704.12
655.61	7794.23
655.802	7663.16
655.994	7657.01
656.186	7652.92
656.379	7650.87
656.571	7593.53
656.763	7480.89
656.955	7429.69
657.148	7462.46
657.34	7331.39
657.532	7243.32
657.724	7034.43
657.916	7065.15
658.108	7177.79
658.3	7114.3
658.492	6979.14
658.684	6940.22
658.876	6913.6
659.068	6897.22
659.26	6774.34
659.452	6815.3
659.644	6823.49
659.836	6684.23
660.028	6755.91
660.22	6598.21
660.412	6549.06
660.604	6499.91
660.796	6483.53
660.988	6477.38
661.18	6403.66
661.372	6196.81
661.563	6200.91
661.755	6270.54
661.947	6432.33
662.139	6317.64
662.331	6213.2
662.522	6041.17
662.714	6084.17
662.906	5920.34
663.097	5994.06
663.289	5938.77
663.481	5977.68
663.673	6028.88
663.864	5914.19
664.056	5801.55
664.247	5744.21
664.439	5631.57
664.631	5766.74
664.822	5731.92
665.014	5598.81
665.205	5541.46
665.397	5568.09
665.588	5535.32
665.78	5580.37
665.971	5428.82
666.163	5529.17
666.354	5647.96
666.546	5307.99
666.737	5158.49
666.929	5242.46
667.12	5437.02
667.311	5260.89
667.503	5082.72
667.694	5215.84
667.885	5183.07
668.077	5164.64
668.268	4925.02
668.459	4873.82
668.651	5166.68
668.842	4945.5
669.033	4816.48
669.224	4822.63
669.416	4902.5
669.607	4935.26
669.798	4828.77
669.989	4947.55
670.18	4824.67
670.371	4769.38
670.563	4779.62
670.754	4765.28
670.945	4736.61
671.136	4441.7
671.327	4415.08
671.518	4578.92
671.709	4533.86
671.9	4601.44
672.091	4613.73
672.282	4478.57
672.473	4529.77
672.664	4564.58
672.855	4378.22
673.046	4437.61
673.237	4474.47
673.428	4460.13
673.619	4333.16
673.809	4400.74
674	4335.21
674.191	4331.11
674.382	4359.78
674.573	4335.21
674.764	4177.51
674.954	4265.58
675.145	4298.35
675.336	4273.77
675.527	4114.03
675.717	4058.73
675.908	3989.1
676.099	4081.26
676.289	3884.66
676.48	4091.5
676.671	4087.4
676.861	4152.94
677.052	3868.27
677.243	4007.53
677.433	3878.51
677.624	4009.58
677.814	3960.43
678.005	3982.96
678.195	3976.81
678.386	3966.57
678.576	3948.14
678.767	4032.11
678.957	3878.51
679.148	4009.58
679.338	3888.75
679.529	3753.59
679.719	3796.59
679.909	3737.2
680.1	3786.35
680.29	3636.85
680.481	3696.24
680.671	3731.06
680.861	3653.23
681.052	3767.92
681.242	3712.63
681.432	3647.09
681.622	3649.14
681.813	3784.3
682.003	3634.8
682.193	3624.56
682.383	3657.33
682.573	3634.8
682.764	3669.62
682.954	3552.88
683.144	3552.88
683.334	3704.43
683.524	3565.17
683.714	3538.55
683.904	3618.42
684.094	3489.4
684.284	3507.83
684.474	3411.57
684.664	3573.36
684.854	3481.21
685.044	3475.06
685.234	3438.2
685.424	3417.72
685.614	3374.71
685.804	3438.2
685.994	3475.06
686.184	3542.64
686.374	3393.14
686.564	3415.67
686.753	3368.57
686.943	3430.01
687.133	3485.3
687.323	3311.22
687.513	3481.21
687.702	3425.91
687.892	3206.78
688.082	3341.94
688.272	3384.95
688.461	3321.46
688.651	3430.01
688.841	3370.62
689.03	3313.27
689.22	3294.84
689.41	3343.99
689.599	3270.26
689.789	3309.18
689.979	3196.54
690.168	3262.07
690.358	3247.74
690.547	3180.15
690.737	3198.59
690.926	3135.1
691.116	3151.48
691.305	3243.64
691.495	3208.83
691.684	3157.63
691.874	3380.86
692.063	3307.13
692.252	3245.69
692.442	3227.26
692.631	3282.55
692.82	3128.95
693.01	3212.92
693.199	3229.31
693.388	3245.69
693.578	3194.49
693.767	3233.4
693.956	3200.63
694.146	3296.89
694.335	3157.63
694.524	3135.1
694.713	3110.52
694.902	3194.49
695.092	3194.49
695.281	3155.58
695.47	3106.43
695.659	3116.67
695.848	3112.57
696.037	3237.5
696.226	3063.42
696.415	3036.8
696.604	3030.65
696.793	3133.05
696.982	3100.28
697.171	3028.6
697.36	3094.14
697.549	3030.65
697.738	3141.24
697.927	2991.74
698.116	2915.97
698.305	3114.62
698.494	3122.81
698.683	3034.75
698.872	3098.24
699.061	2971.26
699.25	2963.07
699.438	3147.39
699.627	2983.55
699.816	3004.03
700.005	2973.31
700.193	3157.63
700.382	3067.52
700.571	3034.75
700.76	2954.88
700.948	2969.21
701.137	2889.34
701.326	2981.5
701.514	2901.63
701.703	3018.36
701.892	2885.25
702.08	2958.97
702.269	2930.3
702.457	2854.53
702.646	2909.82
702.834	2854.53
703.023	2905.73
703.212	2875.01
703.4	2881.15
703.589	2827.9
703.777	2821.76
703.965	2707.07
704.154	2838.14
704.342	2778.75
704.531	2770.56
704.719	2762.37
704.907	2948.73
705.096	2731.65
705.284	2692.74
705.472	2649.73
705.661	2649.73
705.849	2700.93
706.037	2668.16
706.226	2639.49
706.414	2725.51
706.602	2508.42
706.79	2639.49
706.979	2666.11
707.167	2621.06
707.355	2713.22
707.543	2680.45
707.731	2649.73
707.919	2645.63
708.107	2711.17
708.296	2633.35
708.484	2643.59
708.672	2590.34
708.86	2489.99
709.048	2639.49
709.236	2549.38
709.424	2647.68
709.612	2518.66
709.8	2510.47
709.988	2500.23
710.176	2391.69
710.364	2512.52
710.551	2479.75
710.739	2387.59
710.927	2373.25
711.115	2516.61
711.303	2483.84
711.491	2340.49
711.679	2309.77
711.866	2457.22
712.054	2533
712.242	2358.92
712.43	2352.77
712.617	2352.77
712.805	2358.92
712.993	2340.49
713.181	2307.72
713.368	2305.67
713.556	2291.34
713.744	2250.38
713.931	2213.51
714.119	2322.06
714.306	2356.87
714.494	2174.6
714.682	2193.03
714.869	2199.18
715.057	2270.86
715.244	2090.63
715.432	2094.73
715.619	2127.5
715.807	2152.07
715.994	2131.59
716.182	2061.96
716.369	2139.79
716.556	2061.96
716.744	2049.68
716.931	2049.68
717.119	2143.88
717.306	2002.57
717.493	2074.25
717.681	2129.55
717.868	2045.58
718.055	2047.63
718.242	1980.04
718.43	1984.14
718.617	1951.37
718.804	1984.14
718.991	1957.52
719.179	2055.82
719.366	1994.38
719.553	1904.27
719.74	1980.04
719.927	1834.64
720.114	1914.51
720.301	1945.23
720.488	1818.25
720.676	1805.97
720.863	1883.79
721.05	1756.82
721.237	1740.43
721.424	1871.5
721.611	1812.11
721.798	1916.56
721.985	1896.08
722.172	1877.65
722.358	1740.43
722.545	1734.29
722.732	1797.78
722.919	1762.96
723.106	1701.52
723.293	1660.56
723.48	1746.58
723.667	1668.75
723.853	1722
724.04	1601.17
724.227	1678.99
724.414	1666.71
724.6	1730.19
724.787	1554.07
724.974	1678.99
725.161	1609.36
725.347	1656.47
725.534	1734.29
725.72	1590.93
725.907	1687.18
726.094	1660.56
726.28	1597.07
726.467	1590.93
726.653	1590.93
726.84	1635.99
727.027	1642.13
727.213	1566.35
727.4	1584.79
727.586	1580.69
727.773	1609.36
727.959	1515.16
728.145	1478.29
728.332	1541.78
728.518	1576.59
728.705	1556.11
728.891	1523.35
729.077	1535.64
729.264	1482.39
729.45	1543.83
729.636	1365.65
729.823	1386.13
730.009	1517.2
730.195	1547.92
730.382	1506.96
730.568	1435.28
730.754	1371.8
730.94	1439.38
731.126	1328.79
731.313	1427.09
731.499	1427.09
731.685	1373.85
731.871	1357.46
732.057	1404.57
732.243	1410.71
732.429	1345.17
732.615	1361.56
732.801	1320.6
732.987	1296.02
733.173	1361.56
733.359	1275.54
733.545	1318.55
733.731	1359.51
733.917	1298.07
734.103	1259.16
734.289	1347.22
734.475	1388.18
734.661	1265.3
734.847	1365.65
735.033	1234.58
735.219	1328.79
735.404	1287.83
735.59	1101.47
735.776	1281.69
735.962	1283.74
736.148	1324.69
736.333	1269.4
736.519	1222.3
736.705	1152.67
736.89	1115.8
737.076	1255.06
737.262	1171.1
737.447	1164.95
737.633	1191.58
737.819	1105.56
738.004	1234.58
738.19	1199.77
738.375	1265.3
738.561	1162.9
738.747	1226.39
738.932	1130.14
739.118	1183.38
739.303	1158.81
739.489	1189.53
739.674	1119.9
739.859	1203.86
740.045	1132.19
740.23	1132.19
740.416	1126.04
740.601	1207.96
740.786	1093.27
740.972	1109.66
741.157	990.88
741.342	1130.14
741.528	1121.95
741.713	1080.99
741.898	1066.65
742.084	1058.46
742.269	1005.21
742.454	1089.18
742.639	978.59
742.824	1056.41
743.01	1031.83
743.195	970.4
743.38	1035.93
743.565	1037.98
743.75	911
743.935	984.73
744.12	956.06
744.305	929.44
744.49	968.35
744.675	954.01
744.86	937.63
745.045	960.16
745.23	939.68
745.415	855.71
745.6	925.34
745.785	960.16
745.97	980.64
746.155	964.25
746.34	1003.16
746.525	951.96
746.71	986.78
746.895	925.34
747.079	851.61
747.264	949.92
747.449	851.61
747.634	978.59
747.819	865.95
748.003	878.24
748.188	851.61
748.373	919.2
748.557	843.42
748.742	927.39
748.927	923.29
749.111	878.24
749.296	824.99
749.481	835.23
749.665	868
749.85	857.76
750.034	874.14
750.219	921.24
750.404	738.98
750.588	839.33
750.773	800.41
750.957	927.39
751.141	753.31
751.326	779.93
751.51	755.36
751.695	788.13
751.879	718.5
752.064	841.37
752.248	747.17
752.432	767.65
752.617	800.41
752.801	806.56
752.985	800.41
753.17	804.51
753.354	790.17
753.538	677.54
753.722	665.25
753.907	708.26
754.091	806.56
754.275	712.35
754.459	677.54
754.643	675.49
754.828	677.54
755.012	751.26
755.196	738.98
755.38	669.34
755.564	683.68
755.748	679.58
755.932	634.53
756.116	732.83
756.3	603.81
756.484	640.67
756.668	642.72
756.852	681.63
757.036	652.96
757.22	706.21
757.404	673.44
757.588	620.19
757.772	634.53
757.956	597.67
758.14	597.67
758.323	591.52
758.507	587.43
758.691	614.05
758.875	622.24
759.059	634.53
759.242	620.19
759.426	609.95
759.61	603.81
759.794	609.95
759.977	603.81
760.161	573.09
760.345	607.91
760.528	568.99
760.712	626.34
760.895	554.66
761.079	579.23
761.263	585.38
761.446	560.8
761.63	583.33
761.813	646.82
761.997	562.85
762.18	577.19
762.364	546.47
762.547	599.71
762.731	534.18
762.914	564.9
763.098	480.93
763.281	513.7
763.464	626.34
763.648	501.41
763.831	562.85
764.015	532.13
764.198	511.65
764.381	534.18
764.564	540.32
764.748	523.94
764.931	501.41
765.114	495.27
765.297	534.18
765.481	540.32
765.664	532.13
765.847	478.88
766.03	476.84
766.213	509.6
766.397	480.93
766.58	509.6
766.763	437.92
766.946	480.93
767.129	476.84
767.312	407.2
767.495	495.27
767.678	485.03
767.861	571.04
768.044	548.51
768.227	546.47
768.41	511.65
768.593	464.55
768.776	470.69
768.959	470.69
769.142	425.64
769.324	489.12
769.507	478.88
769.69	480.93
769.873	462.5
770.056	493.22
770.239	431.78
770.421	566.95
770.604	403.11
770.787	503.46
770.97	491.17
771.152	427.68
771.335	501.41
771.518	460.45
771.7	411.3
771.883	503.46
772.066	458.4
772.248	433.83
772.431	454.31
772.613	503.46
772.796	431.78
772.978	386.72
773.161	464.55
773.343	439.97
773.526	431.78
773.708	407.2
773.891	439.97
774.073	409.25
774.256	458.4
774.438	394.92
774.621	458.4
774.803	429.73
774.985	462.5
775.168	321.19
775.35	323.24
775.532	442.02
775.715	454.31
775.897	470.69
776.079	396.96
776.261	407.2
776.444	374.44
776.626	382.63
776.808	390.82
776.99	380.58
777.173	384.68
777.355	403.11
777.537	380.58
777.719	396.96
777.901	356.01
778.083	282.28
778.265	296.61
778.447	378.53
778.629	366.25
778.811	317.09
778.993	333.48
779.175	423.59
779.357	376.48
779.539	319.14
779.721	372.39
779.903	315.05
780.085	368.29
780.267	358.05
780.449	315.05
780.631	335.53
780.812	345.77
780.994	382.63
781.176	378.53
781.358	327.33
781.54	310.95
781.721	317.09
781.903	411.3
782.085	321.19
782.267	366.25
782.448	331.43
782.63	337.57
782.812	294.57
782.993	292.52
783.175	337.57
783.357	313
783.538	257.7
783.72	288.42
783.901	315.05
784.083	280.23
784.264	280.23
784.446	206.5
784.627	229.03
784.809	362.15
784.99	306.85
785.172	261.8
785.353	339.62
785.535	224.94
785.716	241.32
785.897	339.62
786.079	298.66
786.26	280.23
786.441	315.05
786.623	272.04
786.804	310.95
786.985	274.09
787.167	337.57
787.348	218.79
787.529	317.09
787.71	159.4
787.891	292.52
788.073	226.98
788.254	288.42
788.435	286.37
788.616	216.74
788.797	339.62
788.978	278.18
789.159	292.52
789.34	239.27
789.522	218.79
789.703	214.7
789.884	304.81
790.065	208.55
790.246	222.89
790.427	208.55
790.607	212.65
790.788	276.13
790.969	204.46
791.15	249.51
791.331	173.74
791.512	231.08
791.693	163.5
791.874	163.5
792.054	241.32
792.235	265.89
792.416	204.46
792.597	177.83
792.778	126.63
792.958	218.79
793.139	216.74
793.32	153.26
793.5	206.5
793.681	167.59
793.862	210.6
794.042	208.55
794.223	224.94
794.404	183.98
794.584	198.31
794.765	190.12
794.945	218.79
795.126	216.74
795.306	218.79
795.487	151.21
795.667	200.36
795.848	247.46
796.028	167.59
796.209	157.35
796.389	169.64
796.57	169.64
796.75	136.87
796.93	167.59
797.111	153.26
797.291	259.75
797.471	114.34
797.652	157.35
797.832	126.63
798.012	97.96
798.192	126.63
798.373	145.06
798.553	140.97
798.733	171.69
798.913	169.64
799.093	149.16
799.274	132.78
799.454	241.32
799.634	161.45
799.814	220.84
799.994	198.31
800.174	235.18
800.354	126.63
800.534	239.27
800.714	239.27
800.894	132.78
801.074	151.21
801.254	116.39
801.434	124.58
801.614	134.82
801.794	159.4
801.974	351.91
802.154	112.3
802.334	206.5
802.514	140.97
802.693	134.82
802.873	149.16
803.053	124.58
803.233	198.31
803.413	153.26
803.592	85.67
803.772	155.3
803.952	151.21
804.131	192.17
804.311	202.41
804.491	251.56
804.67	132.78
804.85	165.54
805.03	159.4
805.209	155.3
805.389	145.06
805.568	126.63
805.748	89.77
805.928	110.25
806.107	132.78
806.287	128.68
806.466	69.29
806.646	85.67
806.825	104.11
807.004	67.24
807.184	112.3
807.363	155.3
807.543	134.82
807.722	85.67
807.901	71.34
808.081	177.83
808.26	145.06
808.439	212.65
808.619	104.11
808.798	206.5
808.977	95.91
809.156	124.58
809.336	140.97
809.515	108.2
809.694	202.41
809.873	36.52
810.052	54.95
810.231	214.7
810.411	93.87
810.59	179.88
810.769	167.59
810.948	136.87
811.127	24.23
811.306	112.3
811.485	89.77
811.664	122.54
811.843	136.87
812.022	112.3
812.201	120.49
812.38	95.91
812.559	61.1
812.737	104.11
812.916	30.38
813.095	95.91
813.274	89.77
813.453	128.68
813.632	126.63
813.811	151.21
813.989	57
814.168	59.05
814.347	46.76
814.526	116.39
814.704	124.58
814.883	110.25
815.062	151.21
815.24	169.64
815.419	93.87
815.598	128.68
815.776	91.82
815.955	52.91
816.133	61.1
816.312	147.11
816.49	61.1
816.669	36.52
816.847	28.33
817.026	108.2
817.204	108.2
817.383	87.72
817.561	87.72
817.74	116.39
817.918	79.53
818.097	114.34
818.275	75.43
818.453	67.24
818.632	52.91
818.81	153.26
818.988	52.91
819.167	34.47
819.345	9.9
819.523	124.58
819.701	108.2
819.879	104.11
820.058	5.8
820.236	126.63
820.414	36.52
820.592	67.24
820.77	38.57
820.948	75.43
821.127	126.63
821.305	81.58
821.483	75.43
821.661	52.91
821.839	93.87
822.017	42.67
822.195	89.77
822.373	63.15
822.551	48.81
822.729	26.28
822.907	108.2
823.085	91.82
823.262	1.71
823.44	52.91
823.618	73.39
823.796	108.2
823.974	3.75
824.152	132.78
824.329	9.9
824.507	59.05
824.685	89.77
824.863	46.76
825.04	67.24
825.218	61.1
825.396	32.43
825.574	149.16
825.751	91.82
825.929	61.1
826.107	48.81
826.284	38.57
826.462	79.53
826.639	34.47
826.817	75.43
826.994	11.95
827.172	-6.49
827.349	61.1
827.527	48.81
827.704	67.24
827.882	63.15
828.059	32.43
828.237	65.19
828.414	3.75
828.591	28.33
828.769	24.23
828.946	67.24
829.124	54.95
829.301	44.71
829.478	100.01
829.655	67.24
829.833	52.91
830.01	34.47
830.187	44.71
830.364	59.05
830.542	48.81
830.719	93.87
830.896	83.63
831.073	112.3
831.25	81.58
831.427	42.67
831.604	26.28
831.782	73.39
831.959	28.33
832.136	46.76
832.313	79.53
832.49	9.9
832.667	65.19
832.844	40.62
833.021	-4.44
833.198	57
833.374	102.06
833.551	89.77
833.728	65.19
833.905	112.3
834.082	28.33
834.259	65.19
834.436	1.71
834.612	22.19
834.789	5.8
834.966	13.99
835.143	52.91
835.319	50.86
835.496	42.67
835.673	67.24
835.85	83.63
836.026	36.52
836.203	20.14
836.38	16.04
836.556	44.71
836.733	79.53
836.909	11.95
837.086	102.06
837.262	44.71
837.439	7.85
837.616	50.86
837.792	26.28
837.968	36.52
838.145	-33.11
838.321	34.47
838.498	75.43
838.674	81.58
838.851	5.8
839.027	34.47
839.203	42.67
839.38	-0.34
839.556	-24.92
839.732	75.43
839.909	22.19
840.085	102.06
840.261	79.53
840.437	77.48
840.614	16.04
840.79	59.05
840.966	36.52
841.142	79.53
841.318	102.06
841.494	83.63
841.671	-18.77
841.847	30.38
842.023	7.85
842.199	52.91
842.375	-4.44
842.551	-14.68
842.727	52.91
842.903	-14.68
843.079	85.67
843.255	38.57
843.431	-8.53
843.607	102.06
843.783	26.28
843.959	44.71
844.134	34.47
844.31	44.71
844.486	-6.49
844.662	81.58
844.838	-14.68
845.013	22.19
845.189	24.23
845.365	52.91
845.541	7.85
845.716	18.09
845.892	32.43
846.068	112.3
846.244	5.8
846.419	54.95
846.595	-29.01
846.77	79.53
846.946	63.15
847.122	34.47
847.297	-20.82
847.473	40.62
847.648	-49.49
847.824	36.52
847.999	-16.73
848.175	16.04
848.35	20.14
848.526	44.71
848.701	1.71
848.876	69.29
849.052	77.48
849.227	32.43
849.403	7.85
849.578	-0.34
849.753	-24.92
849.929	20.14
850.104	-0.34
850.279	75.43
850.454	-12.63
850.63	-29.01
850.805	44.71
850.98	28.33
851.155	-18.77
851.33	32.43
851.505	5.8
851.681	-24.92
851.856	28.33
852.031	11.95
852.206	22.19
852.381	13.99
852.556	38.57
852.731	30.38
852.906	59.05
853.081	32.43
853.256	89.77
853.431	16.04
853.606	40.62
853.781	40.62
853.956	-8.53
854.131	-8.53
854.305	54.95
854.48	30.38
854.655	-4.44
854.83	40.62
855.005	11.95
855.18	42.67
855.354	48.81
855.529	71.34
855.704	13.99
855.879	-20.82
856.053	52.91
856.228	57
856.403	44.71
856.577	26.28
856.752	34.47
856.926	-12.63
857.101	59.05
857.276	30.38
857.45	28.33
857.625	-18.77
857.799	7.85
857.974	-2.39
858.148	-22.87
858.323	65.19
858.497	48.81
858.672	75.43
858.846	-0.34
859.02	26.28
859.195	9.9
859.369	-16.73
859.543	42.67
859.718	1.71
859.892	-61.78
860.066	83.63
860.241	-39.25
860.415	34.47
860.589	11.95
860.763	-12.63
860.938	30.38
861.112	28.33
861.286	-80.21
861.46	3.75
861.634	38.57
861.808	-41.3
861.982	32.43
862.157	40.62
862.331	-4.44
862.505	24.23
862.679	-16.73
862.853	-0.34
863.027	46.76
863.201	26.28
863.375	-16.73
863.549	20.14
863.722	54.95
863.896	5.8
864.07	-4.44
864.244	-24.92
864.418	42.67
864.592	-6.49
864.766	16.04
864.939	89.77
865.113	36.52
865.287	11.95
865.461	75.43
865.634	44.71
865.808	11.95
865.982	20.14
866.156	-37.2
866.329	-14.68
866.503	-26.96
866.676	5.8
866.85	-14.68
867.024	34.47
867.197	13.99
867.371	13.99
867.544	-8.53
867.718	5.8
867.891	9.9
868.065	-67.92
868.238	3.75
868.412	-2.39
868.585	-14.68
868.759	26.28
868.932	52.91
869.105	42.67
869.279	59.05
869.452	-20.82
869.625	-8.53
869.799	28.33
869.972	18.09
870.145	-61.78
870.319	-29.01
870.492	59.05
870.665	34.47
870.838	63.15
871.011	20.14
871.185	-2.39
871.358	48.81
871.531	9.9
871.704	5.8
871.877	-6.49
872.05	-8.53
872.223	24.23
872.396	100.01
872.569	30.38
872.742	13.99
872.915	13.99
873.088	59.05
873.261	-14.68
873.434	34.47
873.607	-39.25
873.78	32.43
873.953	75.43
874.126	52.91
874.299	-6.49
874.471	-14.68
874.644	-20.82
874.817	22.19
874.99	136.87
875.163	46.76
875.335	97.96
875.508	1.71
875.681	-59.73
875.853	44.71
876.026	-39.25
876.199	20.14
876.371	26.28
876.544	30.38
876.717	-29.01
876.889	46.76
877.062	9.9
877.234	63.15
877.407	-18.77
877.579	9.9
877.752	-12.63
877.924	67.24
878.097	-43.35
878.269	18.09
878.442	3.75
878.614	-22.87
878.786	-2.39
878.959	13.99
879.131	124.58
879.303	-18.77
879.476	22.19
879.648	112.3
879.82	13.99
879.993	20.14
880.165	24.23
880.337	20.14
880.509	-24.92
880.681	-35.16
880.854	34.47
881.026	-53.59
881.198	116.39
881.37	-31.06
881.542	57
881.714	54.95
881.886	-6.49
882.058	-10.58
882.23	-10.58
882.402	5.8
882.574	-35.16
882.746	-22.87
882.918	26.28
883.09	1.71
883.262	73.39
883.434	22.19
883.606	-80.21
883.778	-8.53
883.95	77.48
884.122	-37.2
884.293	-35.16
884.465	-35.16
884.637	34.47
884.809	26.28
884.98	50.86
885.152	38.57
885.324	18.09
885.496	-20.82
885.667	18.09
885.839	30.38
886.011	-18.77
886.182	26.28
886.354	20.14
886.525	61.1
886.697	-57.68
886.869	7.85
887.04	44.71
887.212	34.47
887.383	-12.63
887.555	108.2
887.726	-12.63
887.897	-16.73
888.069	-29.01
888.24	11.95
888.412	18.09
888.583	-22.87
888.754	11.95
888.926	-8.53
889.097	46.76
889.268	11.95
889.44	20.14
889.611	-22.87
889.782	24.23
889.953	42.67
890.125	9.9
890.296	-29.01
890.467	-29.01
890.638	-20.82
890.809	24.23
890.98	-37.2
891.151	-0.34
891.323	5.8
891.494	-22.87
891.665	-45.4
891.836	-31.06
892.007	-20.82
892.178	95.91
892.349	83.63
892.52	5.8
892.691	81.58
892.862	22.19
893.032	-37.2
893.203	26.28
893.374	-4.44
893.545	7.85
893.716	16.04
893.887	83.63
894.057	24.23
894.228	-37.2
894.399	-26.96
894.57	54.95
894.74	16.04
894.911	77.48
895.082	57
895.253	20.14
895.423	-90.45
895.594	20.14
895.764	-12.63
895.935	-14.68
896.106	63.15
896.276	59.05
896.447	38.57
896.617	9.9
896.788	-51.54
896.958	-6.49
897.129	-43.35
897.299	-12.63
897.47	22.19
897.64	-6.49
897.81	3.75
897.981	69.29
898.151	-22.87
898.322	20.14
898.492	1.71
898.662	18.09
898.832	-4.44
899.003	-10.58
899.173	-63.83
899.343	85.67
899.513	-20.82
