Data from USB4F104151__17__13-52-30-903.txt Node

Date: Thu Mar 13 13:52:30 EDT 2025
User: louis
Spectrometer: USB4F10415
Trigger mode: 4
Integration Time (sec): 1.000000E-2
Scans to average: 1
Electric dark correction enabled: true
Nonlinearity correction enabled: false
Boxcar width: 0
XAxis mode: Wavelengths
Number of Pixels in Spectrum: 3648
>>>>>Begin Spectral Data<<<<<
178.204	-39.76
178.424	-39.76
178.644	-39.76
178.864	-54.1
179.084	-50
179.304	-25.43
179.524	-47.96
179.744	-0.85
179.964	36.01
180.184	13.48
180.404	-19.29
180.624	48.3
180.844	-0.85
181.064	29.87
181.283	-29.52
181.503	15.53
181.723	-19.29
181.943	-15.19
182.163	33.96
182.383	-29.52
182.602	-23.38
182.822	25.77
183.042	-11.09
183.262	-33.62
183.482	7.34
183.701	19.63
183.921	58.54
184.141	-13.14
184.361	-2.9
184.58	7.34
184.8	-27.48
185.02	-35.67
185.239	64.68
185.459	-99.16
185.679	79.02
185.898	-27.48
186.118	60.59
186.338	-29.52
186.557	-13.14
186.777	-33.62
186.997	19.63
187.216	-37.72
187.436	-0.85
187.655	-4.95
187.875	11.43
188.095	-23.38
188.314	7.34
188.534	27.82
188.753	-27.48
188.973	87.21
189.192	-23.38
189.412	-25.43
189.631	31.91
189.851	-43.86
190.07	-21.33
190.29	1.19
190.509	68.78
190.729	25.77
190.948	56.49
191.168	29.87
191.387	23.72
191.607	-0.85
191.826	19.63
192.045	70.83
192.265	-4.95
192.484	-47.96
192.704	33.96
192.923	-9.05
193.142	91.31
193.362	1.19
193.581	-68.44
193.8	38.06
194.02	-19.29
194.239	7.34
194.458	68.78
194.678	5.29
194.897	-25.43
195.116	79.02
195.335	101.55
195.555	13.48
195.774	17.58
195.993	-27.48
196.212	-9.05
196.432	-33.62
196.651	-9.05
196.87	-35.67
197.089	-25.43
197.308	-54.1
197.528	-7
197.747	56.49
197.966	-2.9
198.185	52.39
198.404	5.29
198.623	11.43
198.842	-9.05
199.062	21.67
199.281	66.73
199.5	54.44
199.719	33.96
199.938	1.19
200.157	-29.52
200.376	3.24
200.595	50.35
200.814	-19.29
201.033	17.58
201.252	76.97
201.471	21.67
201.69	70.83
201.909	-17.24
202.128	-52.05
202.347	23.72
202.566	19.63
202.785	19.63
203.004	3.24
203.223	5.29
203.442	68.78
203.661	-0.85
203.879	36.01
204.098	-19.29
204.317	50.35
204.536	11.43
204.755	-11.09
204.974	17.58
205.193	-9.05
205.411	-2.9
205.63	-0.85
205.849	25.77
206.068	40.11
206.287	7.34
206.505	-25.43
206.724	-31.57
206.943	66.73
207.162	89.26
207.381	-7
207.599	-62.29
207.818	13.48
208.037	-4.95
208.255	23.72
208.474	-31.57
208.693	25.77
208.911	17.58
209.13	-31.57
209.349	25.77
209.567	-47.96
209.786	-58.2
210.005	21.67
210.223	-41.81
210.442	-19.29
210.661	11.43
210.879	48.3
211.098	3.24
211.316	-33.62
211.535	23.72
211.753	-35.67
211.972	19.63
212.191	13.48
212.409	48.3
212.628	-76.63
212.846	58.54
213.065	1.19
213.283	13.48
213.502	-35.67
213.72	-45.91
213.938	-0.85
214.157	46.25
214.375	-33.62
214.594	29.87
214.812	7.34
215.031	62.63
215.249	-9.05
215.467	74.92
215.686	23.72
215.904	54.44
216.122	9.39
216.341	38.06
216.559	21.67
216.778	23.72
216.996	5.29
217.214	-4.95
217.432	56.49
217.651	17.58
217.869	23.72
218.087	29.87
218.306	23.72
218.524	-15.19
218.742	44.2
218.96	13.48
219.179	19.63
219.397	58.54
219.615	103.59
219.833	3.24
220.051	50.35
220.27	-31.57
220.488	40.11
220.706	50.35
220.924	-25.43
221.142	36.01
221.36	33.96
221.578	29.87
221.796	5.29
222.015	62.63
222.233	-0.85
222.451	17.58
222.669	-11.09
222.887	58.54
223.105	3.24
223.323	85.16
223.541	36.01
223.759	33.96
223.977	15.53
224.195	23.72
224.413	5.29
224.631	25.77
224.849	50.35
225.067	21.67
225.285	-7
225.503	-9.05
225.721	-47.96
225.939	33.96
226.157	27.82
226.375	33.96
226.592	9.39
226.81	36.01
227.028	64.68
227.246	29.87
227.464	21.67
227.682	38.06
227.9	31.91
228.117	54.44
228.335	27.82
228.553	38.06
228.771	17.58
228.989	19.63
229.206	60.59
229.424	-9.05
229.642	25.77
229.86	-9.05
230.077	38.06
230.295	3.24
230.513	-45.91
230.731	-29.52
230.948	15.53
231.166	52.39
231.384	-2.9
231.601	50.35
231.819	46.25
232.037	44.2
232.254	50.35
232.472	42.15
232.689	-7
232.907	33.96
233.125	19.63
233.342	42.15
233.56	44.2
233.777	-15.19
233.995	-15.19
234.213	60.59
234.43	-9.05
234.648	21.67
234.865	50.35
235.083	44.2
235.3	-27.48
235.518	19.63
235.735	1.19
235.953	72.87
236.17	-0.85
236.388	56.49
236.605	40.11
236.822	-19.29
237.04	9.39
237.257	85.16
237.475	9.39
237.692	-13.14
237.909	-4.95
238.127	21.67
238.344	-0.85
238.562	72.87
238.779	-78.68
238.996	3.24
239.214	-0.85
239.431	7.34
239.648	42.15
239.865	50.35
240.083	13.48
240.3	38.06
240.517	40.11
240.735	50.35
240.952	52.39
241.169	-54.1
241.386	17.58
241.603	23.72
241.821	-2.9
242.038	60.59
242.255	-19.29
242.472	-27.48
242.689	1.19
242.907	150.7
243.124	7.34
243.341	13.48
243.558	-19.29
243.775	38.06
243.992	29.87
244.209	-7
244.426	9.39
244.643	70.83
244.86	40.11
245.078	15.53
245.295	60.59
245.512	31.91
245.729	-27.48
245.946	48.3
246.163	56.49
246.38	23.72
246.597	9.39
246.814	23.72
247.031	25.77
247.248	-7
247.464	15.53
247.681	33.96
247.898	95.4
248.115	11.43
248.332	58.54
248.549	21.67
248.766	3.24
248.983	40.11
249.2	11.43
249.417	5.29
249.633	-45.91
249.85	-23.38
250.067	79.02
250.284	-23.38
250.501	36.01
250.717	5.29
250.934	-21.33
251.151	5.29
251.368	40.11
251.585	27.82
251.801	-27.48
252.018	-9.05
252.235	-41.81
252.451	-19.29
252.668	89.26
252.885	15.53
253.102	31.91
253.318	42.15
253.535	1.19
253.752	-7
253.968	42.15
254.185	-41.81
254.401	21.67
254.618	11.43
254.835	23.72
255.051	56.49
255.268	64.68
255.484	1.19
255.701	38.06
255.917	54.44
256.134	72.87
256.351	56.49
256.567	50.35
256.784	95.4
257	56.49
257.217	23.72
257.433	17.58
257.65	13.48
257.866	7.34
258.082	93.35
258.299	17.58
258.515	-15.19
258.732	46.25
258.948	46.25
259.165	64.68
259.381	-11.09
259.597	40.11
259.814	46.25
260.03	29.87
260.246	15.53
260.463	-35.67
260.679	-47.96
260.895	-11.09
261.112	19.63
261.328	-39.76
261.544	-0.85
261.761	-39.76
261.977	-23.38
262.193	-66.39
262.409	19.63
262.626	-2.9
262.842	5.29
263.058	40.11
263.274	-37.72
263.49	-9.05
263.707	50.35
263.923	-11.09
264.139	87.21
264.355	-7
264.571	68.78
264.787	17.58
265.004	50.35
265.22	-2.9
265.436	-7
265.652	58.54
265.868	11.43
266.084	42.15
266.3	81.07
266.516	42.15
266.732	-17.24
266.948	-31.57
267.164	23.72
267.38	23.72
267.596	-2.9
267.812	89.26
268.028	9.39
268.244	-29.52
268.46	5.29
268.676	-39.76
268.892	-19.29
269.108	58.54
269.324	-27.48
269.54	5.29
269.756	29.87
269.972	-35.67
270.188	42.15
270.403	-2.9
270.619	13.48
270.835	-27.48
271.051	54.44
271.267	36.01
271.483	38.06
271.698	-33.62
271.914	-2.9
272.13	-25.43
272.346	-33.62
272.562	11.43
272.777	23.72
272.993	-27.48
273.209	46.25
273.425	-15.19
273.64	-0.85
273.856	-21.33
274.072	60.59
274.287	13.48
274.503	72.87
274.719	-13.14
274.934	27.82
275.15	25.77
275.366	-7
275.581	-31.57
275.797	76.97
276.012	-21.33
276.228	46.25
276.444	23.72
276.659	99.5
276.875	-11.09
277.09	25.77
277.306	-39.76
277.521	36.01
277.737	-39.76
277.952	-43.86
278.168	13.48
278.383	-9.05
278.599	1.19
278.814	21.67
279.03	9.39
279.245	15.53
279.461	-62.29
279.676	17.58
279.892	19.63
280.107	52.39
280.322	17.58
280.538	-2.9
280.753	5.29
280.969	11.43
281.184	-23.38
281.399	46.25
281.615	54.44
281.83	29.87
282.045	58.54
282.26	27.82
282.476	31.91
282.691	33.96
282.906	19.63
283.122	21.67
283.337	33.96
283.552	-2.9
283.767	-7
283.983	44.2
284.198	17.58
284.413	42.15
284.628	-29.52
284.843	-35.67
285.058	7.34
285.274	-29.52
285.489	1.19
285.704	54.44
285.919	-19.29
286.134	-27.48
286.349	-2.9
286.564	-4.95
286.779	29.87
286.995	81.07
287.21	-21.33
287.425	111.78
287.64	-11.09
287.855	74.92
288.07	-2.9
288.285	13.48
288.5	-7
288.715	11.43
288.93	62.63
289.145	81.07
289.36	40.11
289.575	19.63
289.79	-4.95
290.004	-11.09
290.219	33.96
290.434	33.96
290.649	9.39
290.864	46.25
291.079	-29.52
291.294	33.96
291.509	21.67
291.724	52.39
291.938	38.06
292.153	33.96
292.368	-72.53
292.583	62.63
292.798	21.67
293.012	44.2
293.227	97.45
293.442	29.87
293.657	-17.24
293.871	62.63
294.086	81.07
294.301	50.35
294.516	13.48
294.73	54.44
294.945	-13.14
295.16	31.91
295.374	50.35
295.589	-25.43
295.804	27.82
296.018	-39.76
296.233	38.06
296.447	5.29
296.662	-64.34
296.877	81.07
297.091	40.11
297.306	29.87
297.52	-25.43
297.735	70.83
297.949	29.87
298.164	70.83
298.378	83.11
298.593	44.2
298.807	70.83
299.022	46.25
299.236	-4.95
299.451	9.39
299.665	79.02
299.88	66.73
300.094	42.15
300.309	27.82
300.523	-35.67
300.737	17.58
300.952	42.15
301.166	-15.19
301.381	50.35
301.595	72.87
301.809	52.39
302.024	5.29
302.238	50.35
302.452	-0.85
302.667	19.63
302.881	-31.57
303.095	46.25
303.309	-11.09
303.524	68.78
303.738	38.06
303.952	97.45
304.166	3.24
304.381	13.48
304.595	83.11
304.809	36.01
305.023	13.48
305.237	19.63
305.452	27.82
305.666	83.11
305.88	31.91
306.094	56.49
306.308	48.3
306.522	54.44
306.736	23.72
306.95	-19.29
307.164	91.31
307.379	-2.9
307.593	-0.85
307.807	-2.9
308.021	64.68
308.235	21.67
308.449	15.53
308.663	15.53
308.877	-11.09
309.091	42.15
309.305	-17.24
309.519	-9.05
309.733	13.48
309.947	119.98
310.161	60.59
310.374	97.45
310.588	83.11
310.802	38.06
311.016	-52.05
311.23	87.21
311.444	-23.38
311.658	7.34
311.872	83.11
312.085	68.78
312.299	-25.43
312.513	83.11
312.727	50.35
312.941	50.35
313.154	36.01
313.368	11.43
313.582	29.87
313.796	36.01
314.009	31.91
314.223	29.87
314.437	56.49
314.651	-35.67
314.864	-43.86
315.078	40.11
315.292	-13.14
315.505	52.39
315.719	62.63
315.933	44.2
316.146	19.63
316.36	25.77
316.573	46.25
316.787	-37.72
317.001	5.29
317.214	27.82
317.428	36.01
317.641	-4.95
317.855	72.87
318.068	17.58
318.282	58.54
318.495	11.43
318.709	36.01
318.922	50.35
319.136	-15.19
319.349	17.58
319.563	40.11
319.776	42.15
319.99	36.01
320.203	68.78
320.417	31.91
320.63	56.49
320.843	9.39
321.057	15.53
321.27	29.87
321.483	42.15
321.697	79.02
321.91	-9.05
322.124	5.29
322.337	-19.29
322.55	111.78
322.763	-52.05
322.977	31.91
323.19	25.77
323.403	-11.09
323.617	-13.14
323.83	21.67
324.043	15.53
324.256	-9.05
324.469	-2.9
324.683	42.15
324.896	19.63
325.109	9.39
325.322	-9.05
325.535	40.11
325.748	46.25
325.962	13.48
326.175	11.43
326.388	109.74
326.601	68.78
326.814	74.92
327.027	93.35
327.24	23.72
327.453	19.63
327.666	93.35
327.879	25.77
328.092	62.63
328.305	-35.67
328.518	33.96
328.731	46.25
328.944	62.63
329.157	54.44
329.37	60.59
329.583	66.73
329.796	11.43
330.009	58.54
330.222	79.02
330.435	3.24
330.648	-35.67
330.861	70.83
331.073	113.83
331.286	33.96
331.499	3.24
331.712	99.5
331.925	-31.57
332.138	62.63
332.35	52.39
332.563	-21.33
332.776	-9.05
332.989	-25.43
333.202	-2.9
333.414	50.35
333.627	76.97
333.84	19.63
334.053	54.44
334.265	21.67
334.478	42.15
334.691	27.82
334.903	29.87
335.116	-31.57
335.329	33.96
335.541	-2.9
335.754	50.35
335.966	56.49
336.179	42.15
336.392	-41.81
336.604	-19.29
336.817	19.63
337.029	72.87
337.242	50.35
337.454	9.39
337.667	-15.19
337.88	1.19
338.092	1.19
338.305	-9.05
338.517	1.19
338.729	64.68
338.942	74.92
339.154	5.29
339.367	5.29
339.579	29.87
339.792	-2.9
340.004	19.63
340.217	11.43
340.429	60.59
340.641	15.53
340.854	17.58
341.066	-43.86
341.278	89.26
341.491	31.91
341.703	33.96
341.915	33.96
342.128	89.26
342.34	91.31
342.552	44.2
342.764	17.58
342.977	42.15
343.189	56.49
343.401	83.11
343.613	29.87
343.826	15.53
344.038	3.24
344.25	48.3
344.462	60.59
344.674	58.54
344.886	36.01
345.099	-11.09
345.311	-25.43
345.523	27.82
345.735	13.48
345.947	60.59
346.159	56.49
346.371	9.39
346.583	40.11
346.795	54.44
347.007	-0.85
347.219	52.39
347.431	19.63
347.643	-0.85
347.855	-7
348.067	31.91
348.279	27.82
348.491	3.24
348.703	17.58
348.915	46.25
349.127	31.91
349.339	-7
349.551	70.83
349.763	3.24
349.975	31.91
350.187	105.64
350.399	36.01
350.61	117.93
350.822	79.02
351.034	19.63
351.246	25.77
351.458	38.06
351.669	56.49
351.881	58.54
352.093	70.83
352.305	21.67
352.517	56.49
352.728	40.11
352.94	-0.85
353.152	83.11
353.363	-80.72
353.575	42.15
353.787	38.06
353.999	40.11
354.21	68.78
354.422	21.67
354.633	54.44
354.845	107.69
355.057	25.77
355.268	23.72
355.48	62.63
355.692	23.72
355.903	54.44
356.115	40.11
356.326	19.63
356.538	74.92
356.749	68.78
356.961	70.83
357.172	40.11
357.384	-25.43
357.595	74.92
357.807	27.82
358.018	19.63
358.23	13.48
358.441	13.48
358.653	29.87
358.864	124.07
359.075	-31.57
359.287	-11.09
359.498	89.26
359.709	25.77
359.921	46.25
360.132	33.96
360.344	91.31
360.555	1.19
360.766	31.91
360.977	54.44
361.189	19.63
361.4	29.87
361.611	17.58
361.823	56.49
362.034	-29.52
362.245	19.63
362.456	54.44
362.667	66.73
362.879	50.35
363.09	48.3
363.301	29.87
363.512	-47.96
363.723	11.43
363.935	56.49
364.146	74.92
364.357	33.96
364.568	79.02
364.779	36.01
364.99	40.11
365.201	74.92
365.412	74.92
365.623	83.11
365.834	36.01
366.045	-21.33
366.256	74.92
366.467	-54.1
366.678	60.59
366.889	91.31
367.1	85.16
367.311	50.35
367.522	79.02
367.733	83.11
367.944	48.3
368.155	33.96
368.366	48.3
368.577	17.58
368.788	36.01
368.999	23.72
369.209	48.3
369.42	29.87
369.631	109.74
369.842	7.34
370.053	11.43
370.264	79.02
370.474	62.63
370.685	62.63
370.896	62.63
371.107	27.82
371.317	25.77
371.528	-17.24
371.739	21.67
371.95	25.77
372.16	68.78
372.371	-17.24
372.582	-4.95
372.792	-21.33
373.003	130.22
373.214	72.87
373.424	-56.15
373.635	-7
373.846	38.06
374.056	-19.29
374.267	74.92
374.477	54.44
374.688	21.67
374.898	83.11
375.109	70.83
375.319	11.43
375.53	23.72
375.74	38.06
375.951	-43.86
376.161	31.91
376.372	44.2
376.582	11.43
376.793	70.83
377.003	150.7
377.214	68.78
377.424	-11.09
377.635	58.54
377.845	95.4
378.055	44.2
378.266	93.35
378.476	60.59
378.686	60.59
378.897	115.88
379.107	36.01
379.317	33.96
379.528	68.78
379.738	70.83
379.948	-2.9
380.158	79.02
380.369	5.29
380.579	40.11
380.789	50.35
380.999	91.31
381.21	66.73
381.42	7.34
381.63	89.26
381.84	76.97
382.05	7.34
382.261	62.63
382.471	95.4
382.681	7.34
382.891	31.91
383.101	-0.85
383.311	13.48
383.521	17.58
383.731	68.78
383.941	27.82
384.151	-29.52
384.361	44.2
384.571	76.97
384.781	7.34
384.991	5.29
385.201	115.88
385.411	103.59
385.621	70.83
385.831	33.96
386.041	25.77
386.251	50.35
386.461	17.58
386.671	122.02
386.881	46.25
387.091	-7
387.301	107.69
387.511	66.73
387.72	70.83
387.93	87.21
388.14	-4.95
388.35	52.39
388.56	44.2
388.769	72.87
388.979	60.59
389.189	103.59
389.399	130.22
389.609	25.77
389.818	93.35
390.028	87.21
390.238	31.91
390.447	50.35
390.657	36.01
390.867	31.91
391.076	13.48
391.286	31.91
391.496	70.83
391.705	95.4
391.915	17.58
392.125	85.16
392.334	83.11
392.544	-23.38
392.753	48.3
392.963	21.67
393.172	46.25
393.382	-2.9
393.591	103.59
393.801	44.2
394.01	107.69
394.22	81.07
394.429	48.3
394.639	99.5
394.848	44.2
395.058	-2.9
395.267	58.54
395.477	95.4
395.686	113.83
395.895	74.92
396.105	85.16
396.314	40.11
396.524	89.26
396.733	76.97
396.942	95.4
397.152	70.83
397.361	83.11
397.57	103.59
397.78	83.11
397.989	142.5
398.198	105.64
398.407	52.39
398.617	111.78
398.826	130.22
399.035	87.21
399.244	83.11
399.453	142.5
399.663	109.74
399.872	128.17
400.081	79.02
400.29	138.41
400.499	132.26
400.708	79.02
400.917	81.07
401.127	60.59
401.336	146.6
401.545	56.49
401.754	124.07
401.963	158.89
402.172	66.73
402.381	83.11
402.59	128.17
402.799	25.77
403.008	134.31
403.217	81.07
403.426	160.94
403.635	142.5
403.844	119.98
404.053	154.79
404.262	154.79
404.471	107.69
404.68	124.07
404.888	136.36
405.097	58.54
405.306	167.08
405.515	160.94
405.724	136.36
405.933	167.08
406.142	193.7
406.35	165.03
406.559	138.41
406.768	265.38
406.977	191.66
407.185	158.89
407.394	156.84
407.603	199.85
407.812	214.18
408.02	228.52
408.229	228.52
408.438	226.47
408.646	218.28
408.855	273.57
409.064	287.91
409.272	242.85
409.481	253.09
409.69	322.73
409.898	310.44
410.107	230.57
410.315	277.67
410.524	414.88
410.733	332.97
410.941	332.97
411.15	457.89
411.358	373.92
411.567	418.98
411.775	414.88
411.984	474.28
412.192	414.88
412.401	400.55
412.609	423.08
412.818	394.4
413.026	478.37
413.234	591.01
413.443	470.18
413.651	580.77
413.86	541.86
414.068	623.78
414.276	644.26
414.485	650.4
414.693	691.36
414.901	750.75
415.11	660.64
415.318	679.07
415.526	801.95
415.734	717.98
415.943	781.47
416.151	842.91
416.359	883.87
416.567	877.73
416.776	935.07
416.984	926.88
417.192	941.21
417.4	982.17
417.608	1021.08
417.817	1090.71
418.025	1141.91
418.233	1293.46
418.441	1193.11
418.649	1283.22
418.857	1377.43
419.065	1334.42
419.273	1365.14
419.481	1442.96
419.689	1490.07
419.897	1526.93
420.105	1629.33
420.313	1680.53
420.521	1696.91
420.729	1719.44
420.937	1741.97
421.145	1789.07
421.353	1852.56
421.561	1993.87
421.769	2028.68
421.977	2239.62
422.185	2221.19
422.393	2215.05
422.601	2342.02
422.809	2339.97
423.017	2382.98
423.224	2530.44
423.432	2673.79
423.64	2591.88
423.848	2743.42
424.056	2788.48
424.263	3069.05
424.471	2964.61
424.679	2921.6
424.887	3282.04
425.094	3404.92
425.302	3310.71
425.51	3535.99
425.718	3478.65
425.925	3624.05
426.133	3716.21
426.341	3918.96
426.548	4019.31
426.756	4134
426.964	4156.52
427.171	4385.9
427.379	4529.25
427.586	4539.49
427.794	4639.84
428.001	4934.75
428.209	5217.37
428.417	5178.46
428.624	5483.61
428.832	5504.09
429.039	5368.92
429.247	5301.34
429.454	5956.69
429.662	6130.77
429.869	5809.23
430.076	6220.88
430.284	6196.3
430.491	6452.3
430.699	6794.31
430.906	6794.31
431.114	6863.94
431.321	7142.46
431.528	7312.44
431.736	7672.89
431.943	8006.7
432.15	7918.64
432.358	7935.03
432.565	8354.86
432.772	8426.54
432.979	8889.38
433.187	8938.53
433.394	8932.39
433.601	9579.54
433.808	9690.13
434.016	9514.01
434.223	9962.51
434.43	10521.61
434.637	10308.62
434.844	10902.53
435.052	11365.37
435.259	11099.14
435.466	11312.13
435.673	11377.66
435.88	11936.76
436.087	12495.85
436.294	12547.05
436.501	12192.75
436.708	12573.67
436.915	12725.22
437.122	13487.07
437.329	13429.73
437.537	13657.05
437.743	14035.92
437.95	14007.25
438.157	14584.78
438.364	15268.8
438.571	15408.06
438.778	15283.14
438.985	16735.15
439.192	16047.03
439.399	16352.18
439.606	16087.99
439.813	17124.26
440.02	18029.46
440.227	17933.21
440.433	17593.25
440.64	18623.37
440.847	18103.19
441.054	18699.15
441.261	19563.39
441.467	19379.07
441.674	20091.77
441.881	20487.03
442.088	20675.44
442.294	20458.35
442.501	20837.23
442.708	21357.41
442.914	22076.25
443.121	23143.24
443.328	22498.13
443.534	24281.91
443.741	23448.39
443.948	23030.6
444.154	24957.74
444.361	24804.14
444.568	24881.97
444.774	24914.73
444.981	25228.07
445.187	26235.67
445.394	27038.48
445.6	26718.99
445.807	29500.14
446.013	28162.81
446.22	28494.58
446.426	29776.61
446.633	30085.86
446.839	30948.05
447.046	29696.74
447.252	31328.97
447.459	31331.02
447.665	31247.05
447.871	32588.47
448.078	34050.72
448.284	32082.63
448.491	33186.48
448.697	34241.18
448.903	35148.43
449.11	35281.55
449.316	34566.81
449.522	35445.39
449.728	35951.24
449.935	36194.95
450.141	36293.25
450.347	36600.44
450.553	35904.13
450.76	36330.11
450.966	37626.48
451.172	36756.09
451.378	37751.4
451.584	36938.36
451.791	37810.79
451.997	37876.33
452.203	38498.91
452.409	38238.82
452.615	38681.18
452.821	36792.95
453.027	36346.5
453.233	38402.66
453.44	36950.65
453.646	37345.9
453.852	37618.28
454.058	38287.97
454.264	36418.17
454.47	37368.43
454.676	36442.75
454.882	37671.53
455.088	34327.2
455.294	34728.6
455.5	35306.13
455.705	35803.78
455.911	34063.01
456.117	33862.31
456.323	33020.59
456.529	31326.92
456.735	32764.6
456.941	31933.12
457.147	31245.01
457.352	30378.72
457.558	30333.66
457.764	30075.62
457.97	29575.91
458.176	28955.38
458.381	29086.45
458.587	27384.58
458.793	27755.27
458.999	26219.29
459.204	28050.17
459.41	27075.34
459.616	25240.36
459.821	25342.76
460.027	25107.24
460.233	24582.96
460.438	23364.42
460.644	23995.2
460.85	22537.04
461.055	22395.73
461.261	22416.21
461.466	20745.07
461.672	20120.44
461.878	21324.65
462.083	20138.87
462.289	19782.52
462.494	19504
462.7	18613.13
462.905	18154.39
463.111	18684.81
463.316	19078.02
463.522	18506.64
463.727	18586.51
463.932	18629.52
464.138	18467.73
464.343	18254.74
464.549	17820.57
464.754	18416.53
464.959	18451.35
465.165	18314.13
465.37	17445.79
465.575	16925.61
465.781	17703.84
465.986	17732.51
466.191	17085.35
466.397	16651.18
466.602	15815.61
466.807	16706.48
467.012	16694.19
467.218	16399.28
467.423	16425.9
467.628	16255.92
467.833	17011.62
468.038	16591.79
468.244	16057.27
468.449	16683.95
468.654	16270.26
468.859	16024.5
469.064	16071.61
469.269	15320
469.474	15360.96
469.679	15809.47
469.885	15047.62
470.09	15489.98
470.295	15184.83
470.5	14873.54
470.705	14855.11
470.91	14511.05
471.115	14341.07
471.32	14773.19
471.525	14719.95
471.73	14105.56
471.935	14218.19
472.139	13827.03
472.344	13915.09
472.549	13677.53
472.754	13804.5
472.959	13392.86
473.164	13149.15
473.369	13050.85
473.574	13329.38
473.778	13259.74
473.983	13396.96
474.188	13018.08
474.393	12454.89
474.598	12626.92
474.802	12542.96
475.007	12524.52
475.212	12405.74
475.417	12149.75
475.621	11770.87
475.826	12020.72
476.031	11645.94
476.235	11271.17
476.44	11809.78
476.645	11365.37
476.849	11625.47
477.054	11406.33
477.259	11142.14
477.463	11246.59
477.668	10998.79
477.872	11103.23
478.077	10806.28
478.282	10681.35
478.486	10537.99
478.691	10507.27
478.895	10585.1
479.1	10535.95
479.304	10343.44
479.509	9919.51
479.713	10265.61
479.918	10099.73
480.122	9882.64
480.326	10226.7
480.531	10077.2
480.735	10050.58
480.94	9817.11
481.144	10036.24
481.348	9632.79
481.553	9681.94
481.757	9737.24
481.961	9749.53
482.166	9686.04
482.37	9747.48
482.574	9573.4
482.778	9794.58
482.983	9939.99
483.187	9702.42
483.391	9640.98
483.595	9597.98
483.8	9503.77
484.004	9569.3
484.208	9753.62
484.412	9630.74
484.616	9673.75
484.821	9604.12
485.025	9403.42
485.229	9770.01
485.433	9557.02
485.637	9550.87
485.841	9667.61
486.045	9507.87
486.249	9452.57
486.453	9401.37
486.657	9643.03
486.861	9749.53
487.065	9479.19
487.269	9497.63
487.473	9432.09
487.677	9710.61
487.881	9491.48
488.085	9585.69
488.289	9554.97
488.493	9577.5
488.697	9600.02
488.901	9657.37
489.105	9696.28
489.309	9669.66
489.512	9841.68
489.716	9995.28
489.92	9722.9
490.124	9657.37
490.328	9839.64
490.531	9825.3
490.735	9933.84
490.939	9747.48
491.143	9751.57
491.346	9778.2
491.55	10208.27
491.754	10052.63
491.958	10144.78
492.161	10163.22
492.365	10241.04
492.569	10171.41
492.772	10173.46
492.976	10378.25
493.18	10439.69
493.383	10681.35
493.587	10560.52
493.79	10619.91
493.994	10468.36
494.197	10646.54
494.401	10781.7
494.605	10595.34
494.808	10953.73
495.012	10947.59
495.215	10955.78
495.419	11074.56
495.622	11195.39
495.825	11410.43
496.029	11426.81
496.232	11629.56
496.436	11547.64
496.639	11738.1
496.843	11580.41
497.046	11981.81
497.249	12028.92
497.453	12350.45
497.656	12200.94
497.859	12448.75
498.063	12362.73
498.266	13050.85
498.469	12651.5
498.673	12801
498.876	13224.93
499.079	13243.36
499.282	13222.88
499.485	13390.81
499.689	13591.52
499.892	13523.93
500.095	13906.9
500.298	14343.12
500.501	14066.64
500.705	14453.71
500.908	14523.34
501.111	14771.15
501.314	14875.59
501.517	15031.24
501.72	15086.53
501.923	15201.22
502.126	15330.24
502.329	15758.27
502.532	15946.68
502.735	15836.09
502.938	16544.69
503.141	16214.96
503.344	16614.32
503.547	16651.18
503.75	17038.25
503.953	17243.04
504.156	17492.9
504.359	17623.97
504.562	17634.21
504.765	18256.79
504.968	17998.74
505.17	18525.07
505.373	18375.57
505.576	18844.56
505.779	19135.37
505.982	19518.34
506.185	19528.58
506.387	19762.05
506.59	19827.58
506.793	20396.92
506.996	20243.32
507.198	20921.2
507.401	20712.3
507.604	21003.11
507.807	21439.33
508.009	21699.42
508.212	21908.32
508.415	22098.78
508.617	22514.52
508.82	22606.67
509.022	22455.12
509.225	23118.67
509.428	23223.11
509.63	23544.64
509.833	23780.16
510.035	24496.95
510.238	24042.3
510.44	24392.5
510.643	24623.92
510.845	25408.29
511.048	25242.41
511.25	25738.02
511.453	25856.8
511.655	26602.26
511.858	26170.14
512.06	26909.46
512.262	27136.78
512.465	27040.53
512.667	27493.13
512.87	27785.99
513.072	28007.17
513.274	28289.79
513.477	28828.4
513.679	29219.56
513.881	29608.68
514.084	29840.1
514.286	29811.43
514.488	30302.94
514.69	31009.49
514.893	30735.06
515.095	31163.09
515.297	31435.47
515.499	31832.77
515.701	32090.82
515.904	32383.68
516.106	33340.08
516.308	33192.62
516.51	33317.55
516.712	33647.27
516.914	34370.21
517.116	34816.66
517.318	34724.5
517.52	35119.76
517.722	35469.97
517.925	35904.13
518.127	36377.22
518.329	36371.07
518.531	36420.22
518.733	37452.4
518.935	37440.11
519.136	37677.68
519.338	38199.91
519.54	38216.29
519.742	38414.94
519.944	38705.76
520.146	39670.35
520.348	39551.57
520.55	40022.6
520.752	40284.74
520.954	40700.48
521.155	40649.28
521.357	41196.09
521.559	41601.58
521.761	42347.04
521.963	41898.54
522.164	42592.8
522.366	42406.44
522.568	42986.01
522.77	43317.78
522.971	43842.06
523.173	43477.52
523.375	43784.72
523.576	44198.41
523.778	44116.49
523.98	45074.94
524.181	45257.21
524.383	45464.05
524.584	45787.63
524.786	46098.92
524.988	45806.06
525.189	46328.3
525.391	46412.26
525.592	47165.91
525.794	47186.39
525.995	47202.78
526.197	47401.43
526.398	47454.68
526.6	47718.87
526.801	48234.95
527.003	48658.88
527.204	47944.14
527.406	48470.47
527.607	48869.82
527.808	49158.59
528.01	48558.53
528.211	48601.54
528.412	49928.62
528.614	49590.71
528.815	49664.44
529.016	50084.27
529.218	49480.12
529.419	49945.01
529.62	49519.03
529.822	49867.19
530.023	49947.06
530.224	50248.11
530.425	50260.4
530.626	50094.51
530.828	50108.85
531.029	51194.27
531.23	50348.46
531.431	50756
531.632	50946.47
531.833	51261.85
532.035	50850.21
532.236	50807.2
532.437	51417.5
532.638	50762.15
532.839	51358.11
533.04	51229.08
533.241	50860.45
533.442	51757.46
533.643	51216.8
533.844	51612.06
534.045	51435.93
534.246	50950.56
534.447	50962.85
534.648	51046.82
534.849	51716.5
535.05	51216.8
535.251	51749.27
535.451	51308.96
535.652	51538.33
535.853	51468.7
536.054	51712.41
536.255	51552.66
536.456	51388.83
536.657	52009.36
536.857	51493.27
537.058	51124.64
537.259	52058.51
537.46	51802.52
537.66	51767.7
537.861	51710.36
538.062	51509.66
538.263	51517.85
538.463	51603.86
538.664	51196.32
538.865	51906.96
539.065	51708.31
539.266	51093.92
539.466	52599.18
539.667	51087.78
539.868	51671.45
540.068	51403.16
540.269	51204.51
540.469	51499.42
540.67	51284.38
540.87	51284.38
541.071	51581.34
541.271	51655.06
541.472	51237.28
541.672	51517.85
541.873	50868.64
542.073	50672.04
542.274	51892.63
542.474	51448.22
542.675	50817.44
542.875	51739.03
543.075	51616.15
543.276	50504.1
543.476	51712.41
543.676	51440.03
543.877	51749.27
544.077	50872.74
544.277	51286.43
544.478	51483.03
544.678	51548.57
544.878	51476.89
545.078	51341.72
545.279	50895.27
545.479	51091.87
545.679	51478.94
545.879	51018.14
546.079	51247.52
546.28	51233.18
546.48	50831.78
546.68	51229.08
546.88	51753.36
547.08	51167.65
547.28	50895.27
547.48	51014.05
547.68	51382.68
547.88	51321.24
548.081	51382.68
548.281	51263.9
548.481	50794.92
548.681	51540.38
548.881	51071.39
549.081	51118.49
549.28	51077.54
549.48	51419.55
549.68	50719.14
549.88	51292.57
550.08	51016.1
550.28	51278.24
550.48	50641.32
550.68	51550.62
550.88	50948.51
551.08	51153.31
551.279	51257.76
551.479	50524.58
551.679	50786.72
551.879	50774.44
552.079	51343.77
552.278	50940.32
552.478	50905.51
552.678	50827.68
552.878	50993.57
553.077	50776.48
553.277	50829.73
553.477	51145.12
553.676	50973.09
553.876	50461.1
554.076	50743.72
554.275	50620.84
554.475	50098.61
554.674	50672.04
554.874	50530.73
555.074	50710.95
555.273	50510.25
555.473	50717.09
555.672	50155.95
555.872	50039.22
556.071	50475.43
556.271	50133.42
556.47	50055.6
556.67	49533.37
556.869	50622.89
557.068	50315.69
557.268	49646.01
557.467	49902
557.667	49787.31
557.866	50186.67
558.065	49349.05
558.265	49492.41
558.464	49578.42
558.663	50018.74
558.863	49174.97
559.062	50162.09
559.261	49281.47
559.461	49940.91
559.66	49310.14
559.859	49715.64
560.058	49109.44
560.258	49314.23
560.457	49070.53
560.656	48935.36
560.855	49099.2
561.054	49039.81
561.253	48402.89
561.453	49017.28
561.652	49160.64
561.851	48892.35
562.05	48755.14
562.249	48454.09
562.448	48902.59
562.647	48851.39
562.846	48587.21
563.045	48101.84
563.244	48226.76
563.443	48765.38
563.642	47583.7
563.841	48067.02
564.04	47813.07
564.239	48599.49
564.438	47636.95
564.637	47968.72
564.836	47958.48
565.035	47593.94
565.234	47575.51
565.432	47694.29
565.631	47514.07
565.83	47598.04
566.029	46967.26
566.228	47399.38
566.427	47417.82
566.625	46830.05
566.824	46539.24
567.023	47118.81
567.222	46395.88
567.42	47057.37
567.619	46737.89
567.818	46467.56
568.016	46393.83
568.215	47190.49
568.414	46447.08
568.612	46764.51
568.811	45984.24
569.01	46320.1
569.208	45742.58
569.407	46301.67
569.605	45767.15
569.804	46051.82
570.002	45203.96
570.201	45730.29
570.4	45521.4
570.598	45087.23
570.797	45019.64
570.995	45355.51
571.193	44347.91
571.392	45263.35
571.59	44712.45
571.789	44947.96
571.987	44472.84
572.186	44177.93
572.384	44648.96
572.582	44564.99
572.781	44579.33
572.979	43586.07
573.177	44055.05
573.376	44190.22
573.574	43692.56
573.772	43897.36
573.971	43385.36
574.169	43526.67
574.367	43526.67
574.565	43409.94
574.763	43403.8
574.962	42861.08
575.16	42592.8
575.358	43459.09
575.556	42086.95
575.754	43567.63
575.952	42469.92
576.151	42691.1
576.349	42203.69
576.547	42258.98
576.745	42449.44
576.943	42091.05
577.141	42060.33
577.339	41968.17
577.537	41454.13
577.735	41818.67
577.933	41296.44
578.131	41433.65
578.329	41294.39
578.527	40784.44
578.725	41255.48
578.923	41501.23
579.121	40913.47
579.319	40811.07
579.516	40960.57
579.714	40725.05
579.912	40692.29
580.11	40337.99
580.308	40645.18
580.506	39834.19
580.704	39854.67
580.901	40143.43
581.099	39991.88
581.297	39905.87
581.495	39631.44
581.692	39608.91
581.89	39473.74
582.088	39516.75
582.285	39271
582.483	39467.6
582.681	39156.31
582.878	38832.73
583.076	38558.3
583.274	38992.47
583.471	38318.69
583.669	38486.62
583.866	38613.6
584.064	38369.89
584.262	38169.19
584.459	38322.79
584.657	38204
584.854	38496.86
585.052	37812.84
585.249	37765.74
585.447	37954.15
585.644	37374.58
585.841	37472.88
586.039	37657.2
586.236	37003.89
586.434	37059.19
586.631	36835.96
586.828	37341.81
587.026	36967.03
587.223	36801.15
587.42	36704.89
587.618	36444.8
587.815	36100.74
588.012	36481.66
588.21	35863.18
588.407	36285.06
588.604	35824.26
588.801	35850.89
588.999	35732.11
589.196	35785.35
589.393	35582.6
589.59	35568.27
589.787	35369.61
589.984	35138.19
590.182	34980.5
590.379	35598.99
590.576	34781.85
590.773	34761.37
590.97	34548.38
591.167	34634.39
591.364	34615.96
591.561	34914.97
591.758	34341.53
591.955	34368.16
592.152	34640.54
592.349	34341.53
592.546	34052.77
592.743	34372.25
592.94	33901.22
593.137	34026.15
593.334	33764.01
593.531	33837.73
593.727	33348.27
593.924	33680.04
594.121	32914.1
594.318	33456.81
594.515	32877.24
594.712	33626.79
594.908	33016.5
595.105	33045.17
595.302	32848.57
595.499	32709.3
595.696	32666.3
595.892	32430.78
596.089	32426.68
596.286	32719.54
596.482	32348.86
596.679	32094.91
596.876	32344.77
597.072	32203.46
597.269	32246.46
597.466	31595.21
597.662	31914.69
597.859	31804.1
598.055	31797.96
598.252	31615.69
598.448	31298.25
598.645	31091.41
598.841	31126.22
599.038	31169.23
599.234	31312.59
599.431	31050.45
599.627	30593.75
599.824	30825.17
600.02	30309.08
600.217	30388.95
600.413	30460.63
600.609	30157.53
600.806	30327.52
601.002	30233.31
601.198	30214.88
601.395	30171.87
601.591	29926.11
601.787	29962.98
601.984	29762.28
602.18	30085.86
602.376	29641.45
602.572	29432.55
602.769	29625.06
602.965	29268.72
603.161	29209.32
603.357	29207.28
603.553	28867.31
603.75	29274.86
603.946	28736.24
604.142	28744.44
604.338	28441.34
604.534	28793.59
604.73	28261.12
604.926	28586.74
605.122	28484.34
605.318	28433.14
605.514	28097.28
605.71	27921.15
605.906	27835.14
606.102	27777.79
606.298	27374.34
606.494	27673.35
606.69	27673.35
606.886	27712.26
607.082	27204.36
607.278	27546.37
607.474	27208.46
607.67	27165.45
607.866	27001.61
608.062	27384.58
608.257	27104.01
608.453	27042.57
608.649	26995.47
608.845	26428.18
609.041	26659.6
609.236	26755.86
609.432	26538.77
609.628	26594.07
609.824	26311.45
610.019	26290.97
610.215	26221.34
610.411	26493.72
610.606	26102.56
610.802	26030.88
610.998	25881.38
611.193	25901.86
611.389	26020.64
611.584	25858.85
611.78	25801.5
611.976	25688.87
612.171	25525.03
612.367	25529.13
612.562	25584.42
612.758	25205.55
612.953	25043.76
613.149	25553.7
613.344	24998.7
613.539	25707.3
613.735	25217.83
613.93	25107.24
614.126	24988.46
614.321	25281.32
614.517	24980.27
614.712	24853.3
614.907	24480.57
615.103	24857.39
615.298	24894.25
615.493	25031.47
615.688	24339.26
615.884	24791.86
616.079	24128.31
616.274	24861.49
616.47	24343.35
616.665	24376.12
616.86	23851.84
617.055	24347.45
617.25	24187.71
617.445	24292.15
617.641	23472.96
617.836	24025.92
618.031	23608.13
618.226	24015.68
618.421	23626.56
618.616	23843.65
618.811	23503.68
619.006	23794.5
619.201	23243.59
619.396	23667.52
619.591	22989.64
619.786	23071.56
619.981	22840.14
620.176	23100.23
620.371	22518.61
620.566	22512.47
620.761	22717.26
620.956	22752.08
621.151	22324.05
621.346	22498.13
621.541	22143.83
621.735	22154.07
621.93	21863.26
622.125	21828.45
622.32	21674.85
622.515	21967.71
622.709	21373.8
622.904	21482.34
623.099	21279.59
623.294	21306.21
623.488	20874.09
623.683	20982.63
623.878	20718.45
624.072	20841.32
624.267	20837.23
624.462	20437.87
624.656	20353.91
624.851	20331.38
625.046	20247.41
625.24	20018.04
625.435	19852.16
625.629	20204.41
625.824	19788.67
626.018	19702.65
626.213	19096.46
626.407	19438.47
626.602	19026.82
626.796	19291.01
626.991	19069.83
627.185	19190.66
627.38	18834.32
627.574	18727.82
627.768	18494.35
627.963	18467.73
628.157	18295.7
628.352	18424.72
628.546	18152.34
628.74	18213.78
628.935	17888.15
629.129	17984.41
629.323	17843.1
629.517	17691.55
629.712	17785.76
629.906	17564.57
630.1	17333.15
630.294	17752.99
630.489	17343.39
630.683	17370.02
630.877	17001.38
631.071	17056.68
631.265	17093.54
631.459	16839.59
631.653	16757.67
631.848	16595.89
632.042	16450.48
632.236	16509.87
632.43	16518.06
632.624	16360.37
632.818	16350.13
633.012	16208.82
633.206	16124.85
633.4	16133.04
633.594	15997.88
633.788	15764.41
633.982	15852.47
634.176	15608.76
634.369	15369.15
634.563	15813.56
634.757	15653.82
634.951	15680.44
635.145	15543.23
635.339	15516.61
635.533	15162.31
635.726	15186.88
635.92	14670.79
636.114	14969.8
636.308	14918.6
636.501	14767.05
636.695	14762.95
636.889	14515.15
637.083	14527.44
637.276	14480.33
637.47	14595.02
637.664	14455.76
637.857	14410.7
638.051	14123.99
638.244	14056.4
638.438	14173.14
638.632	14044.12
638.825	13999.06
639.019	13972.44
639.212	13847.51
639.406	13736.92
639.599	13751.26
639.793	13431.77
639.986	13427.68
640.18	13321.18
640.373	13274.08
640.567	13196.26
640.76	13175.78
640.954	13261.79
641.147	12741.61
641.34	12934.12
641.534	12905.45
641.727	12950.5
641.92	12833.77
642.114	12798.95
642.307	12510.19
642.5	12411.89
642.694	12458.99
642.887	12348.4
643.08	12411.89
643.273	12348.4
643.467	12332.01
643.66	12133.36
643.853	12172.27
644.046	11848.69
644.239	12033.01
644.432	11881.46
644.626	11688.95
644.819	11518.97
645.012	11512.83
645.205	11453.44
645.398	11559.93
645.591	11568.12
645.784	11334.65
645.977	11250.69
646.17	11303.93
646.363	11033.6
646.556	10929.16
646.749	10714.12
646.942	10787.85
647.135	10947.59
647.328	10650.63
647.521	10843.14
647.714	10462.22
647.907	10585.1
648.099	10605.58
648.292	10611.72
648.485	10380.3
648.678	10310.67
648.871	10325.01
649.064	10144.78
649.256	10427.4
649.449	10105.87
649.642	10193.94
649.835	9999.38
650.027	10077.2
650.22	9966.61
650.413	9858.07
650.605	9698.33
650.798	9843.73
650.991	9831.44
651.183	9651.22
651.376	9643.03
651.568	9481.24
651.761	9434.14
651.954	9595.93
652.146	9335.84
652.339	9407.52
652.531	9071.65
652.724	9231.39
652.916	8913.95
653.109	9172
653.301	9081.89
653.494	9128.99
653.686	8936.48
653.879	8789.03
654.071	8758.31
654.263	8578.09
654.456	8809.51
654.648	8565.8
654.84	8582.18
655.033	8483.88
655.225	8530.98
655.417	8373.29
655.61	8520.74
655.802	8600.62
655.994	8311.85
656.186	8358.96
656.379	8377.39
656.571	8272.94
656.763	8043.57
656.955	8219.69
657.148	8002.61
657.34	7943.22
657.532	7943.22
657.724	7824.44
657.916	7998.51
658.108	7758.9
658.3	7558.2
658.492	7674.93
658.684	7537.72
658.876	7650.36
659.068	7519.29
659.26	7402.55
659.452	7400.51
659.644	7480.38
659.836	7355.45
660.028	7359.55
660.22	7203.9
660.412	7240.76
660.604	7007.3
660.796	7199.8
660.988	7134.27
661.18	7107.65
661.372	6931.52
661.563	6884.42
661.755	6708.29
661.947	7035.97
662.139	6808.64
662.331	6671.43
662.522	6646.85
662.714	6667.33
662.906	6597.7
663.097	6657.09
663.289	6353.99
663.481	6413.38
663.673	6489.16
663.864	6315.08
664.056	6321.23
664.247	6605.89
664.439	6290.51
664.631	6218.83
664.822	6151.24
665.014	6059.09
665.205	6126.67
665.397	6347.85
665.588	6095.95
665.78	6040.65
665.971	6098
666.163	6120.53
666.354	5807.19
666.546	5880.91
666.737	5764.18
666.929	5790.8
667.12	5887.06
667.311	5825.62
667.503	5616.72
667.694	5669.97
667.885	5596.25
668.077	5747.79
668.268	5631.06
668.459	5600.34
668.651	5573.72
668.842	5626.96
669.033	5499.99
669.224	5571.67
669.416	5383.26
669.607	5502.04
669.798	5307.48
669.989	5321.82
670.18	5213.28
670.371	5350.49
670.563	5166.17
670.754	5307.48
670.945	5135.45
671.136	5203.04
671.327	5104.73
671.518	5127.26
671.709	5186.65
671.9	5006.43
672.091	5059.68
672.282	4965.47
672.473	4906.08
672.664	5037.15
672.855	4947.04
673.046	4856.93
673.237	4877.41
673.428	4873.31
673.619	4895.84
673.809	4795.49
674	4750.43
674.191	4760.67
674.382	4699.23
674.573	4813.92
674.764	4689
674.954	4787.3
675.145	4625.51
675.336	4564.07
675.527	4740.19
675.717	4705.38
675.908	4504.68
676.099	4535.4
676.289	4461.67
676.48	4543.59
676.671	4529.25
676.861	4666.47
677.052	4484.2
677.243	4381.8
677.433	4480.1
677.624	4523.11
677.814	4396.14
678.005	4512.87
678.195	4408.42
678.386	4359.27
678.576	4439.14
678.767	4363.37
678.957	4297.83
679.148	4342.89
679.338	4281.45
679.529	4205.67
679.719	4232.3
679.909	4287.59
680.1	4252.78
680.29	4064.36
680.481	4207.72
680.671	4273.26
680.861	4134
681.052	4154.48
681.242	4134
681.432	4134
681.622	4041.84
681.813	4164.72
682.003	4066.41
682.193	4070.51
682.383	3970.16
682.573	4000.88
682.764	3880.05
682.954	4025.45
683.144	4074.6
683.334	4082.8
683.524	3996.78
683.714	3906.67
683.904	4031.6
684.094	3964.01
684.284	3910.77
684.474	3949.68
684.664	3996.78
684.854	3959.92
685.044	3904.62
685.234	3939.44
685.424	3843.18
685.614	3828.85
685.804	3763.31
685.994	3898.48
686.184	3839.09
686.374	3859.57
686.564	3761.27
686.753	3667.06
686.943	3787.89
687.133	3802.22
687.323	3703.92
687.513	3607.67
687.702	3800.18
687.892	3755.12
688.082	3730.55
688.272	3632.24
688.461	3650.67
688.651	3677.3
688.841	3683.44
689.03	3751.03
689.22	3581.04
689.41	3562.61
689.599	3685.49
689.789	3658.87
689.979	3650.67
690.168	3742.83
690.358	3566.71
690.547	3671.15
690.737	3562.61
690.926	3667.06
691.116	3533.94
691.305	3654.77
691.495	3368.06
691.684	3525.75
691.874	3482.74
692.063	3562.61
692.252	3591.28
692.442	3515.51
692.631	3525.75
692.82	3449.97
693.01	3517.56
693.199	3554.42
693.388	3437.69
693.578	3583.09
693.767	3427.45
693.956	3529.84
694.146	3591.28
694.335	3425.4
694.524	3492.98
694.713	3374.2
694.902	3413.11
695.092	3474.55
695.281	3437.69
695.47	3413.11
695.659	3542.13
695.848	3439.73
696.037	3456.12
696.226	3531.89
696.415	3386.49
696.604	3316.86
696.793	3415.16
696.982	3402.87
697.171	3343.48
697.36	3542.13
697.549	3323
697.738	3372.15
697.927	3380.34
698.116	3472.5
698.305	3329.14
698.494	3402.87
698.683	3396.73
698.872	3372.15
699.061	3290.23
699.25	3327.1
699.438	3226.75
699.627	3353.72
699.816	3265.66
700.005	3359.86
700.193	3396.73
700.382	3333.24
700.571	3241.08
700.76	3325.05
700.948	3230.84
701.137	3130.49
701.326	3263.61
701.514	3245.18
701.703	3214.46
701.892	3218.55
702.08	3142.78
702.269	3308.66
702.457	3255.42
702.646	3193.98
702.834	3216.51
703.023	3163.26
703.212	3150.97
703.4	3220.6
703.589	3089.53
703.777	3316.86
703.965	3079.29
704.154	3099.77
704.342	3077.24
704.531	3204.22
704.719	3208.31
704.907	3036.28
705.096	3097.72
705.284	3009.66
705.472	3073.15
705.661	2995.32
705.849	3081.34
706.037	2976.89
706.226	3196.03
706.414	3052.67
706.602	2851.97
706.79	3085.44
706.979	2913.41
707.167	2995.32
707.355	2923.65
707.543	2888.83
707.731	2884.73
707.919	2944.13
708.107	2778.24
708.296	2956.41
708.484	2708.61
708.672	2813.06
708.86	2860.16
709.048	2735.23
709.236	2880.64
709.424	2759.81
709.612	2874.49
709.8	2860.16
709.988	2759.81
710.176	2813.06
710.364	2688.13
710.551	2745.47
710.739	2788.48
710.927	2704.51
711.115	2671.75
711.303	2782.34
711.491	2567.3
711.679	2731.14
711.866	2673.79
712.054	2669.7
712.242	2608.26
712.43	2628.74
712.617	2700.42
712.805	2673.79
712.993	2487.43
713.181	2643.07
713.368	2561.16
713.556	2499.72
713.744	2624.64
713.931	2579.59
714.119	2516.1
714.306	2493.57
714.494	2530.44
714.682	2600.07
714.869	2518.15
715.057	2438.28
715.244	2337.93
715.432	2544.77
715.619	2495.62
715.807	2485.38
715.994	2436.23
716.182	2425.99
716.369	2458.76
716.556	2432.13
716.744	2389.13
716.931	2311.3
717.119	2430.09
717.306	2446.47
717.493	2333.83
717.681	2280.58
717.868	2290.82
718.055	2311.3
718.242	2331.78
718.43	2249.86
718.617	2276.49
718.804	2217.1
718.991	2274.44
719.179	2184.33
719.366	2299.02
719.553	2217.1
719.74	2200.71
719.927	2227.34
720.114	2079.88
720.301	2217.1
720.488	2151.56
720.676	2149.51
720.863	2169.99
721.05	2182.28
721.237	2100.36
721.424	2114.7
721.611	2000.01
721.798	2038.92
721.985	2102.41
722.172	2071.69
722.358	2030.73
722.545	2143.37
722.732	2020.49
722.919	2053.26
723.106	1936.53
723.293	2016.4
723.48	1997.96
723.667	2008.2
723.853	1893.52
724.04	1993.87
724.227	2016.4
724.414	1991.82
724.6	1973.39
724.787	1936.53
724.974	2092.17
725.161	1834.13
725.347	1954.96
725.534	1887.37
725.72	1875.09
725.907	1942.67
726.094	1969.29
726.28	1914
726.467	1840.27
726.653	1860.75
726.84	1852.56
727.027	1801.36
727.213	1701.01
727.4	1776.78
727.586	1795.22
727.773	1885.33
727.959	1762.45
728.145	1842.32
728.332	1846.41
728.518	1891.47
728.705	1842.32
728.891	1737.87
729.077	1770.64
729.264	1692.82
729.45	1776.78
729.636	1694.86
729.823	1608.85
730.009	1670.29
730.195	1643.67
730.382	1737.87
730.568	1692.82
730.754	1684.62
730.94	1686.67
731.126	1641.62
731.313	1660.05
731.499	1559.7
731.685	1666.19
731.871	1709.2
732.057	1633.43
732.243	1662.1
732.429	1727.63
732.615	1647.76
732.801	1565.84
732.987	1598.61
733.173	1590.42
733.359	1610.9
733.545	1580.18
733.731	1475.73
733.917	1551.51
734.103	1627.28
734.289	1717.39
734.475	1549.46
734.661	1498.26
734.847	1528.98
735.033	1559.7
735.219	1488.02
735.404	1451.16
735.59	1395.86
735.776	1547.41
735.962	1586.32
736.148	1561.75
736.333	1494.16
736.519	1555.6
736.705	1588.37
736.89	1438.87
737.076	1440.92
737.262	1457.3
737.447	1494.16
737.633	1387.67
737.819	1445.01
738.004	1375.38
738.19	1453.2
738.375	1453.2
738.561	1432.72
738.747	1500.31
738.932	1463.44
739.118	1402.01
739.303	1346.71
739.489	1393.81
739.674	1371.29
739.859	1322.13
740.045	1299.61
740.23	1363.09
740.416	1406.1
740.601	1279.13
740.786	1262.74
740.972	1313.94
741.157	1309.85
741.342	1199.26
741.528	1285.27
741.713	1277.08
741.898	1291.41
742.084	1291.41
742.269	1318.04
742.454	1365.14
742.639	1240.22
742.824	1309.85
743.01	1213.59
743.195	1311.89
743.38	1305.75
743.565	1248.41
743.75	1283.22
743.935	1156.25
744.12	1121.43
744.305	1174.68
744.49	1209.5
744.675	1246.36
744.86	1168.54
745.045	1158.3
745.23	1045.66
745.415	1162.39
745.6	1115.29
745.785	1150.11
745.97	1234.07
746.155	1139.87
746.34	1123.48
746.525	1166.49
746.71	1057.95
746.895	1051.8
747.079	1090.71
747.264	1133.72
747.449	1139.87
747.634	1127.58
747.819	1066.14
748.003	1021.08
748.188	988.32
748.373	1127.58
748.557	1008.8
748.742	1125.53
748.927	1090.71
749.111	1070.23
749.296	1029.27
749.481	1053.85
749.665	994.46
749.85	1019.04
750.034	1012.89
750.219	965.79
750.404	1039.51
750.588	1006.75
750.773	1004.7
750.957	988.32
751.141	908.44
751.326	992.41
751.51	951.45
751.695	894.11
751.879	912.54
752.064	994.46
752.248	857.25
752.432	1027.23
752.617	924.83
752.801	902.3
752.985	861.34
753.17	879.77
753.354	787.61
753.538	904.35
753.722	824.48
753.907	797.85
754.091	873.63
754.275	840.86
754.459	812.19
754.643	863.39
754.828	857.25
755.012	873.63
755.196	736.42
755.38	924.83
755.564	865.44
755.748	806.05
755.932	756.9
756.116	767.13
756.3	873.63
756.484	791.71
756.668	810.14
756.852	789.66
757.036	748.7
757.22	740.51
757.404	804
757.588	769.18
757.772	695.46
757.956	699.55
758.14	820.38
758.323	701.6
758.507	746.66
758.691	726.18
758.875	795.81
759.059	689.31
759.242	697.5
759.426	726.18
759.61	654.5
759.794	726.18
759.977	695.46
760.161	754.85
760.345	648.35
760.528	705.7
760.712	595.11
760.895	658.59
761.079	689.31
761.263	658.59
761.446	644.26
761.63	566.43
761.813	683.17
761.997	689.31
762.18	570.53
762.364	707.74
762.547	545.95
762.731	701.6
762.914	720.03
763.098	681.12
763.281	562.34
763.464	603.3
763.648	627.87
763.831	646.3
764.015	631.97
764.198	681.12
764.381	605.35
764.564	701.6
764.748	597.15
764.931	740.51
765.114	625.83
765.297	593.06
765.481	619.68
765.664	640.16
765.847	568.48
766.03	580.77
766.213	591.01
766.397	548
766.58	677.02
766.763	689.31
766.946	605.35
767.129	621.73
767.312	613.54
767.495	619.68
767.678	617.63
767.861	572.58
768.044	584.87
768.227	580.77
768.41	498.85
768.593	623.78
768.776	609.44
768.959	484.52
769.142	545.95
769.324	648.35
769.507	595.11
769.69	627.87
769.873	591.01
770.056	584.87
770.239	541.86
770.421	617.63
770.604	646.3
770.787	550.05
770.97	584.87
771.152	568.48
771.335	595.11
771.518	498.85
771.7	550.05
771.883	625.83
772.066	504.99
772.248	543.91
772.431	572.58
772.613	482.47
772.796	568.48
772.978	588.96
773.161	488.61
773.343	472.23
773.526	461.99
773.708	492.71
773.891	461.99
774.073	509.09
774.256	486.56
774.438	486.56
774.621	519.33
774.803	519.33
774.985	437.41
775.168	537.76
775.35	490.66
775.532	525.47
775.715	531.62
775.897	478.37
776.079	443.56
776.261	459.94
776.444	484.52
776.626	498.85
776.808	488.61
776.99	521.38
777.173	453.8
777.355	470.18
777.537	482.47
777.719	437.41
777.901	447.65
778.083	416.93
778.265	472.23
778.447	490.66
778.629	396.45
778.811	468.13
778.993	396.45
779.175	378.02
779.357	349.35
779.539	337.06
779.721	449.7
779.903	451.75
780.085	343.21
780.267	404.64
780.449	380.07
780.631	447.65
780.812	400.55
780.994	337.06
781.176	382.12
781.358	390.31
781.54	279.72
781.721	343.21
781.903	349.35
782.085	298.15
782.267	402.6
782.448	341.16
782.63	339.11
782.812	404.64
782.993	373.92
783.175	314.53
783.357	384.16
783.538	414.88
783.72	314.53
783.901	275.62
784.083	296.1
784.264	371.88
784.446	322.73
784.627	306.34
784.809	339.11
784.99	316.58
785.172	390.31
785.353	390.31
785.535	314.53
785.716	285.86
785.897	310.44
786.079	316.58
786.26	330.92
786.441	308.39
786.623	257.19
786.804	332.97
786.985	285.86
787.167	357.54
787.348	316.58
787.529	244.9
787.71	335.01
787.891	302.25
788.073	242.85
788.254	257.19
788.435	296.1
788.616	279.72
788.797	275.62
788.978	300.2
789.159	236.71
789.34	304.29
789.522	193.7
789.703	300.2
789.884	244.9
790.065	287.91
790.246	226.47
790.427	275.62
790.607	228.52
790.788	265.38
790.969	251.05
791.15	263.33
791.331	208.04
791.512	228.52
791.693	283.81
791.874	214.18
792.054	289.96
792.235	189.61
792.416	175.27
792.597	255.14
792.778	175.27
792.958	298.15
793.139	222.38
793.32	238.76
793.5	130.22
793.681	246.95
793.862	210.09
794.042	263.33
794.223	294.05
794.404	246.95
794.584	187.56
794.765	238.76
794.945	279.72
795.126	249
795.306	203.94
795.487	175.27
795.667	160.94
795.848	267.43
796.028	181.42
796.209	240.81
796.389	152.74
796.57	238.76
796.75	193.7
796.93	185.51
797.111	236.71
797.291	210.09
797.471	214.18
797.652	212.14
797.832	171.18
798.012	292.01
798.192	285.86
798.373	230.57
798.553	193.7
798.733	148.65
798.913	216.23
799.093	191.66
799.274	212.14
799.454	148.65
799.634	142.5
799.814	232.62
799.994	197.8
800.174	175.27
800.354	111.78
800.534	111.78
800.714	171.18
800.894	160.94
801.074	140.46
801.254	126.12
801.434	107.69
801.614	167.08
801.794	101.55
801.974	363.69
802.154	142.5
802.334	146.6
802.514	124.07
802.693	193.7
802.873	87.21
803.053	240.81
803.233	195.75
803.413	142.5
803.592	74.92
803.772	124.07
803.952	60.59
804.131	167.08
804.311	173.22
804.491	177.32
804.67	126.12
804.85	126.12
805.03	113.83
805.209	210.09
805.389	54.44
805.568	144.55
805.748	134.31
805.928	177.32
806.107	187.56
806.287	83.11
806.466	97.45
806.646	197.8
806.825	54.44
807.004	156.84
807.184	85.16
807.363	134.31
807.543	81.07
807.722	87.21
807.901	160.94
808.081	85.16
808.26	117.93
808.439	148.65
808.619	103.59
808.798	148.65
808.977	126.12
809.156	126.12
809.336	99.5
809.515	105.64
809.694	154.79
809.873	97.45
810.052	154.79
810.231	91.31
810.411	173.22
810.59	169.13
810.769	115.88
810.948	103.59
811.127	97.45
811.306	87.21
811.485	76.97
811.664	79.02
811.843	167.08
812.022	132.26
812.201	62.63
812.38	144.55
812.559	107.69
812.737	62.63
812.916	109.74
813.095	81.07
813.274	58.54
813.453	103.59
813.632	130.22
813.811	89.26
813.989	144.55
814.168	87.21
814.347	136.36
814.526	146.6
814.704	128.17
814.883	97.45
815.062	113.83
815.24	62.63
815.419	76.97
815.598	89.26
815.776	62.63
815.955	25.77
816.133	62.63
816.312	95.4
816.49	111.78
816.669	64.68
816.847	138.41
817.026	74.92
817.204	56.49
817.383	109.74
817.561	99.5
817.74	44.2
817.918	109.74
818.097	140.46
818.275	66.73
818.453	107.69
818.632	64.68
818.81	87.21
818.988	40.11
819.167	107.69
819.345	42.15
819.523	42.15
819.701	81.07
819.879	50.35
820.058	42.15
820.236	105.64
820.414	87.21
820.592	27.82
820.77	31.91
820.948	44.2
821.127	81.07
821.305	70.83
821.483	44.2
821.661	103.59
821.839	62.63
822.017	62.63
822.195	52.39
822.373	76.97
822.551	93.35
822.729	107.69
822.907	-29.52
823.085	117.93
823.262	152.74
823.44	74.92
823.618	3.24
823.796	83.11
823.974	74.92
824.152	150.7
824.329	48.3
824.507	29.87
824.685	17.58
824.863	128.17
825.04	99.5
825.218	83.11
825.396	60.59
825.574	103.59
825.751	115.88
825.929	54.44
826.107	7.34
826.284	91.31
826.462	-0.85
826.639	99.5
826.817	29.87
826.994	21.67
827.172	13.48
827.349	44.2
827.527	48.3
827.704	19.63
827.882	113.83
828.059	117.93
828.237	66.73
828.414	70.83
828.591	38.06
828.769	72.87
828.946	72.87
829.124	40.11
829.301	134.31
829.478	62.63
829.655	17.58
829.833	48.3
830.01	33.96
830.187	50.35
830.364	7.34
830.542	76.97
830.719	50.35
830.896	58.54
831.073	111.78
831.25	56.49
831.427	56.49
831.604	95.4
831.782	-41.81
831.959	-11.09
832.136	48.3
832.313	3.24
832.49	33.96
832.667	81.07
832.844	54.44
833.021	40.11
833.198	107.69
833.374	54.44
833.551	19.63
833.728	31.91
833.905	42.15
834.082	50.35
834.259	89.26
834.436	-15.19
834.612	46.25
834.789	64.68
834.966	13.48
835.143	48.3
835.319	21.67
835.496	44.2
835.673	113.83
835.85	119.98
836.026	54.44
836.203	105.64
836.38	-7
836.556	66.73
836.733	-7
836.909	95.4
837.086	46.25
837.262	68.78
837.439	-23.38
837.616	72.87
837.792	68.78
837.968	17.58
838.145	33.96
838.321	-7
838.498	62.63
838.674	58.54
838.851	40.11
839.027	60.59
839.203	15.53
839.38	58.54
839.556	19.63
839.732	50.35
839.909	46.25
840.085	25.77
840.261	68.78
840.437	-58.2
840.614	-25.43
840.79	68.78
840.966	40.11
841.142	52.39
841.318	7.34
841.494	44.2
841.671	38.06
841.847	-21.33
842.023	-19.29
842.199	38.06
842.375	83.11
842.551	5.29
842.727	-4.95
842.903	105.64
843.079	50.35
843.255	31.91
843.431	44.2
843.607	31.91
843.783	3.24
843.959	-0.85
844.134	58.54
844.31	29.87
844.486	27.82
844.662	29.87
844.838	-21.33
845.013	58.54
845.189	25.77
845.365	38.06
845.541	15.53
845.716	79.02
845.892	115.88
846.068	-9.05
846.244	40.11
846.419	-9.05
846.595	48.3
846.77	7.34
846.946	27.82
847.122	-15.19
847.297	33.96
847.473	79.02
847.648	-64.34
847.824	29.87
847.999	1.19
848.175	-13.14
848.35	-17.24
848.526	87.21
848.701	-17.24
848.876	-4.95
849.052	46.25
849.227	7.34
849.403	7.34
849.578	50.35
849.753	23.72
849.929	58.54
850.104	21.67
850.279	33.96
850.454	44.2
850.63	-4.95
850.805	50.35
850.98	56.49
851.155	64.68
851.33	19.63
851.505	-33.62
851.681	-15.19
851.856	29.87
852.031	27.82
852.206	-43.86
852.381	68.78
852.556	1.19
852.731	21.67
852.906	31.91
853.081	36.01
853.256	68.78
853.431	23.72
853.606	-23.38
853.781	-23.38
853.956	3.24
854.131	60.59
854.305	40.11
854.48	-27.48
854.655	29.87
854.83	13.48
855.005	19.63
855.18	66.73
855.354	-4.95
855.529	36.01
855.704	9.39
855.879	21.67
856.053	-35.67
856.228	105.64
856.403	-7
856.577	-13.14
856.752	-50
856.926	15.53
857.101	29.87
857.276	9.39
857.45	-9.05
857.625	46.25
857.799	-33.62
857.974	56.49
858.148	46.25
858.323	81.07
858.497	-2.9
858.672	-23.38
858.846	-7
859.02	-37.72
859.195	-0.85
859.369	-50
859.543	42.15
859.718	70.83
859.892	-2.9
860.066	58.54
860.241	-27.48
860.415	5.29
860.589	-35.67
860.763	21.67
860.938	17.58
861.112	31.91
861.286	7.34
861.46	-45.91
861.634	11.43
861.808	-4.95
861.982	36.01
862.157	83.11
862.331	-45.91
862.505	64.68
862.679	40.11
862.853	-2.9
863.027	-7
863.201	-11.09
863.375	-47.96
863.549	29.87
863.722	33.96
863.896	5.29
864.07	11.43
864.244	-27.48
864.418	25.77
864.592	36.01
864.766	76.97
864.939	-11.09
865.113	58.54
865.287	50.35
865.461	-54.1
865.634	36.01
865.808	23.72
865.982	13.48
866.156	-11.09
866.329	101.55
866.503	-52.05
866.676	87.21
866.85	13.48
867.024	50.35
867.197	36.01
867.371	-29.52
867.544	42.15
867.718	-19.29
867.891	-15.19
868.065	23.72
868.238	21.67
868.412	21.67
868.585	-58.2
868.759	5.29
868.932	15.53
869.105	25.77
869.279	13.48
869.452	-60.24
869.625	-13.14
869.799	38.06
869.972	7.34
870.145	1.19
870.319	15.53
870.492	13.48
870.665	-43.86
870.838	33.96
871.011	-2.9
871.185	29.87
871.358	3.24
871.531	-19.29
871.704	-0.85
871.877	44.2
872.05	31.91
872.223	27.82
872.396	19.63
872.569	-56.15
872.742	36.01
872.915	25.77
873.088	-23.38
873.261	1.19
873.434	-29.52
873.607	-9.05
873.78	-37.72
873.953	-4.95
874.126	40.11
874.299	31.91
874.471	46.25
874.644	-33.62
874.817	-41.81
874.99	62.63
875.163	-15.19
875.335	19.63
875.508	15.53
875.681	44.2
875.853	15.53
876.026	15.53
876.199	-7
876.371	46.25
876.544	-17.24
876.717	15.53
876.889	19.63
877.062	29.87
877.234	60.59
877.407	-0.85
877.579	-60.24
877.752	-9.05
877.924	-11.09
878.097	-0.85
878.269	-0.85
878.442	17.58
878.614	52.39
878.786	3.24
878.959	50.35
879.131	15.53
879.303	-17.24
879.476	33.96
879.648	-31.57
879.82	19.63
879.993	58.54
880.165	-2.9
880.337	-37.72
880.509	19.63
880.681	-47.96
880.854	-17.24
881.026	46.25
881.198	17.58
881.37	-58.2
881.542	9.39
881.714	5.29
881.886	23.72
882.058	7.34
882.23	54.44
882.402	44.2
882.574	-0.85
882.746	9.39
882.918	31.91
883.09	42.15
883.262	-33.62
883.434	-27.48
883.606	-31.57
883.778	-31.57
883.95	-7
884.122	25.77
884.293	-27.48
884.465	23.72
884.637	54.44
884.809	25.77
884.98	-39.76
885.152	31.91
885.324	42.15
885.496	-9.05
885.667	5.29
885.839	-31.57
886.011	-45.91
886.182	36.01
886.354	33.96
886.525	9.39
886.697	7.34
886.869	48.3
887.04	-21.33
887.212	48.3
887.383	-9.05
887.555	38.06
887.726	-13.14
887.897	-27.48
888.069	23.72
888.24	68.78
888.412	-37.72
888.583	7.34
888.754	17.58
888.926	-78.68
889.097	-60.24
889.268	-31.57
889.44	19.63
889.611	25.77
889.782	-13.14
889.953	7.34
890.125	-2.9
890.296	40.11
890.467	-19.29
890.638	58.54
890.809	-13.14
890.98	-31.57
891.151	38.06
891.323	-9.05
891.494	36.01
891.665	-54.1
891.836	68.78
892.007	29.87
892.178	-7
892.349	-27.48
892.52	44.2
892.691	-27.48
892.862	-58.2
893.032	17.58
893.203	-4.95
893.374	-64.34
893.545	66.73
893.716	17.58
893.887	13.48
894.057	-21.33
894.228	-41.81
894.399	-70.48
894.57	62.63
894.74	-33.62
894.911	9.39
895.082	83.11
895.253	25.77
895.423	1.19
895.594	-37.72
895.764	33.96
895.935	-27.48
896.106	1.19
896.276	46.25
896.447	97.45
896.617	-43.86
896.788	-9.05
896.958	3.24
897.129	1.19
897.299	-23.38
897.47	36.01
897.64	15.53
897.81	19.63
897.981	11.43
898.151	-31.57
898.322	-13.14
898.492	29.87
898.662	-31.57
898.832	-31.57
899.003	-4.95
899.173	-35.67
899.343	-2.9
899.513	-58.2
