Data from USB4F104151__281__14-02-26-519.txt Node

Date: Thu Mar 13 14:02:26 EDT 2025
User: louis
Spectrometer: USB4F10415
Trigger mode: 4
Integration Time (sec): 1.000000E-2
Scans to average: 1
Electric dark correction enabled: true
Nonlinearity correction enabled: false
Boxcar width: 0
XAxis mode: Wavelengths
Number of Pixels in Spectrum: 3648
>>>>>Begin Spectral Data<<<<<
178.204	-29.7
178.424	-29.7
178.644	-29.7
178.864	-125.95
179.084	-74.75
179.304	19.46
179.524	31.74
179.744	-103.42
179.964	41.98
180.184	41.98
180.404	-3.07
180.624	3.07
180.844	-7.17
181.064	-39.94
181.283	39.94
181.503	-33.79
181.723	9.22
181.943	7.17
182.163	13.31
182.383	-21.5
182.602	35.84
182.822	23.55
183.042	84.99
183.262	1.02
183.482	5.12
183.701	29.7
183.921	-25.6
184.141	9.22
184.361	7.17
184.58	9.22
184.8	25.6
185.02	41.98
185.239	44.03
185.459	-7.17
185.679	-21.5
185.898	-78.85
186.118	33.79
186.338	5.12
186.557	52.22
186.777	35.84
186.997	-17.41
187.216	-41.98
187.436	39.94
187.655	-1.02
187.875	9.22
188.095	3.07
188.314	37.89
188.534	44.03
188.753	7.17
188.973	-21.5
189.192	37.89
189.412	-44.03
189.631	15.36
189.851	27.65
190.07	-13.31
190.29	-5.12
190.509	27.65
190.729	-19.46
190.948	-7.17
191.168	64.51
191.387	37.89
191.607	-15.36
191.826	48.13
192.045	-9.22
192.265	-41.98
192.484	21.5
192.704	50.18
192.923	-5.12
193.142	35.84
193.362	17.41
193.581	74.75
193.8	25.6
194.02	68.61
194.239	60.42
194.458	52.22
194.678	1.02
194.897	13.31
195.116	-7.17
195.335	64.51
195.555	19.46
195.774	23.55
195.993	3.07
196.212	-31.74
196.432	3.07
196.651	-15.36
196.87	23.55
197.089	80.89
197.308	-17.41
197.528	27.65
197.747	-17.41
197.966	17.41
198.185	-66.56
198.404	3.07
198.623	60.42
198.842	-31.74
199.062	93.18
199.281	15.36
199.5	-5.12
199.719	-15.36
199.938	35.84
200.157	50.18
200.376	37.89
200.595	33.79
200.814	-50.18
201.033	-25.6
201.252	-19.46
201.471	-17.41
201.69	-78.85
201.909	39.94
202.128	-9.22
202.347	13.31
202.566	25.6
202.785	25.6
203.004	52.22
203.223	64.51
203.442	37.89
203.661	19.46
203.879	-9.22
204.098	-25.6
204.317	7.17
204.536	87.04
204.755	103.42
204.974	-31.74
205.193	21.5
205.411	48.13
205.63	3.07
205.849	56.32
206.068	-25.6
206.287	-35.84
206.505	13.31
206.724	19.46
206.943	-58.37
207.162	5.12
207.381	27.65
207.599	-39.94
207.818	-33.79
208.037	-35.84
208.255	-13.31
208.474	68.61
208.693	15.36
208.911	35.84
209.13	-13.31
209.349	35.84
209.567	19.46
209.786	27.65
210.005	-15.36
210.223	31.74
210.442	-17.41
210.661	-23.55
210.879	68.61
211.098	33.79
211.316	13.31
211.535	113.66
211.753	33.79
211.972	15.36
212.191	-3.07
212.409	19.46
212.628	27.65
212.846	39.94
213.065	-5.12
213.283	17.41
213.502	56.32
213.72	5.12
213.938	44.03
214.157	19.46
214.375	23.55
214.594	-15.36
214.812	52.22
215.031	-1.02
215.249	72.7
215.467	-17.41
215.686	25.6
215.904	41.98
216.122	3.07
216.341	23.55
216.559	-25.6
216.778	-3.07
216.996	41.98
217.214	9.22
217.432	23.55
217.651	-48.13
217.869	1.02
218.087	7.17
218.306	13.31
218.524	25.6
218.742	50.18
218.96	-5.12
219.179	39.94
219.397	56.32
219.615	31.74
219.833	-17.41
220.051	21.5
220.27	1.02
220.488	48.13
220.706	19.46
220.924	21.5
221.142	35.84
221.36	1.02
221.578	9.22
221.796	-3.07
222.015	89.09
222.233	11.26
222.451	39.94
222.669	25.6
222.887	33.79
223.105	27.65
223.323	9.22
223.541	-56.32
223.759	-29.7
223.977	25.6
224.195	-13.31
224.413	-7.17
224.631	11.26
224.849	-11.26
225.067	23.55
225.285	27.65
225.503	113.66
225.721	-5.12
225.939	13.31
226.157	23.55
226.375	9.22
226.592	-62.46
226.81	56.32
227.028	-9.22
227.246	17.41
227.464	9.22
227.682	7.17
227.9	9.22
228.117	-29.7
228.335	3.07
228.553	-13.31
228.771	48.13
228.989	-33.79
229.206	39.94
229.424	7.17
229.642	-37.89
229.86	-35.84
230.077	48.13
230.295	31.74
230.513	82.94
230.731	74.75
230.948	35.84
231.166	48.13
231.384	-82.94
231.601	-23.55
231.819	41.98
232.037	-41.98
232.254	-13.31
232.472	48.13
232.689	27.65
232.907	-1.02
233.125	23.55
233.342	41.98
233.56	-39.94
233.777	23.55
233.995	7.17
234.213	21.5
234.43	33.79
234.648	44.03
234.865	33.79
235.083	21.5
235.3	-25.6
235.518	76.8
235.735	27.65
235.953	33.79
236.17	-41.98
236.388	-23.55
236.605	-5.12
236.822	-27.65
237.04	39.94
237.257	27.65
237.475	-5.12
237.692	66.56
237.909	-1.02
238.127	121.85
238.344	91.13
238.562	-21.5
238.779	-31.74
238.996	31.74
239.214	31.74
239.431	95.23
239.648	19.46
239.865	33.79
240.083	35.84
240.3	62.46
240.517	-37.89
240.735	27.65
240.952	39.94
241.169	-11.26
241.386	19.46
241.603	3.07
241.821	-19.46
242.038	19.46
242.255	39.94
242.472	-58.37
242.689	-17.41
242.907	-5.12
243.124	21.5
243.341	70.65
243.558	27.65
243.775	9.22
243.992	-15.36
244.209	-15.36
244.426	31.74
244.643	60.42
244.86	-72.7
245.078	56.32
245.295	-17.41
245.512	27.65
245.729	-44.03
245.946	54.27
246.163	15.36
246.38	13.31
246.597	56.32
246.814	44.03
247.031	64.51
247.248	11.26
247.464	33.79
247.681	15.36
247.898	13.31
248.115	29.7
248.332	-39.94
248.549	35.84
248.766	72.7
248.983	74.75
249.2	-25.6
249.417	5.12
249.633	-25.6
249.85	-15.36
250.067	-66.56
250.284	-15.36
250.501	66.56
250.717	-9.22
250.934	5.12
251.151	35.84
251.368	23.55
251.585	31.74
251.801	5.12
252.018	-31.74
252.235	33.79
252.451	27.65
252.668	-17.41
252.885	23.55
253.102	46.08
253.318	-3.07
253.535	7.17
253.752	62.46
253.968	-1.02
254.185	-1.02
254.401	7.17
254.618	31.74
254.835	41.98
255.051	-3.07
255.268	-9.22
255.484	25.6
255.701	9.22
255.917	-25.6
256.134	-13.31
256.351	-1.02
256.567	48.13
256.784	62.46
257	25.6
257.217	70.65
257.433	-9.22
257.65	7.17
257.866	-9.22
258.082	-31.74
258.299	31.74
258.515	41.98
258.732	74.75
258.948	15.36
259.165	-9.22
259.381	13.31
259.597	-19.46
259.814	-25.6
260.03	-31.74
260.246	7.17
260.463	-21.5
260.679	33.79
260.895	-35.84
261.112	9.22
261.328	-9.22
261.544	15.36
261.761	19.46
261.977	64.51
262.193	-7.17
262.409	101.37
262.626	23.55
262.842	31.74
263.058	23.55
263.274	25.6
263.49	39.94
263.707	9.22
263.923	-1.02
264.139	-23.55
264.355	31.74
264.571	-1.02
264.787	84.99
265.004	80.89
265.22	58.37
265.436	-23.55
265.652	-41.98
265.868	13.31
266.084	25.6
266.3	31.74
266.516	-35.84
266.732	17.41
266.948	64.51
267.164	-41.98
267.38	78.85
267.596	66.56
267.812	48.13
268.028	-25.6
268.244	-7.17
268.46	-1.02
268.676	-21.5
268.892	17.41
269.108	11.26
269.324	82.94
269.54	1.02
269.756	54.27
269.972	-25.6
270.188	9.22
270.403	-3.07
270.619	25.6
270.835	37.89
271.051	-9.22
271.267	41.98
271.483	-17.41
271.698	-19.46
271.914	37.89
272.13	-23.55
272.346	87.04
272.562	25.6
272.777	54.27
272.993	29.7
273.209	-9.22
273.425	23.55
273.64	29.7
273.856	41.98
274.072	15.36
274.287	27.65
274.503	107.52
274.719	-31.74
274.934	74.75
275.15	-23.55
275.366	31.74
275.581	-37.89
275.797	-11.26
276.012	-19.46
276.228	3.07
276.444	-15.36
276.659	-1.02
276.875	25.6
277.09	41.98
277.306	-1.02
277.521	-19.46
277.737	-72.7
277.952	9.22
278.168	23.55
278.383	82.94
278.599	5.12
278.814	56.32
279.03	-29.7
279.245	15.36
279.461	-7.17
279.676	72.7
279.892	-11.26
280.107	60.42
280.322	17.41
280.538	-13.31
280.753	3.07
280.969	-17.41
281.184	-5.12
281.399	-25.6
281.615	50.18
281.83	-25.6
282.045	25.6
282.26	31.74
282.476	15.36
282.691	-31.74
282.906	-13.31
283.122	23.55
283.337	19.46
283.552	46.08
283.767	41.98
283.983	-21.5
284.198	-7.17
284.413	46.08
284.628	48.13
284.843	-48.13
285.058	29.7
285.274	48.13
285.489	37.89
285.704	-11.26
285.919	-1.02
286.134	31.74
286.349	23.55
286.564	48.13
286.779	44.03
286.995	50.18
287.21	-64.51
287.425	-17.41
287.64	31.74
287.855	48.13
288.07	5.12
288.285	31.74
288.5	66.56
288.715	-33.79
288.93	31.74
289.145	-7.17
289.36	39.94
289.575	-31.74
289.79	60.42
290.004	-89.09
290.219	9.22
290.434	35.84
290.649	-39.94
290.864	33.79
291.079	1.02
291.294	-17.41
291.509	70.65
291.724	13.31
291.938	9.22
292.153	-66.56
292.368	37.89
292.583	39.94
292.798	-17.41
293.012	1.02
293.227	-9.22
293.442	58.37
293.657	-44.03
293.871	115.71
294.086	15.36
294.301	23.55
294.516	-48.13
294.73	35.84
294.945	-37.89
295.16	50.18
295.374	-27.65
295.589	-23.55
295.804	80.89
296.018	-44.03
296.233	19.46
296.447	48.13
296.662	54.27
296.877	11.26
297.091	39.94
297.306	138.24
297.52	-9.22
297.735	-25.6
297.949	54.27
298.164	87.04
298.378	-31.74
298.593	25.6
298.807	31.74
299.022	19.46
299.236	-19.46
299.451	56.32
299.665	52.22
299.88	25.6
300.094	25.6
300.309	33.79
300.523	-5.12
300.737	15.36
300.952	13.31
301.166	-13.31
301.381	1.02
301.595	-9.22
301.809	-39.94
302.024	95.23
302.238	39.94
302.452	-17.41
302.667	-33.79
302.881	109.57
303.095	74.75
303.309	56.32
303.524	-13.31
303.738	56.32
303.952	-17.41
304.166	66.56
304.381	1.02
304.595	-9.22
304.809	-9.22
305.023	-13.31
305.237	25.6
305.452	21.5
305.666	-1.02
305.88	33.79
306.094	-23.55
306.308	23.55
306.522	64.51
306.736	66.56
306.95	-1.02
307.164	5.12
307.379	-9.22
307.593	52.22
307.807	25.6
308.021	-29.7
308.235	5.12
308.449	-31.74
308.663	-9.22
308.877	-11.26
309.091	74.75
309.305	33.79
309.519	-48.13
309.733	48.13
309.947	5.12
310.161	-7.17
310.374	52.22
310.588	-9.22
310.802	7.17
311.016	-35.84
311.23	35.84
311.444	-15.36
311.658	-9.22
311.872	48.13
312.085	33.79
312.299	11.26
312.513	41.98
312.727	33.79
312.941	-54.27
313.154	3.07
313.368	58.37
313.582	11.26
313.796	142.33
314.009	37.89
314.223	13.31
314.437	-17.41
314.651	-62.46
314.864	15.36
315.078	56.32
315.292	-25.6
315.505	80.89
315.719	-25.6
315.933	72.7
316.146	91.13
316.36	-25.6
316.573	48.13
316.787	-54.27
317.001	23.55
317.214	39.94
317.428	7.17
317.641	-13.31
317.855	-25.6
318.068	19.46
318.282	7.17
318.495	19.46
318.709	-46.08
318.922	31.74
319.136	52.22
319.349	58.37
319.563	25.6
319.776	-21.5
319.99	27.65
320.203	7.17
320.417	13.31
320.63	41.98
320.843	25.6
321.057	48.13
321.27	-7.17
321.483	21.5
321.697	9.22
321.91	-17.41
322.124	-5.12
322.337	-66.56
322.55	-35.84
322.763	56.32
322.977	17.41
323.19	3.07
323.403	27.65
323.617	27.65
323.83	64.51
324.043	33.79
324.256	15.36
324.469	56.32
324.683	44.03
324.896	-35.84
325.109	27.65
325.322	-27.65
325.535	87.04
325.748	23.55
325.962	39.94
326.175	-7.17
326.388	48.13
326.601	37.89
326.814	48.13
327.027	64.51
327.24	-25.6
327.453	31.74
327.666	-15.36
327.879	3.07
328.092	35.84
328.305	52.22
328.518	15.36
328.731	5.12
328.944	27.65
329.157	23.55
329.37	29.7
329.583	27.65
329.796	84.99
330.009	-39.94
330.222	-17.41
330.435	-33.79
330.648	44.03
330.861	-5.12
331.073	48.13
331.286	19.46
331.499	82.94
331.712	39.94
331.925	-17.41
332.138	33.79
332.35	25.6
332.563	29.7
332.776	54.27
332.989	9.22
333.202	17.41
333.414	-1.02
333.627	-1.02
333.84	31.74
334.053	15.36
334.265	54.27
334.478	25.6
334.691	56.32
334.903	15.36
335.116	-5.12
335.329	19.46
335.541	82.94
335.754	171.01
335.966	27.65
336.179	48.13
336.392	64.51
336.604	44.03
336.817	33.79
337.029	87.04
337.242	27.65
337.454	19.46
337.667	23.55
337.88	109.57
338.092	-21.5
338.305	33.79
338.517	84.99
338.729	48.13
338.942	23.55
339.154	99.33
339.367	31.74
339.579	39.94
339.792	107.52
340.004	33.79
340.217	-9.22
340.429	23.55
340.641	-1.02
340.854	15.36
341.066	13.31
341.278	5.12
341.491	31.74
341.703	25.6
341.915	-21.5
342.128	50.18
342.34	-5.12
342.552	70.65
342.764	48.13
342.977	56.32
343.189	48.13
343.401	-3.07
343.613	27.65
343.826	-17.41
344.038	-7.17
344.25	-23.55
344.462	-64.51
344.674	23.55
344.886	35.84
345.099	44.03
345.311	46.08
345.523	35.84
345.735	-41.98
345.947	-11.26
346.159	-35.84
346.371	-15.36
346.583	52.22
346.795	35.84
347.007	56.32
347.219	25.6
347.431	11.26
347.643	87.04
347.855	7.17
348.067	-17.41
348.279	-25.6
348.491	-7.17
348.703	72.7
348.915	23.55
349.127	107.52
349.339	25.6
349.551	-3.07
349.763	84.99
349.975	-7.17
350.187	5.12
350.399	58.37
350.61	17.41
350.822	-7.17
351.034	56.32
351.246	82.94
351.458	60.42
351.669	-7.17
351.881	56.32
352.093	3.07
352.305	91.13
352.517	17.41
352.728	-41.98
352.94	87.04
353.152	72.7
353.363	-21.5
353.575	44.03
353.787	7.17
353.999	39.94
354.21	58.37
354.422	-58.37
354.633	84.99
354.845	-17.41
355.057	19.46
355.268	44.03
355.48	23.55
355.692	25.6
355.903	39.94
356.115	74.75
356.326	-50.18
356.538	-1.02
356.749	35.84
356.961	31.74
357.172	27.65
357.384	-1.02
357.595	15.36
357.807	35.84
358.018	-74.75
358.23	91.13
358.441	-21.5
358.653	72.7
358.864	1.02
359.075	54.27
359.287	-7.17
359.498	39.94
359.709	-9.22
359.921	89.09
360.132	-3.07
360.344	-13.31
360.555	21.5
360.766	-33.79
360.977	-17.41
361.189	64.51
361.4	15.36
361.611	37.89
361.823	56.32
362.034	78.85
362.245	121.85
362.456	89.09
362.667	1.02
362.879	-19.46
363.09	82.94
363.301	58.37
363.512	99.33
363.723	35.84
363.935	64.51
364.146	58.37
364.357	48.13
364.568	80.89
364.779	41.98
364.99	3.07
365.201	50.18
365.412	50.18
365.623	80.89
365.834	64.51
366.045	19.46
366.256	48.13
366.467	-31.74
366.678	125.95
366.889	39.94
367.1	7.17
367.311	21.5
367.522	44.03
367.733	13.31
367.944	39.94
368.155	56.32
368.366	-15.36
368.577	60.42
368.788	89.09
368.999	-39.94
369.209	121.85
369.42	48.13
369.631	17.41
369.842	-19.46
370.053	31.74
370.264	50.18
370.474	27.65
370.685	46.08
370.896	33.79
371.107	-33.79
371.317	72.7
371.528	93.18
371.739	80.89
371.95	66.56
372.16	54.27
372.371	-29.7
372.582	39.94
372.792	72.7
373.003	-3.07
373.214	-23.55
373.424	37.89
373.635	1.02
373.846	23.55
374.056	39.94
374.267	44.03
374.477	58.37
374.688	29.7
374.898	19.46
375.109	-9.22
375.319	27.65
375.53	-9.22
375.74	93.18
375.951	35.84
376.161	89.09
376.372	50.18
376.582	72.7
376.793	64.51
377.003	-3.07
377.214	-9.22
377.424	-3.07
377.635	105.47
377.845	31.74
378.055	5.12
378.266	11.26
378.476	41.98
378.686	76.8
378.897	35.84
379.107	60.42
379.317	52.22
379.528	21.5
379.738	-7.17
379.948	27.65
380.158	3.07
380.369	39.94
380.579	64.51
380.789	35.84
380.999	64.51
381.21	23.55
381.42	3.07
381.63	31.74
381.84	72.7
382.05	80.89
382.261	27.65
382.471	15.36
382.681	31.74
382.891	17.41
383.101	48.13
383.311	7.17
383.521	31.74
383.731	-11.26
383.941	37.89
384.151	7.17
384.361	17.41
384.571	23.55
384.781	5.12
384.991	89.09
385.201	72.7
385.411	91.13
385.621	58.37
385.831	89.09
386.041	21.5
386.251	11.26
386.461	58.37
386.671	70.65
386.881	89.09
387.091	68.61
387.301	76.8
387.511	56.32
387.72	27.65
387.93	29.7
388.14	66.56
388.35	64.51
388.56	35.84
388.769	78.85
388.979	39.94
389.189	21.5
389.399	60.42
389.609	97.28
389.818	56.32
390.028	48.13
390.238	76.8
390.447	39.94
390.657	3.07
390.867	162.81
391.076	25.6
391.286	7.17
391.496	48.13
391.705	15.36
391.915	97.28
392.125	37.89
392.334	37.89
392.544	35.84
392.753	9.22
392.963	31.74
393.172	13.31
393.382	113.66
393.591	107.52
393.801	52.22
394.01	46.08
394.22	82.94
394.429	56.32
394.639	56.32
394.848	113.66
395.058	48.13
395.267	91.13
395.477	56.32
395.686	66.56
395.895	52.22
396.105	58.37
396.314	54.27
396.524	54.27
396.733	119.81
396.942	80.89
397.152	72.7
397.361	48.13
397.57	84.99
397.78	80.89
397.989	39.94
398.198	107.52
398.407	-11.26
398.617	87.04
398.826	93.18
399.035	68.61
399.244	50.18
399.453	50.18
399.663	56.32
399.872	56.32
400.081	48.13
400.29	74.75
400.499	17.41
400.708	66.56
400.917	19.46
401.127	44.03
401.336	164.86
401.545	80.89
401.754	105.47
401.963	158.72
402.172	82.94
402.381	54.27
402.59	33.79
402.799	64.51
403.008	84.99
403.217	173.05
403.426	128
403.635	107.52
403.844	62.46
404.053	23.55
404.262	93.18
404.471	179.2
404.68	76.8
404.888	164.86
405.097	87.04
405.306	130.05
405.515	132.09
405.724	107.52
405.933	134.14
406.142	154.62
406.35	80.89
406.559	187.39
406.768	99.33
406.977	191.49
407.185	191.49
407.394	201.72
407.603	99.33
407.812	252.92
408.02	171.01
408.229	150.53
408.438	150.53
408.646	232.44
408.855	197.63
409.064	244.73
409.272	226.3
409.481	171.01
409.69	259.07
409.898	308.22
410.107	287.74
410.315	285.69
410.524	285.69
410.733	300.03
410.941	318.46
411.15	308.22
411.358	308.22
411.567	297.98
411.775	343.03
411.984	330.75
412.192	351.23
412.401	367.61
412.609	353.27
412.818	383.99
413.026	418.81
413.234	459.77
413.443	394.23
413.651	404.47
413.86	470.01
414.068	502.78
414.276	482.3
414.485	568.31
414.693	547.83
414.901	490.49
415.11	535.54
415.318	556.02
415.526	594.93
415.734	588.79
415.943	687.09
416.151	676.85
416.359	648.18
416.567	703.48
416.776	744.44
416.984	887.79
417.192	877.55
417.4	930.8
417.608	828.4
417.817	834.55
418.025	957.43
418.233	953.33
418.441	1000.43
418.649	992.24
418.857	1057.78
419.065	1133.55
419.273	1106.93
419.481	1139.69
419.689	1162.22
419.897	1268.72
420.105	1276.91
420.313	1293.29
420.521	1399.79
420.729	1350.64
420.937	1426.41
421.145	1485.8
421.353	1508.33
421.561	1620.97
421.769	1588.2
421.977	1637.35
422.185	1735.65
422.393	1858.53
422.601	1836
422.809	1924.07
423.017	1960.93
423.224	2046.94
423.432	2028.51
423.64	2169.82
423.848	2337.76
424.056	2196.45
424.263	2423.77
424.471	2300.89
424.679	2462.68
424.887	2444.25
425.094	2614.23
425.302	2702.29
425.51	2753.49
425.718	2825.17
425.925	2874.32
426.133	2984.91
426.341	3251.15
426.548	3369.93
426.756	3320.78
426.964	3300.3
427.171	3486.67
427.379	3638.22
427.586	3605.45
427.794	3738.57
428.001	3879.88
428.209	4103.11
428.417	4000.71
428.624	4322.24
428.832	4248.51
429.039	4305.85
429.247	4201.41
429.454	4699.06
429.662	4946.87
429.869	4776.89
430.076	4979.64
430.284	5002.16
430.491	5067.7
430.699	5409.71
430.906	5378.99
431.114	5577.64
431.321	5872.55
431.528	5817.26
431.736	6112.16
431.943	6269.86
432.15	6214.56
432.358	6126.5
432.565	6726.55
432.772	6708.12
432.979	7060.37
433.187	7175.06
433.394	7080.85
433.601	7635.85
433.808	7672.71
434.016	7562.12
434.223	7807.88
434.43	8233.86
434.637	8223.62
434.844	8809.34
435.052	8921.98
435.259	8950.65
435.466	8788.86
435.673	8719.23
435.88	9268.08
436.087	9724.78
436.294	10003.3
436.501	9489.26
436.708	9931.62
436.915	10212.2
437.122	10562.4
437.329	10570.59
437.537	11064.15
437.743	10933.08
437.95	10986.33
438.157	11649.87
438.364	12024.65
438.571	12020.55
438.778	12237.64
438.985	13056.82
439.192	12610.37
439.399	13038.39
439.606	12712.77
439.813	13536.05
440.02	14316.33
440.227	14148.39
440.433	13779.76
440.64	14312.23
440.847	14244.65
441.054	14441.25
441.261	15305.49
441.467	15477.52
441.674	15774.48
441.881	16186.12
442.088	16173.83
442.294	16161.55
442.501	16319.24
442.708	16814.85
442.914	17394.42
443.121	18227.95
443.328	17593.08
443.534	18895.58
443.741	18076.4
443.948	17939.18
444.154	19516.12
444.361	19309.27
444.568	19655.38
444.774	19643.09
444.981	19788.5
445.187	20548.29
445.394	21054.14
445.6	21101.25
445.807	22819.49
446.013	21994.16
446.22	22284.97
446.426	23446.17
446.633	23243.42
446.839	24029.84
447.046	23050.91
447.252	24275.6
447.459	24652.42
447.665	24345.23
447.871	25248.38
448.078	26339.95
448.284	25408.12
448.491	25778.81
448.697	27085.41
448.903	27728.47
449.11	27249.25
449.316	27304.54
449.522	27724.38
449.728	28181.07
449.935	28428.88
450.141	28578.38
450.347	28799.56
450.553	28133.97
450.76	28551.76
450.966	29549.12
451.172	28973.64
451.378	29729.34
451.584	29438.53
451.791	29813.31
451.997	29796.92
452.203	30270
452.409	30284.34
452.615	30349.87
452.821	29063.75
453.027	29053.51
453.233	30286.39
453.44	29239.87
453.646	29528.64
453.852	29469.25
454.058	30011.96
454.264	29440.57
454.47	29735.48
454.676	29053.51
454.882	29760.06
455.088	27433.57
455.294	27703.9
455.5	27855.45
455.705	28424.78
455.911	27386.46
456.117	26827.37
456.323	26485.36
456.529	25166.46
456.735	26102.39
456.941	25635.45
457.147	25068.16
457.352	24138.38
457.558	24054.42
457.764	24011.41
457.97	23407.26
458.176	23048.86
458.381	22962.85
458.587	21895.86
458.793	22018.74
458.999	20765.38
459.204	22469.29
459.41	21617.33
459.616	20378.31
459.821	20232.91
460.027	20075.21
460.233	19716.82
460.438	18883.3
460.644	19104.48
460.85	18174.7
461.055	18072.3
461.261	17906.41
461.466	16540.42
461.672	15770.38
461.878	17232.63
462.083	16075.53
462.289	15790.86
462.494	15506.2
462.7	15100.7
462.905	14701.34
463.111	15125.27
463.316	15311.64
463.522	14895.9
463.727	14770.97
463.932	14727.97
464.138	14727.97
464.343	14766.88
464.549	14281.51
464.754	14578.47
464.959	14568.23
465.165	14410.53
465.37	13943.6
465.575	13701.93
465.781	13951.79
465.986	14295.85
466.191	13628.21
466.397	13325.11
466.602	12581.7
466.807	13280.05
467.012	13138.74
467.218	13153.08
467.423	13222.71
467.628	13034.3
467.833	13419.32
468.038	13165.37
468.244	12698.43
468.449	13185.85
468.654	12862.27
468.859	12747.58
469.064	12731.2
469.269	12147.53
469.474	12383.04
469.679	12430.15
469.885	12057.42
470.09	12323.65
470.295	12110.66
470.5	11744.08
470.705	12100.42
470.91	11758.41
471.115	11606.86
471.32	11942.73
471.525	11596.62
471.73	11328.34
471.935	11410.26
472.139	11006.81
472.344	11119.45
472.549	11019.1
472.754	10953.56
472.959	10894.17
473.164	10681.18
473.369	10126.18
473.574	10881.88
473.778	10677.09
473.983	10509.15
474.188	10390.37
474.393	10253.16
474.598	10216.29
474.802	9960.3
475.007	9841.51
475.212	9771.88
475.417	9364.34
475.621	9562.99
475.826	9644.91
476.031	9358.19
476.235	9077.62
476.44	9505.65
476.645	9227.12
476.849	9231.22
477.054	9108.34
477.259	8973.18
477.463	9030.52
477.668	8719.23
477.872	8639.36
478.077	8612.73
478.282	8524.67
478.486	8319.87
478.691	8309.63
478.895	8448.9
479.1	8309.63
479.304	8375.17
479.509	8072.07
479.713	8137.6
479.918	8139.65
480.122	7846.79
480.326	7848.84
480.531	7895.94
480.735	7879.56
480.94	7795.59
481.144	7965.57
481.348	7566.22
481.553	7697.29
481.757	7627.66
481.961	7773.07
482.166	7818.12
482.37	7736.2
482.574	7695.24
482.778	7740.3
482.983	7687.05
483.187	7545.74
483.391	7793.55
483.595	7435.15
483.8	7293.84
484.004	7594.89
484.208	7703.43
484.412	7668.62
484.616	7404.43
484.821	7680.91
485.025	7639.95
485.229	7760.78
485.433	7519.12
485.637	7619.47
485.841	7398.29
486.045	7490.45
486.249	7619.47
486.453	7627.66
486.657	7611.28
486.861	7656.33
487.065	7392.14
487.269	7488.4
487.473	7555.98
487.677	7732.11
487.881	7642
488.085	7617.42
488.289	7740.3
488.493	7719.82
488.697	7783.31
488.901	7601.04
489.105	7469.97
489.309	7656.33
489.512	7736.2
489.716	7791.5
489.92	7592.84
490.124	7721.87
490.328	7865.22
490.531	7836.55
490.735	7658.38
490.939	7994.25
491.143	7725.96
491.346	7836.55
491.55	7877.51
491.754	7936.9
491.958	7838.6
492.161	7969.67
492.365	7951.24
492.569	7881.61
492.772	8092.55
492.976	8053.64
493.18	8174.47
493.383	8360.83
493.587	8469.37
493.79	8541.05
493.994	8217.47
494.197	8422.27
494.401	8614.78
494.605	8455.04
494.808	8647.55
495.012	8594.3
495.215	8719.23
495.419	8874.87
495.622	8649.6
495.825	8833.91
496.029	8854.39
496.232	9143.16
496.436	9001.85
496.639	9284.47
496.843	9118.58
497.046	9495.41
497.249	9532.27
497.453	9638.76
497.656	9679.72
497.859	9673.58
498.063	9837.42
498.266	10126.18
498.469	9732.97
498.673	10148.71
498.876	10439.52
499.079	10388.32
499.282	10468.19
499.485	10589.02
499.689	10646.37
499.892	10824.54
500.095	10736.48
500.298	11244.37
500.501	11217.75
500.705	11332.44
500.908	11420.5
501.111	11537.23
501.314	11395.92
501.517	11922.25
501.72	12016.46
501.923	11975.5
502.126	12254.02
502.329	12553.02
502.532	12485.44
502.735	12426.05
502.938	12843.84
503.141	13071.16
503.344	13073.21
503.547	13349.68
503.75	13241.14
503.953	13445.94
504.156	13620.02
504.359	13933.36
504.562	14146.34
504.765	14416.68
504.968	14396.2
505.17	14486.31
505.373	14603.04
505.576	14924.57
505.779	15080.22
505.982	15205.14
506.185	15485.72
506.387	15639.31
506.59	15522.58
506.793	15860.49
506.996	15956.75
507.198	16673.54
507.401	16345.86
507.604	16792.32
507.807	17044.22
508.009	17175.29
508.212	17169.15
508.415	17578.74
508.617	17806.06
508.82	17761.01
509.022	17775.34
509.225	18258.67
509.428	18432.74
509.63	18547.43
509.833	18733.79
510.035	19243.74
510.238	19057.37
510.44	19536.6
510.643	19851.99
510.845	19765.97
511.048	19774.16
511.25	20443.85
511.453	20497.1
511.655	21187.26
511.858	21076.67
512.06	21277.37
512.262	21430.97
512.465	21416.63
512.667	22086.32
512.87	22112.94
513.072	22475.43
513.274	22710.95
513.477	22770.34
513.679	23149.21
513.881	23179.93
514.084	23919.25
514.286	23689.88
514.488	23982.74
514.69	24459.91
514.893	24611.46
515.095	24902.28
515.297	25420.41
515.499	25344.64
515.701	25551.48
515.904	25694.84
516.106	26202.74
516.308	26645.1
516.51	26700.39
516.712	26944.1
516.914	27163.23
517.116	27615.83
517.318	27986.52
517.52	28054.1
517.722	28254.8
517.925	28865.1
518.127	29215.3
518.329	29301.31
518.531	29340.22
518.733	29854.26
518.935	29991.48
519.136	30104.12
519.338	30378.54
519.54	30583.34
519.742	30997.03
519.944	31003.17
520.146	31830.55
520.348	31873.56
520.55	32115.22
520.752	32453.14
520.954	32827.92
521.155	32829.96
521.357	33262.08
521.559	33059.34
521.761	34089.46
521.963	33540.61
522.164	34220.53
522.366	34490.87
522.568	34746.86
522.77	34931.18
522.971	35387.88
523.173	35475.94
523.375	35484.13
523.576	35650.02
523.778	35977.69
523.98	36518.35
524.181	36880.85
524.383	36508.11
524.584	37345.73
524.786	37374.41
524.988	37243.34
525.189	37788.1
525.391	37951.93
525.592	38117.82
525.794	38478.26
525.995	38699.44
526.197	38470.07
526.398	38750.64
526.6	38947.25
526.801	39414.18
527.003	39291.3
527.204	39354.79
527.406	39766.43
527.607	39424.42
527.808	40135.07
528.01	39233.96
528.211	39508.39
528.412	40628.63
528.614	40313.24
528.815	40577.43
529.016	40659.35
529.218	40475.03
529.419	40710.55
529.62	40880.53
529.822	41126.28
530.023	40735.12
530.224	41224.59
530.425	40915.34
530.626	40833.42
530.828	40972.69
531.029	42054.01
531.23	41216.4
531.431	41681.28
531.632	41791.87
531.833	41544.07
532.035	41679.24
532.236	41564.55
532.437	42125.69
532.638	41523.59
532.839	42326.39
533.04	42334.59
533.241	41632.13
533.442	42498.42
533.643	41982.34
533.844	41978.24
534.045	42232.19
534.246	42453.37
534.447	42436.98
534.648	42025.34
534.849	42430.84
535.05	41949.57
535.251	42142.08
535.451	42043.77
535.652	42260.86
535.853	42707.32
536.054	42520.95
536.255	42539.38
536.456	42318.2
536.657	42690.93
536.857	42523
537.058	42238.33
537.259	42869.11
537.46	42246.52
537.66	42326.39
537.861	42267
538.062	42244.48
538.263	42615.16
538.463	42318.2
538.664	42244.48
538.865	42219.9
539.065	42332.54
539.266	42305.91
539.466	43151.73
539.667	42150.27
539.868	43000.18
540.068	42772.85
540.269	42361.21
540.469	42760.56
540.67	42318.2
540.87	42424.7
541.071	42420.6
541.271	42383.74
541.472	42656.12
541.672	42285.43
541.873	42289.53
542.073	41824.64
542.274	42535.29
542.474	42056.06
542.675	41732.48
542.875	42699.12
543.075	42477.94
543.276	41869.7
543.476	42617.21
543.676	41908.61
543.877	42912.11
544.077	42224
544.277	42281.34
544.478	42256.76
544.678	42285.43
544.878	42275.19
545.078	42142.08
545.279	42664.31
545.479	42043.77
545.679	42682.74
545.879	41859.46
546.079	42201.47
546.28	42344.83
546.48	41920.9
546.68	42563.96
546.88	42393.98
547.08	42418.55
547.28	42019.2
547.48	41564.55
547.68	42305.91
547.88	42258.81
548.081	42013.05
548.281	42252.67
548.481	42156.41
548.681	42545.53
548.881	42430.84
549.081	41927.04
549.28	41902.46
549.48	42367.35
549.68	41865.6
549.88	42695.03
550.08	41701.76
550.28	42293.63
550.48	42008.96
550.68	42326.39
550.88	42072.45
551.08	42051.97
551.279	42287.48
551.479	41896.32
551.679	42199.42
551.879	41871.75
552.079	42068.35
552.278	41867.65
552.478	41970.05
552.678	41996.67
552.878	41843.07
553.077	41984.38
553.277	41697.67
553.477	42103.17
553.676	42025.34
553.876	41609.61
554.076	41810.31
554.275	41677.19
554.475	41200.01
554.674	42051.97
554.874	41638.28
555.074	41767.3
555.273	41666.95
555.473	41662.85
555.672	41271.69
555.872	41728.39
556.071	41943.42
556.271	41677.19
556.47	41210.25
556.67	40722.83
556.869	41423.24
557.068	41259.4
557.268	41023.89
557.467	41126.28
557.667	40905.1
557.866	40882.58
558.065	40851.86
558.265	40653.2
558.464	40726.93
558.663	41193.87
558.863	40493.46
559.062	40941.97
559.261	40395.16
559.461	40944.02
559.66	40233.37
559.859	40694.16
560.058	40262.04
560.258	40659.35
560.457	40253.85
560.656	40409.5
560.855	40229.27
561.054	40350.1
561.253	40114.59
561.453	40384.92
561.652	40399.26
561.851	40212.89
562.05	39674.27
562.249	39788.96
562.448	39758.24
562.647	39791.01
562.846	39817.63
563.045	39465.38
563.244	39141.8
563.443	39854.5
563.642	39561.64
563.841	39500.2
564.04	39260.58
564.239	39426.47
564.438	39223.72
564.637	39295.4
564.836	39283.11
565.035	38707.63
565.234	39207.34
565.432	39080.36
565.631	38836.66
565.83	38916.53
566.029	38801.84
566.228	38564.28
566.427	38750.64
566.625	38400.44
566.824	37915.07
567.023	38171.07
567.222	37953.98
567.42	38224.31
567.619	38068.67
567.818	37913.02
568.016	37665.22
568.215	37964.22
568.414	37538.24
568.612	38001.08
568.811	37446.08
569.01	37435.84
569.208	37155.27
569.407	37566.91
569.605	36843.98
569.804	37859.77
570.002	36823.5
570.201	37085.64
570.4	36557.27
570.598	36745.68
570.797	36915.66
570.995	36850.13
571.193	36129.24
571.392	36895.18
571.59	36239.83
571.789	36098.52
571.987	36008.41
572.186	36149.72
572.384	35750.37
572.582	36084.19
572.781	35824.09
572.979	35252.71
573.177	35834.33
573.376	35742.17
573.574	35201.51
573.772	35629.54
573.971	34861.55
574.169	35109.35
574.367	34812.4
574.565	35168.74
574.763	35004.91
574.962	34832.88
575.16	34396.66
575.358	34738.67
575.556	34363.89
575.754	34660.85
575.952	34068.98
576.151	34599.41
576.349	33827.32
576.547	33894.91
576.745	34089.46
576.943	34064.89
577.141	33884.67
577.339	33579.52
577.537	33630.72
577.735	33235.46
577.933	33192.45
578.131	33516.03
578.329	32954.89
578.527	32850.44
578.725	32844.3
578.923	32993.8
579.121	32872.97
579.319	32813.58
579.516	32715.28
579.714	32711.18
579.912	32307.73
580.11	32188.95
580.308	32573.97
580.506	32283.16
580.704	31590.94
580.901	32317.97
581.099	32123.41
581.297	31679
581.495	31685.15
581.692	31502.88
581.89	31261.22
582.088	31728.16
582.285	31537.69
582.483	31656.48
582.681	31529.5
582.878	31093.29
583.076	30951.98
583.274	31562.27
583.471	30509.61
583.669	30478.89
583.866	30407.22
584.064	30937.64
584.262	30333.49
584.459	30593.58
584.657	30306.87
584.854	30538.29
585.052	29887.03
585.249	30368.3
585.447	30022.2
585.644	29782.59
585.841	29790.78
586.039	29981.24
586.236	29270.59
586.434	29272.64
586.631	29481.53
586.828	29409.86
587.026	29389.38
587.223	29252.16
587.42	28992.07
587.618	29352.51
587.815	28598.86
588.012	29098.56
588.21	28863.05
588.407	28996.17
588.604	28705.35
588.801	28203.6
588.999	28578.38
589.196	28396.11
589.393	28514.89
589.59	28269.14
589.787	28230.23
589.984	27888.21
590.182	27671.13
590.379	28056.15
590.576	27869.78
590.773	27830.87
590.97	27456.09
591.167	27621.98
591.364	27388.51
591.561	27456.09
591.758	27159.14
591.955	26960.48
592.152	27218.53
592.349	27167.33
592.546	27341.41
592.743	26894.95
592.94	26505.84
593.137	26686.06
593.334	26997.35
593.531	26546.79
593.727	26503.79
593.924	26503.79
594.121	26360.43
594.318	26817.13
594.515	26212.98
594.712	26370.67
594.908	26290.8
595.105	26368.62
595.302	25510.52
595.499	25959.03
595.696	25600.63
595.892	25688.7
596.089	25793.14
596.286	25690.74
596.482	25653.88
596.679	25498.23
596.876	25477.76
597.072	25440.89
597.269	25373.31
597.466	24976
597.662	24877.7
597.859	25219.71
598.055	25225.86
598.252	24799.88
598.448	25053.83
598.645	24820.36
598.841	24550.03
599.038	24781.45
599.234	24603.27
599.431	24322.7
599.627	24302.22
599.824	24517.26
600.02	24179.34
600.217	24234.64
600.413	23915.16
600.609	23675.54
600.806	23673.49
601.002	23964.31
601.198	23726.74
601.395	23667.35
601.591	23585.43
601.787	23775.89
601.984	23446.17
602.18	23773.85
602.376	22930.08
602.572	23106.21
602.769	23288.48
602.965	22870.69
603.161	23077.54
603.357	22839.97
603.553	22760.1
603.75	22713
603.946	22876.83
604.142	22610.6
604.338	22657.7
604.534	22520.49
604.73	22391.47
604.926	22395.56
605.122	22581.93
605.318	22237.87
605.514	22446.76
605.71	22147.76
605.906	21725.88
606.102	21715.64
606.298	21791.41
606.494	21799.6
606.69	21828.27
606.886	21959.34
607.082	21453.5
607.278	21926.58
607.474	21303.99
607.67	21523.13
607.866	21224.12
608.062	21572.28
608.257	21199.55
608.453	21660.34
608.649	21093.05
608.845	20816.58
609.041	21043.9
609.236	21084.86
609.432	20845.25
609.628	20701.89
609.824	20749
610.019	20931.26
610.215	20822.72
610.411	20552.39
610.606	20638.41
610.802	20556.49
610.998	20767.43
611.193	20351.69
611.389	20290.25
611.584	20302.54
611.78	20148.94
611.976	20148.94
612.171	20042.45
612.367	19940.05
612.562	20026.06
612.758	19890.9
612.953	19915.47
613.149	20267.72
613.344	20019.92
613.539	20001.49
613.735	19630.8
613.93	19772.11
614.126	19608.28
614.321	19981.01
614.517	19409.62
614.712	19520.21
614.907	19487.45
615.103	19202.78
615.298	19280.6
615.493	19469.01
615.688	19028.7
615.884	19862.22
616.079	18987.74
616.274	19116.76
616.47	18979.55
616.665	19110.62
616.86	18854.62
617.055	18834.14
617.25	18856.67
617.445	19129.05
617.641	18617.06
617.836	18674.4
618.031	18461.41
618.226	18434.79
618.421	18234.09
618.616	18858.72
618.811	18229.99
619.006	18828
619.201	18010.86
619.396	17992.43
619.591	18047.72
619.786	17924.85
619.981	17795.82
620.176	17787.63
620.371	17674.99
620.566	17294.07
620.761	17564.4
620.956	17814.26
621.151	17380.09
621.346	17603.32
621.541	17130.23
621.735	17238.78
621.93	16976.64
622.125	17251.06
622.32	16722.69
622.515	16808.7
622.709	16761.6
622.904	16827.14
623.099	16608
623.294	16573.19
623.488	16481.03
623.683	16122.63
623.878	16139.02
624.072	16186.12
624.267	16190.22
624.462	16026.38
624.656	15778.58
624.851	15897.36
625.046	15848.21
625.24	15784.72
625.435	15649.55
625.629	15436.56
625.824	15024.92
626.018	15262.49
626.213	14803.74
626.407	15145.75
626.602	14824.22
626.796	14998.3
626.991	15024.92
627.185	14445.35
627.38	14738.21
627.574	14713.63
627.768	14687.01
627.963	14371.62
628.157	14328.61
628.352	14422.82
628.546	14015.27
628.74	14230.31
628.935	14316.33
629.129	14107.43
629.323	13953.84
629.517	13849.39
629.712	13820.72
629.906	13884.2
630.1	13435.7
630.294	13693.74
630.489	13482.8
630.683	13476.66
630.877	13337.4
631.071	13402.93
631.265	13366.07
631.459	13099.83
631.653	13038.39
631.848	13304.63
632.042	13017.91
632.236	12796.73
632.43	12753.73
632.624	12854.08
632.818	12956.47
633.012	12536.64
633.206	12395.33
633.4	12548.93
633.594	12497.73
633.788	12516.16
633.982	12172.1
634.176	12469.06
634.369	12284.74
634.563	12024.65
634.757	12010.31
634.951	12165.96
635.145	11985.74
635.339	12104.52
635.533	11647.82
635.726	11834.19
635.92	11746.12
636.114	11760.46
636.308	11352.91
636.501	11451.22
636.695	11434.83
636.889	11389.78
637.083	11535.18
637.276	11105.11
637.47	11414.35
637.664	11115.35
637.857	11187.03
638.051	11141.97
638.244	10967.9
638.438	10767.2
638.632	10879.83
638.825	10607.45
639.019	10691.42
639.212	10623.84
639.406	10836.83
639.599	10675.04
639.793	10750.81
639.986	10156.9
640.18	10609.5
640.373	10394.47
640.567	10330.98
640.76	10161
640.954	10171.24
641.147	10128.23
641.34	10048.36
641.534	9982.82
641.727	9950.06
641.92	9925.48
642.114	9540.46
642.307	9800.55
642.5	9902.95
642.694	9446.26
642.887	9739.12
643.08	9730.92
643.273	9519.98
643.467	9497.46
643.66	9186.16
643.853	9419.63
644.046	9173.88
644.239	9005.94
644.432	9130.87
644.626	8790.91
644.819	9044.85
645.012	9048.95
645.205	9091.96
645.398	8897.4
645.591	8905.59
645.784	8895.35
645.977	8643.45
646.17	8735.61
646.363	8641.4
646.556	8633.21
646.749	8414.08
646.942	8625.02
647.135	8452.99
647.328	8360.83
647.521	8227.71
647.714	8113.03
647.907	8272.77
648.099	8129.41
648.292	8176.52
648.485	8145.8
648.678	7867.27
648.871	7938.95
649.064	7990.15
649.256	7981.96
649.449	7979.91
649.642	7668.62
649.835	7777.16
650.027	7877.51
650.22	7568.27
650.413	7646.09
650.605	7586.7
650.798	7441.29
650.991	7467.92
651.183	7398.29
651.376	7240.59
651.568	7306.13
651.761	7422.86
651.954	7248.79
652.146	7111.57
652.339	7125.91
652.531	7084.95
652.724	7019.41
652.916	6921.11
653.109	6937.49
653.301	6937.49
653.494	6914.97
653.686	6787.99
653.879	6943.64
654.071	6671.26
654.263	6790.04
654.456	6720.41
654.648	6638.49
654.84	6685.59
655.033	6613.92
655.225	6503.32
655.417	6454.17
655.61	6583.2
655.802	6472.61
655.994	6216.61
656.186	6452.13
656.379	6261.66
656.571	6192.03
656.763	6112.16
656.955	6267.81
657.148	6247.33
657.34	6114.21
657.532	6208.42
657.724	6114.21
657.916	6144.93
658.108	6073.25
658.3	6034.34
658.492	5970.85
658.684	5876.65
658.876	5708.71
659.068	5782.44
659.26	5854.12
659.452	5862.31
659.644	5839.78
659.836	5727.14
660.028	5704.62
660.22	5503.92
660.412	5454.76
660.604	5477.29
660.796	5358.51
660.988	5579.69
661.18	5364.65
661.372	5448.62
661.563	5448.62
661.755	5301.17
661.947	5338.03
662.139	5256.11
662.331	5235.63
662.522	5211.06
662.714	5071.79
662.906	5270.45
663.097	5172.15
663.289	5102.51
663.481	5118.9
663.673	5102.51
663.864	4955.06
664.056	5065.65
664.247	5077.94
664.439	4744.12
664.631	4901.81
664.822	4834.23
665.014	4651.96
665.205	4799.41
665.397	4737.98
665.588	4770.74
665.78	4692.92
665.971	4623.29
666.163	4651.96
666.354	4625.34
666.546	4516.8
666.737	4549.56
666.929	4522.94
667.12	4539.32
667.311	4447.16
667.503	4453.31
667.694	4502.46
667.885	4316.09
668.077	4553.66
668.268	4383.68
668.459	4344.77
668.651	4365.25
668.842	4406.2
669.033	4422.59
669.224	4285.37
669.416	4262.85
669.607	4264.89
669.798	4113.35
669.989	4146.11
670.18	4041.67
670.371	4297.66
670.563	4082.63
670.754	4066.24
670.945	4045.76
671.136	4041.67
671.327	4010.95
671.518	4017.09
671.709	3976.13
671.9	4129.73
672.091	3931.08
672.282	3908.55
672.473	3892.16
672.664	3902.4
672.855	3918.79
673.046	3988.42
673.237	3924.93
673.428	3929.03
673.619	3843.01
673.809	3918.79
674	3785.67
674.191	3912.64
674.382	3752.9
674.573	3775.43
674.764	3759.05
674.954	3695.56
675.145	3812.29
675.336	3679.18
675.527	3646.41
675.717	3722.18
675.908	3632.07
676.099	3627.98
676.289	3699.66
676.48	3570.63
676.671	3652.55
676.861	3638.22
677.052	3462.09
677.243	3466.19
677.433	3636.17
677.624	3492.81
677.814	3627.98
678.005	3501
678.195	3482.57
678.386	3537.87
678.576	3453.9
678.767	3529.67
678.957	3394.51
679.148	3474.38
679.338	3414.99
679.529	3371.98
679.719	3544.01
679.909	3439.56
680.1	3427.28
680.29	3437.52
680.481	3472.33
680.671	3386.32
680.861	3400.65
681.052	3341.26
681.242	3339.21
681.432	3331.02
681.622	3251.15
681.813	3292.11
682.003	3251.15
682.193	3316.69
682.383	3283.92
682.573	3165.14
682.764	3273.68
682.954	3269.58
683.144	3191.76
683.334	3357.64
683.524	3304.4
683.714	3267.53
683.904	3161.04
684.094	3283.92
684.284	3275.73
684.474	3238.86
684.664	3148.75
684.854	3236.81
685.044	3093.46
685.234	3175.38
685.424	3292.11
685.614	3156.94
685.804	3072.98
685.994	3220.43
686.184	3085.26
686.374	3034.07
686.564	3171.28
686.753	3062.74
686.943	3134.42
687.133	3128.27
687.323	3173.33
687.513	3136.46
687.702	3058.64
687.892	3077.07
688.082	3140.56
688.272	3124.18
688.461	3130.32
688.651	3113.94
688.841	3105.74
689.03	2997.2
689.22	2976.72
689.41	2989.01
689.599	2943.96
689.789	3019.73
689.979	2890.71
690.168	3029.97
690.358	2921.43
690.547	3089.36
690.737	3021.78
690.926	3095.5
691.116	2878.42
691.305	3120.08
691.495	3054.55
691.684	3029.97
691.874	3046.35
692.063	3029.97
692.252	3029.97
692.442	3019.73
692.631	2939.86
692.82	2851.8
693.01	2907.09
693.199	3015.63
693.388	2884.56
693.578	2972.63
693.767	3048.4
693.956	2892.76
694.146	2851.8
694.335	2919.38
694.524	2823.12
694.713	3075.03
694.902	2849.75
695.092	2958.29
695.281	2857.94
695.47	2853.84
695.659	3036.11
695.848	2982.87
696.037	2997.2
696.226	3124.18
696.415	2833.36
696.604	2913.24
696.793	2966.48
696.982	2816.98
697.171	2841.56
697.36	2950.1
697.549	2862.04
697.738	2833.36
697.927	2800.6
698.116	2786.26
698.305	2917.33
698.494	2837.46
698.683	2728.92
698.872	2843.6
699.061	2950.1
699.25	2898.9
699.438	2792.41
699.627	2784.21
699.816	2769.88
700.005	2909.14
700.193	2796.5
700.382	2993.11
700.571	2857.94
700.76	2829.27
700.948	2792.41
701.137	2903
701.326	2761.69
701.514	2810.84
701.703	2702.29
701.892	2839.51
702.08	2780.12
702.269	2821.08
702.457	2735.06
702.646	2733.01
702.834	2917.33
703.023	2802.65
703.212	2663.38
703.4	2714.58
703.589	2694.1
703.777	2743.25
703.965	2745.3
704.154	2755.54
704.342	2788.31
704.531	2620.38
704.719	2636.76
704.907	2722.77
705.096	2573.27
705.284	2673.62
705.472	2507.74
705.661	2628.57
705.849	2642.9
706.037	2595.8
706.226	2640.86
706.414	2577.37
706.602	2620.38
706.79	2669.53
706.979	2603.99
707.167	2687.96
707.355	2626.52
707.543	2595.8
707.731	2589.66
707.919	2661.34
708.107	2448.35
708.296	2532.31
708.484	2554.84
708.672	2528.22
708.86	2530.27
709.048	2497.5
709.236	2489.31
709.424	2544.6
709.612	2550.75
709.8	2434.01
709.988	2472.92
710.176	2415.58
710.364	2530.27
710.551	2499.55
710.739	2374.62
710.927	2513.88
711.115	2411.48
711.303	2407.39
711.491	2388.96
711.679	2503.64
711.866	2493.4
712.054	2284.51
712.242	2411.48
712.43	2358.24
712.617	2366.43
712.805	2380.76
712.993	2313.18
713.181	2268.13
713.368	2311.13
713.556	2270.17
713.744	2251.74
713.931	2280.41
714.119	2323.42
714.306	2212.83
714.494	2278.37
714.682	2264.03
714.869	2147.3
715.057	2204.64
715.244	2124.77
715.432	2286.56
715.619	2092
715.807	2137.06
715.994	2221.02
716.182	2165.73
716.369	2245.6
716.556	2231.26
716.744	2194.4
716.931	2264.03
717.119	2128.86
717.306	2188.25
717.493	2057.18
717.681	2147.3
717.868	2180.06
718.055	2067.42
718.242	2159.58
718.43	2053.09
718.617	2216.93
718.804	2077.66
718.991	2079.71
719.179	2132.96
719.366	1950.69
719.553	2034.66
719.74	2061.28
719.927	2048.99
720.114	2048.99
720.301	1901.54
720.488	2020.32
720.676	2098.14
720.863	2008.03
721.05	2057.18
721.237	2005.99
721.424	2038.75
721.611	1999.84
721.798	2026.47
721.985	1940.45
722.172	1936.35
722.358	1727.46
722.545	1870.82
722.732	1958.88
722.919	1919.97
723.106	1858.53
723.293	1883.11
723.48	1887.2
723.667	1872.87
723.853	1881.06
724.04	1848.29
724.227	1749.99
724.414	1735.65
724.6	1723.37
724.787	1776.61
724.974	1864.68
725.161	1850.34
725.347	1772.52
725.534	1858.53
725.72	1811.43
725.907	1805.28
726.094	1799.14
726.28	1864.68
726.467	1786.85
726.653	1762.28
726.84	1715.17
727.027	1776.61
727.213	1821.67
727.4	1838.05
727.586	1608.68
727.773	1709.03
727.959	1721.32
728.145	1709.03
728.332	1719.27
728.518	1670.12
728.705	1721.32
728.891	1706.98
729.077	1715.17
729.264	1510.38
729.45	1657.83
729.636	1618.92
729.823	1704.93
730.009	1600.49
730.195	1604.58
730.382	1649.64
730.568	1694.69
730.754	1596.39
730.94	1489.9
731.126	1594.34
731.313	1580.01
731.499	1661.93
731.685	1588.2
731.871	1690.6
732.057	1661.93
732.243	1551.34
732.429	1582.06
732.615	1537
732.801	1577.96
732.987	1668.07
733.173	1643.49
733.359	1633.26
733.545	1526.76
733.731	1620.97
733.917	1575.91
734.103	1506.28
734.289	1522.66
734.475	1592.3
734.661	1522.66
734.847	1549.29
735.033	1590.25
735.219	1453.03
735.404	1512.42
735.59	1450.99
735.776	1459.18
735.962	1493.99
736.148	1457.13
736.333	1506.28
736.519	1465.32
736.705	1393.64
736.89	1453.03
737.076	1473.51
737.262	1397.74
737.447	1424.36
737.633	1475.56
737.819	1395.69
738.004	1457.13
738.19	1371.12
738.375	1432.55
738.561	1461.23
738.747	1491.95
738.932	1430.51
739.118	1350.64
739.303	1358.83
739.489	1383.4
739.674	1399.79
739.859	1350.64
740.045	1381.35
740.23	1278.96
740.416	1315.82
740.601	1391.59
740.786	1391.59
740.972	1293.29
741.157	1270.76
741.342	1315.82
741.528	1289.2
741.713	1334.25
741.898	1317.87
742.084	1285.1
742.269	1319.92
742.454	1281
742.639	1315.82
742.824	1264.62
743.01	1313.77
743.195	1264.62
743.38	1221.61
743.565	1270.76
743.75	1145.84
743.935	1227.76
744.12	1289.2
744.305	1184.75
744.49	1174.51
744.675	1127.41
744.86	1156.08
745.045	1207.28
745.23	1194.99
745.415	1186.8
745.6	1248.24
745.785	1158.13
745.97	1149.93
746.155	1141.74
746.34	1199.09
746.525	1096.69
746.71	1108.98
746.895	1106.93
747.079	1121.26
747.264	1158.13
747.449	1018.86
747.634	1090.54
747.819	1092.59
748.003	1131.5
748.188	1070.06
748.373	1102.83
748.557	1113.07
748.742	1018.86
748.927	1045.49
749.111	1047.54
749.296	1111.02
749.481	1035.25
749.665	1057.78
749.85	1039.34
750.034	988.14
750.219	1059.82
750.404	1006.58
750.588	1051.63
750.773	1006.58
750.957	965.62
751.141	1010.67
751.326	975.86
751.51	928.75
751.695	893.94
751.879	926.71
752.064	867.31
752.248	949.23
752.432	1014.77
752.617	875.51
752.801	1006.58
752.985	881.65
753.17	934.9
753.354	885.75
753.538	902.13
753.722	920.56
753.907	967.67
754.091	996.34
754.275	881.65
754.459	908.27
754.643	891.89
754.828	840.69
755.012	828.4
755.196	881.65
755.38	830.45
755.564	879.6
755.748	828.4
755.932	875.51
756.116	867.31
756.3	814.07
756.484	818.16
756.668	766.96
756.852	742.39
757.036	824.31
757.22	756.72
757.404	846.84
757.588	824.31
757.772	803.83
757.956	779.25
758.14	764.92
758.323	721.91
758.507	779.25
758.691	748.53
758.875	760.82
759.059	705.53
759.242	697.33
759.426	787.44
759.61	730.1
759.794	785.4
759.977	797.68
760.161	685.05
760.345	695.29
760.528	633.85
760.712	644.09
760.895	742.39
761.079	594.93
761.263	605.17
761.446	742.39
761.63	662.52
761.813	736.24
761.997	680.95
762.18	707.57
762.364	674.81
762.547	633.85
762.731	703.48
762.914	637.94
763.098	629.75
763.281	662.52
763.464	664.57
763.648	766.96
763.831	644.09
764.015	646.13
764.198	678.9
764.381	676.85
764.564	648.18
764.748	607.22
764.931	697.33
765.114	680.95
765.297	637.94
765.481	603.13
765.664	584.7
765.847	596.98
766.03	666.61
766.213	527.35
766.397	596.98
766.58	631.8
766.763	615.41
766.946	613.37
767.129	639.99
767.312	580.6
767.495	631.8
767.678	551.93
767.861	660.47
768.044	615.41
768.227	621.56
768.41	570.36
768.593	588.79
768.776	633.85
768.959	547.83
769.142	664.57
769.324	547.83
769.507	568.31
769.69	531.45
769.873	605.17
770.056	486.39
770.239	556.02
770.421	496.63
770.604	494.58
770.787	588.79
770.97	453.63
771.152	572.41
771.335	617.46
771.518	594.93
771.7	531.45
771.883	500.73
772.066	572.41
772.248	519.16
772.431	545.78
772.613	539.64
772.796	510.97
772.978	549.88
773.161	564.22
773.343	539.64
773.526	519.16
773.708	420.86
773.891	484.34
774.073	494.58
774.256	515.06
774.438	508.92
774.621	513.02
774.803	482.3
774.985	488.44
775.168	482.3
775.35	467.96
775.532	500.73
775.715	457.72
775.897	482.3
776.079	465.91
776.261	404.47
776.444	467.96
776.626	488.44
776.808	420.86
776.99	410.62
777.173	459.77
777.355	474.1
777.537	502.78
777.719	482.3
777.901	404.47
778.083	443.39
778.265	355.32
778.447	500.73
778.629	379.9
778.811	474.1
778.993	365.56
779.175	449.53
779.357	340.99
779.539	367.61
779.721	343.03
779.903	379.9
780.085	412.67
780.267	326.65
780.449	351.23
780.631	373.75
780.812	306.17
780.994	365.56
781.176	394.23
781.358	345.08
781.54	400.38
781.721	359.42
781.903	367.61
782.085	334.84
782.267	383.99
782.448	322.56
782.63	429.05
782.812	400.38
782.993	400.38
783.175	345.08
783.357	326.65
783.538	351.23
783.72	373.75
783.901	424.95
784.083	396.28
784.264	293.88
784.446	324.6
784.627	261.12
784.809	347.13
784.99	345.08
785.172	316.41
785.353	340.99
785.535	343.03
785.716	353.27
785.897	211.96
786.079	293.88
786.26	275.45
786.441	328.7
786.623	263.16
786.804	216.06
786.985	302.08
787.167	345.08
787.348	248.83
787.529	273.4
787.71	316.41
787.891	257.02
788.073	297.98
788.254	250.88
788.435	375.8
788.616	211.96
788.797	285.69
788.978	287.74
789.159	234.49
789.34	224.25
789.522	277.5
789.703	211.96
789.884	238.59
790.065	197.63
790.246	248.83
790.427	207.87
790.607	328.7
790.788	205.82
790.969	199.68
791.15	242.68
791.331	275.45
791.512	254.97
791.693	230.4
791.874	236.54
792.054	248.83
792.235	254.97
792.416	162.81
792.597	263.16
792.778	189.44
792.958	205.82
793.139	228.35
793.32	220.16
793.5	228.35
793.681	224.25
793.862	203.77
794.042	181.25
794.223	236.54
794.404	224.25
794.584	230.4
794.765	158.72
794.945	201.72
795.126	240.64
795.306	191.49
795.487	287.74
795.667	236.54
795.848	236.54
796.028	136.19
796.209	228.35
796.389	195.58
796.57	269.31
796.75	156.67
796.93	183.29
797.111	226.3
797.291	107.52
797.471	175.1
797.652	199.68
797.832	207.87
798.012	175.1
798.192	148.48
798.373	211.96
798.553	48.13
798.733	216.06
798.913	166.91
799.093	117.76
799.274	175.1
799.454	121.85
799.634	132.09
799.814	132.09
799.994	91.13
800.174	218.11
800.354	164.86
800.534	220.16
800.714	203.77
800.894	132.09
801.074	64.51
801.254	183.29
801.434	173.05
801.614	140.29
801.794	134.14
801.974	400.38
802.154	189.44
802.334	144.38
802.514	25.6
802.693	232.44
802.873	177.15
803.053	205.82
803.233	220.16
803.413	72.7
803.592	166.91
803.772	154.62
803.952	119.81
804.131	93.18
804.311	175.1
804.491	160.77
804.67	164.86
804.85	111.61
805.03	103.42
805.209	64.51
805.389	144.38
805.568	173.05
805.748	97.28
805.928	173.05
806.107	123.9
806.287	91.13
806.466	150.53
806.646	107.52
806.825	138.24
807.004	109.57
807.184	150.53
807.363	123.9
807.543	173.05
807.722	91.13
807.901	70.65
808.081	68.61
808.26	23.55
808.439	93.18
808.619	168.96
808.798	82.94
808.977	134.14
809.156	117.76
809.336	138.24
809.515	166.91
809.694	60.42
809.873	158.72
810.052	74.75
810.231	134.14
810.411	60.42
810.59	58.37
810.769	130.05
810.948	68.61
811.127	31.74
811.306	132.09
811.485	103.42
811.664	97.28
811.843	130.05
812.022	113.66
812.201	80.89
812.38	150.53
812.559	125.95
812.737	152.57
812.916	-7.17
813.095	74.75
813.274	31.74
813.453	140.29
813.632	89.09
813.811	72.7
813.989	27.65
814.168	33.79
814.347	74.75
814.526	97.28
814.704	48.13
814.883	54.27
815.062	74.75
815.24	74.75
815.419	66.56
815.598	130.05
815.776	27.65
815.955	93.18
816.133	109.57
816.312	97.28
816.49	130.05
816.669	97.28
816.847	33.79
817.026	113.66
817.204	17.41
817.383	99.33
817.561	97.28
817.74	72.7
817.918	84.99
818.097	128
818.275	-13.31
818.453	66.56
818.632	33.79
818.81	-9.22
818.988	27.65
819.167	46.08
819.345	78.85
819.523	95.23
819.701	125.95
819.879	72.7
820.058	109.57
820.236	93.18
820.414	62.46
820.592	66.56
820.77	115.71
820.948	115.71
821.127	74.75
821.305	136.19
821.483	113.66
821.661	37.89
821.839	80.89
822.017	87.04
822.195	-5.12
822.373	68.61
822.551	54.27
822.729	99.33
822.907	21.5
823.085	29.7
823.262	41.98
823.44	-5.12
823.618	91.13
823.796	60.42
823.974	15.36
824.152	41.98
824.329	35.84
824.507	80.89
824.685	60.42
824.863	121.85
825.04	41.98
825.218	87.04
825.396	93.18
825.574	109.57
825.751	48.13
825.929	35.84
826.107	3.07
826.284	50.18
826.462	82.94
826.639	23.55
826.817	66.56
826.994	78.85
827.172	62.46
827.349	72.7
827.527	117.76
827.704	41.98
827.882	64.51
828.059	82.94
828.237	33.79
828.414	41.98
828.591	64.51
828.769	23.55
828.946	-17.41
829.124	25.6
829.301	48.13
829.478	-15.36
829.655	84.99
829.833	25.6
830.01	-31.74
830.187	105.47
830.364	58.37
830.542	50.18
830.719	25.6
830.896	17.41
831.073	33.79
831.25	33.79
831.427	39.94
831.604	52.22
831.782	-78.85
831.959	56.32
832.136	91.13
832.313	-17.41
832.49	117.76
832.667	-1.02
832.844	50.18
833.021	107.52
833.198	-3.07
833.374	68.61
833.551	9.22
833.728	68.61
833.905	-15.36
834.082	60.42
834.259	-9.22
834.436	97.28
834.612	29.7
834.789	52.22
834.966	80.89
835.143	31.74
835.319	64.51
835.496	66.56
835.673	23.55
835.85	105.47
836.026	25.6
836.203	5.12
836.38	54.27
836.556	48.13
836.733	21.5
836.909	72.7
837.086	-5.12
837.262	23.55
837.439	64.51
837.616	39.94
837.792	62.46
837.968	50.18
838.145	-5.12
838.321	52.22
838.498	68.61
838.674	66.56
838.851	58.37
839.027	-25.6
839.203	1.02
839.38	-21.5
839.556	64.51
839.732	78.85
839.909	80.89
840.085	35.84
840.261	-39.94
840.437	15.36
840.614	50.18
840.79	39.94
840.966	109.57
841.142	-41.98
841.318	58.37
841.494	29.7
841.671	72.7
841.847	56.32
842.023	-15.36
842.199	11.26
842.375	-7.17
842.551	39.94
842.727	29.7
842.903	-19.46
843.079	19.46
843.255	103.42
843.431	17.41
843.607	76.8
843.783	39.94
843.959	68.61
844.134	-1.02
844.31	3.07
844.486	44.03
844.662	46.08
844.838	97.28
845.013	17.41
845.189	31.74
845.365	35.84
845.541	46.08
845.716	41.98
845.892	62.46
846.068	27.65
846.244	68.61
846.419	23.55
846.595	35.84
846.77	48.13
846.946	56.32
847.122	-37.89
847.297	-13.31
847.473	89.09
847.648	66.56
847.824	64.51
847.999	-31.74
848.175	62.46
848.35	68.61
848.526	13.31
848.701	39.94
848.876	1.02
849.052	68.61
849.227	35.84
849.403	78.85
849.578	72.7
849.753	-7.17
849.929	9.22
850.104	21.5
850.279	7.17
850.454	25.6
850.63	50.18
850.805	17.41
850.98	25.6
851.155	50.18
851.33	-17.41
851.505	-17.41
851.681	29.7
851.856	50.18
852.031	-17.41
852.206	-29.7
852.381	-7.17
852.556	9.22
852.731	39.94
852.906	-9.22
853.081	15.36
853.256	21.5
853.431	-7.17
853.606	-7.17
853.781	5.12
853.956	23.55
854.131	46.08
854.305	17.41
854.48	23.55
854.655	-58.37
854.83	-11.26
855.005	1.02
855.18	7.17
855.354	-9.22
855.529	5.12
855.704	31.74
855.879	72.7
856.053	-7.17
856.228	-58.37
856.403	15.36
856.577	50.18
856.752	-39.94
856.926	58.37
857.101	-1.02
857.276	39.94
857.45	-41.98
857.625	41.98
857.799	-5.12
857.974	84.99
858.148	19.46
858.323	37.89
858.497	7.17
858.672	-17.41
858.846	7.17
859.02	1.02
859.195	52.22
859.369	-27.65
859.543	9.22
859.718	-1.02
859.892	39.94
860.066	56.32
860.241	11.26
860.415	52.22
860.589	39.94
860.763	-15.36
860.938	41.98
861.112	56.32
861.286	-23.55
861.46	-80.89
861.634	-5.12
861.808	62.46
861.982	39.94
862.157	-13.31
862.331	87.04
862.505	-21.5
862.679	-3.07
862.853	-31.74
863.027	48.13
863.201	87.04
863.375	21.5
863.549	41.98
863.722	13.31
863.896	35.84
864.07	-33.79
864.244	-23.55
864.418	74.75
864.592	-1.02
864.766	-5.12
864.939	89.09
865.113	-31.74
865.287	41.98
865.461	-64.51
865.634	78.85
865.808	44.03
865.982	35.84
866.156	50.18
866.329	-9.22
866.503	39.94
866.676	50.18
866.85	11.26
867.024	56.32
867.197	15.36
867.371	48.13
867.544	17.41
867.718	-70.65
867.891	19.46
868.065	-19.46
868.238	-3.07
868.412	17.41
868.585	-19.46
868.759	15.36
868.932	-13.31
869.105	-46.08
869.279	39.94
869.452	-1.02
869.625	21.5
869.799	15.36
869.972	27.65
870.145	23.55
870.319	58.37
870.492	-19.46
870.665	15.36
870.838	29.7
871.011	-25.6
871.185	48.13
871.358	7.17
871.531	64.51
871.704	-33.79
871.877	-29.7
872.05	-72.7
872.223	11.26
872.396	-7.17
872.569	15.36
872.742	7.17
872.915	23.55
873.088	31.74
873.261	5.12
873.434	15.36
873.607	27.65
873.78	-17.41
873.953	3.07
874.126	-17.41
874.299	66.56
874.471	58.37
874.644	72.7
874.817	-41.98
874.99	-9.22
875.163	1.02
875.335	19.46
875.508	-52.22
875.681	21.5
875.853	-17.41
876.026	15.36
876.199	7.17
876.371	-29.7
876.544	5.12
876.717	-48.13
876.889	-33.79
877.062	-5.12
877.234	-37.89
877.407	-11.26
877.579	50.18
877.752	66.56
877.924	-33.79
878.097	3.07
878.269	-1.02
878.442	-29.7
878.614	56.32
878.786	37.89
878.959	25.6
879.131	48.13
879.303	64.51
879.476	-13.31
879.648	11.26
879.82	31.74
879.993	-7.17
880.165	60.42
880.337	-54.27
880.509	15.36
880.681	-3.07
880.854	31.74
881.026	19.46
881.198	7.17
881.37	-23.55
881.542	29.7
881.714	-1.02
881.886	52.22
882.058	-1.02
882.23	33.79
882.402	-1.02
882.574	-1.02
882.746	25.6
882.918	-89.09
883.09	-13.31
883.262	-31.74
883.434	62.46
883.606	-17.41
883.778	-7.17
883.95	27.65
884.122	113.66
884.293	15.36
884.465	1.02
884.637	-46.08
884.809	-11.26
884.98	23.55
885.152	3.07
885.324	-64.51
885.496	-13.31
885.667	-72.7
885.839	-19.46
886.011	33.79
886.182	52.22
886.354	-21.5
886.525	-7.17
886.697	19.46
886.869	-15.36
887.04	-7.17
887.212	-23.55
887.383	35.84
887.555	-39.94
887.726	82.94
887.897	-39.94
888.069	-23.55
888.24	25.6
888.412	68.61
888.583	19.46
888.754	15.36
888.926	-3.07
889.097	17.41
889.268	33.79
889.44	-41.98
889.611	52.22
889.782	-27.65
889.953	-7.17
890.125	58.37
890.296	3.07
890.467	-21.5
890.638	-44.03
890.809	-41.98
890.98	-7.17
891.151	-27.65
891.323	-25.6
891.494	7.17
891.665	11.26
891.836	-1.02
892.007	3.07
892.178	1.02
892.349	-9.22
892.52	74.75
892.691	-25.6
892.862	-29.7
893.032	-19.46
893.203	7.17
893.374	50.18
893.545	37.89
893.716	-50.18
893.887	15.36
894.057	-21.5
894.228	58.37
894.399	23.55
894.57	9.22
894.74	-35.84
894.911	-19.46
895.082	9.22
895.253	-56.32
895.423	-1.02
895.594	-9.22
895.764	-19.46
895.935	-9.22
896.106	84.99
896.276	29.7
896.447	52.22
896.617	-21.5
896.788	-9.22
896.958	-25.6
897.129	1.02
897.299	-3.07
897.47	44.03
897.64	-13.31
897.81	41.98
897.981	46.08
898.151	-25.6
898.322	-48.13
898.492	19.46
898.662	-25.6
898.832	-7.17
899.003	-9.22
899.173	-56.32
899.343	39.94
899.513	82.94
