Data from USB4F104151__249__14-01-30-453.txt Node

Date: Thu Mar 13 14:01:30 EDT 2025
User: louis
Spectrometer: USB4F10415
Trigger mode: 4
Integration Time (sec): 1.000000E-2
Scans to average: 1
Electric dark correction enabled: true
Nonlinearity correction enabled: false
Boxcar width: 0
XAxis mode: Wavelengths
Number of Pixels in Spectrum: 3648
>>>>>Begin Spectral Data<<<<<
178.204	-29.87
178.424	-29.87
178.644	-29.87
178.864	-50.35
179.084	-58.54
179.304	-29.87
179.524	25.43
179.744	-1.19
179.964	2.9
180.184	-33.96
180.404	-29.87
180.624	25.43
180.844	-21.67
181.064	4.95
181.283	-9.39
181.503	47.96
181.723	19.29
181.943	-58.54
182.163	43.86
182.383	-54.44
182.602	-42.15
182.822	37.72
183.042	50
183.262	-33.96
183.482	-7.34
183.701	41.81
183.921	-42.15
184.141	-50.35
184.361	-3.24
184.58	31.57
184.8	-68.78
185.02	-56.49
185.239	56.15
185.459	-15.53
185.679	-13.48
185.898	-9.39
186.118	-40.11
186.338	-13.48
186.557	-33.96
186.777	-31.91
186.997	33.62
187.216	-40.11
187.436	47.96
187.655	23.38
187.875	-13.48
188.095	-19.63
188.314	11.09
188.534	-7.34
188.753	-42.15
188.973	2.9
189.192	-23.72
189.412	-33.96
189.631	80.72
189.851	7
190.07	47.96
190.29	-7.34
190.509	21.33
190.729	-1.19
190.948	13.14
191.168	50
191.387	27.48
191.607	-23.72
191.826	23.38
192.045	39.76
192.265	-48.3
192.484	-5.29
192.704	33.62
192.923	-54.44
193.142	19.29
193.362	-23.72
193.581	-17.58
193.8	56.15
194.02	39.76
194.239	0.85
194.458	27.48
194.678	-56.49
194.897	7
195.116	19.29
195.335	-9.39
195.555	21.33
195.774	-11.43
195.993	56.15
196.212	21.33
196.432	15.19
196.651	7
196.87	11.09
197.089	101.2
197.308	11.09
197.528	-23.72
197.747	33.62
197.966	86.87
198.185	29.52
198.404	15.19
198.623	15.19
198.842	-36.01
199.062	109.4
199.281	41.81
199.5	33.62
199.719	-17.58
199.938	-42.15
200.157	0.85
200.376	37.72
200.595	15.19
200.814	54.1
201.033	33.62
201.252	11.09
201.471	68.44
201.69	-36.01
201.909	9.05
202.128	-23.72
202.347	29.52
202.566	-1.19
202.785	-9.39
203.004	43.86
203.223	86.87
203.442	27.48
203.661	39.76
203.879	-19.63
204.098	33.62
204.317	-3.24
204.536	-1.19
204.755	-42.15
204.974	0.85
205.193	58.2
205.411	21.33
205.63	-21.67
205.849	-46.25
206.068	-56.49
206.287	4.95
206.505	-19.63
206.724	-74.92
206.943	-48.3
207.162	-9.39
207.381	-27.82
207.599	-5.29
207.818	-9.39
208.037	-33.96
208.255	-46.25
208.474	-9.39
208.693	-50.35
208.911	15.19
209.13	17.24
209.349	-5.29
209.567	37.72
209.786	-17.58
210.005	-40.11
210.223	43.86
210.442	0.85
210.661	74.58
210.879	-1.19
211.098	4.95
211.316	-9.39
211.535	31.57
211.753	-40.11
211.972	31.57
212.191	13.14
212.409	21.33
212.628	17.24
212.846	-29.87
213.065	-19.63
213.283	56.15
213.502	-9.39
213.72	-9.39
213.938	-74.92
214.157	9.05
214.375	15.19
214.594	-7.34
214.812	-13.48
215.031	-5.29
215.249	-7.34
215.467	31.57
215.686	35.67
215.904	-9.39
216.122	9.05
216.341	-17.58
216.559	-9.39
216.778	19.29
216.996	19.29
217.214	11.09
217.432	-29.87
217.651	-17.58
217.869	19.29
218.087	21.33
218.306	7
218.524	47.96
218.742	-21.67
218.96	-3.24
219.179	23.38
219.397	31.57
219.615	11.09
219.833	52.05
220.051	0.85
220.27	-19.63
220.488	0.85
220.706	43.86
220.924	-7.34
221.142	-56.49
221.36	52.05
221.578	-1.19
221.796	-5.29
222.015	33.62
222.233	4.95
222.451	15.19
222.669	11.09
222.887	0.85
223.105	39.76
223.323	64.34
223.541	60.24
223.759	-7.34
223.977	4.95
224.195	25.43
224.413	-27.82
224.631	-3.24
224.849	39.76
225.067	41.81
225.285	-15.53
225.503	29.52
225.721	-42.15
225.939	25.43
226.157	-17.58
226.375	86.87
226.592	13.14
226.81	97.11
227.028	15.19
227.246	-56.49
227.464	35.67
227.682	-1.19
227.9	-19.63
228.117	9.05
228.335	9.05
228.553	-7.34
228.771	-5.29
228.989	97.11
229.206	-36.01
229.424	-36.01
229.642	-31.91
229.86	15.19
230.077	-3.24
230.295	-29.87
230.513	15.19
230.731	41.81
230.948	-1.19
231.166	39.76
231.384	7
231.601	-5.29
231.819	7
232.037	0.85
232.254	2.9
232.472	-36.01
232.689	17.24
232.907	29.52
233.125	-25.77
233.342	31.57
233.56	-64.68
233.777	-9.39
233.995	-29.87
234.213	0.85
234.43	15.19
234.648	19.29
234.865	27.48
235.083	56.15
235.3	-17.58
235.518	-7.34
235.735	37.72
235.953	97.11
236.17	2.9
236.388	-40.11
236.605	15.19
236.822	11.09
237.04	35.67
237.257	39.76
237.475	-56.49
237.692	13.14
237.909	29.52
238.127	2.9
238.344	-25.77
238.562	7
238.779	-13.48
238.996	-38.06
239.214	4.95
239.431	-3.24
239.648	35.67
239.865	-29.87
240.083	0.85
240.3	41.81
240.517	-107.69
240.735	-13.48
240.952	64.34
241.169	-62.63
241.386	9.05
241.603	31.57
241.821	-33.96
242.038	58.2
242.255	17.24
242.472	-40.11
242.689	-58.54
242.907	-31.91
243.124	15.19
243.341	-87.21
243.558	15.19
243.775	23.38
243.992	-31.91
244.209	27.48
244.426	-15.53
244.643	33.62
244.86	11.09
245.078	-7.34
245.295	-9.39
245.512	-52.39
245.729	56.15
245.946	-56.49
246.163	23.38
246.38	31.57
246.597	-13.48
246.814	74.58
247.031	56.15
247.248	-3.24
247.464	0.85
247.681	56.15
247.898	97.11
248.115	41.81
248.332	78.68
248.549	-19.63
248.766	47.96
248.983	2.9
249.2	117.59
249.417	9.05
249.633	47.96
249.85	72.53
250.067	-21.67
250.284	47.96
250.501	43.86
250.717	25.43
250.934	-9.39
251.151	-25.77
251.368	47.96
251.585	11.09
251.801	-15.53
252.018	-58.54
252.235	9.05
252.451	2.9
252.668	-62.63
252.885	64.34
253.102	-13.48
253.318	-9.39
253.535	41.81
253.752	21.33
253.968	-3.24
254.185	21.33
254.401	54.1
254.618	0.85
254.835	0.85
255.051	17.24
255.268	-1.19
255.484	2.9
255.701	-5.29
255.917	115.54
256.134	-9.39
256.351	7
256.567	-42.15
256.784	50
257	47.96
257.217	68.44
257.433	-17.58
257.65	93.01
257.866	-19.63
258.082	-1.19
258.299	0.85
258.515	25.43
258.732	7
258.948	52.05
259.165	-1.19
259.381	27.48
259.597	-7.34
259.814	39.76
260.03	2.9
260.246	-31.91
260.463	0.85
260.679	-33.96
260.895	-36.01
261.112	-7.34
261.328	-17.58
261.544	39.76
261.761	27.48
261.977	31.57
262.193	-13.48
262.409	31.57
262.626	-36.01
262.842	21.33
263.058	33.62
263.274	33.62
263.49	-29.87
263.707	-33.96
263.923	31.57
264.139	52.05
264.355	-38.06
264.571	-1.19
264.787	-21.67
265.004	39.76
265.22	-17.58
265.436	-74.92
265.652	2.9
265.868	-11.43
266.084	-25.77
266.3	-48.3
266.516	11.09
266.732	-42.15
266.948	0.85
267.164	19.29
267.38	80.72
267.596	35.67
267.812	-40.11
268.028	70.48
268.244	-25.77
268.46	-17.58
268.676	-1.19
268.892	0.85
269.108	-76.97
269.324	9.05
269.54	39.76
269.756	0.85
269.972	68.44
270.188	-25.77
270.403	-56.49
270.619	47.96
270.835	-19.63
271.051	35.67
271.267	2.9
271.483	-48.3
271.698	-21.67
271.914	29.52
272.13	39.76
272.346	-33.96
272.562	-21.67
272.777	-23.72
272.993	72.53
273.209	86.87
273.425	86.87
273.64	84.82
273.856	-9.39
274.072	27.48
274.287	4.95
274.503	50
274.719	45.91
274.934	50
275.15	-101.55
275.366	-7.34
275.581	11.09
275.797	31.57
276.012	9.05
276.228	15.19
276.444	-3.24
276.659	15.19
276.875	9.05
277.09	113.49
277.306	43.86
277.521	-9.39
277.737	-72.87
277.952	50
278.168	11.09
278.383	35.67
278.599	29.52
278.814	2.9
279.03	50
279.245	60.24
279.461	-7.34
279.676	-17.58
279.892	7
280.107	27.48
280.322	2.9
280.538	7
280.753	-33.96
280.969	52.05
281.184	-13.48
281.399	41.81
281.615	-17.58
281.83	43.86
282.045	-25.77
282.26	-113.83
282.476	41.81
282.691	-27.82
282.906	-27.82
283.122	7
283.337	-5.29
283.552	58.2
283.767	4.95
283.983	72.53
284.198	-13.48
284.413	19.29
284.628	-27.82
284.843	-48.3
285.058	-13.48
285.274	-9.39
285.489	-9.39
285.704	17.24
285.919	25.43
286.134	19.29
286.349	43.86
286.564	29.52
286.779	39.76
286.995	7
287.21	7
287.425	11.09
287.64	-15.53
287.855	-29.87
288.07	4.95
288.285	-58.54
288.5	7
288.715	78.68
288.93	41.81
289.145	0.85
289.36	-25.77
289.575	-11.43
289.79	39.76
290.004	15.19
290.219	-74.92
290.434	-31.91
290.649	37.72
290.864	27.48
291.079	39.76
291.294	17.24
291.509	-11.43
291.724	-25.77
291.938	43.86
292.153	-21.67
292.368	-40.11
292.583	29.52
292.798	-44.2
293.012	15.19
293.227	52.05
293.442	27.48
293.657	47.96
293.871	39.76
294.086	64.34
294.301	45.91
294.516	-23.72
294.73	33.62
294.945	19.29
295.16	-13.48
295.374	-42.15
295.589	33.62
295.804	-38.06
296.018	7
296.233	-29.87
296.447	-1.19
296.662	60.24
296.877	-42.15
297.091	-31.91
297.306	-17.58
297.52	23.38
297.735	-46.25
297.949	101.2
298.164	35.67
298.378	29.52
298.593	0.85
298.807	-9.39
299.022	68.44
299.236	-56.49
299.451	50
299.665	-5.29
299.88	78.68
300.094	-42.15
300.309	-36.01
300.523	-3.24
300.737	47.96
300.952	29.52
301.166	-5.29
301.381	-11.43
301.595	76.63
301.809	0.85
302.024	21.33
302.238	37.72
302.452	31.57
302.667	-50.35
302.881	58.2
303.095	52.05
303.309	-31.91
303.524	-42.15
303.738	-9.39
303.952	7
304.166	70.48
304.381	13.14
304.595	21.33
304.809	-17.58
305.023	-31.91
305.237	-1.19
305.452	11.09
305.666	37.72
305.88	50
306.094	13.14
306.308	54.1
306.522	80.72
306.736	21.33
306.95	39.76
307.164	41.81
307.379	-9.39
307.593	47.96
307.807	-31.91
308.021	-7.34
308.235	9.05
308.449	0.85
308.663	-44.2
308.877	105.3
309.091	58.2
309.305	0.85
309.519	-3.24
309.733	11.09
309.947	-17.58
310.161	74.58
310.374	19.29
310.588	-5.29
310.802	-52.39
311.016	29.52
311.23	4.95
311.444	-66.73
311.658	27.48
311.872	52.05
312.085	-17.58
312.299	97.11
312.513	41.81
312.727	11.09
312.941	-40.11
313.154	-1.19
313.368	27.48
313.582	7
313.796	17.24
314.009	-29.87
314.223	62.29
314.437	-25.77
314.651	2.9
314.864	-38.06
315.078	29.52
315.292	15.19
315.505	21.33
315.719	72.53
315.933	-50.35
316.146	-50.35
316.36	9.05
316.573	64.34
316.787	39.76
317.001	23.38
317.214	4.95
317.428	39.76
317.641	-7.34
317.855	31.57
318.068	35.67
318.282	-33.96
318.495	-36.01
318.709	31.57
318.922	13.14
319.136	43.86
319.349	33.62
319.563	7
319.776	9.05
319.99	54.1
320.203	-83.11
320.417	31.57
320.63	33.62
320.843	66.39
321.057	-48.3
321.27	54.1
321.483	23.38
321.697	21.33
321.91	-50.35
322.124	-1.19
322.337	-29.87
322.55	19.29
322.763	15.19
322.977	35.67
323.19	-13.48
323.403	64.34
323.617	-33.96
323.83	41.81
324.043	11.09
324.256	-9.39
324.469	-27.82
324.683	25.43
324.896	41.81
325.109	-48.3
325.322	-33.96
325.535	17.24
325.748	-33.96
325.962	-19.63
326.175	17.24
326.388	-13.48
326.601	-1.19
326.814	7
327.027	-42.15
327.24	-25.77
327.453	-29.87
327.666	-5.29
327.879	17.24
328.092	39.76
328.305	86.87
328.518	23.38
328.731	-25.77
328.944	76.63
329.157	47.96
329.37	7
329.583	-58.54
329.796	41.81
330.009	-3.24
330.222	41.81
330.435	-48.3
330.648	31.57
330.861	52.05
331.073	27.48
331.286	23.38
331.499	101.2
331.712	15.19
331.925	41.81
332.138	-85.16
332.35	-5.29
332.563	-7.34
332.776	31.57
332.989	-9.39
333.202	-25.77
333.414	-13.48
333.627	31.57
333.84	-58.54
334.053	52.05
334.265	0.85
334.478	2.9
334.691	17.24
334.903	58.2
335.116	-3.24
335.329	-5.29
335.541	37.72
335.754	29.52
335.966	21.33
336.179	25.43
336.392	15.19
336.604	37.72
336.817	-31.91
337.029	97.11
337.242	9.05
337.454	64.34
337.667	39.76
337.88	-9.39
338.092	-17.58
338.305	52.05
338.517	39.76
338.729	11.09
338.942	29.52
339.154	23.38
339.367	41.81
339.579	-5.29
339.792	-7.34
340.004	50
340.217	-29.87
340.429	31.57
340.641	4.95
340.854	31.57
341.066	76.63
341.278	7
341.491	50
341.703	25.43
341.915	-13.48
342.128	0.85
342.34	-31.91
342.552	31.57
342.764	13.14
342.977	31.57
343.189	-1.19
343.401	-7.34
343.613	-7.34
343.826	-9.39
344.038	17.24
344.25	95.06
344.462	-25.77
344.674	-5.29
344.886	-48.3
345.099	41.81
345.311	-3.24
345.523	-97.45
345.735	19.29
345.947	-9.39
346.159	-23.72
346.371	97.11
346.583	-9.39
346.795	76.63
347.007	-13.48
347.219	15.19
347.431	80.72
347.643	-33.96
347.855	-33.96
348.067	27.48
348.279	-27.82
348.491	-23.72
348.703	15.19
348.915	31.57
349.127	17.24
349.339	0.85
349.551	13.14
349.763	45.91
349.975	-21.67
350.187	80.72
350.399	-44.2
350.61	-21.67
350.822	7
351.034	21.33
351.246	11.09
351.458	4.95
351.669	25.43
351.881	56.15
352.093	21.33
352.305	4.95
352.517	-29.87
352.728	21.33
352.94	45.91
353.152	-25.77
353.363	54.1
353.575	31.57
353.787	103.25
353.999	74.58
354.21	72.53
354.422	15.19
354.633	-13.48
354.845	-31.91
355.057	66.39
355.268	-15.53
355.48	-13.48
355.692	4.95
355.903	-17.58
356.115	0.85
356.326	17.24
356.538	50
356.749	11.09
356.961	88.92
357.172	-25.77
357.384	60.24
357.595	11.09
357.807	47.96
358.018	-3.24
358.23	-3.24
358.441	-7.34
358.653	2.9
358.864	-70.83
359.075	47.96
359.287	37.72
359.498	-13.48
359.709	60.24
359.921	-33.96
360.132	84.82
360.344	-31.91
360.555	72.53
360.766	76.63
360.977	23.38
361.189	84.82
361.4	-17.58
361.611	-31.91
361.823	23.38
362.034	58.2
362.245	-52.39
362.456	41.81
362.667	43.86
362.879	31.57
363.09	56.15
363.301	23.38
363.512	9.05
363.723	21.33
363.935	27.48
364.146	17.24
364.357	13.14
364.568	11.09
364.779	25.43
364.99	7
365.201	7
365.412	-15.53
365.623	2.9
365.834	-27.82
366.045	-9.39
366.256	-27.82
366.467	45.91
366.678	33.62
366.889	13.14
367.1	-9.39
367.311	35.67
367.522	41.81
367.733	27.48
367.944	-1.19
368.155	-25.77
368.366	27.48
368.577	-52.39
368.788	31.57
368.999	66.39
369.209	23.38
369.42	68.44
369.631	35.67
369.842	-7.34
370.053	41.81
370.264	43.86
370.474	-11.43
370.685	-9.39
370.896	21.33
371.107	9.05
371.317	74.58
371.528	-5.29
371.739	21.33
371.95	11.09
372.16	13.14
372.371	47.96
372.582	-17.58
372.792	80.72
373.003	13.14
373.214	52.05
373.424	-3.24
373.635	66.39
373.846	25.43
374.056	-58.54
374.267	33.62
374.477	33.62
374.688	41.81
374.898	23.38
375.109	58.2
375.319	-7.34
375.53	52.05
375.74	17.24
375.951	39.76
376.161	-9.39
376.372	35.67
376.582	-58.54
376.793	-21.67
377.003	-17.58
377.214	-23.72
377.424	4.95
377.635	-7.34
377.845	0.85
378.055	43.86
378.266	-13.48
378.476	68.44
378.686	-31.91
378.897	9.05
379.107	62.29
379.317	9.05
379.528	-52.39
379.738	7
379.948	25.43
380.158	-9.39
380.369	-17.58
380.579	95.06
380.789	-3.24
380.999	41.81
381.21	25.43
381.42	39.76
381.63	33.62
381.84	0.85
382.05	88.92
382.261	-46.25
382.471	19.29
382.681	21.33
382.891	66.39
383.101	27.48
383.311	-11.43
383.521	27.48
383.731	-19.63
383.941	56.15
384.151	56.15
384.361	27.48
384.571	47.96
384.781	0.85
384.991	41.81
385.201	56.15
385.411	23.38
385.621	13.14
385.831	-3.24
386.041	47.96
386.251	76.63
386.461	43.86
386.671	-17.58
386.881	64.34
387.091	15.19
387.301	76.63
387.511	19.29
387.72	-38.06
387.93	-38.06
388.14	39.76
388.35	50
388.56	43.86
388.769	56.15
388.979	31.57
389.189	58.2
389.399	35.67
389.609	64.34
389.818	78.68
390.028	66.39
390.238	17.24
390.447	-1.19
390.657	-15.53
390.867	7
391.076	-13.48
391.286	33.62
391.496	33.62
391.705	-11.43
391.915	52.05
392.125	56.15
392.334	-15.53
392.544	70.48
392.753	62.29
392.963	93.01
393.172	58.2
393.382	37.72
393.591	-7.34
393.801	21.33
394.01	35.67
394.22	4.95
394.429	15.19
394.639	11.09
394.848	54.1
395.058	-21.67
395.267	56.15
395.477	-9.39
395.686	-5.29
395.895	23.38
396.105	33.62
396.314	64.34
396.524	21.33
396.733	13.14
396.942	39.76
397.152	7
397.361	117.59
397.57	64.34
397.78	43.86
397.989	-50.35
398.198	70.48
398.407	17.24
398.617	29.52
398.826	0.85
399.035	21.33
399.244	31.57
399.453	27.48
399.663	39.76
399.872	11.09
400.081	78.68
400.29	64.34
400.499	-3.24
400.708	90.96
400.917	33.62
401.127	56.15
401.336	25.43
401.545	119.64
401.754	66.39
401.963	39.76
402.172	17.24
402.381	97.11
402.59	27.48
402.799	4.95
403.008	68.44
403.217	19.29
403.426	21.33
403.635	72.53
403.844	117.59
404.053	41.81
404.262	138.07
404.471	111.44
404.68	58.2
404.888	99.16
405.097	58.2
405.306	131.92
405.515	47.96
405.724	123.73
405.933	74.58
406.142	117.59
406.35	23.38
406.559	101.2
406.768	41.81
406.977	144.21
407.185	39.76
407.394	162.64
407.603	86.87
407.812	115.54
408.02	160.59
408.229	142.16
408.438	150.36
408.646	115.54
408.855	187.22
409.064	224.08
409.272	105.3
409.481	183.12
409.69	193.36
409.898	174.93
410.107	109.4
410.315	93.01
410.524	148.31
410.733	138.07
410.941	109.4
411.15	123.73
411.358	236.37
411.567	234.32
411.775	291.66
411.984	179.03
412.192	199.51
412.401	248.66
412.609	226.13
412.818	285.52
413.026	297.81
413.234	240.47
413.443	226.13
413.651	312.14
413.86	353.1
414.068	375.63
414.276	301.9
414.485	361.3
414.693	367.44
414.901	326.48
415.11	322.38
415.318	461.65
415.526	328.53
415.734	430.93
415.943	406.35
416.151	494.41
416.359	406.35
416.567	518.99
416.776	486.22
416.984	523.09
417.192	435.02
417.4	490.32
417.608	586.57
417.817	516.94
418.025	637.77
418.233	678.73
418.441	619.34
418.649	623.44
418.857	645.96
419.065	756.55
419.273	697.16
419.481	605
419.689	703.31
419.897	842.57
420.105	799.56
420.313	867.14
420.521	949.06
420.729	897.86
420.937	891.72
421.145	971.59
421.353	1030.98
421.561	1055.56
421.769	1063.75
421.977	1080.13
422.185	1020.74
422.393	1119.04
422.601	1274.69
422.809	1225.54
423.017	1342.27
423.224	1334.08
423.432	1301.31
423.64	1399.62
423.848	1497.92
424.056	1424.19
424.263	1413.95
424.471	1532.73
424.679	1561.41
424.887	1639.23
425.094	1745.72
425.302	1864.5
425.51	1780.54
425.718	1891.13
425.925	1882.94
426.133	1958.71
426.341	2089.78
426.548	2079.54
426.756	2175.8
426.964	2143.03
427.171	2272.05
427.379	2300.72
427.586	2399.02
427.794	2249.52
428.001	2534.19
428.209	2564.91
428.417	2583.34
428.624	2874.15
428.832	2792.23
429.039	2790.19
429.247	2728.75
429.454	3105.57
429.662	3261.22
429.869	2999.08
430.076	3244.84
430.284	3162.92
430.491	3236.64
430.699	3461.92
430.906	3554.08
431.114	3519.26
431.321	3703.58
431.528	3869.47
431.736	4014.87
431.943	4162.33
432.15	3943.19
432.358	4045.59
432.565	4258.58
432.772	4266.77
432.979	4584.21
433.187	4543.25
433.394	4586.26
433.601	4887.31
433.808	4872.97
434.016	4782.86
434.223	5022.47
434.43	5274.37
434.637	5298.95
434.844	5665.53
435.052	5782.27
435.259	5759.74
435.466	5909.24
435.673	5765.89
435.88	6044.41
436.087	6238.97
436.294	6421.24
436.501	6275.83
436.708	6456.05
436.915	6537.97
437.122	6877.93
437.329	6742.77
437.537	6959.85
437.743	7293.67
437.95	7228.14
438.157	7328.49
438.364	7813.85
438.571	7647.97
438.778	7635.68
438.985	8630.99
439.192	8106.71
439.399	8307.41
439.606	8039.13
439.813	8426.2
440.02	9290.44
440.227	9081.55
440.433	8952.52
440.64	9177.8
440.847	9173.71
441.054	9423.56
441.261	10095.29
441.467	9865.92
441.674	10097.34
441.881	10519.22
442.088	10644.15
442.294	10386.1
442.501	10422.97
442.708	10717.87
442.914	11158.19
443.121	11621.03
443.328	11514.53
443.534	12061.34
443.741	11877.02
443.948	11813.54
444.154	12366.49
444.361	12450.46
444.568	12313.24
444.774	12503.7
444.981	12681.88
445.187	13048.46
445.394	13605.51
445.6	13326.99
445.807	14856.82
446.013	14211.71
446.22	14582.39
446.426	14885.49
446.633	14998.13
446.839	15487.59
447.046	14887.54
447.252	15598.18
447.459	15657.57
447.665	15690.34
447.871	16329.31
448.078	17148.5
448.284	16325.21
448.491	16759.38
448.697	17361.48
448.903	17666.63
449.11	17693.26
449.316	17408.59
449.522	17646.15
449.728	18309.69
449.935	18403.9
450.141	18541.11
450.347	18954.8
450.553	18086.47
450.76	18510.39
450.966	18989.62
451.172	18719.29
451.378	19397.17
451.584	19001.91
451.791	19305.01
451.997	19266.1
452.203	19558.95
452.409	19636.78
452.615	19669.55
452.821	18848.31
453.027	18827.83
453.233	19544.62
453.44	18811.45
453.646	18973.24
453.852	19266.1
454.058	19425.84
454.264	18711.1
454.47	19278.38
454.676	18723.38
454.882	19311.15
455.088	17928.77
455.294	17726.02
455.5	18274.88
455.705	18483.77
455.911	17619.53
456.117	17330.76
456.323	17185.36
456.529	16343.64
456.735	16998.99
456.941	16581.21
457.147	16204.38
457.352	15809.12
457.558	15569.51
457.764	15432.3
457.97	15305.32
458.176	14979.7
458.381	14910.07
458.587	14416.51
458.793	14459.51
458.999	13548.17
459.204	14652.02
459.41	14137.98
459.616	13189.77
459.821	13212.3
460.027	13052.56
460.233	12948.11
460.438	12171.93
460.644	12200.6
460.85	12047.01
461.055	11631.27
461.261	11774.63
461.466	10656.43
461.672	10476.21
461.878	11043.5
462.083	10508.98
462.289	10349.24
462.494	10191.55
462.7	9927.36
462.905	9523.91
463.111	9726.66
463.316	9736.9
463.522	9661.12
463.727	9710.27
463.932	9640.64
464.138	9409.22
464.343	9534.15
464.549	9306.82
464.754	9599.68
464.959	9566.92
465.165	9355.97
465.37	9069.26
465.575	8874.7
465.781	9192.14
465.986	9204.42
466.191	8846.03
466.397	8737.49
466.602	8436.44
466.807	8723.15
467.012	8649.43
467.218	8577.75
467.423	8479.44
467.628	8583.89
467.833	8966.86
468.038	8508.12
468.244	8321.75
468.449	8612.56
468.654	8487.64
468.859	8338.13
469.064	8209.11
469.269	7781.09
469.474	8010.46
469.679	8039.13
469.885	7873.25
470.09	7932.64
470.295	7891.68
470.5	7893.72
470.705	7658.21
470.91	7705.31
471.115	7498.47
471.32	7805.66
471.525	7477.99
471.73	7559.91
471.935	7400.16
472.139	7111.4
472.344	7383.78
472.549	7265
472.754	7148.26
472.959	7035.63
473.164	6732.53
473.369	6793.97
473.574	6968.04
473.778	6882.03
473.983	6931.18
474.188	6720.24
474.393	6576.88
474.598	6658.8
474.802	6396.66
475.007	6427.38
475.212	6390.52
475.417	6210.29
475.621	6191.86
475.826	6288.12
476.031	6216.44
476.235	5974.78
476.44	6189.81
476.645	5950.2
476.849	6025.98
477.054	5923.58
477.259	5896.96
477.463	5800.7
477.668	5556.99
477.872	5579.52
478.077	5757.69
478.282	5542.66
478.486	5618.43
478.691	5464.83
478.895	5552.9
479.1	5475.07
479.304	5417.73
479.509	5253.89
479.713	5268.23
479.918	5210.89
480.122	5212.93
480.326	5217.03
480.531	5294.85
480.735	5208.84
480.94	5274.37
481.144	5315.33
481.348	5104.39
481.553	5241.61
481.757	5075.72
481.961	5057.29
482.166	5163.78
482.37	5112.58
482.574	5036.81
482.778	5128.97
482.983	5225.22
483.187	5047.05
483.391	5063.43
483.595	4918.03
483.8	4991.75
484.004	4913.93
484.208	5006.09
484.412	4969.23
484.616	4944.65
484.821	5036.81
485.025	4866.83
485.229	5245.7
485.433	4971.27
485.637	5057.29
485.841	4961.03
486.045	4920.07
486.249	5151.49
486.453	5004.04
486.657	5034.76
486.861	5112.58
487.065	4875.02
487.269	4858.64
487.473	4940.55
487.677	5153.54
487.881	5151.49
488.085	5042.95
488.289	4950.79
488.493	4926.22
488.697	5200.65
488.901	5018.38
489.105	5128.97
489.309	5063.43
489.512	5040.9
489.716	5094.15
489.92	5006.09
490.124	5122.82
490.328	5251.85
490.531	5225.22
490.735	5149.45
490.939	5198.6
491.143	5149.45
491.346	5073.67
491.55	5307.14
491.754	5311.24
491.958	5257.99
492.161	5235.46
492.365	5290.76
492.569	5262.09
492.772	5286.66
492.976	5397.25
493.18	5395.2
493.383	5489.41
493.587	5563.14
493.79	5575.42
493.994	5528.32
494.197	5448.45
494.401	5616.38
494.605	5534.46
494.808	5931.77
495.012	5831.42
495.215	5710.59
495.419	5663.49
495.622	5886.72
495.825	5718.78
496.029	5776.13
496.232	5974.78
496.436	6001.4
496.639	6118.14
496.843	6279.93
497.046	6273.78
497.249	6224.63
497.453	6421.24
497.656	6439.67
497.859	6466.29
498.063	6417.14
498.266	6771.44
498.469	6499.06
498.673	6636.27
498.876	6982.38
499.079	6988.52
499.282	6879.98
499.485	6980.33
499.689	7117.54
499.892	7152.36
500.095	7277.29
500.298	7496.42
500.501	7365.35
500.705	7467.75
500.908	7693.02
501.111	7977.69
501.314	7908.06
501.517	7944.92
501.72	7979.74
501.923	8043.23
502.126	8223.45
502.329	8334.04
502.532	8446.68
502.735	8391.38
502.938	8635.09
503.141	8788.69
503.344	8803.02
503.547	8747.73
503.75	8907.47
503.953	9093.83
504.156	9253.58
504.359	9212.62
504.562	9280.2
504.765	9779.9
504.968	9806.53
505.17	9919.17
505.373	9763.52
505.576	10025.66
505.779	10130.11
505.982	10220.22
506.185	10539.7
506.387	10437.3
506.59	10691.25
506.793	10814.13
506.996	10758.83
507.198	11285.16
507.401	11123.37
507.604	11164.33
507.807	11459.24
508.009	11604.64
508.212	11737.76
508.415	11879.07
508.617	12147.36
508.82	12032.67
509.022	12130.97
509.225	12573.33
509.428	12739.22
509.63	12726.93
509.833	12878.48
510.035	13032.08
510.238	12960.4
510.44	13234.83
510.643	13509.26
510.845	13804.16
511.048	13849.22
511.25	13861.51
511.453	13933.18
511.655	14404.22
511.858	14488.18
512.06	14633.59
512.262	14733.94
512.465	14637.69
512.667	14987.89
512.87	15282.8
513.072	15295.08
513.274	15608.42
513.477	15839.84
513.679	16007.78
513.881	16013.92
514.084	16409.18
514.286	16378.46
514.488	16558.68
514.69	16951.89
514.893	17068.62
515.095	16822.87
515.297	17431.12
515.499	17609.29
515.701	17668.68
515.904	17975.88
516.106	17834.57
516.308	18348.61
516.51	18176.58
516.712	18551.35
516.914	18829.88
517.116	18895.41
517.318	19288.62
517.52	19380.78
517.722	19563.05
517.925	20118.05
518.127	19984.93
518.329	20345.37
518.531	20445.73
518.733	21137.94
518.935	20826.65
519.136	20976.15
519.338	21062.16
519.54	21166.61
519.742	21432.85
519.944	21729.8
520.146	22114.82
520.348	22135.3
520.55	22495.74
520.752	22739.45
520.954	22716.92
521.155	22813.18
521.357	23343.6
521.559	23421.42
521.761	23831.02
521.963	23439.86
522.164	24019.43
522.366	24240.61
522.568	24437.22
522.77	24541.66
522.971	24705.5
523.173	24625.63
523.375	25020.89
523.576	25223.64
523.778	25207.25
523.98	25727.44
524.181	25590.22
524.383	25754.06
524.584	25891.27
524.786	26237.38
524.988	26032.58
525.189	26864.06
525.391	26657.21
525.592	26812.86
525.794	26732.99
525.995	26597.82
526.197	27040.18
526.398	27251.13
526.6	27410.87
526.801	27689.39
527.003	27648.43
527.204	27582.9
527.406	28162.47
527.607	27951.53
527.808	28268.97
528.01	27560.37
528.211	27961.77
528.412	28807.58
528.614	28371.36
528.815	28649.89
529.016	28854.69
529.218	28514.72
529.419	28871.07
529.62	28729.76
529.822	28819.87
530.023	28985.76
530.224	28991.9
530.425	28965.28
530.626	29108.63
530.828	28776.86
531.029	29516.18
531.23	29075.87
531.431	29106.59
531.632	29288.85
531.833	29692.3
532.035	29458.84
532.236	29622.67
532.437	29759.89
532.638	29395.35
532.839	29976.97
533.04	29899.15
533.241	29424.02
533.442	30280.07
533.643	29720.98
533.844	29530.51
534.045	29878.67
534.246	29438.36
534.447	30378.37
534.648	29960.59
534.849	30151.05
535.05	29837.71
535.251	30075.27
535.451	30042.51
535.652	30304.65
535.853	29866.38
536.054	29905.29
536.255	30013.84
536.456	29997.45
536.657	30470.53
536.857	30075.27
537.058	29923.72
537.259	30024.08
537.46	30560.64
537.66	29919.63
537.861	30339.46
538.062	30222.73
538.263	30173.58
538.463	30382.47
538.664	29856.14
538.865	30378.37
539.065	30458.24
539.266	30009.74
539.466	30216.58
539.667	29882.77
539.868	30228.87
540.068	30222.73
540.269	29921.68
540.469	30421.38
540.67	29907.34
540.87	29884.81
541.071	30048.65
541.271	30013.84
541.472	29858.19
541.672	30198.15
541.873	29966.73
542.073	29741.46
542.274	29942.16
542.474	30167.43
542.675	29880.72
542.875	30325.13
543.075	30200.2
543.276	29536.66
543.476	30253.45
543.676	29737.36
543.877	30331.27
544.077	30130.57
544.277	29913.48
544.478	30042.51
544.678	30263.69
544.878	29772.18
545.078	29970.83
545.279	29927.82
545.479	29667.73
545.679	30101.9
545.879	29999.5
546.079	29927.82
546.28	30003.6
546.48	29868.43
546.68	30478.72
546.88	30347.65
547.08	29931.92
547.28	29729.17
547.48	29714.83
547.68	29933.96
547.88	29753.74
548.081	30192.01
548.281	30085.51
548.481	29743.5
548.681	29888.91
548.881	29954.44
549.081	30114.19
549.28	29643.15
549.48	30065.03
549.68	29923.72
549.88	30052.75
550.08	29632.91
550.28	30083.47
550.48	29882.77
550.68	30105.99
550.88	29544.85
551.08	29827.47
551.279	29860.24
551.479	29534.61
551.679	29890.96
551.879	29589.91
552.079	29878.67
552.278	29692.3
552.478	29798.8
552.678	29888.91
552.878	30042.51
553.077	29784.46
553.277	29536.66
553.477	30013.84
553.676	29579.67
553.876	29577.62
554.076	29544.85
554.275	30001.55
554.475	29141.4
554.674	29671.82
554.874	29624.72
555.074	29426.07
555.273	29780.37
555.473	29675.92
555.672	29534.61
555.872	29481.36
556.071	29745.55
556.271	29690.26
556.47	29415.83
556.67	29151.64
556.869	29505.94
557.068	29118.87
557.268	29026.71
557.467	29419.92
557.667	29358.49
557.866	29061.53
558.065	29135.26
558.265	29008.28
558.464	29082.01
558.663	29061.53
558.863	28481.95
559.062	29174.17
559.261	28754.33
559.461	28885.4
559.66	28600.74
559.859	28846.49
560.058	28639.65
560.258	28504.48
560.457	28101.03
560.656	28475.81
560.855	28719.52
561.054	28330.41
561.253	28015.02
561.453	28348.84
561.652	28469.67
561.851	28547.49
562.05	28322.21
562.249	28244.39
562.448	28393.89
562.647	28410.28
562.846	28197.29
563.045	27980.2
563.244	27861.42
563.443	27845.04
563.642	27644.34
563.841	27965.87
564.04	27709.87
564.239	27638.19
564.438	27500.98
564.637	27568.56
564.836	27560.37
565.035	27834.8
565.234	27730.35
565.432	27298.23
565.631	27316.66
565.83	27576.75
566.029	27498.93
566.228	27083.19
566.427	27304.37
566.625	27009.47
566.824	26749.37
567.023	27318.71
567.222	26722.75
567.42	27070.9
567.619	26866.11
567.818	26761.66
568.016	26593.73
568.215	26765.76
568.414	26601.92
568.612	26692.03
568.811	26603.97
569.01	26851.77
569.208	26366.4
569.407	26474.95
569.605	25856.46
569.804	26335.68
570.002	25997.77
570.201	26286.53
570.4	26104.26
570.598	25680.33
570.797	25983.43
570.995	25962.95
571.193	25647.57
571.392	25604.56
571.59	25485.78
571.789	25418.19
571.987	25436.63
572.186	25661.9
572.384	25283.03
572.582	25393.62
572.781	25323.99
572.979	24996.31
573.177	25106.9
573.376	25176.53
573.574	24842.71
573.772	24850.91
573.971	24664.54
574.169	24302.05
574.367	24197.6
574.565	24619.49
574.763	24338.91
574.962	24232.42
575.16	23738.86
575.358	24560.09
575.556	23941.61
575.754	24324.58
575.952	23912.94
576.151	24062.44
576.349	23753.19
576.547	23732.72
576.745	23704.04
576.943	23548.4
577.141	23568.88
577.339	23462.38
577.537	23505.39
577.735	23613.93
577.933	23063.03
578.131	23357.94
578.329	22815.23
578.527	23075.32
578.725	23142.9
578.923	23093.75
579.121	22979.06
579.319	22788.6
579.516	22714.87
579.714	22772.22
579.912	22600.19
580.11	22571.52
580.308	22827.51
580.506	22501.89
580.704	22200.83
580.901	22583.8
581.099	22225.41
581.297	21936.65
581.495	22262.27
581.692	22034.95
581.89	21991.94
582.088	22135.3
582.285	21703.18
582.483	21965.32
582.681	21748.23
582.878	21889.54
583.076	21735.95
583.274	21871.11
583.471	21740.04
583.669	21271.06
583.866	21494.29
584.064	21314.06
584.262	21010.96
584.459	21355.02
584.657	20789.78
584.854	20855.32
585.052	21037.59
585.249	21166.61
585.447	20816.41
585.644	20783.64
585.841	20984.34
586.039	20967.96
586.236	20494.88
586.434	20560.41
586.631	20083.23
586.828	20474.4
587.026	20597.28
587.223	20511.26
587.42	20351.52
587.618	20273.7
587.815	20173.35
588.012	20132.39
588.21	19954.21
588.407	20118.05
588.604	19827.24
588.801	19524.14
588.999	19919.4
589.196	19710.5
589.393	20085.28
589.59	19577.39
589.787	19677.74
589.984	19302.96
590.182	19550.76
590.379	19321.39
590.576	19331.63
590.773	19290.67
590.97	19141.17
591.167	19270.19
591.364	19102.26
591.561	19165.74
591.758	18967.09
591.955	18926.13
592.152	18971.19
592.349	18725.43
592.546	18684.47
592.743	18686.52
592.94	18510.39
593.137	18778.68
593.334	18733.62
593.531	18311.74
593.727	18580.03
593.924	18686.52
594.121	18332.22
594.318	18094.66
594.515	18324.03
594.712	18295.36
594.908	18195.01
595.105	18207.3
595.302	18147.9
595.499	17795.65
595.696	17994.31
595.892	17853
596.089	17963.59
596.286	17840.71
596.482	17809.99
596.679	17435.21
596.876	17625.67
597.072	17445.45
597.269	17699.4
597.466	17414.73
597.662	17414.73
597.859	17250.89
598.055	17283.66
598.252	17461.83
598.448	17304.14
598.645	17263.18
598.841	16919.12
599.038	17066.58
599.234	17089.1
599.431	16581.21
599.627	16884.31
599.824	16798.29
600.02	16530.01
600.217	16790.1
600.413	16722.52
600.609	16427.61
600.806	16468.57
601.002	16740.95
601.198	16403.04
601.395	16312.92
601.591	16421.47
601.787	16552.54
601.984	16300.64
602.18	16478.81
602.376	16046.69
602.572	15981.15
602.769	16104.03
602.965	15819.36
603.161	15975.01
603.357	15876.71
603.553	15725.16
603.75	15708.77
603.946	15633
604.142	15757.92
604.338	15424.11
604.534	15694.44
604.73	15387.24
604.926	15444.59
605.122	15602.28
605.318	15424.11
605.514	15305.32
605.71	15118.96
605.906	15008.37
606.102	15090.29
606.298	15067.76
606.494	14885.49
606.69	15000.18
606.886	14965.36
607.082	14574.2
607.278	14832.24
607.474	14742.13
607.67	14647.93
607.866	14457.46
608.062	14738.04
608.257	14846.58
608.453	14473.85
608.649	14766.71
608.845	14414.46
609.041	14559.86
609.236	14371.45
609.432	14604.92
609.628	14287.48
609.824	14127.74
610.019	14236.28
610.215	14180.99
610.411	14090.88
610.606	13996.67
610.802	14021.25
610.998	14154.37
611.193	13994.62
611.389	13908.61
611.584	13972.1
611.78	13726.34
611.976	13822.59
612.171	13828.74
612.367	13771.4
612.562	13812.35
612.758	13593.22
612.953	13443.72
613.149	13460.1
613.344	13539.97
613.539	13789.83
613.735	13372.04
613.93	13539.97
614.126	13376.14
614.321	13480.58
614.517	13255.31
614.712	13415.05
614.907	13443.72
615.103	13443.72
615.298	13175.44
615.493	13259.4
615.688	12931.73
615.884	13499.02
616.079	13238.92
616.274	12995.22
616.47	13095.57
616.665	13212.3
616.86	12796.56
617.055	13189.77
617.25	13054.61
617.445	12954.26
617.641	12661.4
617.836	12567.19
618.031	12700.31
618.226	12858
618.421	12642.96
618.616	12683.92
618.811	12526.23
619.006	12620.44
619.201	12364.44
619.396	12356.25
619.591	12173.98
619.786	12253.85
619.981	12012.19
620.176	12384.92
620.371	12024.48
620.566	12001.95
620.761	11885.22
620.956	12165.79
621.151	11748
621.346	11967.13
621.541	11801.25
621.735	11729.57
621.93	11489.96
622.125	11713.19
622.32	11340.46
622.515	11438.76
622.709	11526.82
622.904	11340.46
623.099	11137.71
623.294	11291.31
623.488	11303.59
623.683	11131.56
623.878	11190.95
624.072	11039.4
624.267	10996.4
624.462	10844.85
624.656	10758.83
624.851	10785.46
625.046	10668.72
625.24	10578.61
625.435	10343.1
625.629	10472.12
625.824	10433.21
626.018	10465.97
626.213	10183.35
626.407	10242.75
626.602	10066.62
626.796	10212.03
626.991	10142.39
627.185	10181.31
627.38	9857.73
627.574	9958.08
627.768	9853.63
627.963	10001.08
628.157	9872.06
628.352	9839.3
628.546	9581.25
628.74	9544.39
628.935	9581.25
629.129	9689.79
629.323	9468.61
629.517	9214.66
629.712	9329.35
629.906	9372.36
630.1	9173.71
630.294	9355.97
630.489	9020.11
630.683	9247.43
630.877	8903.37
631.071	9067.21
631.265	9093.83
631.459	9083.59
631.653	8932.05
631.848	8975.05
632.042	8860.37
632.236	8790.74
632.43	8542.93
632.624	8932.05
632.818	8641.23
633.012	8624.85
633.206	8385.24
633.4	8649.43
633.594	8334.04
633.788	8409.81
633.982	8379.09
634.176	8444.63
634.369	8153.82
634.563	8299.22
634.757	8186.58
634.951	8114.91
635.145	8143.58
635.339	8018.65
635.533	7975.64
635.726	7973.6
635.92	7940.83
636.114	7846.62
636.308	7906.01
636.501	8039.13
636.695	7846.62
636.889	7684.83
637.083	7510.75
637.276	7678.69
637.47	7662.3
637.664	7617.25
637.857	7543.52
638.051	7668.45
638.244	7430.88
638.438	7273.19
638.632	7420.64
638.825	7289.57
639.019	7299.81
639.212	7287.53
639.406	7029.48
639.599	7095.02
639.793	7174.89
639.986	6996.71
640.18	7037.67
640.373	7043.82
640.567	6929.13
640.76	6966
640.954	6900.46
641.147	6925.04
641.34	6824.69
641.534	6605.55
641.727	6929.13
641.92	6681.33
642.114	6527.73
642.307	6632.18
642.5	6666.99
642.694	6515.44
642.887	6441.72
643.08	6585.07
643.273	6324.98
643.467	6347.51
643.66	6484.72
643.853	6099.7
644.046	6171.38
644.239	6198.01
644.432	6011.64
644.626	6003.45
644.819	6099.7
645.012	6204.15
645.205	6193.91
645.398	5985.02
645.591	6060.79
645.784	6036.22
645.977	5825.28
646.17	5866.24
646.363	5743.36
646.556	5694.21
646.749	5677.82
646.942	5899
647.135	5767.93
647.328	5737.21
647.521	5489.41
647.714	5407.49
647.907	5554.94
648.099	5473.03
648.292	5415.68
648.485	5446.4
648.678	5354.24
648.871	5329.67
649.064	5356.29
649.256	5360.39
649.449	5081.86
649.642	5100.3
649.835	5219.08
650.027	5182.21
650.22	5122.82
650.413	5069.58
650.605	5085.96
650.798	5151.49
650.991	4743.95
651.183	5059.34
651.376	4975.37
651.568	5030.66
651.761	4920.07
651.954	4887.31
652.146	4844.3
652.339	4774.67
652.531	4842.25
652.724	4848.4
652.916	4807.44
653.109	4700.94
653.301	4727.57
653.494	4672.27
653.686	4604.69
653.879	4479.76
654.071	4594.45
654.263	4569.87
654.456	4479.76
654.648	4490
654.84	4438.8
655.033	4422.42
655.225	4422.42
655.417	4223.76
655.61	4332.31
655.802	4471.57
655.994	4293.4
656.186	4225.81
656.379	4217.62
656.571	4191
656.763	4150.04
656.955	4152.09
657.148	4145.94
657.34	4213.53
657.532	4143.89
657.724	3978.01
657.916	4178.71
658.108	4090.65
658.3	4021.02
658.492	3939.1
658.684	3898.14
658.876	3748.64
659.068	3967.77
659.26	3906.33
659.452	3836.7
659.644	3869.47
659.836	3742.49
660.028	3840.79
660.22	3689.25
660.412	3742.49
660.604	3789.6
660.796	3631.9
660.988	3633.95
661.18	3543.84
661.372	3619.61
661.563	3666.72
661.755	3517.22
661.947	3638.05
662.139	3543.84
662.331	3451.68
662.522	3406.63
662.714	3408.67
662.906	3498.78
663.097	3373.86
663.289	3304.23
663.481	3314.47
663.673	3265.32
663.864	3275.56
664.056	3279.65
664.247	3369.76
664.439	3162.92
664.631	3162.92
664.822	3265.32
665.014	3220.26
665.205	3263.27
665.397	3138.34
665.588	3142.44
665.78	3179.3
665.971	3097.38
666.163	2997.03
666.354	3111.72
666.546	3023.66
666.737	3046.18
666.929	2968.36
667.12	3007.27
667.311	3058.47
667.503	2841.39
667.694	3056.42
667.885	2947.88
668.077	2890.54
668.268	2870.06
668.459	2882.35
668.651	2921.26
668.842	2941.74
669.033	2970.41
669.224	2827.05
669.416	2894.63
669.607	2876.2
669.798	2730.8
669.989	2845.48
670.18	2839.34
670.371	2818.86
670.563	2630.45
670.754	2710.32
670.945	2792.23
671.136	2671.4
671.327	2712.36
671.518	2710.32
671.709	2677.55
671.9	2747.18
672.091	2722.6
672.282	2628.4
672.473	2687.79
672.664	2585.39
672.855	2671.4
673.046	2485.04
673.237	2663.21
673.428	2685.74
673.619	2618.16
673.809	2515.76
674	2505.52
674.191	2513.71
674.382	2579.25
674.573	2511.66
674.764	2511.66
674.954	2573.1
675.145	2542.38
675.336	2485.04
675.527	2505.52
675.717	2474.8
675.908	2495.28
676.099	2415.41
676.289	2454.32
676.48	2464.56
676.671	2427.7
676.861	2474.8
677.052	2419.5
677.243	2349.87
677.433	2335.54
677.624	2343.73
677.814	2362.16
678.005	2386.74
678.195	2351.92
678.386	2278.19
678.576	2331.44
678.767	2319.15
678.957	2310.96
679.148	2302.77
679.338	2261.81
679.529	2325.3
679.719	2353.97
679.909	2284.34
680.1	2343.73
680.29	2345.78
680.481	2235.19
680.671	2280.24
680.861	2333.49
681.052	2374.45
681.242	2175.8
681.432	2177.84
681.622	2186.04
681.813	2190.13
682.003	2243.38
682.193	2274.1
682.383	2261.81
682.573	2237.24
682.764	2253.62
682.954	2145.08
683.144	2267.95
683.334	2253.62
683.524	2188.08
683.714	2214.71
683.904	2247.48
684.094	2267.95
684.284	2229.04
684.474	2204.47
684.664	2128.69
684.854	2204.47
685.044	2153.27
685.234	2106.17
685.424	2210.61
685.614	2204.47
685.804	2245.43
685.994	2100.02
686.184	2124.6
686.374	2124.6
686.564	2122.55
686.753	2231.09
686.943	2100.02
687.133	2196.28
687.323	2157.36
687.513	2194.23
687.702	2206.52
687.892	2114.36
688.082	2163.51
688.272	2095.93
688.461	2218.8
688.651	2030.39
688.841	2196.28
689.03	2106.17
689.22	2042.68
689.41	2020.15
689.599	2110.26
689.789	2087.73
689.979	2095.93
690.168	2018.1
690.358	2095.93
690.547	1973.05
690.737	2048.82
690.926	2042.68
691.116	2030.39
691.305	2034.49
691.495	2061.11
691.684	2118.45
691.874	1991.48
692.063	2001.72
692.252	2046.77
692.442	1975.1
692.631	2024.25
692.82	2118.45
693.01	2011.96
693.199	1983.29
693.388	2026.29
693.578	1973.05
693.767	2059.06
693.956	2179.89
694.146	2001.72
694.335	1960.76
694.524	2069.3
694.713	2016.05
694.902	2020.15
695.092	2132.79
695.281	2097.97
695.47	1964.86
695.659	2104.12
695.848	2009.91
696.037	2138.93
696.226	2022.2
696.415	1960.76
696.604	2063.16
696.793	1948.47
696.982	1950.52
697.171	2112.31
697.36	2124.6
697.549	2065.21
697.738	2007.86
697.927	2026.29
698.116	2011.96
698.305	1983.29
698.494	1977.14
698.683	2124.6
698.872	2108.21
699.061	2075.45
699.25	2007.86
699.438	2079.54
699.627	2003.77
699.816	2026.29
700.005	2087.73
700.193	2020.15
700.382	2005.81
700.571	2061.11
700.76	2024.25
700.948	1925.94
701.137	2091.83
701.326	1999.67
701.514	2071.35
701.703	2054.97
701.892	1979.19
702.08	1925.94
702.269	2063.16
702.457	1968.95
702.646	2061.11
702.834	1977.14
703.023	2001.72
703.212	2095.93
703.4	1983.29
703.589	1983.29
703.777	1887.03
703.965	1954.62
704.154	1868.6
704.342	1968.95
704.531	1987.38
704.719	1954.62
704.907	1985.34
705.096	1946.42
705.284	1993.53
705.472	2011.96
705.661	1839.93
705.849	1907.51
706.037	1821.5
706.226	1827.64
706.414	1895.22
706.602	1809.21
706.79	1952.57
706.979	1905.46
707.167	1798.97
707.355	1731.39
707.543	1803.07
707.731	1940.28
707.919	1870.65
708.107	1803.07
708.296	1870.65
708.484	1891.13
708.672	1923.9
708.86	1835.83
709.048	1807.16
709.236	1778.49
709.424	1776.44
709.612	1796.92
709.8	1850.17
709.988	1694.52
710.176	1753.91
710.364	1753.91
710.551	1768.25
710.739	1731.39
710.927	1839.93
711.115	1794.87
711.303	1813.31
711.491	1698.62
711.679	1669.95
711.866	1715
712.054	1696.57
712.242	1786.68
712.43	1782.59
712.617	1672
712.805	1653.56
712.993	1590.08
713.181	1626.94
713.368	1653.56
713.556	1719.1
713.744	1592.13
713.931	1794.87
714.119	1626.94
714.306	1686.33
714.494	1639.23
714.682	1698.62
714.869	1563.45
715.057	1567.55
715.244	1612.6
715.432	1684.28
715.619	1608.51
715.807	1514.3
715.994	1618.75
716.182	1600.32
716.369	1672
716.556	1510.21
716.744	1583.93
716.931	1645.37
717.119	1620.8
717.306	1542.97
717.493	1532.73
717.681	1559.36
717.868	1606.46
718.055	1581.89
718.242	1532.73
718.43	1559.36
718.617	1542.97
718.804	1366.85
718.991	1563.45
719.179	1551.17
719.366	1547.07
719.553	1493.82
719.74	1391.42
719.927	1448.77
720.114	1407.81
720.301	1413.95
720.488	1430.34
720.676	1463.1
720.863	1608.51
721.05	1411.9
721.237	1475.39
721.424	1502.01
721.611	1424.19
721.798	1375.04
721.985	1418.05
722.172	1407.81
722.358	1366.85
722.545	1352.51
722.732	1407.81
722.919	1432.38
723.106	1356.61
723.293	1342.27
723.48	1327.94
723.667	1315.65
723.853	1370.94
724.04	1334.08
724.227	1450.82
724.414	1278.79
724.6	1391.42
724.787	1315.65
724.974	1307.46
725.161	1377.09
725.347	1336.13
725.534	1364.8
725.72	1268.55
725.907	1291.07
726.094	1336.13
726.28	1203.01
726.467	1207.11
726.653	1188.68
726.84	1327.94
727.027	1389.38
727.213	1268.55
727.4	1229.63
727.586	1262.4
727.773	1307.46
727.959	1317.7
728.145	1223.49
728.332	1239.87
728.518	1123.14
728.705	1192.77
728.891	1307.46
729.077	1344.32
729.264	1200.96
729.45	1178.44
729.636	1235.78
729.823	1192.77
730.009	1110.85
730.195	1155.91
730.382	1174.34
730.568	1221.44
730.754	1174.34
730.94	1151.81
731.126	1162.05
731.313	1203.01
731.499	1117
731.685	1051.46
731.871	1225.54
732.057	1227.59
732.243	1184.58
732.429	1252.16
732.615	1198.92
732.801	1180.48
732.987	1106.76
733.173	1198.92
733.359	1086.28
733.545	1094.47
733.731	1153.86
733.917	1002.31
734.103	1114.95
734.289	1063.75
734.475	1106.76
734.661	1078.08
734.847	1117
735.033	1090.37
735.219	1082.18
735.404	1147.72
735.59	1051.46
735.776	1078.08
735.962	1084.23
736.148	1098.56
736.333	1047.37
736.519	1055.56
736.705	1065.8
736.89	1135.43
737.076	1088.32
737.262	1080.13
737.447	1033.03
737.633	1088.32
737.819	1047.37
738.004	1067.85
738.19	1026.89
738.375	1082.18
738.561	975.69
738.747	973.64
738.932	1059.65
739.118	1080.13
739.303	1043.27
739.489	957.25
739.674	1086.28
739.859	959.3
740.045	928.58
740.23	973.64
740.416	863.05
740.601	977.73
740.786	908.1
740.972	1035.08
741.157	1047.37
741.342	942.92
741.528	928.58
741.713	895.82
741.898	904.01
742.084	910.15
742.269	910.15
742.454	951.11
742.639	979.78
742.824	914.25
743.01	967.49
743.195	936.78
743.38	918.34
743.565	895.82
743.75	1014.6
743.935	998.21
744.12	932.68
744.305	875.34
744.49	936.78
744.675	904.01
744.86	803.66
745.045	889.67
745.23	772.94
745.415	803.66
745.6	881.48
745.785	867.14
745.97	846.66
746.155	813.9
746.34	906.06
746.525	844.62
746.71	854.86
746.895	691.02
747.079	789.32
747.264	850.76
747.449	797.51
747.634	830.28
747.819	795.47
748.003	824.14
748.188	744.27
748.373	861
748.557	750.41
748.742	809.8
748.927	820.04
749.111	770.89
749.296	713.55
749.481	817.99
749.665	711.5
749.85	748.36
750.034	770.89
750.219	781.13
750.404	752.46
750.588	752.46
750.773	709.45
750.957	805.71
751.141	789.32
751.326	645.96
751.51	729.93
751.695	695.11
751.879	619.34
752.064	666.44
752.248	752.46
752.432	731.98
752.617	670.54
752.801	676.68
752.985	650.06
753.17	666.44
753.354	598.86
753.538	752.46
753.722	713.55
753.907	658.25
754.091	527.18
754.275	740.17
754.459	707.4
754.643	594.76
754.828	574.28
755.012	596.81
755.196	572.24
755.38	656.2
755.564	596.81
755.748	670.54
755.932	588.62
756.116	623.44
756.3	523.09
756.484	619.34
756.668	666.44
756.852	615.24
757.036	553.8
757.22	633.68
757.404	543.57
757.588	596.81
757.772	580.43
757.956	658.25
758.14	533.33
758.323	533.33
758.507	541.52
758.691	541.52
758.875	566.09
759.059	592.72
759.242	529.23
759.426	525.13
759.61	500.56
759.794	539.47
759.977	590.67
760.161	572.24
760.345	422.73
760.528	531.28
760.712	539.47
760.895	498.51
761.079	549.71
761.263	564.04
761.446	527.18
761.63	486.22
761.813	547.66
761.997	518.99
762.18	451.41
762.364	453.45
762.547	492.37
762.731	502.61
762.914	439.12
763.098	449.36
763.281	443.21
763.464	510.8
763.648	480.08
763.831	469.84
764.015	473.93
764.198	568.14
764.381	445.26
764.564	475.98
764.748	426.83
764.931	504.65
765.114	449.36
765.297	473.93
765.481	535.37
765.664	432.97
765.847	469.84
766.03	449.36
766.213	424.78
766.397	498.51
766.58	494.41
766.763	490.32
766.946	385.87
767.129	392.02
767.312	467.79
767.495	508.75
767.678	498.51
767.861	392.02
768.044	473.93
768.227	449.36
768.41	469.84
768.593	500.56
768.776	475.98
768.959	424.78
769.142	494.41
769.324	422.73
769.507	369.49
769.69	432.97
769.873	385.87
770.056	359.25
770.239	424.78
770.421	488.27
770.604	404.3
770.787	463.69
770.97	396.11
771.152	377.68
771.335	457.55
771.518	342.86
771.7	383.82
771.883	439.12
772.066	414.54
772.248	371.54
772.431	367.44
772.613	361.3
772.796	387.92
772.978	414.54
773.161	418.64
773.343	400.21
773.526	326.48
773.708	404.3
773.891	408.4
774.073	318.29
774.256	344.91
774.438	332.62
774.621	322.38
774.803	322.38
774.985	342.86
775.168	326.48
775.35	410.45
775.532	385.87
775.715	324.43
775.897	394.06
776.079	318.29
776.261	373.58
776.444	361.3
776.626	404.3
776.808	316.24
776.99	396.11
777.173	359.25
777.355	340.82
777.537	306
777.719	351.06
777.901	336.72
778.083	301.9
778.265	275.28
778.447	367.44
778.629	299.86
778.811	293.71
778.993	289.62
779.175	260.95
779.357	332.62
779.539	283.47
779.721	299.86
779.903	318.29
780.085	289.62
780.267	308.05
780.449	258.9
780.631	328.53
780.812	308.05
780.994	303.95
781.176	248.66
781.358	367.44
781.54	244.56
781.721	285.52
781.903	289.62
782.085	285.52
782.267	256.85
782.448	234.32
782.63	248.66
782.812	236.37
782.993	172.88
783.175	291.66
783.357	308.05
783.538	281.43
783.72	289.62
783.901	246.61
784.083	244.56
784.264	312.14
784.446	209.75
784.627	187.22
784.809	258.9
784.99	240.47
785.172	205.65
785.353	230.23
785.535	234.32
785.716	254.8
785.897	219.99
786.079	310.1
786.26	219.99
786.441	228.18
786.623	203.6
786.804	199.51
786.985	211.79
787.167	185.17
787.348	72.53
787.529	242.51
787.71	209.75
787.891	226.13
788.073	168.79
788.254	144.21
788.435	166.74
788.616	154.45
788.797	125.78
788.978	203.6
789.159	197.46
789.34	219.99
789.522	144.21
789.703	189.27
789.884	246.61
790.065	244.56
790.246	146.26
790.427	166.74
790.607	172.88
790.788	222.03
790.969	150.36
791.15	197.46
791.331	189.27
791.512	162.64
791.693	197.46
791.874	256.85
792.054	234.32
792.235	213.84
792.416	138.07
792.597	160.59
792.778	140.12
792.958	123.73
793.139	174.93
793.32	148.31
793.5	125.78
793.681	211.79
793.862	174.93
794.042	115.54
794.223	160.59
794.404	105.3
794.584	179.03
794.765	185.17
794.945	131.92
795.126	162.64
795.306	119.64
795.487	187.22
795.667	154.45
795.848	170.83
796.028	129.88
796.209	99.16
796.389	95.06
796.57	172.88
796.75	99.16
796.93	174.93
797.111	179.03
797.291	99.16
797.471	181.07
797.652	154.45
797.832	90.96
798.012	123.73
798.192	97.11
798.373	74.58
798.553	50
798.733	156.5
798.913	217.94
799.093	121.68
799.274	138.07
799.454	21.33
799.634	131.92
799.814	183.12
799.994	150.36
800.174	84.82
800.354	125.78
800.534	64.34
800.714	142.16
800.894	162.64
801.074	138.07
801.254	115.54
801.434	129.88
801.614	86.87
801.794	74.58
801.974	293.71
802.154	162.64
802.334	105.3
802.514	72.53
802.693	88.92
802.873	95.06
803.053	142.16
803.233	113.49
803.413	88.92
803.592	107.35
803.772	115.54
803.952	115.54
804.131	111.44
804.311	72.53
804.491	97.11
804.67	158.55
804.85	66.39
805.03	76.63
805.209	103.25
805.389	148.31
805.568	47.96
805.748	97.11
805.928	170.83
806.107	74.58
806.287	88.92
806.466	39.76
806.646	41.81
806.825	103.25
807.004	121.68
807.184	105.3
807.363	56.15
807.543	70.48
807.722	90.96
807.901	109.4
808.081	47.96
808.26	125.78
808.439	129.88
808.619	103.25
808.798	115.54
808.977	62.29
809.156	111.44
809.336	97.11
809.515	101.2
809.694	50
809.873	82.77
810.052	93.01
810.231	80.72
810.411	66.39
810.59	78.68
810.769	58.2
810.948	107.35
811.127	70.48
811.306	82.77
811.485	93.01
811.664	9.05
811.843	76.63
812.022	140.12
812.201	72.53
812.38	64.34
812.559	105.3
812.737	115.54
812.916	90.96
813.095	88.92
813.274	121.68
813.453	117.59
813.632	103.25
813.811	97.11
813.989	66.39
814.168	84.82
814.347	74.58
814.526	78.68
814.704	72.53
814.883	50
815.062	45.91
815.24	52.05
815.419	70.48
815.598	35.67
815.776	103.25
815.955	74.58
816.133	-15.53
816.312	43.86
816.49	45.91
816.669	84.82
816.847	88.92
817.026	50
817.204	39.76
817.383	2.9
817.561	76.63
817.74	111.44
817.918	27.48
818.097	90.96
818.275	50
818.453	47.96
818.632	27.48
818.81	107.35
818.988	-17.58
819.167	27.48
819.345	60.24
819.523	127.83
819.701	39.76
819.879	58.2
820.058	41.81
820.236	70.48
820.414	64.34
820.592	23.38
820.77	23.38
820.948	82.77
821.127	19.29
821.305	35.67
821.483	27.48
821.661	93.01
821.839	-1.19
822.017	66.39
822.195	27.48
822.373	29.52
822.551	41.81
822.729	-5.29
822.907	0.85
823.085	66.39
823.262	27.48
823.44	47.96
823.618	105.3
823.796	82.77
823.974	47.96
824.152	56.15
824.329	25.43
824.507	2.9
824.685	58.2
824.863	58.2
825.04	35.67
825.218	-5.29
825.396	9.05
825.574	80.72
825.751	60.24
825.929	58.2
826.107	-1.19
826.284	45.91
826.462	117.59
826.639	64.34
826.817	93.01
826.994	-3.24
827.172	105.3
827.349	99.16
827.527	31.57
827.704	23.38
827.882	97.11
828.059	43.86
828.237	74.58
828.414	72.53
828.591	-40.11
828.769	82.77
828.946	-19.63
829.124	56.15
829.301	80.72
829.478	56.15
829.655	27.48
829.833	25.43
830.01	13.14
830.187	39.76
830.364	23.38
830.542	33.62
830.719	50
830.896	43.86
831.073	39.76
831.25	17.24
831.427	-17.58
831.604	13.14
831.782	109.4
831.959	7
832.136	-5.29
832.313	7
832.49	-27.82
832.667	76.63
832.844	50
833.021	115.54
833.198	56.15
833.374	13.14
833.551	31.57
833.728	7
833.905	31.57
834.082	27.48
834.259	15.19
834.436	23.38
834.612	-5.29
834.789	23.38
834.966	-42.15
835.143	25.43
835.319	-21.67
835.496	35.67
835.673	11.09
835.85	41.81
836.026	50
836.203	31.57
836.38	17.24
836.556	-21.67
836.733	-1.19
836.909	11.09
837.086	35.67
837.262	15.19
837.439	23.38
837.616	58.2
837.792	-27.82
837.968	56.15
838.145	-3.24
838.321	-5.29
838.498	0.85
838.674	80.72
838.851	29.52
839.027	27.48
839.203	-11.43
839.38	43.86
839.556	-36.01
839.732	-1.19
839.909	72.53
840.085	43.86
840.261	19.29
840.437	39.76
840.614	-33.96
840.79	82.77
840.966	-62.63
841.142	56.15
841.318	31.57
841.494	82.77
841.671	23.38
841.847	50
842.023	-7.34
842.199	33.62
842.375	-25.77
842.551	-17.58
842.727	11.09
842.903	76.63
843.079	-33.96
843.255	35.67
843.431	17.24
843.607	47.96
843.783	0.85
843.959	-33.96
844.134	43.86
844.31	50
844.486	15.19
844.662	43.86
844.838	0.85
845.013	41.81
845.189	54.1
845.365	62.29
845.541	31.57
845.716	27.48
845.892	4.95
846.068	4.95
846.244	37.72
846.419	66.39
846.595	37.72
846.77	23.38
846.946	2.9
847.122	-27.82
847.297	-11.43
847.473	43.86
847.648	2.9
847.824	76.63
847.999	35.67
848.175	19.29
848.35	2.9
848.526	27.48
848.701	-1.19
848.876	33.62
849.052	29.52
849.227	41.81
849.403	43.86
849.578	-27.82
849.753	-15.53
849.929	70.48
850.104	-64.68
850.279	39.76
850.454	11.09
850.63	-33.96
850.805	17.24
850.98	45.91
851.155	35.67
851.33	74.58
851.505	-15.53
851.681	68.44
851.856	-27.82
852.031	43.86
852.206	-83.11
852.381	-58.54
852.556	-29.87
852.731	66.39
852.906	23.38
853.081	-25.77
853.256	74.58
853.431	105.3
853.606	2.9
853.781	17.24
853.956	27.48
854.131	66.39
854.305	0.85
854.48	31.57
854.655	-38.06
854.83	9.05
855.005	-5.29
855.18	4.95
855.354	23.38
855.529	31.57
855.704	7
855.879	33.62
856.053	-83.11
856.228	7
856.403	-25.77
856.577	74.58
856.752	-19.63
856.926	111.44
857.101	-15.53
857.276	27.48
857.45	68.44
857.625	23.38
857.799	70.48
857.974	31.57
858.148	80.72
858.323	25.43
858.497	-85.16
858.672	-7.34
858.846	-15.53
859.02	56.15
859.195	-66.73
859.369	-23.72
859.543	50
859.718	-105.64
859.892	-60.59
860.066	45.91
860.241	-25.77
860.415	-56.49
860.589	-7.34
860.763	47.96
860.938	-42.15
861.112	9.05
861.286	-50.35
861.46	-9.39
861.634	43.86
861.808	25.43
861.982	41.81
862.157	-31.91
862.331	-13.48
862.505	13.14
862.679	-25.77
862.853	121.68
863.027	70.48
863.201	-9.39
863.375	23.38
863.549	35.67
863.722	-48.3
863.896	7
864.07	-3.24
864.244	-36.01
864.418	-1.19
864.592	31.57
864.766	-17.58
864.939	13.14
865.113	35.67
865.287	19.29
865.461	35.67
865.634	-36.01
865.808	11.09
865.982	-13.48
866.156	-38.06
866.329	-31.91
866.503	-9.39
866.676	88.92
866.85	45.91
867.024	-13.48
867.197	4.95
867.371	43.86
867.544	21.33
867.718	39.76
867.891	-5.29
868.065	-19.63
868.238	43.86
868.412	-5.29
868.585	-54.44
868.759	-13.48
868.932	-29.87
869.105	-40.11
869.279	27.48
869.452	9.05
869.625	39.76
869.799	35.67
869.972	-38.06
870.145	-9.39
870.319	60.24
870.492	27.48
870.665	-42.15
870.838	0.85
871.011	27.48
871.185	-13.48
871.358	9.05
871.531	60.24
871.704	33.62
871.877	-9.39
872.05	0.85
872.223	-70.83
872.396	11.09
872.569	-1.19
872.742	-44.2
872.915	0.85
873.088	41.81
873.261	64.34
873.434	45.91
873.607	9.05
873.78	-36.01
873.953	15.19
874.126	9.05
874.299	19.29
874.471	50
874.644	-17.58
874.817	39.76
874.99	15.19
875.163	37.72
875.335	-21.67
875.508	-72.87
875.681	27.48
875.853	13.14
876.026	-9.39
876.199	56.15
876.371	35.67
876.544	7
876.717	-21.67
876.889	-23.72
877.062	-1.19
877.234	-29.87
877.407	105.3
877.579	-44.2
877.752	4.95
877.924	9.05
878.097	13.14
878.269	0.85
878.442	47.96
878.614	-17.58
878.786	-3.24
878.959	11.09
879.131	-21.67
879.303	-46.25
879.476	-13.48
879.648	-31.91
879.82	-76.97
879.993	45.91
880.165	25.43
880.337	-3.24
880.509	-31.91
880.681	-21.67
880.854	-48.3
881.026	9.05
881.198	50
881.37	47.96
881.542	-1.19
881.714	-3.24
881.886	90.96
882.058	7
882.23	-9.39
882.402	7
882.574	-17.58
882.746	45.91
882.918	-7.34
883.09	23.38
883.262	-46.25
883.434	-27.82
883.606	13.14
883.778	-7.34
883.95	13.14
884.122	43.86
884.293	-15.53
884.465	-42.15
884.637	33.62
884.809	-83.11
884.98	-31.91
885.152	66.39
885.324	88.92
885.496	-5.29
885.667	-54.44
885.839	25.43
886.011	72.53
886.182	-40.11
886.354	37.72
886.525	0.85
886.697	-74.92
886.869	-31.91
887.04	52.05
887.212	-23.72
887.383	-1.19
887.555	-15.53
887.726	2.9
887.897	15.19
888.069	-68.78
888.24	-11.43
888.412	-33.96
888.583	-74.92
888.754	17.24
888.926	-42.15
889.097	25.43
889.268	13.14
889.44	-23.72
889.611	-42.15
889.782	-58.54
889.953	70.48
890.125	-11.43
890.296	-33.96
890.467	4.95
890.638	-17.58
890.809	-1.19
890.98	15.19
891.151	-17.58
891.323	-29.87
891.494	7
891.665	-50.35
891.836	-50.35
892.007	9.05
892.178	80.72
892.349	115.54
892.52	21.33
892.691	27.48
892.862	-21.67
893.032	19.29
893.203	37.72
893.374	-1.19
893.545	-5.29
893.716	2.9
893.887	19.29
894.057	-50.35
894.228	-33.96
894.399	-21.67
894.57	9.05
894.74	-40.11
894.911	43.86
895.082	4.95
895.253	-17.58
895.423	-3.24
895.594	-3.24
895.764	4.95
895.935	-9.39
896.106	-38.06
896.276	25.43
896.447	-1.19
896.617	-46.25
896.788	-76.97
896.958	-42.15
897.129	-25.77
897.299	-50.35
897.47	-1.19
897.64	-29.87
897.81	101.2
897.981	17.24
898.151	15.19
898.322	47.96
898.492	-15.53
898.662	-5.29
898.832	-54.44
899.003	-15.53
899.173	-40.11
899.343	64.34
899.513	-13.48
