Data from USB4F104151__288__14-02-43-664.txt Node

Date: Thu Mar 13 14:02:43 EDT 2025
User: louis
Spectrometer: USB4F10415
Trigger mode: 4
Integration Time (sec): 1.000000E-2
Scans to average: 1
Electric dark correction enabled: true
Nonlinearity correction enabled: false
Boxcar width: 0
XAxis mode: Wavelengths
Number of Pixels in Spectrum: 3648
>>>>>Begin Spectral Data<<<<<
178.204	-61.95
178.424	-61.95
178.644	-61.95
178.864	3.58
179.084	13.82
179.304	15.87
179.524	7.68
179.744	-6.66
179.964	-61.95
180.184	-18.94
180.404	13.82
180.624	32.26
180.844	26.11
181.064	-10.75
181.283	40.45
181.503	-25.09
181.723	-12.8
181.943	-4.61
182.163	38.4
182.383	15.87
182.602	60.93
182.822	30.21
183.042	58.88
183.262	9.73
183.482	-39.42
183.701	42.5
183.921	44.54
184.141	34.3
184.361	5.63
184.58	24.06
184.8	11.78
185.02	65.02
185.239	28.16
185.459	-16.9
185.679	-31.23
185.898	-29.18
186.118	116.22
186.338	13.82
186.557	-18.94
186.777	-8.7
186.997	5.63
187.216	60.93
187.436	42.5
187.655	13.82
187.875	17.92
188.095	11.78
188.314	-6.66
188.534	36.35
188.753	-2.56
188.973	52.74
189.192	65.02
189.412	5.63
189.631	-23.04
189.851	15.87
190.07	-2.56
190.29	11.78
190.509	17.92
190.729	28.16
190.948	50.69
191.168	85.5
191.387	-12.8
191.607	-53.76
191.826	-23.04
192.045	54.78
192.265	-10.75
192.484	40.45
192.704	1.54
192.923	-39.42
193.142	48.64
193.362	38.4
193.581	69.12
193.8	62.98
194.02	52.74
194.239	95.74
194.458	54.78
194.678	17.92
194.897	26.11
195.116	22.02
195.335	99.84
195.555	42.5
195.774	26.11
195.993	22.02
196.212	44.54
196.432	9.73
196.651	46.59
196.87	-2.56
197.089	-10.75
197.308	93.69
197.528	-20.99
197.747	26.11
197.966	9.73
198.185	91.65
198.404	-6.66
198.623	11.78
198.842	36.35
199.062	-2.56
199.281	95.74
199.5	40.45
199.719	38.4
199.938	44.54
200.157	60.93
200.376	22.02
200.595	54.78
200.814	52.74
201.033	1.54
201.252	22.02
201.471	34.3
201.69	38.4
201.909	32.26
202.128	-27.14
202.347	7.68
202.566	9.73
202.785	38.4
203.004	24.06
203.223	46.59
203.442	17.92
203.661	7.68
203.879	-14.85
204.098	118.27
204.317	3.58
204.536	17.92
204.755	9.73
204.974	32.26
205.193	-10.75
205.411	-14.85
205.63	62.98
205.849	34.3
206.068	9.73
206.287	42.5
206.505	124.41
206.724	30.21
206.943	-16.9
207.162	-6.66
207.381	54.78
207.599	15.87
207.818	5.63
208.037	50.69
208.255	-35.33
208.474	17.92
208.693	54.78
208.911	-18.94
209.13	24.06
209.349	9.73
209.567	1.54
209.786	52.74
210.005	1.54
210.223	58.88
210.442	-2.56
210.661	83.45
210.879	22.02
211.098	3.58
211.316	91.65
211.535	3.58
211.753	-29.18
211.972	-25.09
212.191	83.45
212.409	99.84
212.628	36.35
212.846	1.54
213.065	-35.33
213.283	11.78
213.502	15.87
213.72	3.58
213.938	101.89
214.157	46.59
214.375	91.65
214.594	9.73
214.812	13.82
215.031	32.26
215.249	40.45
215.467	34.3
215.686	1.54
215.904	75.26
216.122	44.54
216.341	-4.61
216.559	34.3
216.778	58.88
216.996	34.3
217.214	-6.66
217.432	69.12
217.651	58.88
217.869	5.63
218.087	-45.57
218.306	32.26
218.524	1.54
218.742	62.98
218.96	46.59
219.179	24.06
219.397	62.98
219.615	3.58
219.833	-23.04
220.051	-35.33
220.27	-14.85
220.488	58.88
220.706	48.64
220.924	17.92
221.142	69.12
221.36	67.07
221.578	-10.75
221.796	26.11
222.015	52.74
222.233	1.54
222.451	28.16
222.669	32.26
222.887	67.07
223.105	-70.14
223.323	87.55
223.541	-14.85
223.759	-29.18
223.977	-14.85
224.195	11.78
224.413	52.74
224.631	3.58
224.849	17.92
225.067	58.88
225.285	-20.99
225.503	22.02
225.721	-27.14
225.939	50.69
226.157	32.26
226.375	30.21
226.592	-23.04
226.81	-2.56
227.028	34.3
227.246	44.54
227.464	87.55
227.682	22.02
227.9	-10.75
228.117	87.55
228.335	34.3
228.553	54.78
228.771	34.3
228.989	58.88
229.206	15.87
229.424	-12.8
229.642	-23.04
229.86	52.74
230.077	83.45
230.295	40.45
230.513	91.65
230.731	77.31
230.948	-35.33
231.166	89.6
231.384	-12.8
231.601	19.97
231.819	91.65
232.037	54.78
232.254	-4.61
232.472	17.92
232.689	114.17
232.907	44.54
233.125	-53.76
233.342	26.11
233.56	38.4
233.777	69.12
233.995	62.98
234.213	9.73
234.43	13.82
234.648	73.21
234.865	-107.01
235.083	-8.7
235.3	36.35
235.518	89.6
235.735	128.51
235.953	-8.7
236.17	38.4
236.388	36.35
236.605	17.92
236.822	3.58
237.04	62.98
237.257	50.69
237.475	13.82
237.692	-4.61
237.909	58.88
238.127	-33.28
238.344	-18.94
238.562	-12.8
238.779	-43.52
238.996	58.88
239.214	32.26
239.431	1.54
239.648	52.74
239.865	-2.56
240.083	30.21
240.3	9.73
240.517	-14.85
240.735	67.07
240.952	38.4
241.169	42.5
241.386	-18.94
241.603	-14.85
241.821	93.69
242.038	69.12
242.255	69.12
242.472	42.5
242.689	1.54
242.907	91.65
243.124	-6.66
243.341	50.69
243.558	-23.04
243.775	36.35
243.992	22.02
244.209	36.35
244.426	34.3
244.643	52.74
244.86	83.45
245.078	9.73
245.295	9.73
245.512	-6.66
245.729	11.78
245.946	-0.51
246.163	24.06
246.38	7.68
246.597	99.84
246.814	-12.8
247.031	28.16
247.248	-37.38
247.464	24.06
247.681	-16.9
247.898	19.97
248.115	-4.61
248.332	30.21
248.549	15.87
248.766	79.36
248.983	-0.51
249.2	65.02
249.417	91.65
249.633	42.5
249.85	9.73
250.067	69.12
250.284	69.12
250.501	87.55
250.717	-27.14
250.934	105.98
251.151	26.11
251.368	75.26
251.585	58.88
251.801	44.54
252.018	-57.86
252.235	11.78
252.451	32.26
252.668	71.17
252.885	67.07
253.102	58.88
253.318	34.3
253.535	22.02
253.752	15.87
253.968	26.11
254.185	30.21
254.401	28.16
254.618	26.11
254.835	26.11
255.051	38.4
255.268	-37.38
255.484	30.21
255.701	118.27
255.917	28.16
256.134	77.31
256.351	13.82
256.567	5.63
256.784	1.54
257	5.63
257.217	85.5
257.433	1.54
257.65	9.73
257.866	48.64
258.082	22.02
258.299	13.82
258.515	-4.61
258.732	3.58
258.948	62.98
259.165	11.78
259.381	65.02
259.597	17.92
259.814	30.21
260.03	17.92
260.246	95.74
260.463	19.97
260.679	62.98
260.895	26.11
261.112	60.93
261.328	-6.66
261.544	15.87
261.761	54.78
261.977	5.63
262.193	-35.33
262.409	60.93
262.626	-4.61
262.842	36.35
263.058	-4.61
263.274	7.68
263.49	1.54
263.707	9.73
263.923	28.16
264.139	50.69
264.355	3.58
264.571	36.35
264.787	26.11
265.004	11.78
265.22	46.59
265.436	71.17
265.652	-23.04
265.868	54.78
266.084	5.63
266.3	122.37
266.516	58.88
266.732	99.84
266.948	67.07
267.164	3.58
267.38	-25.09
267.596	65.02
267.812	44.54
268.028	36.35
268.244	32.26
268.46	42.5
268.676	-14.85
268.892	-16.9
269.108	24.06
269.324	46.59
269.54	-20.99
269.756	91.65
269.972	42.5
270.188	112.13
270.403	118.27
270.619	-12.8
270.835	-27.14
271.051	-8.7
271.267	30.21
271.483	69.12
271.698	34.3
271.914	75.26
272.13	28.16
272.346	52.74
272.562	44.54
272.777	54.78
272.993	44.54
273.209	1.54
273.425	30.21
273.64	-10.75
273.856	28.16
274.072	7.68
274.287	58.88
274.503	-12.8
274.719	-12.8
274.934	52.74
275.15	15.87
275.366	48.64
275.581	-43.52
275.797	1.54
276.012	28.16
276.228	44.54
276.444	9.73
276.659	99.84
276.875	-12.8
277.09	73.21
277.306	42.5
277.521	83.45
277.737	26.11
277.952	40.45
278.168	-41.47
278.383	40.45
278.599	-0.51
278.814	97.79
279.03	22.02
279.245	54.78
279.461	101.89
279.676	67.07
279.892	46.59
280.107	3.58
280.322	-0.51
280.538	60.93
280.753	-59.9
280.969	1.54
281.184	62.98
281.399	24.06
281.615	22.02
281.83	3.58
282.045	-23.04
282.26	48.64
282.476	112.13
282.691	81.41
282.906	40.45
283.122	30.21
283.337	9.73
283.552	7.68
283.767	34.3
283.983	69.12
284.198	11.78
284.413	-4.61
284.628	3.58
284.843	9.73
285.058	48.64
285.274	83.45
285.489	-23.04
285.704	36.35
285.919	-4.61
286.134	-27.14
286.349	89.6
286.564	17.92
286.779	46.59
286.995	40.45
287.21	46.59
287.425	71.17
287.64	-6.66
287.855	42.5
288.07	40.45
288.285	65.02
288.5	19.97
288.715	71.17
288.93	13.82
289.145	3.58
289.36	62.98
289.575	52.74
289.79	60.93
290.004	-55.81
290.219	-20.99
290.434	34.3
290.649	-84.48
290.864	-16.9
291.079	48.64
291.294	46.59
291.509	48.64
291.724	26.11
291.938	44.54
292.153	103.93
292.368	65.02
292.583	22.02
292.798	65.02
293.012	71.17
293.227	26.11
293.442	67.07
293.657	9.73
293.871	116.22
294.086	22.02
294.301	56.83
294.516	134.65
294.73	24.06
294.945	17.92
295.16	19.97
295.374	9.73
295.589	19.97
295.804	1.54
296.018	-10.75
296.233	97.79
296.447	67.07
296.662	67.07
296.877	89.6
297.091	54.78
297.306	50.69
297.52	-4.61
297.735	50.69
297.949	110.08
298.164	75.26
298.378	-41.47
298.593	50.69
298.807	50.69
299.022	118.27
299.236	67.07
299.451	1.54
299.665	-20.99
299.88	30.21
300.094	1.54
300.309	26.11
300.523	1.54
300.737	62.98
300.952	36.35
301.166	120.32
301.381	5.63
301.595	75.26
301.809	144.89
302.024	-2.56
302.238	19.97
302.452	30.21
302.667	13.82
302.881	9.73
303.095	112.13
303.309	24.06
303.524	36.35
303.738	28.16
303.952	48.64
304.166	3.58
304.381	60.93
304.595	73.21
304.809	67.07
305.023	67.07
305.237	34.3
305.452	26.11
305.666	-14.85
305.88	7.68
306.094	9.73
306.308	120.32
306.522	81.41
306.736	50.69
306.95	67.07
307.164	28.16
307.379	38.4
307.593	69.12
307.807	56.83
308.021	58.88
308.235	9.73
308.449	-10.75
308.663	124.41
308.877	103.93
309.091	-14.85
309.305	7.68
309.519	-2.56
309.733	26.11
309.947	34.3
310.161	71.17
310.374	-20.99
310.588	36.35
310.802	32.26
311.016	26.11
311.23	48.64
311.444	42.5
311.658	13.82
311.872	34.3
312.085	50.69
312.299	95.74
312.513	62.98
312.727	71.17
312.941	48.64
313.154	34.3
313.368	52.74
313.582	38.4
313.796	-2.56
314.009	77.31
314.223	42.5
314.437	81.41
314.651	87.55
314.864	36.35
315.078	28.16
315.292	116.22
315.505	-27.14
315.719	71.17
315.933	26.11
316.146	-10.75
316.36	-53.76
316.573	44.54
316.787	13.82
317.001	54.78
317.214	46.59
317.428	85.5
317.641	-2.56
317.855	1.54
318.068	99.84
318.282	1.54
318.495	5.63
318.709	34.3
318.922	-39.42
319.136	89.6
319.349	69.12
319.563	60.93
319.776	3.58
319.99	-18.94
320.203	87.55
320.417	48.64
320.63	67.07
320.843	87.55
321.057	-47.62
321.27	85.5
321.483	-27.14
321.697	83.45
321.91	34.3
322.124	42.5
322.337	26.11
322.55	97.79
322.763	-6.66
322.977	17.92
323.19	-10.75
323.403	-14.85
323.617	-27.14
323.83	40.45
324.043	13.82
324.256	40.45
324.469	15.87
324.683	50.69
324.896	3.58
325.109	97.79
325.322	5.63
325.535	46.59
325.748	62.98
325.962	50.69
326.175	5.63
326.388	19.97
326.601	75.26
326.814	99.84
327.027	116.22
327.24	36.35
327.453	56.83
327.666	101.89
327.879	54.78
328.092	-18.94
328.305	73.21
328.518	60.93
328.731	75.26
328.944	-14.85
329.157	77.31
329.37	24.06
329.583	112.13
329.796	22.02
330.009	83.45
330.222	50.69
330.435	58.88
330.648	42.5
330.861	83.45
331.073	-4.61
331.286	17.92
331.499	1.54
331.712	30.21
331.925	19.97
332.138	9.73
332.35	11.78
332.563	1.54
332.776	42.5
332.989	67.07
333.202	9.73
333.414	75.26
333.627	89.6
333.84	87.55
334.053	52.74
334.265	50.69
334.478	-57.86
334.691	-14.85
334.903	99.84
335.116	11.78
335.329	50.69
335.541	36.35
335.754	1.54
335.966	62.98
336.179	85.5
336.392	44.54
336.604	65.02
336.817	3.58
337.029	-6.66
337.242	58.88
337.454	42.5
337.667	32.26
337.88	128.51
338.092	91.65
338.305	50.69
338.517	34.3
338.729	28.16
338.942	34.3
339.154	91.65
339.367	17.92
339.579	48.64
339.792	-4.61
340.004	69.12
340.217	13.82
340.429	110.08
340.641	58.88
340.854	58.88
341.066	62.98
341.278	67.07
341.491	116.22
341.703	-61.95
341.915	36.35
342.128	46.59
342.34	50.69
342.552	9.73
342.764	9.73
342.977	-18.94
343.189	54.78
343.401	50.69
343.613	30.21
343.826	-29.18
344.038	-31.23
344.25	-10.75
344.462	75.26
344.674	17.92
344.886	48.64
345.099	19.97
345.311	62.98
345.523	-35.33
345.735	81.41
345.947	34.3
346.159	58.88
346.371	85.5
346.583	28.16
346.795	60.93
347.007	101.89
347.219	-2.56
347.431	54.78
347.643	112.13
347.855	58.88
348.067	69.12
348.279	40.45
348.491	69.12
348.703	19.97
348.915	77.31
349.127	3.58
349.339	69.12
349.551	-0.51
349.763	34.3
349.975	-8.7
350.187	126.46
350.399	54.78
350.61	-6.66
350.822	71.17
351.034	87.55
351.246	91.65
351.458	32.26
351.669	77.31
351.881	17.92
352.093	116.22
352.305	-6.66
352.517	5.63
352.728	1.54
352.94	13.82
353.152	54.78
353.363	77.31
353.575	105.98
353.787	118.27
353.999	32.26
354.21	75.26
354.422	22.02
354.633	7.68
354.845	30.21
355.057	60.93
355.268	34.3
355.48	67.07
355.692	-0.51
355.903	153.09
356.115	22.02
356.326	56.83
356.538	67.07
356.749	54.78
356.961	62.98
357.172	34.3
357.384	9.73
357.595	50.69
357.807	17.92
358.018	52.74
358.23	44.54
358.441	99.84
358.653	69.12
358.864	42.5
359.075	46.59
359.287	-0.51
359.498	48.64
359.709	124.41
359.921	-14.85
360.132	42.5
360.344	110.08
360.555	85.5
360.766	42.5
360.977	103.93
361.189	118.27
361.4	36.35
361.611	81.41
361.823	30.21
362.034	36.35
362.245	3.58
362.456	50.69
362.667	28.16
362.879	50.69
363.09	112.13
363.301	26.11
363.512	26.11
363.723	69.12
363.935	26.11
364.146	1.54
364.357	60.93
364.568	32.26
364.779	91.65
364.99	-29.18
365.201	24.06
365.412	34.3
365.623	44.54
365.834	83.45
366.045	73.21
366.256	112.13
366.467	40.45
366.678	44.54
366.889	1.54
367.1	36.35
367.311	69.12
367.522	85.5
367.733	54.78
367.944	42.5
368.155	7.68
368.366	89.6
368.577	34.3
368.788	22.02
368.999	-4.61
369.209	58.88
369.42	-2.56
369.631	91.65
369.842	7.68
370.053	73.21
370.264	77.31
370.474	122.37
370.685	3.58
370.896	26.11
371.107	38.4
371.317	42.5
371.528	89.6
371.739	62.98
371.95	22.02
372.16	26.11
372.371	9.73
372.582	48.64
372.792	73.21
373.003	22.02
373.214	52.74
373.424	58.88
373.635	105.98
373.846	62.98
374.056	42.5
374.267	67.07
374.477	40.45
374.688	24.06
374.898	-0.51
375.109	99.84
375.319	28.16
375.53	67.07
375.74	-10.75
375.951	103.93
376.161	112.13
376.372	144.89
376.582	24.06
376.793	126.46
377.003	-10.75
377.214	50.69
377.424	40.45
377.635	32.26
377.845	5.63
378.055	99.84
378.266	-2.56
378.476	67.07
378.686	11.78
378.897	42.5
379.107	52.74
379.317	114.17
379.528	32.26
379.738	99.84
379.948	95.74
380.158	93.69
380.369	19.97
380.579	116.22
380.789	22.02
380.999	52.74
381.21	56.83
381.42	54.78
381.63	71.17
381.84	62.98
382.05	62.98
382.261	30.21
382.471	56.83
382.681	19.97
382.891	44.54
383.101	60.93
383.311	69.12
383.521	-6.66
383.731	114.17
383.941	5.63
384.151	15.87
384.361	-72.19
384.571	46.59
384.781	54.78
384.991	42.5
385.201	38.4
385.411	22.02
385.621	34.3
385.831	9.73
386.041	118.27
386.251	89.6
386.461	9.73
386.671	83.45
386.881	54.78
387.091	30.21
387.301	95.74
387.511	120.32
387.72	62.98
387.93	65.02
388.14	69.12
388.35	60.93
388.56	108.03
388.769	112.13
388.979	77.31
389.189	-6.66
389.399	89.6
389.609	22.02
389.818	28.16
390.028	52.74
390.238	36.35
390.447	87.55
390.657	15.87
390.867	85.5
391.076	15.87
391.286	85.5
391.496	34.3
391.705	126.46
391.915	54.78
392.125	89.6
392.334	108.03
392.544	89.6
392.753	132.61
392.963	67.07
393.172	83.45
393.382	60.93
393.591	91.65
393.801	95.74
394.01	105.98
394.22	99.84
394.429	75.26
394.639	52.74
394.848	110.08
395.058	103.93
395.267	97.79
395.477	67.07
395.686	157.18
395.895	126.46
396.105	118.27
396.314	93.69
396.524	24.06
396.733	81.41
396.942	153.09
397.152	71.17
397.361	26.11
397.57	105.98
397.78	85.5
397.989	110.08
398.198	120.32
398.407	65.02
398.617	124.41
398.826	124.41
399.035	103.93
399.244	60.93
399.453	58.88
399.663	134.65
399.872	108.03
400.081	99.84
400.29	85.5
400.499	-2.56
400.708	91.65
400.917	99.84
401.127	52.74
401.336	167.42
401.545	120.32
401.754	52.74
401.963	130.56
402.172	85.5
402.381	101.89
402.59	181.76
402.799	136.7
403.008	99.84
403.217	110.08
403.426	58.88
403.635	155.13
403.844	122.37
404.053	112.13
404.262	118.27
404.471	126.46
404.68	132.61
404.888	130.56
405.097	183.81
405.306	126.46
405.515	185.85
405.724	181.76
405.933	163.33
406.142	116.22
406.35	132.61
406.559	142.85
406.768	132.61
406.977	198.14
407.185	198.14
407.394	226.81
407.603	192
407.812	282.11
408.02	206.33
408.229	214.52
408.438	173.57
408.646	257.53
408.855	220.67
409.064	226.81
409.272	271.87
409.481	280.06
409.69	247.29
409.898	278.01
410.107	237.05
410.315	312.83
410.524	265.72
410.733	239.1
410.941	300.54
411.15	359.93
411.358	370.17
411.567	400.89
411.775	353.79
411.984	388.6
412.192	472.57
412.401	390.65
412.609	447.99
412.818	468.47
413.026	392.7
413.234	503.29
413.443	521.72
413.651	501.24
413.86	515.58
414.068	542.2
414.276	556.54
414.485	538.1
414.693	603.64
414.901	589.3
415.11	665.08
415.318	665.08
415.526	691.7
415.734	773.62
415.943	783.86
416.151	845.3
416.359	732.66
416.567	843.25
416.776	796.15
416.984	884.21
417.192	890.35
417.4	902.64
417.608	906.74
417.817	939.51
418.025	1093.1
418.233	1146.35
418.441	1035.76
418.649	1144.3
418.857	1134.06
419.065	1304.04
419.273	1267.18
419.481	1175.02
419.689	1361.39
419.897	1388.01
420.105	1441.26
420.313	1560.04
420.521	1465.83
420.729	1453.55
420.937	1541.61
421.145	1627.62
421.353	1713.64
421.561	1900
421.769	1852.9
421.977	1877.48
422.185	1869.28
422.393	2037.22
422.601	2049.5
422.809	2201.05
423.017	2115.04
423.224	2278.88
423.432	2391.52
423.64	2276.83
423.848	2477.53
424.056	2481.63
424.263	2706.9
424.471	2639.32
424.679	2639.32
424.887	2958.8
425.094	2880.98
425.302	3024.34
425.51	3169.74
425.718	3237.33
425.925	3110.35
426.133	3212.75
426.341	3446.22
426.548	3530.19
426.756	3618.25
426.964	3732.94
427.171	3847.62
427.379	4040.13
427.586	4081.09
427.794	4279.74
428.001	4322.75
428.209	4396.48
428.417	4371.9
428.624	4795.83
428.832	4853.17
429.039	4769.21
429.247	4761.02
429.454	5008.82
429.662	5567.92
429.869	5205.42
430.076	5633.45
430.284	5379.5
430.491	5512.62
430.699	5981.6
430.906	5975.46
431.114	6081.96
431.321	6344.1
431.528	6493.6
431.736	6888.85
431.943	7107.99
432.15	6905.24
432.358	6981.01
432.565	7251.35
432.772	7363.98
432.979	7796.11
433.187	7783.82
433.394	7918.98
433.601	8449.41
433.808	8371.58
434.016	8498.56
434.223	8676.73
434.43	9260.4
434.637	8957.3
434.844	9573.74
435.052	9799.02
435.259	9799.02
435.466	9950.57
435.673	9670
435.88	10407.27
436.087	10927.45
436.294	10894.68
436.501	10538.34
436.708	10853.72
436.915	11158.87
437.122	11867.47
437.329	11617.61
437.537	12025.16
437.743	12332.36
437.95	12133.7
438.157	12789.05
438.364	13448.5
438.571	13313.33
438.778	13350.2
438.985	14464.29
439.192	13868.33
439.399	14468.39
439.606	14271.78
439.813	14806.3
440.02	15727.89
440.227	15549.71
440.433	15105.31
440.64	15994.12
440.847	15740.18
441.054	16110.86
441.261	17261.82
441.467	16895.23
441.674	17450.23
441.881	18048.24
442.088	17790.19
442.294	17741.04
442.501	17986.8
442.708	18543.85
442.914	19416.28
443.121	20045.01
443.328	19725.52
443.534	21116.09
443.741	20554.95
443.948	20268.23
444.154	21714.1
444.361	21517.5
444.568	21691.57
444.774	21638.33
444.981	21953.71
445.187	22459.56
445.394	23489.69
445.6	23043.23
445.807	25379.96
446.013	24097.94
446.22	24575.11
446.426	25490.56
446.633	25785.46
446.839	26639.47
447.046	25433.21
447.252	27018.34
447.459	26903.65
447.665	26958.95
447.871	28085.33
448.078	28982.34
448.284	27927.64
448.491	28406.86
448.697	30014.52
448.903	30131.25
449.11	30622.76
449.316	30014.52
449.522	30403.63
449.728	31179.81
449.935	31511.58
450.141	31546.4
450.347	31634.46
450.553	31040.55
450.76	31624.22
450.966	32740.36
451.172	32158.74
451.378	32652.3
451.584	32199.7
451.791	32830.48
451.997	32996.36
452.203	33604.61
452.409	33580.03
452.615	33291.27
452.821	32316.43
453.027	32248.85
453.233	33438.72
453.44	32060.44
453.646	32115.73
453.852	32830.48
454.058	33033.22
454.264	32271.38
454.47	32408.59
454.676	31923.22
454.882	33109
455.088	30133.3
455.294	30805.03
455.5	30882.86
455.705	31525.92
455.911	30075.96
456.117	29963.32
456.323	29275.2
456.529	27798.62
456.735	28814.41
456.941	28177.49
457.147	27628.63
457.352	26870.89
457.558	26762.34
457.764	26559.59
457.97	26045.55
458.176	25455.74
458.381	25601.15
458.587	24128.66
458.793	24278.16
458.999	23047.33
459.204	24824.97
459.41	24157.33
459.616	22408.36
459.821	22574.25
460.027	22367.4
460.233	21800.12
460.438	20710.6
460.644	21220.54
460.85	20206.8
461.055	20032.72
461.261	19729.62
461.466	18207.98
461.672	17702.13
461.878	19326.17
462.083	17798.38
462.289	17413.37
462.494	17417.46
462.7	16628.99
462.905	16141.58
463.111	16657.67
463.316	16622.85
463.522	16477.44
463.727	16434.44
463.932	16303.37
464.138	16166.15
464.343	16327.94
464.549	15731.98
464.754	16403.72
464.959	15957.26
465.165	15906.06
465.37	15219.99
465.575	14779.68
465.781	15521.04
465.986	15463.7
466.191	15115.55
466.397	14728.48
466.602	13972.78
466.807	14447.91
467.012	14445.86
467.218	14386.47
467.423	14325.03
467.628	14294.31
467.833	14886.17
468.038	14124.33
468.244	14050.6
468.449	14734.62
468.654	14009.64
468.859	13983.02
469.064	13999.4
469.269	13284.66
469.474	13485.36
469.679	13706.54
469.885	13434.16
470.09	13604.14
470.295	13475.12
470.5	13126.97
470.705	13206.84
470.91	13069.62
471.115	12770.62
471.32	13083.96
471.525	12688.7
471.73	12672.32
471.935	12557.63
472.139	12221.77
472.344	12348.74
472.549	12084.55
472.754	11955.53
472.959	11914.57
473.164	11545.94
473.369	11404.63
473.574	11717.97
473.778	11697.49
473.983	11466.07
474.188	11265.36
474.393	11124.05
474.598	11093.33
474.802	10941.79
475.007	10935.64
475.212	10890.59
475.417	10548.58
475.621	10589.53
475.826	10487.14
476.031	10331.49
476.235	10052.97
476.44	10433.89
476.645	9977.19
476.849	10077.54
477.054	9885.03
477.259	10038.63
477.463	9848.17
477.668	9340.27
477.872	9692.52
478.077	9612.65
478.282	9520.49
478.486	9287.03
478.691	9098.61
478.895	9280.88
479.1	9205.11
479.304	9190.77
479.509	8850.81
479.713	8965.5
479.918	8902.01
480.122	8603
480.326	8813.95
480.531	8631.68
480.735	8600.96
480.94	8801.66
481.144	8793.47
481.348	8451.46
481.553	8613.24
481.757	8435.07
481.961	8557.95
482.166	8603
482.37	8588.67
482.574	8418.69
482.778	8447.36
482.983	8631.68
483.187	8357.25
483.391	8451.46
483.595	8498.56
483.8	8158.6
484.004	8490.37
484.208	8519.04
484.412	8480.13
484.616	8310.15
484.821	8398.21
485.025	8314.24
485.229	8463.74
485.433	8406.4
485.637	8537.47
485.841	8222.08
486.045	8285.57
486.249	8385.92
486.453	8226.18
486.657	8445.31
486.861	8473.98
487.065	8291.71
487.269	8400.26
487.473	8283.52
487.677	8383.87
487.881	8406.4
488.085	8471.93
488.289	8480.13
488.493	8435.07
488.697	8435.07
488.901	8508.8
489.105	8576.38
489.309	8822.14
489.512	8660.35
489.716	8592.76
489.92	8447.36
490.124	8506.75
490.328	8705.4
490.531	8557.95
490.735	8719.74
490.939	8625.53
491.143	8740.22
491.346	8674.68
491.55	8799.61
491.754	8672.64
491.958	9004.41
492.161	8926.58
492.365	8953.21
492.569	8809.85
492.772	8932.73
492.976	8836.47
493.18	8992.12
493.383	9121.14
493.587	9301.36
493.79	9201.01
493.994	9192.82
494.197	9438.58
494.401	9422.19
494.605	9487.73
494.808	9397.62
495.012	9688.43
495.215	9588.08
495.419	9594.22
495.622	9604.46
495.825	9811.31
496.029	9653.61
496.232	10126.69
496.436	10188.13
496.639	10311.01
496.843	10292.58
497.046	10644.83
497.249	10497.38
497.453	10368.35
497.656	10831.19
497.859	10892.63
498.063	10751.32
498.266	11171.16
498.469	11140.44
498.673	11220.31
498.876	11447.63
499.079	11617.61
499.282	11343.19
499.485	11836.75
499.689	11801.93
499.892	12062.02
500.095	11916.62
500.298	12377.41
500.501	12156.23
500.705	12270.92
500.908	12805.44
501.111	12641.6
501.314	12838.2
501.517	13098.3
501.72	13204.79
501.923	13331.76
502.126	13585.71
502.329	13630.77
502.532	13669.68
502.735	13913.39
502.938	13995.31
503.141	14384.42
503.344	14583.07
503.547	14398.76
503.75	14966.04
503.953	14945.56
504.156	15256.86
504.359	15148.31
504.562	15422.74
504.765	15754.51
504.968	15957.26
505.17	16149.77
505.373	16125.19
505.576	16569.6
505.779	16733.44
505.982	16598.27
506.185	17106.17
506.387	17050.88
506.59	17417.46
506.793	17835.25
506.996	17702.13
507.198	18146.54
507.401	18177.26
507.604	18457.83
507.807	18504.93
508.009	18777.31
508.212	18801.89
508.415	19324.12
508.617	19606.74
508.82	19778.77
509.022	19553.49
509.225	20012.24
509.428	20186.32
509.63	20509.9
509.833	20464.84
510.035	20964.54
510.238	21255.36
510.44	21294.27
510.643	21511.35
510.845	22017.2
511.048	21732.53
511.25	22129.84
511.453	22457.51
511.655	23047.33
511.858	23002.27
512.06	23043.23
512.262	23452.83
512.465	23651.48
512.667	23923.86
512.87	24040.59
513.072	24206.48
513.274	24898.69
513.477	24878.21
513.679	25265.28
513.881	25613.43
514.084	25986.16
514.286	25984.12
514.488	25998.45
514.69	27280.48
514.893	26743.91
515.095	26991.72
515.297	27657.31
515.499	27548.76
515.701	27958.36
515.904	28349.52
516.106	28480.59
516.308	28781.64
516.51	28847.18
516.712	29426.75
516.914	29531.2
517.116	29967.41
517.318	29879.35
517.52	30315.57
517.722	30430.26
517.925	31398.94
518.127	31530.01
518.329	31556.64
518.531	31704.09
518.733	32377.87
518.935	32459.79
519.136	32646.16
519.338	33219.59
519.54	33465.35
519.742	33467.39
519.944	33782.78
520.146	34360.31
520.348	34864.11
520.55	34628.59
520.752	34784.24
520.954	35453.92
521.155	35544.03
521.357	36113.37
521.559	36228.06
521.761	36819.92
521.963	36565.97
522.164	36819.92
522.366	37131.21
522.568	37626.82
522.77	37598.15
522.971	38116.28
523.173	37895.1
523.375	38476.72
523.576	38738.86
523.778	38558.64
523.98	38968.24
524.181	39308.2
524.383	39756.71
524.584	40014.75
524.786	39838.62
524.988	40010.65
525.189	40514.45
525.391	40840.08
525.592	40944.53
525.794	40809.36
525.995	41130.89
526.197	41134.99
526.398	41407.37
526.6	41591.69
526.801	41839.49
527.003	42273.66
527.204	41964.42
527.406	42251.13
527.607	42259.32
527.808	42752.88
528.01	42234.75
528.211	42804.08
528.412	43432.81
528.614	43180.91
528.815	43488.1
529.016	44061.54
529.218	43563.88
529.419	43217.77
529.62	43721.57
529.822	43711.33
530.023	43484.01
530.224	43758.44
530.425	43934.56
530.626	43952.99
530.828	43619.17
531.029	44745.56
531.23	44485.47
531.431	44217.18
531.632	44473.18
531.833	44524.38
532.035	44284.76
532.236	44831.57
532.437	44749.65
532.638	44804.95
532.839	44557.14
533.04	45013.84
533.241	44645.21
533.442	45269.84
533.643	44796.76
533.844	44796.76
534.045	44895.06
534.246	44637.01
534.447	44940.11
534.648	45185.87
534.849	45337.42
535.05	45089.62
535.251	44972.88
535.451	44886.87
535.652	45239.12
535.853	45132.62
536.054	45138.77
536.255	45327.18
536.456	45249.36
536.657	45507.4
536.857	45464.39
537.058	44925.78
537.259	45640.52
537.46	45220.69
537.66	44979.03
537.861	45445.96
538.062	45089.62
538.263	45089.62
538.463	45253.45
538.664	45237.07
538.865	45189.97
539.065	45362
539.266	44661.59
539.466	45243.21
539.667	44804.95
539.868	45259.6
540.068	44802.9
540.269	45382.48
540.469	45650.76
540.67	44794.71
540.87	45292.36
541.071	45425.48
541.271	45026.13
541.472	44725.08
541.672	44843.86
541.873	44868.44
542.073	44727.13
542.274	45218.64
542.474	45380.43
542.675	44905.3
542.875	45073.23
543.075	44864.34
543.276	44587.86
543.476	45415.24
543.676	44297.05
543.877	45062.99
544.077	44815.19
544.277	44761.94
544.478	45151.06
544.678	45386.57
544.878	44630.87
545.078	44585.82
545.279	44604.25
545.479	44936.02
545.679	45060.94
545.879	44790.61
546.079	44813.14
546.28	45011.79
546.48	44497.75
546.68	45144.91
546.88	44886.87
547.08	44864.34
547.28	44872.53
547.48	44290.91
547.68	44653.4
547.88	44426.07
548.081	44880.72
548.281	44643.16
548.481	44798.8
548.681	44989.27
548.881	44807
549.081	44987.22
549.28	44718.93
549.48	45048.66
549.68	44630.87
549.88	45138.77
550.08	44356.44
550.28	44694.36
550.48	44655.45
550.68	45046.61
550.88	44225.37
551.08	44833.62
551.279	44733.27
551.479	44532.57
551.679	45069.14
551.879	44790.61
552.079	44616.54
552.278	44481.37
552.478	44753.75
552.678	44882.77
552.878	44868.44
553.077	44553.05
553.277	44172.13
553.477	44829.52
553.676	44612.44
553.876	44430.17
554.076	44538.71
554.275	43903.84
554.475	43690.85
554.674	44551
554.874	44448.6
555.074	44211.04
555.273	44399.45
555.473	44542.81
555.672	44362.59
555.872	43684.71
556.071	44016.48
556.271	44362.59
556.47	44125.02
556.67	43367.27
556.869	43529.06
557.068	43977.57
557.268	43430.76
557.467	43496.3
557.667	43969.38
557.866	43651.94
558.065	43266.92
558.265	43320.17
558.464	43496.3
558.663	43703.14
558.863	42707.83
559.062	43348.84
559.261	43029.36
559.461	43504.49
559.66	43088.75
559.859	43494.25
560.058	43228.01
560.258	43156.33
560.457	42765.17
560.656	42859.38
560.855	42591.09
561.054	42779.51
561.253	42736.5
561.453	42765.17
561.652	43350.89
561.851	42992.5
562.05	42257.28
562.249	42310.52
562.448	42578.81
562.647	42627.96
562.846	42150.78
563.045	42367.87
563.244	41833.35
563.443	42550.13
563.642	41296.78
563.841	42269.56
564.04	41661.32
564.239	42212.22
564.438	41560.97
564.637	41823.11
564.836	41624.45
565.035	41327.5
565.234	41538.44
565.432	41149.32
565.631	41100.17
565.83	41237.39
566.029	41061.26
566.228	40772.5
566.427	40747.92
566.625	40973.2
566.824	40606.61
567.023	40813.46
567.222	40289.18
567.42	40977.29
567.619	40430.49
567.818	40383.38
568.016	40160.16
568.215	40715.15
568.414	40000.41
568.612	40633.24
568.811	39895.97
569.01	39617.44
569.208	39631.78
569.407	40172.44
569.605	39746.47
569.804	39893.92
570.002	39570.34
570.201	39689.12
570.4	39379.88
570.598	39318.44
570.797	38988.72
570.995	39066.54
571.193	38833.07
571.392	39154.6
571.59	38648.75
571.789	38820.78
571.987	38529.97
572.186	38632.37
572.384	38085.56
572.582	38509.49
572.781	38566.84
572.979	37852.09
573.177	38224.82
573.376	38073.28
573.574	37766.08
573.772	38001.6
573.971	37766.08
574.169	37467.08
574.367	37528.52
574.565	37522.37
574.763	37311.43
574.962	37110.73
575.16	37059.53
575.358	36856.78
575.556	36537.3
575.754	36965.32
575.952	36561.87
576.151	36791.25
576.349	36496.34
576.547	36109.27
576.745	36166.62
576.943	36121.56
577.141	35990.49
577.339	36078.55
577.537	35914.72
577.735	36090.84
577.933	35476.45
578.131	35822.56
578.329	35558.37
578.527	35306.47
578.725	35283.94
578.923	35574.75
579.121	35073
579.319	35150.82
579.516	35167.21
579.714	34950.12
579.912	34767.85
580.11	34696.17
580.308	34831.34
580.506	34554.86
580.704	34085.88
580.901	34569.2
581.099	34436.08
581.297	33950.71
581.495	33965.05
581.692	34233.33
581.89	33958.91
582.088	34352.12
582.285	33653.76
582.483	34022.39
582.681	33451.01
582.878	33358.85
583.076	33045.51
583.274	33348.61
583.471	32838.67
583.669	33076.23
583.866	32640.01
584.064	32908.3
584.262	32205.84
584.459	33125.38
584.657	32859.15
584.854	33092.62
585.052	32226.32
585.249	32537.62
585.447	32498.7
585.644	32242.71
585.841	32322.58
586.039	32283.67
586.236	31726.62
586.434	31620.13
586.631	31878.17
586.828	31603.74
587.026	31630.37
587.223	31552.54
587.42	31216.68
587.618	31347.75
587.815	30788.65
588.012	31112.23
588.21	30702.64
588.407	31124.52
588.604	30536.75
588.801	30549.04
588.999	30768.17
589.196	30624.81
589.393	30735.4
589.59	30258.23
589.787	30331.95
589.984	30649.39
590.182	29803.58
590.379	30336.05
590.576	30010.42
590.773	29844.54
590.97	29815.87
591.167	29901.88
591.364	29258.82
591.561	29506.62
591.758	29238.34
591.955	28931.14
592.152	29404.22
592.349	28945.48
592.546	29219.91
592.743	29254.72
592.94	28501.07
593.137	29082.69
593.334	28972.1
593.531	28345.42
593.727	28750.92
593.924	28472.4
594.121	28128.34
594.318	28615.76
594.515	28163.15
594.712	28347.47
594.908	28040.28
595.105	28359.76
595.302	27950.17
595.499	27862.1
595.696	27665.5
595.892	27982.93
596.089	27581.53
596.286	27903.06
596.482	27331.68
596.679	27380.83
596.876	27579.48
597.072	27212.9
597.269	27090.02
597.466	27145.31
597.662	26895.46
597.859	27163.75
598.055	26934.37
598.252	26457.2
598.448	26862.69
598.645	26616.94
598.841	26512.49
599.038	26426.48
599.234	26055.79
599.431	26297.45
599.627	26371.18
599.824	26559.59
600.02	25855.09
600.217	25889.91
600.413	25912.44
600.609	25891.96
600.806	25797.75
601.002	25818.23
601.198	25482.36
601.395	25328.77
601.591	25500.79
601.787	25500.79
601.984	25146.5
602.18	25203.84
602.376	25242.75
602.572	24958.08
602.769	25185.41
602.965	24755.33
603.161	24810.63
603.357	24738.95
603.553	24796.29
603.75	24571.02
603.946	24503.43
604.142	24493.19
604.338	24171.66
604.534	24194.19
604.73	24231.05
604.926	24224.91
605.122	23993.49
605.318	23938.19
605.514	23796.88
605.71	23868.56
605.906	23790.74
606.102	23729.3
606.298	23647.38
606.494	23571.61
606.69	23780.5
606.886	23669.91
607.082	22987.94
607.278	23366.81
607.474	22686.89
607.67	23108.77
607.866	22903.97
608.062	23016.61
608.257	22901.92
608.453	22637.73
608.649	22992.03
608.845	22666.41
609.041	22535.34
609.236	22826.15
609.432	22631.59
609.628	22412.46
609.824	22422.7
610.019	22443.18
610.215	22254.76
610.411	22361.26
610.606	22013.1
610.802	22224.04
610.998	22117.55
611.193	22062.26
611.389	21812.4
611.584	22142.13
611.78	21646.52
611.976	21802.16
612.171	21775.54
612.367	21845.17
612.562	21363.9
612.758	21206.2
612.953	21214.4
613.149	21540.02
613.344	21040.32
613.539	21560.5
613.735	21118.14
613.93	21226.68
614.126	20952.26
614.321	21150.91
614.517	21005.5
614.712	21107.9
614.907	20966.59
615.103	21114.05
615.298	21028.03
615.493	21095.61
615.688	20743.36
615.884	20968.64
616.079	20643.01
616.274	20720.84
616.47	20731.08
616.665	20616.39
616.86	20294.86
617.055	20497.61
617.25	20417.74
617.445	20440.26
617.641	19672.28
617.836	20139.21
618.031	20059.34
618.226	20139.21
618.421	19887.31
618.616	19979.47
618.811	19715.28
619.006	19891.41
619.201	19559.64
619.396	19664.08
619.591	19471.57
619.786	19686.61
619.981	19338.46
620.176	19496.15
620.371	19125.47
620.566	19088.6
620.761	19119.32
620.956	19252.44
621.151	19025.12
621.346	18887.9
621.541	18425.06
621.735	18875.62
621.93	18521.32
622.125	18539.75
622.32	18097.39
622.515	18523.37
622.709	18265.32
622.904	18302.18
623.099	17777.9
623.294	18021.61
623.488	17775.86
623.683	17859.82
623.878	17528.05
624.072	17474.81
624.267	17396.98
624.462	17341.69
624.656	16932.09
624.851	17222.91
625.046	16887.04
625.24	17124.6
625.435	16880.89
625.629	16751.87
625.824	16891.13
626.018	16520.45
626.213	16368.9
626.407	16692.48
626.602	16092.43
626.796	16293.13
626.991	16442.63
627.185	16016.65
627.38	15992.08
627.574	16186.63
627.768	15703.31
627.963	15809.81
628.157	15428.88
628.352	15539.47
628.546	15314.2
628.74	15383.83
628.935	15322.39
629.129	15025.43
629.323	15164.7
629.517	15230.23
629.712	15308.05
629.906	15023.39
630.1	14583.07
630.294	14722.34
630.489	14873.89
630.683	14697.76
630.877	14134.57
631.071	14542.11
631.265	14619.94
631.459	14452
631.653	14126.38
631.848	14185.77
632.042	14220.58
632.236	14128.42
632.43	13847.85
632.624	13778.22
632.818	13915.44
633.012	13614.38
633.206	13636.91
633.4	13821.23
633.594	13305.14
633.788	13444.4
633.982	13616.43
634.176	13311.28
634.369	13428.02
634.563	13172.02
634.757	13262.13
634.951	13055.29
635.145	13047.1
635.339	12973.37
635.533	12696.89
635.726	12936.51
635.92	12649.79
636.114	12873.02
636.308	12641.6
636.501	12496.19
636.695	12594.5
636.889	12506.43
637.083	12397.89
637.276	12408.13
637.47	12205.38
637.664	11951.43
637.857	11953.48
638.051	12027.21
638.244	12070.22
638.438	11834.7
638.632	11920.71
638.825	11646.29
639.019	11709.77
639.212	11574.61
639.406	11781.45
639.599	11615.57
639.793	11490.64
639.986	11195.73
640.18	11173.21
640.373	11457.87
640.567	11228.5
640.76	11132.25
640.954	10997.08
641.147	11218.26
641.34	11085.14
641.534	10941.79
641.727	10863.96
641.92	10687.84
642.114	10751.32
642.307	10659.17
642.5	10450.27
642.694	10405.22
642.887	10192.23
643.08	10575.2
643.273	10360.16
643.467	10225
643.66	10157.41
643.853	10063.21
644.046	10194.28
644.239	10052.97
644.432	9987.43
644.626	9948.52
644.819	9856.36
645.012	9721.2
645.205	9622.89
645.398	9778.54
645.591	9567.6
645.784	9567.6
645.977	9477.49
646.17	9553.26
646.363	9450.86
646.556	9348.47
646.749	9149.81
646.942	9405.81
647.135	9119.09
647.328	9065.85
647.521	9055.61
647.714	8945.02
647.907	8766.84
648.099	8922.49
648.292	8988.02
648.485	8836.47
648.678	8648.06
648.871	8859
649.064	8555.9
649.256	8824.19
649.449	8666.49
649.642	8504.7
649.835	8467.84
650.027	8222.08
650.22	8359.3
650.413	8267.14
650.605	8322.43
650.798	8236.42
650.991	8066.44
651.183	8156.55
651.376	7955.85
651.568	8138.12
651.761	8093.06
651.954	8119.68
652.146	7751.05
652.339	7892.36
652.531	7906.7
652.724	7767.43
652.916	7777.67
653.109	7730.57
653.301	7568.78
653.494	7652.75
653.686	7374.22
653.879	7509.39
654.071	7503.25
654.263	7316.88
654.456	7396.75
654.648	7138.71
654.84	7237.01
655.033	7384.46
655.225	7343.5
655.417	7312.78
655.61	7136.66
655.802	7251.35
655.994	7079.32
656.186	7132.56
656.379	6858.14
656.571	6921.62
656.763	6849.94
656.955	6827.42
657.148	6706.59
657.34	6856.09
657.532	6585.76
657.724	6577.56
657.916	6565.28
658.108	6518.17
658.3	6571.42
658.492	6542.75
658.684	6403.49
658.876	6346.14
659.068	6309.28
659.26	6196.64
659.452	6460.83
659.644	6317.47
659.836	6264.22
660.028	6350.24
660.22	6112.67
660.412	6161.83
660.604	6196.64
660.796	6030.76
660.988	5899.69
661.18	6030.76
661.372	6000.04
661.563	6077.86
661.755	5922.21
661.947	5856.68
662.139	5727.66
662.331	5764.52
662.522	5729.7
662.714	5610.92
662.906	5440.94
663.097	5563.82
663.289	5686.7
663.481	5486
663.673	5467.56
663.864	5373.36
664.056	5533.1
664.247	5313.97
664.439	5330.35
664.631	5318.06
664.822	5311.92
665.014	5410.22
665.205	5332.4
665.397	5193.14
665.588	5115.31
665.78	5060.02
665.971	5129.65
666.163	5256.62
666.354	5131.7
666.546	4853.17
666.737	4965.81
666.929	5014.96
667.12	4996.53
667.311	4996.53
667.503	4859.32
667.694	4953.52
667.885	4734.39
668.077	4922.8
668.268	4744.63
668.459	4836.79
668.651	4859.32
668.842	4761.02
669.033	4722.1
669.224	4824.5
669.416	4785.59
669.607	4705.72
669.798	4629.95
669.989	4720.06
670.18	4697.53
670.371	4711.86
670.563	4525.5
670.754	4443.58
670.945	4550.07
671.136	4490.68
671.327	4431.29
671.518	4462.01
671.709	4605.37
671.9	4576.7
672.091	4474.3
672.282	4410.81
672.473	4332.99
672.664	4361.66
672.855	4212.16
673.046	4353.47
673.237	4126.15
673.428	4298.17
673.619	4175.3
673.809	4165.06
674	4224.45
674.191	4105.67
674.382	4130.24
674.573	4197.82
674.764	4115.91
674.954	4124.1
675.145	4089.28
675.336	4050.37
675.527	4093.38
675.717	4079.04
675.908	4146.62
676.099	4011.46
676.289	4009.41
676.48	3919.3
676.671	3790.28
676.861	3941.83
677.052	4054.47
677.243	3976.64
677.433	3870.15
677.624	3990.98
677.814	3843.53
678.005	3831.24
678.195	3796.42
678.386	3780.04
678.576	3780.04
678.767	3909.06
678.957	3675.59
679.148	3843.53
679.338	3743.17
679.529	3685.83
679.719	3712.46
679.909	3790.28
680.1	3593.67
680.29	3575.24
680.481	3700.17
680.671	3720.65
680.861	3667.4
681.052	3608.01
681.242	3591.63
681.432	3519.95
681.622	3603.91
681.813	3714.5
682.003	3581.39
682.193	3517.9
682.383	3640.78
682.573	3608.01
682.764	3534.28
682.954	3661.26
683.144	3593.67
683.334	3534.28
683.524	3493.32
683.714	3630.54
683.904	3562.95
684.094	3560.91
684.284	3438.03
684.474	3466.7
684.664	3509.71
684.854	3309.01
685.044	3450.32
685.234	3329.49
685.424	3444.17
685.614	3507.66
685.804	3503.56
685.994	3485.13
686.184	3313.1
686.374	3472.84
686.564	3335.63
686.753	3302.86
686.943	3386.83
687.133	3360.2
687.323	3464.65
687.513	3409.36
687.702	3294.67
687.892	3247.57
688.082	3278.29
688.272	3272.14
688.461	3200.46
688.651	3266
688.841	3220.94
689.03	3337.68
689.22	3349.96
689.41	3175.89
689.599	3251.66
689.789	3190.22
689.979	3216.85
690.168	3218.89
690.358	3089.87
690.547	3126.74
690.737	3192.27
690.926	3177.94
691.116	3026.39
691.305	3182.03
691.495	3214.8
691.684	3208.66
691.874	3331.53
692.063	3139.02
692.252	3304.91
692.442	3222.99
692.631	3134.93
692.82	3132.88
693.01	3204.56
693.199	3167.7
693.388	3175.89
693.578	3122.64
693.767	3122.64
693.956	3118.54
694.146	3134.93
694.335	3134.93
694.524	3145.17
694.713	3110.35
694.902	3061.2
695.092	3055.06
695.281	3053.01
695.47	3089.87
695.659	3110.35
695.848	3034.58
696.037	3112.4
696.226	3116.5
696.415	3091.92
696.604	3139.02
696.793	3016.15
696.982	3098.06
697.171	2975.19
697.36	3073.49
697.549	3075.54
697.738	3145.17
697.927	2995.67
698.116	3026.39
698.305	3007.95
698.494	2999.76
698.683	2999.76
698.872	3010
699.061	3057.11
699.25	2960.85
699.438	3016.15
699.627	2901.46
699.816	3005.91
700.005	2913.75
700.193	2813.4
700.382	2917.84
700.571	3075.54
700.76	3118.54
700.948	2969.04
701.137	2991.57
701.326	2919.89
701.514	2860.5
701.703	2928.08
701.892	2858.45
702.08	2915.8
702.269	2917.84
702.457	2903.51
702.646	2866.64
702.834	2786.77
703.023	2885.08
703.212	2872.79
703.4	2889.17
703.589	2846.16
703.777	2846.16
703.965	2913.75
704.154	2821.59
704.342	2860.5
704.531	2842.07
704.719	2809.3
704.907	2950.61
705.096	2616.79
705.284	2731.48
705.472	2670.04
705.661	2645.46
705.849	2840.02
706.037	2885.08
706.226	2749.91
706.414	2715.09
706.602	2573.78
706.79	2842.07
706.979	2805.21
707.167	2713.05
707.355	2717.14
707.543	2641.37
707.731	2817.49
707.919	2684.38
708.107	2571.74
708.296	2700.76
708.484	2602.46
708.672	2633.18
708.86	2663.9
709.048	2686.42
709.236	2647.51
709.424	2549.21
709.612	2688.47
709.8	2579.93
709.988	2463.19
710.176	2614.74
710.364	2579.93
710.551	2592.22
710.739	2483.67
710.927	2614.74
711.115	2461.15
711.303	2489.82
711.491	2432.47
711.679	2557.4
711.866	2528.73
712.054	2575.83
712.242	2487.77
712.43	2467.29
712.617	2438.62
712.805	2463.19
712.993	2397.66
713.181	2428.38
713.368	2422.24
713.556	2426.33
713.744	2352.6
713.931	2287.07
714.119	2297.31
714.306	2368.99
714.494	2377.18
714.682	2403.8
714.869	2270.69
715.057	2393.56
715.244	2307.55
715.432	2426.33
715.619	2260.45
715.807	2225.63
715.994	2303.45
716.182	2309.6
716.369	2291.17
716.556	2205.15
716.744	2250.21
716.931	2139.62
717.119	2315.74
717.306	2299.36
717.493	2196.96
717.681	2201.05
717.868	2242.01
718.055	2342.36
718.242	2160.1
718.43	2313.69
718.617	2213.34
718.804	2151.9
718.991	2115.04
719.179	2143.71
719.366	2086.37
719.553	2172.38
719.74	2149.86
719.927	2102.75
720.114	2016.74
720.301	2014.69
720.488	2096.61
720.676	2078.18
720.863	2112.99
721.05	2055.65
721.237	1969.63
721.424	2055.65
721.611	2055.65
721.798	1959.39
721.985	1971.68
722.172	1953.25
722.358	1934.82
722.545	2065.89
722.732	1934.82
722.919	1928.67
723.106	2014.69
723.293	1867.24
723.48	2002.4
723.667	1922.53
723.853	1805.8
724.04	1910.24
724.227	1918.43
724.414	1920.48
724.6	1897.96
724.787	1988.07
724.974	1992.16
725.161	1891.81
725.347	1844.71
725.534	1840.61
725.72	1863.14
725.907	1920.48
726.094	1740.26
726.28	1758.69
726.467	1848.8
726.653	1842.66
726.84	1873.38
727.027	1773.03
727.213	1818.08
727.4	1795.56
727.586	1811.94
727.773	1727.97
727.959	1701.35
728.145	1707.49
728.332	1730.02
728.518	1762.79
728.705	1734.12
728.891	1699.3
729.077	1715.69
729.264	1762.79
729.45	1742.31
729.636	1775.08
729.823	1666.53
730.009	1848.8
730.195	1699.3
730.382	1781.22
730.568	1687.01
730.754	1738.21
730.94	1713.64
731.126	1648.1
731.313	1639.91
731.499	1615.34
731.685	1713.64
731.871	1650.15
732.057	1633.77
732.243	1648.1
732.429	1664.49
732.615	1664.49
732.801	1502.7
732.987	1605.1
733.173	1566.18
733.359	1711.59
733.545	1609.19
733.731	1631.72
733.917	1582.57
734.103	1607.14
734.289	1631.72
734.475	1607.14
734.661	1641.96
734.847	1488.36
735.033	1566.18
735.219	1510.89
735.404	1623.53
735.59	1512.94
735.776	1443.31
735.962	1607.14
736.148	1654.25
736.333	1508.84
736.519	1492.46
736.705	1607.14
736.89	1527.27
737.076	1461.74
737.262	1494.51
737.447	1537.51
737.633	1459.69
737.819	1385.96
738.004	1465.83
738.19	1465.83
738.375	1433.07
738.561	1476.07
738.747	1541.61
738.932	1381.87
739.118	1457.64
739.303	1459.69
739.489	1469.93
739.674	1461.74
739.859	1390.06
740.045	1426.92
740.23	1369.58
740.416	1404.39
740.601	1312.24
740.786	1406.44
740.972	1385.96
741.157	1361.39
741.342	1410.54
741.528	1447.4
741.713	1291.76
741.898	1295.85
742.084	1336.81
742.269	1263.08
742.454	1299.95
742.639	1314.28
742.824	1304.04
743.01	1320.43
743.195	1220.08
743.38	1273.32
743.565	1248.75
743.75	1342.96
743.935	1218.03
744.12	1269.23
744.305	1156.59
744.49	1205.74
744.675	1254.89
744.86	1211.89
745.045	1238.51
745.23	1279.47
745.415	1304.04
745.6	1177.07
745.785	1125.87
745.97	1218.03
746.155	1168.88
746.34	1158.64
746.525	1142.25
746.71	1201.65
746.895	1150.45
747.079	1119.73
747.264	1109.49
747.449	1191.41
747.634	1160.69
747.819	1146.35
748.003	1148.4
748.188	1144.3
748.373	1134.06
748.557	1154.54
748.742	1037.81
748.927	1078.77
749.111	1115.63
749.296	1033.71
749.481	1082.86
749.665	1097.2
749.85	1033.71
750.034	1115.63
750.219	1068.53
750.404	972.27
750.588	1035.76
750.773	978.42
750.957	1000.94
751.141	1041.9
751.326	1017.33
751.51	1068.53
751.695	923.12
751.879	945.65
752.064	996.85
752.248	1025.52
752.432	976.37
752.617	1046
752.801	937.46
752.985	1002.99
753.17	919.03
753.354	916.98
753.538	964.08
753.722	890.35
753.907	886.26
754.091	921.07
754.275	826.87
754.459	900.59
754.643	959.99
754.828	863.73
755.012	863.73
755.196	869.87
755.38	871.92
755.564	824.82
755.748	912.88
755.932	888.31
756.116	906.74
756.3	761.33
756.484	853.49
756.668	822.77
756.852	802.29
757.036	835.06
757.22	923.12
757.404	837.11
757.588	771.57
757.772	861.68
757.956	833.01
758.14	814.58
758.323	783.86
758.507	755.19
758.691	783.86
758.875	802.29
759.059	744.95
759.242	749.04
759.426	740.85
759.61	660.98
759.794	703.99
759.977	722.42
760.161	740.85
760.345	747
760.528	792.05
760.712	736.76
760.895	747
761.079	851.44
761.263	763.38
761.446	652.79
761.63	689.65
761.813	673.27
761.997	761.33
762.18	718.33
762.364	570.87
762.547	630.26
762.731	712.18
762.914	640.5
763.098	699.89
763.281	679.41
763.464	677.37
763.648	708.09
763.831	640.5
764.015	658.93
764.198	712.18
764.381	583.16
764.564	646.65
764.748	681.46
764.931	636.41
765.114	644.6
765.297	648.69
765.481	550.39
765.664	546.3
765.847	630.26
766.03	626.17
766.213	710.13
766.397	646.65
766.58	566.78
766.763	609.78
766.946	640.5
767.129	620.02
767.312	589.3
767.495	626.17
767.678	630.26
767.861	679.41
768.044	615.93
768.227	712.18
768.41	579.06
768.593	583.16
768.776	536.06
768.959	617.97
769.142	634.36
769.324	607.73
769.507	658.93
769.69	622.07
769.873	531.96
770.056	591.35
770.239	568.82
770.421	609.78
770.604	599.54
770.787	538.1
770.97	523.77
771.152	620.02
771.335	599.54
771.518	531.96
771.7	591.35
771.883	599.54
772.066	550.39
772.248	562.68
772.431	591.35
772.613	595.45
772.796	626.17
772.978	644.6
773.161	605.69
773.343	642.55
773.526	554.49
773.708	669.17
773.891	511.48
774.073	591.35
774.256	464.38
774.438	558.58
774.621	615.93
774.803	544.25
774.985	495.1
775.168	589.3
775.35	599.54
775.532	566.78
775.715	460.28
775.897	552.44
776.079	402.94
776.261	542.2
776.444	419.32
776.626	466.42
776.808	519.67
776.99	521.72
777.173	447.99
777.355	390.65
777.537	493.05
777.719	435.71
777.901	474.62
778.083	480.76
778.265	468.47
778.447	486.9
778.629	427.51
778.811	493.05
778.993	472.57
779.175	423.42
779.357	411.13
779.539	423.42
779.721	431.61
779.903	435.71
780.085	425.47
780.267	374.27
780.449	460.28
780.631	351.74
780.812	390.65
780.994	423.42
781.176	415.23
781.358	386.55
781.54	435.71
781.721	392.7
781.903	368.12
782.085	435.71
782.267	441.85
782.448	415.23
782.63	454.14
782.812	394.75
782.993	378.36
783.175	376.31
783.357	331.26
783.538	411.13
783.72	341.5
783.901	435.71
784.083	388.6
784.264	359.93
784.446	351.74
784.627	376.31
784.809	275.96
784.99	359.93
785.172	368.12
785.353	263.68
785.535	384.51
785.716	255.48
785.897	323.07
786.079	318.97
786.26	337.4
786.441	298.49
786.623	255.48
786.804	339.45
786.985	353.79
787.167	245.24
787.348	308.73
787.529	304.64
787.71	294.4
787.891	259.58
788.073	337.4
788.254	329.21
788.435	304.64
788.616	364.03
788.797	257.53
788.978	273.92
789.159	331.26
789.34	280.06
789.522	157.18
789.703	271.87
789.884	189.95
790.065	267.77
790.246	198.14
790.427	241.15
790.607	218.62
790.788	263.68
790.969	275.96
791.15	263.68
791.331	280.06
791.512	245.24
791.693	214.52
791.874	198.14
792.054	275.96
792.235	255.48
792.416	280.06
792.597	257.53
792.778	273.92
792.958	325.12
793.139	263.68
793.32	312.83
793.5	228.86
793.681	267.77
793.862	280.06
794.042	243.2
794.223	208.38
794.404	275.96
794.584	146.94
794.765	251.39
794.945	245.24
795.126	226.81
795.306	232.96
795.487	155.13
795.667	177.66
795.848	226.81
796.028	200.19
796.209	157.18
796.389	212.48
796.57	224.76
796.75	159.23
796.93	206.33
797.111	142.85
797.291	232.96
797.471	251.39
797.652	177.66
797.832	253.44
798.012	183.81
798.192	212.48
798.373	153.09
798.553	144.89
798.733	288.25
798.913	144.89
799.093	177.66
799.274	210.43
799.454	288.25
799.634	265.72
799.814	165.37
799.994	228.86
800.174	118.27
800.354	169.47
800.534	142.85
800.714	116.22
800.894	187.9
801.074	237.05
801.254	185.85
801.434	144.89
801.614	169.47
801.794	142.85
801.974	390.65
802.154	263.68
802.334	232.96
802.514	167.42
802.693	163.33
802.873	161.28
803.053	192
803.233	187.9
803.413	151.04
803.592	175.61
803.772	110.08
803.952	142.85
804.131	181.76
804.311	130.56
804.491	116.22
804.67	134.65
804.85	198.14
805.03	77.31
805.209	202.24
805.389	101.89
805.568	253.44
805.748	124.41
805.928	187.9
806.107	124.41
806.287	110.08
806.466	151.04
806.646	138.75
806.825	87.55
807.004	230.91
807.184	200.19
807.363	198.14
807.543	136.7
807.722	142.85
807.901	165.37
808.081	108.03
808.26	112.13
808.439	157.18
808.619	118.27
808.798	136.7
808.977	116.22
809.156	142.85
809.336	112.13
809.515	189.95
809.694	48.64
809.873	50.69
810.052	83.45
810.231	194.05
810.411	112.13
810.59	132.61
810.769	161.28
810.948	134.65
811.127	58.88
811.306	151.04
811.485	136.7
811.664	140.8
811.843	108.03
812.022	101.89
812.201	128.51
812.38	101.89
812.559	89.6
812.737	204.28
812.916	116.22
813.095	13.82
813.274	24.06
813.453	93.69
813.632	103.93
813.811	118.27
813.989	97.79
814.168	177.66
814.347	77.31
814.526	151.04
814.704	165.37
814.883	142.85
815.062	116.22
815.24	65.02
815.419	103.93
815.598	157.18
815.776	105.98
815.955	151.04
816.133	116.22
816.312	69.12
816.49	110.08
816.669	83.45
816.847	132.61
817.026	108.03
817.204	71.17
817.383	110.08
817.561	15.87
817.74	140.8
817.918	112.13
818.097	36.35
818.275	108.03
818.453	136.7
818.632	114.17
818.81	83.45
818.988	108.03
819.167	50.69
819.345	118.27
819.523	71.17
819.701	87.55
819.879	103.93
820.058	89.6
820.236	136.7
820.414	171.52
820.592	85.5
820.77	89.6
820.948	77.31
821.127	73.21
821.305	89.6
821.483	73.21
821.661	103.93
821.839	83.45
822.017	75.26
822.195	114.17
822.373	148.99
822.551	13.82
822.729	83.45
822.907	128.51
823.085	116.22
823.262	-35.33
823.44	36.35
823.618	192
823.796	62.98
823.974	124.41
824.152	159.23
824.329	26.11
824.507	153.09
824.685	85.5
824.863	126.46
825.04	44.54
825.218	81.41
825.396	118.27
825.574	153.09
825.751	69.12
825.929	75.26
826.107	7.68
826.284	40.45
826.462	85.5
826.639	58.88
826.817	67.07
826.994	42.5
827.172	30.21
827.349	130.56
827.527	79.36
827.704	79.36
827.882	110.08
828.059	77.31
828.237	56.83
828.414	95.74
828.591	105.98
828.769	181.76
828.946	40.45
829.124	48.64
829.301	65.02
829.478	75.26
829.655	75.26
829.833	36.35
830.01	30.21
830.187	69.12
830.364	11.78
830.542	116.22
830.719	85.5
830.896	46.59
831.073	62.98
831.25	99.84
831.427	30.21
831.604	52.74
831.782	44.54
831.959	77.31
832.136	71.17
832.313	99.84
832.49	142.85
832.667	99.84
832.844	42.5
833.021	99.84
833.198	42.5
833.374	99.84
833.551	122.37
833.728	-35.33
833.905	42.5
834.082	42.5
834.259	1.54
834.436	65.02
834.612	87.55
834.789	75.26
834.966	95.74
835.143	28.16
835.319	118.27
835.496	11.78
835.673	46.59
835.85	112.13
836.026	44.54
836.203	38.4
836.38	13.82
836.556	13.82
836.733	87.55
836.909	79.36
837.086	17.92
837.262	91.65
837.439	50.69
837.616	26.11
837.792	87.55
837.968	134.65
838.145	36.35
838.321	79.36
838.498	67.07
838.674	9.73
838.851	114.17
839.027	26.11
839.203	36.35
839.38	44.54
839.556	69.12
839.732	56.83
839.909	5.63
840.085	75.26
840.261	30.21
840.437	-37.38
840.614	11.78
840.79	60.93
840.966	-23.04
841.142	87.55
841.318	19.97
841.494	101.89
841.671	9.73
841.847	91.65
842.023	-4.61
842.199	34.3
842.375	77.31
842.551	17.92
842.727	15.87
842.903	26.11
843.079	1.54
843.255	89.6
843.431	62.98
843.607	11.78
843.783	1.54
843.959	46.59
844.134	24.06
844.31	75.26
844.486	79.36
844.662	30.21
844.838	60.93
845.013	99.84
845.189	110.08
845.365	34.3
845.541	46.59
845.716	89.6
845.892	69.12
846.068	30.21
846.244	17.92
846.419	7.68
846.595	-31.23
846.77	15.87
846.946	58.88
847.122	60.93
847.297	42.5
847.473	13.82
847.648	34.3
847.824	79.36
847.999	-2.56
848.175	22.02
848.35	67.07
848.526	36.35
848.701	-29.18
848.876	124.41
849.052	54.78
849.227	46.59
849.403	75.26
849.578	108.03
849.753	-6.66
849.929	67.07
850.104	56.83
850.279	-23.04
850.454	3.58
850.63	50.69
850.805	-23.04
850.98	38.4
851.155	-18.94
851.33	54.78
851.505	28.16
851.681	40.45
851.856	26.11
852.031	19.97
852.206	26.11
852.381	17.92
852.556	17.92
852.731	9.73
852.906	48.64
853.081	-14.85
853.256	62.98
853.431	11.78
853.606	62.98
853.781	26.11
853.956	52.74
854.131	-25.09
854.305	69.12
854.48	19.97
854.655	17.92
854.83	-12.8
855.005	-2.56
855.18	-0.51
855.354	48.64
855.529	26.11
855.704	-10.75
855.879	56.83
856.053	3.58
856.228	36.35
856.403	52.74
856.577	3.58
856.752	120.32
856.926	34.3
857.101	9.73
857.276	48.64
857.45	42.5
857.625	48.64
857.799	5.63
857.974	56.83
858.148	1.54
858.323	44.54
858.497	22.02
858.672	28.16
858.846	69.12
859.02	54.78
859.195	60.93
859.369	67.07
859.543	-53.76
859.718	-2.56
859.892	56.83
860.066	60.93
860.241	95.74
860.415	30.21
860.589	54.78
860.763	-16.9
860.938	32.26
861.112	-23.04
861.286	-41.47
861.46	1.54
861.634	5.63
861.808	75.26
861.982	3.58
862.157	26.11
862.331	34.3
862.505	34.3
862.679	19.97
862.853	17.92
863.027	-59.9
863.201	32.26
863.375	-61.95
863.549	91.65
863.722	52.74
863.896	30.21
864.07	-61.95
864.244	40.45
864.418	30.21
864.592	11.78
864.766	65.02
864.939	-12.8
865.113	60.93
865.287	-6.66
865.461	-14.85
865.634	95.74
865.808	67.07
865.982	60.93
866.156	30.21
866.329	17.92
866.503	-6.66
866.676	13.82
866.85	26.11
867.024	28.16
867.197	3.58
867.371	60.93
867.544	-25.09
867.718	-4.61
867.891	1.54
868.065	54.78
868.238	67.07
868.412	91.65
868.585	-14.85
868.759	-43.52
868.932	15.87
869.105	13.82
869.279	-16.9
869.452	62.98
869.625	26.11
869.799	42.5
869.972	46.59
870.145	38.4
870.319	60.93
870.492	-12.8
870.665	34.3
870.838	9.73
871.011	67.07
871.185	44.54
871.358	81.41
871.531	89.6
871.704	34.3
871.877	22.02
872.05	7.68
872.223	46.59
872.396	28.16
872.569	-31.23
872.742	26.11
872.915	-12.8
873.088	-55.81
873.261	42.5
873.434	-25.09
873.607	3.58
873.78	13.82
873.953	42.5
874.126	26.11
874.299	52.74
874.471	-41.47
874.644	58.88
874.817	-6.66
874.99	48.64
875.163	-35.33
875.335	71.17
875.508	1.54
875.681	-64
875.853	67.07
876.026	52.74
876.199	87.55
876.371	50.69
876.544	19.97
876.717	-4.61
876.889	28.16
877.062	46.59
877.234	3.58
877.407	95.74
877.579	-33.28
877.752	5.63
877.924	-2.56
878.097	36.35
878.269	58.88
878.442	32.26
878.614	50.69
878.786	87.55
878.959	26.11
879.131	36.35
879.303	1.54
879.476	36.35
879.648	17.92
879.82	50.69
879.993	58.88
880.165	-6.66
880.337	50.69
880.509	36.35
880.681	30.21
880.854	81.41
881.026	7.68
881.198	67.07
881.37	26.11
881.542	-18.94
881.714	11.78
881.886	34.3
882.058	28.16
882.23	30.21
882.402	5.63
882.574	83.45
882.746	87.55
882.918	40.45
883.09	28.16
883.262	-35.33
883.434	-16.9
883.606	36.35
883.778	50.69
883.95	-8.7
884.122	58.88
884.293	-18.94
884.465	-14.85
884.637	26.11
884.809	26.11
884.98	85.5
885.152	67.07
885.324	-45.57
885.496	-61.95
885.667	-12.8
885.839	13.82
886.011	46.59
886.182	50.69
886.354	58.88
886.525	-20.99
886.697	56.83
886.869	9.73
887.04	-10.75
887.212	89.6
887.383	15.87
887.555	42.5
887.726	-25.09
887.897	-4.61
888.069	9.73
888.24	-35.33
888.412	44.54
888.583	1.54
888.754	32.26
888.926	-31.23
889.097	-10.75
889.268	3.58
889.44	28.16
889.611	-6.66
889.782	7.68
889.953	46.59
890.125	50.69
890.296	30.21
890.467	-27.14
890.638	-49.66
890.809	-8.7
890.98	36.35
891.151	13.82
891.323	9.73
891.494	30.21
891.665	-12.8
891.836	-2.56
892.007	24.06
892.178	28.16
892.349	19.97
892.52	42.5
892.691	30.21
892.862	15.87
893.032	32.26
893.203	44.54
893.374	-20.99
893.545	42.5
893.716	-6.66
893.887	30.21
894.057	60.93
894.228	44.54
894.399	-55.81
894.57	69.12
894.74	-51.71
894.911	-6.66
895.082	28.16
895.253	-0.51
895.423	-18.94
895.594	67.07
895.764	-10.75
895.935	-49.66
896.106	79.36
896.276	-16.9
896.447	-47.62
896.617	-37.38
896.788	-8.7
896.958	19.97
897.129	22.02
897.299	36.35
897.47	58.88
897.64	85.5
897.81	75.26
897.981	-20.99
898.151	5.63
898.322	17.92
898.492	13.82
898.662	11.78
898.832	58.88
899.003	73.21
899.173	26.11
899.343	60.93
899.513	17.92
