Data from USB4F104151__241__14-01-14-396.txt Node

Date: Thu Mar 13 14:01:14 EDT 2025
User: louis
Spectrometer: USB4F10415
Trigger mode: 4
Integration Time (sec): 1.000000E-2
Scans to average: 1
Electric dark correction enabled: true
Nonlinearity correction enabled: false
Boxcar width: 0
XAxis mode: Wavelengths
Number of Pixels in Spectrum: 3648
>>>>>Begin Spectral Data<<<<<
178.204	-75.95
178.424	-75.95
178.644	-75.95
178.864	-71.85
179.084	20.31
179.304	40.79
179.524	-32.94
179.744	63.32
179.964	-22.7
180.184	12.12
180.404	-8.36
180.624	-8.36
180.844	26.45
181.064	-108.71
181.283	-39.08
181.503	22.36
181.723	55.12
181.943	-71.85
182.163	59.22
182.383	32.6
182.602	3.93
182.822	32.6
183.042	-30.89
183.262	16.21
183.482	57.17
183.701	30.55
183.921	-41.13
184.141	-18.6
184.361	34.64
184.58	-0.17
184.8	32.6
185.02	65.36
185.239	-49.32
185.459	8.02
185.679	10.07
185.898	-32.94
186.118	51.03
186.338	24.4
186.557	-8.36
186.777	-63.66
186.997	5.97
187.216	22.36
187.436	40.79
187.655	-0.17
187.875	-49.32
188.095	16.21
188.314	20.31
188.534	34.64
188.753	51.03
188.973	36.69
189.192	24.4
189.412	8.02
189.631	-39.08
189.851	1.88
190.07	-8.36
190.29	-14.51
190.509	22.36
190.729	-49.32
190.948	-14.51
191.168	73.56
191.387	-16.55
191.607	20.31
191.826	26.45
192.045	-16.55
192.265	-32.94
192.484	38.74
192.704	-2.22
192.923	51.03
193.142	44.88
193.362	26.45
193.581	-73.9
193.8	-30.89
194.02	38.74
194.239	12.12
194.458	-20.65
194.678	20.31
194.897	8.02
195.116	-12.46
195.335	-39.08
195.555	-55.47
195.774	59.22
195.993	18.26
196.212	-94.38
196.432	-47.27
196.651	-26.79
196.87	-30.89
197.089	18.26
197.308	-32.94
197.528	18.26
197.747	16.21
197.966	67.41
198.185	3.93
198.404	-30.89
198.623	10.07
198.842	81.75
199.062	-22.7
199.281	28.5
199.5	18.26
199.719	143.19
199.938	-39.08
200.157	-24.75
200.376	-61.61
200.595	-2.22
200.814	1.88
201.033	28.5
201.252	-16.55
201.471	34.64
201.69	-12.46
201.909	-2.22
202.128	20.31
202.347	77.65
202.566	10.07
202.785	-14.51
203.004	-43.18
203.223	51.03
203.442	3.93
203.661	26.45
203.879	8.02
204.098	40.79
204.317	53.08
204.536	48.98
204.755	65.36
204.974	67.41
205.193	71.51
205.411	-4.27
205.63	36.69
205.849	40.79
206.068	-8.36
206.287	98.13
206.505	-6.31
206.724	22.36
206.943	-24.75
207.162	-8.36
207.381	-16.55
207.599	20.31
207.818	-32.94
208.037	12.12
208.255	-6.31
208.474	10.07
208.693	32.6
208.911	65.36
209.13	16.21
209.349	-16.55
209.567	-55.47
209.786	-8.36
210.005	3.93
210.223	69.46
210.442	22.36
210.661	-28.84
210.879	40.79
211.098	69.46
211.316	-22.7
211.535	14.17
211.753	-18.6
211.972	-8.36
212.191	10.07
212.409	53.08
212.628	-6.31
212.846	34.64
213.065	8.02
213.283	8.02
213.502	-32.94
213.72	-18.6
213.938	14.17
214.157	-26.79
214.375	14.17
214.594	-24.75
214.812	48.98
215.031	73.56
215.249	18.26
215.467	30.55
215.686	12.12
215.904	24.4
216.122	20.31
216.341	3.93
216.559	59.22
216.778	-32.94
216.996	-4.27
217.214	42.84
217.432	5.97
217.651	65.36
217.869	59.22
218.087	-45.23
218.306	-4.27
218.524	30.55
218.742	8.02
218.96	-4.27
219.179	36.69
219.397	32.6
219.615	20.31
219.833	48.98
220.051	-14.51
220.27	-20.65
220.488	-39.08
220.706	-65.71
220.924	-16.55
221.142	-8.36
221.36	36.69
221.578	57.17
221.796	24.4
222.015	65.36
222.233	57.17
222.451	46.93
222.669	10.07
222.887	42.84
223.105	-51.37
223.323	12.12
223.541	-28.84
223.759	32.6
223.977	26.45
224.195	57.17
224.413	26.45
224.631	24.4
224.849	73.56
225.067	-22.7
225.285	-41.13
225.503	3.93
225.721	42.84
225.939	94.04
226.157	-41.13
226.375	83.8
226.592	36.69
226.81	-47.27
227.028	10.07
227.246	48.98
227.464	14.17
227.682	14.17
227.9	51.03
228.117	3.93
228.335	12.12
228.553	-14.51
228.771	12.12
228.989	12.12
229.206	8.02
229.424	3.93
229.642	5.97
229.86	-8.36
230.077	32.6
230.295	61.27
230.513	81.75
230.731	1.88
230.948	-12.46
231.166	36.69
231.384	14.17
231.601	-92.33
231.819	42.84
232.037	36.69
232.254	63.32
232.472	-20.65
232.689	-0.17
232.907	75.6
233.125	48.98
233.342	-37.03
233.56	46.93
233.777	-14.51
233.995	32.6
234.213	61.27
234.43	-45.23
234.648	83.8
234.865	-28.84
235.083	20.31
235.3	-63.66
235.518	28.5
235.735	48.98
235.953	40.79
236.17	-28.84
236.388	32.6
236.605	-43.18
236.822	77.65
237.04	8.02
237.257	16.21
237.475	-41.13
237.692	87.89
237.909	51.03
238.127	14.17
238.344	-4.27
238.562	16.21
238.779	1.88
238.996	5.97
239.214	40.79
239.431	12.12
239.648	57.17
239.865	132.95
240.083	38.74
240.3	12.12
240.517	-2.22
240.735	32.6
240.952	-22.7
241.169	30.55
241.386	28.5
241.603	26.45
241.821	3.93
242.038	1.88
242.255	-4.27
242.472	5.97
242.689	46.93
242.907	-30.89
243.124	57.17
243.341	-28.84
243.558	-28.84
243.775	-39.08
243.992	-32.94
244.209	36.69
244.426	55.12
244.643	24.4
244.86	26.45
245.078	67.41
245.295	36.69
245.512	-10.41
245.729	12.12
245.946	-0.17
246.163	-63.66
246.38	55.12
246.597	44.88
246.814	48.98
247.031	46.93
247.248	81.75
247.464	30.55
247.681	55.12
247.898	22.36
248.115	40.79
248.332	73.56
248.549	3.93
248.766	26.45
248.983	73.56
249.2	59.22
249.417	-20.65
249.633	40.79
249.85	-12.46
250.067	-12.46
250.284	26.45
250.501	36.69
250.717	16.21
250.934	55.12
251.151	10.07
251.368	20.31
251.585	-16.55
251.801	-0.17
252.018	32.6
252.235	30.55
252.451	-16.55
252.668	69.46
252.885	26.45
253.102	38.74
253.318	-8.36
253.535	1.88
253.752	32.6
253.968	40.79
254.185	-67.75
254.401	-0.17
254.618	-26.79
254.835	-2.22
255.051	22.36
255.268	24.4
255.484	44.88
255.701	-2.22
255.917	59.22
256.134	-26.79
256.351	-37.03
256.567	79.7
256.784	36.69
257	-45.23
257.217	20.31
257.433	-30.89
257.65	28.5
257.866	32.6
258.082	71.51
258.299	-90.28
258.515	24.4
258.732	69.46
258.948	-47.27
259.165	-10.41
259.381	-2.22
259.597	8.02
259.814	32.6
260.03	-14.51
260.246	3.93
260.463	18.26
260.679	61.27
260.895	42.84
261.112	-49.32
261.328	-77.99
261.544	18.26
261.761	-18.6
261.977	18.26
262.193	-2.22
262.409	36.69
262.626	5.97
262.842	-43.18
263.058	16.21
263.274	12.12
263.49	-22.7
263.707	-12.46
263.923	69.46
264.139	143.19
264.355	-4.27
264.571	-47.27
264.787	65.36
265.004	26.45
265.22	-43.18
265.436	-57.51
265.652	30.55
265.868	16.21
266.084	-0.17
266.3	20.31
266.516	-12.46
266.732	48.98
266.948	-57.51
267.164	-47.27
267.38	28.5
267.596	81.75
267.812	22.36
268.028	30.55
268.244	26.45
268.46	22.36
268.676	38.74
268.892	12.12
269.108	30.55
269.324	-0.17
269.54	-28.84
269.756	-16.55
269.972	-20.65
270.188	22.36
270.403	8.02
270.619	-39.08
270.835	-0.17
271.051	5.97
271.267	44.88
271.483	3.93
271.698	22.36
271.914	48.98
272.13	-39.08
272.346	55.12
272.562	-0.17
272.777	-6.31
272.993	-4.27
273.209	12.12
273.425	22.36
273.64	16.21
273.856	38.74
274.072	-16.55
274.287	-69.8
274.503	5.97
274.719	10.07
274.934	-8.36
275.15	24.4
275.366	-2.22
275.581	-30.89
275.797	40.79
276.012	98.13
276.228	100.18
276.444	57.17
276.659	-22.7
276.875	-49.32
277.09	20.31
277.306	-10.41
277.521	85.84
277.737	-8.36
277.952	28.5
278.168	-6.31
278.383	-12.46
278.599	16.21
278.814	51.03
279.03	1.88
279.245	-16.55
279.461	-32.94
279.676	32.6
279.892	38.74
280.107	-0.17
280.322	-14.51
280.538	-30.89
280.753	38.74
280.969	32.6
281.184	-47.27
281.399	53.08
281.615	-18.6
281.83	48.98
282.045	3.93
282.26	-8.36
282.476	22.36
282.691	26.45
282.906	20.31
283.122	53.08
283.337	53.08
283.552	-18.6
283.767	34.64
283.983	24.4
284.198	3.93
284.413	12.12
284.628	-22.7
284.843	128.85
285.058	38.74
285.274	20.31
285.489	-53.42
285.704	32.6
285.919	-2.22
286.134	71.51
286.349	65.36
286.564	5.97
286.779	-30.89
286.995	48.98
287.21	22.36
287.425	-0.17
287.64	30.55
287.855	-24.75
288.07	42.84
288.285	-20.65
288.5	-16.55
288.715	61.27
288.93	-18.6
289.145	24.4
289.36	10.07
289.575	42.84
289.79	8.02
290.004	8.02
290.219	10.07
290.434	40.79
290.649	30.55
290.864	20.31
291.079	16.21
291.294	51.03
291.509	28.5
291.724	-10.41
291.938	1.88
292.153	-24.75
292.368	-14.51
292.583	-24.75
292.798	12.12
293.012	57.17
293.227	-49.32
293.442	5.97
293.657	-20.65
293.871	18.26
294.086	34.64
294.301	26.45
294.516	8.02
294.73	5.97
294.945	14.17
295.16	-8.36
295.374	1.88
295.589	57.17
295.804	28.5
296.018	65.36
296.233	69.46
296.447	79.7
296.662	18.26
296.877	65.36
297.091	32.6
297.306	3.93
297.52	36.69
297.735	-43.18
297.949	75.6
298.164	22.36
298.378	-51.37
298.593	75.6
298.807	57.17
299.022	-28.84
299.236	71.51
299.451	14.17
299.665	-26.79
299.88	18.26
300.094	10.07
300.309	69.46
300.523	32.6
300.737	10.07
300.952	-14.51
301.166	79.7
301.381	-24.75
301.595	-10.41
301.809	26.45
302.024	18.26
302.238	-4.27
302.452	-32.94
302.667	75.6
302.881	69.46
303.095	-12.46
303.309	26.45
303.524	-2.22
303.738	69.46
303.952	116.56
304.166	30.55
304.381	32.6
304.595	36.69
304.809	-49.32
305.023	89.94
305.237	83.8
305.452	-4.27
305.666	63.32
305.88	65.36
306.094	-26.79
306.308	-4.27
306.522	-20.65
306.736	57.17
306.95	36.69
307.164	-0.17
307.379	89.94
307.593	42.84
307.807	-16.55
308.021	12.12
308.235	57.17
308.449	-20.65
308.663	53.08
308.877	57.17
309.091	59.22
309.305	26.45
309.519	32.6
309.733	36.69
309.947	-49.32
310.161	1.88
310.374	38.74
310.588	1.88
310.802	34.64
311.016	3.93
311.23	-114.86
311.444	12.12
311.658	-8.36
311.872	55.12
312.085	34.64
312.299	12.12
312.513	69.46
312.727	-6.31
312.941	63.32
313.154	16.21
313.368	16.21
313.582	44.88
313.796	16.21
314.009	100.18
314.223	18.26
314.437	18.26
314.651	67.41
314.864	104.28
315.078	94.04
315.292	32.6
315.505	-0.17
315.719	24.4
315.933	38.74
316.146	53.08
316.36	42.84
316.573	5.97
316.787	51.03
317.001	-0.17
317.214	65.36
317.428	-26.79
317.641	36.69
317.855	1.88
318.068	8.02
318.282	16.21
318.495	63.32
318.709	73.56
318.922	-16.55
319.136	71.51
319.349	51.03
319.563	10.07
319.776	-43.18
319.99	-32.94
320.203	26.45
320.417	14.17
320.63	51.03
320.843	98.13
321.057	22.36
321.27	-16.55
321.483	-2.22
321.697	18.26
321.91	5.97
322.124	20.31
322.337	-8.36
322.55	24.4
322.763	-30.89
322.977	40.79
323.19	18.26
323.403	48.98
323.617	59.22
323.83	75.6
324.043	53.08
324.256	44.88
324.469	36.69
324.683	14.17
324.896	-22.7
325.109	44.88
325.322	20.31
325.535	55.12
325.748	5.97
325.962	89.94
326.175	73.56
326.388	79.7
326.601	12.12
326.814	44.88
327.027	61.27
327.24	51.03
327.453	8.02
327.666	-57.51
327.879	-55.47
328.092	24.4
328.305	16.21
328.518	40.79
328.731	5.97
328.944	-43.18
329.157	48.98
329.37	34.64
329.583	8.02
329.796	69.46
330.009	3.93
330.222	3.93
330.435	36.69
330.648	-30.89
330.861	3.93
331.073	-2.22
331.286	77.65
331.499	24.4
331.712	32.6
331.925	10.07
332.138	3.93
332.35	40.79
332.563	20.31
332.776	48.98
332.989	75.6
333.202	44.88
333.414	34.64
333.627	34.64
333.84	-39.08
334.053	44.88
334.265	16.21
334.478	1.88
334.691	34.64
334.903	3.93
335.116	-41.13
335.329	-12.46
335.541	-20.65
335.754	87.89
335.966	79.7
336.179	-34.99
336.392	20.31
336.604	-32.94
336.817	18.26
337.029	32.6
337.242	-20.65
337.454	-2.22
337.667	24.4
337.88	32.6
338.092	44.88
338.305	83.8
338.517	61.27
338.729	94.04
338.942	46.93
339.154	10.07
339.367	89.94
339.579	34.64
339.792	59.22
340.004	36.69
340.217	61.27
340.429	28.5
340.641	28.5
340.854	10.07
341.066	-47.27
341.278	32.6
341.491	32.6
341.703	44.88
341.915	-0.17
342.128	48.98
342.34	-10.41
342.552	14.17
342.764	-14.51
342.977	8.02
343.189	42.84
343.401	40.79
343.613	-39.08
343.826	36.69
344.038	26.45
344.25	30.55
344.462	-26.79
344.674	57.17
344.886	20.31
345.099	16.21
345.311	28.5
345.523	55.12
345.735	-41.13
345.947	46.93
346.159	-24.75
346.371	20.31
346.583	87.89
346.795	34.64
347.007	10.07
347.219	-6.31
347.431	69.46
347.643	48.98
347.855	16.21
348.067	-18.6
348.279	30.55
348.491	-16.55
348.703	30.55
348.915	61.27
349.127	3.93
349.339	55.12
349.551	94.04
349.763	18.26
349.975	40.79
350.187	-12.46
350.399	-28.84
350.61	85.84
350.822	-0.17
351.034	-32.94
351.246	-32.94
351.458	42.84
351.669	26.45
351.881	-4.27
352.093	32.6
352.305	51.03
352.517	-10.41
352.728	24.4
352.94	-32.94
353.152	12.12
353.363	-4.27
353.575	12.12
353.787	34.64
353.999	32.6
354.21	34.64
354.422	22.36
354.633	24.4
354.845	1.88
355.057	-6.31
355.268	-24.75
355.48	51.03
355.692	-8.36
355.903	-8.36
356.115	59.22
356.326	30.55
356.538	63.32
356.749	38.74
356.961	10.07
357.172	34.64
357.384	42.84
357.595	55.12
357.807	16.21
358.018	16.21
358.23	32.6
358.441	69.46
358.653	26.45
358.864	-24.75
359.075	40.79
359.287	-0.17
359.498	53.08
359.709	-39.08
359.921	63.32
360.132	83.8
360.344	65.36
360.555	-8.36
360.766	-0.17
360.977	-47.27
361.189	20.31
361.4	28.5
361.611	16.21
361.823	69.46
362.034	65.36
362.245	12.12
362.456	-8.36
362.667	8.02
362.879	28.5
363.09	-45.23
363.301	59.22
363.512	20.31
363.723	44.88
363.935	-0.17
364.146	28.5
364.357	-8.36
364.568	-22.7
364.779	28.5
364.99	89.94
365.201	30.55
365.412	51.03
365.623	116.56
365.834	-16.55
366.045	-10.41
366.256	18.26
366.467	55.12
366.678	30.55
366.889	1.88
367.1	42.84
367.311	-16.55
367.522	3.93
367.733	-14.51
367.944	44.88
368.155	30.55
368.366	71.51
368.577	3.93
368.788	59.22
368.999	57.17
369.209	61.27
369.42	-34.99
369.631	63.32
369.842	79.7
370.053	32.6
370.264	-53.42
370.474	32.6
370.685	5.97
370.896	-30.89
371.107	130.9
371.317	57.17
371.528	-24.75
371.739	-24.75
371.95	20.31
372.16	122.71
372.371	46.93
372.582	3.93
372.792	-18.6
373.003	22.36
373.214	98.13
373.424	38.74
373.635	34.64
373.846	24.4
374.056	-4.27
374.267	20.31
374.477	-12.46
374.688	8.02
374.898	53.08
375.109	-6.31
375.319	114.52
375.53	-8.36
375.74	57.17
375.951	-47.27
376.161	-4.27
376.372	3.93
376.582	16.21
376.793	40.79
377.003	59.22
377.214	59.22
377.424	-51.37
377.635	65.36
377.845	-12.46
378.055	30.55
378.266	-28.84
378.476	85.84
378.686	87.89
378.897	8.02
379.107	114.52
379.317	-22.7
379.528	-4.27
379.738	71.51
379.948	65.36
380.158	87.89
380.369	-0.17
380.579	81.75
380.789	38.74
380.999	18.26
381.21	79.7
381.42	30.55
381.63	12.12
381.84	91.99
382.05	65.36
382.261	57.17
382.471	73.56
382.681	-2.22
382.891	32.6
383.101	61.27
383.311	-24.75
383.521	51.03
383.731	48.98
383.941	44.88
384.151	38.74
384.361	10.07
384.571	36.69
384.781	75.6
384.991	63.32
385.201	32.6
385.411	-16.55
385.621	-24.75
385.831	100.18
386.041	5.97
386.251	36.69
386.461	73.56
386.671	-30.89
386.881	87.89
387.091	-12.46
387.301	42.84
387.511	48.98
387.72	85.84
387.93	-26.79
388.14	114.52
388.35	48.98
388.56	44.88
388.769	44.88
388.979	-0.17
389.189	16.21
389.399	34.64
389.609	40.79
389.818	83.8
390.028	-16.55
390.238	42.84
390.447	61.27
390.657	73.56
390.867	65.36
391.076	10.07
391.286	3.93
391.496	-30.89
391.705	-0.17
391.915	108.37
392.125	36.69
392.334	38.74
392.544	14.17
392.753	51.03
392.963	26.45
393.172	1.88
393.382	40.79
393.591	51.03
393.801	67.41
394.01	77.65
394.22	57.17
394.429	-0.17
394.639	32.6
394.848	116.56
395.058	36.69
395.267	24.4
395.477	14.17
395.686	40.79
395.895	116.56
396.105	75.6
396.314	16.21
396.524	87.89
396.733	73.56
396.942	87.89
397.152	55.12
397.361	98.13
397.57	32.6
397.78	63.32
397.989	-39.08
398.198	110.42
398.407	108.37
398.617	83.8
398.826	73.56
399.035	51.03
399.244	34.64
399.453	98.13
399.663	73.56
399.872	48.98
400.081	-0.17
400.29	40.79
400.499	122.71
400.708	67.41
400.917	67.41
401.127	59.22
401.336	98.13
401.545	96.08
401.754	30.55
401.963	77.65
402.172	3.93
402.381	87.89
402.59	65.36
402.799	34.64
403.008	59.22
403.217	94.04
403.426	73.56
403.635	71.51
403.844	30.55
404.053	-22.7
404.262	40.79
404.471	73.56
404.68	79.7
404.888	40.79
405.097	75.6
405.306	98.13
405.515	51.03
405.724	114.52
405.933	34.64
406.142	69.46
406.35	69.46
406.559	114.52
406.768	147.28
406.977	153.43
407.185	192.34
407.394	69.46
407.603	98.13
407.812	108.37
408.02	104.28
408.229	155.47
408.438	79.7
408.646	157.52
408.855	153.43
409.064	132.95
409.272	128.85
409.481	157.52
409.69	83.8
409.898	171.86
410.107	151.38
410.315	145.24
410.524	212.82
410.733	214.87
410.941	128.85
411.15	149.33
411.358	208.72
411.567	196.43
411.775	155.47
411.984	231.25
412.192	190.29
412.401	210.77
412.609	214.87
412.818	223.06
413.026	270.16
413.234	264.02
413.443	292.69
413.651	255.83
413.86	143.19
414.068	325.46
414.276	319.31
414.485	268.11
414.693	304.98
414.901	327.5
415.11	380.75
415.318	302.93
415.526	409.42
415.734	409.42
415.943	378.7
416.151	403.28
416.359	477.01
416.567	384.85
416.776	403.28
416.984	491.34
417.192	530.25
417.4	458.57
417.608	407.38
417.817	495.44
418.025	515.92
418.233	599.88
418.441	493.39
418.649	614.22
418.857	698.19
419.065	728.91
419.273	532.3
419.481	606.03
419.689	655.18
419.897	763.72
420.105	728.91
420.313	689.99
420.521	751.43
420.729	741.19
420.937	937.8
421.145	829.26
421.353	843.59
421.561	921.42
421.769	892.74
421.977	986.95
422.185	907.08
422.393	1013.57
422.601	1097.54
422.809	1042.25
423.017	1083.2
423.224	1109.83
423.432	1165.12
423.64	1105.73
423.848	1277.76
424.056	1244.99
424.263	1361.73
424.471	1333.06
424.679	1384.26
424.887	1439.55
425.094	1533.76
425.302	1589.05
425.51	1599.29
425.718	1556.29
425.925	1584.96
426.133	1650.49
426.341	1756.99
426.548	1834.81
426.756	1785.66
426.964	1883.96
427.171	1939.26
427.379	1998.65
427.586	2068.28
427.794	2105.14
428.001	2246.45
428.209	2432.82
428.417	2314.03
428.624	2420.53
428.832	2504.5
429.039	2451.25
429.247	2516.78
429.454	2795.31
429.662	2821.93
429.869	2621.23
430.076	2895.66
430.284	2733.87
430.491	2920.23
430.699	3030.82
430.906	3153.7
431.114	3161.89
431.321	3229.48
431.528	3305.25
431.736	3477.28
431.943	3587.87
432.15	3483.42
432.358	3581.73
432.565	3784.48
432.772	3751.71
432.979	4017.94
433.187	4050.71
433.394	4019.99
433.601	4366.1
433.808	4306.71
434.016	4228.88
434.223	4488.98
434.43	4730.64
434.637	4634.38
434.844	4988.68
435.052	4929.29
435.259	5056.26
435.466	4951.82
435.673	5056.26
435.88	5177.09
436.087	5576.45
436.294	5512.96
436.501	5486.34
436.708	5510.91
436.915	5842.68
437.122	5943.03
437.329	6012.67
437.537	6110.97
437.743	6125.3
437.95	6205.17
438.157	6473.46
438.364	6860.52
438.571	6733.55
438.778	6719.21
438.985	7333.61
439.192	7145.19
439.399	7532.26
439.606	7311.08
439.813	7585.51
440.02	8224.47
440.227	7919.32
440.433	7792.35
440.64	8031.96
440.847	8056.54
441.054	8388.31
441.261	8625.87
441.467	8808.14
441.674	9035.47
441.881	9191.11
442.088	9330.37
442.294	9076.43
442.501	9357
442.708	9481.92
442.914	9721.54
443.121	10327.74
443.328	10215.1
443.534	10761.91
443.741	10249.91
443.948	10110.65
444.154	11132.59
444.361	10919.6
444.568	11105.96
444.774	10847.92
444.981	11071.15
445.187	11486.89
445.394	12056.22
445.6	11628.2
445.807	12934.8
446.013	12132
446.22	12596.89
446.426	13108.88
446.633	13125.26
446.839	13717.12
447.046	12938.9
447.252	13887.11
447.459	13590.15
447.665	13854.34
447.871	14356.09
448.078	15029.87
448.284	14210.68
448.491	14376.57
448.697	15056.5
448.903	15478.38
449.11	15357.55
449.316	15257.2
449.522	15236.72
449.728	15822.44
449.935	15982.18
450.141	16111.2
450.347	16186.97
450.553	15945.31
450.76	16105.06
450.966	16672.34
451.172	16422.49
451.378	16825.94
451.584	16289.37
451.791	16836.18
451.997	16852.56
452.203	16819.8
452.409	17008.21
452.615	16844.37
452.821	16510.55
453.027	16082.53
453.233	16871
453.44	16387.68
453.646	16524.89
453.852	16735.83
454.058	16645.72
454.264	16404.06
454.47	16522.84
454.676	16234.08
454.882	16723.54
455.088	14958.19
455.294	15621.73
455.5	15742.57
455.705	16172.64
455.911	15218.29
456.117	14872.18
456.323	14640.76
456.529	13987.46
456.735	14374.52
456.941	14374.52
457.147	14046.85
457.352	13553.29
457.558	13340.3
457.764	13457.03
457.97	13065.87
458.176	13045.39
458.381	12918.42
458.587	12201.63
458.793	12314.27
458.999	11624.1
459.204	12455.58
459.41	12072.61
459.616	11265.71
459.821	11361.96
460.027	11255.47
460.233	11060.91
460.438	10639.03
460.644	10692.27
460.85	10182.33
461.055	9883.33
461.261	10018.49
461.466	9299.66
461.672	9080.52
461.878	9483.97
462.083	8840.91
462.289	8713.94
462.494	8472.28
462.7	8380.12
462.905	7984.86
463.111	8363.73
463.316	8333.01
463.522	8208.09
463.727	8300.25
463.932	8384.21
464.138	8050.39
464.343	8408.79
464.549	8038.11
464.754	8187.61
464.959	8304.34
465.165	8046.3
465.37	7855.84
465.575	7532.26
465.781	7939.8
465.986	7868.13
466.191	7667.42
466.397	7462.63
466.602	7044.84
466.807	7487.2
467.012	7440.1
467.218	7431.91
467.423	7409.38
467.628	7444.2
467.833	7593.7
468.038	7241.45
468.244	7235.3
468.449	7415.52
468.654	7249.64
468.859	7171.82
469.064	7104.23
469.269	6897.39
469.474	6883.05
469.679	6866.67
469.885	6887.15
470.09	6852.33
470.295	7022.31
470.5	6598.38
470.705	6774.51
470.91	6682.35
471.115	6686.45
471.32	6686.45
471.525	6520.56
471.73	6285.05
471.935	6340.34
472.139	6166.26
472.344	6131.45
472.549	6248.18
472.754	6027
472.959	5953.27
473.164	5836.54
473.369	5914.36
473.574	5926.65
473.778	6158.07
473.983	5881.6
474.188	5881.6
474.393	5619.46
474.598	5789.44
474.802	5592.83
475.007	5504.77
475.212	5492.48
475.417	5467.91
475.621	5377.8
475.826	5353.22
476.031	5334.79
476.235	5089.03
476.44	5345.03
476.645	5179.14
476.849	5164.81
477.054	5140.23
477.259	4974.35
477.463	4974.35
477.668	5011.21
477.872	4878.09
478.077	4814.6
478.282	4837.13
478.486	4865.8
478.691	4697.87
478.895	4734.73
479.1	4630.29
479.304	4744.97
479.509	4665.1
479.713	4650.77
479.918	4421.39
480.122	4378.39
480.326	4697.87
480.531	4564.75
480.735	4560.66
480.94	4316.95
481.144	4540.18
481.348	4402.96
481.553	4507.41
481.757	4468.5
481.961	4423.44
482.166	4491.02
482.37	4482.83
482.574	4362
482.778	4423.44
482.983	4409.11
483.187	4431.63
483.391	4353.81
483.595	4304.66
483.8	4339.48
484.004	4247.32
484.208	4321.04
484.412	4341.52
484.616	4347.67
484.821	4464.4
485.025	4296.47
485.229	4470.55
485.433	4351.76
485.637	4329.24
485.841	4370.19
486.045	4448.02
486.249	4337.43
486.453	4202.26
486.657	4304.66
486.861	4386.58
487.065	4308.76
487.269	4329.24
487.473	4292.37
487.677	4466.45
487.881	4497.17
488.085	4282.13
488.289	4267.8
488.493	4349.71
488.697	4472.59
488.901	4460.31
489.105	4335.38
489.309	4482.83
489.512	4458.26
489.716	4398.87
489.92	4423.44
490.124	4441.87
490.328	4433.68
490.531	4515.6
490.735	4478.74
490.939	4298.52
491.143	4609.81
491.346	4503.31
491.55	4566.8
491.754	4603.66
491.958	4663.05
492.161	4620.05
492.365	4527.89
492.569	4654.86
492.772	4558.61
492.976	4712.21
493.18	4704.01
493.383	4671.25
493.587	4900.62
493.79	4857.61
493.994	4654.86
494.197	4951.82
494.401	4910.86
494.605	4867.85
494.808	5086.98
495.012	5076.74
495.215	5179.14
495.419	5078.79
495.622	5144.33
495.825	5299.97
496.029	5082.89
496.232	5181.19
496.436	5320.45
496.639	5334.79
496.843	5342.98
497.046	5492.48
497.249	5521.15
497.453	5627.65
497.656	5674.75
497.859	5562.11
498.063	5586.69
498.266	5746.43
498.469	5719.81
498.673	5768.96
498.876	5906.17
499.079	6067.96
499.282	5961.47
499.485	6100.73
499.689	6178.55
499.892	6172.41
500.095	6414.07
500.298	6448.88
500.501	6420.21
500.705	6514.42
500.908	6549.23
501.111	6688.5
501.314	6635.25
501.517	6876.91
501.72	6708.97
501.923	6958.83
502.126	7229.16
502.329	7245.54
502.532	7188.2
502.735	7235.3
502.938	7476.96
503.141	7339.75
503.344	7505.63
503.547	7579.36
503.75	7569.12
503.953	7802.59
504.156	8038.11
504.359	8072.92
504.562	8140.51
504.765	8314.58
504.968	8277.72
505.17	8371.93
505.373	8525.52
505.576	8578.77
505.779	8707.79
505.982	8799.95
506.185	8947.4
506.387	8867.53
506.59	9105.1
506.793	9113.29
506.996	9209.54
507.198	9500.36
507.401	9408.2
507.604	9656
507.807	9742.02
508.009	9776.83
508.212	9864.89
508.415	10010.3
508.617	10249.91
508.82	10139.32
509.022	10174.14
509.225	10532.53
509.428	10499.77
509.63	10823.34
509.833	10692.27
510.035	10833.58
510.238	10962.61
510.44	11081.39
510.643	11495.08
510.845	11605.67
511.048	11407.02
511.25	11777.7
511.453	11851.42
511.655	12215.96
511.858	11970.21
512.06	12015.26
512.262	12293.79
512.465	12316.31
512.667	12535.45
512.87	12533.4
513.072	12435.1
513.274	12926.61
513.477	12994.19
513.679	13502.09
513.881	13289.1
514.084	13504.14
514.286	13555.33
514.488	13676.16
514.69	14157.44
514.893	14253.69
515.095	14315.13
515.297	14513.78
515.499	14311.03
515.701	14640.76
515.904	14724.72
516.106	15119.98
516.308	15085.17
516.51	15040.11
516.712	15457.9
516.914	15535.72
517.116	15873.64
517.318	15822.44
517.52	15939.17
517.722	16082.53
517.925	16297.56
518.127	16574.04
518.329	16596.57
518.531	16778.84
518.733	17139.28
518.935	17045.07
519.136	17006.16
519.338	17616.46
519.54	17469
519.742	17679.94
519.944	17765.96
520.146	18128.45
520.348	18447.93
520.55	18343.49
520.752	18468.41
520.954	18849.33
521.155	18884.15
521.357	19090.99
521.559	19242.54
521.761	19240.5
521.963	19590.7
522.164	19490.35
522.366	19562.03
522.568	19973.67
522.77	19830.31
522.971	20354.59
523.173	20088.35
523.375	20434.46
523.576	20465.18
523.778	20567.58
523.98	21024.28
524.181	20792.86
524.383	21016.08
524.584	21272.08
524.786	21093.91
524.988	21124.63
525.189	21581.32
525.391	21622.28
525.592	21521.93
525.794	21685.77
525.995	21782.02
526.197	21708.3
526.398	21992.97
526.6	21949.96
526.801	22554.11
527.003	22201.86
527.204	22126.08
527.406	22447.61
527.607	22730.23
527.808	22523.39
528.01	22388.22
528.211	22717.95
528.412	23213.56
528.614	23074.29
528.815	22836.73
529.016	23336.43
529.218	23199.22
529.419	23369.2
529.62	23064.05
529.822	23225.84
530.023	23277.04
530.224	23393.78
530.425	23371.25
530.626	23348.72
530.828	23117.3
531.029	24258.02
531.23	23485.93
531.431	23514.61
531.632	23743.98
531.833	23721.45
532.035	23569.9
532.236	23576.05
532.437	23721.45
532.638	23854.57
532.839	23535.09
533.04	23797.23
533.241	23520.75
533.442	24239.59
533.643	23832.04
533.844	24094.18
534.045	24055.27
534.246	23864.81
534.447	23963.11
534.648	24067.56
534.849	24126.95
535.05	23571.95
535.251	24157.67
535.451	23696.88
535.652	23946.73
535.853	24145.38
536.054	24155.62
536.255	24241.64
536.456	23799.27
536.657	24425.95
536.857	23981.54
537.058	24071.65
537.259	24348.13
537.46	24229.35
537.66	23829.99
537.861	24139.24
538.062	24135.14
538.263	24391.14
538.463	24071.65
538.664	24010.21
538.865	24190.44
539.065	23946.73
539.266	23782.89
539.466	24245.73
539.667	23651.82
539.868	24067.56
540.068	23967.21
540.269	24124.9
540.469	24169.96
540.67	23852.52
540.87	24262.12
541.071	24208.87
541.271	24305.12
541.472	23649.77
541.672	24008.17
541.873	24012.26
542.073	23926.25
542.274	24401.38
542.474	24141.28
542.675	23926.25
542.875	24341.99
543.075	23649.77
543.276	23952.87
543.476	24143.33
543.676	23846.38
543.877	24270.31
544.077	23981.54
544.277	24036.84
544.478	23772.65
544.678	23977.45
544.878	23981.54
545.078	23938.54
545.279	23899.62
545.479	24141.28
545.679	24294.88
545.879	23954.92
546.079	23948.78
546.28	24143.33
546.48	24131.05
546.68	24182.24
546.88	24415.71
547.08	24129
547.28	23965.16
547.48	23623.15
547.68	23924.2
547.88	23692.78
548.081	24190.44
548.281	23920.1
548.481	23580.14
548.681	24036.84
548.881	23778.79
549.081	24204.77
549.28	23766.51
549.48	24126.95
549.68	24126.95
549.88	24438.24
550.08	23967.21
550.28	23940.58
550.48	23877.1
550.68	24329.7
550.88	23752.17
551.08	23942.63
551.279	23784.94
551.479	24141.28
551.679	23774.7
551.879	23754.22
552.079	24264.16
552.278	23784.94
552.478	23897.58
552.678	24210.92
552.878	24090.09
553.077	23553.52
553.277	23631.34
553.477	23776.75
553.676	24098.28
553.876	23829.99
554.076	23602.67
554.275	23692.78
554.475	23453.17
554.674	23731.69
554.874	23797.23
555.074	23662.06
555.273	23682.54
555.473	23655.92
555.672	23614.96
555.872	23485.93
556.071	23590.38
556.271	23928.3
556.47	23676.4
556.67	23553.52
556.869	23197.17
557.068	23303.67
557.268	23344.63
557.467	23436.78
557.667	23391.73
557.866	23322.1
558.065	23023.09
558.265	23199.22
558.464	23002.61
558.663	23391.73
558.863	22945.27
559.062	23455.22
559.261	22930.94
559.461	23047.67
559.66	23264.75
559.859	23051.77
560.058	23062.01
560.258	22978.04
560.457	22930.94
560.656	23150.07
560.855	22844.92
561.054	23195.12
561.253	23025.14
561.453	22892.02
561.652	22713.85
561.851	22756.86
562.05	22773.24
562.249	22382.08
562.448	22836.73
562.647	22685.18
562.846	22453.76
563.045	22869.5
563.244	22212.1
563.443	22449.66
563.642	22019.59
563.841	22588.92
564.04	22347.26
564.239	22461.95
564.438	22181.38
564.637	22261.25
564.836	22218.24
565.035	21913.09
565.234	22173.19
565.432	21882.38
565.631	22038.02
565.83	22029.83
566.029	21851.66
566.228	22038.02
566.427	21784.07
566.625	21757.45
566.824	21622.28
567.023	22068.74
567.222	21421.58
567.42	21743.11
567.619	21702.15
567.818	21407.25
568.016	21632.52
568.215	21646.86
568.414	21384.72
568.612	21589.52
568.811	21208.59
569.01	21409.29
569.208	21085.72
569.407	21304.85
569.605	21253.65
569.804	21704.2
570.002	20751.9
570.201	20981.27
570.4	20966.93
570.598	20502.04
570.797	20807.19
570.995	20733.46
571.193	20727.32
571.392	20637.21
571.59	20651.55
571.789	20559.39
571.987	20512.28
572.186	20583.96
572.384	20356.64
572.582	20553.24
572.781	20289.06
572.979	20299.3
573.177	20526.62
573.376	20344.35
573.574	20227.62
573.772	20108.83
573.971	20074.02
574.169	19895.85
574.367	19985.96
574.565	19738.15
574.763	19867.17
574.962	19549.74
575.16	19310.13
575.358	19705.38
575.556	19351.09
575.754	19705.38
575.952	19815.97
576.151	19537.45
576.349	19369.52
576.547	19228.21
576.745	19428.91
576.943	19359.28
577.141	19090.99
577.339	19226.16
577.537	19172.91
577.735	19150.39
577.933	18849.33
578.131	19062.32
578.329	18951.73
578.527	18546.23
578.725	18906.68
578.923	19037.75
579.121	18275.9
579.319	18581.05
579.516	18671.16
579.714	18886.2
579.912	18433.6
580.11	18368.06
580.308	18462.27
580.506	18480.7
580.704	18224.7
580.901	18165.31
581.099	18105.92
581.297	17954.37
581.495	18171.46
581.692	17985.09
581.89	17952.32
582.088	18058.82
582.285	18202.18
582.483	18148.93
582.681	17845.83
582.878	17755.72
583.076	17417.8
583.274	17790.53
583.471	17282.64
583.669	17559.11
583.866	17272.4
584.064	17475.15
584.262	17239.63
584.459	17524.3
584.657	17243.73
584.854	17368.65
585.052	17321.55
585.249	17251.92
585.447	17118.8
585.644	16944.72
585.841	16891.48
586.039	17122.9
586.236	17036.88
586.434	16909.91
586.631	16707.16
586.828	16682.58
587.026	16528.99
587.223	16756.31
587.42	16637.53
587.618	16526.94
587.815	16516.7
588.012	16260.7
588.21	16189.02
588.407	16465.5
588.604	16686.68
588.801	16232.03
588.999	16186.97
589.196	16062.05
589.393	16260.7
589.59	15967.84
589.787	16098.91
589.984	15859.3
590.182	15861.35
590.379	15949.41
590.576	15900.26
590.773	15992.42
590.97	15636.07
591.167	15863.4
591.364	15613.54
591.561	15820.39
591.758	15386.22
591.955	15756.9
592.152	15494.76
592.349	15294.06
592.546	15670.89
592.743	15373.93
592.94	15122.03
593.137	15216.24
593.334	15658.6
593.531	15230.57
593.727	15345.26
593.924	15040.11
594.121	14921.33
594.318	15134.32
594.515	14945.91
594.712	14956.15
594.908	14704.24
595.105	14825.08
595.302	15042.16
595.499	14888.56
595.696	14749.3
595.892	14599.8
596.089	14610.04
596.286	14591.61
596.482	14841.46
596.679	14532.22
596.876	14878.32
597.072	14564.98
597.269	14358.14
597.466	14505.59
597.662	14550.65
597.859	14524.02
598.055	14263.93
598.252	14102.14
598.448	14382.71
598.645	14134.91
598.841	14261.88
599.038	14081.66
599.234	13938.3
599.431	14012.03
599.627	14018.18
599.824	13889.15
600.02	13868.67
600.217	13907.59
600.413	14024.32
600.609	13622.92
600.806	13633.16
601.002	13395.59
601.198	13758.08
601.395	13614.73
601.591	13321.87
601.787	13497.99
601.984	13430.41
602.18	13528.71
602.376	12986
602.572	13147.79
602.769	13276.81
602.965	13280.91
603.161	13131.4
603.357	13067.92
603.553	13088.4
603.75	13014.67
603.946	13289.1
604.142	12891.79
604.338	12986
604.534	12795.54
604.73	12732.05
604.926	12693.14
605.122	12859.03
605.318	12652.18
605.514	12650.13
605.71	12631.7
605.906	12605.08
606.102	12603.03
606.298	12510.87
606.494	12588.69
606.69	12359.32
606.886	12476.05
607.082	12336.79
607.278	12330.65
607.474	12029.6
607.67	12330.65
607.866	11923.1
608.062	12150.43
608.257	12172.96
608.453	12062.37
608.649	12140.19
608.845	11890.34
609.041	11951.77
609.236	11890.34
609.432	11800.23
609.628	11824.8
609.824	11851.42
610.019	11869.86
610.215	11847.33
610.411	11929.25
610.606	11550.37
610.802	11806.37
610.998	11828.9
611.193	11652.77
611.389	11267.75
611.584	11751.07
611.78	11423.4
611.976	11665.06
612.171	11501.22
612.367	11488.93
612.562	11402.92
612.758	11234.99
612.953	11454.12
613.149	11304.62
613.344	10985.13
613.539	11441.83
613.735	11327.14
613.93	11411.11
614.126	11146.92
614.321	11189.93
614.517	11042.48
614.712	11093.68
614.907	10956.46
615.103	11144.88
615.298	11071.15
615.493	10886.83
615.688	10897.07
615.884	11093.68
616.079	10976.94
616.274	10890.93
616.47	10858.16
616.665	10821.3
616.86	10839.73
617.055	10741.43
617.25	10944.17
617.445	10784.43
617.641	10471.09
617.836	10733.23
618.031	10434.23
618.226	10544.82
618.421	10546.87
618.616	10532.53
618.811	10374.84
619.006	10643.12
619.201	10219.19
619.396	10505.91
619.591	10170.04
619.786	10380.98
619.981	10163.9
620.176	10036.92
620.371	10137.27
620.566	9987.77
620.761	10059.45
620.956	10141.37
621.151	9795.26
621.346	10102.46
621.541	9817.79
621.735	9793.22
621.93	9875.13
622.125	10010.3
622.32	9709.25
622.515	9656
622.709	9514.69
622.904	9674.43
623.099	9455.3
623.294	9465.54
623.488	9447.11
623.683	9217.74
623.878	9244.36
624.072	9305.8
624.267	9230.02
624.462	9008.84
624.656	9058
624.851	9043.66
625.046	9019.08
625.24	8820.43
625.435	8863.44
625.629	8959.69
625.824	8873.68
626.018	8857.29
626.213	8478.42
626.407	8715.98
626.602	8527.57
626.796	8488.66
626.991	8531.67
627.185	8232.66
627.38	8619.73
627.574	8437.46
627.768	8486.61
627.963	8378.07
628.157	8177.37
628.352	8259.29
628.546	8122.07
628.74	8300.25
628.935	8054.49
629.129	7904.99
629.323	7929.56
629.517	8025.82
629.712	7814.88
629.906	7773.92
630.1	7773.92
630.294	7833.31
630.489	7655.14
630.683	7552.74
630.877	7616.23
631.071	7614.18
631.265	7413.48
631.459	7579.36
631.653	7487.2
631.848	7442.15
632.042	7474.92
632.236	7128.81
632.43	7358.18
632.624	7362.28
632.818	7304.93
633.012	7077.61
633.206	7411.43
633.4	7188.2
633.594	7073.51
633.788	7079.66
633.982	6987.5
634.176	7024.36
634.369	7073.51
634.563	7014.12
634.757	6754.03
634.951	6960.88
635.145	7112.42
635.339	6737.65
635.533	6893.29
635.726	6940.4
635.92	6719.21
636.114	6620.91
636.308	6670.06
636.501	6711.02
636.695	6553.33
636.889	6547.19
637.083	6512.37
637.276	6549.23
637.47	6475.51
637.664	6326
637.857	6383.35
638.051	6477.55
638.244	6254.33
638.438	6235.89
638.632	6102.78
638.825	6115.06
639.019	6164.22
639.212	6104.82
639.406	6049.53
639.599	6100.73
639.793	5988.09
639.986	5832.44
640.18	5904.12
640.373	5883.64
640.567	5875.45
640.76	5857.02
640.954	5912.32
641.147	5691.13
641.34	5758.72
641.534	5689.09
641.727	5687.04
641.92	5795.58
642.114	5695.23
642.307	5521.15
642.5	5594.88
642.694	5400.32
642.887	5478.15
643.08	5605.12
643.273	5390.08
643.467	5355.27
643.66	5402.37
643.853	5369.6
644.046	5242.63
644.239	5304.07
644.432	5252.87
644.626	5277.44
644.819	5267.2
645.012	4941.58
645.205	5107.46
645.398	5082.89
645.591	5046.02
645.784	5226.25
645.977	4917
646.17	4886.28
646.363	4941.58
646.556	4884.23
646.749	4898.57
646.942	4767.5
647.135	4894.47
647.328	4865.8
647.521	4681.49
647.714	4730.64
647.907	4671.25
648.099	4624.14
648.292	4775.69
648.485	4706.06
648.678	4476.69
648.871	4634.38
649.064	4599.57
649.256	4540.18
649.449	4531.98
649.642	4601.62
649.835	4519.7
650.027	4495.12
650.22	4456.21
650.413	4370.19
650.605	4308.76
650.798	4247.32
650.991	4308.76
651.183	4282.13
651.376	4327.19
651.568	4368.15
651.761	4202.26
651.954	4224.79
652.146	4357.91
652.339	4155.16
652.531	4034.33
652.724	4050.71
652.916	3987.22
653.109	4108.05
653.301	4108.05
653.494	3966.74
653.686	3915.55
653.879	3903.26
654.071	3862.3
654.263	3788.57
654.456	4013.85
654.648	3862.3
654.84	3843.87
655.033	3751.71
655.225	3786.52
655.417	3743.52
655.61	3731.23
655.802	3690.27
655.994	3817.24
656.186	3708.7
656.379	3704.6
656.571	3569.44
656.763	3653.41
656.955	3628.83
657.148	3663.65
657.34	3610.4
657.532	3514.14
657.724	3571.49
657.916	3299.11
658.108	3493.66
658.3	3557.15
658.492	3505.95
658.684	3260.2
658.876	3249.96
659.068	3309.35
659.26	3385.12
659.452	3335.97
659.644	3417.89
659.836	3252
660.028	3254.05
660.22	3221.28
660.412	3231.52
660.604	3264.29
660.796	3198.76
660.988	3180.32
661.18	3028.78
661.372	3075.88
661.563	3094.31
661.755	3063.59
661.947	3045.16
662.139	3008.3
662.331	2989.86
662.522	2891.56
662.714	2942.76
662.906	2887.47
663.097	3036.97
663.289	2873.13
663.481	2928.42
663.673	2881.32
663.864	2953
664.056	2789.16
664.247	2803.5
664.439	2776.87
664.631	2856.75
664.822	2744.11
665.014	2813.74
665.205	2873.13
665.397	2723.63
665.588	2740.01
665.78	2651.95
665.971	2742.06
666.163	2737.96
666.354	2643.76
666.546	2613.04
666.737	2617.13
666.929	2625.33
667.12	2592.56
667.311	2598.7
667.503	2645.8
667.694	2598.7
667.885	2375.47
668.077	2580.27
668.268	2477.87
668.459	2504.5
668.651	2580.27
668.842	2531.12
669.033	2502.45
669.224	2545.45
669.416	2508.59
669.607	2529.07
669.798	2484.02
669.989	2473.78
670.18	2316.08
670.371	2424.62
670.563	2506.54
670.754	2328.37
670.945	2416.43
671.136	2344.75
671.327	2334.51
671.518	2260.79
671.709	2420.53
671.9	2334.51
672.091	2400.05
672.282	2277.17
672.473	2316.08
672.664	2248.5
672.855	2297.65
673.046	2228.02
673.237	2170.68
673.428	2191.16
673.619	2252.59
673.809	2225.97
674	2246.45
674.191	2217.78
674.382	2146.1
674.573	2127.67
674.764	2142
674.954	2115.38
675.145	1990.45
675.336	2142
675.527	2148.15
675.717	2182.96
675.908	2047.8
676.099	2166.58
676.289	2096.95
676.48	2170.68
676.671	2062.13
676.861	2019.13
677.052	2107.19
677.243	2066.23
677.433	2088.76
677.624	2006.84
677.814	1943.35
678.005	2109.24
678.195	2023.22
678.386	2002.74
678.576	1976.12
678.767	2004.79
678.957	1976.12
679.148	2000.69
679.338	2053.94
679.529	1918.78
679.719	2004.79
679.909	1883.96
680.1	1892.15
680.29	1879.86
680.481	1912.63
680.671	1992.5
680.861	1867.58
681.052	1851.19
681.242	1808.19
681.432	1929.02
681.622	1916.73
681.813	1918.78
682.003	1888.06
682.193	1881.91
682.383	1871.67
682.573	1765.18
682.764	1834.81
682.954	1843
683.144	1926.97
683.334	1787.71
683.524	1855.29
683.714	1795.9
683.904	1818.43
684.094	1853.24
684.284	1799.99
684.474	1916.73
684.664	1793.85
684.854	1896.25
685.044	1875.77
685.234	1777.47
685.424	1853.24
685.614	1742.65
685.804	1746.75
685.994	1818.43
686.184	1822.52
686.374	1781.56
686.564	1787.71
686.753	1777.47
686.943	1742.65
687.133	1759.03
687.323	1636.16
687.513	1627.96
687.702	1707.84
687.892	1838.91
688.082	1738.55
688.272	1744.7
688.461	1748.79
688.651	1793.85
688.841	1746.75
689.03	1697.6
689.22	1748.79
689.41	1750.84
689.599	1726.27
689.789	1732.41
689.979	1670.97
690.168	1756.99
690.358	1716.03
690.547	1707.84
690.737	1689.4
690.926	1687.36
691.116	1650.49
691.305	1658.68
691.495	1765.18
691.684	1564.48
691.874	1681.21
692.063	1761.08
692.252	1750.84
692.442	1740.6
692.631	1646.4
692.82	1697.6
693.01	1593.15
693.199	1630.01
693.388	1697.6
693.578	1591.1
693.767	1619.77
693.956	1574.72
694.146	1683.26
694.335	1533.76
694.524	1687.36
694.713	1623.87
694.902	1703.74
695.092	1648.44
695.281	1697.6
695.47	1707.84
695.659	1584.96
695.848	1554.24
696.037	1625.92
696.226	1722.17
696.415	1636.16
696.604	1791.8
696.793	1494.85
696.982	1589.05
697.171	1636.16
697.36	1668.92
697.549	1679.16
697.738	1490.75
697.927	1646.4
698.116	1687.36
698.305	1533.76
698.494	1597.24
698.683	1605.44
698.872	1615.68
699.061	1642.3
699.25	1582.91
699.438	1634.11
699.627	1560.38
699.816	1691.45
700.005	1539.9
700.193	1654.59
700.382	1572.67
700.571	1556.29
700.76	1523.52
700.948	1570.62
701.137	1533.76
701.326	1597.24
701.514	1556.29
701.703	1584.96
701.892	1578.81
702.08	1541.95
702.269	1593.15
702.457	1558.33
702.646	1597.24
702.834	1509.18
703.023	1523.52
703.212	1556.29
703.4	1578.81
703.589	1646.4
703.777	1519.42
703.965	1552.19
704.154	1603.39
704.342	1574.72
704.531	1486.65
704.719	1478.46
704.907	1574.72
705.096	1466.17
705.284	1582.91
705.472	1517.37
705.661	1578.81
705.849	1484.61
706.037	1462.08
706.226	1474.37
706.414	1539.9
706.602	1490.75
706.79	1429.31
706.979	1417.02
707.167	1460.03
707.355	1505.09
707.543	1466.17
707.731	1498.94
707.919	1384.26
708.107	1417.02
708.296	1441.6
708.484	1457.98
708.672	1419.07
708.86	1369.92
709.048	1451.84
709.236	1400.64
709.424	1351.49
709.612	1398.59
709.8	1361.73
709.988	1396.54
710.176	1285.95
710.364	1408.83
710.551	1271.62
710.739	1318.72
710.927	1466.17
711.115	1328.96
711.303	1347.39
711.491	1312.58
711.679	1326.91
711.866	1345.34
712.054	1296.19
712.242	1345.34
712.43	1224.51
712.617	1316.67
712.805	1199.94
712.993	1310.53
713.181	1296.19
713.368	1220.42
713.556	1290.05
713.744	1267.52
713.931	1367.87
714.119	1310.53
714.306	1288
714.494	1290.05
714.682	1279.81
714.869	1292.1
715.057	1232.71
715.244	1302.34
715.432	1165.12
715.619	1292.1
715.807	1240.9
715.994	1294.15
716.182	1257.28
716.369	1261.38
716.556	1281.86
716.744	1292.1
716.931	1156.93
717.119	1201.99
717.306	1249.09
717.493	1298.24
717.681	1189.7
717.868	1195.84
718.055	1138.5
718.242	1169.22
718.43	1230.66
718.617	1107.78
718.804	1163.08
718.991	1232.71
719.179	1253.19
719.366	1212.23
719.553	1113.92
719.74	1158.98
719.927	1189.7
720.114	1140.55
720.301	1120.07
720.488	1167.17
720.676	1138.5
720.863	1132.36
721.05	1214.27
721.237	1115.97
721.424	1138.5
721.611	1036.1
721.798	1091.4
721.985	1144.64
722.172	1036.1
722.358	1171.27
722.545	1091.4
722.732	1083.2
722.919	1070.92
723.106	1111.88
723.293	941.89
723.48	1105.73
723.667	1148.74
723.853	984.9
724.04	1109.83
724.227	1101.64
724.414	1013.57
724.6	1081.16
724.787	1113.92
724.974	948.04
725.161	1058.63
725.347	884.55
725.534	1044.29
725.72	1011.53
725.907	1003.33
726.094	999.24
726.28	933.7
726.467	995.14
726.653	984.9
726.84	1003.33
727.027	984.9
727.213	1013.57
727.4	964.42
727.586	905.03
727.773	952.13
727.959	1023.81
728.145	929.61
728.332	952.13
728.518	991.05
728.705	1042.25
728.891	870.22
729.077	933.7
729.264	941.89
729.45	978.76
729.636	1009.48
729.823	933.7
730.009	933.7
730.195	970.57
730.382	909.13
730.568	851.78
730.754	833.35
730.94	905.03
731.126	905.03
731.313	958.28
731.499	991.05
731.685	898.89
731.871	825.16
732.057	921.42
732.243	849.74
732.429	878.41
732.615	966.47
732.801	933.7
732.987	827.21
733.173	866.12
733.359	839.5
733.545	884.55
733.731	845.64
733.917	827.21
734.103	925.51
734.289	900.94
734.475	780.11
734.661	880.46
734.847	915.27
735.033	829.26
735.219	839.5
735.404	851.78
735.59	907.08
735.776	857.93
735.962	814.92
736.148	831.3
736.333	720.71
736.519	880.46
736.705	911.18
736.89	845.64
737.076	833.35
737.262	857.93
737.447	835.4
737.633	702.28
737.819	761.67
738.004	720.71
738.19	849.74
738.375	728.91
738.561	843.59
738.747	804.68
738.932	773.96
739.118	827.21
739.303	761.67
739.489	876.36
739.674	780.11
739.859	735.05
740.045	745.29
740.23	829.26
740.416	700.23
740.601	769.87
740.786	726.86
740.972	769.87
741.157	767.82
741.342	687.95
741.528	745.29
741.713	751.43
741.898	708.43
742.084	704.33
742.269	661.32
742.454	782.15
742.639	714.57
742.824	696.14
743.01	710.47
743.195	696.14
743.38	730.95
743.565	743.24
743.75	747.34
743.935	651.08
744.12	673.61
744.305	681.8
744.49	704.33
744.675	700.23
744.86	745.29
745.045	632.65
745.23	552.78
745.415	659.28
745.6	630.6
745.785	671.56
745.97	585.55
746.155	659.28
746.34	761.67
746.525	712.52
746.71	610.12
746.895	614.22
747.079	589.64
747.264	671.56
747.449	636.75
747.634	630.6
747.819	659.28
748.003	606.03
748.188	544.59
748.373	634.7
748.557	646.99
748.742	661.32
748.927	679.75
749.111	536.4
749.296	585.55
749.481	593.74
749.665	585.55
749.85	558.92
750.034	577.36
750.219	608.08
750.404	628.56
750.588	515.92
750.773	599.88
750.957	524.11
751.141	591.69
751.326	567.12
751.51	513.87
751.695	610.12
751.879	556.88
752.064	497.49
752.248	528.21
752.432	603.98
752.617	542.54
752.801	440.14
752.985	515.92
753.17	472.91
753.354	477.01
753.538	550.73
753.722	524.11
753.907	423.76
754.091	509.77
754.275	522.06
754.459	413.52
754.643	505.68
754.828	470.86
755.012	450.38
755.196	407.38
755.38	450.38
755.564	466.77
755.748	423.76
755.932	397.14
756.116	524.11
756.3	450.38
756.484	515.92
756.668	386.9
756.852	468.81
757.036	427.85
757.22	417.61
757.404	511.82
757.588	423.76
757.772	470.86
757.956	360.27
758.14	419.66
758.323	446.29
758.507	491.34
758.691	427.85
758.875	393.04
759.059	485.2
759.242	384.85
759.426	423.76
759.61	368.46
759.794	364.37
759.977	429.9
760.161	429.9
760.345	366.42
760.528	452.43
760.712	409.42
760.895	407.38
761.079	431.95
761.263	411.47
761.446	393.04
761.63	399.18
761.813	384.85
761.997	417.61
762.18	317.26
762.364	347.98
762.547	317.26
762.731	374.61
762.914	397.14
763.098	388.94
763.281	296.78
763.464	321.36
763.648	415.57
763.831	431.95
764.015	409.42
764.198	382.8
764.381	403.28
764.564	327.5
764.748	333.65
764.931	290.64
765.114	347.98
765.297	401.23
765.481	388.94
765.664	347.98
765.847	307.02
766.03	354.13
766.213	345.94
766.397	333.65
766.58	374.61
766.763	284.5
766.946	337.74
767.129	417.61
767.312	384.85
767.495	343.89
767.678	298.83
767.861	403.28
768.044	335.7
768.227	354.13
768.41	341.84
768.593	360.27
768.776	317.26
768.959	386.9
769.142	360.27
769.324	376.66
769.507	294.74
769.69	331.6
769.873	388.94
770.056	360.27
770.239	280.4
770.421	345.94
770.604	307.02
770.787	290.64
770.97	335.7
771.152	345.94
771.335	317.26
771.518	347.98
771.7	352.08
771.883	304.98
772.066	311.12
772.248	276.31
772.431	302.93
772.613	304.98
772.796	208.72
772.978	304.98
773.161	311.12
773.343	290.64
773.526	261.97
773.708	333.65
773.891	218.96
774.073	347.98
774.256	311.12
774.438	274.26
774.621	288.59
774.803	321.36
774.985	288.59
775.168	298.83
775.35	300.88
775.532	327.5
775.715	278.35
775.897	278.35
776.079	304.98
776.261	294.74
776.444	225.11
776.626	311.12
776.808	202.58
776.99	266.07
777.173	294.74
777.355	331.6
777.537	286.54
777.719	261.97
777.901	280.4
778.083	264.02
778.265	296.78
778.447	294.74
778.629	253.78
778.811	178
778.993	208.72
779.175	266.07
779.357	286.54
779.539	253.78
779.721	257.87
779.903	210.77
780.085	221.01
780.267	247.63
780.449	229.2
780.631	200.53
780.812	169.81
780.994	239.44
781.176	227.15
781.358	188.24
781.54	200.53
781.721	274.26
781.903	245.59
782.085	233.3
782.267	251.73
782.448	229.2
782.63	225.11
782.812	249.68
782.993	245.59
783.175	282.45
783.357	145.24
783.538	221.01
783.72	206.67
783.901	212.82
784.083	161.62
784.264	192.34
784.446	288.59
784.627	196.43
784.809	218.96
784.99	180.05
785.172	190.29
785.353	212.82
785.535	182.1
785.716	216.91
785.897	196.43
786.079	229.2
786.26	184.15
786.441	198.48
786.623	151.38
786.804	216.91
786.985	167.76
787.167	171.86
787.348	157.52
787.529	223.06
787.71	208.72
787.891	231.25
788.073	212.82
788.254	198.48
788.435	274.26
788.616	139.09
788.797	184.15
788.978	157.52
789.159	147.28
789.34	175.95
789.522	94.04
789.703	145.24
789.884	173.91
790.065	214.87
790.246	110.42
790.427	167.76
790.607	130.9
790.788	239.44
790.969	151.38
791.15	155.47
791.331	180.05
791.512	100.18
791.693	149.33
791.874	229.2
792.054	155.47
792.235	180.05
792.416	139.09
792.597	196.43
792.778	198.48
792.958	159.57
793.139	153.43
793.32	145.24
793.5	155.47
793.681	200.53
793.862	139.09
794.042	132.95
794.223	126.8
794.404	98.13
794.584	130.9
794.765	151.38
794.945	122.71
795.126	192.34
795.306	59.22
795.487	65.36
795.667	102.23
795.848	139.09
796.028	108.37
796.209	239.44
796.389	65.36
796.57	114.52
796.75	157.52
796.93	218.96
797.111	61.27
797.291	118.61
797.471	91.99
797.652	89.94
797.832	85.84
798.012	112.47
798.192	118.61
798.373	32.6
798.553	94.04
798.733	77.65
798.913	135
799.093	116.56
799.274	155.47
799.454	184.15
799.634	75.6
799.814	114.52
799.994	118.61
800.174	89.94
800.354	51.03
800.534	85.84
800.714	83.8
800.894	173.91
801.074	83.8
801.254	91.99
801.434	91.99
801.614	206.67
801.794	79.7
801.974	417.61
802.154	77.65
802.334	130.9
802.514	106.32
802.693	108.37
802.873	116.56
803.053	91.99
803.233	20.31
803.413	126.8
803.592	24.4
803.772	122.71
803.952	98.13
804.131	51.03
804.311	89.94
804.491	147.28
804.67	110.42
804.85	106.32
805.03	128.85
805.209	75.6
805.389	65.36
805.568	102.23
805.748	94.04
805.928	81.75
806.107	114.52
806.287	108.37
806.466	132.95
806.646	96.08
806.825	67.41
807.004	67.41
807.184	32.6
807.363	157.52
807.543	-6.31
807.722	91.99
807.901	81.75
808.081	65.36
808.26	75.6
808.439	53.08
808.619	126.8
808.798	89.94
808.977	22.36
809.156	81.75
809.336	28.5
809.515	81.75
809.694	73.56
809.873	16.21
810.052	77.65
810.231	130.9
810.411	102.23
810.59	73.56
810.769	8.02
810.948	67.41
811.127	63.32
811.306	128.85
811.485	69.46
811.664	124.76
811.843	89.94
812.022	71.51
812.201	87.89
812.38	24.4
812.559	102.23
812.737	-26.79
812.916	34.64
813.095	100.18
813.274	42.84
813.453	128.85
813.632	108.37
813.811	104.28
813.989	26.45
814.168	65.36
814.347	44.88
814.526	42.84
814.704	106.32
814.883	100.18
815.062	51.03
815.24	57.17
815.419	-4.27
815.598	81.75
815.776	34.64
815.955	16.21
816.133	94.04
816.312	46.93
816.49	30.55
816.669	55.12
816.847	83.8
817.026	34.64
817.204	75.6
817.383	57.17
817.561	20.31
817.74	28.5
817.918	126.8
818.097	112.47
818.275	75.6
818.453	42.84
818.632	-0.17
818.81	-6.31
818.988	67.41
819.167	10.07
819.345	83.8
819.523	122.71
819.701	51.03
819.879	120.66
820.058	94.04
820.236	87.89
820.414	26.45
820.592	-12.46
820.77	65.36
820.948	114.52
821.127	110.42
821.305	61.27
821.483	16.21
821.661	91.99
821.839	106.32
822.017	36.69
822.195	53.08
822.373	91.99
822.551	75.6
822.729	22.36
822.907	57.17
823.085	112.47
823.262	20.31
823.44	12.12
823.618	55.12
823.796	32.6
823.974	34.64
824.152	57.17
824.329	10.07
824.507	61.27
824.685	20.31
824.863	91.99
825.04	53.08
825.218	-6.31
825.396	-12.46
825.574	55.12
825.751	24.4
825.929	89.94
826.107	10.07
826.284	8.02
826.462	36.69
826.639	26.45
826.817	20.31
826.994	-24.75
827.172	48.98
827.349	30.55
827.527	73.56
827.704	141.14
827.882	63.32
828.059	75.6
828.237	-6.31
828.414	89.94
828.591	22.36
828.769	51.03
828.946	1.88
829.124	85.84
829.301	-20.65
829.478	-2.22
829.655	75.6
829.833	18.26
830.01	71.51
830.187	8.02
830.364	24.4
830.542	98.13
830.719	77.65
830.896	-6.31
831.073	61.27
831.25	48.98
831.427	89.94
831.604	57.17
831.782	122.71
831.959	20.31
832.136	71.51
832.313	40.79
832.49	-6.31
832.667	26.45
832.844	20.31
833.021	85.84
833.198	87.89
833.374	116.56
833.551	59.22
833.728	24.4
833.905	51.03
834.082	-22.7
834.259	81.75
834.436	161.62
834.612	51.03
834.789	44.88
834.966	-8.36
835.143	10.07
835.319	55.12
835.496	-14.51
835.673	-4.27
835.85	57.17
836.026	67.41
836.203	8.02
836.38	69.46
836.556	24.4
836.733	65.36
836.909	44.88
837.086	1.88
837.262	-8.36
837.439	57.17
837.616	51.03
837.792	53.08
837.968	36.69
838.145	44.88
838.321	102.23
838.498	8.02
838.674	100.18
838.851	32.6
839.027	36.69
839.203	20.31
839.38	69.46
839.556	26.45
839.732	55.12
839.909	40.79
840.085	28.5
840.261	-4.27
840.437	59.22
840.614	12.12
840.79	-41.13
840.966	22.36
841.142	94.04
841.318	44.88
841.494	106.32
841.671	14.17
841.847	-20.65
842.023	48.98
842.199	130.9
842.375	44.88
842.551	32.6
842.727	8.02
842.903	53.08
843.079	8.02
843.255	32.6
843.431	-16.55
843.607	-28.84
843.783	-47.27
843.959	3.93
844.134	-0.17
844.31	-24.75
844.486	3.93
844.662	12.12
844.838	48.98
845.013	-51.37
845.189	26.45
845.365	55.12
845.541	24.4
845.716	44.88
845.892	-4.27
846.068	59.22
846.244	44.88
846.419	10.07
846.595	69.46
846.77	-20.65
846.946	44.88
847.122	40.79
847.297	-16.55
847.473	26.45
847.648	-16.55
847.824	69.46
847.999	51.03
848.175	57.17
848.35	1.88
848.526	24.4
848.701	89.94
848.876	16.21
849.052	71.51
849.227	3.93
849.403	-20.65
849.578	61.27
849.753	-4.27
849.929	69.46
850.104	-12.46
850.279	-39.08
850.454	42.84
850.63	51.03
850.805	28.5
850.98	40.79
851.155	5.97
851.33	-55.47
851.505	10.07
851.681	32.6
851.856	5.97
852.031	-22.7
852.206	-51.37
852.381	40.79
852.556	1.88
852.731	28.5
852.906	-10.41
853.081	10.07
853.256	65.36
853.431	-43.18
853.606	-6.31
853.781	12.12
853.956	10.07
854.131	-39.08
854.305	46.93
854.48	-0.17
854.655	77.65
854.83	-24.75
855.005	61.27
855.18	34.64
855.354	-45.23
855.529	1.88
855.704	28.5
855.879	-8.36
856.053	-20.65
856.228	-49.32
856.403	36.69
856.577	-59.56
856.752	3.93
856.926	14.17
857.101	44.88
857.276	36.69
857.45	48.98
857.625	40.79
857.799	42.84
857.974	-30.89
858.148	83.8
858.323	-0.17
858.497	-30.89
858.672	53.08
858.846	5.97
859.02	-47.27
859.195	3.93
859.369	40.79
859.543	-37.03
859.718	32.6
859.892	-8.36
860.066	-30.89
860.241	-67.75
860.415	26.45
860.589	-43.18
860.763	12.12
860.938	1.88
861.112	-24.75
861.286	20.31
861.46	-24.75
861.634	44.88
861.808	-24.75
861.982	-80.04
862.157	22.36
862.331	-26.79
862.505	5.97
862.679	-41.13
862.853	20.31
863.027	-45.23
863.201	32.6
863.375	-16.55
863.549	-49.32
863.722	26.45
863.896	16.21
864.07	75.6
864.244	44.88
864.418	8.02
864.592	-20.65
864.766	102.23
864.939	8.02
865.113	-30.89
865.287	-26.79
865.461	51.03
865.634	12.12
865.808	-4.27
865.982	-0.17
866.156	26.45
866.329	-82.09
866.503	-16.55
866.676	48.98
866.85	3.93
867.024	73.56
867.197	34.64
867.371	8.02
867.544	-2.22
867.718	-10.41
867.891	10.07
868.065	-10.41
868.238	-14.51
868.412	-41.13
868.585	-10.41
868.759	-37.03
868.932	-10.41
869.105	-16.55
869.279	57.17
869.452	61.27
869.625	59.22
869.799	32.6
869.972	8.02
870.145	51.03
870.319	32.6
870.492	30.55
870.665	-41.13
870.838	-12.46
871.011	16.21
871.185	-45.23
871.358	-32.94
871.531	-0.17
871.704	18.26
871.877	-20.65
872.05	-10.41
872.223	38.74
872.396	40.79
872.569	-6.31
872.742	-24.75
872.915	-0.17
873.088	-20.65
873.261	59.22
873.434	-30.89
873.607	3.93
873.78	-73.9
873.953	-20.65
874.126	34.64
874.299	-22.7
874.471	40.79
874.644	24.4
874.817	26.45
874.99	61.27
875.163	30.55
875.335	28.5
875.508	79.7
875.681	20.31
875.853	-16.55
876.026	-0.17
876.199	-16.55
876.371	30.55
876.544	36.69
876.717	30.55
876.889	-18.6
877.062	18.26
877.234	26.45
877.407	3.93
877.579	38.74
877.752	-24.75
877.924	10.07
878.097	16.21
878.269	61.27
878.442	-8.36
878.614	-4.27
878.786	53.08
878.959	40.79
879.131	-16.55
879.303	-8.36
879.476	65.36
879.648	5.97
879.82	20.31
879.993	-6.31
880.165	14.17
880.337	-24.75
880.509	22.36
880.681	-49.32
880.854	16.21
881.026	10.07
881.198	32.6
881.37	8.02
881.542	-6.31
881.714	-18.6
881.886	-32.94
882.058	10.07
882.23	34.64
882.402	-8.36
882.574	38.74
882.746	-4.27
882.918	-8.36
883.09	122.71
883.262	40.79
883.434	61.27
883.606	44.88
883.778	-30.89
883.95	-22.7
884.122	-43.18
884.293	24.4
884.465	34.64
884.637	-28.84
884.809	55.12
884.98	20.31
885.152	-30.89
885.324	42.84
885.496	-0.17
885.667	-24.75
885.839	3.93
886.011	5.97
886.182	36.69
886.354	42.84
886.525	-28.84
886.697	46.93
886.869	46.93
887.04	24.4
887.212	71.51
887.383	1.88
887.555	-47.27
887.726	-20.65
887.897	-12.46
888.069	53.08
888.24	44.88
888.412	-39.08
888.583	-28.84
888.754	-43.18
888.926	-20.65
889.097	-110.76
889.268	-65.71
889.44	18.26
889.611	-55.47
889.782	-0.17
889.953	16.21
890.125	20.31
890.296	16.21
890.467	71.51
890.638	-8.36
890.809	116.56
890.98	-0.17
891.151	-26.79
891.323	51.03
891.494	18.26
891.665	-12.46
891.836	5.97
892.007	-4.27
892.178	-45.23
892.349	18.26
892.52	-32.94
892.691	32.6
892.862	16.21
893.032	-8.36
893.203	63.32
893.374	-10.41
893.545	32.6
893.716	-65.71
893.887	-24.75
894.057	24.4
894.228	-0.17
894.399	-26.79
894.57	173.91
894.74	26.45
894.911	16.21
895.082	-39.08
895.253	-67.75
895.423	-49.32
895.594	1.88
895.764	40.79
895.935	32.6
896.106	8.02
896.276	61.27
896.447	-57.51
896.617	30.55
896.788	-32.94
896.958	28.5
897.129	-30.89
897.299	-28.84
897.47	-57.51
897.64	-14.51
897.81	-16.55
897.981	36.69
898.151	48.98
898.322	96.08
898.492	34.64
898.662	57.17
898.832	-61.61
899.003	5.97
899.173	46.93
899.343	8.02
899.513	8.02
