Data from USB4F104151__22__13-52-37-502.txt Node

Date: Thu Mar 13 13:52:37 EDT 2025
User: louis
Spectrometer: USB4F10415
Trigger mode: 4
Integration Time (sec): 1.000000E-2
Scans to average: 1
Electric dark correction enabled: true
Nonlinearity correction enabled: false
Boxcar width: 0
XAxis mode: Wavelengths
Number of Pixels in Spectrum: 3648
>>>>>Begin Spectral Data<<<<<
178.204	-43.01
178.424	-43.01
178.644	-43.01
178.864	-18.43
179.084	-45.06
179.304	16.38
179.524	-18.43
179.744	-22.53
179.964	-18.43
180.184	16.38
180.404	18.43
180.624	26.62
180.844	-51.2
181.064	-28.67
181.283	38.91
181.503	-26.62
181.723	49.15
181.943	-18.43
182.163	47.1
182.383	-36.86
182.602	129.02
182.822	106.49
183.042	-2.05
183.262	47.1
183.482	51.2
183.701	16.38
183.921	0
184.141	-24.58
184.361	28.67
184.58	22.53
184.8	24.58
185.02	36.86
185.239	-2.05
185.459	40.96
185.679	22.53
185.898	-24.58
186.118	67.58
186.338	-26.62
186.557	36.86
186.777	18.43
186.997	63.49
187.216	10.24
187.436	30.72
187.655	26.62
187.875	22.53
188.095	86.01
188.314	16.38
188.534	18.43
188.753	83.97
188.973	14.34
189.192	63.49
189.412	18.43
189.631	-55.3
189.851	73.73
190.07	28.67
190.29	-67.58
190.509	20.48
190.729	20.48
190.948	28.67
191.168	69.63
191.387	10.24
191.607	38.91
191.826	51.2
192.045	24.58
192.265	47.1
192.484	20.48
192.704	-59.39
192.923	43.01
193.142	40.96
193.362	32.77
193.581	18.43
193.8	55.3
194.02	59.39
194.239	73.73
194.458	71.68
194.678	81.92
194.897	59.39
195.116	10.24
195.335	-30.72
195.555	6.14
195.774	36.86
195.993	92.16
196.212	4.1
196.432	49.15
196.651	92.16
196.87	14.34
197.089	75.77
197.308	75.77
197.528	92.16
197.747	49.15
197.966	-10.24
198.185	24.58
198.404	59.39
198.623	6.14
198.842	98.3
199.062	22.53
199.281	43.01
199.5	-4.1
199.719	22.53
199.938	61.44
200.157	-24.58
200.376	28.67
200.595	47.1
200.814	-6.14
201.033	24.58
201.252	-30.72
201.471	49.15
201.69	-53.25
201.909	-8.19
202.128	28.67
202.347	59.39
202.566	-8.19
202.785	18.43
203.004	0
203.223	-6.14
203.442	24.58
203.661	14.34
203.879	4.1
204.098	49.15
204.317	-22.53
204.536	36.86
204.755	77.82
204.974	22.53
205.193	77.82
205.411	106.49
205.63	51.2
205.849	28.67
206.068	-22.53
206.287	20.48
206.505	10.24
206.724	88.06
206.943	98.3
207.162	-4.1
207.381	-10.24
207.599	-4.1
207.818	8.19
208.037	14.34
208.255	-12.29
208.474	51.2
208.693	49.15
208.911	75.77
209.13	26.62
209.349	2.05
209.567	59.39
209.786	36.86
210.005	55.3
210.223	145.41
210.442	83.97
210.661	30.72
210.879	16.38
211.098	10.24
211.316	47.1
211.535	26.62
211.753	12.29
211.972	30.72
212.191	-14.34
212.409	-18.43
212.628	6.14
212.846	47.1
213.065	-14.34
213.283	12.29
213.502	73.73
213.72	40.96
213.938	-34.82
214.157	53.25
214.375	45.06
214.594	12.29
214.812	118.78
215.031	98.3
215.249	-73.73
215.467	-20.48
215.686	6.14
215.904	-57.34
216.122	10.24
216.341	90.11
216.559	-30.72
216.778	8.19
216.996	30.72
217.214	51.2
217.432	-4.1
217.651	6.14
217.869	18.43
218.087	83.97
218.306	-67.58
218.524	8.19
218.742	83.97
218.96	10.24
219.179	-8.19
219.397	10.24
219.615	12.29
219.833	88.06
220.051	10.24
220.27	8.19
220.488	16.38
220.706	4.1
220.924	51.2
221.142	53.25
221.36	-40.96
221.578	4.1
221.796	14.34
222.015	34.82
222.233	18.43
222.451	51.2
222.669	14.34
222.887	30.72
223.105	38.91
223.323	8.19
223.541	18.43
223.759	71.68
223.977	79.87
224.195	114.69
224.413	94.21
224.631	14.34
224.849	-8.19
225.067	10.24
225.285	53.25
225.503	-12.29
225.721	57.34
225.939	36.86
226.157	73.73
226.375	-8.19
226.592	8.19
226.81	-10.24
227.028	-16.38
227.246	47.1
227.464	61.44
227.682	57.34
227.9	-4.1
228.117	49.15
228.335	-6.14
228.553	73.73
228.771	47.1
228.989	-4.1
229.206	-20.48
229.424	77.82
229.642	38.91
229.86	47.1
230.077	106.49
230.295	8.19
230.513	8.19
230.731	0
230.948	-20.48
231.166	55.3
231.384	-20.48
231.601	6.14
231.819	-4.1
232.037	63.49
232.254	-14.34
232.472	96.25
232.689	16.38
232.907	55.3
233.125	16.38
233.342	18.43
233.56	36.86
233.777	-20.48
233.995	59.39
234.213	92.16
234.43	22.53
234.648	12.29
234.865	-24.58
235.083	-2.05
235.3	0
235.518	-14.34
235.735	67.58
235.953	57.34
236.17	-2.05
236.388	-38.91
236.605	-6.14
236.822	12.29
237.04	63.49
237.257	4.1
237.475	-12.29
237.692	-14.34
237.909	-10.24
238.127	55.3
238.344	100.35
238.562	81.92
238.779	45.06
238.996	12.29
239.214	63.49
239.431	124.93
239.648	71.68
239.865	47.1
240.083	51.2
240.3	30.72
240.517	6.14
240.735	-4.1
240.952	63.49
241.169	49.15
241.386	2.05
241.603	28.67
241.821	-20.48
242.038	-2.05
242.255	86.01
242.472	71.68
242.689	43.01
242.907	40.96
243.124	83.97
243.341	61.44
243.558	-30.72
243.775	40.96
243.992	30.72
244.209	14.34
244.426	22.53
244.643	20.48
244.86	14.34
245.078	118.78
245.295	34.82
245.512	24.58
245.729	14.34
245.946	6.14
246.163	-79.87
246.38	102.4
246.597	77.82
246.814	63.49
247.031	51.2
247.248	65.54
247.464	77.82
247.681	69.63
247.898	65.54
248.115	-12.29
248.332	24.58
248.549	43.01
248.766	10.24
248.983	47.1
249.2	51.2
249.417	34.82
249.633	55.3
249.85	-12.29
250.067	49.15
250.284	51.2
250.501	10.24
250.717	102.4
250.934	-16.38
251.151	28.67
251.368	79.87
251.585	36.86
251.801	-8.19
252.018	20.48
252.235	36.86
252.451	90.11
252.668	12.29
252.885	108.54
253.102	-16.38
253.318	53.25
253.535	63.49
253.752	-16.38
253.968	6.14
254.185	-28.67
254.401	49.15
254.618	-10.24
254.835	-18.43
255.051	88.06
255.268	-10.24
255.484	16.38
255.701	16.38
255.917	-12.29
256.134	-30.72
256.351	2.05
256.567	8.19
256.784	-8.19
257	10.24
257.217	28.67
257.433	20.48
257.65	106.49
257.866	-63.49
258.082	53.25
258.299	-28.67
258.515	38.91
258.732	8.19
258.948	40.96
259.165	-57.34
259.381	55.3
259.597	53.25
259.814	-4.1
260.03	-10.24
260.246	36.86
260.463	55.3
260.679	43.01
260.895	-4.1
261.112	88.06
261.328	75.77
261.544	0
261.761	73.73
261.977	18.43
262.193	38.91
262.409	40.96
262.626	6.14
262.842	32.77
263.058	-6.14
263.274	14.34
263.49	49.15
263.707	43.01
263.923	16.38
264.139	18.43
264.355	47.1
264.571	59.39
264.787	8.19
265.004	43.01
265.22	10.24
265.436	12.29
265.652	38.91
265.868	120.83
266.084	100.35
266.3	61.44
266.516	90.11
266.732	45.06
266.948	-22.53
267.164	30.72
267.38	-26.62
267.596	-14.34
267.812	20.48
268.028	36.86
268.244	10.24
268.46	55.3
268.676	28.67
268.892	-22.53
269.108	20.48
269.324	43.01
269.54	51.2
269.756	0
269.972	14.34
270.188	26.62
270.403	-14.34
270.619	38.91
270.835	63.49
271.051	0
271.267	92.16
271.483	55.3
271.698	22.53
271.914	-32.77
272.13	-12.29
272.346	81.92
272.562	12.29
272.777	4.1
272.993	-34.82
273.209	-34.82
273.425	-26.62
273.64	59.39
273.856	108.54
274.072	96.25
274.287	-8.19
274.503	69.63
274.719	51.2
274.934	24.58
275.15	63.49
275.366	2.05
275.581	-8.19
275.797	10.24
276.012	-22.53
276.228	-26.62
276.444	51.2
276.659	92.16
276.875	-10.24
277.09	20.48
277.306	47.1
277.521	-24.58
277.737	26.62
277.952	63.49
278.168	30.72
278.383	36.86
278.599	-67.58
278.814	14.34
279.03	59.39
279.245	16.38
279.461	77.82
279.676	73.73
279.892	-24.58
280.107	67.58
280.322	24.58
280.538	-45.06
280.753	40.96
280.969	14.34
281.184	-51.2
281.399	0
281.615	-4.1
281.83	45.06
282.045	20.48
282.26	4.1
282.476	2.05
282.691	-38.91
282.906	32.77
283.122	45.06
283.337	65.54
283.552	61.44
283.767	24.58
283.983	30.72
284.198	100.35
284.413	63.49
284.628	22.53
284.843	53.25
285.058	-2.05
285.274	-65.53
285.489	43.01
285.704	26.62
285.919	30.72
286.134	20.48
286.349	59.39
286.564	-10.24
286.779	30.72
286.995	16.38
287.21	18.43
287.425	36.86
287.64	-24.58
287.855	45.06
288.07	4.1
288.285	22.53
288.5	55.3
288.715	-16.38
288.93	26.62
289.145	43.01
289.36	57.34
289.575	-2.05
289.79	47.1
290.004	51.2
290.219	-16.38
290.434	12.29
290.649	75.77
290.864	-36.86
291.079	14.34
291.294	34.82
291.509	-45.06
291.724	10.24
291.938	86.01
292.153	-4.1
292.368	43.01
292.583	-16.38
292.798	2.05
293.012	55.3
293.227	30.72
293.442	47.1
293.657	2.05
293.871	-32.77
294.086	57.34
294.301	-6.14
294.516	86.01
294.73	-22.53
294.945	24.58
295.16	43.01
295.374	63.49
295.589	81.92
295.804	59.39
296.018	61.44
296.233	51.2
296.447	51.2
296.662	59.39
296.877	20.48
297.091	106.49
297.306	90.11
297.52	24.58
297.735	-38.91
297.949	71.68
298.164	96.25
298.378	36.86
298.593	20.48
298.807	34.82
299.022	18.43
299.236	28.67
299.451	20.48
299.665	81.92
299.88	-43.01
300.094	38.91
300.309	30.72
300.523	22.53
300.737	-2.05
300.952	43.01
301.166	4.1
301.381	10.24
301.595	18.43
301.809	8.19
302.024	73.73
302.238	-12.29
302.452	-30.72
302.667	69.63
302.881	77.82
303.095	53.25
303.309	63.49
303.524	40.96
303.738	81.92
303.952	47.1
304.166	30.72
304.381	-18.43
304.595	90.11
304.809	-49.15
305.023	57.34
305.237	22.53
305.452	79.87
305.666	-22.53
305.88	2.05
306.094	10.24
306.308	67.58
306.522	24.58
306.736	14.34
306.95	47.1
307.164	65.54
307.379	8.19
307.593	90.11
307.807	24.58
308.021	120.83
308.235	14.34
308.449	47.1
308.663	-2.05
308.877	96.25
309.091	2.05
309.305	36.86
309.519	-8.19
309.733	20.48
309.947	-30.72
310.161	94.21
310.374	-30.72
310.588	-10.24
310.802	53.25
311.016	-32.77
311.23	90.11
311.444	47.1
311.658	86.01
311.872	45.06
312.085	22.53
312.299	79.87
312.513	-28.67
312.727	71.68
312.941	-51.2
313.154	32.77
313.368	20.48
313.582	-10.24
313.796	47.1
314.009	61.44
314.223	16.38
314.437	63.49
314.651	30.72
314.864	-12.29
315.078	100.35
315.292	-26.62
315.505	79.87
315.719	12.29
315.933	-32.77
316.146	16.38
316.36	90.11
316.573	-18.43
316.787	139.26
317.001	-8.19
317.214	6.14
317.428	75.77
317.641	96.25
317.855	-40.96
318.068	16.38
318.282	43.01
318.495	73.73
318.709	34.82
318.922	-18.43
319.136	-24.58
319.349	67.58
319.563	22.53
319.776	59.39
319.99	-22.53
320.203	47.1
320.417	106.49
320.63	79.87
320.843	18.43
321.057	106.49
321.27	6.14
321.483	32.77
321.697	0
321.91	12.29
322.124	32.77
322.337	-8.19
322.55	57.34
322.763	-12.29
322.977	30.72
323.19	67.58
323.403	14.34
323.617	38.91
323.83	8.19
324.043	-8.19
324.256	63.49
324.469	30.72
324.683	43.01
324.896	69.63
325.109	49.15
325.322	-4.1
325.535	6.14
325.748	10.24
325.962	4.1
326.175	10.24
326.388	90.11
326.601	-30.72
326.814	106.49
327.027	49.15
327.24	59.39
327.453	12.29
327.666	67.58
327.879	63.49
328.092	-8.19
328.305	69.63
328.518	30.72
328.731	0
328.944	81.92
329.157	69.63
329.37	32.77
329.583	36.86
329.796	53.25
330.009	-8.19
330.222	129.02
330.435	10.24
330.648	26.62
330.861	-59.39
331.073	59.39
331.286	6.14
331.499	-12.29
331.712	22.53
331.925	16.38
332.138	-2.05
332.35	94.21
332.563	71.68
332.776	12.29
332.989	36.86
333.202	61.44
333.414	51.2
333.627	59.39
333.84	51.2
334.053	86.01
334.265	106.49
334.478	51.2
334.691	28.67
334.903	16.38
335.116	26.62
335.329	100.35
335.541	12.29
335.754	16.38
335.966	26.62
336.179	6.14
336.392	75.77
336.604	63.49
336.817	51.2
337.029	10.24
337.242	-67.58
337.454	20.48
337.667	-20.48
337.88	55.3
338.092	53.25
338.305	81.92
338.517	30.72
338.729	65.54
338.942	83.97
339.154	61.44
339.367	-18.43
339.579	51.2
339.792	-36.86
340.004	36.86
340.217	2.05
340.429	38.91
340.641	30.72
340.854	-30.72
341.066	6.14
341.278	49.15
341.491	81.92
341.703	38.91
341.915	-18.43
342.128	57.34
342.34	61.44
342.552	12.29
342.764	-26.62
342.977	24.58
343.189	10.24
343.401	69.63
343.613	71.68
343.826	28.67
344.038	61.44
344.25	73.73
344.462	36.86
344.674	63.49
344.886	45.06
345.099	67.58
345.311	40.96
345.523	67.58
345.735	53.25
345.947	61.44
346.159	10.24
346.371	28.67
346.583	0
346.795	69.63
347.007	8.19
347.219	100.35
347.431	120.83
347.643	36.86
347.855	51.2
348.067	-12.29
348.279	90.11
348.491	53.25
348.703	94.21
348.915	79.87
349.127	-10.24
349.339	53.25
349.551	20.48
349.763	71.68
349.975	14.34
350.187	20.48
350.399	20.48
350.61	57.34
350.822	-8.19
351.034	20.48
351.246	57.34
351.458	22.53
351.669	34.82
351.881	65.54
352.093	8.19
352.305	77.82
352.517	69.63
352.728	40.96
352.94	104.45
353.152	18.43
353.363	10.24
353.575	53.25
353.787	-6.14
353.999	73.73
354.21	18.43
354.422	67.58
354.633	57.34
354.845	2.05
355.057	26.62
355.268	-20.48
355.48	57.34
355.692	77.82
355.903	-32.77
356.115	75.77
356.326	92.16
356.538	8.19
356.749	96.25
356.961	-6.14
357.172	18.43
357.384	47.1
357.595	79.87
357.807	-59.39
358.018	73.73
358.23	120.83
358.441	20.48
358.653	40.96
358.864	86.01
359.075	-34.82
359.287	120.83
359.498	47.1
359.709	49.15
359.921	14.34
360.132	81.92
360.344	53.25
360.555	53.25
360.766	30.72
360.977	55.3
361.189	8.19
361.4	10.24
361.611	55.3
361.823	83.97
362.034	73.73
362.245	77.82
362.456	53.25
362.667	55.3
362.879	53.25
363.09	120.83
363.301	-28.67
363.512	51.2
363.723	43.01
363.935	30.72
364.146	28.67
364.357	61.44
364.568	-12.29
364.779	-71.68
364.99	18.43
365.201	116.73
365.412	-12.29
365.623	96.25
365.834	92.16
366.045	-2.05
366.256	75.77
366.467	18.43
366.678	53.25
366.889	40.96
367.1	83.97
367.311	26.62
367.522	57.34
367.733	92.16
367.944	106.49
368.155	18.43
368.366	147.45
368.577	28.67
368.788	88.06
368.999	12.29
369.209	59.39
369.42	-2.05
369.631	90.11
369.842	81.92
370.053	20.48
370.264	-14.34
370.474	45.06
370.685	20.48
370.896	49.15
371.107	55.3
371.317	34.82
371.528	24.58
371.739	16.38
371.95	71.68
372.16	38.91
372.371	43.01
372.582	114.69
372.792	90.11
373.003	71.68
373.214	51.2
373.424	28.67
373.635	-53.25
373.846	114.69
374.056	86.01
374.267	47.1
374.477	38.91
374.688	65.54
374.898	20.48
375.109	43.01
375.319	88.06
375.53	63.49
375.74	40.96
375.951	38.91
376.161	83.97
376.372	55.3
376.582	49.15
376.793	53.25
377.003	71.68
377.214	61.44
377.424	75.77
377.635	43.01
377.845	-40.96
378.055	67.58
378.266	102.4
378.476	47.1
378.686	86.01
378.897	63.49
379.107	-12.29
379.317	34.82
379.528	45.06
379.738	51.2
379.948	59.39
380.158	32.77
380.369	34.82
380.579	65.54
380.789	100.35
380.999	118.78
381.21	24.58
381.42	69.63
381.63	106.49
381.84	26.62
382.05	47.1
382.261	88.06
382.471	71.68
382.681	155.65
382.891	55.3
383.101	86.01
383.311	38.91
383.521	-14.34
383.731	63.49
383.941	149.5
384.151	57.34
384.361	59.39
384.571	22.53
384.781	16.38
384.991	57.34
385.201	28.67
385.411	20.48
385.621	40.96
385.831	55.3
386.041	61.44
386.251	16.38
386.461	79.87
386.671	63.49
386.881	36.86
387.091	22.53
387.301	30.72
387.511	79.87
387.72	104.45
387.93	124.93
388.14	-16.38
388.35	2.05
388.56	79.87
388.769	65.54
388.979	67.58
389.189	38.91
389.399	104.45
389.609	12.29
389.818	61.44
390.028	-40.96
390.238	71.68
390.447	69.63
390.657	57.34
390.867	38.91
391.076	59.39
391.286	38.91
391.496	135.17
391.705	65.54
391.915	47.1
392.125	79.87
392.334	67.58
392.544	153.6
392.753	75.77
392.963	71.68
393.172	73.73
393.382	61.44
393.591	40.96
393.801	40.96
394.01	147.45
394.22	92.16
394.429	10.24
394.639	24.58
394.848	131.07
395.058	120.83
395.267	30.72
395.477	40.96
395.686	102.4
395.895	92.16
396.105	75.77
396.314	16.38
396.524	65.54
396.733	104.45
396.942	83.97
397.152	83.97
397.361	83.97
397.57	69.63
397.78	90.11
397.989	114.69
398.198	90.11
398.407	73.73
398.617	45.06
398.826	-8.19
399.035	18.43
399.244	102.4
399.453	14.34
399.663	73.73
399.872	65.54
400.081	59.39
400.29	79.87
400.499	120.83
400.708	149.5
400.917	34.82
401.127	24.58
401.336	61.44
401.545	83.97
401.754	86.01
401.963	137.21
402.172	86.01
402.381	163.84
402.59	94.21
402.799	83.97
403.008	98.3
403.217	94.21
403.426	86.01
403.635	90.11
403.844	96.25
404.053	100.35
404.262	149.5
404.471	106.49
404.68	118.78
404.888	88.06
405.097	55.3
405.306	96.25
405.515	69.63
405.724	120.83
405.933	110.59
406.142	139.26
406.35	114.69
406.559	141.31
406.768	135.17
406.977	182.27
407.185	34.82
407.394	122.88
407.603	104.45
407.812	124.93
408.02	184.32
408.229	208.89
408.438	98.3
408.646	143.36
408.855	235.52
409.064	212.99
409.272	225.28
409.481	221.18
409.69	124.93
409.898	274.43
410.107	137.21
410.315	198.65
410.524	188.41
410.733	180.22
410.941	217.08
411.15	198.65
411.358	337.91
411.567	299
411.775	276.48
411.984	260.09
412.192	249.85
412.401	303.1
412.609	391.16
412.818	362.49
413.026	393.21
413.234	391.16
413.443	407.55
413.651	382.97
413.86	356.35
414.068	421.88
414.276	450.55
414.485	368.63
414.693	354.3
414.901	518.14
415.11	462.84
415.318	458.75
415.526	491.51
415.734	479.22
415.943	577.53
416.151	573.43
416.359	571.38
416.567	552.95
416.776	653.3
416.984	643.06
417.192	602.1
417.4	641.01
417.608	665.59
417.817	581.62
418.025	692.21
418.233	698.36
418.441	739.32
418.649	802.8
418.857	833.52
419.065	942.07
419.273	757.75
419.481	794.61
419.689	927.73
419.897	1001.46
420.105	985.07
420.313	995.31
420.521	1081.33
420.729	1030.13
420.937	1066.99
421.145	1196.01
421.353	1202.16
421.561	1232.88
421.769	1220.59
421.977	1292.27
422.185	1327.08
422.393	1355.76
422.601	1517.54
422.809	1542.12
423.017	1462.25
423.224	1597.42
423.432	1675.24
423.64	1687.53
423.848	1677.29
424.056	1640.42
424.263	1839.08
424.471	1712.1
424.679	1914.85
424.887	2000.87
425.094	2052.06
425.302	1986.53
425.51	2146.27
425.718	2152.42
425.925	2263.01
426.133	2346.97
426.341	2285.53
426.548	2516.95
426.756	2521.05
426.964	2498.52
427.171	2627.54
427.379	2781.14
427.586	2809.81
427.794	2895.83
428.001	2916.31
428.209	3223.5
428.417	3006.42
428.624	3338.19
428.832	3360.72
429.039	3176.4
429.247	3289.04
429.454	3641.29
429.662	3899.33
429.869	3715.02
430.076	3852.23
430.284	3872.71
430.491	3889.09
430.699	4186.05
430.906	4124.61
431.114	4270.01
431.321	4345.79
431.528	4526.01
431.736	4732.86
431.943	4863.93
432.15	4763.58
432.358	4925.36
432.565	5148.59
432.772	5066.67
432.979	5306.29
433.187	5537.71
433.394	5535.66
433.601	5873.57
433.808	5799.85
434.016	5928.87
434.223	6025.12
434.43	6559.64
434.637	6373.28
434.844	6569.88
435.052	6817.69
435.259	6657.95
435.466	6956.95
435.673	6803.35
435.88	7204.75
436.087	7743.37
436.294	7841.67
436.501	7473.04
436.708	7675.79
436.915	7919.5
437.122	8238.98
437.329	8130.44
437.537	8386.43
437.743	8550.27
437.95	8439.68
438.157	8951.67
438.364	9389.94
438.571	9135.99
438.778	9297.78
438.985	10162.02
439.192	9850.73
439.399	10159.97
439.606	9723.76
439.813	10465.12
440.02	10913.63
440.227	10909.53
440.433	10633.05
440.64	11237.2
440.847	10956.63
441.054	11052.89
441.261	12105.54
441.467	11910.99
441.674	12253
441.881	12484.42
442.088	12838.72
442.294	12437.31
442.501	12773.18
442.708	13102.9
442.914	13633.33
443.121	14034.73
443.328	13756.21
443.534	14772
443.741	14395.17
443.948	14307.11
444.154	15378.2
444.361	15218.46
444.568	15163.16
444.774	15222.55
444.981	15427.35
445.187	16127.75
445.394	16701.19
445.6	16582.4
445.807	17653.49
446.013	17329.91
446.22	17202.94
446.426	18138.86
446.633	18319.08
446.839	18800.35
447.046	18011.89
447.252	19068.64
447.459	19298.01
447.665	19191.52
447.871	19885.78
448.078	20885.19
448.284	19898.06
448.491	20170.44
448.697	20874.95
448.903	21331.64
449.11	21767.86
449.316	20989.63
449.522	21614.26
449.728	22122.16
449.935	22300.33
450.141	22288.04
450.347	22703.78
450.553	22036.14
450.76	22435.5
450.966	23082.66
451.172	22757.03
451.378	23234.21
451.584	22881.95
451.791	23506.59
451.997	23389.85
452.203	23651.99
452.409	23408.28
452.615	23690.9
452.821	22533.8
453.027	22630.05
453.233	23695
453.44	22494.89
453.646	23125.66
453.852	22867.62
454.058	23408.28
454.264	22761.12
454.47	23092.9
454.676	22384.3
454.882	23154.33
455.088	21313.21
455.294	21651.13
455.5	21790.39
455.705	22220.46
455.911	21194.43
456.117	20991.68
456.323	20391.62
456.529	19439.32
456.735	20250.31
456.941	19683.03
457.147	19502.81
457.352	18857.7
457.558	18415.33
457.764	18554.6
457.97	18355.94
458.176	17802.99
458.381	17903.34
458.587	17114.87
458.793	17024.76
458.999	16025.36
459.204	17202.94
459.41	16803.58
459.616	15722.26
459.821	15517.46
460.027	15456.02
460.233	15492.88
460.438	14642.98
460.644	14915.36
460.85	14135.08
461.055	13682.48
461.261	13696.81
461.466	12844.86
461.672	12465.99
461.878	13414.2
462.083	12490.56
462.289	12042.06
462.494	12302.15
462.7	11704.14
462.905	11345.75
463.111	11835.21
463.316	11726.67
463.522	11603.79
463.727	11392.85
463.932	11548.5
464.138	11386.71
464.343	11421.52
464.549	11151.19
464.754	11476.82
464.959	11319.12
465.165	11061.08
465.37	10895.19
465.575	10499.94
465.781	11020.12
465.986	10905.43
466.191	10727.26
466.397	10268.52
466.602	10012.52
466.807	10354.53
467.012	10264.42
467.218	10315.62
467.423	10315.62
467.628	10243.94
467.833	10749.79
468.038	10241.89
468.244	10076.01
468.449	10501.98
468.654	10256.23
468.859	10155.88
469.064	9989.99
469.269	9846.63
469.474	9549.68
469.679	9803.63
469.885	9637.74
470.09	9494.38
470.295	9555.82
470.5	9375.6
470.705	9361.27
470.91	9119.6
471.115	9035.64
471.32	9211.76
471.525	9445.23
471.73	9090.93
471.935	9125.75
472.139	8738.68
472.344	8871.8
472.549	8554.37
472.754	8550.27
472.959	8482.69
473.164	8257.41
473.369	8155.01
473.574	8417.15
473.778	8359.81
473.983	8337.28
474.188	8138.63
474.393	7714.7
474.598	7909.26
474.802	7892.87
475.007	7888.78
475.212	7776.14
475.417	7466.89
475.621	7485.33
475.826	7735.18
476.031	7350.16
476.235	7258
476.44	7247.76
476.645	7180.18
476.849	7165.84
477.054	7274.39
477.259	7081.88
477.463	6930.33
477.668	6848.41
477.872	6864.79
478.077	6918.04
478.282	6643.61
478.486	6657.95
478.691	6664.09
478.895	6709.15
479.1	6487.97
479.304	6602.65
479.509	6500.25
479.713	6395.81
479.918	6389.66
480.122	6449.05
480.326	6428.57
480.531	6518.68
480.735	6399.9
480.94	6092.71
481.144	6453.15
481.348	5902.25
481.553	6166.43
481.757	6256.54
481.961	6201.25
482.166	6356.89
482.37	6223.78
482.574	6043.56
482.778	6023.08
482.983	6139.81
483.187	6242.21
483.391	6217.63
483.595	6135.71
483.8	6059.94
484.004	6066.08
484.208	6043.56
484.412	6123.43
484.616	6219.68
484.821	6289.31
485.025	6018.98
485.229	6207.39
485.433	6031.27
485.637	6158.24
485.841	6137.76
486.045	6111.14
486.249	6164.39
486.453	6148
486.657	6188.96
486.861	6225.82
487.065	6094.76
487.269	6141.86
487.473	6145.95
487.677	6160.29
487.881	6406.05
488.085	6104.99
488.289	6133.67
488.493	6021.03
488.697	6086.56
488.901	6254.5
489.105	6377.37
489.309	6242.21
489.512	6135.71
489.716	6307.74
489.92	6231.97
490.124	6215.59
490.328	6309.79
490.531	6252.45
490.735	6418.33
490.939	6274.98
491.143	6494.11
491.346	6365.09
491.55	6528.92
491.754	6356.89
491.958	6522.78
492.161	6473.63
492.365	6604.7
492.569	6545.31
492.772	6606.75
492.976	6668.19
493.18	6696.86
493.383	6725.53
493.587	6793.11
493.79	6922.13
493.994	6711.19
494.197	6897.56
494.401	6963.09
494.605	7190.42
494.808	7051.16
495.012	7122.84
495.215	7071.64
495.419	7186.32
495.622	7268.24
495.825	7286.67
496.029	7198.61
496.232	7559.05
496.436	7608.2
496.639	7532.43
496.843	7759.75
497.046	7731.08
497.249	7890.82
497.453	8095.62
497.656	8089.48
497.859	7952.26
498.063	8173.44
498.266	8380.29
498.469	8288.13
498.673	8464.25
498.876	8621.95
499.079	8611.71
499.282	8710.01
499.485	8931.19
499.689	8843.13
499.892	9029.49
500.095	9070.45
500.298	9445.23
500.501	9203.57
500.705	9469.81
500.908	9795.43
501.111	9662.32
501.314	9992.04
501.517	9895.78
501.72	10088.29
501.923	10176.36
502.126	10377.06
502.329	10649.44
502.532	10680.16
502.735	10819.42
502.938	10917.72
503.141	10858.33
503.344	11206.49
503.547	10940.25
503.75	11288.4
503.953	11685.71
504.156	11583.31
504.359	11767.63
504.562	11943.75
504.765	12320.58
504.968	12420.93
505.17	12597.06
505.373	12521.28
505.576	12840.76
505.779	13033.27
505.982	13049.66
506.185	13348.66
506.387	13348.66
506.59	13440.82
506.793	13948.72
506.996	13707.05
507.198	14356.26
507.401	14219.05
507.604	14350.12
507.807	14864.16
508.009	14860.06
508.212	14982.94
508.415	15228.7
508.617	15384.34
508.82	15525.65
509.022	15650.58
509.225	16092.94
509.428	16228.1
509.63	16439.05
509.833	16297.74
510.035	16783.1
510.238	16736
510.44	16992
510.643	17192.7
510.845	17684.21
511.048	17403.64
511.25	17721.07
511.453	17952.49
511.655	18761.44
511.858	18337.51
512.06	18841.31
512.262	18898.66
512.465	19236.57
512.667	19384.02
512.87	19597.01
513.072	19742.42
513.274	20119.24
513.477	20369.1
513.679	20801.22
513.881	20813.51
514.084	21276.35
514.286	21264.06
514.488	21589.69
514.69	21976.75
514.893	21864.11
515.095	22081.2
515.297	22703.78
515.499	22752.93
515.701	22986.4
515.904	23316.12
516.106	23535.26
516.308	23676.57
516.51	23985.81
516.712	24352.4
516.914	24448.65
517.116	25032.32
517.318	24987.27
517.52	25357.95
517.722	25493.11
517.925	25712.25
518.127	26080.88
518.329	26502.76
518.531	26424.94
518.733	27356.77
518.935	26975.84
519.136	27524.7
519.338	27387.49
519.54	27956.82
519.742	28237.39
519.944	28472.91
520.146	28843.59
520.348	29087.3
520.55	29228.61
520.752	29273.67
520.954	29953.59
521.155	29754.94
521.357	30264.88
521.559	30866.98
521.761	30727.72
521.963	31071.78
522.164	31512.1
522.366	31528.48
522.568	31952.41
522.77	31989.27
522.971	32538.13
523.173	32321.04
523.375	32706.06
523.576	32609.81
523.778	33084.94
523.98	33551.87
524.181	33265.16
524.383	33734.14
524.584	33938.94
524.786	34252.28
524.988	34147.83
525.189	34551.28
525.391	34489.84
525.592	35225.06
525.794	35249.64
525.995	35462.63
526.197	35659.23
526.398	35612.13
526.6	36173.27
526.801	35864.03
527.003	36173.27
527.204	36158.94
527.406	36867.53
527.607	36812.24
527.808	37121.48
528.01	36593.11
528.211	37017.04
528.412	37799.36
528.614	37219.78
528.815	37545.41
529.016	38018.49
529.218	37367.24
529.419	37703.1
529.62	37434.82
529.822	37928.38
530.023	37383.62
530.224	37828.03
530.425	38022.59
530.626	37541.32
530.828	38141.37
531.029	38467
531.23	38090.17
531.431	38370.74
531.632	38221.24
531.833	39022
532.035	38489.52
532.236	38886.83
532.437	39087.53
532.638	38653.36
532.839	38536.63
533.04	39177.64
533.241	38571.44
533.442	39239.08
533.643	38874.54
533.844	38870.45
534.045	39261.61
534.246	38794.67
534.447	39161.26
534.648	38616.5
534.849	39337.38
535.05	38956.46
535.251	39351.72
535.451	38933.93
535.652	39419.3
535.853	39079.34
536.054	39191.98
536.255	39497.13
536.456	38897.07
536.657	39667.11
536.857	39296.42
537.058	39187.88
537.259	40019.36
537.46	39306.66
537.66	39447.97
537.861	39556.52
538.062	39140.78
538.263	39435.69
538.463	39224.75
538.664	39407.01
538.865	39189.93
539.065	39525.8
539.266	39062.96
539.466	39411.11
539.667	39026.09
539.868	40082.84
540.068	39232.94
540.269	39185.83
540.469	39542.18
540.67	39548.32
540.87	39409.06
541.071	39681.44
541.271	39493.03
541.472	39583.14
541.672	39423.4
541.873	39507.37
542.073	39230.89
542.274	39779.74
542.474	39978.4
542.675	39144.87
542.875	39636.39
543.075	39421.35
543.276	38858.16
543.476	39851.42
543.676	39169.45
543.877	39830.94
544.077	39622.05
544.277	39425.45
544.478	39263.66
544.678	39697.83
544.878	39767.46
545.078	39613.86
545.279	39525.8
545.479	39243.18
545.679	39599.52
545.879	39546.28
546.079	39497.13
546.28	39372.2
546.48	38890.93
546.68	39957.92
546.88	39402.92
547.08	39570.85
547.28	39460.26
547.48	39652.77
547.68	39265.7
547.88	39501.22
548.081	39626.15
548.281	39566.76
548.481	39144.87
548.681	39392.68
548.881	39533.99
549.081	39398.82
549.28	39259.56
549.48	39738.79
549.68	39665.06
549.88	40099.23
550.08	39044.52
550.28	39607.72
550.48	39458.21
550.68	39540.13
550.88	39040.43
551.08	39767.46
551.279	39560.61
551.479	39187.88
551.679	39538.08
551.879	39288.23
552.079	39458.21
552.278	39366.06
552.478	39077.29
552.678	39335.34
552.878	39763.36
553.077	39009.71
553.277	38919.6
553.477	39765.41
553.676	39060.91
553.876	39288.23
554.076	39208.36
554.275	39175.59
554.475	38473.14
554.674	39187.88
554.874	38962.61
555.074	39062.96
555.273	38858.16
555.473	39290.28
555.672	38901.17
555.872	38993.32
556.071	38899.12
556.271	38884.78
556.47	38745.52
556.67	38563.25
556.869	38845.87
557.068	38772.14
557.268	38510
557.467	38546.87
557.667	38766
557.866	38663.6
558.065	38337.97
558.265	38333.88
558.464	38196.67
558.663	38581.68
558.863	37866.94
559.062	38792.62
559.261	38196.67
559.461	38854.06
559.66	37924.29
559.859	38043.07
560.058	37750.21
560.258	37975.48
560.457	37928.38
560.656	38006.2
560.855	38036.92
561.054	37950.91
561.253	37328.33
561.453	37975.48
561.652	38014.4
561.851	37830.08
562.05	37764.54
562.249	37606.85
562.448	37930.43
562.647	37647.81
562.846	37287.37
563.045	37682.62
563.244	37369.29
563.443	37526.98
563.642	36771.28
563.841	37131.72
564.04	36924.88
564.239	37590.47
564.438	36814.29
564.637	37006.8
564.836	37012.94
565.035	36734.42
565.234	36777.42
565.432	36613.59
565.631	36533.71
565.83	37066.19
566.029	36750.8
566.228	36316.63
566.427	36412.88
566.625	36322.77
566.824	35896.8
567.023	36728.27
567.222	35939.8
567.42	35962.33
567.619	35882.46
567.818	36115.93
568.016	36388.31
568.215	36490.71
568.414	35892.7
568.612	36396.5
568.811	35530.21
569.01	35677.66
569.208	35149.29
569.407	35608.03
569.605	34643.44
569.804	35565.03
570.002	34960.87
570.201	35218.92
570.4	34983.4
570.598	35153.38
570.797	34684.4
570.995	34653.68
571.193	34432.5
571.392	34958.83
571.59	34283
571.789	34299.38
571.987	34405.88
572.186	34297.33
572.384	34260.47
572.582	34217.46
572.781	34098.68
572.979	33728
573.177	34147.83
573.376	33633.79
573.574	33701.37
573.772	33709.57
573.971	33338.88
574.169	33074.7
574.367	33164.81
574.565	33584.64
574.763	33058.31
574.962	33281.54
575.16	32781.84
575.358	32794.12
575.556	32521.74
575.754	32847.37
575.952	32554.51
576.151	32810.51
576.349	32570.89
576.547	32400.91
576.745	32048.66
576.943	32409.11
577.141	31946.26
577.339	31884.83
577.537	31862.3
577.735	31841.82
577.933	31462.94
578.131	31548.96
578.329	31913.5
578.527	31303.2
578.725	31407.65
578.923	31653.4
579.121	31262.24
579.319	31110.69
579.516	31503.9
579.714	31317.54
579.912	31190.56
580.11	30963.24
580.308	30969.38
580.506	30729.77
580.704	30385.71
580.901	30463.54
581.099	30737.96
581.297	30076.47
581.495	30135.86
581.692	30256.69
581.89	30133.81
582.088	30262.83
582.285	30021.17
582.483	30121.52
582.681	30000.69
582.878	29670.97
583.076	29654.59
583.274	29367.87
583.471	29144.64
583.669	29683.26
583.866	29066.82
584.064	29517.37
584.262	29077.06
584.459	29220.42
584.657	28755.53
584.854	29187.65
585.052	28532.3
585.249	28882.5
585.447	28843.59
585.644	28325.46
585.841	28522.06
586.039	28427.85
586.236	28472.91
586.434	28227.15
586.631	28421.71
586.828	28044.88
587.026	28163.67
587.223	28098.13
587.42	28014.16
587.618	27881.05
587.815	27684.44
588.012	27817.56
588.21	27393.63
588.407	27778.65
588.604	27514.46
588.801	26973.8
588.999	27305.57
589.196	27506.27
589.393	27252.32
589.59	26902.12
589.787	27016.8
589.984	26484.33
590.182	26682.98
590.379	27123.3
590.576	26695.27
590.773	26709.61
590.97	26390.13
591.167	26433.13
591.364	26324.59
591.561	26146.42
591.758	26254.96
591.955	26039.92
592.152	26234.48
592.349	25810.55
592.546	25679.48
592.743	25968.24
592.94	25615.99
593.137	25409.15
593.334	26048.11
593.531	25210.5
593.727	25855.61
593.924	25704.06
594.121	25378.43
594.318	25405.05
594.515	25136.77
594.712	25132.67
594.908	25161.34
595.105	25202.3
595.302	24983.17
595.499	25224.83
595.696	24776.33
595.892	24544.91
596.089	24811.14
596.286	24979.07
596.482	24712.84
596.679	24770.18
596.876	24675.98
597.072	24505.99
597.269	24338.06
597.466	24358.54
597.662	24438.41
597.859	23828.12
598.055	24170.13
598.252	23797.4
598.448	23998.1
598.645	23721.62
598.841	23768.73
599.038	23979.67
599.234	23735.96
599.431	23363.23
599.627	23551.64
599.824	23543.45
600.02	22980.26
600.217	23723.67
600.413	23230.11
600.609	23256.73
600.806	22949.54
601.002	22988.45
601.198	22904.48
601.395	22335.15
601.591	22701.73
601.787	22918.82
601.984	22427.31
602.18	22820.52
602.376	22603.43
602.572	22294.19
602.769	22480.55
602.965	22329
603.161	22445.74
603.357	22161.07
603.553	22345.39
603.75	22230.7
603.946	22025.9
604.142	21989.04
604.338	21753.52
604.534	21810.87
604.73	21544.63
604.926	21456.57
605.122	21868.21
605.318	21659.32
605.514	21391.03
605.71	21192.38
605.906	21378.75
606.102	21638.84
606.298	21378.75
606.494	20848.32
606.69	20940.48
606.886	20754.12
607.082	20496.07
607.278	21003.97
607.474	20600.52
607.67	20852.42
607.866	20432.58
608.062	20582.09
608.257	20444.87
608.453	20676.29
608.649	20653.76
608.845	20215.5
609.041	20637.38
609.236	20428.49
609.432	20192.97
609.628	20012.75
609.824	20242.12
610.019	19902.16
610.215	20166.35
610.411	19865.3
610.606	19683.03
610.802	20229.84
610.998	19853.01
611.193	19816.15
611.389	19699.41
611.584	19384.02
611.78	19617.49
611.976	19535.57
612.171	19136.22
612.367	19445.46
612.562	19451.61
612.758	19048.16
612.953	19207.9
613.149	19326.68
613.344	18865.89
613.539	19238.62
613.735	19029.73
613.93	18992.86
614.126	18960.09
614.321	18943.71
614.517	18835.17
614.712	18976.48
614.907	18826.98
615.103	18478.82
615.298	18714.34
615.493	18937.57
615.688	18468.58
615.884	19080.92
616.079	18271.98
616.274	18487.01
616.47	18065.13
616.665	18208.49
616.86	18167.53
617.055	18147.05
617.25	18452.2
617.445	18171.63
617.641	18120.43
617.836	18128.62
618.031	17651.44
618.226	17946.35
618.421	17764.08
618.616	17671.92
618.811	17454.84
619.006	17835.76
619.201	17106.68
619.396	17542.9
619.591	17243.9
619.786	17573.62
619.981	17207.03
620.176	17250.04
620.371	17393.4
620.566	17045.24
620.761	16948.99
620.956	16959.23
621.151	16627.46
621.346	17035
621.541	16590.59
621.735	16803.58
621.93	16408.33
622.125	16404.23
622.32	16207.62
622.515	16656.13
622.709	16123.66
622.904	16217.86
623.099	16031.5
623.294	16131.85
623.488	15720.21
623.683	16041.74
623.878	15515.41
624.072	15529.75
624.267	15738.64
624.462	15306.52
624.656	15484.69
624.851	15013.66
625.046	15060.76
625.24	15101.72
625.435	14882.59
625.629	14782.24
625.824	14962.46
626.018	14632.74
626.213	14520.1
626.407	14704.42
626.602	14130.98
626.796	14411.56
626.991	14419.75
627.185	14434.08
627.38	14139.18
627.574	13932.33
627.768	14206.76
627.963	13991.72
628.157	13823.79
628.352	14059.31
628.546	13874.99
628.74	13952.81
628.935	13428.53
629.129	13700.91
629.323	13397.81
629.517	13545.27
629.712	13655.86
629.906	13416.24
630.1	12928.83
630.294	13217.59
630.489	13121.34
630.683	13066.04
630.877	12945.21
631.071	12586.82
631.265	13039.42
631.459	12570.43
631.653	12556.1
631.848	12566.34
632.042	12588.86
632.236	12646.21
632.43	12316.48
632.624	12310.34
632.818	12334.92
633.012	12255.05
633.206	12265.28
633.4	12275.52
633.594	12107.59
633.788	12160.84
633.982	12126.02
634.176	12048.2
634.369	11683.66
634.563	11753.29
634.757	11784.01
634.951	11759.44
635.145	11644.75
635.339	11722.57
635.533	11495.25
635.726	11396.95
635.92	11323.22
636.114	11300.69
636.308	11075.41
636.501	11247.44
636.695	11112.28
636.889	11056.98
637.083	10977.11
637.276	10860.38
637.47	11007.83
637.664	10843.99
637.857	10676.06
638.051	10803.04
638.244	10725.21
638.438	10659.68
638.632	10395.49
638.825	10524.51
639.019	10577.76
639.212	10391.39
639.406	10176.36
639.599	10229.6
639.793	10245.99
639.986	9809.77
640.18	10106.73
640.373	10133.35
640.567	9891.69
640.76	9979.75
640.954	9842.54
641.147	9647.98
641.34	9650.03
641.534	9719.66
641.727	9498.48
641.92	9787.24
642.114	9557.87
642.307	9367.41
642.5	9572.21
642.694	9361.27
642.887	9275.25
643.08	9332.59
643.273	9174.9
643.467	9164.66
643.66	9062.26
643.853	9299.83
644.046	8953.72
644.239	9205.62
644.432	8912.76
644.626	8882.04
644.819	8851.32
645.012	8658.81
645.205	8777.59
645.398	8693.63
645.591	8683.39
645.784	8748.92
645.977	8343.42
646.17	8454.01
646.363	8421.25
646.556	8142.72
646.749	8337.28
646.942	8281.99
647.135	8220.55
647.328	8134.53
647.521	8302.47
647.714	7911.3
647.907	8058.76
648.099	8077.19
648.292	7956.36
648.485	7956.36
648.678	7798.66
648.871	7890.82
649.064	7602.06
649.256	7866.25
649.449	7542.67
649.642	7589.77
649.835	7450.51
650.027	7573.39
650.22	7401.36
650.413	7540.62
650.605	7417.74
650.798	7311.25
650.991	7212.95
651.183	7294.86
651.376	7276.43
651.568	7178.13
651.761	7184.27
651.954	7131.03
652.146	7202.71
652.339	6991.77
652.531	6805.4
652.724	7067.54
652.916	6762.39
653.109	7012.25
653.301	6807.45
653.494	6711.19
653.686	6698.91
653.879	6743.96
654.071	6643.61
654.263	6506.4
654.456	6664.09
654.648	6514.59
654.84	6553.5
655.033	6340.51
655.225	6393.76
655.417	6401.95
655.61	6381.47
655.802	6270.88
655.994	6162.34
656.186	6207.39
656.379	6307.74
656.571	6143.91
656.763	5984.16
656.955	5959.59
657.148	5904.29
657.34	5943.21
657.532	5953.45
657.724	5787.56
657.916	5844.9
658.108	5746.6
658.3	5664.68
658.492	5781.42
658.684	5713.83
658.876	5605.29
659.068	5545.9
659.26	5621.67
659.452	5541.8
659.644	5463.98
659.836	5365.68
660.028	5390.25
660.22	5201.84
660.412	5263.28
660.604	5124.02
660.796	5148.59
660.988	5095.35
661.18	5191.6
661.372	5205.94
661.563	5269.42
661.755	4978.61
661.947	5017.52
662.139	5035.96
662.331	4851.64
662.522	4835.25
662.714	4804.53
662.906	4896.69
663.097	4968.37
663.289	4652.98
663.481	4734.9
663.673	4657.08
663.864	4624.31
664.056	4669.37
664.247	4835.25
664.439	4614.07
664.631	4542.39
664.822	4657.08
665.014	4573.11
665.205	4712.38
665.397	4470.72
665.588	4540.35
665.78	4491.2
665.971	4415.42
666.163	4476.86
666.354	4417.47
666.546	4337.6
666.737	4331.45
666.929	4413.37
667.12	4241.34
667.311	4208.58
667.503	4313.02
667.694	4290.49
667.885	4218.82
668.077	4016.07
668.268	4089.79
668.459	4028.35
668.651	4097.99
668.842	4046.79
669.033	4087.75
669.224	4122.56
669.416	3977.16
669.607	4054.98
669.798	3940.29
669.989	3887.04
670.18	3925.96
670.371	3958.72
670.563	3844.04
670.754	3977.16
670.945	3837.89
671.136	3794.89
671.327	3749.83
671.518	3710.92
671.709	3856.33
671.9	3823.56
672.091	3717.06
672.282	3733.45
672.473	3751.88
672.664	3678.15
672.855	3643.34
673.046	3688.39
673.237	3778.5
673.428	3618.76
673.619	3614.66
673.809	3528.65
674	3485.64
674.191	3485.64
674.382	3629
674.573	3323.85
674.764	3581.9
674.954	3508.17
675.145	3487.69
675.336	3442.64
675.527	3495.88
675.717	3495.88
675.908	3506.12
676.099	3471.31
676.289	3434.44
676.48	3256.27
676.671	3379.15
676.861	3319.76
677.052	3344.33
677.243	3219.41
677.433	3309.52
677.624	3360.72
677.814	3397.58
678.005	3254.22
678.195	3266.51
678.386	3221.45
678.576	3254.22
678.767	3243.98
678.957	3229.65
679.148	3272.65
679.338	3356.62
679.529	3254.22
679.719	3235.79
679.909	3243.98
680.1	3200.98
680.29	3219.41
680.481	3188.69
680.671	3225.55
680.861	3182.54
681.052	3139.54
681.242	3168.21
681.432	3055.57
681.622	3098.58
681.813	3135.44
682.003	3133.39
682.193	3094.48
682.383	3200.98
682.573	3229.65
682.764	3102.67
682.954	3082.19
683.144	3006.42
683.334	3010.51
683.524	3078.1
683.714	3108.82
683.904	3012.56
684.094	3112.91
684.284	2908.12
684.474	3155.92
684.664	3035.09
684.854	2947.03
685.044	2963.41
685.234	2963.41
685.424	3078.1
685.614	2990.03
685.804	2987.99
685.994	2918.36
686.184	3012.56
686.374	2953.17
686.564	2873.3
686.753	2983.89
686.943	2971.6
687.133	2865.11
687.323	2893.78
687.513	2971.6
687.702	2850.77
687.892	2803.67
688.082	2936.79
688.272	2897.88
688.461	2889.68
688.651	2906.07
688.841	2916.31
689.03	2789.33
689.22	2844.63
689.41	2965.46
689.599	2791.38
689.789	2996.18
689.979	2836.44
690.168	2820.05
690.358	2813.91
690.547	2826.2
690.737	2770.9
690.926	2766.81
691.116	2795.48
691.305	2832.34
691.495	2777.05
691.684	2828.24
691.874	2967.51
692.063	2840.53
692.252	2875.35
692.442	2803.67
692.631	2826.2
692.82	2934.74
693.01	2729.94
693.199	2777.05
693.388	2789.33
693.578	2729.94
693.767	2787.29
693.956	2682.84
694.146	2910.16
694.335	2736.09
694.524	2889.68
694.713	2682.84
694.902	2734.04
695.092	2875.35
695.281	2877.4
695.47	2738.13
695.659	2738.13
695.848	2770.9
696.037	2908.12
696.226	2750.42
696.415	2725.85
696.604	2807.77
696.793	2807.77
696.982	2705.37
697.171	2770.9
697.36	2867.16
697.549	2764.76
697.738	2678.74
697.927	2660.31
698.116	2746.33
698.305	2701.27
698.494	2762.71
698.683	2670.55
698.872	2746.33
699.061	2637.78
699.25	2775
699.438	2766.81
699.627	2713.56
699.816	2633.69
700.005	2754.52
700.193	2607.06
700.382	2740.18
700.571	2717.65
700.76	2717.65
700.948	2619.35
701.137	2772.95
701.326	2783.19
701.514	2664.41
701.703	2619.35
701.892	2643.93
702.08	2789.33
702.269	2623.45
702.457	2609.11
702.646	2654.17
702.834	2598.87
703.023	2654.17
703.212	2580.44
703.4	2623.45
703.589	2541.53
703.777	2629.59
703.965	2543.58
704.154	2656.22
704.342	2525.15
704.531	2668.5
704.719	2484.19
704.907	2420.7
705.096	2527.19
705.284	2521.05
705.472	2478.04
705.661	2533.34
705.849	2633.69
706.037	2512.86
706.226	2539.48
706.414	2439.13
706.602	2451.42
706.79	2514.91
706.979	2473.95
707.167	2265.05
707.355	2396.12
707.543	2371.55
707.731	2375.64
707.919	2379.74
708.107	2269.15
708.296	2346.97
708.484	2394.08
708.672	2367.45
708.86	2353.12
709.048	2355.16
709.236	2365.4
709.424	2379.74
709.612	2418.65
709.8	2357.21
709.988	2334.68
710.176	2334.68
710.364	2240.48
710.551	2353.12
710.739	2312.16
710.927	2179.04
711.115	2299.87
711.303	2242.53
711.491	2287.58
711.679	2220
711.866	2205.66
712.054	2263.01
712.242	2181.09
712.43	2246.62
712.617	2172.89
712.805	2172.89
712.993	2252.77
713.181	2144.22
713.368	2181.09
713.556	2093.02
713.744	2090.98
713.931	2127.84
714.119	2119.65
714.306	2111.46
714.494	2119.65
714.682	2076.64
714.869	1988.58
715.057	2011.11
715.244	1996.77
715.432	2121.7
715.619	2037.73
715.807	2146.27
715.994	1933.28
716.182	1972.19
716.369	2058.21
716.556	1990.63
716.744	1996.77
716.931	2015.2
717.119	2037.73
717.306	1994.72
717.493	1990.63
717.681	1920.99
717.868	1898.47
718.055	1888.23
718.242	1933.28
718.43	1935.33
718.617	1863.65
718.804	2013.15
718.991	1820.64
719.179	1964
719.366	1757.16
719.553	1890.28
719.74	1837.03
719.927	1761.25
720.114	1720.29
720.301	1794.02
720.488	1791.97
720.676	1789.92
720.863	1736.68
721.05	1830.88
721.237	1722.34
721.424	1712.1
721.611	1685.48
721.798	1658.85
721.985	1789.92
722.172	1697.77
722.358	1708.01
722.545	1722.34
722.732	1753.06
722.919	1738.73
723.106	1703.91
723.293	1785.83
723.48	1667.05
723.667	1595.37
723.853	1693.67
724.04	1662.95
724.227	1701.86
724.414	1656.81
724.6	1650.66
724.787	1511.4
724.974	1697.77
725.161	1613.8
725.347	1552.36
725.534	1646.57
725.72	1570.79
725.907	1470.44
726.094	1548.26
726.28	1492.97
726.467	1482.73
726.653	1564.65
726.84	1505.26
727.027	1562.6
727.213	1495.02
727.4	1499.11
727.586	1535.98
727.773	1488.87
727.959	1566.7
728.145	1472.49
728.332	1437.67
728.518	1544.17
728.705	1497.07
728.891	1505.26
729.077	1595.37
729.264	1484.78
729.45	1495.02
729.636	1452.01
729.823	1482.73
730.009	1456.11
730.195	1439.72
730.382	1452.01
730.568	1499.11
730.754	1509.35
730.94	1433.58
731.126	1517.54
731.313	1454.06
731.499	1593.32
731.685	1398.76
731.871	1318.89
732.057	1437.67
732.243	1415.15
732.429	1310.7
732.615	1347.56
732.801	1316.84
732.987	1378.28
733.173	1347.56
733.359	1394.67
733.545	1351.66
733.731	1247.21
733.917	1351.66
734.103	1320.94
734.289	1322.99
734.475	1271.79
734.661	1288.17
734.847	1296.36
735.033	1396.71
735.219	1327.08
735.404	1284.08
735.59	1269.74
735.776	1335.28
735.962	1318.89
736.148	1226.73
736.333	1282.03
736.519	1183.73
736.705	1308.65
736.89	1226.73
737.076	1300.46
737.262	1296.36
737.447	1267.69
737.633	1247.21
737.819	1302.51
738.004	1216.49
738.19	1155.05
738.375	1204.21
738.561	1183.73
738.747	1173.49
738.932	1265.64
739.118	1126.38
739.303	1095.66
739.489	1163.25
739.674	1234.93
739.859	1222.64
740.045	1214.45
740.23	1181.68
740.416	1222.64
740.601	1138.67
740.786	1114.1
740.972	1122.29
741.157	1034.22
741.342	1142.77
741.528	1048.56
741.713	1097.71
741.898	1073.14
742.084	1097.71
742.269	1159.15
742.454	1126.38
742.639	1069.04
742.824	1054.7
743.01	1034.22
743.195	1110
743.38	1013.74
743.565	1122.29
743.75	1032.18
743.935	995.31
744.12	1019.89
744.305	1081.33
744.49	1042.42
744.675	999.41
744.86	1032.18
745.045	974.83
745.23	972.79
745.415	1077.23
745.6	1030.13
745.785	1028.08
745.97	956.4
746.155	966.64
746.34	997.36
746.525	937.97
746.71	970.74
746.895	915.44
747.079	866.29
747.264	921.59
747.449	921.59
747.634	983.02
747.819	858.1
748.003	1011.7
748.188	868.34
748.373	897.01
748.557	972.79
748.742	923.63
748.927	952.31
749.111	843.76
749.296	935.92
749.481	862.19
749.665	767.99
749.85	886.77
750.034	819.19
750.219	761.84
750.404	817.14
750.588	741.36
750.773	813.04
750.957	888.82
751.141	874.48
751.326	833.52
751.51	862.19
751.695	866.29
751.879	755.7
752.064	843.76
752.248	808.95
752.432	880.63
752.617	724.98
752.801	770.04
752.985	759.8
753.17	722.93
753.354	710.65
753.538	739.32
753.722	706.55
753.907	655.35
754.091	712.69
754.275	733.17
754.459	731.12
754.643	679.93
754.828	772.08
755.012	667.64
755.196	655.35
755.38	671.73
755.564	651.25
755.748	710.65
755.932	641.01
756.116	749.56
756.3	548.86
756.484	714.74
756.668	704.5
756.852	722.93
757.036	587.77
757.22	638.97
757.404	608.25
757.588	632.82
757.772	620.53
757.956	661.49
758.14	616.44
758.323	630.77
758.507	610.29
758.691	614.39
758.875	604.15
759.059	657.4
759.242	657.4
759.426	612.34
759.61	585.72
759.794	614.39
759.977	550.9
760.161	636.92
760.345	532.47
760.528	632.82
760.712	593.91
760.895	638.97
761.079	577.53
761.263	540.66
761.446	456.7
761.63	579.58
761.813	600.05
761.997	565.24
762.18	606.2
762.364	526.33
762.547	557.05
762.731	587.77
762.914	464.89
763.098	477.18
763.281	516.09
763.464	612.34
763.648	620.53
763.831	583.67
764.015	567.29
764.198	538.62
764.381	604.15
764.564	444.41
764.748	491.51
764.931	583.67
765.114	497.66
765.297	540.66
765.481	641.01
765.664	528.38
765.847	495.61
766.03	546.81
766.213	540.66
766.397	563.19
766.58	522.23
766.763	516.09
766.946	571.38
767.129	526.33
767.312	548.86
767.495	471.03
767.678	466.94
767.861	593.91
768.044	471.03
768.227	473.08
768.41	473.08
768.593	505.85
768.776	444.41
768.959	575.48
769.142	468.98
769.324	514.04
769.507	546.81
769.69	514.04
769.873	516.09
770.056	479.22
770.239	487.42
770.421	514.04
770.604	450.55
770.787	548.86
770.97	491.51
771.152	415.74
771.335	430.07
771.518	442.36
771.7	485.37
771.883	425.98
772.066	448.51
772.248	428.03
772.431	532.47
772.613	448.51
772.796	403.45
772.978	428.03
773.161	448.51
773.343	454.65
773.526	395.26
773.708	409.59
773.891	399.35
774.073	442.36
774.256	462.84
774.438	434.17
774.621	423.93
774.803	409.59
774.985	438.27
775.168	323.58
775.35	382.97
775.532	401.4
775.715	329.72
775.897	436.22
776.079	417.79
776.261	446.46
776.444	446.46
776.626	452.6
776.808	454.65
776.99	460.79
777.173	407.55
777.355	423.93
777.537	393.21
777.719	477.18
777.901	405.5
778.083	423.93
778.265	315.39
778.447	362.49
778.629	319.48
778.811	376.83
778.993	405.5
779.175	370.68
779.357	389.11
779.539	389.11
779.721	370.68
779.903	407.55
780.085	391.16
780.267	350.2
780.449	311.29
780.631	309.24
780.812	315.39
780.994	346.11
781.176	290.81
781.358	315.39
781.54	337.91
781.721	288.76
781.903	303.1
782.085	337.91
782.267	251.9
782.448	303.1
782.63	346.11
782.812	282.62
782.993	229.37
783.175	247.8
783.357	311.29
783.538	303.1
783.72	282.62
783.901	301.05
784.083	313.34
784.264	309.24
784.446	280.57
784.627	231.42
784.809	280.57
784.99	337.91
785.172	253.95
785.353	309.24
785.535	286.72
785.716	335.87
785.897	231.42
786.079	303.1
786.26	325.63
786.441	288.76
786.623	280.57
786.804	245.76
786.985	231.42
787.167	264.19
787.348	233.47
787.529	319.48
787.71	235.52
787.891	231.42
788.073	237.56
788.254	190.46
788.435	288.76
788.616	337.91
788.797	258.04
788.978	210.94
789.159	184.32
789.34	165.89
789.522	151.55
789.703	176.13
789.884	223.23
790.065	284.67
790.246	280.57
790.427	194.56
790.607	237.56
790.788	268.28
790.969	233.47
791.15	231.42
791.331	219.13
791.512	221.18
791.693	256
791.874	190.46
792.054	256
792.235	153.6
792.416	178.17
792.597	163.84
792.778	241.66
792.958	225.28
793.139	180.22
793.32	169.98
793.5	167.93
793.681	188.41
793.862	212.99
794.042	235.52
794.223	147.45
794.404	151.55
794.584	133.12
794.765	110.59
794.945	65.54
795.126	212.99
795.306	143.36
795.487	147.45
795.667	174.08
795.848	215.04
796.028	112.64
796.209	141.31
796.389	180.22
796.57	184.32
796.75	186.37
796.93	165.89
797.111	172.03
797.291	276.48
797.471	161.79
797.652	182.27
797.832	163.84
798.012	161.79
798.192	180.22
798.373	151.55
798.553	145.41
798.733	196.61
798.913	192.51
799.093	149.5
799.274	245.76
799.454	137.21
799.634	165.89
799.814	112.64
799.994	206.84
800.174	176.13
800.354	194.56
800.534	139.26
800.714	180.22
800.894	104.45
801.074	110.59
801.254	208.89
801.434	200.7
801.614	227.32
801.794	167.93
801.974	329.72
802.154	176.13
802.334	153.6
802.514	206.84
802.693	159.74
802.873	129.02
803.053	182.27
803.233	43.01
803.413	157.69
803.592	133.12
803.772	133.12
803.952	69.63
804.131	169.98
804.311	157.69
804.491	167.93
804.67	200.7
804.85	145.41
805.03	108.54
805.209	81.92
805.389	139.26
805.568	20.48
805.748	141.31
805.928	88.06
806.107	110.59
806.287	163.84
806.466	40.96
806.646	116.73
806.825	178.17
807.004	174.08
807.184	112.64
807.363	145.41
807.543	51.2
807.722	167.93
807.901	79.87
808.081	112.64
808.26	139.26
808.439	124.93
808.619	143.36
808.798	118.78
808.977	77.82
809.156	114.69
809.336	108.54
809.515	155.65
809.694	151.55
809.873	149.5
810.052	104.45
810.231	86.01
810.411	161.79
810.59	106.49
810.769	133.12
810.948	77.82
811.127	92.16
811.306	137.21
811.485	94.21
811.664	96.25
811.843	106.49
812.022	81.92
812.201	63.49
812.38	96.25
812.559	77.82
812.737	116.73
812.916	102.4
813.095	79.87
813.274	116.73
813.453	106.49
813.632	155.65
813.811	118.78
813.989	71.68
814.168	147.45
814.347	100.35
814.526	102.4
814.704	51.2
814.883	108.54
815.062	43.01
815.24	92.16
815.419	63.49
815.598	98.3
815.776	77.82
815.955	133.12
816.133	26.62
816.312	104.45
816.49	67.58
816.669	141.31
816.847	6.14
817.026	86.01
817.204	90.11
817.383	65.54
817.561	102.4
817.74	100.35
817.918	77.82
818.097	61.44
818.275	67.58
818.453	129.02
818.632	137.21
818.81	161.79
818.988	59.39
819.167	73.73
819.345	153.6
819.523	94.21
819.701	81.92
819.879	65.54
820.058	73.73
820.236	129.02
820.414	51.2
820.592	118.78
820.77	126.97
820.948	94.21
821.127	100.35
821.305	129.02
821.483	55.3
821.661	59.39
821.839	114.69
822.017	53.25
822.195	86.01
822.373	59.39
822.551	61.44
822.729	108.54
822.907	118.78
823.085	59.39
823.262	108.54
823.44	45.06
823.618	0
823.796	116.73
823.974	86.01
824.152	92.16
824.329	104.45
824.507	135.17
824.685	-2.05
824.863	61.44
825.04	124.93
825.218	98.3
825.396	4.1
825.574	30.72
825.751	55.3
825.929	59.39
826.107	106.49
826.284	-4.1
826.462	118.78
826.639	61.44
826.817	40.96
826.994	137.21
827.172	65.54
827.349	38.91
827.527	36.86
827.704	61.44
827.882	139.26
828.059	63.49
828.237	57.34
828.414	102.4
828.591	69.63
828.769	63.49
828.946	88.06
829.124	129.02
829.301	28.67
829.478	83.97
829.655	163.84
829.833	75.77
830.01	-2.05
830.187	36.86
830.364	90.11
830.542	79.87
830.719	18.43
830.896	38.91
831.073	49.15
831.25	-8.19
831.427	118.78
831.604	32.77
831.782	38.91
831.959	98.3
832.136	92.16
832.313	-28.67
832.49	71.68
832.667	88.06
832.844	65.54
833.021	51.2
833.198	57.34
833.374	-22.53
833.551	67.58
833.728	-14.34
833.905	114.69
834.082	16.38
834.259	-12.29
834.436	141.31
834.612	10.24
834.789	83.97
834.966	8.19
835.143	28.67
835.319	83.97
835.496	18.43
835.673	22.53
835.85	75.77
836.026	53.25
836.203	92.16
836.38	43.01
836.556	59.39
836.733	18.43
836.909	38.91
837.086	120.83
837.262	53.25
837.439	79.87
837.616	67.58
837.792	40.96
837.968	75.77
838.145	30.72
838.321	71.68
838.498	-8.19
838.674	30.72
838.851	75.77
839.027	32.77
839.203	14.34
839.38	69.63
839.556	-16.38
839.732	22.53
839.909	18.43
840.085	55.3
840.261	20.48
840.437	24.58
840.614	-65.53
840.79	12.29
840.966	67.58
841.142	32.77
841.318	-34.82
841.494	22.53
841.671	57.34
841.847	73.73
842.023	-53.25
842.199	22.53
842.375	71.68
842.551	86.01
842.727	73.73
842.903	65.54
843.079	20.48
843.255	75.77
843.431	65.54
843.607	90.11
843.783	12.29
843.959	38.91
844.134	77.82
844.31	6.14
844.486	45.06
844.662	12.29
844.838	-18.43
845.013	32.77
845.189	43.01
845.365	73.73
845.541	47.1
845.716	-30.72
845.892	63.49
846.068	36.86
846.244	4.1
846.419	32.77
846.595	14.34
846.77	-20.48
846.946	-4.1
847.122	57.34
847.297	108.54
847.473	-18.43
847.648	-6.14
847.824	30.72
847.999	20.48
848.175	67.58
848.35	10.24
848.526	-14.34
848.701	2.05
848.876	38.91
849.052	-30.72
849.227	-4.1
849.403	12.29
849.578	20.48
849.753	38.91
849.929	75.77
850.104	6.14
850.279	67.58
850.454	16.38
850.63	20.48
850.805	104.45
850.98	67.58
851.155	-2.05
851.33	47.1
851.505	22.53
851.681	81.92
851.856	63.49
852.031	38.91
852.206	81.92
852.381	40.96
852.556	36.86
852.731	55.3
852.906	-16.38
853.081	32.77
853.256	34.82
853.431	63.49
853.606	65.54
853.781	57.34
853.956	26.62
854.131	38.91
854.305	16.38
854.48	34.82
854.655	53.25
854.83	57.34
855.005	100.35
855.18	57.34
855.354	-18.43
855.529	40.96
855.704	0
855.879	20.48
856.053	38.91
856.228	-12.29
856.403	32.77
856.577	30.72
856.752	-20.48
856.926	24.58
857.101	2.05
857.276	-63.49
857.45	2.05
857.625	114.69
857.799	43.01
857.974	22.53
858.148	-122.88
858.323	36.86
858.497	63.49
858.672	53.25
858.846	-14.34
859.02	4.1
859.195	-14.34
859.369	4.1
859.543	-4.1
859.718	-14.34
859.892	12.29
860.066	59.39
860.241	57.34
860.415	83.97
860.589	16.38
860.763	26.62
860.938	34.82
861.112	36.86
861.286	-43.01
861.46	16.38
861.634	-22.53
861.808	40.96
861.982	14.34
862.157	-10.24
862.331	4.1
862.505	26.62
862.679	-63.49
862.853	90.11
863.027	-14.34
863.201	53.25
863.375	18.43
863.549	22.53
863.722	14.34
863.896	69.63
864.07	38.91
864.244	34.82
864.418	47.1
864.592	90.11
864.766	83.97
864.939	22.53
865.113	-24.58
865.287	18.43
865.461	-4.1
865.634	83.97
865.808	57.34
865.982	79.87
866.156	69.63
866.329	14.34
866.503	-6.14
866.676	43.01
866.85	-14.34
867.024	6.14
867.197	26.62
867.371	24.58
867.544	-59.39
867.718	14.34
867.891	63.49
868.065	92.16
868.238	30.72
868.412	61.44
868.585	30.72
868.759	22.53
868.932	16.38
869.105	65.54
869.279	-55.3
869.452	-12.29
869.625	24.58
869.799	6.14
869.972	-24.58
870.145	26.62
870.319	59.39
870.492	-14.34
870.665	45.06
870.838	-4.1
871.011	43.01
871.185	30.72
871.358	-24.58
871.531	4.1
871.704	28.67
871.877	34.82
872.05	8.19
872.223	-8.19
872.396	-8.19
872.569	47.1
872.742	-34.82
872.915	20.48
873.088	20.48
873.261	-28.67
873.434	2.05
873.607	88.06
873.78	-12.29
873.953	36.86
874.126	-51.2
874.299	51.2
874.471	10.24
874.644	34.82
874.817	-43.01
874.99	77.82
875.163	22.53
875.335	98.3
875.508	100.35
875.681	16.38
875.853	-14.34
876.026	-22.53
876.199	-18.43
876.371	-12.29
876.544	24.58
876.717	57.34
876.889	12.29
877.062	92.16
877.234	-14.34
877.407	-18.43
877.579	24.58
877.752	4.1
877.924	-4.1
878.097	26.62
878.269	-40.96
878.442	-61.44
878.614	53.25
878.786	24.58
878.959	4.1
879.131	22.53
879.303	28.67
879.476	-32.77
879.648	26.62
879.82	-8.19
879.993	14.34
880.165	-16.38
880.337	0
880.509	8.19
880.681	4.1
880.854	47.1
881.026	-16.38
881.198	28.67
881.37	24.58
881.542	-34.82
881.714	30.72
881.886	-38.91
882.058	-28.67
882.23	2.05
882.402	55.3
882.574	96.25
882.746	18.43
882.918	-6.14
883.09	-94.21
883.262	12.29
883.434	90.11
883.606	28.67
883.778	6.14
883.95	24.58
884.122	2.05
884.293	92.16
884.465	20.48
884.637	-10.24
884.809	10.24
884.98	20.48
885.152	-51.2
885.324	20.48
885.496	-8.19
885.667	-18.43
885.839	-24.58
886.011	12.29
886.182	24.58
886.354	108.54
886.525	59.39
886.697	-20.48
886.869	14.34
887.04	-30.72
887.212	88.06
887.383	61.44
887.555	-2.05
887.726	24.58
887.897	69.63
888.069	47.1
888.24	-10.24
888.412	43.01
888.583	-57.34
888.754	-55.3
888.926	36.86
889.097	22.53
889.268	30.72
889.44	36.86
889.611	12.29
889.782	14.34
889.953	24.58
890.125	28.67
890.296	6.14
890.467	20.48
890.638	53.25
890.809	45.06
890.98	34.82
891.151	-30.72
891.323	6.14
891.494	118.78
891.665	-34.82
891.836	20.48
892.007	-10.24
892.178	137.21
892.349	34.82
892.52	4.1
892.691	-26.62
892.862	-24.58
893.032	-20.48
893.203	30.72
893.374	10.24
893.545	38.91
893.716	-63.49
893.887	22.53
894.057	30.72
894.228	40.96
894.399	53.25
894.57	32.77
894.74	26.62
894.911	38.91
895.082	-55.3
895.253	30.72
895.423	-57.34
895.594	90.11
895.764	0
895.935	63.49
896.106	28.67
896.276	-36.86
896.447	8.19
896.617	18.43
896.788	-22.53
896.958	4.1
897.129	-14.34
897.299	8.19
897.47	-18.43
897.64	24.58
897.81	-8.19
897.981	-10.24
898.151	2.05
898.322	94.21
898.492	81.92
898.662	-8.19
898.832	20.48
899.003	47.1
899.173	51.2
899.343	71.68
899.513	-22.53
