Data from USB4F104151__204__13-59-50-725.txt Node

Date: Thu Mar 13 13:59:50 EDT 2025
User: louis
Spectrometer: USB4F10415
Trigger mode: 4
Integration Time (sec): 1.000000E-2
Scans to average: 1
Electric dark correction enabled: true
Nonlinearity correction enabled: false
Boxcar width: 0
XAxis mode: Wavelengths
Number of Pixels in Spectrum: 3648
>>>>>Begin Spectral Data<<<<<
178.204	3.41
178.424	3.41
178.644	3.41
178.864	-47.79
179.084	19.8
179.304	-43.69
179.524	19.8
179.744	-10.92
179.964	36.18
180.184	58.71
180.404	36.18
180.624	-29.35
180.844	3.41
181.064	-4.78
181.283	34.13
181.503	-39.59
181.723	-60.07
181.943	-25.26
182.163	44.37
182.383	48.47
182.602	-10.92
182.822	25.94
183.042	27.99
183.262	13.65
183.482	56.66
183.701	56.66
183.921	60.76
184.141	34.13
184.361	19.8
184.58	-25.26
184.8	38.23
185.02	25.94
185.239	-4.78
185.459	89.43
185.679	-37.55
185.898	-10.92
186.118	5.46
186.338	36.18
186.557	11.61
186.777	71
186.997	40.28
187.216	7.51
187.436	83.28
187.655	73.04
187.875	46.42
188.095	36.18
188.314	38.23
188.534	95.57
188.753	-39.59
188.973	66.9
189.192	62.8
189.412	1.37
189.631	3.41
189.851	27.99
190.07	44.37
190.29	-27.31
190.509	-23.21
190.729	64.85
190.948	62.8
191.168	-12.97
191.387	64.85
191.607	83.28
191.826	30.04
192.045	17.75
192.265	105.81
192.484	-17.07
192.704	73.04
192.923	54.61
193.142	32.08
193.362	68.95
193.581	11.61
193.8	87.38
194.02	48.47
194.239	85.33
194.458	-4.78
194.678	-21.16
194.897	56.66
195.116	66.9
195.335	40.28
195.555	36.18
195.774	11.61
195.993	27.99
196.212	56.66
196.432	42.32
196.651	68.95
196.87	-4.78
197.089	103.76
197.308	13.65
197.528	48.47
197.747	5.46
197.966	93.52
198.185	60.76
198.404	11.61
198.623	73.04
198.842	68.95
199.062	114
199.281	19.8
199.5	-27.31
199.719	44.37
199.938	36.18
200.157	62.8
200.376	27.99
200.595	68.95
200.814	85.33
201.033	46.42
201.252	-8.87
201.471	-8.87
201.69	68.95
201.909	128.34
202.128	60.76
202.347	25.94
202.566	83.28
202.785	5.46
203.004	32.08
203.223	46.42
203.442	99.67
203.661	21.84
203.879	-12.97
204.098	38.23
204.317	-21.16
204.536	34.13
204.755	-23.21
204.974	83.28
205.193	46.42
205.411	68.95
205.63	73.04
205.849	91.48
206.068	91.48
206.287	89.43
206.505	52.56
206.724	5.46
206.943	13.65
207.162	3.41
207.381	48.47
207.599	40.28
207.818	64.85
208.037	68.95
208.255	30.04
208.474	85.33
208.693	27.99
208.911	13.65
209.13	-10.92
209.349	52.56
209.567	13.65
209.786	9.56
210.005	73.04
210.223	46.42
210.442	-4.78
210.661	5.46
210.879	-6.83
211.098	56.66
211.316	13.65
211.535	15.7
211.753	83.28
211.972	60.76
212.191	40.28
212.409	34.13
212.628	89.43
212.846	52.56
213.065	71
213.283	87.38
213.502	73.04
213.72	44.37
213.938	23.89
214.157	68.95
214.375	58.71
214.594	75.09
214.812	58.71
215.031	122.2
215.249	62.8
215.467	21.84
215.686	60.76
215.904	77.14
216.122	23.89
216.341	109.91
216.559	54.61
216.778	42.32
216.996	89.43
217.214	54.61
217.432	9.56
217.651	-84.65
217.869	7.51
218.087	32.08
218.306	17.75
218.524	85.33
218.742	11.61
218.96	111.96
219.179	52.56
219.397	17.75
219.615	46.42
219.833	62.8
220.051	5.46
220.27	85.33
220.488	-4.78
220.706	32.08
220.924	21.84
221.142	42.32
221.36	89.43
221.578	107.86
221.796	32.08
222.015	54.61
222.233	-6.83
222.451	11.61
222.669	44.37
222.887	95.57
223.105	27.99
223.323	44.37
223.541	48.47
223.759	38.23
223.977	34.13
224.195	9.56
224.413	-35.5
224.631	21.84
224.849	30.04
225.067	134.48
225.285	77.14
225.503	19.8
225.721	62.8
225.939	60.76
226.157	11.61
226.375	81.24
226.592	77.14
226.81	27.99
227.028	64.85
227.246	5.46
227.464	-23.21
227.682	95.57
227.9	23.89
228.117	62.8
228.335	58.71
228.553	77.14
228.771	-0.68
228.989	19.8
229.206	54.61
229.424	81.24
229.642	89.43
229.86	87.38
230.077	38.23
230.295	60.76
230.513	101.72
230.731	56.66
230.948	97.62
231.166	17.75
231.384	23.89
231.601	15.7
231.819	38.23
232.037	21.84
232.254	44.37
232.472	107.86
232.689	46.42
232.907	-12.97
233.125	-19.11
233.342	44.37
233.56	3.41
233.777	75.09
233.995	27.99
234.213	93.52
234.43	103.76
234.648	1.37
234.865	68.95
235.083	56.66
235.3	89.43
235.518	52.56
235.735	54.61
235.953	71
236.17	75.09
236.388	77.14
236.605	25.94
236.822	101.72
237.04	52.56
237.257	19.8
237.475	73.04
237.692	48.47
237.909	60.76
238.127	77.14
238.344	54.61
238.562	56.66
238.779	40.28
238.996	46.42
239.214	23.89
239.431	-0.68
239.648	68.95
239.865	15.7
240.083	73.04
240.3	19.8
240.517	52.56
240.735	56.66
240.952	62.8
241.169	7.51
241.386	15.7
241.603	34.13
241.821	15.7
242.038	109.91
242.255	64.85
242.472	81.24
242.689	132.44
242.907	-19.11
243.124	40.28
243.341	109.91
243.558	-39.59
243.775	54.61
243.992	75.09
244.209	34.13
244.426	42.32
244.643	23.89
244.86	93.52
245.078	46.42
245.295	79.19
245.512	27.99
245.729	77.14
245.946	56.66
246.163	34.13
246.38	73.04
246.597	13.65
246.814	52.56
247.031	111.96
247.248	44.37
247.464	75.09
247.681	42.32
247.898	71
248.115	27.99
248.332	79.19
248.549	73.04
248.766	15.7
248.983	101.72
249.2	30.04
249.417	89.43
249.633	95.57
249.85	68.95
250.067	50.52
250.284	68.95
250.501	54.61
250.717	134.48
250.934	21.84
251.151	5.46
251.368	44.37
251.585	77.14
251.801	93.52
252.018	79.19
252.235	48.47
252.451	9.56
252.668	27.99
252.885	75.09
253.102	36.18
253.318	87.38
253.535	27.99
253.752	46.42
253.968	130.39
254.185	13.65
254.401	23.89
254.618	60.76
254.835	-10.92
255.051	128.34
255.268	52.56
255.484	75.09
255.701	89.43
255.917	-19.11
256.134	7.51
256.351	19.8
256.567	118.1
256.784	52.56
257	36.18
257.217	19.8
257.433	73.04
257.65	48.47
257.866	23.89
258.082	7.51
258.299	34.13
258.515	71
258.732	34.13
258.948	62.8
259.165	89.43
259.381	25.94
259.597	19.8
259.814	97.62
260.03	17.75
260.246	60.76
260.463	87.38
260.679	77.14
260.895	30.04
261.112	89.43
261.328	36.18
261.544	11.61
261.761	73.04
261.977	75.09
262.193	66.9
262.409	-4.78
262.626	75.09
262.842	124.24
263.058	101.72
263.274	52.56
263.49	7.51
263.707	95.57
263.923	36.18
264.139	73.04
264.355	44.37
264.571	150.87
264.787	56.66
265.004	124.24
265.22	-4.78
265.436	71
265.652	71
265.868	60.76
266.084	46.42
266.3	62.8
266.516	-15.02
266.732	73.04
266.948	93.52
267.164	19.8
267.38	60.76
267.596	-4.78
267.812	46.42
268.028	38.23
268.244	11.61
268.46	79.19
268.676	85.33
268.892	101.72
269.108	30.04
269.324	3.41
269.54	73.04
269.756	54.61
269.972	19.8
270.188	19.8
270.403	23.89
270.619	64.85
270.835	48.47
271.051	71
271.267	120.15
271.483	42.32
271.698	-2.73
271.914	46.42
272.13	54.61
272.346	1.37
272.562	66.9
272.777	87.38
272.993	52.56
273.209	38.23
273.425	38.23
273.64	17.75
273.856	42.32
274.072	42.32
274.287	48.47
274.503	40.28
274.719	7.51
274.934	101.72
275.15	21.84
275.366	36.18
275.581	38.23
275.797	9.56
276.012	-10.92
276.228	5.46
276.444	140.63
276.659	95.57
276.875	52.56
277.09	44.37
277.306	91.48
277.521	62.8
277.737	66.9
277.952	46.42
278.168	79.19
278.383	44.37
278.599	5.46
278.814	73.04
279.03	79.19
279.245	93.52
279.461	83.28
279.676	68.95
279.892	52.56
280.107	32.08
280.322	3.41
280.538	5.46
280.753	40.28
280.969	64.85
281.184	148.82
281.399	52.56
281.615	42.32
281.83	21.84
282.045	44.37
282.26	46.42
282.476	81.24
282.691	60.76
282.906	-2.73
283.122	23.89
283.337	19.8
283.552	9.56
283.767	44.37
283.983	5.46
284.198	19.8
284.413	7.51
284.628	36.18
284.843	3.41
285.058	30.04
285.274	23.89
285.489	-15.02
285.704	109.91
285.919	62.8
286.134	56.66
286.349	30.04
286.564	85.33
286.779	111.96
286.995	38.23
287.21	50.52
287.425	60.76
287.64	105.81
287.855	85.33
288.07	103.76
288.285	134.48
288.5	58.71
288.715	44.37
288.93	15.7
289.145	103.76
289.36	52.56
289.575	124.24
289.79	52.56
290.004	38.23
290.219	73.04
290.434	120.15
290.649	30.04
290.864	126.29
291.079	118.1
291.294	103.76
291.509	60.76
291.724	81.24
291.938	23.89
292.153	120.15
292.368	73.04
292.583	97.62
292.798	79.19
293.012	81.24
293.227	30.04
293.442	-37.55
293.657	50.52
293.871	85.33
294.086	21.84
294.301	62.8
294.516	36.18
294.73	64.85
294.945	101.72
295.16	38.23
295.374	7.51
295.589	46.42
295.804	15.7
296.018	62.8
296.233	95.57
296.447	11.61
296.662	27.99
296.877	89.43
297.091	25.94
297.306	89.43
297.52	7.51
297.735	140.63
297.949	44.37
298.164	-6.83
298.378	3.41
298.593	-0.68
298.807	89.43
299.022	75.09
299.236	44.37
299.451	-4.78
299.665	103.76
299.88	21.84
300.094	97.62
300.309	48.47
300.523	30.04
300.737	128.34
300.952	148.82
301.166	79.19
301.381	7.51
301.595	116.05
301.809	34.13
302.024	68.95
302.238	36.18
302.452	101.72
302.667	-10.92
302.881	66.9
303.095	60.76
303.309	103.76
303.524	103.76
303.738	62.8
303.952	46.42
304.166	64.85
304.381	30.04
304.595	52.56
304.809	44.37
305.023	38.23
305.237	52.56
305.452	75.09
305.666	71
305.88	81.24
306.094	56.66
306.308	54.61
306.522	124.24
306.736	128.34
306.95	56.66
307.164	79.19
307.379	101.72
307.593	-45.74
307.807	54.61
308.021	161.11
308.235	54.61
308.449	40.28
308.663	56.66
308.877	101.72
309.091	56.66
309.305	93.52
309.519	91.48
309.733	27.99
309.947	7.51
310.161	27.99
310.374	32.08
310.588	27.99
310.802	1.37
311.016	56.66
311.23	9.56
311.444	93.52
311.658	93.52
311.872	40.28
312.085	99.67
312.299	34.13
312.513	152.91
312.727	71
312.941	99.67
313.154	79.19
313.368	87.38
313.582	-19.11
313.796	64.85
314.009	15.7
314.223	58.71
314.437	66.9
314.651	-8.87
314.864	44.37
315.078	17.75
315.292	30.04
315.505	71
315.719	146.77
315.933	11.61
316.146	36.18
316.36	13.65
316.573	101.72
316.787	-15.02
317.001	64.85
317.214	3.41
317.428	36.18
317.641	23.89
317.855	99.67
318.068	-2.73
318.282	7.51
318.495	68.95
318.709	95.57
318.922	58.71
319.136	44.37
319.349	-2.73
319.563	-10.92
319.776	79.19
319.99	40.28
320.203	91.48
320.417	62.8
320.63	93.52
320.843	95.57
321.057	66.9
321.27	32.08
321.483	50.52
321.697	44.37
321.91	56.66
322.124	23.89
322.337	56.66
322.55	44.37
322.763	77.14
322.977	15.7
323.19	111.96
323.403	3.41
323.617	25.94
323.83	66.9
324.043	50.52
324.256	36.18
324.469	27.99
324.683	79.19
324.896	71
325.109	93.52
325.322	13.65
325.535	68.95
325.748	87.38
325.962	132.44
326.175	50.52
326.388	40.28
326.601	38.23
326.814	114
327.027	40.28
327.24	73.04
327.453	32.08
327.666	118.1
327.879	79.19
328.092	122.2
328.305	40.28
328.518	44.37
328.731	68.95
328.944	93.52
329.157	7.51
329.37	52.56
329.583	60.76
329.796	85.33
330.009	87.38
330.222	101.72
330.435	66.9
330.648	48.47
330.861	87.38
331.073	107.86
331.286	93.52
331.499	36.18
331.712	11.61
331.925	101.72
332.138	46.42
332.35	111.96
332.563	62.8
332.776	60.76
332.989	27.99
333.202	56.66
333.414	15.7
333.627	44.37
333.84	56.66
334.053	32.08
334.265	42.32
334.478	60.76
334.691	21.84
334.903	23.89
335.116	85.33
335.329	77.14
335.541	109.91
335.754	68.95
335.966	1.37
336.179	56.66
336.392	-23.21
336.604	5.46
336.817	60.76
337.029	60.76
337.242	60.76
337.454	93.52
337.667	73.04
337.88	87.38
338.092	44.37
338.305	118.1
338.517	109.91
338.729	-8.87
338.942	79.19
339.154	44.37
339.367	38.23
339.579	44.37
339.792	68.95
340.004	38.23
340.217	89.43
340.429	73.04
340.641	85.33
340.854	32.08
341.066	54.61
341.278	17.75
341.491	11.61
341.703	132.44
341.915	58.71
342.128	150.87
342.34	91.48
342.552	25.94
342.764	13.65
342.977	30.04
343.189	83.28
343.401	64.85
343.613	148.82
343.826	107.86
344.038	54.61
344.25	142.68
344.462	103.76
344.674	118.1
344.886	54.61
345.099	93.52
345.311	32.08
345.523	-15.02
345.735	19.8
345.947	48.47
346.159	89.43
346.371	114
346.583	3.41
346.795	105.81
347.007	40.28
347.219	32.08
347.431	46.42
347.643	97.62
347.855	44.37
348.067	83.28
348.279	23.89
348.491	7.51
348.703	68.95
348.915	56.66
349.127	-6.83
349.339	60.76
349.551	89.43
349.763	32.08
349.975	105.81
350.187	91.48
350.399	148.82
350.61	81.24
350.822	-33.45
351.034	46.42
351.246	13.65
351.458	38.23
351.669	99.67
351.881	44.37
352.093	7.51
352.305	23.89
352.517	-2.73
352.728	71
352.94	79.19
353.152	54.61
353.363	126.29
353.575	85.33
353.787	73.04
353.999	60.76
354.21	56.66
354.422	87.38
354.633	64.85
354.845	56.66
355.057	48.47
355.268	126.29
355.48	87.38
355.692	44.37
355.903	62.8
356.115	93.52
356.326	30.04
356.538	89.43
356.749	-0.68
356.961	140.63
357.172	85.33
357.384	138.58
357.595	68.95
357.807	124.24
358.018	17.75
358.23	101.72
358.441	32.08
358.653	114
358.864	9.56
359.075	83.28
359.287	75.09
359.498	103.76
359.709	23.89
359.921	79.19
360.132	71
360.344	36.18
360.555	89.43
360.766	122.2
360.977	38.23
361.189	42.32
361.4	21.84
361.611	79.19
361.823	95.57
362.034	27.99
362.245	79.19
362.456	105.81
362.667	85.33
362.879	68.95
363.09	87.38
363.301	75.09
363.512	56.66
363.723	179.54
363.935	99.67
364.146	148.82
364.357	-23.21
364.568	79.19
364.779	101.72
364.99	52.56
365.201	48.47
365.412	66.9
365.623	81.24
365.834	95.57
366.045	36.18
366.256	77.14
366.467	89.43
366.678	38.23
366.889	54.61
367.1	48.47
367.311	7.51
367.522	-6.83
367.733	138.58
367.944	81.24
368.155	52.56
368.366	105.81
368.577	136.53
368.788	109.91
368.999	32.08
369.209	52.56
369.42	48.47
369.631	56.66
369.842	30.04
370.053	103.76
370.264	95.57
370.474	60.76
370.685	71
370.896	93.52
371.107	15.7
371.317	128.34
371.528	-2.73
371.739	81.24
371.95	77.14
372.16	87.38
372.371	109.91
372.582	101.72
372.792	118.1
373.003	163.15
373.214	-12.97
373.424	64.85
373.635	54.61
373.846	46.42
374.056	34.13
374.267	111.96
374.477	1.37
374.688	120.15
374.898	48.47
375.109	109.91
375.319	81.24
375.53	83.28
375.74	89.43
375.951	81.24
376.161	68.95
376.372	71
376.582	142.68
376.793	85.33
377.003	60.76
377.214	66.9
377.424	68.95
377.635	109.91
377.845	68.95
378.055	13.65
378.266	77.14
378.476	130.39
378.686	101.72
378.897	52.56
379.107	118.1
379.317	52.56
379.528	68.95
379.738	118.1
379.948	42.32
380.158	42.32
380.369	101.72
380.579	99.67
380.789	134.48
380.999	11.61
381.21	42.32
381.42	52.56
381.63	85.33
381.84	122.2
382.05	42.32
382.261	68.95
382.471	60.76
382.681	81.24
382.891	50.52
383.101	161.11
383.311	79.19
383.521	116.05
383.731	126.29
383.941	30.04
384.151	109.91
384.361	75.09
384.571	50.52
384.781	95.57
384.991	46.42
385.201	128.34
385.411	15.7
385.621	132.44
385.831	40.28
386.041	103.76
386.251	44.37
386.461	93.52
386.671	64.85
386.881	144.72
387.091	136.53
387.301	101.72
387.511	48.47
387.72	75.09
387.93	52.56
388.14	56.66
388.35	95.57
388.56	93.52
388.769	60.76
388.979	85.33
389.189	5.46
389.399	79.19
389.609	126.29
389.818	99.67
390.028	54.61
390.238	71
390.447	54.61
390.657	124.24
390.867	101.72
391.076	101.72
391.286	91.48
391.496	109.91
391.705	23.89
391.915	120.15
392.125	58.71
392.334	40.28
392.544	126.29
392.753	21.84
392.963	40.28
393.172	159.06
393.382	79.19
393.591	150.87
393.801	118.1
394.01	132.44
394.22	101.72
394.429	66.9
394.639	95.57
394.848	167.25
395.058	101.72
395.267	105.81
395.477	140.63
395.686	114
395.895	93.52
396.105	120.15
396.314	68.95
396.524	150.87
396.733	64.85
396.942	68.95
397.152	58.71
397.361	89.43
397.57	105.81
397.78	157.01
397.989	56.66
398.198	208.21
398.407	134.48
398.617	58.71
398.826	77.14
399.035	101.72
399.244	140.63
399.453	132.44
399.663	185.68
399.872	169.3
400.081	165.2
400.29	171.35
400.499	79.19
400.708	54.61
400.917	101.72
401.127	181.59
401.336	179.54
401.545	187.73
401.754	138.58
401.963	130.39
402.172	130.39
402.381	144.72
402.59	183.63
402.799	173.39
403.008	161.11
403.217	220.5
403.426	187.73
403.635	167.25
403.844	132.44
404.053	191.83
404.262	167.25
404.471	163.15
404.68	150.87
404.888	103.76
405.097	142.68
405.306	189.78
405.515	187.73
405.724	208.21
405.933	226.64
406.142	197.97
406.35	234.83
406.559	204.11
406.768	257.36
406.977	226.64
407.185	243.03
407.394	183.63
407.603	224.59
407.812	230.74
408.02	294.22
408.229	310.61
408.438	304.46
408.646	286.03
408.855	333.14
409.064	245.07
409.272	320.85
409.481	324.94
409.69	302.42
409.898	249.17
410.107	263.51
410.315	361.81
410.524	429.39
410.733	341.33
410.941	380.24
411.15	380.24
411.358	406.86
411.567	386.38
411.775	343.38
411.984	451.92
412.192	386.38
412.401	451.92
412.609	517.45
412.818	570.7
413.026	484.69
413.234	558.41
413.443	542.03
413.651	552.27
413.86	570.7
414.068	634.19
414.276	595.28
414.485	638.28
414.693	580.94
414.901	666.96
415.11	767.31
415.318	769.35
415.526	724.3
415.734	812.36
415.943	728.39
416.151	830.79
416.359	865.61
416.567	890.18
416.776	851.27
416.984	918.86
417.192	1000.77
417.4	1002.82
417.608	1060.17
417.817	1015.11
418.025	1094.98
418.233	1150.28
418.441	1219.91
418.649	1168.71
418.857	1269.06
419.065	1201.47
419.273	1355.07
419.481	1340.74
419.689	1414.46
419.897	1549.63
420.105	1504.57
420.313	1652.03
420.521	1600.83
420.729	1520.96
420.937	1797.43
421.145	1715.52
421.353	1817.91
421.561	1901.88
421.769	1889.59
421.977	2037.05
422.185	1946.94
422.393	2075.96
422.601	2250.03
422.809	2108.73
423.017	2235.7
423.224	2278.71
423.432	2397.49
423.64	2612.53
423.848	2628.91
424.056	2651.44
424.263	2841.9
424.471	2796.84
424.679	2805.03
424.887	2956.58
425.094	3009.83
425.302	3099.94
425.51	3239.2
425.718	3282.21
425.925	3181.86
426.133	3499.3
426.341	3591.45
426.548	3800.35
426.756	3730.72
426.964	3833.11
427.171	4068.63
427.379	4171.03
427.586	4240.66
427.794	4394.26
428.001	4525.33
428.209	4773.13
428.417	4584.72
428.624	5139.72
428.832	5010.7
429.039	4859.15
429.247	4885.77
429.454	5379.33
429.662	5795.07
429.869	5446.91
430.076	5881.08
430.284	5776.64
430.491	6094.07
430.699	6110.46
430.906	6067.45
431.114	6446.32
431.321	6491.38
431.528	6624.5
431.736	6970.6
431.943	7447.78
432.15	7120.1
432.358	7345.38
432.565	7730.4
432.772	7691.49
432.979	7998.68
433.187	7990.49
433.394	8207.58
433.601	8752.34
433.808	8703.18
434.016	8795.34
434.223	8932.56
434.43	9725.12
434.637	9360.58
434.844	10159.29
435.052	10413.24
435.259	10138.81
435.466	10230.97
435.673	10259.64
435.88	10880.18
436.087	11343.02
436.294	11386.02
436.501	11173.03
436.708	11388.07
436.915	11775.14
437.122	12199.07
437.329	12186.78
437.537	12647.57
437.743	12768.4
437.95	12872.85
438.157	13368.46
438.364	13782.15
438.571	13712.52
438.778	14023.81
438.985	15098.99
439.192	14371.96
439.399	15041.65
439.606	14550.14
439.813	15305.84
440.02	16651.35
440.227	16020.58
440.433	16065.63
440.64	16639.06
440.847	16315.48
441.054	16839.76
441.261	18037.83
441.467	17701.96
441.674	18023.49
441.881	18504.76
442.088	18945.08
442.294	18768.95
442.501	18920.5
442.708	19356.72
442.914	20313.12
443.121	20913.17
443.328	20182.05
443.534	21623.82
443.741	21189.65
443.948	21148.69
444.154	22567.93
444.361	22326.27
444.568	22758.39
444.774	22350.85
444.981	22553.6
445.187	23479.28
445.394	24603.61
445.6	23993.32
445.807	26661.82
446.013	25172.95
446.22	25859.02
446.426	26772.41
446.633	27063.22
446.839	27868.08
447.046	26665.92
447.252	28208.04
447.459	28062.63
447.665	28132.26
447.871	29277.08
448.078	30544.77
448.284	29238.17
448.491	29766.54
448.697	31177.59
448.903	31732.59
449.11	31644.53
449.316	31554.42
449.522	32058.22
449.728	32645.99
449.935	32664.42
450.141	32955.23
450.347	33665.88
450.553	32531.3
450.76	33016.67
450.966	34251.59
451.172	33620.82
451.378	34458.44
451.584	33758.03
451.791	34685.76
451.997	34310.99
452.203	35175.23
452.409	35140.41
452.615	34880.32
452.821	33956.69
453.027	33428.31
453.233	35128.13
453.44	33715.03
453.646	33801.04
453.852	34356.04
454.058	34925.38
454.264	33809.23
454.47	34313.03
454.676	33635.16
454.882	34900.8
455.088	32097.13
455.294	32340.84
455.5	32584.55
455.705	33291.1
455.911	31857.52
456.117	31273.85
456.323	30616.45
456.529	29426.58
456.735	30444.42
456.941	29748.11
457.147	29338.52
457.352	28523.43
457.558	27949.99
457.764	28167.08
457.97	27628.46
458.176	26891.19
458.381	27073.46
458.587	25566.16
458.793	25723.85
458.999	24429.54
459.204	26096.58
459.41	25609.17
459.616	23778.28
459.821	23579.63
460.027	23784.43
460.233	23243.76
460.438	22262.79
460.644	22326.27
460.85	21447.69
461.055	21203.99
461.261	20982.81
461.466	19633.19
461.672	18783.29
461.878	20522.01
462.083	18955.32
462.289	18850.87
462.494	18572.35
462.7	17708.1
462.905	17116.24
463.111	17923.14
463.316	18037.83
463.522	17468.49
463.727	17454.15
463.932	17511.5
464.138	17427.53
464.343	17329.23
464.549	16870.48
464.754	17349.71
464.959	17222.73
465.165	17011.79
465.37	16374.88
465.575	16098.4
465.781	16839.76
465.986	16946.26
466.191	16174.17
466.397	15791.2
466.602	15068.27
466.807	15692.9
467.012	15709.29
467.218	15645.8
467.423	15465.58
467.628	15758.44
467.833	16247.9
468.038	15455.34
468.244	15258.73
468.449	15694.95
468.654	15357.03
468.859	15142
469.064	14949.49
469.269	14298.24
469.474	14597.24
469.679	14740.6
469.885	14308.48
470.09	14453.88
470.295	14478.46
470.5	14077.05
470.705	14269.56
470.91	13966.46
471.115	13720.71
471.32	14036.1
471.525	13874.31
471.73	13608.07
471.935	13436.04
472.139	13188.24
472.344	13444.23
472.549	13223.05
472.754	12907.66
472.959	12776.59
473.164	12592.28
473.369	12305.56
473.574	12823.7
473.778	12426.39
473.983	12514.45
474.188	12631.19
474.393	11900.06
474.598	11971.74
474.802	11836.58
475.007	11809.95
475.212	11768.99
475.417	11328.68
475.621	11476.13
475.826	11738.27
476.031	11367.59
476.235	11064.49
476.44	11252.91
476.645	11013.29
476.849	10966.19
477.054	10831.02
477.259	10712.24
477.463	10482.87
477.668	10417.33
477.872	10435.77
478.077	10470.58
478.282	10077.37
478.486	9991.36
478.691	10040.51
478.895	10104
479.1	9675.97
479.304	9936.06
479.509	9505.99
479.713	9630.91
479.918	9450.69
480.122	9508.04
480.326	9436.36
480.531	9546.95
480.735	9411.78
480.94	9434.31
481.144	9704.64
481.348	9016.52
481.553	9358.53
481.757	9012.43
481.961	9190.6
482.166	9290.95
482.37	9303.24
482.574	9014.48
482.778	9123.02
482.983	9288.9
483.187	9442.5
483.391	9366.73
483.595	9233.61
483.8	9084.11
484.004	9067.72
484.208	9311.43
484.412	9178.31
484.616	9350.34
484.821	9401.54
485.025	8985.8
485.229	9092.3
485.433	9045.2
485.637	9157.83
485.841	8981.71
486.045	9090.25
486.249	9073.87
486.453	9155.79
486.657	9145.55
486.861	9350.34
487.065	8916.17
487.269	9217.22
487.473	9008.33
487.677	9272.52
487.881	9000.14
488.085	9123.02
488.289	9215.18
488.493	9260.23
488.697	9168.07
488.901	9284.81
489.105	9153.74
489.309	9319.62
489.512	9131.21
489.716	9422.02
489.92	9368.77
490.124	9258.18
490.328	9542.85
490.531	9411.78
490.735	9278.66
490.939	9376.97
491.143	9411.78
491.346	9415.88
491.55	9626.82
491.754	9442.5
491.958	9673.92
492.161	9581.76
492.365	9786.56
492.569	9694.4
492.772	9712.83
492.976	9964.73
493.18	9860.29
493.383	9907.39
493.587	10308.79
493.79	10118.33
493.994	9931.97
494.197	10378.42
494.401	10376.38
494.605	10443.96
494.808	10615.99
495.012	10663.09
495.215	10605.75
495.419	10693.81
495.622	10910.89
495.825	10921.13
496.029	10783.92
496.232	11072.68
496.436	10998.96
496.639	11394.22
496.843	11306.15
497.046	11392.17
497.249	11547.81
497.453	11699.36
497.656	11990.17
497.859	11795.62
498.063	11867.3
498.266	12362.9
498.469	12078.24
498.673	12289.18
498.876	12766.35
499.079	12889.23
499.282	12702.87
499.485	13304.97
499.689	13261.96
499.892	13331.59
500.095	13667.46
500.298	13921.41
500.501	13720.71
500.705	14064.77
500.908	14312.57
501.111	14437.5
501.314	14566.52
501.517	14697.59
501.72	15137.9
501.923	14845.04
502.126	15152.24
502.329	15434.86
502.532	15535.21
502.735	15473.77
502.938	15883.36
503.141	16301.15
503.344	16522.33
503.547	16512.09
503.75	16843.86
503.953	17099.86
504.156	17187.92
504.359	17587.27
504.562	17599.56
504.765	17912.9
504.968	18023.49
505.17	18465.85
505.373	18269.25
505.576	19096.63
505.779	19045.43
505.982	19360.81
506.185	19688.49
506.387	19684.39
506.59	19876.9
506.793	20306.98
506.996	20247.58
507.198	20937.75
507.401	20929.56
507.604	21165.07
507.807	21701.64
508.009	21787.66
508.212	22125.57
508.415	22465.53
508.617	22600.7
508.82	22871.03
509.022	22875.13
509.225	23538.67
509.428	23532.53
509.63	23968.74
509.833	24087.53
510.035	24636.38
510.238	24740.83
510.44	24904.67
510.643	25271.25
510.845	25693.13
511.048	25621.45
511.25	26194.89
511.453	26303.43
511.655	27624.37
511.858	26950.59
512.06	27220.92
512.262	27335.6
512.465	27818.92
512.667	28627.87
512.87	28601.25
513.072	28801.95
513.274	29367.19
513.477	29840.27
513.679	30131.08
513.881	30387.08
514.084	30759.81
514.286	30860.16
514.488	31073.15
514.69	32041.84
514.893	31988.59
515.095	32271.21
515.297	32525.16
515.499	33237.85
515.701	33641.3
515.904	33792.85
516.106	33780.56
516.308	34054.99
516.51	34837.31
516.712	34878.27
516.914	35162.94
517.116	35887.92
517.318	35939.12
517.52	36361
517.722	36350.76
517.925	36979.49
518.127	37552.92
518.329	37778.2
518.531	37524.25
518.733	38615.82
518.935	38814.47
519.136	39023.36
519.338	39684.86
519.54	39502.59
519.742	40098.55
519.944	40024.82
520.146	41261.79
520.348	41310.94
520.55	41448.16
520.752	41626.33
520.954	42324.69
521.155	42099.41
521.357	42773.19
521.559	42760.9
521.761	43733.69
521.963	43602.62
522.164	43844.28
522.366	44169.91
522.568	44532.4
522.77	45181.6
522.971	45499.04
523.173	45316.77
523.375	45687.45
523.576	45877.91
523.778	45906.58
523.98	46992.01
524.181	46975.62
524.383	46932.62
524.584	47626.88
524.786	47628.93
524.988	48015.99
525.189	47708.8
525.391	48216.69
525.592	48710.25
525.794	48970.35
525.995	49035.88
526.197	48902.76
526.398	48970.35
526.6	49699.42
526.801	50014.81
527.003	50100.82
527.204	50102.87
527.406	50379.35
527.607	50612.82
527.808	50897.48
528.01	50121.3
528.211	50614.86
528.412	51653.19
528.614	51475.01
528.815	51229.26
529.016	51663.43
529.218	51292.74
529.419	51696.19
529.62	51765.82
529.822	51483.2
530.023	51753.54
530.224	51870.27
530.425	52263.48
530.626	51696.19
530.828	51925.57
531.029	53279.27
531.23	52294.2
531.431	52521.52
531.632	52304.44
531.833	52841.01
532.035	52732.46
532.236	52466.23
532.437	53000.75
532.638	52826.67
532.839	53008.94
533.04	53105.19
533.241	52345.4
533.442	53512.74
533.643	53725.73
533.844	53365.29
534.045	53522.98
534.246	52949.55
534.447	53701.15
534.648	53246.5
534.849	53258.79
535.05	53023.28
535.251	53420.58
535.451	53459.49
535.652	53307.94
535.853	53131.82
536.054	53832.22
536.255	53936.67
536.456	53226.03
536.657	54034.97
536.857	53871.14
537.058	53113.39
537.259	53645.86
537.46	53844.51
537.66	53420.58
537.861	53828.13
538.062	53490.21
538.263	53781.02
538.463	53549.6
538.664	53246.5
538.865	54092.32
539.065	53797.41
539.266	53211.69
539.466	53887.52
539.667	53346.86
539.868	54137.37
540.068	53889.57
540.269	53584.42
540.469	53869.09
540.67	53801.5
540.87	53596.71
541.071	53791.26
541.271	53953.05
541.472	53715.49
541.672	53404.2
541.873	53746.21
542.073	53201.45
542.274	54147.61
542.474	53199.4
542.675	53045.8
542.875	54166.04
543.075	53574.18
543.276	53400.1
543.476	54082.08
543.676	53379.62
543.877	53738.02
544.077	53547.56
544.277	53541.41
544.478	53355.05
544.678	53959.2
544.878	53680.67
545.078	53512.74
545.279	53846.56
545.479	53635.62
545.679	54018.59
545.879	53453.35
546.079	54012.45
546.28	53590.56
546.48	53127.72
546.68	53473.83
546.88	53951.01
547.08	53328.42
547.28	53592.61
547.48	53418.53
547.68	53322.28
547.88	53232.17
548.081	53703.2
548.281	53660.19
548.481	52990.51
548.681	53781.02
548.881	53402.15
549.081	53676.58
549.28	53385.77
549.48	53877.28
549.68	53013.04
549.88	53869.09
550.08	53418.53
550.28	53664.29
550.48	53404.2
550.68	53545.51
550.88	53078.57
551.08	53312.04
551.279	53547.56
551.479	52814.38
551.679	53488.17
551.879	52984.36
552.079	53695.01
552.278	53094.96
552.478	53121.58
552.678	53174.83
552.878	53307.94
553.077	53592.61
553.277	52585.01
553.477	53500.45
553.676	53058.09
553.876	53158.44
554.076	52730.42
554.275	52861.49
554.475	52206.14
554.674	53189.16
554.874	53148.2
555.074	52701.75
555.273	52793.9
555.473	53191.21
555.672	52636.21
555.872	52232.76
556.071	52711.99
556.271	52691.51
556.47	52658.74
556.67	52095.55
556.869	52390.45
557.068	52752.94
557.268	52034.11
557.467	52111.93
557.667	52347.45
557.866	52533.81
558.065	51817.02
558.265	52142.65
558.464	51921.47
558.663	52042.3
558.863	51483.2
559.062	52738.61
559.261	51636.8
559.461	52068.92
559.66	51401.28
559.859	51515.97
560.058	51370.57
560.258	51196.49
560.457	51544.64
560.656	51491.4
560.855	51292.74
561.054	51532.36
561.253	51239.5
561.453	51192.39
561.652	51214.92
561.851	51597.89
562.05	51300.93
562.249	50887.24
562.448	51880.51
562.647	51026.51
562.846	51309.13
563.045	50940.49
563.244	50967.12
563.443	51434.05
563.642	50223.7
563.841	50903.63
564.04	50575.95
564.239	51051.08
564.438	50592.34
564.637	50780.75
564.836	50801.23
565.035	50213.46
565.234	50461.27
565.432	50279
565.631	50395.73
565.83	50455.12
566.029	50244.18
566.228	50090.58
566.427	49965.66
566.625	49582.69
566.824	49748.57
567.023	50012.76
567.222	49212.01
567.42	50068.06
567.619	49724
567.818	49513.06
568.016	49494.63
568.215	50121.3
568.414	49465.95
568.612	50096.73
568.811	48958.06
569.01	49379.94
569.208	48536.18
569.407	49019.5
569.605	48591.47
569.804	48779.89
570.002	48718.45
570.201	48853.61
570.4	47745.66
570.598	48102.01
570.797	48061.05
570.995	48061.05
571.193	47856.25
571.392	48548.46
571.59	47643.26
571.789	47919.74
571.987	47678.08
572.186	47997.56
572.384	47323.78
572.582	47835.77
572.781	47919.74
572.979	47080.07
573.177	47248
573.376	46910.09
573.574	47139.46
573.772	46779.02
573.971	46668.43
574.169	46621.33
574.367	45900.44
574.565	46281.36
574.763	46301.84
574.962	46275.22
575.16	45697.69
575.358	46385.81
575.556	45832.86
575.754	46322.32
575.952	45525.66
576.151	45718.17
576.349	44993.19
576.547	45433.5
576.745	45660.83
576.943	46031.51
577.141	45417.12
577.339	45449.89
577.537	44860.07
577.735	44870.31
577.933	44348.08
578.131	44788.39
578.329	44196.53
578.527	44327.6
578.725	44012.21
578.923	44157.62
579.121	43885.24
579.319	43752.12
579.516	44124.85
579.714	44157.62
579.912	43877.05
580.11	43453.12
580.308	43793.08
580.506	43182.79
580.704	42879.69
580.901	43393.73
581.099	43518.65
581.297	42980.04
581.495	42848.97
581.692	42740.43
581.89	42343.12
582.088	42754.76
582.285	42515.15
582.483	42601.16
582.681	42240.72
582.878	42334.93
583.076	41876.18
583.274	42056.4
583.471	41327.33
583.669	41951.96
583.866	41267.94
584.064	41304.8
584.262	40811.24
584.459	41456.35
584.657	41183.97
584.854	41546.46
585.052	40452.84
585.249	40868.58
585.447	40850.15
585.644	40698.6
585.841	40377.07
586.039	40835.81
586.236	40123.12
586.434	40235.76
586.631	39738.1
586.828	39762.68
587.026	39844.6
587.223	39867.12
587.42	39879.41
587.618	39559.93
587.815	39295.74
588.012	39095.04
588.21	39047.94
588.407	39389.95
588.604	39013.12
588.801	38759.17
588.999	38978.31
589.196	38404.88
589.393	38644.49
589.59	38753.03
589.787	38474.51
589.984	38114.06
590.182	38300.43
590.379	38363.92
590.576	37962.51
590.773	38187.79
590.97	37567.26
591.167	38169.36
591.364	37647.13
591.561	37796.63
591.758	37200.67
591.955	37624.6
592.152	37550.87
592.349	36688.68
592.546	37243.68
592.743	36981.54
592.94	36447.02
593.137	36846.37
593.334	36614.95
593.531	35955.5
593.727	36426.54
593.924	36621.09
594.121	36092.72
594.318	36078.38
594.515	35638.07
594.712	36059.95
594.908	35834.67
595.105	36184.88
595.302	35658.55
595.499	35580.73
595.696	35740.47
595.892	35416.89
596.089	35267.39
596.286	35500.86
596.482	35056.45
596.679	34796.35
596.876	35068.73
597.072	34886.47
597.269	34870.08
597.466	34646.85
597.662	34050.89
597.859	34892.61
598.055	34646.85
598.252	33946.45
598.448	34261.83
598.645	34065.23
598.841	33917.78
599.038	34220.88
599.234	34001.74
599.431	33168.22
599.627	33573.72
599.824	33737.55
600.02	33049.44
600.217	33557.33
600.413	33139.55
600.609	32883.55
600.806	32955.23
601.002	33133.4
601.198	32922.46
601.395	32654.18
601.591	32566.12
601.787	32609.12
601.984	32349.03
602.18	32656.23
602.376	32082.8
602.572	32183.15
602.769	31943.53
602.965	31681.39
603.161	31804.27
603.357	31804.27
603.553	31552.37
603.75	31644.53
603.946	31404.92
604.142	31363.96
604.338	30983.04
604.534	31148.92
604.73	30540.68
604.926	30471.04
605.122	30901.12
605.318	30579.59
605.514	30647.17
605.71	30610.31
605.906	30446.47
606.102	30485.38
606.298	30724.99
606.494	30356.36
606.69	30090.12
606.886	30213
607.082	29432.72
607.278	29889.42
607.474	29404.05
607.67	29858.7
607.866	29422.48
608.062	30079.88
608.257	29410.2
608.453	29180.82
608.649	29348.76
608.845	29117.34
609.041	29250.45
609.236	29264.79
609.432	29019.03
609.628	28787.61
609.824	28865.44
610.019	28490.66
610.215	28674.98
610.411	28476.32
610.606	28570.53
610.802	28449.7
610.998	28494.75
611.193	27988.91
611.389	28062.63
611.584	28132.26
611.78	27806.64
611.976	27716.53
612.171	28038.06
612.367	27503.54
612.562	27601.84
612.758	27423.67
612.953	27562.93
613.149	27741.1
613.344	27081.66
613.539	27743.15
613.735	27018.17
613.93	27251.64
614.126	27034.55
614.321	27104.18
614.517	26837.95
614.712	26602.43
614.907	26594.24
615.103	27186.1
615.298	26764.22
615.493	27079.61
615.688	26405.83
615.884	26889.15
616.079	26276.8
616.274	26368.96
616.47	26334.15
616.665	26219.46
616.86	26166.21
617.055	26145.73
617.25	26217.41
617.445	26237.89
617.641	25318.35
617.836	25777.1
618.031	25471.95
618.226	25793.48
618.421	25203.67
618.616	25752.52
618.811	25070.55
619.006	25594.83
619.201	24904.67
619.396	25156.57
619.591	24777.69
619.786	24953.82
619.981	24454.11
620.176	24966.1
620.371	24351.71
620.566	24751.07
620.761	24320.99
620.956	24374.24
621.151	23876.58
621.346	24099.81
621.541	23620.59
621.735	24083.43
621.93	23297.01
622.125	23301.11
622.32	22868.98
622.515	23403.5
622.709	23202.8
622.904	22918.14
623.099	22715.39
623.294	22719.48
623.488	22498.3
623.683	22735.87
623.878	22309.89
624.072	22635.52
624.267	22025.22
624.462	21961.73
624.656	21879.82
624.851	21931.01
625.046	21697.55
625.24	21488.65
625.435	21584.91
625.629	21316.62
625.824	21019.67
626.018	21330.96
626.213	20763.67
626.407	21070.87
626.602	20450.33
626.796	20577.31
626.991	20800.54
627.185	20667.42
627.38	20268.06
627.574	20335.65
627.768	20286.5
627.963	20122.66
628.157	19907.62
628.352	19997.73
628.546	19622.95
628.74	19708.97
628.935	19440.68
629.129	19821.61
629.323	19305.52
629.517	19246.13
629.712	19139.63
629.906	19045.43
630.1	18891.83
630.294	18965.56
630.489	18621.5
630.683	18803.77
630.877	18367.55
631.071	18328.64
631.265	18668.6
631.459	18099.27
631.653	18213.95
631.848	18052.16
632.042	17921.09
632.236	18123.84
632.43	17931.33
632.624	17761.35
632.818	17693.77
633.012	17368.14
633.206	17714.25
633.4	17318.99
633.594	17175.63
633.788	17157.2
633.982	17075.28
634.176	16895.06
634.369	16936.02
634.563	16999.51
634.757	16729.17
634.951	16876.63
635.145	16503.9
635.339	16567.38
635.533	16796.76
635.726	16583.77
635.92	16147.55
636.114	16227.42
636.308	16120.93
636.501	16235.61
636.695	16114.78
636.889	15985.76
637.083	15647.85
637.276	15690.85
637.47	15774.82
637.664	15686.76
637.857	15592.55
638.051	15678.57
638.244	15359.08
638.438	15512.68
638.632	15273.07
638.825	15035.5
639.019	14986.35
639.212	14857.33
639.406	14902.39
639.599	15004.78
639.793	14642.29
639.986	14765.17
640.18	14756.98
640.373	14453.88
640.567	14464.12
640.76	14587
640.954	14238.84
641.147	14322.81
641.34	14107.77
641.534	14134.4
641.727	13913.22
641.92	14021.76
642.114	14011.52
642.307	13857.92
642.5	13892.74
642.694	13495.43
642.887	13726.85
643.08	13778.05
643.273	13589.64
643.467	13190.28
643.66	13405.32
643.853	13319.31
644.046	13436.04
644.239	13098.13
644.432	13171.85
644.626	13012.11
644.819	12977.3
645.012	12872.85
645.205	12991.63
645.398	12801.17
645.591	12401.82
645.784	12473.49
645.977	12334.23
646.17	12686.48
646.363	12276.89
646.556	12125.34
646.749	12254.36
646.942	12199.07
647.135	12174.49
647.328	11967.65
647.521	11904.16
647.714	11619.49
647.907	11861.15
648.099	11799.71
648.292	11885.73
648.485	11768.99
648.678	11574.44
648.871	11474.09
649.064	11424.93
649.256	11482.28
649.449	11293.86
649.642	11388.07
649.835	11064.49
650.027	10978.48
650.22	11119.79
650.413	10783.92
650.605	10788.02
650.798	10855.6
650.991	10566.84
651.183	10400.95
651.376	10376.38
651.568	10566.84
651.761	10341.56
651.954	10130.62
652.146	10079.42
652.339	10142.91
652.531	10022.08
652.724	10079.42
652.916	10079.42
653.109	10060.99
653.301	9854.14
653.494	9905.34
653.686	9555.14
653.879	9917.63
654.071	9549
654.263	9661.63
654.456	9520.32
654.648	9571.52
654.84	9399.49
655.033	9448.65
655.225	9147.59
655.417	9301.19
655.61	9084.11
655.802	9108.68
655.994	8918.22
656.186	8948.94
656.379	8875.21
656.571	9055.44
656.763	8934.6
656.955	8807.63
657.148	8750.29
657.34	8502.48
657.532	8320.21
657.724	8514.77
657.916	8484.05
658.108	8271.06
658.3	8219.86
658.492	8111.32
658.684	8166.62
658.876	8111.32
659.068	7992.54
659.26	7929.05
659.452	7894.24
659.644	7775.45
659.836	7707.87
660.028	7873.76
660.22	7599.33
660.412	7531.75
660.604	7548.13
660.796	7517.41
660.988	7482.6
661.18	7263.46
661.372	7242.98
661.563	7335.14
661.755	7339.24
661.947	7099.62
662.139	7032.04
662.331	6956.27
662.522	6905.07
662.714	6827.25
662.906	6896.88
663.097	6661.36
663.289	6761.71
663.481	6624.5
663.673	6817.01
663.864	6599.92
664.056	6397.17
664.247	6628.59
664.439	6292.73
664.631	6479.09
664.822	6419.7
665.014	6343.92
665.205	6182.13
665.397	6135.03
665.588	6204.66
665.78	6092.02
665.971	5926.14
666.163	6202.61
666.354	6034.68
666.546	6003.96
666.737	6010.11
666.929	6008.06
667.12	5766.4
667.311	5750.01
667.503	5758.21
667.694	5747.97
667.885	5635.33
668.077	5547.26
668.268	5657.85
668.459	5668.09
668.651	5477.63
668.842	5547.26
669.033	5332.23
669.224	5401.86
669.416	5414.15
669.607	5354.76
669.798	5326.08
669.989	5281.03
670.18	5254.41
670.371	5238.02
670.563	5229.83
670.754	5213.45
670.945	5010.7
671.136	5080.33
671.327	5049.61
671.518	4945.16
671.709	5076.23
671.9	5008.65
672.091	4945.16
672.282	4840.72
672.473	4979.98
672.664	4939.02
672.855	4773.13
673.046	4820.24
673.237	4896.01
673.428	4840.72
673.619	4752.65
673.809	4689.17
674	4832.52
674.191	4607.25
674.382	4605.2
674.573	4592.91
674.764	4717.84
674.954	4670.73
675.145	4451.6
675.336	4435.22
675.527	4572.43
675.717	4515.09
675.908	4513.04
676.099	4465.94
676.289	4494.61
676.48	4551.95
676.671	4388.11
676.861	4396.31
677.052	4201.75
677.243	4394.26
677.433	4177.17
677.624	4244.76
677.814	4119.83
678.005	4222.23
678.195	4306.2
678.386	4207.89
678.576	4001.05
678.767	4255
678.957	4099.35
679.148	4185.37
679.338	4152.6
679.529	3990.81
679.719	4144.41
679.909	4074.78
680.1	4136.21
680.29	3976.47
680.481	3978.52
680.671	3980.57
680.861	3958.04
681.052	4080.92
681.242	4027.67
681.432	3968.28
681.622	3777.82
681.813	3974.42
682.003	3888.41
682.193	3898.65
682.383	3921.18
682.573	3841.31
682.764	3935.51
682.954	3869.98
683.144	3855.64
683.334	3919.13
683.524	3759.39
683.714	3896.6
683.904	3904.79
684.094	3849.5
684.284	3820.83
684.474	3665.18
684.664	3767.58
684.854	3876.12
685.044	3728.67
685.234	3757.34
685.424	3794.2
685.614	3794.2
685.804	3659.04
685.994	3702.04
686.184	3740.96
686.374	3730.72
686.564	3681.57
686.753	3702.04
686.943	3517.73
687.133	3650.85
687.323	3663.13
687.513	3743
687.702	3616.03
687.892	3542.3
688.082	3650.85
688.272	3632.41
688.461	3738.91
688.651	3734.81
688.841	3671.33
689.03	3667.23
689.22	3558.69
689.41	3589.41
689.599	3499.3
689.789	3679.52
689.979	3579.17
690.168	3644.7
690.358	3685.66
690.547	3519.78
690.737	3730.72
690.926	3697.95
691.116	3523.87
691.305	3628.32
691.495	3564.83
691.684	3624.22
691.874	3634.46
692.063	3527.97
692.252	3679.52
692.442	3628.32
692.631	3527.97
692.82	3642.65
693.01	3540.26
693.199	3525.92
693.388	3450.14
693.578	3609.89
693.767	3646.75
693.956	3564.83
694.146	3519.78
694.335	3423.52
694.524	3423.52
694.713	3525.92
694.902	3421.47
695.092	3458.34
695.281	3530.02
695.47	3444
695.659	3495.2
695.848	3448.1
696.037	3296.55
696.226	3493.15
696.415	3515.68
696.604	3419.43
696.793	3288.36
696.982	3525.92
697.171	3425.57
697.36	3360.03
697.549	3431.71
697.738	3417.38
697.927	3437.86
698.116	3394.85
698.305	3339.55
698.494	3429.66
698.683	3378.47
698.872	3392.8
699.061	3456.29
699.25	3437.86
699.438	3314.98
699.627	3405.09
699.816	3378.47
700.005	3347.75
700.193	3290.4
700.382	3405.09
700.571	3362.08
700.76	3364.13
700.948	3198.24
701.137	3343.65
701.326	3263.78
701.514	3214.63
701.703	3208.48
701.892	3263.78
702.08	3173.67
702.269	3222.82
702.457	3241.25
702.646	3251.49
702.834	3136.81
703.023	3085.61
703.212	3142.95
703.4	3171.62
703.589	3034.41
703.777	3198.24
703.965	3081.51
704.154	3099.94
704.342	2936.1
704.531	3024.17
704.719	3009.83
704.907	2950.44
705.096	2977.06
705.284	3011.88
705.472	2903.34
705.661	2993.45
705.849	2975.02
706.037	3142.95
706.226	3034.41
706.414	2903.34
706.602	2970.92
706.79	2880.81
706.979	2940.2
707.167	2919.72
707.355	2864.43
707.543	2798.89
707.731	2917.67
707.919	2805.03
708.107	2864.43
708.296	2794.79
708.484	2792.75
708.672	2809.13
708.86	2805.03
709.048	2747.69
709.236	2737.45
709.424	2739.5
709.612	2813.23
709.8	2684.2
709.988	2592.05
710.176	2608.43
710.364	2680.11
710.551	2639.15
710.739	2694.44
710.927	2530.61
711.115	2495.79
711.303	2542.89
711.491	2571.57
711.679	2536.75
711.866	2436.4
712.054	2487.6
712.242	2583.85
712.43	2534.7
712.617	2571.57
712.805	2536.75
712.993	2499.89
713.181	2497.84
713.368	2446.64
713.556	2540.85
713.744	2411.82
713.931	2516.27
714.119	2379.06
714.306	2399.54
714.494	2270.51
714.682	2350.39
714.869	2338.1
715.057	2258.23
715.244	2313.52
715.432	2299.19
715.619	2344.24
715.807	2299.19
715.994	2311.47
716.182	2274.61
716.369	2264.37
716.556	2250.03
716.744	2288.95
716.931	2161.97
717.119	2223.41
717.306	2207.03
717.493	2237.75
717.681	2172.21
717.868	2223.41
718.055	2178.36
718.242	2057.53
718.43	2073.91
718.617	2104.63
718.804	2176.31
718.991	2118.96
719.179	2172.21
719.366	2061.62
719.553	1989.94
719.74	2035
719.927	2047.29
720.114	1928.5
720.301	1957.18
720.488	1987.89
720.676	2014.52
720.863	2018.61
721.05	2071.86
721.237	1922.36
721.424	1924.41
721.611	1981.75
721.798	1928.5
721.985	1914.17
722.172	1879.35
722.358	1910.07
722.545	1805.63
722.732	1799.48
722.919	1738.04
723.106	1748.28
723.293	1785.15
723.48	1850.68
723.667	1729.85
723.853	1799.48
724.04	1789.24
724.227	1699.13
724.414	1774.91
724.6	1758.52
724.787	1758.52
724.974	1801.53
725.161	1854.78
725.347	1713.47
725.534	1801.53
725.72	1807.67
725.907	1729.85
726.094	1695.04
726.28	1658.17
726.467	1660.22
726.653	1578.3
726.84	1719.61
727.027	1609.02
727.213	1682.75
727.4	1656.12
727.586	1635.64
727.773	1615.16
727.959	1553.73
728.145	1611.07
728.332	1602.88
728.518	1596.73
728.705	1445.18
728.891	1613.12
729.077	1545.53
729.264	1549.63
729.45	1447.23
729.636	1455.42
729.823	1377.6
730.009	1537.34
730.195	1615.16
730.382	1412.42
730.568	1436.99
730.754	1453.38
730.94	1465.66
731.126	1494.33
731.313	1469.76
731.499	1353.02
731.685	1512.77
731.871	1477.95
732.057	1348.93
732.243	1353.02
732.429	1422.66
732.615	1443.14
732.801	1416.51
732.987	1436.99
733.173	1367.36
733.359	1428.8
733.545	1412.42
733.731	1316.16
733.917	1283.39
734.103	1379.65
734.289	1426.75
734.475	1371.46
734.661	1428.8
734.847	1336.64
735.033	1410.37
735.219	1297.73
735.404	1289.54
735.59	1254.72
735.776	1305.92
735.962	1334.59
736.148	1297.73
736.333	1383.74
736.519	1213.76
736.705	1211.71
736.89	1275.2
737.076	1273.15
737.262	1258.82
737.447	1326.4
737.633	1252.67
737.819	1273.15
738.004	1224
738.19	1254.72
738.375	1207.62
738.561	1279.3
738.747	1238.34
738.932	1224
739.118	1209.67
739.303	1140.04
739.489	1248.58
739.674	1176.9
739.859	1125.7
740.045	1127.75
740.23	1133.89
740.416	1119.56
740.601	1226.05
740.786	1011.01
740.972	1133.89
741.157	1105.22
741.342	974.15
741.528	1234.24
741.713	1193.28
741.898	1082.69
742.084	1076.55
742.269	1119.56
742.454	1064.26
742.639	1125.7
742.824	1078.6
743.01	1041.73
743.195	1041.73
743.38	1041.73
743.565	1060.17
743.75	994.63
743.935	976.2
744.12	949.57
744.305	1043.78
744.49	1023.3
744.675	1002.82
744.86	933.19
745.045	1004.87
745.23	976.2
745.415	978.25
745.6	1002.82
745.785	955.72
745.97	929.1
746.155	1006.92
746.34	961.86
746.525	881.99
746.71	877.9
746.895	929.1
747.079	904.52
747.264	904.52
747.449	961.86
747.634	906.57
747.819	900.42
748.003	902.47
748.188	970.05
748.373	959.81
748.557	869.7
748.742	933.19
748.927	771.4
749.111	816.46
749.296	830.79
749.481	806.22
749.665	871.75
749.85	881.99
750.034	859.46
750.219	820.55
750.404	847.18
750.588	812.36
750.773	855.37
750.957	783.69
751.141	896.33
751.326	806.22
751.51	763.21
751.695	851.27
751.879	701.77
752.064	783.69
752.248	759.11
752.432	744.78
752.617	841.03
752.801	738.63
752.985	683.34
753.17	830.79
753.354	763.21
753.538	761.16
753.722	714.06
753.907	830.79
754.091	679.24
754.275	740.68
754.459	732.49
754.643	611.66
754.828	623.95
755.012	732.49
755.196	675.15
755.38	732.49
755.564	617.8
755.748	738.63
755.932	619.85
756.116	628.04
756.3	660.81
756.484	607.56
756.668	646.48
756.852	591.18
757.036	623.95
757.22	619.85
757.404	621.9
757.588	554.32
757.772	642.38
757.956	703.82
758.14	646.48
758.323	701.77
758.507	662.86
758.691	650.57
758.875	580.94
759.059	642.38
759.242	537.93
759.426	646.48
759.61	585.04
759.794	521.55
759.977	582.99
760.161	589.13
760.345	576.84
760.528	580.94
760.712	607.56
760.895	560.46
761.079	564.56
761.263	529.74
761.446	601.42
761.63	478.54
761.813	531.79
761.997	658.76
762.18	503.12
762.364	638.28
762.547	605.52
762.731	552.27
762.914	537.93
763.098	593.23
763.281	505.17
763.464	572.75
763.648	568.65
763.831	556.36
764.015	531.79
764.198	552.27
764.381	572.75
764.564	556.36
764.748	499.02
764.931	560.46
765.114	468.3
765.297	574.8
765.481	535.89
765.664	513.36
765.847	509.26
766.03	523.6
766.213	537.93
766.397	578.89
766.58	482.64
766.763	585.04
766.946	478.54
767.129	521.55
767.312	451.92
767.495	441.68
767.678	439.63
767.861	513.36
768.044	533.84
768.227	568.65
768.41	546.12
768.593	595.28
768.776	462.16
768.959	591.18
769.142	513.36
769.324	533.84
769.507	503.12
769.69	533.84
769.873	482.64
770.056	425.29
770.239	486.73
770.421	511.31
770.604	488.78
770.787	486.73
770.97	505.17
771.152	486.73
771.335	482.64
771.518	509.26
771.7	505.17
771.883	449.87
772.066	486.73
772.248	511.31
772.431	456.01
772.613	421.2
772.796	447.82
772.978	496.97
773.161	554.32
773.343	529.74
773.526	478.54
773.708	437.58
773.891	476.49
774.073	415.05
774.256	433.49
774.438	441.68
774.621	462.16
774.803	499.02
774.985	445.77
775.168	441.68
775.35	456.01
775.532	472.4
775.715	380.24
775.897	423.25
776.079	398.67
776.261	513.36
776.444	384.34
776.626	494.93
776.808	380.24
776.99	376.14
777.173	396.62
777.355	437.58
777.537	367.95
777.719	408.91
777.901	326.99
778.083	382.29
778.265	363.86
778.447	445.77
778.629	370
778.811	398.67
778.993	314.7
779.175	408.91
779.357	337.23
779.539	326.99
779.721	347.47
779.903	402.77
780.085	386.38
780.267	406.86
780.449	349.52
780.631	318.8
780.812	372.05
780.994	380.24
781.176	267.6
781.358	363.86
781.54	345.42
781.721	386.38
781.903	333.14
782.085	400.72
782.267	308.56
782.448	363.86
782.63	351.57
782.812	312.66
782.993	257.36
783.175	339.28
783.357	300.37
783.538	271.7
783.72	337.23
783.901	281.94
784.083	335.18
784.264	372.05
784.446	294.22
784.627	267.6
784.809	341.33
784.99	304.46
785.172	247.12
785.353	308.56
785.535	265.55
785.716	261.46
785.897	312.66
786.079	335.18
786.26	320.85
786.441	226.64
786.623	232.79
786.804	257.36
786.985	298.32
787.167	283.98
787.348	308.56
787.529	341.33
787.71	281.94
787.891	255.31
788.073	302.42
788.254	259.41
788.435	290.13
788.616	257.36
788.797	224.59
788.978	304.46
789.159	288.08
789.34	310.61
789.522	273.75
789.703	310.61
789.884	179.54
790.065	232.79
790.246	240.98
790.427	224.59
790.607	193.87
790.788	245.07
790.969	240.98
791.15	277.84
791.331	216.4
791.512	234.83
791.693	206.16
791.874	273.75
792.054	261.46
792.235	300.37
792.416	177.49
792.597	224.59
792.778	218.45
792.958	261.46
793.139	216.4
793.32	187.73
793.5	226.64
793.681	257.36
793.862	210.26
794.042	286.03
794.223	181.59
794.404	259.41
794.584	191.83
794.765	175.44
794.945	210.26
795.126	200.02
795.306	210.26
795.487	234.83
795.667	197.97
795.848	224.59
796.028	171.35
796.209	163.15
796.389	187.73
796.57	197.97
796.75	228.69
796.93	261.46
797.111	236.88
797.291	204.11
797.471	210.26
797.652	132.44
797.832	165.2
798.012	159.06
798.192	185.68
798.373	187.73
798.553	138.58
798.733	154.96
798.913	200.02
799.093	120.15
799.274	161.11
799.454	195.92
799.634	218.45
799.814	146.77
799.994	154.96
800.174	253.27
800.354	130.39
800.534	159.06
800.714	187.73
800.894	157.01
801.074	150.87
801.254	177.49
801.434	210.26
801.614	140.63
801.794	165.2
801.974	372.05
802.154	126.29
802.334	202.07
802.514	193.87
802.693	193.87
802.873	191.83
803.053	148.82
803.233	226.64
803.413	138.58
803.592	146.77
803.772	118.1
803.952	71
804.131	124.24
804.311	144.72
804.491	95.57
804.67	187.73
804.85	179.54
805.03	128.34
805.209	159.06
805.389	142.68
805.568	189.78
805.748	175.44
805.928	142.68
806.107	120.15
806.287	183.63
806.466	240.98
806.646	140.63
806.825	175.44
807.004	142.68
807.184	228.69
807.363	173.39
807.543	159.06
807.722	71
807.901	152.91
808.081	99.67
808.26	132.44
808.439	124.24
808.619	187.73
808.798	126.29
808.977	111.96
809.156	134.48
809.336	132.44
809.515	167.25
809.694	120.15
809.873	77.14
810.052	193.87
810.231	81.24
810.411	154.96
810.59	114
810.769	97.62
810.948	138.58
811.127	120.15
811.306	73.04
811.485	146.77
811.664	154.96
811.843	44.37
812.022	77.14
812.201	159.06
812.38	87.38
812.559	120.15
812.737	148.82
812.916	89.43
813.095	183.63
813.274	165.2
813.453	142.68
813.632	122.2
813.811	175.44
813.989	81.24
814.168	161.11
814.347	193.87
814.526	68.95
814.704	89.43
814.883	128.34
815.062	85.33
815.24	154.96
815.419	58.71
815.598	120.15
815.776	95.57
815.955	120.15
816.133	130.39
816.312	68.95
816.49	103.76
816.669	152.91
816.847	114
817.026	114
817.204	114
817.383	60.76
817.561	103.76
817.74	206.16
817.918	175.44
818.097	114
818.275	42.32
818.453	130.39
818.632	54.61
818.81	95.57
818.988	91.48
819.167	64.85
819.345	142.68
819.523	68.95
819.701	114
819.879	138.58
820.058	77.14
820.236	85.33
820.414	36.18
820.592	81.24
820.77	68.95
820.948	138.58
821.127	95.57
821.305	103.76
821.483	93.52
821.661	85.33
821.839	144.72
822.017	103.76
822.195	79.19
822.373	116.05
822.551	154.96
822.729	73.04
822.907	81.24
823.085	79.19
823.262	111.96
823.44	93.52
823.618	73.04
823.796	118.1
823.974	111.96
824.152	60.76
824.329	77.14
824.507	122.2
824.685	99.67
824.863	148.82
825.04	95.57
825.218	109.91
825.396	134.48
825.574	73.04
825.751	89.43
825.929	150.87
826.107	105.81
826.284	60.76
826.462	62.8
826.639	130.39
826.817	56.66
826.994	77.14
827.172	-8.87
827.349	87.38
827.527	36.18
827.704	128.34
827.882	132.44
828.059	111.96
828.237	118.1
828.414	97.62
828.591	38.23
828.769	109.91
828.946	73.04
829.124	118.1
829.301	73.04
829.478	58.71
829.655	62.8
829.833	64.85
830.01	120.15
830.187	97.62
830.364	97.62
830.542	109.91
830.719	60.76
830.896	56.66
831.073	46.42
831.25	60.76
831.427	91.48
831.604	38.23
831.782	60.76
831.959	99.67
832.136	71
832.313	111.96
832.49	62.8
832.667	105.81
832.844	1.37
833.021	87.38
833.198	109.91
833.374	68.95
833.551	27.99
833.728	93.52
833.905	109.91
834.082	116.05
834.259	-10.92
834.436	62.8
834.612	97.62
834.789	87.38
834.966	54.61
835.143	15.7
835.319	62.8
835.496	56.66
835.673	83.28
835.85	79.19
836.026	85.33
836.203	58.71
836.38	34.13
836.556	95.57
836.733	81.24
836.909	62.8
837.086	50.52
837.262	42.32
837.439	44.37
837.616	58.71
837.792	-2.73
837.968	27.99
838.145	42.32
838.321	89.43
838.498	52.56
838.674	107.86
838.851	60.76
839.027	79.19
839.203	79.19
839.38	85.33
839.556	40.28
839.732	103.76
839.909	-10.92
840.085	44.37
840.261	17.75
840.437	93.52
840.614	50.52
840.79	40.28
840.966	73.04
841.142	38.23
841.318	93.52
841.494	85.33
841.671	40.28
841.847	34.13
842.023	105.81
842.199	71
842.375	103.76
842.551	15.7
842.727	-6.83
842.903	54.61
843.079	73.04
843.255	23.89
843.431	-21.16
843.607	134.48
843.783	7.51
843.959	52.56
844.134	44.37
844.31	85.33
844.486	36.18
844.662	25.94
844.838	7.51
845.013	118.1
845.189	9.56
845.365	42.32
845.541	60.76
845.716	109.91
845.892	79.19
846.068	103.76
846.244	38.23
846.419	-4.78
846.595	7.51
846.77	23.89
846.946	52.56
847.122	5.46
847.297	46.42
847.473	56.66
847.648	58.71
847.824	30.04
847.999	-31.4
848.175	11.61
848.35	73.04
848.526	138.58
848.701	58.71
848.876	93.52
849.052	54.61
849.227	48.47
849.403	68.95
849.578	32.08
849.753	68.95
849.929	81.24
850.104	58.71
850.279	73.04
850.454	-0.68
850.63	85.33
850.805	81.24
850.98	38.23
851.155	77.14
851.33	48.47
851.505	15.7
851.681	97.62
851.856	13.65
852.031	91.48
852.206	58.71
852.381	79.19
852.556	34.13
852.731	-8.87
852.906	-2.73
853.081	81.24
853.256	75.09
853.431	73.04
853.606	11.61
853.781	42.32
853.956	64.85
854.131	38.23
854.305	60.76
854.48	87.38
854.655	-21.16
854.83	-86.7
855.005	50.52
855.18	66.9
855.354	134.48
855.529	36.18
855.704	85.33
855.879	50.52
856.053	103.76
856.228	85.33
856.403	85.33
856.577	36.18
856.752	-45.74
856.926	-45.74
857.101	11.61
857.276	58.71
857.45	46.42
857.625	144.72
857.799	42.32
857.974	58.71
858.148	-43.69
858.323	77.14
858.497	-12.97
858.672	52.56
858.846	-17.07
859.02	54.61
859.195	97.62
859.369	17.75
859.543	152.91
859.718	79.19
859.892	19.8
860.066	46.42
860.241	68.95
860.415	30.04
860.589	62.8
860.763	58.71
860.938	-35.5
861.112	44.37
861.286	68.95
861.46	64.85
861.634	-12.97
861.808	95.57
861.982	48.47
862.157	25.94
862.331	48.47
862.505	25.94
862.679	42.32
862.853	85.33
863.027	7.51
863.201	77.14
863.375	71
863.549	13.65
863.722	97.62
863.896	73.04
864.07	97.62
864.244	-4.78
864.418	48.47
864.592	83.28
864.766	36.18
864.939	30.04
865.113	54.61
865.287	38.23
865.461	54.61
865.634	19.8
865.808	77.14
865.982	64.85
866.156	75.09
866.329	-12.97
866.503	17.75
866.676	38.23
866.85	140.63
867.024	73.04
867.197	54.61
867.371	42.32
867.544	1.37
867.718	27.99
867.891	83.28
868.065	21.84
868.238	30.04
868.412	126.29
868.585	-37.55
868.759	103.76
868.932	-51.88
869.105	30.04
869.279	81.24
869.452	75.09
869.625	38.23
869.799	60.76
869.972	-4.78
870.145	13.65
870.319	60.76
870.492	68.95
870.665	75.09
870.838	15.7
871.011	-2.73
871.185	-19.11
871.358	-17.07
871.531	73.04
871.704	-0.68
871.877	38.23
872.05	-31.4
872.223	73.04
872.396	15.7
872.569	54.61
872.742	68.95
872.915	1.37
873.088	-35.5
873.261	71
873.434	-45.74
873.607	-10.92
873.78	-21.16
873.953	48.47
874.126	21.84
874.299	79.19
874.471	3.41
874.644	5.46
874.817	5.46
874.99	19.8
875.163	58.71
875.335	27.99
875.508	52.56
875.681	38.23
875.853	50.52
876.026	52.56
876.199	89.43
876.371	23.89
876.544	3.41
876.717	44.37
876.889	52.56
877.062	36.18
877.234	48.47
877.407	32.08
877.579	32.08
877.752	54.61
877.924	44.37
878.097	62.8
878.269	66.9
878.442	-6.83
878.614	-4.78
878.786	77.14
878.959	21.84
879.131	44.37
879.303	56.66
879.476	-12.97
879.648	83.28
879.82	95.57
879.993	5.46
880.165	-41.64
880.337	9.56
880.509	7.51
880.681	-2.73
880.854	32.08
881.026	58.71
881.198	40.28
881.37	40.28
881.542	122.2
881.714	34.13
881.886	120.15
882.058	32.08
882.23	40.28
882.402	-43.69
882.574	103.76
882.746	44.37
882.918	93.52
883.09	-0.68
883.262	75.09
883.434	23.89
883.606	75.09
883.778	-12.97
883.95	83.28
884.122	-12.97
884.293	66.9
884.465	44.37
884.637	38.23
884.809	38.23
884.98	-15.02
885.152	30.04
885.324	77.14
885.496	-2.73
885.667	81.24
885.839	32.08
886.011	95.57
886.182	19.8
886.354	-8.87
886.525	32.08
886.697	13.65
886.869	-27.31
887.04	40.28
887.212	46.42
887.383	73.04
887.555	17.75
887.726	15.7
887.897	40.28
888.069	5.46
888.24	30.04
888.412	27.99
888.583	-0.68
888.754	40.28
888.926	21.84
889.097	21.84
889.268	-8.87
889.44	13.65
889.611	34.13
889.782	83.28
889.953	34.13
890.125	52.56
890.296	44.37
890.467	109.91
890.638	23.89
890.809	5.46
890.98	-4.78
891.151	-4.78
891.323	-39.59
891.494	75.09
891.665	27.99
891.836	101.72
892.007	97.62
892.178	7.51
892.349	83.28
892.52	77.14
892.691	27.99
892.862	71
893.032	-45.74
893.203	17.75
893.374	-37.55
893.545	11.61
893.716	-23.21
893.887	64.85
894.057	46.42
894.228	13.65
894.399	13.65
894.57	79.19
894.74	32.08
894.911	-10.92
895.082	-0.68
895.253	5.46
895.423	3.41
895.594	138.58
895.764	46.42
895.935	89.43
896.106	19.8
896.276	44.37
896.447	3.41
896.617	11.61
896.788	-6.83
896.958	-12.97
897.129	97.62
897.299	107.86
897.47	48.47
897.64	11.61
897.81	32.08
897.981	15.7
898.151	-8.87
898.322	34.13
898.492	75.09
898.662	48.47
898.832	-10.92
899.003	52.56
899.173	32.08
899.343	56.66
899.513	11.61
