Data from USB4F104151__37__13-53-12-659.txt Node

Date: Thu Mar 13 13:53:12 EDT 2025
User: louis
Spectrometer: USB4F10415
Trigger mode: 4
Integration Time (sec): 1.000000E-2
Scans to average: 1
Electric dark correction enabled: true
Nonlinearity correction enabled: false
Boxcar width: 0
XAxis mode: Wavelengths
Number of Pixels in Spectrum: 3648
>>>>>Begin Spectral Data<<<<<
178.204	3.93
178.424	3.93
178.644	3.93
178.864	-75.95
179.084	-20.65
179.304	-8.36
179.524	14.17
179.744	-65.71
179.964	-2.22
180.184	30.55
180.404	-32.94
180.624	-43.18
180.844	3.93
181.064	-32.94
181.283	85.84
181.503	-4.27
181.723	55.12
181.943	-30.89
182.163	75.6
182.383	-37.03
182.602	1.88
182.822	42.84
183.042	-39.08
183.262	55.12
183.482	26.45
183.701	10.07
183.921	28.5
184.141	16.21
184.361	-14.51
184.58	-16.55
184.8	-8.36
185.02	46.93
185.239	26.45
185.459	-55.47
185.679	42.84
185.898	-12.46
186.118	40.79
186.338	46.93
186.557	24.4
186.777	44.88
186.997	10.07
187.216	53.08
187.436	59.22
187.655	-24.75
187.875	-14.51
188.095	22.36
188.314	32.6
188.534	14.17
188.753	18.26
188.973	-2.22
189.192	44.88
189.412	8.02
189.631	24.4
189.851	-24.75
190.07	18.26
190.29	-61.61
190.509	-26.79
190.729	-43.18
190.948	-8.36
191.168	63.32
191.387	55.12
191.607	-6.31
191.826	28.5
192.045	18.26
192.265	38.74
192.484	51.03
192.704	32.6
192.923	26.45
193.142	-45.23
193.362	22.36
193.581	10.07
193.8	85.84
194.02	5.97
194.239	34.64
194.458	20.31
194.678	44.88
194.897	51.03
195.116	-53.42
195.335	46.93
195.555	-22.7
195.774	-2.22
195.993	-0.17
196.212	3.93
196.432	30.55
196.651	-34.99
196.87	20.31
197.089	61.27
197.308	-16.55
197.528	-2.22
197.747	-43.18
197.966	38.74
198.185	18.26
198.404	51.03
198.623	18.26
198.842	40.79
199.062	-6.31
199.281	44.88
199.5	36.69
199.719	3.93
199.938	-8.36
200.157	-65.71
200.376	-20.65
200.595	14.17
200.814	38.74
201.033	124.76
201.252	-12.46
201.471	12.12
201.69	14.17
201.909	-2.22
202.128	55.12
202.347	-57.51
202.566	55.12
202.785	12.12
203.004	1.88
203.223	34.64
203.442	85.84
203.661	-100.52
203.879	22.36
204.098	46.93
204.317	-8.36
204.536	36.69
204.755	-49.32
204.974	73.56
205.193	34.64
205.411	14.17
205.63	26.45
205.849	20.31
206.068	96.08
206.287	75.6
206.505	-22.7
206.724	28.5
206.943	-30.89
207.162	16.21
207.381	51.03
207.599	3.93
207.818	53.08
208.037	-12.46
208.255	-0.17
208.474	32.6
208.693	-94.38
208.911	55.12
209.13	38.74
209.349	81.75
209.567	-28.84
209.786	63.32
210.005	30.55
210.223	-45.23
210.442	-18.6
210.661	5.97
210.879	42.84
211.098	100.18
211.316	8.02
211.535	65.36
211.753	36.69
211.972	5.97
212.191	20.31
212.409	-8.36
212.628	-20.65
212.846	5.97
213.065	18.26
213.283	59.22
213.502	26.45
213.72	16.21
213.938	57.17
214.157	-4.27
214.375	46.93
214.594	1.88
214.812	-20.65
215.031	94.04
215.249	59.22
215.467	71.51
215.686	24.4
215.904	26.45
216.122	-20.65
216.341	22.36
216.559	-24.75
216.778	100.18
216.996	40.79
217.214	24.4
217.432	-37.03
217.651	65.36
217.869	1.88
218.087	79.7
218.306	-16.55
218.524	1.88
218.742	12.12
218.96	-8.36
219.179	10.07
219.397	22.36
219.615	69.46
219.833	-2.22
220.051	63.32
220.27	75.6
220.488	48.98
220.706	14.17
220.924	24.4
221.142	42.84
221.36	12.12
221.578	-0.17
221.796	3.93
222.015	32.6
222.233	16.21
222.451	-8.36
222.669	-39.08
222.887	53.08
223.105	-10.41
223.323	-6.31
223.541	-41.13
223.759	67.41
223.977	5.97
224.195	53.08
224.413	118.61
224.631	51.03
224.849	-65.71
225.067	51.03
225.285	18.26
225.503	-14.51
225.721	-20.65
225.939	-57.51
226.157	32.6
226.375	-10.41
226.592	-8.36
226.81	51.03
227.028	16.21
227.246	14.17
227.464	32.6
227.682	96.08
227.9	20.31
228.117	18.26
228.335	32.6
228.553	73.56
228.771	38.74
228.989	40.79
229.206	24.4
229.424	-30.89
229.642	44.88
229.86	32.6
230.077	-18.6
230.295	46.93
230.513	10.07
230.731	30.55
230.948	-12.46
231.166	42.84
231.384	32.6
231.601	-16.55
231.819	-34.99
232.037	-18.6
232.254	85.84
232.472	-8.36
232.689	34.64
232.907	16.21
233.125	34.64
233.342	20.31
233.56	-53.42
233.777	5.97
233.995	32.6
234.213	102.23
234.43	-0.17
234.648	14.17
234.865	42.84
235.083	-6.31
235.3	34.64
235.518	-0.17
235.735	51.03
235.953	-10.41
236.17	-37.03
236.388	75.6
236.605	-47.27
236.822	71.51
237.04	44.88
237.257	-39.08
237.475	26.45
237.692	-6.31
237.909	57.17
238.127	51.03
238.344	51.03
238.562	-49.32
238.779	24.4
238.996	108.37
239.214	61.27
239.431	14.17
239.648	71.51
239.865	51.03
240.083	42.84
240.3	10.07
240.517	110.42
240.735	20.31
240.952	42.84
241.169	63.32
241.386	-32.94
241.603	-4.27
241.821	-37.03
242.038	118.61
242.255	-24.75
242.472	83.8
242.689	26.45
242.907	36.69
243.124	-10.41
243.341	48.98
243.558	26.45
243.775	-24.75
243.992	-18.6
244.209	10.07
244.426	102.23
244.643	65.36
244.86	59.22
245.078	-12.46
245.295	55.12
245.512	16.21
245.729	38.74
245.946	5.97
246.163	26.45
246.38	116.56
246.597	8.02
246.814	48.98
247.031	14.17
247.248	8.02
247.464	71.51
247.681	30.55
247.898	28.5
248.115	26.45
248.332	-22.7
248.549	12.12
248.766	26.45
248.983	-20.65
249.2	16.21
249.417	22.36
249.633	14.17
249.85	34.64
250.067	75.6
250.284	63.32
250.501	-2.22
250.717	16.21
250.934	102.23
251.151	65.36
251.368	63.32
251.585	32.6
251.801	40.79
252.018	65.36
252.235	-43.18
252.451	18.26
252.668	12.12
252.885	53.08
253.102	-4.27
253.318	-8.36
253.535	-34.99
253.752	10.07
253.968	-14.51
254.185	26.45
254.401	-18.6
254.618	77.65
254.835	79.7
255.051	3.93
255.268	-26.79
255.484	87.89
255.701	69.46
255.917	38.74
256.134	30.55
256.351	79.7
256.567	22.36
256.784	-32.94
257	20.31
257.217	83.8
257.433	-47.27
257.65	44.88
257.866	12.12
258.082	1.88
258.299	51.03
258.515	-2.22
258.732	73.56
258.948	3.93
259.165	-75.95
259.381	87.89
259.597	24.4
259.814	10.07
260.03	-32.94
260.246	18.26
260.463	59.22
260.679	48.98
260.895	-51.37
261.112	5.97
261.328	-16.55
261.544	34.64
261.761	44.88
261.977	16.21
262.193	-4.27
262.409	24.4
262.626	16.21
262.842	18.26
263.058	12.12
263.274	16.21
263.49	32.6
263.707	32.6
263.923	20.31
264.139	-2.22
264.355	16.21
264.571	61.27
264.787	-43.18
265.004	-45.23
265.22	-6.31
265.436	5.97
265.652	34.64
265.868	38.74
266.084	34.64
266.3	42.84
266.516	-6.31
266.732	30.55
266.948	34.64
267.164	16.21
267.38	10.07
267.596	51.03
267.812	22.36
268.028	18.26
268.244	48.98
268.46	71.51
268.676	69.46
268.892	89.94
269.108	8.02
269.324	36.69
269.54	1.88
269.756	30.55
269.972	16.21
270.188	32.6
270.403	18.26
270.619	1.88
270.835	-22.7
271.051	5.97
271.267	73.56
271.483	-8.36
271.698	1.88
271.914	10.07
272.13	53.08
272.346	-18.6
272.562	34.64
272.777	48.98
272.993	-8.36
273.209	16.21
273.425	42.84
273.64	-4.27
273.856	98.13
274.072	63.32
274.287	55.12
274.503	8.02
274.719	38.74
274.934	-43.18
275.15	28.5
275.366	57.17
275.581	-24.75
275.797	10.07
276.012	26.45
276.228	44.88
276.444	12.12
276.659	30.55
276.875	5.97
277.09	116.56
277.306	-75.95
277.521	94.04
277.737	-10.41
277.952	61.27
278.168	26.45
278.383	65.36
278.599	5.97
278.814	65.36
279.03	18.26
279.245	-53.42
279.461	79.7
279.676	77.65
279.892	12.12
280.107	1.88
280.322	16.21
280.538	30.55
280.753	61.27
280.969	8.02
281.184	51.03
281.399	32.6
281.615	110.42
281.83	51.03
282.045	-4.27
282.26	-10.41
282.476	-16.55
282.691	12.12
282.906	-37.03
283.122	69.46
283.337	63.32
283.552	51.03
283.767	53.08
283.983	110.42
284.198	73.56
284.413	55.12
284.628	42.84
284.843	-47.27
285.058	14.17
285.274	-0.17
285.489	30.55
285.704	-6.31
285.919	57.17
286.134	42.84
286.349	-41.13
286.564	44.88
286.779	-4.27
286.995	30.55
287.21	24.4
287.425	44.88
287.64	28.5
287.855	26.45
288.07	8.02
288.285	67.41
288.5	55.12
288.715	53.08
288.93	-14.51
289.145	-4.27
289.36	-73.9
289.575	77.65
289.79	65.36
290.004	16.21
290.219	28.5
290.434	-43.18
290.649	-6.31
290.864	-47.27
291.079	1.88
291.294	-4.27
291.509	24.4
291.724	5.97
291.938	14.17
292.153	10.07
292.368	63.32
292.583	20.31
292.798	32.6
293.012	14.17
293.227	-30.89
293.442	10.07
293.657	-18.6
293.871	28.5
294.086	108.37
294.301	18.26
294.516	85.84
294.73	-41.13
294.945	77.65
295.16	5.97
295.374	18.26
295.589	-18.6
295.804	-12.46
296.018	59.22
296.233	24.4
296.447	5.97
296.662	36.69
296.877	40.79
297.091	-2.22
297.306	20.31
297.52	42.84
297.735	14.17
297.949	-61.61
298.164	48.98
298.378	-20.65
298.593	-20.65
298.807	24.4
299.022	14.17
299.236	22.36
299.451	63.32
299.665	-8.36
299.88	12.12
300.094	26.45
300.309	63.32
300.523	26.45
300.737	26.45
300.952	32.6
301.166	-20.65
301.381	34.64
301.595	-12.46
301.809	-30.89
302.024	-30.89
302.238	-0.17
302.452	77.65
302.667	51.03
302.881	12.12
303.095	96.08
303.309	51.03
303.524	-8.36
303.738	77.65
303.952	-47.27
304.166	-26.79
304.381	12.12
304.595	46.93
304.809	73.56
305.023	26.45
305.237	98.13
305.452	81.75
305.666	40.79
305.88	8.02
306.094	14.17
306.308	3.93
306.522	10.07
306.736	5.97
306.95	3.93
307.164	59.22
307.379	24.4
307.593	44.88
307.807	12.12
308.021	-41.13
308.235	-0.17
308.449	30.55
308.663	38.74
308.877	65.36
309.091	-30.89
309.305	51.03
309.519	24.4
309.733	122.71
309.947	87.89
310.161	61.27
310.374	59.22
310.588	132.95
310.802	16.21
311.016	67.41
311.23	1.88
311.444	-30.89
311.658	14.17
311.872	77.65
312.085	38.74
312.299	42.84
312.513	20.31
312.727	-0.17
312.941	-49.32
313.154	30.55
313.368	30.55
313.582	40.79
313.796	-16.55
314.009	10.07
314.223	-39.08
314.437	42.84
314.651	55.12
314.864	32.6
315.078	91.99
315.292	59.22
315.505	71.51
315.719	38.74
315.933	30.55
316.146	40.79
316.36	46.93
316.573	-16.55
316.787	-8.36
317.001	16.21
317.214	-20.65
317.428	-22.7
317.641	-16.55
317.855	24.4
318.068	-12.46
318.282	-6.31
318.495	57.17
318.709	114.52
318.922	94.04
319.136	75.6
319.349	44.88
319.563	63.32
319.776	83.8
319.99	73.56
320.203	34.64
320.417	55.12
320.63	22.36
320.843	59.22
321.057	-2.22
321.27	14.17
321.483	-0.17
321.697	34.64
321.91	55.12
322.124	71.51
322.337	22.36
322.55	65.36
322.763	-12.46
322.977	-12.46
323.19	12.12
323.403	65.36
323.617	67.41
323.83	12.12
324.043	65.36
324.256	24.4
324.469	61.27
324.683	81.75
324.896	51.03
325.109	30.55
325.322	-32.94
325.535	8.02
325.748	-8.36
325.962	48.98
326.175	48.98
326.388	63.32
326.601	-0.17
326.814	69.46
327.027	-0.17
327.24	34.64
327.453	14.17
327.666	69.46
327.879	44.88
328.092	-6.31
328.305	12.12
328.518	36.69
328.731	61.27
328.944	44.88
329.157	-8.36
329.37	20.31
329.583	63.32
329.796	40.79
330.009	1.88
330.222	-14.51
330.435	53.08
330.648	59.22
330.861	20.31
331.073	36.69
331.286	59.22
331.499	59.22
331.712	34.64
331.925	20.31
332.138	5.97
332.35	-2.22
332.563	-4.27
332.776	91.99
332.989	-8.36
333.202	1.88
333.414	46.93
333.627	22.36
333.84	51.03
334.053	-22.7
334.265	-18.6
334.478	65.36
334.691	61.27
334.903	38.74
335.116	-12.46
335.329	5.97
335.541	-12.46
335.754	34.64
335.966	120.66
336.179	51.03
336.392	-22.7
336.604	104.28
336.817	-30.89
337.029	8.02
337.242	61.27
337.454	5.97
337.667	44.88
337.88	5.97
338.092	18.26
338.305	85.84
338.517	91.99
338.729	36.69
338.942	77.65
339.154	18.26
339.367	1.88
339.579	104.28
339.792	30.55
340.004	38.74
340.217	12.12
340.429	18.26
340.641	-4.27
340.854	98.13
341.066	-2.22
341.278	42.84
341.491	28.5
341.703	14.17
341.915	-4.27
342.128	20.31
342.34	16.21
342.552	26.45
342.764	-30.89
342.977	26.45
343.189	-8.36
343.401	22.36
343.613	44.88
343.826	59.22
344.038	10.07
344.25	73.56
344.462	96.08
344.674	87.89
344.886	24.4
345.099	51.03
345.311	36.69
345.523	73.56
345.735	61.27
345.947	30.55
346.159	55.12
346.371	44.88
346.583	-55.47
346.795	30.55
347.007	63.32
347.219	51.03
347.431	83.8
347.643	14.17
347.855	30.55
348.067	32.6
348.279	-14.51
348.491	-71.85
348.703	22.36
348.915	-8.36
349.127	14.17
349.339	34.64
349.551	48.98
349.763	83.8
349.975	20.31
350.187	51.03
350.399	-8.36
350.61	63.32
350.822	-47.27
351.034	36.69
351.246	34.64
351.458	-10.41
351.669	-10.41
351.881	-16.55
352.093	36.69
352.305	89.94
352.517	69.46
352.728	-28.84
352.94	-4.27
353.152	67.41
353.363	32.6
353.575	40.79
353.787	-2.22
353.999	22.36
354.21	-6.31
354.422	16.21
354.633	104.28
354.845	-41.13
355.057	-16.55
355.268	57.17
355.48	30.55
355.692	34.64
355.903	-16.55
356.115	61.27
356.326	14.17
356.538	73.56
356.749	8.02
356.961	75.6
357.172	46.93
357.384	81.75
357.595	20.31
357.807	-18.6
358.018	69.46
358.23	12.12
358.441	-4.27
358.653	40.79
358.864	24.4
359.075	75.6
359.287	1.88
359.498	-22.7
359.709	51.03
359.921	8.02
360.132	98.13
360.344	14.17
360.555	81.75
360.766	46.93
360.977	30.55
361.189	55.12
361.4	22.36
361.611	22.36
361.823	67.41
362.034	36.69
362.245	26.45
362.456	30.55
362.667	-18.6
362.879	-2.22
363.09	53.08
363.301	-0.17
363.512	-0.17
363.723	8.02
363.935	-4.27
364.146	16.21
364.357	42.84
364.568	40.79
364.779	-8.36
364.99	-10.41
365.201	8.02
365.412	77.65
365.623	61.27
365.834	16.21
366.045	-14.51
366.256	34.64
366.467	1.88
366.678	22.36
366.889	51.03
367.1	3.93
367.311	96.08
367.522	18.26
367.733	48.98
367.944	48.98
368.155	67.41
368.366	32.6
368.577	-22.7
368.788	-30.89
368.999	38.74
369.209	77.65
369.42	61.27
369.631	57.17
369.842	24.4
370.053	69.46
370.264	83.8
370.474	65.36
370.685	26.45
370.896	83.8
371.107	67.41
371.317	55.12
371.528	57.17
371.739	26.45
371.95	51.03
372.16	24.4
372.371	69.46
372.582	24.4
372.792	30.55
373.003	81.75
373.214	24.4
373.424	53.08
373.635	-71.85
373.846	83.8
374.056	55.12
374.267	-18.6
374.477	81.75
374.688	-26.79
374.898	51.03
375.109	67.41
375.319	40.79
375.53	124.76
375.74	59.22
375.951	75.6
376.161	-34.99
376.372	104.28
376.582	26.45
376.793	-8.36
377.003	-24.75
377.214	40.79
377.424	77.65
377.635	5.97
377.845	-12.46
378.055	40.79
378.266	32.6
378.476	61.27
378.686	16.21
378.897	-2.22
379.107	53.08
379.317	53.08
379.528	18.26
379.738	77.65
379.948	55.12
380.158	63.32
380.369	-14.51
380.579	73.56
380.789	-10.41
380.999	81.75
381.21	-16.55
381.42	22.36
381.63	34.64
381.84	24.4
382.05	110.42
382.261	65.36
382.471	3.93
382.681	26.45
382.891	5.97
383.101	110.42
383.311	98.13
383.521	-2.22
383.731	44.88
383.941	122.71
384.151	8.02
384.361	69.46
384.571	-24.75
384.781	69.46
384.991	63.32
385.201	83.8
385.411	110.42
385.621	75.6
385.831	96.08
386.041	46.93
386.251	-43.18
386.461	100.18
386.671	34.64
386.881	18.26
387.091	34.64
387.301	48.98
387.511	51.03
387.72	75.6
387.93	116.56
388.14	55.12
388.35	55.12
388.56	81.75
388.769	63.32
388.979	18.26
389.189	59.22
389.399	14.17
389.609	38.74
389.818	44.88
390.028	67.41
390.238	32.6
390.447	81.75
390.657	77.65
390.867	24.4
391.076	51.03
391.286	67.41
391.496	3.93
391.705	40.79
391.915	87.89
392.125	42.84
392.334	26.45
392.544	102.23
392.753	12.12
392.963	32.6
393.172	151.38
393.382	-18.6
393.591	120.66
393.801	10.07
394.01	94.04
394.22	1.88
394.429	18.26
394.639	61.27
394.848	48.98
395.058	96.08
395.267	114.52
395.477	32.6
395.686	135
395.895	128.85
396.105	87.89
396.314	63.32
396.524	34.64
396.733	44.88
396.942	94.04
397.152	151.38
397.361	102.23
397.57	126.8
397.78	67.41
397.989	120.66
398.198	69.46
398.407	53.08
398.617	75.6
398.826	22.36
399.035	83.8
399.244	149.33
399.453	116.56
399.663	112.47
399.872	147.28
400.081	26.45
400.29	87.89
400.499	30.55
400.708	126.8
400.917	96.08
401.127	63.32
401.336	124.76
401.545	151.38
401.754	73.56
401.963	85.84
402.172	87.89
402.381	124.76
402.59	61.27
402.799	42.84
403.008	116.56
403.217	100.18
403.426	87.89
403.635	63.32
403.844	155.47
404.053	141.14
404.262	61.27
404.471	135
404.68	34.64
404.888	110.42
405.097	139.09
405.306	96.08
405.515	139.09
405.724	139.09
405.933	104.28
406.142	94.04
406.35	145.24
406.559	135
406.768	147.28
406.977	135
407.185	159.57
407.394	153.43
407.603	126.8
407.812	128.85
408.02	169.81
408.229	184.15
408.438	145.24
408.646	132.95
408.855	163.67
409.064	122.71
409.272	214.87
409.481	221.01
409.69	169.81
409.898	245.59
410.107	208.72
410.315	243.54
410.524	216.91
410.733	257.87
410.941	214.87
411.15	270.16
411.358	274.26
411.567	360.27
411.775	210.77
411.984	268.11
412.192	298.83
412.401	292.69
412.609	313.17
412.818	401.23
413.026	347.98
413.234	352.08
413.443	372.56
413.651	450.38
413.86	380.75
414.068	448.33
414.276	427.85
414.485	384.85
414.693	390.99
414.901	464.72
415.11	485.2
415.318	515.92
415.526	444.24
415.734	522.06
415.943	538.45
416.151	569.16
416.359	497.49
416.567	630.6
416.776	603.98
416.984	689.99
417.192	665.42
417.4	585.55
417.608	669.52
417.817	741.19
418.025	763.72
418.233	718.67
418.441	722.76
418.649	831.3
418.857	800.59
419.065	923.46
419.273	853.83
419.481	958.28
419.689	1001.29
419.897	1052.49
420.105	999.24
420.313	1062.73
420.521	1115.97
420.729	1058.63
420.937	1105.73
421.145	1255.23
421.353	1267.52
421.561	1306.43
421.769	1275.71
421.977	1333.06
422.185	1351.49
422.393	1550.14
422.601	1576.77
422.809	1601.34
423.017	1439.55
423.224	1668.92
423.432	1632.06
423.64	1652.54
423.848	1808.19
424.056	1754.94
424.263	1924.92
424.471	1943.35
424.679	1963.83
424.887	2125.62
425.094	2103.09
425.302	2215.73
425.51	2219.83
425.718	2248.5
425.925	2291.51
426.133	2400.05
426.341	2488.11
426.548	2572.08
426.756	2633.52
426.964	2643.76
427.171	2836.27
427.379	2903.85
427.586	2955.05
427.794	3014.44
428.001	3082.02
428.209	3233.57
428.417	3172.13
428.624	3467.04
428.832	3467.04
429.039	3333.92
429.247	3262.24
429.454	3780.38
429.662	3991.32
429.869	3880.73
430.076	4114.2
430.284	3948.31
430.491	4247.32
430.699	4339.48
430.906	4308.76
431.114	4413.2
431.321	4658.96
431.528	4681.49
431.736	4835.08
431.943	5254.92
432.15	5152.52
432.358	5105.42
432.565	5338.88
432.772	5353.22
432.979	5541.63
433.187	5750.53
433.394	5619.46
433.601	6299.38
433.808	6168.31
434.016	6090.49
434.223	6186.74
434.43	6801.13
434.637	6541.04
434.844	7030.51
435.052	7137
435.259	7040.75
435.466	7255.78
435.673	7036.65
435.88	7585.51
436.087	7960.28
436.294	8031.96
436.501	7575.27
436.708	7962.33
436.915	8128.22
437.122	8580.82
437.329	8623.83
437.537	8902.35
437.743	8941.26
437.95	8957.64
438.157	9287.37
438.364	9744.06
438.571	9782.98
438.778	9758.4
438.985	10657.46
439.192	10024.64
439.399	10458.81
439.606	10204.86
439.813	10860.21
440.02	11665.06
440.227	11386.54
440.433	11355.82
440.64	11607.72
440.847	11484.84
441.054	11753.12
441.261	12445.34
441.467	12449.43
441.674	12682.9
441.881	12902.03
442.088	13102.73
442.294	12801.68
442.501	13442.7
442.708	13555.33
442.914	14081.66
443.121	14741.11
443.328	14255.74
443.534	15394.41
443.741	14790.26
443.948	14577.27
444.154	15783.52
444.361	15556.2
444.568	15847.01
444.774	15857.25
444.981	15847.01
445.187	16395.87
445.394	16934.48
445.6	16770.65
445.807	18437.69
446.013	17532.49
446.22	18183.74
446.426	18669.11
446.633	19142.19
446.839	19535.4
447.046	18708.02
447.252	19615.27
447.459	19994.15
447.665	19789.35
447.871	20770.33
448.078	21566.99
448.284	20225.57
448.491	21075.48
448.697	21841.42
448.903	22087.17
449.11	22185.47
449.316	21898.76
449.522	22357.5
449.728	22676.99
449.935	23184.88
450.141	22783.48
450.347	23461.36
450.553	22777.34
450.76	23139.83
450.966	23502.32
451.172	23678.44
451.378	23672.3
451.584	23569.9
451.791	23936.49
451.997	24221.16
452.203	24499.68
452.409	24440.29
452.615	24239.59
452.821	23414.26
453.027	23188.98
453.233	24337.89
453.44	23363.06
453.646	23803.37
453.852	23920.1
454.058	24110.57
454.264	23397.87
454.47	23803.37
454.676	23203.32
454.882	24118.76
455.088	21937.67
455.294	22111.75
455.5	22631.93
455.705	22838.78
455.911	21927.43
456.117	21409.29
456.323	21257.74
456.529	20205.09
456.735	21255.7
456.941	20315.68
457.147	19908.13
457.352	19506.73
457.558	18998.84
457.764	19258.93
457.97	18476.6
458.176	18169.41
458.381	18482.75
458.587	17184.34
458.793	17673.8
458.999	16666.2
459.204	17899.08
459.41	17352.27
459.616	16133.73
459.821	15971.94
460.027	16012.9
460.233	15636.07
460.438	14941.81
460.644	15029.87
460.85	14507.64
461.055	14358.14
461.261	14050.94
461.466	13053.58
461.672	12861.07
461.878	13522.57
462.083	12633.75
462.289	12455.58
462.494	12365.46
462.7	11869.86
462.905	11370.15
463.111	12070.56
463.316	11992.73
463.522	11865.76
463.727	11585.19
463.932	11728.55
464.138	11738.79
464.343	11550.37
464.549	11460.26
464.754	11804.32
464.959	11550.37
465.165	11544.23
465.37	10929.84
465.575	10677.94
465.781	11220.65
465.986	11445.93
466.191	10888.88
466.397	10636.98
466.602	10098.36
466.807	10651.31
467.012	10485.43
467.218	10436.28
467.423	10323.64
467.628	10364.6
467.833	10901.17
468.038	10305.21
468.244	10088.12
468.449	10428.09
468.654	10208.95
468.859	10114.75
469.064	10061.5
469.269	9588.42
469.474	9662.15
469.679	9940.67
469.885	9709.25
470.09	9750.21
470.295	9590.47
470.5	9635.52
470.705	9518.79
470.91	9254.6
471.115	9058
471.32	9277.13
471.525	9225.93
471.73	8941.26
471.935	9113.29
472.139	8679.12
472.344	8949.45
472.549	8562.39
472.754	8589.01
472.959	8541.91
473.164	8439.51
473.369	8158.94
473.574	8658.64
473.778	8601.3
473.983	8437.46
474.188	8302.29
474.393	7917.28
474.598	8087.26
474.802	7847.65
475.007	7956.19
475.212	7823.07
475.417	7722.72
475.621	7409.38
475.826	7614.18
476.031	7384.8
476.235	7446.24
476.44	7460.58
476.645	7343.85
476.849	7272.17
477.054	7403.24
477.259	7007.98
477.463	7067.37
477.668	6838
477.872	6983.4
478.077	6756.08
478.282	6606.58
478.486	6696.69
478.691	6858.48
478.895	6768.37
479.1	6604.53
479.304	6762.22
479.509	6461.17
479.713	6549.23
479.918	6135.54
480.122	6307.57
480.326	6201.08
480.531	6416.12
480.735	6242.04
480.94	6346.48
481.144	6612.72
481.348	6145.78
481.553	6162.17
481.757	6162.17
481.961	6135.54
482.166	6227.7
482.37	6027
482.574	6096.63
482.778	6110.97
482.983	6256.37
483.187	6190.84
483.391	6061.82
483.595	6080.25
483.8	5973.75
484.004	5973.75
484.208	6211.32
484.412	6217.46
484.616	6027
484.821	6153.98
485.025	6020.86
485.229	6147.83
485.433	5930.75
485.637	6065.91
485.841	6100.73
486.045	5957.37
486.249	5965.56
486.453	6080.25
486.657	6151.93
486.861	6172.41
487.065	6078.2
487.269	6072.06
487.473	6008.57
487.677	6225.65
487.881	6072.06
488.085	5992.19
488.289	6147.83
488.493	5977.85
488.697	6166.26
488.901	6029.05
489.105	6137.59
489.309	6317.81
489.512	6184.69
489.716	6346.48
489.92	6143.74
490.124	6131.45
490.328	6293.24
490.531	6008.57
490.735	6186.74
490.939	6344.44
491.143	6326
491.346	6319.86
491.55	6250.23
491.754	6414.07
491.958	6500.08
492.161	6397.68
492.365	6414.07
492.569	6330.1
492.772	6467.31
492.976	6555.38
493.18	6516.47
493.383	6620.91
493.587	6592.24
493.79	6588.14
493.994	6653.68
494.197	6698.74
494.401	6997.74
494.605	6766.32
494.808	6764.27
495.012	6856.43
495.215	6876.91
495.419	7100.14
495.622	6907.63
495.825	7204.58
496.029	7319.27
496.232	7331.56
496.436	7077.61
496.639	7503.59
496.843	7347.94
497.046	7751.39
497.249	7591.65
497.453	7630.56
497.656	7718.62
497.859	7882.46
498.063	7902.94
498.266	8062.68
498.469	7980.76
498.673	7956.19
498.876	8130.27
499.079	8212.18
499.282	8238.81
499.485	8550.1
499.689	8482.52
499.892	8824.53
500.095	8705.74
500.298	8996.56
500.501	8734.42
500.705	9074.38
500.908	9199.3
501.111	9275.08
501.314	9500.36
501.517	9557.7
501.72	9526.98
501.923	9666.24
502.126	9764.54
502.329	10088.12
502.532	9991.87
502.735	10227.39
502.938	10340.02
503.141	10430.13
503.344	10313.4
503.547	10491.57
503.75	10976.94
503.953	10792.62
504.156	11241.13
504.359	11144.88
504.562	11214.51
504.765	11601.57
504.968	11660.96
505.17	11824.8
505.373	11773.6
505.576	12082.84
505.779	12084.89
505.982	12283.55
506.185	12347.03
506.387	12629.65
506.59	12762.77
506.793	12908.18
506.996	12791.44
507.198	13229.71
507.401	13203.08
507.604	13383.31
507.807	13751.94
508.009	13690.5
508.212	13895.3
508.415	13897.35
508.617	14384.76
508.82	14243.45
509.022	14450.3
509.225	14716.53
509.428	14796.4
509.63	14780.02
509.833	15025.78
510.035	15343.21
510.238	15253.1
510.44	15529.58
510.643	15767.14
510.845	15980.13
511.048	15857.25
511.25	16238.17
511.453	16490.07
511.655	17108.56
511.858	17004.11
512.06	16975.44
512.262	17186.38
512.465	17167.95
512.667	17544.78
512.87	17897.03
513.072	17702.47
513.274	18366.01
513.477	18388.54
513.679	18427.45
513.881	18957.88
514.084	19021.36
514.286	18976.31
514.488	19097.14
514.69	19822.12
514.893	19455.53
515.095	19906.09
515.297	20315.68
515.499	20452.89
515.701	20682.27
515.904	20829.72
516.106	21040.66
516.308	21089.81
516.51	21145.11
516.712	21630.48
516.914	21886.47
517.116	22140.42
517.318	22361.6
517.52	22355.46
517.722	22494.72
517.925	22853.11
518.127	23336.43
518.329	23463.41
518.531	23389.68
518.733	24270.31
518.935	24034.79
519.136	24298.98
519.338	24448.48
519.54	24903.13
519.742	25026.01
519.944	25109.97
520.146	25535.95
520.348	25716.17
520.55	25970.12
520.752	26084.81
520.954	26518.98
521.155	26480.07
521.357	26748.35
521.559	26922.43
521.761	27463.09
521.963	27327.92
522.164	27278.77
522.366	27772.33
522.568	28122.54
522.77	28306.85
522.971	28616.1
523.173	28360.1
523.375	28810.65
523.576	28929.44
523.778	28908.96
523.98	29363.61
524.181	29728.14
524.383	29638.03
524.584	30084.49
524.786	30047.63
524.988	30113.16
525.189	30209.42
525.391	30606.72
525.592	30686.59
525.794	30788.99
525.995	30963.07
526.197	31104.38
526.398	31288.7
526.6	31358.33
526.801	31421.81
527.003	32138.6
527.204	31589.75
527.406	32111.98
527.607	32365.93
527.808	32032.11
528.01	31763.82
528.211	32185.71
528.412	32828.77
528.614	33271.13
528.815	32677.22
529.016	32636.26
529.218	32511.33
529.419	32922.97
529.62	33095
529.822	33301.85
530.023	33357.14
530.224	33217.88
530.425	33617.24
530.626	32959.84
530.828	32998.75
531.029	34024.78
531.23	33480.02
531.431	33656.15
531.632	33758.55
531.833	33934.67
532.035	33822.03
532.236	33936.72
532.437	34229.58
532.638	34141.52
532.839	34250.06
533.04	34055.5
533.241	33625.43
533.442	34663.75
533.643	34026.83
533.844	34100.56
534.045	34465.1
534.246	34106.7
534.447	34415.94
534.648	34520.39
534.849	34420.04
535.05	34301.26
535.251	34438.47
535.451	34395.46
535.652	34481.48
535.853	34026.83
536.054	34766.15
536.255	34633.03
536.456	34356.55
536.657	34899.26
536.857	34569.54
537.058	34157.9
537.259	34676.04
537.46	34575.69
537.66	34348.36
537.861	34438.47
538.062	34471.24
538.263	34766.15
538.463	34217.29
538.664	34553.16
538.865	34323.79
539.065	34626.88
539.266	34096.46
539.466	34749.76
539.667	34360.65
539.868	34852.16
540.068	34731.33
540.269	34377.03
540.469	34643.27
540.67	34137.42
540.87	34444.62
541.071	34456.9
541.271	34624.84
541.472	34454.86
541.672	34461
541.873	34241.87
542.073	33989.97
542.274	34407.75
542.474	34780.48
542.675	34248.01
542.875	34676.04
543.075	34397.51
543.276	34012.49
543.476	34688.32
543.676	34104.65
543.877	34536.77
544.077	34207.05
544.277	34454.86
544.478	34178.38
544.678	34555.21
544.878	34432.33
545.078	34397.51
545.279	34295.11
545.479	34475.34
545.679	34135.37
545.879	34688.32
546.079	34073.93
546.28	34274.63
546.48	34272.59
546.68	34268.49
546.88	34254.15
547.08	34192.72
547.28	34467.14
547.48	34032.97
547.68	34112.84
547.88	33897.81
548.081	34239.82
548.281	34162
548.481	33906
548.681	34291.02
548.881	34327.88
549.081	34004.3
549.28	34102.6
549.48	34471.24
549.68	34286.92
549.88	34757.95
550.08	34317.64
550.28	34225.48
550.48	34026.83
550.68	34557.25
550.88	34131.28
551.08	33893.71
551.279	33969.49
551.479	33768.79
551.679	34344.27
551.879	34231.63
552.079	34096.46
552.278	34174.28
552.478	33951.06
552.678	34254.15
552.878	34315.59
553.077	34028.88
553.277	33840.46
553.477	34391.37
553.676	34100.56
553.876	34012.49
554.076	33914.19
554.275	33922.38
554.475	33748.31
554.674	34446.66
554.874	33699.16
555.074	33903.95
555.273	34100.56
555.473	34260.3
555.672	33512.79
555.872	33942.86
556.071	33543.51
556.271	34168.14
556.47	33348.95
556.67	33076.57
556.869	33310.04
557.068	33592.66
557.268	33135.96
557.467	33574.23
557.667	33471.83
557.866	33348.95
558.065	33555.8
558.265	32796
558.464	33039.71
558.663	33095
558.863	32750.95
559.062	33381.72
559.261	32965.98
559.461	33480.02
559.66	32779.62
559.859	32968.03
560.058	32599.4
560.258	32798.05
560.457	32865.63
560.656	32877.92
560.855	32314.73
561.054	32851.3
561.253	31862.13
561.453	32466.28
561.652	32513.38
561.851	32800.1
562.05	32218.47
562.249	32290.15
562.448	32611.68
562.647	31958.38
562.846	31999.34
563.045	32355.69
563.244	31739.25
563.443	32423.27
563.642	31763.82
563.841	31825.26
564.04	31704.43
564.239	32216.43
564.438	31231.35
564.637	32066.92
564.836	31872.37
565.035	31317.37
565.234	31724.91
565.432	31679.86
565.631	31249.78
565.83	31567.22
566.029	30827.9
566.228	31403.38
566.427	31106.43
566.625	31051.13
566.824	30643.59
567.023	30979.45
567.222	30614.91
567.42	30846.33
567.619	30698.88
567.818	30500.23
568.016	30135.69
568.215	30623.11
568.414	30223.75
568.612	30739.84
568.811	29992.33
569.01	30256.52
569.208	29920.65
569.407	30139.79
569.605	29668.75
569.804	29885.84
570.002	29625.75
570.201	29898.13
570.4	29515.15
570.598	29533.59
570.797	29586.83
570.995	29386.13
571.193	29042.07
571.392	29541.78
571.59	29277.59
571.789	29031.83
571.987	29121.94
572.186	28779.93
572.384	28822.94
572.582	29023.64
572.781	29371.8
572.979	28384.68
573.177	28294.57
573.376	28638.62
573.574	28048.81
573.772	28403.11
573.971	28439.97
574.169	27887.02
574.367	27717.04
574.565	28050.86
574.763	27717.04
574.962	27809.2
575.16	27524.53
575.358	27758
575.556	27272.63
575.754	28136.87
575.952	27239.86
576.151	27356.6
576.349	27377.08
576.547	27041.21
576.745	27082.17
576.943	27000.25
577.141	27129.27
577.339	26817.98
577.537	26920.38
577.735	26709.44
577.933	26555.84
578.131	26527.17
578.329	26518.98
578.527	26447.3
578.725	26316.23
578.923	26392
579.121	26131.91
579.319	26359.24
579.516	26148.29
579.714	26418.63
579.912	25957.83
580.11	26062.28
580.308	25648.59
580.506	25617.87
580.704	25550.29
580.901	25456.08
581.099	25859.53
581.297	25210.32
581.495	24960.47
581.692	25599.44
581.89	25165.27
582.088	25370.07
582.285	25179.61
582.483	25370.07
582.681	24841.69
582.878	25023.96
583.076	24614.37
583.274	24774.11
583.471	24583.65
583.669	24546.78
583.866	24468.96
584.064	24866.27
584.262	24190.44
584.459	24301.03
584.657	24188.39
584.854	24083.94
585.052	23780.84
585.249	23928.3
585.447	24100.33
585.644	23987.69
585.841	24028.65
586.039	24061.41
586.236	23784.94
586.434	23496.17
586.631	23537.13
586.828	23363.06
587.026	23404.02
587.223	23553.52
587.42	23008.76
587.618	23520.75
587.815	23012.85
588.012	23123.44
588.21	22734.33
588.407	23197.17
588.604	22975.99
588.801	22924.79
588.999	22699.51
589.196	22984.18
589.393	23033.33
589.59	22605.31
589.787	22404.61
589.984	22275.59
590.182	22248.96
590.379	22312.45
590.576	21880.33
590.773	22154.76
590.97	22107.65
591.167	22160.9
591.364	21978.63
591.561	21859.85
591.758	21521.93
591.955	21702.15
592.152	21964.29
592.349	21616.14
592.546	21650.95
592.743	21804.55
592.94	21065.24
593.137	21120.53
593.334	21380.62
593.531	21007.89
593.727	21245.46
593.924	21335.57
594.121	20915.73
594.318	20997.65
594.515	20604.44
594.712	21087.76
594.908	20735.51
595.105	20932.12
595.302	20487.71
595.499	20760.09
595.696	20661.79
595.892	20612.63
596.089	20837.91
596.286	20223.52
596.482	20495.9
596.679	20182.56
596.876	20547.1
597.072	20456.99
597.269	20424.22
597.466	20053.54
597.662	19881.51
597.859	20112.93
598.055	19959.33
598.252	19852.84
598.448	19760.68
598.645	19469.87
598.841	19590.7
599.038	19471.92
599.234	19527.21
599.431	19332.65
599.627	19258.93
599.824	19295.79
600.02	19195.44
600.217	19396.14
600.413	19045.94
600.609	18902.58
600.806	18886.2
601.002	19138.1
601.198	18814.52
601.395	18773.56
601.591	18705.98
601.787	18769.46
601.984	18456.12
602.18	18767.41
602.376	18406.97
602.572	18462.27
602.769	18585.15
602.965	18163.26
603.161	18341.44
603.357	18083.39
603.553	18009.67
603.75	18138.69
603.946	17704.52
604.142	18165.31
604.338	17677.9
604.534	18157.12
604.73	17749.57
604.926	17634.89
605.122	17557.07
605.318	17491.53
605.514	17489.48
605.71	17462.86
605.906	17606.22
606.102	17456.71
606.298	17374.8
606.494	17446.48
606.69	17161.81
606.886	17153.62
607.082	17163.86
607.278	17090.13
607.474	17153.62
607.67	17139.28
607.866	16705.11
608.062	17045.07
608.257	17081.94
608.453	16715.35
608.649	16803.41
608.845	16651.86
609.041	16485.98
609.236	16623.19
609.432	16309.85
609.628	16528.99
609.824	16649.82
610.019	16371.29
610.215	16393.82
610.411	16365.15
610.606	16502.36
610.802	16275.04
610.998	16174.69
611.193	16275.04
611.389	16160.35
611.584	16213.6
611.78	15908.45
611.976	16070.24
612.171	15883.87
612.367	16084.58
612.562	15791.72
612.758	15824.48
612.953	15689.32
613.149	15992.42
613.344	15664.74
613.539	15890.02
613.735	15994.47
613.93	15767.14
614.126	15607.4
614.321	15625.83
614.517	15281.77
614.712	15459.95
614.907	15279.72
615.103	15638.12
615.298	15474.28
615.493	15613.54
615.688	15261.29
615.884	15427.18
616.079	15435.37
616.274	15535.72
616.47	15343.21
616.665	15425.13
616.86	15066.74
617.055	15023.73
617.25	15017.58
617.445	15130.22
617.641	14909.04
617.836	15015.54
618.031	14573.17
618.226	14941.81
618.421	14870.13
618.616	14798.45
618.811	14462.58
619.006	14509.69
619.201	14407.29
619.396	14591.61
619.591	14124.67
619.786	14311.03
619.981	14274.17
620.176	14509.69
620.371	14190.2
620.566	14001.79
620.761	13870.72
620.956	14024.32
621.151	13794.95
621.346	14020.22
621.541	13614.73
621.735	13989.5
621.93	13483.66
622.125	13495.94
622.32	13170.32
622.515	13483.66
622.709	13364.87
622.904	13239.95
623.099	13233.8
623.294	13289.1
623.488	13067.92
623.683	13082.25
623.878	13016.72
624.072	13108.88
624.267	13004.43
624.462	12859.03
624.656	12738.19
624.851	12523.16
625.046	12588.69
625.24	12474.01
625.435	12213.91
625.629	12301.98
625.824	12365.46
626.018	12115.61
626.213	12211.87
626.407	11884.19
626.602	11900.58
626.796	12052.13
626.991	11849.38
627.185	11916.96
627.38	11648.68
627.574	11759.27
627.768	11570.85
627.963	11527.85
628.157	11341.48
628.352	11388.58
628.546	11200.17
628.74	11337.38
628.935	11249.32
629.129	11103.92
629.323	11112.11
629.517	10905.26
629.712	10938.03
629.906	10854.06
630.1	10720.95
630.294	10733.23
630.489	10727.09
630.683	11005.61
630.877	10766
631.071	10467
631.265	10524.34
631.459	10475.19
631.653	10301.11
631.848	10464.95
632.042	10481.33
632.236	10266.3
632.43	10282.68
632.624	10305.21
632.818	10096.32
633.012	10002.11
633.206	9981.63
633.4	10163.9
633.594	9801.41
633.788	9807.55
633.982	9883.33
634.176	9598.66
634.369	9901.76
634.563	9588.42
634.757	9582.28
634.951	9502.4
635.145	9615.04
635.339	9596.61
635.533	9334.47
635.726	9387.72
635.92	9113.29
636.114	9139.91
636.308	9275.08
636.501	9115.34
636.695	8851.15
636.889	8945.36
637.083	8918.73
637.276	9025.23
637.47	8937.16
637.664	8781.52
637.857	8607.44
638.051	8793.81
638.244	8672.98
638.438	8507.09
638.632	8668.88
638.825	8525.52
639.019	8664.79
639.212	8503
639.406	8300.25
639.599	8326.87
639.793	8310.49
639.986	8294.1
640.18	8122.07
640.373	8019.67
640.567	8072.92
640.76	8095.45
640.954	8058.59
641.147	7931.61
641.34	7921.37
641.534	8064.73
641.727	7829.21
641.92	7851.74
642.114	7683.81
642.307	7816.93
642.5	7730.91
642.694	7669.47
642.887	7485.16
643.08	7552.74
643.273	7466.72
643.467	7479.01
643.66	7180.01
643.853	7231.21
644.046	7442.15
644.239	7237.35
644.432	7169.77
644.626	7235.3
644.819	7028.46
645.012	7085.8
645.205	6899.44
645.398	7128.81
645.591	7042.79
645.784	7012.07
645.977	6975.21
646.17	6735.6
646.363	6854.38
646.556	6616.82
646.749	6903.53
646.942	6696.69
647.135	6633.2
647.328	6629.1
647.521	6514.42
647.714	6256.37
647.907	6504.18
648.099	6326
648.292	6420.21
648.485	6366.96
648.678	6328.05
648.871	6264.57
649.064	6225.65
649.256	6274.81
649.449	6233.85
649.642	6221.56
649.835	6205.17
650.027	5893.88
650.22	5932.79
650.413	6012.67
650.605	5871.36
650.798	6063.86
650.991	5930.75
651.183	6014.71
651.376	5928.7
651.568	5814.01
651.761	5840.64
651.954	5703.42
652.146	5744.38
652.339	5783.29
652.531	5560.06
652.724	5633.79
652.916	5555.97
653.109	5476.1
653.301	5558.02
653.494	5521.15
653.686	5349.12
653.879	5463.81
654.071	5236.49
654.263	5269.25
654.456	5318.4
654.648	5285.64
654.84	5330.69
655.033	5154.57
655.225	5201.67
655.417	5252.87
655.61	5127.94
655.802	4986.63
655.994	5080.84
656.186	5017.35
656.379	4933.39
656.571	4941.58
656.763	4794.12
656.955	4957.96
657.148	5015.3
657.34	4912.91
657.532	4859.66
657.724	4787.98
657.916	4736.78
658.108	4767.5
658.3	4740.88
658.492	4763.4
658.684	4683.53
658.876	4607.76
659.068	4593.42
659.26	4595.47
659.452	4669.2
659.644	4591.38
659.836	4538.13
660.028	4624.14
660.22	4396.82
660.412	4634.38
660.604	4386.58
660.796	4550.42
660.988	4329.24
661.18	4232.98
661.372	4351.76
661.563	4228.88
661.755	4409.11
661.947	4257.56
662.139	4177.69
662.331	4251.41
662.522	4319
662.714	4073.24
662.906	4153.11
663.097	4083.48
663.289	4028.18
663.481	4040.47
663.673	4149.01
663.864	3915.55
664.056	3999.51
664.247	3870.49
664.439	3897.11
664.631	3907.35
664.822	3901.21
665.014	3895.07
665.205	3876.63
665.397	3761.95
665.588	3915.55
665.78	3757.85
665.971	3759.9
666.163	3766.04
666.354	3735.32
666.546	3645.21
666.737	3571.49
666.929	3768.09
667.12	3585.82
667.311	3723.04
667.503	3462.94
667.694	3542.82
667.885	3450.66
668.077	3485.47
668.268	3434.27
668.459	3626.78
668.651	3594.01
668.842	3462.94
669.033	3479.33
669.224	3266.34
669.416	3475.23
669.607	3407.65
669.798	3352.35
669.989	3342.11
670.18	3358.5
670.371	3458.85
670.563	3297.06
670.754	3284.77
670.945	3278.63
671.136	3292.96
671.327	3401.51
671.518	3317.54
671.709	3270.44
671.9	3237.67
672.091	3288.87
672.282	3213.09
672.473	3272.48
672.664	3200.8
672.855	3182.37
673.046	3151.65
673.237	3219.24
673.428	3141.41
673.619	3022.63
673.809	3008.3
674	2932.52
674.191	3057.45
674.382	3112.74
674.573	3069.73
674.764	3129.13
674.954	3077.93
675.145	2998.06
675.336	2993.96
675.527	3010.34
675.717	2989.86
675.908	2973.48
676.099	2916.14
676.289	2928.42
676.48	2961.19
676.671	2873.13
676.861	2971.43
677.052	2897.71
677.243	2959.14
677.433	2854.7
677.624	2881.32
677.814	2752.3
678.005	2643.76
678.195	2713.39
678.386	2848.55
678.576	2834.22
678.767	2725.68
678.957	2752.3
679.148	2826.03
679.338	2776.87
679.529	2713.39
679.719	2623.28
679.909	2770.73
680.1	2692.91
680.29	2561.84
680.481	2879.27
680.671	2864.94
680.861	2654
681.052	2674.48
681.242	2604.85
681.432	2776.87
681.622	2625.33
681.813	2639.66
682.003	2688.81
682.193	2664.24
682.383	2668.33
682.573	2606.89
682.764	2543.41
682.954	2514.73
683.144	2656.04
683.334	2594.61
683.524	2518.83
683.714	2645.8
683.904	2596.65
684.094	2555.69
684.284	2596.65
684.474	2535.21
684.664	2584.37
684.854	2656.04
685.044	2541.36
685.234	2518.83
685.424	2572.08
685.614	2545.45
685.804	2457.39
685.994	2518.83
686.184	2494.26
686.374	2518.83
686.564	2631.47
686.753	2473.78
686.943	2590.51
687.133	2535.21
687.323	2463.54
687.513	2447.15
687.702	2391.86
687.892	2465.58
688.082	2453.3
688.272	2412.34
688.461	2529.07
688.651	2463.54
688.841	2385.71
689.03	2459.44
689.22	2398
689.41	2400.05
689.599	2498.35
689.789	2311.99
689.979	2465.58
690.168	2330.42
690.358	2473.78
690.547	2469.68
690.737	2490.16
690.926	2377.52
691.116	2363.19
691.305	2441.01
691.495	2316.08
691.684	2484.02
691.874	2375.47
692.063	2373.43
692.252	2408.24
692.442	2455.34
692.631	2293.55
692.82	2371.38
693.01	2371.38
693.199	2291.51
693.388	2307.89
693.578	2342.71
693.767	2418.48
693.956	2271.03
694.146	2332.47
694.335	2471.73
694.524	2371.38
694.713	2381.62
694.902	2354.99
695.092	2328.37
695.281	2256.69
695.47	2402.1
695.659	2230.07
695.848	2424.62
696.037	2301.75
696.226	2395.95
696.415	2354.99
696.604	2250.55
696.793	2361.14
696.982	2305.84
697.171	2176.82
697.36	2330.42
697.549	2357.04
697.738	2287.41
697.927	2322.23
698.116	2383.66
698.305	2250.55
698.494	2166.58
698.683	2422.58
698.872	2309.94
699.061	2291.51
699.25	2314.03
699.438	2252.59
699.627	2291.51
699.816	2404.14
700.005	2371.38
700.193	2277.17
700.382	2326.32
700.571	2301.75
700.76	2295.6
700.948	2332.47
701.137	2217.78
701.326	2266.93
701.514	2225.97
701.703	2451.25
701.892	2172.72
702.08	2340.66
702.269	2322.23
702.457	2168.63
702.646	2121.52
702.834	2264.88
703.023	2209.59
703.212	2230.07
703.4	2340.66
703.589	2262.83
703.777	2277.17
703.965	2266.93
704.154	2213.68
704.342	2189.11
704.531	2203.44
704.719	2176.82
704.907	2258.74
705.096	2271.03
705.284	2144.05
705.472	2176.82
705.661	2080.57
705.849	2215.73
706.037	2142
706.226	2105.14
706.414	2234.16
706.602	2199.35
706.79	2144.05
706.979	2207.54
707.167	2111.29
707.355	2154.29
707.543	2176.82
707.731	2096.95
707.919	2029.37
708.107	1996.6
708.296	2105.14
708.484	2064.18
708.672	2213.68
708.86	2092.85
709.048	2189.11
709.236	2078.52
709.424	2152.24
709.612	2084.66
709.8	2086.71
709.988	2176.82
710.176	2148.15
710.364	2135.86
710.551	2051.89
710.739	2051.89
710.927	2123.57
711.115	2029.37
711.303	1992.5
711.491	1939.26
711.679	1978.17
711.866	1908.54
712.054	2045.75
712.242	1883.96
712.43	2021.17
712.617	1963.83
712.805	1883.96
712.993	1951.54
713.181	1804.09
713.368	1902.39
713.556	1939.26
713.744	1929.02
713.931	1996.6
714.119	1982.26
714.306	1855.29
714.494	1900.34
714.682	1965.88
714.869	1922.87
715.057	1900.34
715.244	1931.06
715.432	1879.86
715.619	1830.71
715.807	1929.02
715.994	1797.95
716.182	1879.86
716.369	1886.01
716.556	1922.87
716.744	1732.41
716.931	1781.56
717.119	1883.96
717.306	1834.81
717.493	1709.88
717.681	1793.85
717.868	1834.81
718.055	1795.9
718.242	1818.43
718.43	1713.98
718.617	1701.69
718.804	1832.76
718.991	1744.7
719.179	1720.12
719.366	1666.88
719.553	1693.5
719.74	1771.32
719.927	1693.5
720.114	1703.74
720.301	1693.5
720.488	1683.26
720.676	1716.03
720.863	1666.88
721.05	1666.88
721.237	1638.2
721.424	1666.88
721.611	1636.16
721.798	1703.74
721.985	1578.81
722.172	1713.98
722.358	1650.49
722.545	1697.6
722.732	1670.97
722.919	1679.16
723.106	1603.39
723.293	1599.29
723.48	1625.92
723.667	1666.88
723.853	1589.05
724.04	1564.48
724.227	1576.77
724.414	1578.81
724.6	1660.73
724.787	1548.09
724.974	1609.53
725.161	1578.81
725.347	1593.15
725.534	1587.01
725.72	1541.95
725.907	1597.24
726.094	1627.96
726.28	1652.54
726.467	1582.91
726.653	1654.59
726.84	1500.99
727.027	1537.85
727.213	1488.7
727.4	1511.23
727.586	1521.47
727.773	1427.26
727.959	1457.98
728.145	1539.9
728.332	1427.26
728.518	1455.94
728.705	1490.75
728.891	1513.28
729.077	1503.04
729.264	1519.42
729.45	1425.22
729.636	1531.71
729.823	1328.96
730.009	1406.78
730.195	1419.07
730.382	1460.03
730.568	1353.54
730.754	1380.16
730.94	1406.78
731.126	1455.94
731.313	1316.67
731.499	1404.74
731.685	1484.61
731.871	1320.77
732.057	1451.84
732.243	1357.63
732.429	1394.5
732.615	1431.36
732.801	1429.31
732.987	1378.11
733.173	1457.98
733.359	1306.43
733.545	1369.92
733.731	1455.94
733.917	1288
734.103	1353.54
734.289	1394.5
734.475	1376.06
734.661	1371.97
734.847	1359.68
735.033	1288
735.219	1320.77
735.404	1337.15
735.59	1296.19
735.776	1251.14
735.962	1302.34
736.148	1324.87
736.333	1363.78
736.519	1255.23
736.705	1351.49
736.89	1269.57
737.076	1275.71
737.262	1302.34
737.447	1328.96
737.633	1310.53
737.819	1273.67
738.004	1185.6
738.19	1144.64
738.375	1253.19
738.561	1285.95
738.747	1302.34
738.932	1257.28
739.118	1218.37
739.303	1154.88
739.489	1263.43
739.674	1185.6
739.859	1298.24
740.045	1185.6
740.23	1210.18
740.416	1146.69
740.601	1236.8
740.786	1187.65
740.972	1253.19
741.157	1230.66
741.342	1115.97
741.528	1279.81
741.713	1158.98
741.898	1185.6
742.084	1220.42
742.269	1156.93
742.454	1206.08
742.639	1206.08
742.824	1187.65
743.01	1122.12
743.195	1095.49
743.38	1167.17
743.565	1058.63
743.75	1126.21
743.935	1144.64
744.12	1183.56
744.305	1060.68
744.49	1093.44
744.675	1079.11
744.86	1015.62
745.045	1142.6
745.23	1113.92
745.415	1115.97
745.6	1097.54
745.785	1068.87
745.97	1091.4
746.155	1077.06
746.34	982.85
746.525	1046.34
746.71	968.52
746.895	1048.39
747.079	939.85
747.264	1058.63
747.449	1048.39
747.634	1054.53
747.819	1044.29
748.003	986.95
748.188	958.28
748.373	972.61
748.557	919.37
748.742	935.75
748.927	958.28
749.111	945.99
749.296	935.75
749.481	917.32
749.665	915.27
749.85	952.13
750.034	960.33
750.219	868.17
750.404	900.94
750.588	915.27
750.773	868.17
750.957	864.07
751.141	911.18
751.326	847.69
751.51	835.4
751.695	862.02
751.879	878.41
752.064	859.98
752.248	855.88
752.432	902.98
752.617	841.54
752.801	876.36
752.985	819.02
753.17	862.02
753.354	821.06
753.538	853.83
753.722	843.59
753.907	839.5
754.091	802.63
754.275	782.15
754.459	757.58
754.643	814.92
754.828	784.2
755.012	747.34
755.196	780.11
755.38	782.15
755.564	710.47
755.748	835.4
755.932	757.58
756.116	751.43
756.3	743.24
756.484	679.75
756.668	737.1
756.852	726.86
757.036	769.87
757.22	739.15
757.404	780.11
757.588	679.75
757.772	653.13
757.956	624.46
758.14	640.84
758.323	622.41
758.507	663.37
758.691	692.04
758.875	726.86
759.059	689.99
759.242	741.19
759.426	687.95
759.61	659.28
759.794	640.84
759.977	620.36
760.161	687.95
760.345	618.32
760.528	638.8
760.712	669.52
760.895	583.5
761.079	599.88
761.263	534.35
761.446	597.84
761.63	554.83
761.813	634.7
761.997	632.65
762.18	630.6
762.364	657.23
762.547	520.01
762.731	603.98
762.914	577.36
763.098	544.59
763.281	579.4
763.464	689.99
763.648	632.65
763.831	577.36
764.015	597.84
764.198	548.68
764.381	544.59
764.564	552.78
764.748	573.26
764.931	587.6
765.114	595.79
765.297	583.5
765.481	601.93
765.664	577.36
765.847	595.79
766.03	565.07
766.213	603.98
766.397	579.4
766.58	550.73
766.763	556.88
766.946	544.59
767.129	544.59
767.312	587.6
767.495	544.59
767.678	530.25
767.861	505.68
768.044	532.3
768.227	622.41
768.41	620.36
768.593	552.78
768.776	448.33
768.959	495.44
769.142	526.16
769.324	565.07
769.507	511.82
769.69	606.03
769.873	460.62
770.056	462.67
770.239	544.59
770.421	546.64
770.604	526.16
770.787	485.2
770.97	477.01
771.152	493.39
771.335	434
771.518	491.34
771.7	524.11
771.883	536.4
772.066	405.33
772.248	546.64
772.431	517.97
772.613	542.54
772.796	462.67
772.978	513.87
773.161	507.73
773.343	448.33
773.526	464.72
773.708	479.05
773.891	479.05
774.073	485.2
774.256	446.29
774.438	501.58
774.621	403.28
774.803	462.67
774.985	460.62
775.168	450.38
775.35	411.47
775.532	446.29
775.715	571.21
775.897	444.24
776.079	413.52
776.261	431.95
776.444	438.09
776.626	405.33
776.808	423.76
776.99	417.61
777.173	368.46
777.355	425.81
777.537	370.51
777.719	421.71
777.901	431.95
778.083	401.23
778.265	411.47
778.447	431.95
778.629	382.8
778.811	399.18
778.993	403.28
779.175	350.03
779.357	313.17
779.539	337.74
779.721	395.09
779.903	307.02
780.085	397.14
780.267	458.57
780.449	335.7
780.631	366.42
780.812	380.75
780.994	378.7
781.176	294.74
781.358	380.75
781.54	278.35
781.721	282.45
781.903	354.13
782.085	407.38
782.267	341.84
782.448	438.09
782.63	327.5
782.812	378.7
782.993	341.84
783.175	290.64
783.357	337.74
783.538	337.74
783.72	311.12
783.901	247.63
784.083	315.22
784.264	354.13
784.446	309.07
784.627	352.08
784.809	307.02
784.99	313.17
785.172	309.07
785.353	266.07
785.535	331.6
785.716	276.31
785.897	229.2
786.079	347.98
786.26	292.69
786.441	253.78
786.623	272.21
786.804	268.11
786.985	259.92
787.167	298.83
787.348	315.22
787.529	264.02
787.71	235.35
787.891	237.39
788.073	210.77
788.254	227.15
788.435	241.49
788.616	339.79
788.797	212.82
788.978	280.4
789.159	264.02
789.34	229.2
789.522	272.21
789.703	253.78
789.884	243.54
790.065	147.28
790.246	214.87
790.427	202.58
790.607	221.01
790.788	266.07
790.969	208.72
791.15	208.72
791.331	257.87
791.512	210.77
791.693	229.2
791.874	231.25
792.054	227.15
792.235	237.39
792.416	223.06
792.597	249.68
792.778	210.77
792.958	227.15
793.139	190.29
793.32	186.19
793.5	153.43
793.681	272.21
793.862	149.33
794.042	239.44
794.223	157.52
794.404	186.19
794.584	188.24
794.765	202.58
794.945	161.62
795.126	173.91
795.306	194.39
795.487	161.62
795.667	200.53
795.848	198.48
796.028	153.43
796.209	225.11
796.389	165.71
796.57	204.63
796.75	145.24
796.93	241.49
797.111	141.14
797.291	202.58
797.471	196.43
797.652	198.48
797.832	163.67
798.012	120.66
798.192	182.1
798.373	186.19
798.553	151.38
798.733	145.24
798.913	173.91
799.093	141.14
799.274	171.86
799.454	239.44
799.634	161.62
799.814	171.86
799.994	173.91
800.174	235.35
800.354	165.71
800.534	202.58
800.714	132.95
800.894	157.52
801.074	48.98
801.254	139.09
801.434	208.72
801.614	218.96
801.794	161.62
801.974	378.7
802.154	206.67
802.334	153.43
802.514	184.15
802.693	200.53
802.873	161.62
803.053	132.95
803.233	188.24
803.413	141.14
803.592	61.27
803.772	110.42
803.952	135
804.131	124.76
804.311	167.76
804.491	132.95
804.67	112.47
804.85	91.99
805.03	126.8
805.209	212.82
805.389	186.19
805.568	96.08
805.748	151.38
805.928	178
806.107	157.52
806.287	165.71
806.466	143.19
806.646	149.33
806.825	96.08
807.004	145.24
807.184	116.56
807.363	139.09
807.543	98.13
807.722	167.76
807.901	161.62
808.081	110.42
808.26	126.8
808.439	108.37
808.619	116.56
808.798	145.24
808.977	198.48
809.156	106.32
809.336	59.22
809.515	141.14
809.694	94.04
809.873	126.8
810.052	108.37
810.231	71.51
810.411	124.76
810.59	128.85
810.769	69.46
810.948	53.08
811.127	69.46
811.306	149.33
811.485	55.12
811.664	155.47
811.843	132.95
812.022	24.4
812.201	106.32
812.38	130.9
812.559	48.98
812.737	77.65
812.916	71.51
813.095	157.52
813.274	122.71
813.453	104.28
813.632	120.66
813.811	108.37
813.989	59.22
814.168	75.6
814.347	104.28
814.526	192.34
814.704	36.69
814.883	130.9
815.062	106.32
815.24	89.94
815.419	180.05
815.598	81.75
815.776	16.21
815.955	141.14
816.133	40.79
816.312	42.84
816.49	110.42
816.669	87.89
816.847	24.4
817.026	153.43
817.204	18.26
817.383	165.71
817.561	96.08
817.74	106.32
817.918	104.28
818.097	53.08
818.275	73.56
818.453	71.51
818.632	12.12
818.81	102.23
818.988	89.94
819.167	124.76
819.345	120.66
819.523	114.52
819.701	94.04
819.879	81.75
820.058	81.75
820.236	73.56
820.414	36.69
820.592	91.99
820.77	108.37
820.948	79.7
821.127	42.84
821.305	157.52
821.483	26.45
821.661	61.27
821.839	44.88
822.017	48.98
822.195	81.75
822.373	120.66
822.551	171.86
822.729	118.61
822.907	69.46
823.085	67.41
823.262	36.69
823.44	100.18
823.618	5.97
823.796	71.51
823.974	79.7
824.152	5.97
824.329	10.07
824.507	67.41
824.685	55.12
824.863	114.52
825.04	26.45
825.218	118.61
825.396	79.7
825.574	46.93
825.751	14.17
825.929	51.03
826.107	83.8
826.284	108.37
826.462	102.23
826.639	94.04
826.817	-6.31
826.994	69.46
827.172	67.41
827.349	65.36
827.527	38.74
827.704	69.46
827.882	69.46
828.059	-28.84
828.237	30.55
828.414	73.56
828.591	30.55
828.769	83.8
828.946	16.21
829.124	106.32
829.301	87.89
829.478	98.13
829.655	114.52
829.833	61.27
830.01	59.22
830.187	59.22
830.364	63.32
830.542	87.89
830.719	63.32
830.896	112.47
831.073	42.84
831.25	59.22
831.427	36.69
831.604	46.93
831.782	44.88
831.959	106.32
832.136	38.74
832.313	-6.31
832.49	122.71
832.667	48.98
832.844	16.21
833.021	18.26
833.198	71.51
833.374	89.94
833.551	63.32
833.728	139.09
833.905	124.76
834.082	1.88
834.259	100.18
834.436	63.32
834.612	77.65
834.789	91.99
834.966	44.88
835.143	24.4
835.319	26.45
835.496	8.02
835.673	79.7
835.85	55.12
836.026	51.03
836.203	51.03
836.38	34.64
836.556	14.17
836.733	83.8
836.909	38.74
837.086	40.79
837.262	55.12
837.439	73.56
837.616	-24.75
837.792	28.5
837.968	67.41
838.145	24.4
838.321	118.61
838.498	61.27
838.674	75.6
838.851	106.32
839.027	20.31
839.203	77.65
839.38	81.75
839.556	24.4
839.732	48.98
839.909	40.79
840.085	81.75
840.261	44.88
840.437	55.12
840.614	57.17
840.79	24.4
840.966	112.47
841.142	44.88
841.318	102.23
841.494	46.93
841.671	42.84
841.847	73.56
842.023	5.97
842.199	59.22
842.375	65.36
842.551	75.6
842.727	44.88
842.903	44.88
843.079	3.93
843.255	73.56
843.431	44.88
843.607	8.02
843.783	38.74
843.959	102.23
844.134	5.97
844.31	-0.17
844.486	67.41
844.662	69.46
844.838	-6.31
845.013	-6.31
845.189	12.12
845.365	18.26
845.541	30.55
845.716	112.47
845.892	38.74
846.068	63.32
846.244	-8.36
846.419	16.21
846.595	53.08
846.77	-14.51
846.946	44.88
847.122	-32.94
847.297	14.17
847.473	59.22
847.648	-16.55
847.824	40.79
847.999	110.42
848.175	34.64
848.35	44.88
848.526	36.69
848.701	61.27
848.876	8.02
849.052	77.65
849.227	42.84
849.403	73.56
849.578	48.98
849.753	-2.22
849.929	-16.55
850.104	69.46
850.279	-12.46
850.454	22.36
850.63	65.36
850.805	-0.17
850.98	65.36
851.155	-43.18
851.33	40.79
851.505	12.12
851.681	20.31
851.856	-32.94
852.031	102.23
852.206	-14.51
852.381	22.36
852.556	77.65
852.731	18.26
852.906	5.97
853.081	10.07
853.256	46.93
853.431	126.8
853.606	5.97
853.781	36.69
853.956	73.56
854.131	40.79
854.305	-18.6
854.48	44.88
854.655	48.98
854.83	57.17
855.005	73.56
855.18	26.45
855.354	73.56
855.529	16.21
855.704	67.41
855.879	14.17
856.053	65.36
856.228	36.69
856.403	-10.41
856.577	20.31
856.752	-51.37
856.926	32.6
857.101	51.03
857.276	-41.13
857.45	-2.22
857.625	20.31
857.799	118.61
857.974	48.98
858.148	8.02
858.323	61.27
858.497	22.36
858.672	22.36
858.846	14.17
859.02	16.21
859.195	3.93
859.369	-0.17
859.543	34.64
859.718	-59.56
859.892	28.5
860.066	63.32
860.241	8.02
860.415	46.93
860.589	51.03
860.763	34.64
860.938	-24.75
861.112	-20.65
861.286	46.93
861.46	12.12
861.634	12.12
861.808	32.6
861.982	51.03
862.157	-16.55
862.331	96.08
862.505	-0.17
862.679	-12.46
862.853	14.17
863.027	-37.03
863.201	28.5
863.375	22.36
863.549	-4.27
863.722	20.31
863.896	28.5
864.07	69.46
864.244	20.31
864.418	24.4
864.592	14.17
864.766	59.22
864.939	32.6
865.113	-0.17
865.287	59.22
865.461	-22.7
865.634	14.17
865.808	63.32
865.982	14.17
866.156	-2.22
866.329	75.6
866.503	100.18
866.676	30.55
866.85	44.88
867.024	-45.23
867.197	51.03
867.371	28.5
867.544	96.08
867.718	48.98
867.891	38.74
868.065	40.79
868.238	42.84
868.412	-4.27
868.585	3.93
868.759	79.7
868.932	-2.22
869.105	63.32
869.279	75.6
869.452	-6.31
869.625	34.64
869.799	8.02
869.972	77.65
870.145	18.26
870.319	67.41
870.492	42.84
870.665	-37.03
870.838	3.93
871.011	55.12
871.185	42.84
871.358	26.45
871.531	30.55
871.704	3.93
871.877	114.52
872.05	67.41
872.223	34.64
872.396	-28.84
872.569	-18.6
872.742	-2.22
872.915	-30.89
873.088	-34.99
873.261	-14.51
873.434	24.4
873.607	61.27
873.78	36.69
873.953	-26.79
874.126	18.26
874.299	-2.22
874.471	-24.75
874.644	118.61
874.817	34.64
874.99	67.41
875.163	1.88
875.335	-2.22
875.508	42.84
875.681	65.36
875.853	-8.36
876.026	18.26
876.199	14.17
876.371	69.46
876.544	-6.31
876.717	-0.17
876.889	14.17
877.062	20.31
877.234	-28.84
877.407	36.69
877.579	-8.36
877.752	22.36
877.924	-41.13
878.097	-8.36
878.269	-37.03
878.442	69.46
878.614	-43.18
878.786	36.69
878.959	81.75
879.131	-16.55
879.303	-28.84
879.476	24.4
879.648	-65.71
879.82	59.22
879.993	3.93
880.165	42.84
880.337	-32.94
880.509	20.31
880.681	34.64
880.854	28.5
881.026	-18.6
881.198	132.95
881.37	-53.42
881.542	53.08
881.714	40.79
881.886	10.07
882.058	-10.41
882.23	-55.47
882.402	-37.03
882.574	48.98
882.746	32.6
882.918	69.46
883.09	-0.17
883.262	53.08
883.434	14.17
883.606	75.6
883.778	14.17
883.95	22.36
884.122	-32.94
884.293	-22.7
884.465	20.31
884.637	81.75
884.809	5.97
884.98	61.27
885.152	48.98
885.324	30.55
885.496	1.88
885.667	-6.31
885.839	-57.51
886.011	46.93
886.182	-39.08
886.354	-18.6
886.525	63.32
886.697	65.36
886.869	42.84
887.04	-69.8
887.212	32.6
887.383	63.32
887.555	44.88
887.726	65.36
887.897	-73.9
888.069	1.88
888.24	14.17
888.412	1.88
888.583	-51.37
888.754	1.88
888.926	79.7
889.097	20.31
889.268	-4.27
889.44	34.64
889.611	1.88
889.782	-18.6
889.953	8.02
890.125	22.36
890.296	10.07
890.467	-16.55
890.638	12.12
890.809	-26.79
890.98	-8.36
891.151	16.21
891.323	-12.46
891.494	73.56
891.665	10.07
891.836	42.84
892.007	-39.08
892.178	-8.36
892.349	20.31
892.52	18.26
892.691	-37.03
892.862	89.94
893.032	32.6
893.203	30.55
893.374	1.88
893.545	10.07
893.716	-37.03
893.887	18.26
894.057	24.4
894.228	42.84
894.399	79.7
894.57	48.98
894.74	-14.51
894.911	3.93
895.082	-0.17
895.253	122.71
895.423	77.65
895.594	24.4
895.764	-24.75
895.935	-12.46
896.106	8.02
896.276	22.36
896.447	10.07
896.617	24.4
896.788	30.55
896.958	-10.41
897.129	24.4
897.299	112.47
897.47	108.37
897.64	57.17
897.81	73.56
897.981	22.36
898.151	-69.8
898.322	36.69
898.492	44.88
898.662	22.36
898.832	12.12
899.003	-18.6
899.173	22.36
899.343	73.56
899.513	-20.65
