Data from USB4F104151__18__13-52-31-603.txt Node

Date: Thu Mar 13 13:52:31 EDT 2025
User: louis
Spectrometer: USB4F10415
Trigger mode: 4
Integration Time (sec): 1.000000E-2
Scans to average: 1
Electric dark correction enabled: true
Nonlinearity correction enabled: false
Boxcar width: 0
XAxis mode: Wavelengths
Number of Pixels in Spectrum: 3648
>>>>>Begin Spectral Data<<<<<
178.204	-63.49
178.424	-63.49
178.644	-63.49
178.864	-24.58
179.084	-43.01
179.304	-2.05
179.524	-0
179.744	55.3
179.964	-47.1
180.184	-28.67
180.404	-30.72
180.624	38.91
180.844	10.24
181.064	-8.19
181.283	2.05
181.503	-2.05
181.723	12.29
181.943	28.67
182.163	22.53
182.383	-14.34
182.602	92.16
182.822	126.97
183.042	30.72
183.262	4.1
183.482	32.77
183.701	67.58
183.921	-26.62
184.141	-0
184.361	22.53
184.58	22.53
184.8	-8.19
185.02	59.39
185.239	34.82
185.459	22.53
185.679	-20.48
185.898	38.91
186.118	18.43
186.338	16.38
186.557	26.62
186.777	4.1
186.997	59.39
187.216	20.48
187.436	38.91
187.655	47.1
187.875	-8.19
188.095	4.1
188.314	-0
188.534	45.06
188.753	49.15
188.973	55.3
189.192	-22.53
189.412	-8.19
189.631	110.59
189.851	45.06
190.07	49.15
190.29	-4.1
190.509	40.96
190.729	43.01
190.948	-8.19
191.168	102.4
191.387	65.53
191.607	4.1
191.826	34.82
192.045	55.3
192.265	63.49
192.484	53.25
192.704	120.83
192.923	49.15
193.142	45.06
193.362	57.34
193.581	34.82
193.8	40.96
194.02	-8.19
194.239	53.25
194.458	55.3
194.678	43.01
194.897	86.01
195.116	-4.1
195.335	-8.19
195.555	94.21
195.774	110.59
195.993	34.82
196.212	71.68
196.432	40.96
196.651	36.86
196.87	47.1
197.089	40.96
197.308	53.25
197.528	30.72
197.747	-4.1
197.966	75.77
198.185	-16.38
198.404	38.91
198.623	18.43
198.842	32.77
199.062	69.63
199.281	104.45
199.5	18.43
199.719	49.15
199.938	4.1
200.157	145.41
200.376	108.54
200.595	114.69
200.814	-0
201.033	14.34
201.252	-30.72
201.471	36.86
201.69	40.96
201.909	30.72
202.128	30.72
202.347	4.1
202.566	86.01
202.785	-0
203.004	4.1
203.223	12.29
203.442	94.21
203.661	43.01
203.879	-12.29
204.098	-6.14
204.317	32.77
204.536	83.97
204.755	71.68
204.974	69.63
205.193	47.1
205.411	79.87
205.63	-18.43
205.849	30.72
206.068	12.29
206.287	28.67
206.505	28.67
206.724	63.49
206.943	-28.67
207.162	-8.19
207.381	83.97
207.599	104.45
207.818	-4.1
208.037	-8.19
208.255	-8.19
208.474	86.01
208.693	190.46
208.911	40.96
209.13	34.82
209.349	22.53
209.567	24.58
209.786	55.3
210.005	8.19
210.223	36.86
210.442	12.29
210.661	63.49
210.879	71.68
211.098	43.01
211.316	79.87
211.535	26.62
211.753	2.05
211.972	-14.34
212.191	-20.48
212.409	55.3
212.628	96.25
212.846	26.62
213.065	-8.19
213.283	55.3
213.502	16.38
213.72	12.29
213.938	61.44
214.157	-6.14
214.375	-0
214.594	43.01
214.812	90.11
215.031	-12.29
215.249	12.29
215.467	26.62
215.686	14.34
215.904	81.92
216.122	67.58
216.341	55.3
216.559	-8.19
216.778	114.69
216.996	45.06
217.214	32.77
217.432	-4.1
217.651	-34.82
217.869	83.97
218.087	49.15
218.306	-24.58
218.524	-0
218.742	28.67
218.96	51.2
219.179	104.45
219.397	86.01
219.615	57.34
219.833	69.63
220.051	20.48
220.27	6.14
220.488	40.96
220.706	36.86
220.924	45.06
221.142	24.58
221.36	51.2
221.578	45.06
221.796	22.53
222.015	38.91
222.233	102.4
222.451	47.1
222.669	30.72
222.887	26.62
223.105	112.64
223.323	4.1
223.541	6.14
223.759	-8.19
223.977	-20.48
224.195	55.3
224.413	43.01
224.631	-28.67
224.849	59.39
225.067	32.77
225.285	34.82
225.503	45.06
225.721	-26.62
225.939	-22.53
226.157	-22.53
226.375	79.87
226.592	63.49
226.81	-0
227.028	18.43
227.246	26.62
227.464	24.58
227.682	116.73
227.9	108.54
228.117	-28.67
228.335	4.1
228.553	28.67
228.771	14.34
228.989	20.48
229.206	14.34
229.424	59.39
229.642	61.44
229.86	100.35
230.077	69.63
230.295	49.15
230.513	86.01
230.731	-4.1
230.948	-47.1
231.166	69.63
231.384	45.06
231.601	32.77
231.819	26.62
232.037	24.58
232.254	-26.62
232.472	-61.44
232.689	-8.19
232.907	-2.05
233.125	-30.72
233.342	16.38
233.56	75.77
233.777	71.68
233.995	4.1
234.213	30.72
234.43	12.29
234.648	55.3
234.865	-40.96
235.083	57.34
235.3	20.48
235.518	65.53
235.735	67.58
235.953	88.06
236.17	24.58
236.388	77.82
236.605	51.2
236.822	86.01
237.04	45.06
237.257	38.91
237.475	-28.67
237.692	73.73
237.909	81.92
238.127	20.48
238.344	75.77
238.562	-2.05
238.779	61.44
238.996	69.63
239.214	104.45
239.431	49.15
239.648	10.24
239.865	92.16
240.083	65.53
240.3	83.97
240.517	-26.62
240.735	71.68
240.952	49.15
241.169	-24.58
241.386	16.38
241.603	61.44
241.821	36.86
242.038	69.63
242.255	88.06
242.472	36.86
242.689	34.82
242.907	16.38
243.124	22.53
243.341	32.77
243.558	73.73
243.775	-63.49
243.992	26.62
244.209	18.43
244.426	12.29
244.643	10.24
244.86	34.82
245.078	16.38
245.295	61.44
245.512	90.11
245.729	-20.48
245.946	30.72
246.163	63.49
246.38	51.2
246.597	12.29
246.814	53.25
247.031	73.73
247.248	77.82
247.464	38.91
247.681	104.45
247.898	-49.15
248.115	49.15
248.332	-55.3
248.549	45.06
248.766	59.39
248.983	71.68
249.2	63.49
249.417	28.67
249.633	-14.34
249.85	83.97
250.067	61.44
250.284	43.01
250.501	26.62
250.717	34.82
250.934	26.62
251.151	26.62
251.368	49.15
251.585	114.69
251.801	34.82
252.018	-18.43
252.235	-22.53
252.451	26.62
252.668	32.77
252.885	43.01
253.102	57.34
253.318	-26.62
253.535	75.77
253.752	34.82
253.968	-24.58
254.185	47.1
254.401	59.39
254.618	133.12
254.835	32.77
255.051	32.77
255.268	6.14
255.484	-36.86
255.701	40.96
255.917	-34.82
256.134	-8.19
256.351	-2.05
256.567	43.01
256.784	79.87
257	22.53
257.217	26.62
257.433	92.16
257.65	92.16
257.866	63.49
258.082	96.25
258.299	-10.24
258.515	6.14
258.732	22.53
258.948	22.53
259.165	47.1
259.381	51.2
259.597	22.53
259.814	-10.24
260.03	92.16
260.246	32.77
260.463	86.01
260.679	-79.87
260.895	26.62
261.112	-6.14
261.328	49.15
261.544	24.58
261.761	106.49
261.977	32.77
262.193	-22.53
262.409	18.43
262.626	98.3
262.842	57.34
263.058	73.73
263.274	59.39
263.49	129.02
263.707	32.77
263.923	18.43
264.139	16.38
264.355	88.06
264.571	53.25
264.787	-28.67
265.004	20.48
265.22	65.53
265.436	6.14
265.652	51.2
265.868	69.63
266.084	24.58
266.3	135.17
266.516	32.77
266.732	141.31
266.948	53.25
267.164	71.68
267.38	67.58
267.596	102.4
267.812	43.01
268.028	75.77
268.244	141.31
268.46	116.73
268.676	-22.53
268.892	51.2
269.108	26.62
269.324	69.63
269.54	88.06
269.756	55.3
269.972	14.34
270.188	26.62
270.403	98.3
270.619	40.96
270.835	61.44
271.051	10.24
271.267	49.15
271.483	51.2
271.698	22.53
271.914	81.92
272.13	-8.19
272.346	43.01
272.562	26.62
272.777	34.82
272.993	53.25
273.209	16.38
273.425	81.92
273.64	38.91
273.856	88.06
274.072	81.92
274.287	20.48
274.503	28.67
274.719	14.34
274.934	161.79
275.15	28.67
275.366	43.01
275.581	88.06
275.797	67.58
276.012	-0
276.228	69.63
276.444	73.73
276.659	43.01
276.875	88.06
277.09	47.1
277.306	104.45
277.521	53.25
277.737	22.53
277.952	47.1
278.168	-38.91
278.383	14.34
278.599	51.2
278.814	-18.43
279.03	22.53
279.245	100.35
279.461	-45.06
279.676	86.01
279.892	14.34
280.107	24.58
280.322	67.58
280.538	49.15
280.753	57.34
280.969	69.63
281.184	55.3
281.399	65.53
281.615	32.77
281.83	-22.53
282.045	16.38
282.26	-2.05
282.476	51.2
282.691	14.34
282.906	38.91
283.122	30.72
283.337	6.14
283.552	53.25
283.767	20.48
283.983	32.77
284.198	40.96
284.413	116.73
284.628	67.58
284.843	8.19
285.058	6.14
285.274	63.49
285.489	34.82
285.704	55.3
285.919	18.43
286.134	81.92
286.349	22.53
286.564	-10.24
286.779	94.21
286.995	-45.06
287.21	30.72
287.425	92.16
287.64	49.15
287.855	63.49
288.07	-8.19
288.285	-18.43
288.5	65.53
288.715	79.87
288.93	32.77
289.145	53.25
289.36	22.53
289.575	112.64
289.79	45.06
290.004	43.01
290.219	40.96
290.434	63.49
290.649	14.34
290.864	61.44
291.079	79.87
291.294	10.24
291.509	-34.82
291.724	34.82
291.938	20.48
292.153	18.43
292.368	-28.67
292.583	75.77
292.798	69.63
293.012	71.68
293.227	59.39
293.442	92.16
293.657	45.06
293.871	-0
294.086	-12.29
294.301	77.82
294.516	47.1
294.73	49.15
294.945	-14.34
295.16	18.43
295.374	79.87
295.589	43.01
295.804	36.86
296.018	57.34
296.233	67.58
296.447	16.38
296.662	45.06
296.877	63.49
297.091	34.82
297.306	65.53
297.52	30.72
297.735	96.25
297.949	49.15
298.164	100.35
298.378	28.67
298.593	90.11
298.807	69.63
299.022	-2.05
299.236	12.29
299.451	26.62
299.665	71.68
299.88	10.24
300.094	75.77
300.309	51.2
300.523	63.49
300.737	16.38
300.952	28.67
301.166	24.58
301.381	4.1
301.595	-4.1
301.809	110.59
302.024	88.06
302.238	32.77
302.452	43.01
302.667	51.2
302.881	51.2
303.095	75.77
303.309	92.16
303.524	-16.38
303.738	-18.43
303.952	49.15
304.166	92.16
304.381	32.77
304.595	40.96
304.809	-36.86
305.023	59.39
305.237	53.25
305.452	61.44
305.666	26.62
305.88	40.96
306.094	45.06
306.308	55.3
306.522	45.06
306.736	-26.62
306.95	108.54
307.164	59.39
307.379	-2.05
307.593	67.58
307.807	-8.19
308.021	43.01
308.235	34.82
308.449	77.82
308.663	49.15
308.877	69.63
309.091	30.72
309.305	45.06
309.519	47.1
309.733	71.68
309.947	43.01
310.161	49.15
310.374	75.77
310.588	-6.14
310.802	30.72
311.016	-20.48
311.23	-4.1
311.444	14.34
311.658	30.72
311.872	73.73
312.085	69.63
312.299	10.24
312.513	67.58
312.727	67.58
312.941	20.48
313.154	36.86
313.368	-2.05
313.582	36.86
313.796	65.53
314.009	36.86
314.223	28.67
314.437	-2.05
314.651	43.01
314.864	36.86
315.078	14.34
315.292	40.96
315.505	-22.53
315.719	81.92
315.933	32.77
316.146	47.1
316.36	75.77
316.573	47.1
316.787	4.1
317.001	59.39
317.214	28.67
317.428	102.4
317.641	12.29
317.855	79.87
318.068	43.01
318.282	8.19
318.495	14.34
318.709	38.91
318.922	71.68
319.136	38.91
319.349	57.34
319.563	139.26
319.776	57.34
319.99	28.67
320.203	-34.82
320.417	59.39
320.63	34.82
320.843	98.3
321.057	49.15
321.27	-10.24
321.483	77.82
321.697	157.69
321.91	38.91
322.124	81.92
322.337	61.44
322.55	90.11
322.763	14.34
322.977	71.68
323.19	53.25
323.403	88.06
323.617	2.05
323.83	124.93
324.043	55.3
324.256	53.25
324.469	4.1
324.683	69.63
324.896	79.87
325.109	14.34
325.322	-38.91
325.535	20.48
325.748	65.53
325.962	153.6
326.175	102.4
326.388	45.06
326.601	59.39
326.814	12.29
327.027	49.15
327.24	75.77
327.453	-2.05
327.666	77.82
327.879	106.49
328.092	55.3
328.305	83.97
328.518	61.44
328.731	59.39
328.944	81.92
329.157	69.63
329.37	51.2
329.583	34.82
329.796	12.29
330.009	77.82
330.222	65.53
330.435	49.15
330.648	73.73
330.861	75.77
331.073	81.92
331.286	98.3
331.499	55.3
331.712	-20.48
331.925	102.4
332.138	40.96
332.35	106.49
332.563	-26.62
332.776	26.62
332.989	69.63
333.202	100.35
333.414	61.44
333.627	40.96
333.84	26.62
334.053	-10.24
334.265	-49.15
334.478	28.67
334.691	-53.25
334.903	63.49
335.116	12.29
335.329	12.29
335.541	36.86
335.754	28.67
335.966	40.96
336.179	55.3
336.392	6.14
336.604	45.06
336.817	24.58
337.029	112.64
337.242	112.64
337.454	79.87
337.667	47.1
337.88	75.77
338.092	67.58
338.305	61.44
338.517	-2.05
338.729	63.49
338.942	16.38
339.154	67.58
339.367	43.01
339.579	88.06
339.792	51.2
340.004	67.58
340.217	-22.53
340.429	53.25
340.641	49.15
340.854	34.82
341.066	104.45
341.278	-4.1
341.491	75.77
341.703	-2.05
341.915	10.24
342.128	28.67
342.34	104.45
342.552	65.53
342.764	28.67
342.977	126.97
343.189	57.34
343.401	57.34
343.613	-16.38
343.826	90.11
344.038	22.53
344.25	61.44
344.462	24.58
344.674	75.77
344.886	-22.53
345.099	118.78
345.311	16.38
345.523	67.58
345.735	67.58
345.947	75.77
346.159	53.25
346.371	65.53
346.583	104.45
346.795	81.92
347.007	83.97
347.219	49.15
347.431	32.77
347.643	14.34
347.855	12.29
348.067	116.73
348.279	-10.24
348.491	81.92
348.703	40.96
348.915	106.49
349.127	-14.34
349.339	55.3
349.551	28.67
349.763	73.73
349.975	61.44
350.187	96.25
350.399	141.31
350.61	18.43
350.822	43.01
351.034	32.77
351.246	43.01
351.458	83.97
351.669	106.49
351.881	28.67
352.093	71.68
352.305	81.92
352.517	83.97
352.728	40.96
352.94	32.77
353.152	36.86
353.363	92.16
353.575	79.87
353.787	55.3
353.999	36.86
354.21	4.1
354.422	112.64
354.633	90.11
354.845	22.53
355.057	40.96
355.268	57.34
355.48	102.4
355.692	47.1
355.903	8.19
356.115	18.43
356.326	43.01
356.538	116.73
356.749	65.53
356.961	57.34
357.172	83.97
357.384	131.07
357.595	55.3
357.807	28.67
358.018	55.3
358.23	94.21
358.441	57.34
358.653	104.45
358.864	92.16
359.075	88.06
359.287	57.34
359.498	59.39
359.709	30.72
359.921	59.39
360.132	71.68
360.344	94.21
360.555	-4.1
360.766	65.53
360.977	122.88
361.189	47.1
361.4	18.43
361.611	63.49
361.823	28.67
362.034	61.44
362.245	34.82
362.456	6.14
362.667	18.43
362.879	90.11
363.09	8.19
363.301	79.87
363.512	28.67
363.723	98.3
363.935	63.49
364.146	86.01
364.357	8.19
364.568	65.53
364.779	88.06
364.99	106.49
365.201	104.45
365.412	114.69
365.623	28.67
365.834	38.91
366.045	26.62
366.256	124.93
366.467	43.01
366.678	145.41
366.889	-8.19
367.1	28.67
367.311	6.14
367.522	-38.91
367.733	149.5
367.944	49.15
368.155	124.93
368.366	55.3
368.577	-4.1
368.788	88.06
368.999	67.58
369.209	100.35
369.42	59.39
369.631	47.1
369.842	10.24
370.053	79.87
370.264	79.87
370.474	2.05
370.685	32.77
370.896	63.49
371.107	22.53
371.317	43.01
371.528	77.82
371.739	106.49
371.95	79.87
372.16	32.77
372.371	30.72
372.582	106.49
372.792	88.06
373.003	69.63
373.214	22.53
373.424	73.73
373.635	69.63
373.846	81.92
374.056	133.12
374.267	-18.43
374.477	120.83
374.688	-0
374.898	2.05
375.109	47.1
375.319	88.06
375.53	81.92
375.74	108.54
375.951	69.63
376.161	14.34
376.372	61.44
376.582	75.77
376.793	57.34
377.003	61.44
377.214	67.58
377.424	98.3
377.635	100.35
377.845	53.25
378.055	71.68
378.266	43.01
378.476	51.2
378.686	18.43
378.897	24.58
379.107	108.54
379.317	104.45
379.528	81.92
379.738	92.16
379.948	65.53
380.158	38.91
380.369	28.67
380.579	92.16
380.789	30.72
380.999	51.2
381.21	83.97
381.42	73.73
381.63	73.73
381.84	145.41
382.05	57.34
382.261	116.73
382.471	67.58
382.681	88.06
382.891	43.01
383.101	118.78
383.311	104.45
383.521	65.53
383.731	90.11
383.941	51.2
384.151	53.25
384.361	108.54
384.571	22.53
384.781	79.87
384.991	92.16
385.201	79.87
385.411	102.4
385.621	67.58
385.831	53.25
386.041	141.31
386.251	69.63
386.461	59.39
386.671	65.53
386.881	94.21
387.091	71.68
387.301	18.43
387.511	73.73
387.72	53.25
387.93	145.41
388.14	4.1
388.35	63.49
388.56	63.49
388.769	75.77
388.979	104.45
389.189	59.39
389.399	92.16
389.609	112.64
389.818	122.88
390.028	106.49
390.238	120.83
390.447	20.48
390.657	69.63
390.867	57.34
391.076	61.44
391.286	59.39
391.496	40.96
391.705	77.82
391.915	67.58
392.125	63.49
392.334	57.34
392.544	69.63
392.753	65.53
392.963	65.53
393.172	126.97
393.382	108.54
393.591	184.32
393.801	106.49
394.01	83.97
394.22	92.16
394.429	118.78
394.639	88.06
394.848	190.46
395.058	88.06
395.267	139.26
395.477	145.41
395.686	112.64
395.895	118.78
396.105	83.97
396.314	184.32
396.524	90.11
396.733	61.44
396.942	59.39
397.152	145.41
397.361	67.58
397.57	67.58
397.78	141.31
397.989	81.92
398.198	149.5
398.407	122.88
398.617	104.45
398.826	110.59
399.035	110.59
399.244	145.41
399.453	161.79
399.663	77.82
399.872	36.86
400.081	38.91
400.29	212.99
400.499	96.25
400.708	98.3
400.917	94.21
401.127	116.73
401.336	126.97
401.545	92.16
401.754	147.45
401.963	174.08
402.172	98.3
402.381	194.56
402.59	137.21
402.799	143.36
403.008	149.5
403.217	165.89
403.426	165.89
403.635	106.49
403.844	149.5
404.053	151.55
404.262	169.98
404.471	221.18
404.68	159.74
404.888	163.84
405.097	126.97
405.306	112.64
405.515	219.13
405.724	190.46
405.933	178.17
406.142	239.61
406.35	229.37
406.559	81.92
406.768	282.62
406.977	212.99
407.185	163.84
407.394	223.23
407.603	167.93
407.812	239.61
408.02	198.65
408.229	229.37
408.438	221.18
408.646	301.05
408.855	161.79
409.064	348.15
409.272	251.9
409.481	294.91
409.69	292.86
409.898	317.44
410.107	294.91
410.315	299
410.524	311.29
410.733	335.87
410.941	329.72
411.15	378.87
411.358	364.54
411.567	425.98
411.775	499.7
411.984	452.6
412.192	425.98
412.401	454.65
412.609	464.89
412.818	475.13
413.026	518.14
413.234	509.94
413.443	598.01
413.651	608.25
413.86	550.9
414.068	649.21
414.276	657.4
414.485	661.49
414.693	641.01
414.901	708.6
415.11	772.08
415.318	729.08
415.526	727.03
415.734	767.99
415.943	847.86
416.151	935.92
416.359	882.67
416.567	917.49
416.776	923.63
416.984	1001.46
417.192	1077.23
417.4	1064.94
417.608	1087.47
417.817	1069.04
418.025	1171.44
418.233	1208.3
418.441	1232.88
418.649	1382.38
418.857	1382.38
419.065	1363.95
419.273	1357.8
419.481	1576.94
419.689	1419.24
419.897	1615.85
420.105	1540.07
420.313	1615.85
420.521	1673.19
420.729	1648.61
420.937	1873.89
421.145	1798.12
421.353	1951.71
421.561	2007.01
421.769	2037.73
421.977	2105.31
422.185	2199.52
422.393	2353.12
422.601	2367.45
422.809	2369.5
423.017	2404.32
423.224	2508.76
423.432	2680.79
423.64	2629.59
423.848	2762.71
424.056	2783.19
424.263	3047.38
424.471	3049.43
424.679	3026.9
424.887	3260.37
425.094	3330
425.302	3282.89
425.51	3432.4
425.718	3514.31
425.925	3661.77
426.133	3758.02
426.341	3928
426.548	4124.61
426.756	4143.04
426.964	4231.1
427.171	4427.71
427.379	4650.94
427.586	4485.05
427.794	4829.11
428.001	4997.04
428.209	5048.24
428.417	4978.61
428.624	5629.87
428.832	5468.08
429.039	5466.03
429.247	5420.97
429.454	5916.58
429.662	6420.38
429.869	5881.77
430.076	6332.32
430.284	6326.18
430.491	6426.53
430.699	6811.54
430.906	6713.24
431.114	6981.53
431.321	7128.98
431.528	7182.23
431.736	7800.71
431.943	8077.19
432.15	7784.33
432.358	7970.69
432.565	8347.52
432.772	8331.14
432.979	8828.79
433.187	8843.13
433.394	8931.19
433.601	9508.72
433.808	9647.98
434.016	9613.17
434.223	10090.34
434.43	10626.91
434.637	10389.35
434.844	11079.51
435.052	11016.02
435.259	11128.66
435.466	11310.93
435.673	11505.49
435.88	11822.92
436.087	12437.31
436.294	12621.63
436.501	12185.41
436.708	12539.71
436.915	12887.87
437.122	13444.91
437.329	13340.47
437.537	13930.28
437.743	14075.69
437.95	14028.59
438.157	14683.94
438.364	15327
438.571	15388.44
438.778	15630.1
438.985	16549.64
439.192	16072.46
439.399	16606.98
439.606	16324.36
439.813	17245.94
440.02	17944.3
440.227	17848.05
440.433	17524.47
440.64	18261.74
440.847	18333.42
441.054	18704.1
441.261	19846.87
441.467	19568.34
441.674	20082.38
441.881	20436.68
442.088	20512.45
442.294	20473.54
442.501	21034.69
442.708	21163.71
442.914	22294.19
443.121	23133.85
443.328	22517.42
443.534	24190.61
443.741	23328.41
443.948	23148.19
444.154	24999.55
444.361	24759.94
444.568	24692.36
444.774	24817.29
444.981	25456.25
445.187	26107.51
445.394	27229.79
445.6	26898.02
445.807	29089.35
446.013	28024.4
446.22	28446.29
446.426	29791.8
446.633	29705.79
446.839	30828.07
447.046	29539.9
447.252	31350.31
447.459	31268.39
447.665	31239.72
447.871	32626.19
448.078	34063.86
448.284	32132.63
448.491	33173
448.697	34338.29
448.903	34813.42
449.11	35108.33
449.316	34557.42
449.522	35352.04
449.728	35851.74
449.935	36359.64
450.141	36351.45
450.347	36918.73
450.553	35751.39
450.76	36140.5
450.966	37604.8
451.172	37184.97
451.378	37881.28
451.584	36951.5
451.791	37875.13
451.997	37633.47
452.203	38391.22
452.409	38407.61
452.615	37850.56
452.821	36951.5
453.027	36394.45
453.233	38608.31
453.44	36773.33
453.646	37436.87
453.852	37522.88
454.058	37666.24
454.264	36482.52
454.47	37346.76
454.676	36572.63
454.882	37721.54
455.088	34463.22
455.294	34784.75
455.5	35444.2
455.705	35954.14
455.911	34319.86
456.117	33496.58
456.323	33228.29
456.529	31620.64
456.735	32636.43
456.941	31921.69
457.147	31354.4
457.352	30488.11
457.558	30182.96
457.764	30131.76
457.97	29484.61
458.176	28749.39
458.381	28878.41
458.587	27498.08
458.793	27600.47
458.999	25915
459.204	27833.94
459.41	27256.42
459.616	25423.48
459.821	25286.27
460.027	25349.76
460.233	24610.44
460.438	23299.74
460.644	23883.41
460.85	22750.88
461.055	22310.57
461.261	22030
461.466	21036.74
461.672	20213.45
461.878	21583.54
462.083	20139.72
462.289	19830.48
462.494	19334.87
462.7	18548.45
462.905	18050.8
463.111	18792.16
463.316	18923.23
463.522	18487.01
463.727	18458.34
463.932	18503.4
464.138	18108.14
464.343	18343.66
464.549	17673.97
464.754	18251.5
464.959	18204.39
465.165	18429.67
465.37	17135.35
465.575	16903.93
465.781	17592.05
465.986	17608.44
466.191	17225.47
466.397	16592.64
466.602	15898.38
466.807	16703.23
467.012	16318.22
467.218	16303.88
467.423	16090.89
467.628	16539.4
467.833	17098.49
468.038	16447.24
468.244	16023.31
468.449	16621.31
468.654	16035.6
468.859	16056.08
469.064	15884.05
469.269	15341.33
469.474	15195.93
469.679	15869.71
469.885	15101.72
470.09	15544.08
470.295	15261.46
470.5	14761.76
470.705	14954.27
470.91	14636.83
471.115	14516
471.32	14599.97
471.525	14737.18
471.73	14286.63
471.935	14098.22
472.139	13864.75
472.344	13942.57
472.549	13717.29
472.754	13580.08
472.959	13156.15
473.164	12937.02
473.369	12975.93
473.574	13582.13
473.778	13326.13
473.983	12959.55
474.188	12879.68
474.393	12414.79
474.598	12793.66
474.802	12310.34
475.007	12521.28
475.212	12353.35
475.417	12042.06
475.621	11982.67
475.826	11976.52
476.031	11659.09
476.235	11579.22
476.44	11835.21
476.645	11353.94
476.849	11374.42
477.054	11497.3
477.259	11229.01
477.463	11114.33
477.668	10805.08
477.872	11028.31
478.077	10821.47
478.282	10501.98
478.486	10536.8
478.691	10383.2
478.895	10506.08
479.1	10221.41
479.304	10526.56
479.509	10131.3
479.713	10176.36
479.918	10141.54
480.122	9817.96
480.326	10135.4
480.531	9930.6
480.735	9908.07
480.94	9901.93
481.144	9946.98
481.348	9596.78
481.553	9740.14
481.757	9545.58
481.961	9813.87
482.166	9682.8
482.37	9588.59
482.574	9592.69
482.778	9475.95
482.983	9799.53
483.187	9412.46
483.391	9590.64
483.595	9551.73
483.8	9707.37
484.004	9568.11
484.208	9557.87
484.412	9592.69
484.616	9561.97
484.821	9660.27
485.025	9400.18
485.229	9568.11
485.433	9379.7
485.637	9627.5
485.841	9543.53
486.045	9584.49
486.249	9707.37
486.453	9641.84
486.657	9623.41
486.861	9625.45
487.065	9412.46
487.269	9486.19
487.473	9486.19
487.677	9533.29
487.881	9635.69
488.085	9695.08
488.289	9576.3
488.493	9615.21
488.697	9365.36
488.901	9758.57
489.105	9662.32
489.309	9903.98
489.512	9688.94
489.716	9703.28
489.92	9613.17
490.124	9693.04
490.328	9981.8
490.531	9637.74
490.735	9738.09
490.939	10143.59
491.143	9715.56
491.346	9906.02
491.55	10073.96
491.754	10086.25
491.958	10137.45
492.161	9981.8
492.365	10067.81
492.569	10243.94
492.772	10260.32
492.976	10368.87
493.18	10424.16
493.383	10585.95
493.587	10493.79
493.79	10569.57
493.994	10536.8
494.197	10704.73
494.401	10653.53
494.605	10891.1
494.808	10942.3
495.012	10880.86
495.215	11044.7
495.419	11165.53
495.622	11151.19
495.825	11181.91
496.029	11478.86
496.232	11540.3
496.436	11456.34
496.639	11933.51
496.843	11669.33
497.046	11933.51
497.249	11935.56
497.453	12121.93
497.656	12240.71
497.859	12199.75
498.063	12341.06
498.266	12865.34
498.469	12545.86
498.673	12879.68
498.876	12705.6
499.079	13225.78
499.282	13211.45
499.485	13522.74
499.689	13506.35
499.892	13582.13
500.095	13930.28
500.298	13981.48
500.501	14112.55
500.705	14511.91
500.908	14475.04
501.111	14608.16
501.314	14712.61
501.517	14825.25
501.72	15036.19
501.923	15470.36
502.126	15521.56
502.329	15927.05
502.532	15978.25
502.735	15957.77
502.938	16437
503.141	16432.9
503.344	16705.28
503.547	16908.03
503.75	16740.1
503.953	17243.9
504.156	17534.71
504.359	17735.41
504.562	17786.61
504.765	17993.45
504.968	18212.59
505.17	18425.57
505.373	18368.23
505.576	18724.58
505.779	19209.95
505.982	19287.77
506.185	19726.03
506.387	19594.97
506.59	19853.01
506.793	20528.84
506.996	20438.73
507.198	20860.61
507.401	20704.96
507.604	21143.23
507.807	21245.63
508.009	21610.17
508.212	21950.13
508.415	22290.09
508.617	22306.48
508.82	22767.27
509.022	22488.74
509.225	22875.81
509.428	23273.12
509.63	23699.09
509.833	23537.3
510.035	24260.24
510.238	24043.15
510.44	24546.95
510.643	24991.36
510.845	25003.65
511.048	25405.05
511.25	25495.16
511.453	25882.23
511.655	26797.67
511.858	26478.19
512.06	26584.68
512.262	27055.72
512.465	26902.12
512.667	27532.89
512.87	27936.34
513.072	28069.46
513.274	28692.04
513.477	28872.26
513.679	28982.85
513.881	29591.1
514.084	29695.55
514.286	29998.65
514.488	30123.57
514.69	31143.46
514.893	31356.45
515.095	31258.15
515.297	31471.14
515.499	31890.97
515.701	32339.47
515.904	32661.01
516.106	32613.9
516.308	33451.52
516.51	33605.12
516.712	33832.44
516.914	34000.38
517.116	34639.34
517.318	34874.86
517.52	35106.28
517.722	35192.29
517.925	35290.6
518.127	36070.87
518.329	36337.11
518.531	36117.98
518.733	36873.68
518.935	37346.76
519.136	37348.81
519.338	37955
519.54	38356.41
519.742	38546.87
519.944	39009.71
520.146	39859.62
520.348	39843.23
520.55	39935.39
520.752	40670.61
520.954	40824.21
521.155	40525.21
521.357	41430.41
521.559	41545.09
521.761	42331.51
521.963	41725.32
522.164	42306.94
522.366	42708.34
522.568	43183.47
522.77	43445.61
522.971	44004.7
523.173	44070.24
523.375	44262.75
523.576	44139.87
523.778	44518.74
523.98	45022.54
524.181	45157.71
524.383	45407.56
524.584	45669.7
524.786	46011.71
524.988	45901.12
525.189	46286.14
525.391	46982.45
525.592	47011.12
525.794	47316.27
525.995	47385.9
526.197	47050.03
526.398	47457.58
526.6	47947.04
526.801	47779.11
527.003	48430.36
527.204	48407.84
527.406	48626.97
527.607	48700.7
527.808	49130.77
528.01	48307.49
528.211	48786.71
528.412	49517.84
528.614	49456.4
528.815	49683.72
529.016	49847.56
529.218	49605.9
529.419	50494.72
529.62	50138.37
529.822	49978.63
530.023	49546.51
530.224	50154.75
530.425	50062.6
530.626	49786.12
530.828	49818.89
531.029	51039.48
531.23	50679.03
531.431	50842.87
531.632	49982.73
531.833	50994.42
532.035	50298.11
532.236	51119.35
532.437	50914.55
532.638	50437.37
532.839	51201.27
533.04	51469.55
533.241	51299.57
533.442	51125.49
533.643	51143.92
533.844	51584.24
534.045	51690.73
534.246	50975.99
534.447	51514.61
534.648	50818.3
534.849	51391.73
535.05	51199.22
535.251	51367.15
535.451	50951.41
535.652	51428.59
535.853	51219.7
536.054	51117.3
536.255	51752.17
536.456	51231.99
536.657	52124.9
536.857	51440.88
537.058	50912.5
537.259	51567.85
537.46	51842.28
537.66	51877.1
537.861	51340.53
538.062	51641.58
538.263	51805.42
538.463	51719.4
538.664	51619.05
538.865	51469.55
539.065	52317.41
539.266	51062
539.466	51840.23
539.667	51039.48
539.868	51428.59
540.068	51387.63
540.269	51289.33
540.469	51733.74
540.67	51315.95
540.87	51406.06
541.071	51588.33
541.271	51379.44
541.472	51436.78
541.672	51502.32
541.873	51477.74
542.073	50939.13
542.274	51399.92
542.474	51279.09
542.675	50912.5
542.875	51256.56
543.075	51416.3
543.276	50859.26
543.476	51530.99
543.676	51236.08
543.877	51932.39
544.077	51574
544.277	50965.75
544.478	51322.1
544.678	51576.04
544.878	51651.82
545.078	51281.14
545.279	51123.44
545.479	51084.53
545.679	51352.82
545.879	51426.54
546.079	51358.96
546.28	51555.57
546.48	50767.1
546.68	51318
546.88	51825.9
547.08	51330.29
547.28	50998.52
547.48	50676.99
547.68	51498.22
547.88	50902.26
548.081	51248.37
548.281	50814.2
548.481	50795.77
548.681	51274.99
548.881	51395.82
549.081	50924.79
549.28	50644.22
549.48	51301.62
549.68	51461.36
549.88	51543.28
550.08	50844.92
550.28	51346.67
550.48	50930.93
550.68	51131.64
550.88	50760.95
551.08	51297.52
551.279	50959.61
551.479	50519.29
551.679	51240.18
551.879	50846.97
552.079	51272.95
552.278	50691.32
552.478	51055.86
552.678	50953.46
552.878	50998.52
553.077	50756.86
553.277	50607.36
553.477	51412.21
553.676	50695.42
553.876	50519.29
554.076	50517.25
554.275	50531.58
554.475	50070.79
554.674	51096.82
554.874	50427.13
555.074	50461.95
555.273	50670.84
555.473	50820.34
555.672	49968.39
555.872	50373.89
556.071	50236.67
556.271	50511.1
556.47	50248.96
556.67	49648.91
556.869	50380.03
557.068	50312.45
557.268	49446.16
557.467	49931.53
557.667	49683.72
557.866	49736.97
558.065	49784.07
558.265	49577.23
558.464	49360.14
558.663	50054.4
558.863	48839.96
559.062	50191.62
559.261	49325.33
559.461	49909
559.66	48786.71
559.859	49278.22
560.058	49071.38
560.258	49059.09
560.457	48741.66
560.656	49173.78
560.855	48848.15
561.054	49108.24
561.253	48336.16
561.453	49048.85
561.652	48596.25
561.851	49173.78
562.05	48954.64
562.249	48266.53
562.448	48678.17
562.647	48147.75
562.846	48442.65
563.045	48471.32
563.244	47779.11
563.443	48813.34
563.642	47439.15
563.841	48123.17
564.04	47701.29
564.239	48491.8
564.438	47557.93
564.637	48031.01
564.836	48067.87
565.035	47629.61
565.234	47787.3
565.432	47545.64
565.631	47527.21
565.83	47588.65
566.029	47306.03
566.228	47068.47
566.427	46771.51
566.625	47254.83
566.824	46411.07
567.023	47152.43
567.222	45903.17
567.42	46843.19
567.619	46609.72
567.818	46830.9
568.016	46779.7
568.215	46835
568.414	46523.71
568.612	47047.99
568.811	46245.18
569.01	46300.48
569.208	45647.18
569.407	46030.15
569.605	45430.09
569.804	46005.57
570.002	45423.95
570.201	45921.6
570.4	45536.59
570.598	45186.38
570.797	45014.35
570.995	45137.23
571.193	44606.81
571.392	45335.88
571.59	44674.39
571.789	44879.19
571.987	44635.48
572.186	44193.12
572.384	44262.75
572.582	44424.54
572.781	44545.37
572.979	43943.27
573.177	43844.96
573.376	43871.59
573.574	43498.86
573.772	43945.31
573.971	43670.89
574.169	43433.32
574.367	43072.88
574.565	43849.06
574.763	43433.32
574.962	42763.64
575.16	42458.49
575.358	42861.94
575.556	42599.8
575.754	42581.37
575.952	42141.05
576.151	42861.94
576.349	42188.16
576.547	41893.25
576.745	42012.03
576.943	42128.77
577.141	42057.09
577.339	41969.02
577.537	41532.81
577.735	42085.76
577.933	41149.84
578.131	41442.7
578.329	40992.14
578.527	41012.62
578.725	41166.22
578.923	41409.93
579.121	40424.86
579.319	40476.05
579.516	40914.32
579.714	40435.1
579.912	40287.64
580.11	40105.37
580.308	40627.6
580.506	40312.22
580.704	39665.06
580.901	40154.52
581.099	39882.14
581.297	39658.91
581.495	40140.19
581.692	39644.58
581.89	39376.3
582.088	39468.45
582.285	39300.52
582.483	39263.66
582.681	39216.55
582.878	39056.81
583.076	38763.95
583.274	39372.2
583.471	38096.31
583.669	38657.46
583.866	38235.58
584.064	38860.21
584.262	37965.24
584.459	38426.04
584.657	37828.03
584.854	38049.21
585.052	37569.99
585.249	37793.22
585.447	38006.2
585.644	37160.39
585.841	37338.57
586.039	37311.94
586.236	37021.13
586.434	36705.74
586.631	37014.99
586.828	37162.44
587.026	37023.18
587.223	36562.39
587.42	36756.94
587.618	36904.4
587.815	36066.78
588.012	36197.85
588.21	35948
588.407	36498.9
588.604	36158.94
588.801	35743.2
588.999	35630.56
589.196	35685.86
589.393	35700.19
589.59	35249.64
589.787	35274.21
589.984	35151.34
590.182	34995.69
590.379	35360.23
590.576	34774.51
590.773	35061.22
590.97	34997.74
591.167	34749.93
591.364	34590.19
591.561	34692.59
591.758	34270.71
591.955	34385.4
592.152	34303.48
592.349	34151.93
592.546	34258.42
592.743	34092.54
592.94	33617.41
593.137	33916.41
593.334	33795.58
593.531	33359.36
593.727	33832.44
593.924	33709.57
594.121	33054.22
594.318	33641.98
594.515	33105.41
594.712	33078.79
594.908	32818.7
595.105	32822.8
595.302	32734.73
595.499	32675.34
595.696	32443.92
595.892	32450.06
596.089	32519.7
596.286	32325.14
596.482	32187.92
596.679	32364.05
596.876	32208.4
597.072	31981.08
597.269	32179.73
597.466	31692.32
597.662	31809.05
597.859	31774.24
598.055	31604.25
598.252	31542.81
598.448	31378.98
598.645	31417.89
598.841	30977.58
599.038	31321.63
599.234	30985.77
599.431	30645.8
599.627	30899.75
599.824	30858.79
600.02	30484.01
600.217	30713.39
600.413	30332.47
600.609	30373.42
600.806	30268.98
601.002	30649.9
601.198	29982.26
601.395	30062.13
601.591	29740.6
601.787	30266.93
601.984	29738.55
602.18	29865.53
602.376	29556.28
602.572	29484.61
602.769	29556.28
602.965	29154.88
603.161	29064.77
603.357	29032
603.553	29285.95
603.75	28945.99
603.946	28261.97
604.142	28927.56
604.338	28276.3
604.534	28462.67
604.73	27956.82
604.926	28272.21
605.122	28065.36
605.318	28110.42
605.514	28075.6
605.71	27659.87
605.906	27698.78
606.102	28032.6
606.298	27801.18
606.494	27410.01
606.69	27463.26
606.886	27653.72
607.082	27414.11
607.278	27446.88
607.474	27027.04
607.67	27616.86
607.866	27035.24
608.062	27410.01
608.257	26879.59
608.453	26910.31
608.649	27106.91
608.845	26828.39
609.041	26895.97
609.236	26639.98
609.432	26584.68
609.628	26441.32
609.824	26246.77
610.019	26097.27
610.215	26113.65
610.411	26459.76
610.606	25781.88
610.802	26201.71
610.998	25947.76
611.193	26173.04
611.389	25753.21
611.584	25785.97
611.78	25437.82
611.976	25333.37
612.171	25615.99
612.367	25669.24
612.562	25384.57
612.758	25192.06
612.953	25153.15
613.149	25689.72
613.344	24899.2
613.539	25478.78
613.735	25292.41
613.93	25157.25
614.126	24862.34
614.321	25106.05
614.517	25163.39
614.712	24958.6
614.907	24819.33
615.103	24962.69
615.298	24604.3
615.493	24786.57
615.688	24272.53
615.884	24735.37
616.079	24321.68
616.274	24434.32
616.47	24503.95
616.665	24370.83
616.86	24219.28
617.055	24166.03
617.25	23928.47
617.445	24120.98
617.641	23858.84
617.836	24137.36
618.031	23645.85
618.226	23918.23
618.421	23557.78
618.616	23608.98
618.811	23383.71
619.006	23744.15
619.201	22994.59
619.396	23328.41
619.591	22976.16
619.786	22965.92
619.981	22638.25
620.176	23236.25
620.371	22623.91
620.566	22816.42
620.761	22695.59
620.956	22644.39
621.151	22374.06
621.346	22496.94
621.541	22048.43
621.735	22027.95
621.93	22013.62
622.125	21606.07
622.32	21470.9
622.515	21939.89
622.709	21372.6
622.904	21429.94
623.099	21204.67
623.294	21229.24
623.488	21081.79
623.683	20811.46
623.878	20704.96
624.072	20750.02
624.267	20725.44
624.462	20301.51
624.656	20354.76
624.851	20506.31
625.046	20274.89
625.24	19992.27
625.435	20076.24
625.629	19848.91
625.824	19689.17
626.018	19615.44
626.213	19269.34
626.407	19525.33
626.602	19183.32
626.796	19295.96
626.991	19314.39
627.185	19042.01
627.38	18831.07
627.574	18818.78
627.768	18585.32
627.963	18548.45
628.157	18054.89
628.352	18364.14
628.546	18265.83
628.74	18282.22
628.935	17942.25
629.129	17997.55
629.323	17733.36
629.517	17915.63
629.712	17571.57
629.906	17575.67
630.1	17145.59
630.294	17493.75
630.489	17241.85
630.683	17358.58
630.877	16946.94
631.071	17188.6
631.265	17143.55
631.459	16819.97
631.653	16869.12
631.848	16989.95
632.042	16588.55
632.236	16733.95
632.43	16508.68
632.624	16551.68
632.818	16174.86
633.012	16115.47
633.206	16142.09
633.4	16172.81
633.594	15843.09
633.788	16080.65
633.982	15879.95
634.176	15941.39
634.369	15527.7
634.563	15693.58
634.757	15531.79
634.951	15396.63
635.145	15384.34
635.339	15265.56
635.533	15208.22
635.726	15179.54
635.92	15025.95
636.114	14870.3
636.308	15032.09
636.501	14712.61
636.695	14767.9
636.889	14612.26
637.083	14475.04
637.276	14421.8
637.47	14559.01
637.664	14481.19
637.857	14249.77
638.051	14163.75
638.244	14006.06
638.438	13924.14
638.632	14001.96
638.825	13971.24
639.019	13870.89
639.212	13758.25
639.406	13795.12
639.599	13367.09
639.793	13692.72
639.986	13344.56
640.18	13592.37
640.373	13350.71
640.567	13166.39
640.76	13260.6
640.954	12996.41
641.147	12771.13
641.34	13164.34
641.534	12969.79
641.727	12701.5
641.92	12930.87
642.114	12826.43
642.307	12721.98
642.5	12511.04
642.694	12308.29
642.887	12261.19
643.08	12287.81
643.273	12271.43
643.467	12212.04
643.66	11999.05
643.853	12048.2
644.046	11876.17
644.239	11960.14
644.432	11878.22
644.626	11849.55
644.819	11513.68
645.012	11628.37
645.205	11624.27
645.398	11415.38
645.591	11345.75
645.784	11358.03
645.977	11460.43
646.17	11331.41
646.363	11153.24
646.556	11134.81
646.749	11085.65
646.942	11003.74
647.135	10993.5
647.328	10938.2
647.521	10887
647.714	10583.9
647.907	10542.94
648.099	10620.77
648.292	10592.09
648.485	10360.67
648.678	10278.76
648.871	10207.08
649.064	10221.41
649.256	10358.63
649.449	10299.23
649.642	10092.39
649.835	10205.03
650.027	10174.31
650.22	9897.83
650.413	9934.7
650.605	9807.72
650.798	9756.52
650.991	9729.9
651.183	9848.68
651.376	9545.58
651.568	9635.69
651.761	9525.1
651.954	9320.31
652.146	9371.5
652.339	9379.7
652.531	9301.87
652.724	9273.2
652.916	9054.07
653.109	9111.41
653.301	8898.42
653.494	9246.58
653.686	8722.3
653.879	8927.1
654.071	8789.88
654.263	8841.08
654.456	8931.19
654.648	8826.75
654.84	8558.46
655.033	8482.69
655.225	8531.84
655.417	8408.96
655.61	8316.8
655.802	8474.49
655.994	8224.64
656.186	8415.1
656.379	8263.55
656.571	8163.2
656.763	7874.44
656.955	7919.5
657.148	8107.91
657.34	7982.98
657.532	7847.82
657.724	7778.19
657.916	7892.87
658.108	7823.24
658.3	7600.01
658.492	7665.55
658.684	7436.17
658.876	7759.75
659.068	7626.64
659.26	7589.77
659.452	7483.28
659.644	7341.97
659.836	7008.15
660.028	7403.41
660.22	7161.75
660.412	7112.6
660.604	7135.12
660.796	7276.43
660.988	7104.4
661.18	7051.16
661.372	6899.61
661.563	7034.77
661.755	6848.41
661.947	6969.24
662.139	6918.04
662.331	6789.02
662.522	6678.43
662.714	6774.68
662.906	6576.03
663.097	6500.25
663.289	6561.69
663.481	6555.55
663.673	6369.18
663.864	6475.68
664.056	6272.93
664.247	6371.23
664.439	6379.42
664.631	6266.78
664.822	6315.94
665.014	6133.67
665.205	6090.66
665.397	6199.2
665.588	5928.87
665.78	5967.78
665.971	6049.7
666.163	6043.56
666.354	6090.66
666.546	5859.24
666.737	5883.81
666.929	5810.09
667.12	5935.01
667.311	5810.09
667.503	5662.63
667.694	5889.96
667.885	5711.78
668.077	5695.4
668.268	5463.98
668.459	5494.7
668.651	5668.78
668.842	5574.57
669.033	5470.12
669.224	5398.45
669.416	5339.05
669.607	5552.04
669.798	5320.62
669.989	5466.03
670.18	5433.26
670.371	5398.45
670.563	5283.76
670.754	5228.46
670.945	5216.18
671.136	5111.73
671.327	5214.13
671.518	5236.66
671.709	4949.94
671.9	5095.35
672.091	5015.48
672.282	5121.97
672.473	4937.65
672.664	5001.14
672.855	5005.24
673.046	4870.07
673.237	4951.99
673.428	4984.76
673.619	4800.44
673.809	4870.07
674	4941.75
674.191	4855.73
674.382	4763.58
674.573	4847.54
674.764	4720.57
674.954	4841.4
675.145	4782.01
675.336	4741.05
675.527	4825.01
675.717	4886.45
675.908	4542.39
676.099	4595.64
676.289	4607.93
676.48	4628.41
676.671	4493.24
676.861	4517.82
677.052	4583.35
677.243	4302.78
677.433	4550.59
677.624	4519.87
677.814	4331.45
678.005	4452.28
678.195	4519.87
678.386	4370.37
678.576	4425.66
678.767	4241.34
678.957	4351.93
679.148	4356.03
679.338	4345.79
679.529	4253.63
679.719	4083.65
679.909	4462.52
680.1	4138.94
680.29	4083.65
680.481	4181.95
680.671	4231.1
680.861	4034.5
681.052	4100.03
681.242	4186.05
681.432	4081.6
681.622	3983.3
681.813	4093.89
682.003	4190.14
682.193	4011.97
682.383	4093.89
682.573	4130.75
682.764	4243.39
682.954	4054.98
683.144	4052.93
683.334	3856.33
683.524	3991.49
683.714	3999.68
683.904	3968.96
684.094	4073.41
684.284	3854.28
684.474	4057.03
684.664	4091.84
684.854	4036.55
685.044	3991.49
685.234	3874.76
685.424	4048.83
685.614	3934.15
685.804	3846.09
685.994	3862.47
686.184	3778.5
686.374	3942.34
686.564	3809.22
686.753	3778.5
686.943	3831.75
687.133	3780.55
687.323	3784.65
687.513	3696.58
687.702	3807.17
687.892	3690.44
688.082	3739.59
688.272	3813.32
688.461	3778.5
688.651	3786.69
688.841	3583.95
689.03	3651.53
689.22	3786.69
689.41	3667.91
689.599	3631.05
689.789	3682.25
689.979	3674.06
690.168	3614.66
690.358	3518.41
690.547	3600.33
690.737	3606.47
690.926	3510.22
691.116	3571.66
691.305	3690.44
691.495	3575.75
691.684	3766.21
691.874	3573.71
692.063	3506.12
692.252	3600.33
692.442	3536.84
692.631	3522.51
692.82	3549.13
693.01	3479.5
693.199	3481.55
693.388	3479.5
693.578	3481.55
693.767	3596.23
693.956	3612.62
694.146	3473.35
694.335	3495.88
694.524	3520.46
694.713	3542.99
694.902	3538.89
695.092	3524.55
695.281	3434.44
695.47	3522.51
695.659	3446.73
695.848	3391.44
696.037	3545.03
696.226	3461.07
696.415	3377.1
696.604	3405.77
696.793	3364.81
696.982	3620.81
697.171	3381.2
697.36	3446.73
697.549	3499.98
697.738	3428.3
697.927	3479.5
698.116	3418.06
698.305	3436.49
698.494	3456.97
698.683	3342.28
698.872	3399.63
699.061	3555.27
699.25	3315.66
699.438	3418.06
699.627	3395.53
699.816	3330
700.005	3364.81
700.193	3307.47
700.382	3301.33
700.571	3289.04
700.76	3323.85
700.948	3366.86
701.137	3364.81
701.326	3256.27
701.514	3327.95
701.703	3233.74
701.892	3176.4
702.08	3368.91
702.269	3272.65
702.457	3282.89
702.646	3315.66
702.834	3303.37
703.023	3114.96
703.212	3291.09
703.4	3125.2
703.589	3166.16
703.777	3252.17
703.965	3153.87
704.154	3143.63
704.342	3076.05
704.531	3074
704.719	3063.76
704.907	3139.54
705.096	3145.68
705.284	3162.06
705.472	2918.36
705.661	2928.6
705.849	3041.23
706.037	3065.81
706.226	3020.75
706.414	3100.62
706.602	2951.12
706.79	3092.43
706.979	2904.02
707.167	2899.92
707.355	2953.17
707.543	2965.46
707.731	2947.03
707.919	2957.27
708.107	2949.07
708.296	2856.92
708.484	2858.96
708.672	2912.21
708.86	2875.35
709.048	2787.29
709.236	2830.29
709.424	2893.78
709.612	2768.85
709.8	2762.71
709.988	2762.71
710.176	2824.15
710.364	2703.32
710.551	2826.2
710.739	2783.19
710.927	2740.18
711.115	2791.38
711.303	2811.86
711.491	2846.68
711.679	2664.41
711.866	2564.06
712.054	2660.31
712.242	2652.12
712.43	2674.65
712.617	2676.7
712.805	2682.84
712.993	2672.6
713.181	2691.03
713.368	2635.74
713.556	2664.41
713.744	2549.72
713.931	2635.74
714.119	2502.62
714.306	2576.34
714.494	2568.15
714.682	2576.34
714.869	2613.21
715.057	2488.28
715.244	2455.51
715.432	2539.48
715.619	2559.96
715.807	2377.69
715.994	2424.8
716.182	2447.32
716.369	2473.95
716.556	2351.07
716.744	2443.23
716.931	2398.17
717.119	2414.56
717.306	2400.22
717.493	2420.7
717.681	2322.4
717.868	2353.12
718.055	2392.03
718.242	2283.49
718.43	2330.59
718.617	2285.53
718.804	2197.47
718.991	2281.44
719.179	2252.77
719.366	2306.01
719.553	2254.81
719.74	2234.33
719.927	2314.2
720.114	2205.66
720.301	2187.23
720.488	2142.18
720.676	2172.89
720.863	2129.89
721.05	2131.94
721.237	2138.08
721.424	2152.42
721.611	2158.56
721.798	2140.13
721.985	2037.73
722.172	2070.5
722.358	2156.51
722.545	2076.64
722.732	2062.3
722.919	2174.94
723.106	2131.94
723.293	1943.52
723.48	2097.12
723.667	2045.92
723.853	1966.05
724.04	2113.5
724.227	2056.16
724.414	2045.92
724.6	2011.11
724.787	2021.35
724.974	1894.37
725.161	1882.08
725.347	1806.31
725.534	2015.2
725.72	1937.38
725.907	1939.43
726.094	1992.67
726.28	1861.6
726.467	1902.56
726.653	1882.08
726.84	1808.36
727.027	1886.18
727.213	1808.36
727.4	1791.97
727.586	1789.92
727.773	1841.12
727.959	1781.73
728.145	1845.22
728.332	1781.73
728.518	1826.79
728.705	1845.22
728.891	1822.69
729.077	1789.92
729.264	1705.96
729.45	1773.54
729.636	1845.22
729.823	1701.86
730.009	1828.84
730.195	1787.88
730.382	1636.33
730.568	1767.4
730.754	1640.42
730.94	1740.77
731.126	1753.06
731.313	1712.1
731.499	1619.94
731.685	1654.76
731.871	1644.52
732.057	1568.74
732.243	1693.67
732.429	1597.42
732.615	1673.19
732.801	1626.09
732.987	1613.8
733.173	1566.7
733.359	1621.99
733.545	1578.98
733.731	1554.41
733.917	1650.66
734.103	1601.51
734.289	1542.12
734.475	1572.84
734.661	1570.79
734.847	1609.7
735.033	1501.16
735.219	1605.61
735.404	1578.98
735.59	1587.18
735.776	1492.97
735.962	1503.21
736.148	1597.42
736.333	1527.78
736.519	1542.12
736.705	1396.71
736.89	1560.55
737.076	1480.68
737.262	1394.67
737.447	1415.15
737.633	1402.86
737.819	1421.29
738.004	1468.39
738.19	1447.91
738.375	1388.52
738.561	1429.48
738.747	1343.47
738.932	1423.34
739.118	1402.86
739.303	1378.28
739.489	1335.28
739.674	1390.57
739.859	1392.62
740.045	1339.37
740.23	1449.96
740.416	1333.23
740.601	1314.8
740.786	1402.86
740.972	1366
741.157	1361.9
741.342	1343.47
741.528	1396.71
741.713	1320.94
741.898	1259.5
742.084	1275.88
742.269	1282.03
742.454	1277.93
742.639	1314.8
742.824	1366
743.01	1249.26
743.195	1374.19
743.38	1322.99
743.565	1214.45
743.75	1265.64
743.935	1290.22
744.12	1290.22
744.305	1089.52
744.49	1241.07
744.675	1284.08
744.86	1251.31
745.045	1193.97
745.23	1177.58
745.415	1261.55
745.6	1185.77
745.785	1249.26
745.97	1257.45
746.155	1159.15
746.34	1132.53
746.525	1175.53
746.71	1134.57
746.895	1095.66
747.079	1171.44
747.264	1087.47
747.449	1128.43
747.634	1165.29
747.819	1103.86
748.003	1105.9
748.188	1038.32
748.373	1069.04
748.557	1060.85
748.742	1009.65
748.927	1015.79
749.111	1058.8
749.296	993.26
749.481	1021.94
749.665	983.02
749.85	1017.84
750.034	1077.23
750.219	1032.18
750.404	989.17
750.588	917.49
750.773	989.17
750.957	944.11
751.141	929.78
751.326	1032.18
751.51	892.91
751.695	978.93
751.879	915.44
752.064	995.31
752.248	974.83
752.432	1023.98
752.617	952.31
752.801	899.06
752.985	915.44
753.17	882.67
753.354	897.01
753.538	894.96
753.722	899.06
753.907	903.15
754.091	909.3
754.275	811
754.459	847.86
754.643	970.74
754.828	804.85
755.012	784.37
755.196	907.25
755.38	745.46
755.564	866.29
755.748	831.48
755.932	794.61
756.116	892.91
756.3	722.93
756.484	788.47
756.668	866.29
756.852	735.22
757.036	866.29
757.22	737.27
757.404	794.61
757.588	888.82
757.772	778.23
757.956	788.47
758.14	798.71
758.323	692.21
758.507	731.12
758.691	718.84
758.875	745.46
759.059	780.28
759.242	759.8
759.426	673.78
759.61	681.97
759.794	706.55
759.977	755.7
760.161	675.83
760.345	716.79
760.528	716.79
760.712	747.51
760.895	647.16
761.079	675.83
761.263	745.46
761.446	653.3
761.63	669.69
761.813	798.71
761.997	706.55
762.18	655.35
762.364	604.15
762.547	684.02
762.731	651.25
762.914	651.25
763.098	632.82
763.281	712.69
763.464	669.69
763.648	686.07
763.831	624.63
764.015	659.45
764.198	661.49
764.381	684.02
764.564	636.92
764.748	624.63
764.931	624.63
765.114	620.53
765.297	710.65
765.481	595.96
765.664	665.59
765.847	612.34
766.03	702.45
766.213	606.2
766.397	647.16
766.58	624.63
766.763	628.73
766.946	673.78
767.129	571.38
767.312	647.16
767.495	630.77
767.678	659.45
767.861	677.88
768.044	643.06
768.227	544.76
768.41	593.91
768.593	598.01
768.776	626.68
768.959	649.21
769.142	598.01
769.324	653.3
769.507	645.11
769.69	544.76
769.873	636.92
770.056	575.48
770.239	552.95
770.421	585.72
770.604	673.78
770.787	530.42
770.97	503.8
771.152	575.48
771.335	538.62
771.518	530.42
771.7	487.42
771.883	579.58
772.066	550.9
772.248	544.76
772.431	518.14
772.613	563.19
772.796	468.98
772.978	610.29
773.161	575.48
773.343	593.91
773.526	505.85
773.708	536.57
773.891	546.81
774.073	585.72
774.256	468.98
774.438	581.62
774.621	561.14
774.803	540.66
774.985	493.56
775.168	485.37
775.35	477.18
775.532	516.09
775.715	499.7
775.897	516.09
776.079	581.62
776.261	458.74
776.444	546.81
776.626	479.22
776.808	458.74
776.99	495.61
777.173	487.42
777.355	458.74
777.537	530.42
777.719	481.27
777.901	479.22
778.083	479.22
778.265	479.22
778.447	411.64
778.629	423.93
778.811	442.36
778.993	475.13
779.175	544.76
779.357	503.8
779.539	405.5
779.721	479.22
779.903	462.84
780.085	419.83
780.267	409.59
780.449	464.89
780.631	454.65
780.812	436.22
780.994	415.74
781.176	395.26
781.358	456.7
781.54	438.27
781.721	413.69
781.903	391.16
782.085	423.93
782.267	376.83
782.448	387.07
782.63	362.49
782.812	393.21
782.993	333.82
783.175	370.68
783.357	382.97
783.538	364.54
783.72	401.4
783.901	374.78
784.083	321.53
784.264	407.55
784.446	364.54
784.627	391.16
784.809	350.2
784.99	331.77
785.172	315.39
785.353	339.96
785.535	292.86
785.716	274.43
785.897	409.59
786.079	327.67
786.26	276.48
786.441	319.48
786.623	256
786.804	319.48
786.985	350.2
787.167	284.67
787.348	385.02
787.529	323.58
787.71	362.49
787.891	307.2
788.073	299
788.254	251.9
788.435	366.59
788.616	292.86
788.797	219.13
788.978	313.34
789.159	278.52
789.34	280.57
789.522	329.72
789.703	286.72
789.884	331.77
790.065	346.11
790.246	331.77
790.427	288.76
790.607	303.1
790.788	235.52
790.969	274.43
791.15	292.86
791.331	215.04
791.512	344.06
791.693	278.52
791.874	202.75
792.054	206.84
792.235	284.67
792.416	190.46
792.597	288.76
792.778	270.33
792.958	264.19
793.139	299
793.32	253.95
793.5	188.41
793.681	231.42
793.862	264.19
794.042	243.71
794.223	276.48
794.404	253.95
794.584	210.94
794.765	253.95
794.945	169.98
795.126	194.56
795.306	233.47
795.487	202.75
795.667	268.28
795.848	159.74
796.028	210.94
796.209	237.56
796.389	210.94
796.57	253.95
796.75	167.93
796.93	241.66
797.111	194.56
797.291	227.32
797.471	155.65
797.652	241.66
797.832	229.37
798.012	251.9
798.192	186.37
798.373	212.99
798.553	139.26
798.733	256
798.913	180.22
799.093	223.23
799.274	178.17
799.454	196.6
799.634	217.08
799.814	151.55
799.994	169.98
800.174	258.04
800.354	219.13
800.534	165.89
800.714	141.31
800.894	176.13
801.074	227.32
801.254	270.33
801.434	147.45
801.614	245.76
801.794	120.83
801.974	288.76
802.154	180.22
802.334	129.02
802.514	190.46
802.693	161.79
802.873	190.46
803.053	221.18
803.233	131.07
803.413	182.27
803.592	122.88
803.772	184.32
803.952	151.55
804.131	145.41
804.311	186.37
804.491	143.36
804.67	153.6
804.85	245.76
805.03	174.08
805.209	167.93
805.389	196.6
805.568	223.23
805.748	174.08
805.928	215.04
806.107	165.89
806.287	188.41
806.466	221.18
806.646	225.28
806.825	155.65
807.004	114.69
807.184	120.83
807.363	151.55
807.543	126.97
807.722	122.88
807.901	157.69
808.081	98.3
808.26	141.31
808.439	124.93
808.619	110.59
808.798	126.97
808.977	174.08
809.156	190.46
809.336	137.21
809.515	200.7
809.694	147.45
809.873	223.23
810.052	149.5
810.231	112.64
810.411	83.97
810.59	145.41
810.769	36.86
810.948	217.08
811.127	90.11
811.306	51.2
811.485	90.11
811.664	126.97
811.843	104.45
812.022	106.49
812.201	110.59
812.38	100.35
812.559	145.41
812.737	81.92
812.916	141.31
813.095	118.78
813.274	112.64
813.453	92.16
813.632	169.98
813.811	49.15
813.989	155.65
814.168	145.41
814.347	92.16
814.526	102.4
814.704	116.73
814.883	120.83
815.062	83.97
815.24	96.25
815.419	71.68
815.598	133.12
815.776	47.1
815.955	129.02
816.133	118.78
816.312	135.17
816.49	167.93
816.669	79.87
816.847	98.3
817.026	176.13
817.204	126.97
817.383	114.69
817.561	98.3
817.74	143.36
817.918	47.1
818.097	133.12
818.275	47.1
818.453	178.17
818.632	86.01
818.81	129.02
818.988	100.35
819.167	83.97
819.345	47.1
819.523	63.49
819.701	96.25
819.879	114.69
820.058	30.72
820.236	63.49
820.414	92.16
820.592	92.16
820.77	106.49
820.948	71.68
821.127	90.11
821.305	79.87
821.483	147.45
821.661	167.93
821.839	86.01
822.017	73.73
822.195	122.88
822.373	47.1
822.551	40.96
822.729	106.49
822.907	116.73
823.085	55.3
823.262	153.6
823.44	32.77
823.618	69.63
823.796	161.79
823.974	94.21
824.152	61.44
824.329	81.92
824.507	141.31
824.685	86.01
824.863	141.31
825.04	43.01
825.218	71.68
825.396	14.34
825.574	59.39
825.751	100.35
825.929	114.69
826.107	28.67
826.284	104.45
826.462	36.86
826.639	75.77
826.817	81.92
826.994	108.54
827.172	63.49
827.349	126.97
827.527	32.77
827.704	32.77
827.882	139.26
828.059	106.49
828.237	77.82
828.414	126.97
828.591	43.01
828.769	124.93
828.946	73.73
829.124	139.26
829.301	63.49
829.478	38.91
829.655	34.82
829.833	32.77
830.01	122.88
830.187	36.86
830.364	90.11
830.542	161.79
830.719	114.69
830.896	55.3
831.073	55.3
831.25	83.97
831.427	81.92
831.604	61.44
831.782	69.63
831.959	129.02
832.136	47.1
832.313	43.01
832.49	108.54
832.667	51.2
832.844	102.4
833.021	90.11
833.198	18.43
833.374	36.86
833.551	69.63
833.728	22.53
833.905	34.82
834.082	67.58
834.259	51.2
834.436	122.88
834.612	110.59
834.789	32.77
834.966	49.15
835.143	61.44
835.319	86.01
835.496	96.25
835.673	47.1
835.85	114.69
836.026	59.39
836.203	114.69
836.38	-4.1
836.556	-28.67
836.733	69.63
836.909	163.84
837.086	47.1
837.262	38.91
837.439	6.14
837.616	69.63
837.792	8.19
837.968	102.4
838.145	79.87
838.321	32.77
838.498	18.43
838.674	36.86
838.851	49.15
839.027	51.2
839.203	61.44
839.38	47.1
839.556	104.45
839.732	79.87
839.909	59.39
840.085	12.29
840.261	104.45
840.437	53.25
840.614	-16.38
840.79	83.97
840.966	2.05
841.142	12.29
841.318	24.58
841.494	79.87
841.671	94.21
841.847	59.39
842.023	49.15
842.199	75.77
842.375	90.11
842.551	88.06
842.727	88.06
842.903	88.06
843.079	14.34
843.255	63.49
843.431	-2.05
843.607	59.39
843.783	51.2
843.959	67.58
844.134	22.53
844.31	71.68
844.486	90.11
844.662	20.48
844.838	47.1
845.013	108.54
845.189	63.49
845.365	83.97
845.541	86.01
845.716	-14.34
845.892	22.53
846.068	38.91
846.244	40.96
846.419	92.16
846.595	88.06
846.77	26.62
846.946	28.67
847.122	24.58
847.297	36.86
847.473	49.15
847.648	14.34
847.824	24.58
847.999	71.68
848.175	45.06
848.35	14.34
848.526	10.24
848.701	-2.05
848.876	51.2
849.052	24.58
849.227	61.44
849.403	110.59
849.578	16.38
849.753	-0
849.929	114.69
850.104	92.16
850.279	110.59
850.454	100.35
850.63	63.49
850.805	4.1
850.98	16.38
851.155	30.72
851.33	71.68
851.505	28.67
851.681	47.1
851.856	67.58
852.031	77.82
852.206	86.01
852.381	6.14
852.556	-16.38
852.731	94.21
852.906	73.73
853.081	79.87
853.256	98.3
853.431	86.01
853.606	18.43
853.781	86.01
853.956	2.05
854.131	49.15
854.305	-2.05
854.48	-8.19
854.655	-4.1
854.83	61.44
855.005	18.43
855.18	112.64
855.354	22.53
855.529	86.01
855.704	24.58
855.879	55.3
856.053	22.53
856.228	26.62
856.403	24.58
856.577	-4.1
856.752	26.62
856.926	114.69
857.101	16.38
857.276	43.01
857.45	67.58
857.625	83.97
857.799	88.06
857.974	-0
858.148	34.82
858.323	102.4
858.497	79.87
858.672	20.48
858.846	12.29
859.02	12.29
859.195	14.34
859.369	38.91
859.543	28.67
859.718	14.34
859.892	-22.53
860.066	43.01
860.241	112.64
860.415	86.01
860.589	67.58
860.763	18.43
860.938	2.05
861.112	36.86
861.286	67.58
861.46	55.3
861.634	38.91
861.808	-2.05
861.982	43.01
862.157	47.1
862.331	26.62
862.505	57.34
862.679	47.1
862.853	40.96
863.027	-38.91
863.201	61.44
863.375	47.1
863.549	71.68
863.722	-12.29
863.896	38.91
864.07	34.82
864.244	49.15
864.418	102.4
864.592	81.92
864.766	47.1
864.939	47.1
865.113	57.34
865.287	-28.67
865.461	24.58
865.634	61.44
865.808	24.58
865.982	69.63
866.156	53.25
866.329	-20.48
866.503	59.39
866.676	65.53
866.85	30.72
867.024	57.34
867.197	20.48
867.371	77.82
867.544	77.82
867.718	20.48
867.891	8.19
868.065	51.2
868.238	51.2
868.412	57.34
868.585	34.82
868.759	-2.05
868.932	12.29
869.105	51.2
869.279	-34.82
869.452	2.05
869.625	30.72
869.799	40.96
869.972	90.11
870.145	30.72
870.319	51.2
870.492	45.06
870.665	16.38
870.838	61.44
871.011	38.91
871.185	71.68
871.358	2.05
871.531	45.06
871.704	38.91
871.877	53.25
872.05	59.39
872.223	14.34
872.396	55.3
872.569	67.58
872.742	14.34
872.915	47.1
873.088	45.06
873.261	-10.24
873.434	-18.43
873.607	8.19
873.78	36.86
873.953	67.58
874.126	14.34
874.299	12.29
874.471	34.82
874.644	30.72
874.817	-0
874.99	24.58
875.163	-2.05
875.335	43.01
875.508	-69.63
875.681	22.53
875.853	16.38
876.026	79.87
876.199	40.96
876.371	73.73
876.544	34.82
876.717	-38.91
876.889	47.1
877.062	145.41
877.234	12.29
877.407	-14.34
877.579	4.1
877.752	-36.86
877.924	43.01
878.097	8.19
878.269	38.91
878.442	10.24
878.614	71.68
878.786	28.67
878.959	-12.29
879.131	59.39
879.303	51.2
879.476	28.67
879.648	2.05
879.82	10.24
879.993	12.29
880.165	20.48
880.337	-30.72
880.509	34.82
880.681	-6.14
880.854	12.29
881.026	6.14
881.198	53.25
881.37	-10.24
881.542	88.06
881.714	-14.34
881.886	28.67
882.058	2.05
882.23	100.35
882.402	61.44
882.574	14.34
882.746	22.53
882.918	4.1
883.09	22.53
883.262	6.14
883.434	30.72
883.606	-8.19
883.778	36.86
883.95	51.2
884.122	-2.05
884.293	43.01
884.465	-88.06
884.637	67.58
884.809	24.58
884.98	43.01
885.152	-18.43
885.324	34.82
885.496	-30.72
885.667	47.1
885.839	-67.58
886.011	90.11
886.182	47.1
886.354	30.72
886.525	2.05
886.697	8.19
886.869	6.14
887.04	28.67
887.212	34.82
887.383	45.06
887.555	-0
887.726	67.58
887.897	32.77
888.069	104.45
888.24	53.25
888.412	12.29
888.583	-8.19
888.754	61.44
888.926	14.34
889.097	47.1
889.268	-10.24
889.44	12.29
889.611	-22.53
889.782	-30.72
889.953	45.06
890.125	2.05
890.296	32.77
890.467	36.86
890.638	20.48
890.809	-18.43
890.98	6.14
891.151	77.82
891.323	86.01
891.494	-38.91
891.665	-4.1
891.836	49.15
892.007	71.68
892.178	-59.39
892.349	32.77
892.52	26.62
892.691	-32.77
892.862	83.97
893.032	63.49
893.203	-20.48
893.374	-36.86
893.545	14.34
893.716	-28.67
893.887	20.48
894.057	75.77
894.228	-43.01
894.399	45.06
894.57	-12.29
894.74	67.58
894.911	86.01
895.082	30.72
895.253	53.25
895.423	51.2
895.594	-20.48
895.764	51.2
895.935	55.3
896.106	-8.19
896.276	63.49
896.447	16.38
896.617	-38.91
896.788	-4.1
896.958	61.44
897.129	57.34
897.299	104.45
897.47	45.06
897.64	-8.19
897.81	-36.86
897.981	51.2
898.151	83.97
898.322	57.34
898.492	-10.24
898.662	-8.19
898.832	24.58
899.003	-20.48
899.173	40.96
899.343	47.1
899.513	51.2
