Data from USB4F104151__89__13-54-28-870.txt Node

Date: Thu Mar 13 13:54:28 EDT 2025
User: louis
Spectrometer: USB4F10415
Trigger mode: 4
Integration Time (sec): 1.000000E-2
Scans to average: 1
Electric dark correction enabled: true
Nonlinearity correction enabled: false
Boxcar width: 0
XAxis mode: Wavelengths
Number of Pixels in Spectrum: 3648
>>>>>Begin Spectral Data<<<<<
178.204	-2.73
178.424	-2.73
178.644	-2.73
178.864	-90.79
179.084	17.75
179.304	-23.21
179.524	-47.79
179.744	-23.21
179.964	-0.68
180.184	19.8
180.404	25.94
180.624	15.7
180.844	60.76
181.064	-15.02
181.283	-0.68
181.503	-2.73
181.723	-8.87
181.943	-6.83
182.163	-0.68
182.383	83.28
182.602	11.61
182.822	9.56
183.042	97.62
183.262	46.42
183.482	85.33
183.701	-41.64
183.921	62.8
184.141	50.52
184.361	-12.97
184.58	15.7
184.8	44.37
185.02	36.18
185.239	7.51
185.459	19.8
185.679	1.37
185.898	27.99
186.118	7.51
186.338	64.85
186.557	68.95
186.777	3.41
186.997	23.89
187.216	79.19
187.436	81.24
187.655	19.8
187.875	19.8
188.095	36.18
188.314	-17.07
188.534	64.85
188.753	-45.74
188.973	-19.11
189.192	42.32
189.412	3.41
189.631	68.95
189.851	23.89
190.07	101.72
190.29	-19.11
190.509	44.37
190.729	44.37
190.948	58.71
191.168	5.46
191.387	81.24
191.607	7.51
191.826	44.37
192.045	25.94
192.265	87.38
192.484	-45.74
192.704	56.66
192.923	52.56
193.142	50.52
193.362	7.51
193.581	13.65
193.8	11.61
194.02	83.28
194.239	9.56
194.458	9.56
194.678	71
194.897	109.91
195.116	34.13
195.335	-8.87
195.555	60.76
195.774	-25.26
195.993	66.9
196.212	-37.55
196.432	-0.68
196.651	21.84
196.87	27.99
197.089	15.7
197.308	9.56
197.528	30.04
197.747	-15.02
197.966	27.99
198.185	21.84
198.404	34.13
198.623	19.8
198.842	21.84
199.062	-2.73
199.281	95.57
199.5	-33.45
199.719	-12.97
199.938	34.13
200.157	48.47
200.376	-58.03
200.595	42.32
200.814	89.43
201.033	-21.16
201.252	130.39
201.471	77.14
201.69	32.08
201.909	-43.69
202.128	1.37
202.347	83.28
202.566	-17.07
202.785	23.89
203.004	77.14
203.223	136.53
203.442	5.46
203.661	95.57
203.879	38.23
204.098	54.61
204.317	-27.31
204.536	50.52
204.755	93.52
204.974	62.8
205.193	95.57
205.411	83.28
205.63	48.47
205.849	-49.83
206.068	34.13
206.287	54.61
206.505	58.71
206.724	5.46
206.943	21.84
207.162	-25.26
207.381	93.52
207.599	15.7
207.818	-37.55
208.037	34.13
208.255	89.43
208.474	32.08
208.693	30.04
208.911	97.62
209.13	48.47
209.349	-41.64
209.567	-0.68
209.786	-0.68
210.005	40.28
210.223	15.7
210.442	1.37
210.661	62.8
210.879	34.13
211.098	44.37
211.316	-6.83
211.535	13.65
211.753	15.7
211.972	79.19
212.191	7.51
212.409	17.75
212.628	27.99
212.846	17.75
213.065	-4.78
213.283	32.08
213.502	15.7
213.72	56.66
213.938	52.56
214.157	101.72
214.375	77.14
214.594	34.13
214.812	19.8
215.031	-25.26
215.249	79.19
215.467	32.08
215.686	15.7
215.904	101.72
216.122	38.23
216.341	5.46
216.559	-27.31
216.778	46.42
216.996	73.04
217.214	3.41
217.432	42.32
217.651	60.76
217.869	58.71
218.087	64.85
218.306	52.56
218.524	-12.97
218.742	3.41
218.96	40.28
219.179	30.04
219.397	44.37
219.615	75.09
219.833	11.61
220.051	64.85
220.27	23.89
220.488	89.43
220.706	38.23
220.924	1.37
221.142	13.65
221.36	-35.5
221.578	-8.87
221.796	-10.92
222.015	62.8
222.233	-2.73
222.451	50.52
222.669	62.8
222.887	32.08
223.105	38.23
223.323	66.9
223.541	15.7
223.759	79.19
223.977	46.42
224.195	66.9
224.413	7.51
224.631	60.76
224.849	5.46
225.067	52.56
225.285	52.56
225.503	81.24
225.721	27.99
225.939	-23.21
226.157	38.23
226.375	56.66
226.592	56.66
226.81	50.52
227.028	95.57
227.246	116.05
227.464	-4.78
227.682	23.89
227.9	5.46
228.117	3.41
228.335	36.18
228.553	19.8
228.771	3.41
228.989	27.99
229.206	17.75
229.424	-0.68
229.642	-0.68
229.86	1.37
230.077	34.13
230.295	42.32
230.513	23.89
230.731	64.85
230.948	60.76
231.166	-23.21
231.384	23.89
231.601	-10.92
231.819	25.94
232.037	19.8
232.254	-10.92
232.472	32.08
232.689	17.75
232.907	56.66
233.125	3.41
233.342	64.85
233.56	11.61
233.777	68.95
233.995	52.56
234.213	19.8
234.43	48.47
234.648	73.04
234.865	97.62
235.083	142.68
235.3	52.56
235.518	38.23
235.735	-10.92
235.953	73.04
236.17	85.33
236.388	44.37
236.605	5.46
236.822	-10.92
237.04	-35.5
237.257	36.18
237.475	5.46
237.692	-0.68
237.909	79.19
238.127	-10.92
238.344	1.37
238.562	60.76
238.779	-43.69
238.996	7.51
239.214	-2.73
239.431	42.32
239.648	73.04
239.865	109.91
240.083	42.32
240.3	77.14
240.517	-6.83
240.735	21.84
240.952	46.42
241.169	109.91
241.386	34.13
241.603	58.71
241.821	7.51
242.038	103.76
242.255	48.47
242.472	34.13
242.689	38.23
242.907	103.76
243.124	-39.59
243.341	56.66
243.558	38.23
243.775	23.89
243.992	62.8
244.209	89.43
244.426	62.8
244.643	21.84
244.86	3.41
245.078	52.56
245.295	-37.55
245.512	34.13
245.729	15.7
245.946	30.04
246.163	-41.64
246.38	87.38
246.597	13.65
246.814	101.72
247.031	-35.5
247.248	1.37
247.464	44.37
247.681	44.37
247.898	19.8
248.115	40.28
248.332	36.18
248.549	52.56
248.766	50.52
248.983	66.9
249.2	56.66
249.417	48.47
249.633	34.13
249.85	7.51
250.067	81.24
250.284	7.51
250.501	87.38
250.717	15.7
250.934	15.7
251.151	48.47
251.368	87.38
251.585	46.42
251.801	-19.11
252.018	-0.68
252.235	17.75
252.451	52.56
252.668	75.09
252.885	75.09
253.102	58.71
253.318	36.18
253.535	79.19
253.752	40.28
253.968	75.09
254.185	9.56
254.401	-39.59
254.618	87.38
254.835	13.65
255.051	9.56
255.268	27.99
255.484	38.23
255.701	52.56
255.917	56.66
256.134	50.52
256.351	54.61
256.567	5.46
256.784	17.75
257	32.08
257.217	40.28
257.433	-21.16
257.65	83.28
257.866	7.51
258.082	50.52
258.299	-31.4
258.515	56.66
258.732	15.7
258.948	48.47
259.165	25.94
259.381	40.28
259.597	19.8
259.814	32.08
260.03	-23.21
260.246	13.65
260.463	83.28
260.679	87.38
260.895	71
261.112	5.46
261.328	42.32
261.544	-17.07
261.761	103.76
261.977	17.75
262.193	-0.68
262.409	58.71
262.626	103.76
262.842	-25.26
263.058	-17.07
263.274	1.37
263.49	42.32
263.707	58.71
263.923	83.28
264.139	21.84
264.355	23.89
264.571	118.1
264.787	58.71
265.004	9.56
265.22	-23.21
265.436	-31.4
265.652	9.56
265.868	32.08
266.084	48.47
266.3	52.56
266.516	36.18
266.732	-4.78
266.948	-33.45
267.164	-8.87
267.38	32.08
267.596	19.8
267.812	36.18
268.028	103.76
268.244	9.56
268.46	19.8
268.676	52.56
268.892	97.62
269.108	89.43
269.324	120.15
269.54	17.75
269.756	30.04
269.972	87.38
270.188	89.43
270.403	46.42
270.619	9.56
270.835	-6.83
271.051	46.42
271.267	-58.03
271.483	17.75
271.698	64.85
271.914	71
272.13	-10.92
272.346	54.61
272.562	34.13
272.777	54.61
272.993	-10.92
273.209	-4.78
273.425	15.7
273.64	50.52
273.856	109.91
274.072	142.68
274.287	-4.78
274.503	58.71
274.719	13.65
274.934	3.41
275.15	40.28
275.366	-2.73
275.581	9.56
275.797	17.75
276.012	-21.16
276.228	40.28
276.444	11.61
276.659	7.51
276.875	73.04
277.09	30.04
277.306	-21.16
277.521	-12.97
277.737	66.9
277.952	46.42
278.168	-31.4
278.383	40.28
278.599	34.13
278.814	79.19
279.03	68.95
279.245	19.8
279.461	34.13
279.676	-17.07
279.892	52.56
280.107	-27.31
280.322	19.8
280.538	-2.73
280.753	-8.87
280.969	7.51
281.184	-4.78
281.399	64.85
281.615	73.04
281.83	73.04
282.045	15.7
282.26	-12.97
282.476	52.56
282.691	13.65
282.906	58.71
283.122	52.56
283.337	1.37
283.552	-6.83
283.767	62.8
283.983	136.53
284.198	15.7
284.413	23.89
284.628	40.28
284.843	27.99
285.058	34.13
285.274	111.96
285.489	-51.88
285.704	19.8
285.919	21.84
286.134	58.71
286.349	27.99
286.564	38.23
286.779	103.76
286.995	-27.31
287.21	48.47
287.425	58.71
287.64	58.71
287.855	89.43
288.07	54.61
288.285	60.76
288.5	71
288.715	68.95
288.93	-35.5
289.145	58.71
289.36	109.91
289.575	64.85
289.79	25.94
290.004	23.89
290.219	60.76
290.434	83.28
290.649	-33.45
290.864	9.56
291.079	38.23
291.294	25.94
291.509	9.56
291.724	42.32
291.938	46.42
292.153	21.84
292.368	17.75
292.583	48.47
292.798	62.8
293.012	152.91
293.227	21.84
293.442	36.18
293.657	34.13
293.871	46.42
294.086	19.8
294.301	52.56
294.516	-0.68
294.73	71
294.945	-19.11
295.16	97.62
295.374	109.91
295.589	54.61
295.804	-43.69
296.018	25.94
296.233	38.23
296.447	71
296.662	-0.68
296.877	60.76
297.091	32.08
297.306	17.75
297.52	103.76
297.735	40.28
297.949	7.51
298.164	34.13
298.378	52.56
298.593	40.28
298.807	15.7
299.022	66.9
299.236	81.24
299.451	66.9
299.665	-15.02
299.88	27.99
300.094	114
300.309	25.94
300.523	-8.87
300.737	15.7
300.952	32.08
301.166	17.75
301.381	-25.26
301.595	13.65
301.809	21.84
302.024	15.7
302.238	54.61
302.452	1.37
302.667	15.7
302.881	40.28
303.095	48.47
303.309	40.28
303.524	7.51
303.738	30.04
303.952	30.04
304.166	81.24
304.381	-47.79
304.595	60.76
304.809	116.05
305.023	56.66
305.237	40.28
305.452	58.71
305.666	107.86
305.88	-10.92
306.094	38.23
306.308	7.51
306.522	32.08
306.736	48.47
306.95	66.9
307.164	21.84
307.379	54.61
307.593	15.7
307.807	93.52
308.021	50.52
308.235	3.41
308.449	56.66
308.663	34.13
308.877	79.19
309.091	32.08
309.305	66.9
309.519	7.51
309.733	25.94
309.947	60.76
310.161	50.52
310.374	40.28
310.588	118.1
310.802	15.7
311.016	60.76
311.23	5.46
311.444	87.38
311.658	73.04
311.872	3.41
312.085	54.61
312.299	50.52
312.513	46.42
312.727	107.86
312.941	62.8
313.154	34.13
313.368	64.85
313.582	-0.68
313.796	-27.31
314.009	105.81
314.223	64.85
314.437	17.75
314.651	50.52
314.864	56.66
315.078	32.08
315.292	79.19
315.505	60.76
315.719	38.23
315.933	11.61
316.146	19.8
316.36	-4.78
316.573	134.48
316.787	68.95
317.001	50.52
317.214	48.47
317.428	-6.83
317.641	30.04
317.855	48.47
318.068	56.66
318.282	-35.5
318.495	-19.11
318.709	62.8
318.922	60.76
319.136	36.18
319.349	21.84
319.563	36.18
319.776	40.28
319.99	-33.45
320.203	52.56
320.417	1.37
320.63	42.32
320.843	81.24
321.057	64.85
321.27	95.57
321.483	52.56
321.697	124.24
321.91	13.65
322.124	60.76
322.337	97.62
322.55	95.57
322.763	-94.89
322.977	36.18
323.19	62.8
323.403	97.62
323.617	11.61
323.83	103.76
324.043	40.28
324.256	54.61
324.469	58.71
324.683	134.48
324.896	23.89
325.109	75.09
325.322	15.7
325.535	5.46
325.748	62.8
325.962	101.72
326.175	54.61
326.388	46.42
326.601	25.94
326.814	-21.16
327.027	3.41
327.24	23.89
327.453	23.89
327.666	21.84
327.879	118.1
328.092	5.46
328.305	109.91
328.518	46.42
328.731	19.8
328.944	46.42
329.157	-35.5
329.37	62.8
329.583	38.23
329.796	50.52
330.009	44.37
330.222	97.62
330.435	13.65
330.648	46.42
330.861	34.13
331.073	44.37
331.286	46.42
331.499	11.61
331.712	122.2
331.925	38.23
332.138	32.08
332.35	77.14
332.563	7.51
332.776	75.09
332.989	73.04
333.202	52.56
333.414	77.14
333.627	77.14
333.84	64.85
334.053	21.84
334.265	60.76
334.478	21.84
334.691	58.71
334.903	23.89
335.116	71
335.329	81.24
335.541	79.19
335.754	71
335.966	58.71
336.179	54.61
336.392	25.94
336.604	66.9
336.817	38.23
337.029	52.56
337.242	25.94
337.454	34.13
337.667	9.56
337.88	11.61
338.092	-6.83
338.305	15.7
338.517	52.56
338.729	62.8
338.942	17.75
339.154	32.08
339.367	-15.02
339.579	79.19
339.792	25.94
340.004	56.66
340.217	3.41
340.429	71
340.641	83.28
340.854	17.75
341.066	75.09
341.278	46.42
341.491	81.24
341.703	66.9
341.915	83.28
342.128	77.14
342.34	-10.92
342.552	118.1
342.764	27.99
342.977	68.95
343.189	40.28
343.401	-2.73
343.613	81.24
343.826	64.85
344.038	32.08
344.25	5.46
344.462	-0.68
344.674	-6.83
344.886	87.38
345.099	83.28
345.311	23.89
345.523	54.61
345.735	79.19
345.947	34.13
346.159	7.51
346.371	38.23
346.583	97.62
346.795	120.15
347.007	9.56
347.219	1.37
347.431	42.32
347.643	81.24
347.855	17.75
348.067	79.19
348.279	32.08
348.491	36.18
348.703	79.19
348.915	3.41
349.127	87.38
349.339	27.99
349.551	46.42
349.763	25.94
349.975	107.86
350.187	27.99
350.399	62.8
350.61	54.61
350.822	-58.03
351.034	32.08
351.246	38.23
351.458	-2.73
351.669	-2.73
351.881	56.66
352.093	77.14
352.305	52.56
352.517	58.71
352.728	93.52
352.94	83.28
353.152	50.52
353.363	114
353.575	163.15
353.787	152.91
353.999	58.71
354.21	68.95
354.422	105.81
354.633	71
354.845	75.09
355.057	68.95
355.268	44.37
355.48	83.28
355.692	-10.92
355.903	48.47
356.115	58.71
356.326	87.38
356.538	17.75
356.749	44.37
356.961	25.94
357.172	36.18
357.384	42.32
357.595	73.04
357.807	56.66
358.018	3.41
358.23	52.56
358.441	99.67
358.653	87.38
358.864	93.52
359.075	25.94
359.287	56.66
359.498	54.61
359.709	19.8
359.921	120.15
360.132	73.04
360.344	126.29
360.555	13.65
360.766	42.32
360.977	-10.92
361.189	19.8
361.4	77.14
361.611	-17.07
361.823	58.71
362.034	52.56
362.245	3.41
362.456	-8.87
362.667	87.38
362.879	85.33
363.09	46.42
363.301	32.08
363.512	66.9
363.723	91.48
363.935	-4.78
364.146	38.23
364.357	5.46
364.568	56.66
364.779	38.23
364.99	46.42
365.201	17.75
365.412	64.85
365.623	-41.64
365.834	75.09
366.045	-0.68
366.256	7.51
366.467	71
366.678	77.14
366.889	11.61
367.1	25.94
367.311	68.95
367.522	58.71
367.733	11.61
367.944	116.05
368.155	27.99
368.366	21.84
368.577	9.56
368.788	27.99
368.999	50.52
369.209	81.24
369.42	114
369.631	56.66
369.842	42.32
370.053	-8.87
370.264	-27.31
370.474	34.13
370.685	17.75
370.896	71
371.107	44.37
371.317	81.24
371.528	-27.31
371.739	116.05
371.95	-8.87
372.16	52.56
372.371	50.52
372.582	36.18
372.792	-19.11
373.003	25.94
373.214	21.84
373.424	32.08
373.635	60.76
373.846	36.18
374.056	81.24
374.267	60.76
374.477	62.8
374.688	30.04
374.898	66.9
375.109	48.47
375.319	64.85
375.53	111.96
375.74	32.08
375.951	68.95
376.161	54.61
376.372	-10.92
376.582	5.46
376.793	52.56
377.003	87.38
377.214	46.42
377.424	50.52
377.635	38.23
377.845	1.37
378.055	11.61
378.266	-4.78
378.476	58.71
378.686	-6.83
378.897	93.52
379.107	27.99
379.317	87.38
379.528	42.32
379.738	52.56
379.948	19.8
380.158	62.8
380.369	21.84
380.579	83.28
380.789	54.61
380.999	79.19
381.21	5.46
381.42	132.44
381.63	58.71
381.84	36.18
382.05	3.41
382.261	48.47
382.471	93.52
382.681	1.37
382.891	85.33
383.101	38.23
383.311	62.8
383.521	85.33
383.731	30.04
383.941	99.67
384.151	17.75
384.361	101.72
384.571	32.08
384.781	15.7
384.991	73.04
385.201	89.43
385.411	52.56
385.621	36.18
385.831	105.81
386.041	79.19
386.251	54.61
386.461	91.48
386.671	101.72
386.881	93.52
387.091	73.04
387.301	25.94
387.511	87.38
387.72	95.57
387.93	32.08
388.14	101.72
388.35	42.32
388.56	111.96
388.769	5.46
388.979	77.14
389.189	56.66
389.399	66.9
389.609	5.46
389.818	17.75
390.028	48.47
390.238	159.06
390.447	62.8
390.657	85.33
390.867	-4.78
391.076	9.56
391.286	46.42
391.496	42.32
391.705	25.94
391.915	134.48
392.125	32.08
392.334	40.28
392.544	32.08
392.753	11.61
392.963	68.95
393.172	75.09
393.382	32.08
393.591	32.08
393.801	66.9
394.01	71
394.22	73.04
394.429	77.14
394.639	107.86
394.848	120.15
395.058	128.34
395.267	118.1
395.477	60.76
395.686	87.38
395.895	56.66
396.105	109.91
396.314	107.86
396.524	73.04
396.733	38.23
396.942	83.28
397.152	56.66
397.361	68.95
397.57	48.47
397.78	103.76
397.989	87.38
398.198	116.05
398.407	134.48
398.617	93.52
398.826	62.8
399.035	97.62
399.244	107.86
399.453	60.76
399.663	58.71
399.872	138.58
400.081	34.13
400.29	44.37
400.499	83.28
400.708	116.05
400.917	111.96
401.127	60.76
401.336	62.8
401.545	97.62
401.754	85.33
401.963	50.52
402.172	118.1
402.381	114
402.59	140.63
402.799	91.48
403.008	157.01
403.217	144.72
403.426	103.76
403.635	126.29
403.844	89.43
404.053	116.05
404.262	95.57
404.471	148.82
404.68	99.67
404.888	109.91
405.097	103.76
405.306	103.76
405.515	81.24
405.724	132.44
405.933	187.73
406.142	111.96
406.35	165.2
406.559	146.77
406.768	136.53
406.977	136.53
407.185	101.72
407.394	191.83
407.603	181.59
407.812	171.35
408.02	169.3
408.229	134.48
408.438	218.45
408.646	179.54
408.855	212.31
409.064	195.92
409.272	159.06
409.481	251.22
409.69	202.07
409.898	251.22
410.107	222.55
410.315	267.6
410.524	292.18
410.733	265.55
410.941	296.27
411.15	234.83
411.358	357.71
411.567	245.07
411.775	349.52
411.984	347.47
412.192	329.04
412.401	347.47
412.609	292.18
412.818	404.82
413.026	392.53
413.234	410.96
413.443	478.54
413.651	433.49
413.86	443.73
414.068	484.69
414.276	384.34
414.485	456.01
414.693	521.55
414.901	533.84
415.11	542.03
415.318	513.36
415.526	544.08
415.734	554.32
415.943	640.33
416.151	589.13
416.359	632.14
416.567	607.56
416.776	724.3
416.984	771.4
417.192	742.73
417.4	757.07
417.608	757.07
417.817	761.16
418.025	759.11
418.233	847.18
418.441	898.38
418.649	888.14
418.857	904.52
419.065	990.53
419.273	843.08
419.481	992.58
419.689	965.96
419.897	1072.45
420.105	1088.84
420.313	1103.17
420.521	1250.63
420.729	1162.56
420.937	1197.38
421.145	1314.11
421.353	1389.89
421.561	1391.94
421.769	1416.51
421.977	1568.06
422.185	1547.58
422.393	1594.68
422.601	1817.91
422.809	1652.03
423.017	1637.69
423.224	1746.23
423.432	1893.69
423.64	1846.59
423.848	1967.42
424.056	1946.94
424.263	2082.1
424.471	2127.16
424.679	2153.78
424.887	2211.12
425.094	2276.66
425.302	2301.23
425.51	2420.02
425.718	2430.26
425.925	2559.28
426.133	2567.47
426.341	2616.62
426.548	2811.18
426.756	2813.23
426.964	2915.62
427.171	3083.56
427.379	3196.2
427.586	3136.81
427.794	3198.24
428.001	3407.14
428.209	3507.49
428.417	3642.65
428.624	3706.14
428.832	3857.69
429.039	3650.85
429.247	3759.39
429.454	4111.64
429.662	4373.78
429.869	4187.41
430.076	4400.4
430.284	4183.32
430.491	4465.94
430.699	4654.35
430.906	4588.82
431.114	4822.28
431.321	5018.89
431.528	5057.8
431.736	5362.95
431.943	5627.14
432.15	5301.51
432.358	5426.43
432.565	5696.77
432.772	5840.12
432.979	6126.84
433.187	6083.83
433.394	6208.76
433.601	6565.11
433.808	6776.05
434.016	6464.75
434.223	6939.88
434.43	7265.51
434.637	7251.17
434.844	7582.95
435.052	7830.75
435.259	7535.84
435.466	7859.42
435.673	7658.72
435.88	8189.14
436.087	8531.16
436.294	8408.28
436.501	8418.52
436.708	8656.08
436.915	8811.73
437.122	9206.98
437.329	9254.09
437.537	9512.13
437.743	9647.3
437.95	9549
438.157	10114.23
438.364	10486.97
438.571	10384.57
438.778	10597.56
438.985	11408.55
439.192	11025.58
439.399	11136.17
439.606	11226.28
439.813	11895.97
440.02	12625.04
440.227	12174.49
440.433	12000.41
440.64	12461.21
440.847	12448.92
441.054	12676.24
441.261	13560.97
441.467	13442.18
441.674	13720.71
441.881	13978.75
442.088	14007.42
442.294	13958.27
442.501	14443.64
442.708	14560.38
442.914	15289.45
443.121	15670.37
443.328	15436.91
443.534	16415.83
443.741	16125.02
443.948	15891.55
444.154	17007.7
444.361	16860.24
444.568	16854.1
444.774	17062.99
444.981	17175.63
445.187	17554.51
445.394	18459.71
445.6	17976.39
445.807	20081.7
446.013	19014.71
446.22	19418.16
446.426	20284.45
446.633	20583.45
446.839	21150.74
447.046	20331.55
447.252	21255.18
447.459	21281.81
447.665	21226.51
447.871	22356.99
448.078	23073.78
448.284	21701.64
448.491	22541.31
448.697	23274.48
448.903	23421.94
449.11	23739.37
449.316	23559.15
449.522	23837.67
449.728	24921.05
449.935	25134.04
450.141	24749.02
450.347	25408.47
450.553	24521.7
450.76	24663
450.966	25361.36
451.172	25607.12
451.378	26121.16
451.584	25406.42
451.791	26008.52
451.997	25711.56
452.203	26274.76
452.409	26475.46
452.615	26381.25
452.821	25086.93
453.027	24828.89
453.233	26188.74
453.44	25172.95
453.646	25394.13
453.852	25314.26
454.058	26153.93
454.264	25287.64
454.47	25611.21
454.676	25172.95
454.882	25947.08
455.088	23598.06
455.294	23849.96
455.5	24286.18
455.705	24474.59
455.911	23323.63
456.117	23235.57
456.323	22926.33
456.529	21677.07
456.735	22584.32
456.941	21832.71
457.147	21441.55
457.352	20931.61
457.558	20667.42
457.764	20698.14
457.97	20415.52
458.176	19958.82
458.381	20034.6
458.587	18826.29
458.793	19029.04
458.999	17939.52
459.204	19239.98
459.41	18662.46
459.616	17564.75
459.821	17384.52
460.027	17382.48
460.233	16915.54
460.438	16276.57
460.644	16561.24
460.85	15610.98
461.055	15260.78
461.261	15307.88
461.466	14269.56
461.672	13866.11
461.878	14881.91
462.083	13698.18
462.289	13350.03
462.494	13530.25
462.7	12926.1
462.905	12536.98
463.111	12919.95
463.316	12752.02
463.522	12698.77
463.727	12831.89
463.932	12557.46
464.138	12567.7
464.343	12809.36
464.549	12219.55
464.754	12467.35
464.959	12473.49
465.165	12252.31
465.37	11981.98
465.575	11748.51
465.781	12020.89
465.986	12377.24
466.191	11740.32
466.397	11510.95
466.602	11087.02
466.807	11306.15
467.012	11465.89
467.218	11551.91
467.423	11109.55
467.628	11236.52
467.833	11787.43
468.038	11402.41
468.244	11127.98
468.449	11488.42
468.654	11175.08
468.859	10972.33
469.064	10839.22
469.269	10511.54
469.474	10546.36
469.679	10951.85
469.885	10517.68
470.09	10433.72
470.295	10484.92
470.5	10108.09
470.705	10474.68
470.91	10159.29
471.115	9641.15
471.32	10071.23
471.525	9954.49
471.73	9776.32
471.935	9925.82
472.139	9342.15
472.344	9661.63
472.549	9485.51
472.754	9270.47
472.959	9168.07
473.164	9043.15
473.369	8864.97
473.574	9313.48
473.778	9096.39
473.983	9198.79
474.188	9000.14
474.393	8688.85
474.598	8672.47
474.802	8660.18
475.007	8484.05
475.212	8346.84
475.417	8166.62
475.621	8236.25
475.826	8389.85
476.031	8160.47
476.235	7894.24
476.44	7941.34
476.645	7761.12
476.849	7875.81
477.054	7750.88
477.259	7634.14
477.463	7601.38
477.668	7511.27
477.872	7628
478.077	7539.94
478.282	7177.45
478.486	7292.13
478.691	7216.36
478.895	7228.65
479.1	7173.35
479.304	7281.89
479.509	6943.98
479.713	7116.01
479.918	6917.36
480.122	6849.77
480.326	6874.35
480.531	7140.58
480.735	6628.59
480.94	6655.22
481.144	6778.09
481.348	6554.87
481.553	6712.56
481.757	6419.7
481.961	6616.3
482.166	6864.11
482.37	6634.74
482.574	6663.41
482.778	6542.58
482.983	6706.41
483.187	6728.94
483.391	6571.25
483.595	6542.58
483.8	6583.54
484.004	6708.46
484.208	6661.36
484.412	6573.3
484.616	6857.96
484.821	6599.92
485.025	6608.11
485.229	6554.87
485.433	6591.73
485.637	6497.52
485.841	6446.32
486.045	6434.04
486.249	6624.5
486.453	6450.42
486.657	6622.45
486.861	6620.4
487.065	6442.23
487.269	6563.06
487.473	6503.67
487.677	6737.13
487.881	6714.61
488.085	6581.49
488.289	6591.73
488.493	6759.66
488.697	6630.64
488.901	6675.7
489.105	6700.27
489.309	6706.41
489.512	6788.33
489.716	6716.65
489.92	6575.34
490.124	6624.5
490.328	6687.98
490.531	6567.15
490.735	6784.24
490.939	6735.09
491.143	6647.02
491.346	6714.61
491.55	6921.45
491.754	6845.68
491.958	6952.17
492.161	6821.1
492.365	7136.49
492.569	6903.02
492.772	7025.9
492.976	7068.91
493.18	7159.02
493.383	7111.91
493.587	7105.77
493.79	7343.33
493.994	7329
494.197	7271.65
494.401	7220.46
494.605	7513.31
494.808	7601.38
495.012	7369.96
495.215	7658.72
495.419	7630.05
495.622	7689.44
495.825	7435.49
496.029	7628
496.232	7916.76
496.436	7855.33
496.639	8070.36
496.843	8080.6
497.046	8123.61
497.249	8103.13
497.453	8494.29
497.656	8453.33
497.859	8504.53
498.063	8568.02
498.266	8875.21
498.469	8479.96
498.673	8918.22
498.876	8944.84
499.079	9059.53
499.282	9026.76
499.485	9270.47
499.689	9317.58
499.892	9395.4
500.095	9471.17
500.298	9897.15
500.501	9620.67
500.705	9911.49
500.908	9843.9
501.111	9985.21
501.314	10351.8
501.517	10362.04
501.72	10388.66
501.923	10611.89
502.126	10603.7
502.329	10824.88
502.532	10806.45
502.735	11013.29
502.938	11111.6
503.141	11222.19
503.344	11422.89
503.547	11517.09
503.75	11717.79
503.953	11762.85
504.156	12076.19
504.359	12207.26
504.562	12041.37
504.765	12543.13
504.968	12711.06
505.17	12745.87
505.373	12559.51
505.576	13079.69
505.779	13167.76
505.982	13026.45
506.185	13601.93
506.387	13329.55
506.59	13618.31
506.793	13999.23
506.996	13954.18
507.198	14302.33
507.401	14081.15
507.604	14664.82
507.807	14802.04
508.009	14881.91
508.212	14914.67
508.415	15025.26
508.617	15469.67
508.82	15645.8
509.022	15535.21
509.225	16061.54
509.428	16055.39
509.63	16374.88
509.833	16325.72
510.035	16991.31
510.238	16878.68
510.44	16985.17
510.643	17140.82
510.845	17417.29
511.048	17398.86
511.25	17812.55
511.453	18050.11
511.655	18482.24
511.858	18379.84
512.06	18605.11
512.262	18861.11
512.465	18687.03
512.667	18957.36
512.87	19391.53
513.072	19590.19
513.274	19852.33
513.477	20208.67
513.679	20485.15
513.881	20610.07
514.084	20626.46
514.286	20595.74
514.488	20947.99
514.69	21658.63
514.893	21617.68
515.095	21666.83
515.297	22086.66
515.499	21941.25
515.701	22506.49
515.904	22594.56
516.106	22895.61
516.308	23118.84
516.51	23655.4
516.712	23784.43
516.914	23827.43
517.116	24218.6
517.318	24359.91
517.52	24515.55
517.722	24273.89
517.925	25103.32
518.127	25775.05
518.329	25691.09
518.531	25832.4
518.733	26178.5
518.935	26190.79
519.136	26573.76
519.338	26846.14
519.54	27333.56
519.742	27282.36
519.944	27411.38
520.146	27984.81
520.348	28046.25
520.55	28076.97
520.752	28527.52
520.954	29092.76
521.155	28734.37
521.357	29297.56
521.559	29207.45
521.761	29957
521.963	29762.45
522.164	30069.64
522.366	30141.32
522.568	30641.03
522.77	30935.93
522.971	31398.77
523.173	30968.7
523.375	31292.28
523.576	31673.2
523.778	31523.7
523.98	32093.04
524.181	32279.4
524.383	32177
524.584	32656.23
524.786	32744.29
524.988	32910.18
525.189	33131.36
525.391	33334.1
525.592	33540.95
525.794	33739.6
525.995	33575.76
526.197	33649.49
526.398	33997.65
526.6	34202.44
526.801	34249.55
527.003	34540.36
527.204	34663.24
527.406	34872.13
527.607	34986.82
527.808	34777.92
528.01	34872.13
528.211	35048.25
528.412	35713.84
528.614	35445.56
528.815	35783.48
529.016	36113.2
529.218	35902.26
529.419	35834.67
529.62	36072.24
529.822	35930.93
530.023	36100.91
530.224	35543.86
530.425	36303.66
530.626	36270.89
530.828	35746.61
531.029	36789.03
531.23	36375.34
531.431	36389.67
531.632	36737.83
531.833	36725.54
532.035	36639.53
532.236	36891.43
532.437	36842.28
532.638	36498.22
532.839	36995.87
533.04	37296.92
533.241	36674.34
533.442	37593.88
533.643	36768.55
533.844	37112.61
534.045	37301.02
534.246	37053.22
534.447	37597.98
534.648	37075.74
534.849	37282.59
535.05	37294.88
535.251	37088.03
535.451	37202.72
535.652	37489.43
535.853	37380.89
536.054	37325.6
536.255	37655.32
536.456	37116.7
536.657	37671.7
536.857	36866.85
537.058	36983.58
537.259	37901.07
537.46	37466.91
537.66	37595.93
537.861	37835.54
538.062	37505.82
538.263	37899.03
538.463	37065.5
538.664	37554.97
538.865	37432.09
539.065	37425.95
539.266	36993.82
539.466	37825.3
539.667	37049.12
539.868	37731.09
540.068	37690.13
540.269	37964.56
540.469	38146.83
540.67	37430.04
540.87	37317.4
541.071	37604.12
541.271	37468.95
541.472	37673.75
541.672	37128.99
541.873	37614.36
542.073	37200.67
542.274	37819.16
542.474	37788.44
542.675	37346.08
542.875	37540.63
543.075	37419.8
543.276	37507.86
543.476	37841.68
543.676	37481.24
543.877	37815.06
544.077	37610.26
544.277	37417.75
544.478	37235.49
544.678	37724.95
544.878	37739.29
545.078	37784.34
545.279	37085.98
545.479	37223.2
545.679	37694.23
545.879	37626.65
546.079	37448.47
546.28	37212.96
546.48	37247.77
546.68	37477.15
546.88	37122.85
547.08	37645.08
547.28	37339.93
547.48	37212.96
547.68	37925.65
547.88	37169.95
548.081	37503.77
548.281	37618.46
548.481	37157.66
548.681	37509.91
548.881	37165.85
549.081	37387.03
549.28	37313.31
549.48	37798.68
549.68	37215.01
549.88	37878.55
550.08	37100.32
550.28	37563.16
550.48	37374.75
550.68	37315.36
550.88	37225.25
551.08	37116.7
551.279	37290.78
551.479	37008.16
551.679	37604.12
551.879	37219.1
552.079	37448.47
552.278	37057.31
552.478	37679.89
552.678	37321.5
552.878	37276.44
553.077	37155.61
553.277	36989.73
553.477	37872.4
553.676	37364.51
553.876	37305.12
554.076	37141.28
554.275	37067.55
554.475	36350.76
554.674	37055.26
554.874	37149.47
555.074	36954.91
555.273	37061.41
555.473	37024.54
555.672	36707.11
555.872	36791.08
556.071	36854.56
556.271	36989.73
556.47	36492.07
556.67	36346.67
556.869	36530.98
557.068	36848.42
557.268	36621.09
557.467	36426.54
557.667	36184.88
557.866	36387.63
558.065	36096.81
558.265	36197.17
558.464	35930.93
558.663	36487.98
558.863	35949.36
559.062	36498.22
559.261	35896.11
559.461	36508.46
559.66	35765.04
559.859	36002.61
560.058	35330.87
560.258	35783.48
560.457	35945.26
560.656	35599.16
560.855	35814.19
561.054	35652.41
561.253	35441.46
561.453	35582.77
561.652	35509.05
561.851	35912.5
562.05	35537.72
562.249	35136.32
562.448	35302.2
562.647	35369.79
562.846	35199.8
563.045	35547.96
563.244	35093.31
563.443	35347.26
563.642	34716.48
563.841	35273.53
564.04	34503.49
564.239	35212.09
564.438	34544.45
564.637	34970.43
564.836	35107.65
565.035	34196.3
565.234	35007.3
565.432	34278.22
565.631	34278.22
565.83	34616.13
566.029	34810.69
566.228	34528.07
566.427	34208.59
566.625	33794.9
566.824	33583.96
567.023	33975.12
567.222	33637.2
567.42	33977.17
567.619	33987.41
567.818	33778.51
568.016	33839.95
568.215	34016.08
568.414	33643.35
568.612	33721.17
568.811	33452.89
569.01	33665.88
569.208	32967.52
569.407	33418.07
569.605	32928.61
569.804	33325.91
570.002	32512.87
570.201	33127.26
570.4	32633.7
570.598	32697.19
570.797	32295.78
570.995	32887.65
571.193	32392.04
571.392	32645.99
571.59	32222.06
571.789	32402.28
571.987	32045.93
572.186	32047.98
572.384	32009.07
572.582	32209.77
572.781	31763.31
572.979	31525.75
573.177	31460.21
573.376	31667.06
573.574	31304.57
573.772	31370.1
573.971	31273.85
574.169	31232.89
574.367	30940.03
574.565	31460.21
574.763	30833.53
574.962	31081.34
575.16	30256.01
575.358	30952.32
575.556	30344.07
575.754	30518.15
575.952	30274.44
576.151	30698.37
576.349	30231.43
576.547	30378.89
576.745	30393.22
576.943	30247.82
577.141	30124.94
577.339	30090.12
577.537	29606.8
577.735	29680.53
577.933	29320.09
578.131	29741.97
578.329	29166.49
578.527	29227.93
578.725	29103
578.923	29176.73
579.121	28955.55
579.319	28978.08
579.516	29272.98
579.714	28820.38
579.912	28832.67
580.11	28855.2
580.308	28502.95
580.506	28717.98
580.704	28044.2
580.901	28652.45
581.099	28904.35
581.297	28253.09
581.495	27968.43
581.692	28332.96
581.89	27708.33
582.088	28429.22
582.285	27972.52
582.483	27966.38
582.681	27626.42
582.878	27949.99
583.076	27345.84
583.274	27866.03
583.471	27257.78
583.669	27728.81
583.866	27143.1
584.064	27169.72
584.262	26966.97
584.459	27188.15
584.657	26954.68
584.854	27009.98
585.052	26497.99
585.249	26842.04
585.447	26661.82
585.644	26686.4
585.841	26321.86
586.039	27028.41
586.236	26493.89
586.434	26018.76
586.631	26264.52
586.828	26229.7
587.026	26004.42
587.223	26123.21
587.42	25975.75
587.618	25791.44
587.815	25533.39
588.012	25590.73
588.21	25639.89
588.407	25916.36
588.604	25297.88
588.801	25465.81
588.999	25062.36
589.196	25271.25
589.393	25357.27
589.59	25123.8
589.787	25164.76
589.984	24796.12
590.182	24746.97
590.379	24792.03
590.576	24785.88
590.773	24658.91
590.97	24157.16
591.167	24722.4
591.364	24431.58
591.561	24587.23
591.758	24280.03
591.955	24335.33
592.152	24642.53
592.349	24021.99
592.546	24275.94
592.743	23927.78
592.94	23553.01
593.137	23761.9
593.334	24044.52
593.531	23522.29
593.727	23804.91
593.924	23632.88
594.121	23393.26
594.318	23698.41
594.515	23059.45
594.712	23677.93
594.908	23229.43
595.105	23315.44
595.302	22909.94
595.499	22979.57
595.696	23159.8
595.892	22932.47
596.089	22922.23
596.286	23116.79
596.482	22803.45
596.679	22402.05
596.876	22744.06
597.072	22412.29
597.269	22506.49
597.466	22348.8
597.662	21953.54
597.859	22346.75
598.055	22211.59
598.252	21904.39
598.448	22084.61
598.645	22103.04
598.841	21949.45
599.038	22068.23
599.234	21785.61
599.431	21709.83
599.627	21644.3
599.824	21568.52
600.02	21548.04
600.217	21519.37
600.413	21449.74
600.609	21302.29
600.806	21298.19
601.002	21416.97
601.198	21087.25
601.395	21066.77
601.591	20878.36
601.787	20997.14
601.984	21072.92
602.18	21154.83
602.376	20605.98
602.572	20956.18
602.769	20892.69
602.965	20407.33
603.161	20657.18
603.357	20257.82
603.553	20429.85
603.75	20317.22
603.946	19969.06
604.142	20444.19
604.338	19733.54
604.534	20198.43
604.73	19932.2
604.926	19848.23
605.122	19967.01
605.318	19594.28
605.514	19713.06
605.71	19563.56
605.906	19604.52
606.102	19541.04
606.298	19375.15
606.494	19452.97
606.69	19147.83
606.886	19440.68
607.082	19217.46
607.278	19221.55
607.474	18990.13
607.67	19160.11
607.866	18973.75
608.062	19094.58
608.257	18908.21
608.453	18879.54
608.649	19233.84
608.845	18433.08
609.041	18590.78
609.236	18615.35
609.432	18545.72
609.628	18435.13
609.824	18451.52
610.019	18433.08
610.215	18410.56
610.411	18527.29
610.606	18168.9
610.802	18402.36
610.998	18246.72
611.193	18285.63
611.389	18158.66
611.584	18177.09
611.78	17869.89
611.976	17921.09
612.171	17804.36
612.367	17939.52
612.562	17783.88
612.758	17511.5
612.953	17679.43
613.149	17880.13
613.344	17648.71
613.539	17779.78
613.735	17382.48
613.93	17642.57
614.126	17333.32
614.321	17534.03
614.517	17384.52
614.712	17386.57
614.907	17065.04
615.103	17527.88
615.298	17110.1
615.493	17292.37
615.688	17149.01
615.884	17683.53
616.079	17120.34
616.274	17278.03
616.47	17048.66
616.665	16766.04
616.86	16804.95
617.055	16716.89
617.25	16766.04
617.445	16815.19
617.641	16653.4
617.836	16219.23
618.031	16288.86
618.226	16327.77
618.421	16411.74
618.616	16387.16
618.811	16094.3
619.006	16264.29
619.201	15828.07
619.396	16151.65
619.591	15996
619.786	16198.75
619.981	15836.26
620.176	15848.55
620.371	15625.32
620.566	15752.29
620.761	15658.09
620.956	15561.83
621.151	15307.88
621.346	15436.91
621.541	15185.01
621.735	15467.63
621.93	15287.4
622.125	14914.67
622.32	14828.66
622.515	15324.27
622.709	14984.3
622.904	14908.53
623.099	14701.68
623.294	14920.82
623.488	14488.7
623.683	14603.38
623.878	14247.04
624.072	14324.86
624.267	14345.34
624.462	14126.21
624.656	13968.51
624.851	13939.84
625.046	13943.94
625.24	13761.67
625.435	13524.1
625.629	13694.08
625.824	13853.83
626.018	13528.2
626.213	13427.85
626.407	13425.8
626.602	13200.52
626.796	13374.6
626.991	13468.81
627.185	13118.61
627.38	13249.68
627.574	13102.22
627.768	12878.99
627.963	12723.35
628.157	12932.24
628.352	12749.97
628.546	12635.28
628.74	12528.79
628.935	12496.02
629.129	12594.33
629.323	12471.45
629.517	12272.79
629.712	12268.7
629.906	12154.01
630.1	12016.8
630.294	12080.28
630.489	11959.45
630.683	12088.48
630.877	11758.75
631.071	11715.75
631.265	11711.65
631.459	11658.4
631.653	11707.55
631.848	11625.64
632.042	11539.62
632.236	11545.77
632.43	11390.12
632.624	11621.54
632.818	11152.56
633.012	11146.41
633.206	11056.3
633.4	10982.57
633.594	11044.01
633.788	10982.57
633.982	11087.02
634.176	10943.66
634.369	10812.59
634.563	10730.67
634.757	10693.81
634.951	10597.56
635.145	10558.64
635.339	10603.7
635.533	10425.53
635.726	10411.19
635.92	10505.4
636.114	10271.93
636.308	10394.81
636.501	10482.87
636.695	10147
636.889	10134.71
637.083	10087.61
637.276	9782.46
637.47	9809.09
637.664	9923.77
637.857	9907.39
638.051	9862.33
638.244	9766.08
638.438	9684.16
638.632	9565.38
638.825	9542.85
639.019	9508.04
639.212	9503.94
639.406	9553.09
639.599	9454.79
639.793	9178.31
639.986	9241.8
640.18	9436.36
640.373	9133.26
640.567	9075.91
640.76	9149.64
640.954	9163.98
641.147	9055.44
641.34	9127.11
641.534	8830.16
641.727	8789.2
641.92	8606.93
642.114	8686.8
642.307	8744.14
642.5	8592.59
642.694	8649.94
642.887	8416.47
643.08	8537.3
643.273	8586.45
643.467	8457.43
643.66	8416.47
643.853	8281.3
644.046	8168.66
644.239	8107.23
644.432	8189.14
644.626	8033.5
644.819	7912.67
645.012	8027.35
645.205	8131.8
645.398	7910.62
645.591	7777.5
645.784	7744.74
645.977	7570.66
646.17	7658.72
646.363	7664.86
646.556	7578.85
646.749	7486.69
646.942	7539.94
647.135	7494.88
647.328	7447.78
647.521	7410.92
647.714	7288.04
647.907	7361.76
648.099	7212.26
648.292	7134.44
648.485	7181.54
648.678	6888.68
648.871	7058.67
649.064	6986.99
649.256	6989.03
649.449	6968.56
649.642	6878.44
649.835	6880.49
650.027	6765.81
650.22	6710.51
650.413	6837.48
650.605	6669.55
650.798	6659.31
650.991	6706.41
651.183	6610.16
651.376	6341.88
651.568	6438.13
651.761	6604.02
651.954	6374.64
652.146	6356.21
652.339	6327.54
652.531	6409.46
652.724	6350.07
652.916	6210.81
653.109	6323.44
653.301	6270.2
653.494	6167.8
653.686	6155.51
653.879	6126.84
654.071	6012.15
654.263	5997.82
654.456	5899.52
654.648	6126.84
654.84	5844.22
655.033	5795.07
655.225	5750.01
655.417	5852.41
655.61	5686.53
655.802	5772.54
655.994	5696.77
656.186	5764.35
656.379	5625.09
656.571	5561.6
656.763	5489.92
656.955	5373.19
657.148	5586.18
657.34	5426.43
657.532	5354.76
657.724	5342.47
657.916	5295.36
658.108	5207.3
658.3	5305.6
658.492	5367.04
658.684	5262.6
658.876	5082.38
659.068	5213.45
659.26	5002.5
659.452	5100.81
659.644	5135.62
659.836	4889.87
660.028	4982.03
660.22	4855.05
660.412	4926.73
660.604	4926.73
660.796	4842.76
660.988	4855.05
661.18	4881.67
661.372	4627.73
661.563	4873.48
661.755	4642.06
661.947	4625.68
662.139	4812.04
662.331	4558.1
662.522	4707.6
662.714	4570.38
662.906	4523.28
663.097	4310.29
663.289	4486.42
663.481	4392.21
663.673	4570.38
663.864	4343.06
664.056	4349.2
664.247	4277.52
664.439	4255
664.631	4453.65
664.822	4304.15
665.014	4316.44
665.205	4248.85
665.397	4175.13
665.588	4238.61
665.78	4107.54
665.971	4054.3
666.163	4183.32
666.354	4013.34
666.546	4277.52
666.737	3976.47
666.929	3955.99
667.12	4031.77
667.311	3847.45
667.503	3835.16
667.694	3945.75
667.885	4066.58
668.077	3820.83
668.268	3855.64
668.459	3927.32
668.651	4003.1
668.842	3855.64
669.033	3761.44
669.224	3802.4
669.416	3720.48
669.607	3804.44
669.798	3736.86
669.989	3681.57
670.18	3851.55
670.371	3650.85
670.563	3620.13
670.754	3769.63
670.945	3714.33
671.136	3648.8
671.327	3714.33
671.518	3683.61
671.709	3579.17
671.9	3517.73
672.091	3589.41
672.282	3480.86
672.473	3689.76
672.664	3542.3
672.855	3398.95
673.046	3519.78
673.237	3411.23
673.428	3407.14
673.619	3505.44
673.809	3409.19
674	3374.37
674.191	3325.22
674.382	3312.93
674.573	3310.88
674.764	3327.27
674.954	3261.73
675.145	3386.66
675.336	3243.3
675.527	3444
675.717	3317.03
675.908	3231.01
676.099	3263.78
676.289	3288.36
676.48	3153.19
676.671	3226.92
676.861	3192.1
677.052	3099.94
677.243	3173.67
677.433	3093.8
677.624	3112.23
677.814	3216.68
678.005	3063.08
678.195	3165.48
678.386	3185.96
678.576	2954.54
678.767	3079.46
678.957	2983.21
679.148	3046.69
679.338	2964.78
679.529	2932.01
679.719	2981.16
679.909	3079.46
680.1	2909.48
680.29	3116.33
680.481	3067.17
680.671	2866.47
680.861	2909.48
681.052	2952.49
681.242	2938.15
681.432	2952.49
681.622	2878.76
681.813	2872.62
682.003	2868.52
682.193	2929.96
682.383	2913.58
682.573	2807.08
682.764	2852.14
682.954	2831.66
683.144	2852.14
683.334	2905.38
683.524	2874.67
683.714	2909.48
683.904	2735.4
684.094	2964.78
684.284	2682.16
684.474	2882.86
684.664	2841.9
684.854	2757.93
685.044	2770.22
685.234	2768.17
685.424	2698.54
685.614	2768.17
685.804	2559.28
685.994	2723.12
686.184	2739.5
686.374	2669.87
686.564	2694.44
686.753	2716.97
686.943	2633.01
687.133	2645.29
687.323	2700.59
687.513	2753.84
687.702	2655.53
687.892	2657.58
688.082	2796.84
688.272	2673.96
688.461	2626.86
688.651	2594.09
688.841	2633.01
689.03	2676.01
689.22	2649.39
689.41	2510.13
689.599	2647.34
689.789	2676.01
689.979	2727.21
690.168	2657.58
690.358	2696.49
690.547	2583.85
690.737	2692.4
690.926	2633.01
691.116	2602.29
691.305	2553.13
691.495	2602.29
691.684	2571.57
691.874	2481.46
692.063	2503.98
692.252	2557.23
692.442	2596.14
692.631	2633.01
692.82	2577.71
693.01	2387.25
693.199	2663.72
693.388	2432.3
693.578	2430.26
693.767	2587.95
693.956	2495.79
694.146	2571.57
694.335	2577.71
694.524	2577.71
694.713	2508.08
694.902	2489.65
695.092	2477.36
695.281	2417.97
695.47	2479.41
695.659	2465.07
695.848	2592.05
696.037	2430.26
696.226	2432.3
696.415	2503.98
696.604	2508.08
696.793	2471.22
696.982	2436.4
697.171	2555.18
697.36	2508.08
697.549	2510.13
697.738	2526.51
697.927	2522.41
698.116	2372.91
698.305	2534.7
698.494	2368.82
698.683	2518.32
698.872	2520.37
699.061	2389.3
699.25	2417.97
699.438	2448.69
699.627	2475.31
699.816	2413.87
700.005	2415.92
700.193	2442.54
700.382	2358.58
700.571	2495.79
700.76	2405.68
700.948	2485.55
701.137	2465.07
701.326	2336.05
701.514	2409.78
701.703	2454.83
701.892	2319.67
702.08	2538.8
702.269	2354.48
702.457	2379.06
702.646	2258.23
702.834	2338.1
703.023	2303.28
703.212	2430.26
703.4	2368.82
703.589	2377.01
703.777	2305.33
703.965	2334
704.154	2299.19
704.342	2381.1
704.531	2293.04
704.719	2364.72
704.907	2360.63
705.096	2258.23
705.284	2299.19
705.472	2321.71
705.661	2223.41
705.849	2317.62
706.037	2403.63
706.226	2233.65
706.414	2350.39
706.602	2182.45
706.79	2305.33
706.979	2258.23
707.167	2274.61
707.355	2233.65
707.543	2274.61
707.731	2172.21
707.919	2229.56
708.107	2155.83
708.296	2110.77
708.484	2164.02
708.672	2209.08
708.86	2125.11
709.048	2215.22
709.236	2125.11
709.424	2151.73
709.612	2102.58
709.8	2127.16
709.988	2174.26
710.176	2116.92
710.364	2184.5
710.551	2106.68
710.739	2145.59
710.927	2094.39
711.115	2039.09
711.303	2118.96
711.491	2123.06
711.679	2030.9
711.866	2032.95
712.054	2008.37
712.242	2057.53
712.43	2075.96
712.617	2129.2
712.805	2002.23
712.993	1963.32
713.181	1944.89
713.368	1996.09
713.556	1977.66
713.744	1944.89
713.931	1991.99
714.119	1944.89
714.306	1938.74
714.494	1989.94
714.682	1961.27
714.869	1846.59
715.057	1924.41
715.244	1914.17
715.432	1946.94
715.619	2024.76
715.807	1834.3
715.994	1961.27
716.182	1813.82
716.369	1918.26
716.556	1934.65
716.744	1799.48
716.931	1871.16
717.119	1975.61
717.306	1795.39
717.493	1797.43
717.681	1803.58
717.868	1787.19
718.055	1805.63
718.242	1832.25
718.43	1752.38
718.617	1791.29
718.804	1791.29
718.991	1738.04
719.179	1738.04
719.366	1684.8
719.553	1752.38
719.74	1721.66
719.927	1707.32
720.114	1690.94
720.301	1711.42
720.488	1660.22
720.676	1676.6
720.863	1768.76
721.05	1637.69
721.237	1652.03
721.424	1701.18
721.611	1643.84
721.798	1602.88
721.985	1717.56
722.172	1623.36
722.358	1606.97
722.545	1723.71
722.732	1688.89
722.919	1672.51
723.106	1649.98
723.293	1723.71
723.48	1570.11
723.667	1561.92
723.853	1592.64
724.04	1639.74
724.227	1621.31
724.414	1568.06
724.6	1492.29
724.787	1600.83
724.974	1566.01
725.161	1527.1
725.347	1529.15
725.534	1592.64
725.72	1482.05
725.907	1518.91
726.094	1424.7
726.28	1500.48
726.467	1584.45
726.653	1463.61
726.84	1480
727.027	1547.58
727.213	1414.46
727.4	1502.53
727.586	1445.18
727.773	1391.94
727.959	1467.71
728.145	1475.9
728.332	1518.91
728.518	1494.33
728.705	1404.22
728.891	1410.37
729.077	1457.47
729.264	1373.5
729.45	1445.18
729.636	1369.41
729.823	1412.42
730.009	1379.65
730.195	1330.5
730.382	1402.18
730.568	1338.69
730.754	1303.87
730.94	1336.64
731.126	1426.75
731.313	1359.17
731.499	1387.84
731.685	1414.46
731.871	1414.46
732.057	1320.26
732.243	1408.32
732.429	1371.46
732.615	1387.84
732.801	1463.61
732.987	1301.83
733.173	1330.5
733.359	1236.29
733.545	1379.65
733.731	1277.25
733.917	1336.64
734.103	1326.4
734.289	1348.93
734.475	1283.39
734.661	1287.49
734.847	1289.54
735.033	1242.43
735.219	1350.98
735.404	1295.68
735.59	1289.54
735.776	1264.96
735.962	1199.43
736.148	1246.53
736.333	1310.02
736.519	1238.34
736.705	1217.86
736.89	1250.63
737.076	1150.28
737.262	1164.61
737.447	1137.99
737.633	1195.33
737.819	1181
738.004	1291.59
738.19	1244.48
738.375	1226.05
738.561	1267.01
738.747	1205.57
738.932	1181
739.118	1250.63
739.303	1191.24
739.489	1193.28
739.674	1086.79
739.859	1099.08
740.045	1146.18
740.23	1164.61
740.416	1111.36
740.601	1215.81
740.786	1049.93
740.972	1074.5
741.157	1107.27
741.342	1080.64
741.528	1135.94
741.713	1086.79
741.898	1090.88
742.084	1109.32
742.269	1064.26
742.454	1045.83
742.639	1051.97
742.824	1060.17
743.01	1105.22
743.195	1000.77
743.38	1041.73
743.565	1035.59
743.75	1107.27
743.935	1047.88
744.12	947.53
744.305	957.77
744.49	1017.16
744.675	1070.4
744.86	949.57
745.045	1023.3
745.23	996.68
745.415	1033.54
745.6	1004.87
745.785	996.68
745.97	943.43
746.155	947.53
746.34	990.53
746.525	900.42
746.71	914.76
746.895	1000.77
747.079	933.19
747.264	980.29
747.449	968.01
747.634	884.04
747.819	888.14
748.003	871.75
748.188	847.18
748.373	986.44
748.557	957.77
748.742	904.52
748.927	949.57
749.111	843.08
749.296	830.79
749.481	869.7
749.665	906.57
749.85	855.37
750.034	892.23
750.219	798.03
750.404	910.66
750.588	781.64
750.773	824.65
750.957	865.61
751.141	834.89
751.326	865.61
751.51	783.69
751.695	834.89
751.879	791.88
752.064	812.36
752.248	838.98
752.432	841.03
752.617	775.5
752.801	867.66
752.985	773.45
753.17	808.26
753.354	769.35
753.538	822.6
753.722	748.87
753.907	675.15
754.091	732.49
754.275	757.07
754.459	755.02
754.643	580.94
754.828	697.67
755.012	666.96
755.196	658.76
755.38	724.3
755.564	675.15
755.748	656.72
755.932	640.33
756.116	699.72
756.3	695.63
756.484	709.96
756.668	724.3
756.852	744.78
757.036	707.91
757.22	609.61
757.404	697.67
757.588	603.47
757.772	681.29
757.956	662.86
758.14	570.7
758.323	707.91
758.507	636.24
758.691	681.29
758.875	535.89
759.059	669
759.242	650.57
759.426	597.32
759.61	642.38
759.794	630.09
759.977	546.12
760.161	607.56
760.345	490.83
760.528	546.12
760.712	521.55
760.895	560.46
761.079	605.52
761.263	562.51
761.446	525.65
761.63	591.18
761.813	568.65
761.997	552.27
762.18	542.03
762.364	617.8
762.547	552.27
762.731	572.75
762.914	599.37
763.098	582.99
763.281	552.27
763.464	558.41
763.648	529.74
763.831	523.6
764.015	486.73
764.198	535.89
764.381	496.97
764.564	587.08
764.748	556.36
764.931	548.17
765.114	480.59
765.297	593.23
765.481	499.02
765.664	523.6
765.847	517.45
766.03	566.6
766.213	546.12
766.397	492.88
766.58	433.49
766.763	580.94
766.946	548.17
767.129	535.89
767.312	515.41
767.495	445.77
767.678	410.96
767.861	531.79
768.044	535.89
768.227	525.65
768.41	529.74
768.593	503.12
768.776	570.7
768.959	404.82
769.142	505.17
769.324	548.17
769.507	456.01
769.69	499.02
769.873	472.4
770.056	589.13
770.239	439.63
770.421	441.68
770.604	486.73
770.787	443.73
770.97	511.31
771.152	468.3
771.335	449.87
771.518	435.53
771.7	394.58
771.883	499.02
772.066	417.1
772.248	429.39
772.431	476.49
772.613	464.21
772.796	439.63
772.978	507.21
773.161	468.3
773.343	396.62
773.526	415.05
773.708	451.92
773.891	388.43
774.073	396.62
774.256	355.66
774.438	435.53
774.621	419.15
774.803	355.66
774.985	441.68
775.168	410.96
775.35	423.25
775.532	474.45
775.715	431.44
775.897	408.91
776.079	413.01
776.261	447.82
776.444	376.14
776.626	372.05
776.808	394.58
776.99	425.29
777.173	382.29
777.355	386.38
777.537	410.96
777.719	410.96
777.901	365.9
778.083	386.38
778.265	388.43
778.447	361.81
778.629	324.94
778.811	353.62
778.993	353.62
779.175	359.76
779.357	435.53
779.539	259.41
779.721	394.58
779.903	376.14
780.085	421.2
780.267	367.95
780.449	437.58
780.631	333.14
780.812	324.94
780.994	335.18
781.176	335.18
781.358	361.81
781.54	435.53
781.721	335.18
781.903	304.46
782.085	271.7
782.267	361.81
782.448	419.15
782.63	277.84
782.812	283.98
782.993	314.7
783.175	376.14
783.357	249.17
783.538	326.99
783.72	310.61
783.901	357.71
784.083	300.37
784.264	308.56
784.446	302.42
784.627	243.03
784.809	359.76
784.99	341.33
785.172	259.41
785.353	238.93
785.535	322.9
785.716	236.88
785.897	271.7
786.079	247.12
786.26	316.75
786.441	263.51
786.623	312.66
786.804	216.4
786.985	271.7
787.167	263.51
787.348	230.74
787.529	283.98
787.71	271.7
787.891	200.02
788.073	251.22
788.254	253.27
788.435	253.27
788.616	226.64
788.797	228.69
788.978	275.79
789.159	228.69
789.34	267.6
789.522	236.88
789.703	224.59
789.884	157.01
790.065	228.69
790.246	247.12
790.427	167.25
790.607	224.59
790.788	255.31
790.969	169.3
791.15	236.88
791.331	210.26
791.512	216.4
791.693	128.34
791.874	220.5
792.054	130.39
792.235	183.63
792.416	193.87
792.597	228.69
792.778	154.96
792.958	234.83
793.139	128.34
793.32	118.1
793.5	152.91
793.681	245.07
793.862	163.15
794.042	222.55
794.223	222.55
794.404	132.44
794.584	259.41
794.765	200.02
794.945	114
795.126	171.35
795.306	257.36
795.487	181.59
795.667	144.72
795.848	218.45
796.028	214.35
796.209	171.35
796.389	183.63
796.57	202.07
796.75	197.97
796.93	130.39
797.111	214.35
797.291	148.82
797.471	165.2
797.652	150.87
797.832	122.2
798.012	265.55
798.192	197.97
798.373	114
798.553	200.02
798.733	136.53
798.913	105.81
799.093	136.53
799.274	185.68
799.454	111.96
799.634	195.92
799.814	218.45
799.994	165.2
800.174	142.68
800.354	202.07
800.534	130.39
800.714	193.87
800.894	142.68
801.074	214.35
801.254	132.44
801.434	169.3
801.614	177.49
801.794	157.01
801.974	386.38
802.154	179.54
802.334	169.3
802.514	189.78
802.693	177.49
802.873	132.44
803.053	126.29
803.233	165.2
803.413	167.25
803.592	89.43
803.772	169.3
803.952	122.2
804.131	171.35
804.311	138.58
804.491	185.68
804.67	81.24
804.85	191.83
805.03	177.49
805.209	150.87
805.389	118.1
805.568	159.06
805.748	71
805.928	93.52
806.107	116.05
806.287	247.12
806.466	142.68
806.646	85.33
806.825	118.1
807.004	42.32
807.184	152.91
807.363	187.73
807.543	124.24
807.722	144.72
807.901	134.48
808.081	200.02
808.26	107.86
808.439	71
808.619	179.54
808.798	134.48
808.977	124.24
809.156	85.33
809.336	107.86
809.515	81.24
809.694	130.39
809.873	71
810.052	136.53
810.231	79.19
810.411	159.06
810.59	87.38
810.769	91.48
810.948	83.28
811.127	144.72
811.306	138.58
811.485	105.81
811.664	214.35
811.843	107.86
812.022	124.24
812.201	81.24
812.38	103.76
812.559	132.44
812.737	134.48
812.916	116.05
813.095	126.29
813.274	134.48
813.453	83.28
813.632	103.76
813.811	136.53
813.989	142.68
814.168	91.48
814.347	152.91
814.526	122.2
814.704	103.76
814.883	99.67
815.062	107.86
815.24	142.68
815.419	114
815.598	116.05
815.776	122.2
815.955	114
816.133	32.08
816.312	97.62
816.49	-0.68
816.669	87.38
816.847	64.85
817.026	91.48
817.204	120.15
817.383	120.15
817.561	99.67
817.74	71
817.918	116.05
818.097	116.05
818.275	60.76
818.453	95.57
818.632	66.9
818.81	11.61
818.988	-25.26
819.167	71
819.345	52.56
819.523	71
819.701	73.04
819.879	167.25
820.058	71
820.236	144.72
820.414	17.75
820.592	68.95
820.77	73.04
820.948	171.35
821.127	-0.68
821.305	91.48
821.483	52.56
821.661	46.42
821.839	48.47
822.017	171.35
822.195	3.41
822.373	83.28
822.551	7.51
822.729	136.53
822.907	83.28
823.085	144.72
823.262	177.49
823.44	91.48
823.618	83.28
823.796	97.62
823.974	32.08
824.152	58.71
824.329	77.14
824.507	91.48
824.685	79.19
824.863	134.48
825.04	-4.78
825.218	109.91
825.396	118.1
825.574	136.53
825.751	42.32
825.929	146.77
826.107	128.34
826.284	101.72
826.462	-12.97
826.639	87.38
826.817	79.19
826.994	134.48
827.172	7.51
827.349	11.61
827.527	38.23
827.704	161.11
827.882	124.24
828.059	77.14
828.237	111.96
828.414	62.8
828.591	83.28
828.769	68.95
828.946	56.66
829.124	97.62
829.301	83.28
829.478	173.39
829.655	48.47
829.833	62.8
830.01	19.8
830.187	62.8
830.364	75.09
830.542	40.28
830.719	25.94
830.896	60.76
831.073	62.8
831.25	114
831.427	73.04
831.604	60.76
831.782	101.72
831.959	1.37
832.136	93.52
832.313	85.33
832.49	97.62
832.667	25.94
832.844	36.18
833.021	77.14
833.198	83.28
833.374	-35.5
833.551	44.37
833.728	58.71
833.905	99.67
834.082	32.08
834.259	93.52
834.436	73.04
834.612	44.37
834.789	48.47
834.966	54.61
835.143	103.76
835.319	32.08
835.496	101.72
835.673	64.85
835.85	103.76
836.026	40.28
836.203	34.13
836.38	77.14
836.556	30.04
836.733	36.18
836.909	52.56
837.086	48.47
837.262	32.08
837.439	77.14
837.616	54.61
837.792	44.37
837.968	44.37
838.145	54.61
838.321	111.96
838.498	52.56
838.674	95.57
838.851	9.56
839.027	-2.73
839.203	54.61
839.38	73.04
839.556	-19.11
839.732	30.04
839.909	97.62
840.085	7.51
840.261	30.04
840.437	161.11
840.614	87.38
840.79	60.76
840.966	7.51
841.142	48.47
841.318	27.99
841.494	40.28
841.671	101.72
841.847	48.47
842.023	60.76
842.199	19.8
842.375	83.28
842.551	103.76
842.727	-31.4
842.903	99.67
843.079	27.99
843.255	38.23
843.431	23.89
843.607	40.28
843.783	85.33
843.959	-17.07
844.134	13.65
844.31	44.37
844.486	36.18
844.662	-0.68
844.838	62.8
845.013	48.47
845.189	5.46
845.365	13.65
845.541	87.38
845.716	7.51
845.892	11.61
846.068	58.71
846.244	79.19
846.419	3.41
846.595	-0.68
846.77	-12.97
846.946	83.28
847.122	148.82
847.297	42.32
847.473	50.52
847.648	36.18
847.824	-21.16
847.999	23.89
848.175	11.61
848.35	7.51
848.526	91.48
848.701	38.23
848.876	32.08
849.052	56.66
849.227	56.66
849.403	7.51
849.578	7.51
849.753	-23.21
849.929	23.89
850.104	93.52
850.279	34.13
850.454	1.37
850.63	38.23
850.805	17.75
850.98	40.28
851.155	-19.11
851.33	60.76
851.505	42.32
851.681	50.52
851.856	73.04
852.031	44.37
852.206	-76.46
852.381	146.77
852.556	77.14
852.731	50.52
852.906	-37.55
853.081	-31.4
853.256	52.56
853.431	27.99
853.606	-25.26
853.781	9.56
853.956	-15.02
854.131	32.08
854.305	27.99
854.48	99.67
854.655	5.46
854.83	11.61
855.005	60.76
855.18	42.32
855.354	23.89
855.529	23.89
855.704	36.18
855.879	32.08
856.053	7.51
856.228	75.09
856.403	9.56
856.577	50.52
856.752	68.95
856.926	21.84
857.101	52.56
857.276	36.18
857.45	44.37
857.625	-53.93
857.799	15.7
857.974	32.08
858.148	1.37
858.323	77.14
858.497	60.76
858.672	48.47
858.846	91.48
859.02	52.56
859.195	52.56
859.369	83.28
859.543	13.65
859.718	87.38
859.892	50.52
860.066	19.8
860.241	40.28
860.415	25.94
860.589	3.41
860.763	1.37
860.938	44.37
861.112	42.32
861.286	17.75
861.46	38.23
861.634	3.41
861.808	-8.87
861.982	-45.74
862.157	-2.73
862.331	-0.68
862.505	-37.55
862.679	7.51
862.853	83.28
863.027	-4.78
863.201	60.76
863.375	-4.78
863.549	56.66
863.722	36.18
863.896	73.04
864.07	27.99
864.244	13.65
864.418	93.52
864.592	25.94
864.766	-21.16
864.939	54.61
865.113	46.42
865.287	46.42
865.461	44.37
865.634	60.76
865.808	-0.68
865.982	7.51
866.156	27.99
866.329	17.75
866.503	64.85
866.676	68.95
866.85	25.94
867.024	13.65
867.197	50.52
867.371	79.19
867.544	56.66
867.718	44.37
867.891	50.52
868.065	-35.5
868.238	71
868.412	85.33
868.585	-4.78
868.759	-2.73
868.932	83.28
869.105	50.52
869.279	-4.78
869.452	68.95
869.625	77.14
869.799	48.47
869.972	-25.26
870.145	-2.73
870.319	25.94
870.492	-0.68
870.665	71
870.838	-39.59
871.011	-4.78
871.185	17.75
871.358	19.8
871.531	48.47
871.704	32.08
871.877	-4.78
872.05	60.76
872.223	44.37
872.396	1.37
872.569	50.52
872.742	54.61
872.915	-2.73
873.088	-37.55
873.261	40.28
873.434	-23.21
873.607	52.56
873.78	34.13
873.953	34.13
874.126	48.47
874.299	71
874.471	-15.02
874.644	15.7
874.817	42.32
874.99	-0.68
875.163	52.56
875.335	44.37
875.508	36.18
875.681	15.7
875.853	95.57
876.026	-10.92
876.199	19.8
876.371	42.32
876.544	54.61
876.717	87.38
876.889	42.32
877.062	124.24
877.234	56.66
877.407	71
877.579	5.46
877.752	5.46
877.924	54.61
878.097	19.8
878.269	32.08
878.442	19.8
878.614	34.13
878.786	9.56
878.959	-15.02
879.131	44.37
879.303	5.46
879.476	85.33
879.648	50.52
879.82	5.46
879.993	27.99
880.165	52.56
880.337	-15.02
880.509	46.42
880.681	-31.4
880.854	60.76
881.026	15.7
881.198	111.96
881.37	79.19
881.542	3.41
881.714	17.75
881.886	75.09
882.058	38.23
882.23	44.37
882.402	32.08
882.574	46.42
882.746	-10.92
882.918	58.71
883.09	36.18
883.262	40.28
883.434	3.41
883.606	-21.16
883.778	7.51
883.95	19.8
884.122	66.9
884.293	87.38
884.465	83.28
884.637	-35.5
884.809	-49.83
884.98	77.14
885.152	38.23
885.324	-12.97
885.496	58.71
885.667	-35.5
885.839	-23.21
886.011	27.99
886.182	64.85
886.354	83.28
886.525	-0.68
886.697	40.28
886.869	15.7
887.04	-33.45
887.212	-12.97
887.383	30.04
887.555	9.56
887.726	-2.73
887.897	21.84
888.069	42.32
888.24	7.51
888.412	34.13
888.583	-4.78
888.754	77.14
888.926	23.89
889.097	44.37
889.268	27.99
889.44	19.8
889.611	-37.55
889.782	30.04
889.953	1.37
890.125	3.41
890.296	-19.11
890.467	93.52
890.638	-2.73
890.809	25.94
890.98	5.46
891.151	7.51
891.323	-55.98
891.494	27.99
891.665	-17.07
891.836	9.56
892.007	68.95
892.178	83.28
892.349	25.94
892.52	46.42
892.691	17.75
892.862	66.9
893.032	-0.68
893.203	48.47
893.374	52.56
893.545	27.99
893.716	68.95
893.887	58.71
894.057	-8.87
894.228	44.37
894.399	-25.26
894.57	-31.4
894.74	25.94
894.911	52.56
895.082	73.04
895.253	89.43
895.423	42.32
895.594	77.14
895.764	54.61
895.935	66.9
896.106	-33.45
896.276	111.96
896.447	40.28
896.617	-45.74
896.788	30.04
896.958	-33.45
897.129	60.76
897.299	23.89
897.47	32.08
897.64	71
897.81	-49.83
897.981	11.61
898.151	32.08
898.322	-8.87
898.492	27.99
898.662	56.66
898.832	27.99
899.003	79.19
899.173	-23.21
899.343	71
899.513	-12.97
