Data from USB4F104151__254__14-01-36-264.txt Node

Date: Thu Mar 13 14:01:36 EDT 2025
User: louis
Spectrometer: USB4F10415
Trigger mode: 4
Integration Time (sec): 1.000000E-2
Scans to average: 1
Electric dark correction enabled: true
Nonlinearity correction enabled: false
Boxcar width: 0
XAxis mode: Wavelengths
Number of Pixels in Spectrum: 3648
>>>>>Begin Spectral Data<<<<<
178.204	-97.96
178.424	-97.96
178.644	-97.96
178.864	-44.71
179.084	-44.71
179.304	8.53
179.524	-52.91
179.744	-3.75
179.964	80.21
180.184	-26.28
180.404	-7.85
180.624	35.16
180.844	-7.85
181.064	-38.57
181.283	10.58
181.503	16.73
181.723	-13.99
181.943	74.07
182.163	88.4
182.383	-1.71
182.602	22.87
182.822	65.88
183.042	72.02
183.262	-36.52
183.482	-18.09
183.701	37.2
183.921	-22.19
184.141	63.83
184.361	67.92
184.58	10.58
184.8	-3.75
185.02	8.53
185.239	80.21
185.459	88.4
185.679	20.82
185.898	-18.09
186.118	57.68
186.338	8.53
186.557	65.88
186.777	39.25
186.997	92.5
187.216	80.21
187.436	67.92
187.655	-3.75
187.875	-69.29
188.095	26.96
188.314	-5.8
188.534	76.12
188.753	41.3
188.973	43.35
189.192	18.77
189.412	49.49
189.631	29.01
189.851	-7.85
190.07	-30.38
190.29	-13.99
190.509	47.44
190.729	29.01
190.948	6.49
191.168	53.59
191.387	51.54
191.607	-26.28
191.826	-38.57
192.045	88.4
192.265	-46.76
192.484	33.11
192.704	20.82
192.923	-13.99
193.142	47.44
193.362	69.97
193.581	-42.67
193.8	-18.09
194.02	98.64
194.239	45.4
194.458	18.77
194.678	-59.05
194.897	80.21
195.116	22.87
195.335	59.73
195.555	65.88
195.774	2.39
195.993	53.59
196.212	57.68
196.432	53.59
196.651	-44.71
196.87	0.34
197.089	-9.9
197.308	22.87
197.528	63.83
197.747	-20.14
197.966	22.87
198.185	76.12
198.404	102.74
198.623	55.64
198.842	47.44
199.062	106.84
199.281	41.3
199.5	63.83
199.719	31.06
199.938	82.26
200.157	88.4
200.376	24.92
200.595	0.34
200.814	51.54
201.033	47.44
201.252	6.49
201.471	-7.85
201.69	53.59
201.909	121.17
202.128	53.59
202.347	110.93
202.566	92.5
202.785	6.49
203.004	43.35
203.223	90.45
203.442	65.88
203.661	22.87
203.879	2.39
204.098	43.35
204.317	47.44
204.536	51.54
204.755	67.92
204.974	20.82
205.193	41.3
205.411	90.45
205.63	-1.71
205.849	29.01
206.068	-5.8
206.287	49.49
206.505	-5.8
206.724	43.35
206.943	-5.8
207.162	24.92
207.381	67.92
207.599	35.16
207.818	16.73
208.037	59.73
208.255	-9.9
208.474	8.53
208.693	135.51
208.911	88.4
209.13	-40.62
209.349	63.83
209.567	127.32
209.786	80.21
210.005	29.01
210.223	10.58
210.442	67.92
210.661	33.11
210.879	80.21
211.098	35.16
211.316	-20.14
211.535	14.68
211.753	80.21
211.972	41.3
212.191	63.83
212.409	8.53
212.628	22.87
212.846	47.44
213.065	-7.85
213.283	102.74
213.502	90.45
213.72	6.49
213.938	-24.23
214.157	98.64
214.375	22.87
214.594	74.07
214.812	100.69
215.031	51.54
215.249	18.77
215.467	84.31
215.686	24.92
215.904	-9.9
216.122	63.83
216.341	6.49
216.559	-5.8
216.778	115.03
216.996	-5.8
217.214	6.49
217.432	47.44
217.651	14.68
217.869	8.53
218.087	90.45
218.306	39.25
218.524	20.82
218.742	-54.95
218.96	141.65
219.179	-32.43
219.397	39.25
219.615	39.25
219.833	24.92
220.051	22.87
220.27	65.88
220.488	67.92
220.706	57.68
220.924	35.16
221.142	39.25
221.36	53.59
221.578	-34.47
221.796	41.3
222.015	76.12
222.233	26.96
222.451	10.58
222.669	8.53
222.887	26.96
223.105	47.44
223.323	53.59
223.541	14.68
223.759	39.25
223.977	18.77
224.195	59.73
224.413	35.16
224.631	108.88
224.849	22.87
225.067	53.59
225.285	0.34
225.503	49.49
225.721	8.53
225.939	80.21
226.157	29.01
226.375	72.02
226.592	-5.8
226.81	47.44
227.028	53.59
227.246	26.96
227.464	76.12
227.682	88.4
227.9	57.68
228.117	33.11
228.335	39.25
228.553	39.25
228.771	59.73
228.989	65.88
229.206	22.87
229.424	108.88
229.642	51.54
229.86	67.92
230.077	92.5
230.295	-1.71
230.513	51.54
230.731	26.96
230.948	61.78
231.166	117.08
231.384	102.74
231.601	-40.62
231.819	0.34
232.037	43.35
232.254	-3.75
232.472	10.58
232.689	41.3
232.907	-13.99
233.125	16.73
233.342	31.06
233.56	-48.81
233.777	72.02
233.995	69.97
234.213	80.21
234.43	-24.23
234.648	80.21
234.865	4.44
235.083	110.93
235.3	6.49
235.518	37.2
235.735	39.25
235.953	96.6
236.17	69.97
236.388	-40.62
236.605	18.77
236.822	153.94
237.04	-26.28
237.257	31.06
237.475	-22.19
237.692	-16.04
237.909	31.06
238.127	4.44
238.344	37.2
238.562	-9.9
238.779	-5.8
238.996	78.16
239.214	133.46
239.431	41.3
239.648	80.21
239.865	4.44
240.083	84.31
240.3	96.6
240.517	47.44
240.735	0.34
240.952	33.11
241.169	121.17
241.386	18.77
241.603	63.83
241.821	96.6
242.038	53.59
242.255	37.2
242.472	10.58
242.689	47.44
242.907	96.6
243.124	55.64
243.341	51.54
243.558	43.35
243.775	39.25
243.992	55.64
244.209	63.83
244.426	88.4
244.643	-16.04
244.86	88.4
245.078	55.64
245.295	112.98
245.512	39.25
245.729	29.01
245.946	51.54
246.163	100.69
246.38	65.88
246.597	33.11
246.814	26.96
247.031	49.49
247.248	43.35
247.464	63.83
247.681	59.73
247.898	94.55
248.115	39.25
248.332	-34.47
248.549	31.06
248.766	76.12
248.983	16.73
249.2	12.63
249.417	119.12
249.633	-9.9
249.85	33.11
250.067	88.4
250.284	108.88
250.501	53.59
250.717	8.53
250.934	84.31
251.151	2.39
251.368	37.2
251.585	-46.76
251.801	78.16
252.018	51.54
252.235	43.35
252.451	51.54
252.668	53.59
252.885	59.73
253.102	84.31
253.318	-30.38
253.535	-7.85
253.752	-7.85
253.968	35.16
254.185	39.25
254.401	53.59
254.618	26.96
254.835	6.49
255.051	63.83
255.268	-1.71
255.484	78.16
255.701	26.96
255.917	35.16
256.134	65.88
256.351	-36.52
256.567	59.73
256.784	18.77
257	72.02
257.217	37.2
257.433	88.4
257.65	31.06
257.866	82.26
258.082	31.06
258.299	18.77
258.515	102.74
258.732	86.36
258.948	-20.14
259.165	-20.14
259.381	20.82
259.597	47.44
259.814	39.25
260.03	63.83
260.246	31.06
260.463	33.11
260.679	49.49
260.895	72.02
261.112	67.92
261.328	12.63
261.544	8.53
261.761	65.88
261.977	55.64
262.193	22.87
262.409	-97.96
262.626	47.44
262.842	49.49
263.058	82.26
263.274	8.53
263.49	35.16
263.707	90.45
263.923	65.88
264.139	49.49
264.355	26.96
264.571	115.03
264.787	90.45
265.004	22.87
265.22	-13.99
265.436	88.4
265.652	18.77
265.868	26.96
266.084	108.88
266.3	96.6
266.516	0.34
266.732	98.64
266.948	2.39
267.164	76.12
267.38	57.68
267.596	47.44
267.812	59.73
268.028	49.49
268.244	18.77
268.46	18.77
268.676	6.49
268.892	41.3
269.108	8.53
269.324	-26.28
269.54	63.83
269.756	57.68
269.972	49.49
270.188	72.02
270.403	74.07
270.619	24.92
270.835	125.27
271.051	-42.67
271.267	41.3
271.483	49.49
271.698	33.11
271.914	35.16
272.13	72.02
272.346	88.4
272.562	26.96
272.777	72.02
272.993	112.98
273.209	49.49
273.425	-9.9
273.64	65.88
273.856	67.92
274.072	59.73
274.287	2.39
274.503	69.97
274.719	35.16
274.934	4.44
275.15	-26.28
275.366	8.53
275.581	43.35
275.797	102.74
276.012	-13.99
276.228	49.49
276.444	-5.8
276.659	74.07
276.875	4.44
277.09	-3.75
277.306	4.44
277.521	-9.9
277.737	4.44
277.952	-9.9
278.168	59.73
278.383	78.16
278.599	-1.71
278.814	47.44
279.03	-9.9
279.245	0.34
279.461	51.54
279.676	59.73
279.892	8.53
280.107	35.16
280.322	88.4
280.538	65.88
280.753	-20.14
280.969	-5.8
281.184	82.26
281.399	98.64
281.615	2.39
281.83	82.26
282.045	37.2
282.26	88.4
282.476	-3.75
282.691	6.49
282.906	-7.85
283.122	-18.09
283.337	12.63
283.552	80.21
283.767	41.3
283.983	24.92
284.198	-7.85
284.413	57.68
284.628	29.01
284.843	55.64
285.058	-1.71
285.274	18.77
285.489	59.73
285.704	0.34
285.919	-20.14
286.134	100.69
286.349	-48.81
286.564	100.69
286.779	49.49
286.995	72.02
287.21	31.06
287.425	-24.23
287.64	43.35
287.855	12.63
288.07	4.44
288.285	94.55
288.5	22.87
288.715	26.96
288.93	61.78
289.145	53.59
289.36	26.96
289.575	24.92
289.79	12.63
290.004	51.54
290.219	22.87
290.434	86.36
290.649	57.68
290.864	29.01
291.079	39.25
291.294	100.69
291.509	65.88
291.724	-16.04
291.938	55.64
292.153	74.07
292.368	-24.23
292.583	37.2
292.798	61.78
293.012	98.64
293.227	6.49
293.442	37.2
293.657	104.79
293.871	78.16
294.086	94.55
294.301	18.77
294.516	57.68
294.73	20.82
294.945	47.44
295.16	-7.85
295.374	57.68
295.589	-26.28
295.804	6.49
296.018	47.44
296.233	104.79
296.447	39.25
296.662	-11.95
296.877	92.5
297.091	43.35
297.306	63.83
297.52	-67.24
297.735	92.5
297.949	49.49
298.164	26.96
298.378	55.64
298.593	61.78
298.807	-11.95
299.022	6.49
299.236	41.3
299.451	18.77
299.665	47.44
299.88	18.77
300.094	72.02
300.309	90.45
300.523	16.73
300.737	35.16
300.952	2.39
301.166	63.83
301.381	14.68
301.595	49.49
301.809	65.88
302.024	80.21
302.238	41.3
302.452	29.01
302.667	31.06
302.881	12.63
303.095	51.54
303.309	108.88
303.524	6.49
303.738	16.73
303.952	22.87
304.166	-9.9
304.381	20.82
304.595	20.82
304.809	82.26
305.023	47.44
305.237	41.3
305.452	76.12
305.666	18.77
305.88	72.02
306.094	76.12
306.308	112.98
306.522	110.93
306.736	65.88
306.95	57.68
307.164	-13.99
307.379	35.16
307.593	26.96
307.807	-24.23
308.021	33.11
308.235	63.83
308.449	24.92
308.663	123.22
308.877	6.49
309.091	22.87
309.305	16.73
309.519	35.16
309.733	72.02
309.947	12.63
310.161	82.26
310.374	45.4
310.588	6.49
310.802	26.96
311.016	49.49
311.23	22.87
311.444	14.68
311.658	127.32
311.872	86.36
312.085	12.63
312.299	16.73
312.513	51.54
312.727	8.53
312.941	-20.14
313.154	43.35
313.368	49.49
313.582	84.31
313.796	63.83
314.009	29.01
314.223	-11.95
314.437	51.54
314.651	8.53
314.864	24.92
315.078	47.44
315.292	41.3
315.505	31.06
315.719	-18.09
315.933	57.68
316.146	31.06
316.36	80.21
316.573	106.84
316.787	41.3
317.001	110.93
317.214	-3.75
317.428	86.36
317.641	-11.95
317.855	39.25
318.068	-22.19
318.282	55.64
318.495	8.53
318.709	26.96
318.922	72.02
319.136	98.64
319.349	92.5
319.563	33.11
319.776	76.12
319.99	-34.47
320.203	90.45
320.417	59.73
320.63	55.64
320.843	135.51
321.057	112.98
321.27	88.4
321.483	-3.75
321.697	43.35
321.91	59.73
322.124	26.96
322.337	35.16
322.55	76.12
322.763	82.26
322.977	31.06
323.19	-5.8
323.403	86.36
323.617	80.21
323.83	14.68
324.043	6.49
324.256	74.07
324.469	31.06
324.683	90.45
324.896	22.87
325.109	72.02
325.322	86.36
325.535	80.21
325.748	16.73
325.962	43.35
326.175	29.01
326.388	39.25
326.601	53.59
326.814	37.2
327.027	137.56
327.24	55.64
327.453	29.01
327.666	72.02
327.879	115.03
328.092	96.6
328.305	65.88
328.518	88.4
328.731	78.16
328.944	139.6
329.157	47.44
329.37	139.6
329.583	106.84
329.796	88.4
330.009	-40.62
330.222	14.68
330.435	22.87
330.648	-30.38
330.861	92.5
331.073	-18.09
331.286	94.55
331.499	16.73
331.712	35.16
331.925	100.69
332.138	0.34
332.35	8.53
332.563	0.34
332.776	-13.99
332.989	78.16
333.202	51.54
333.414	86.36
333.627	72.02
333.84	39.25
334.053	96.6
334.265	67.92
334.478	6.49
334.691	104.79
334.903	51.54
335.116	-20.14
335.329	43.35
335.541	-1.71
335.754	57.68
335.966	12.63
336.179	49.49
336.392	55.64
336.604	98.64
336.817	94.55
337.029	26.96
337.242	57.68
337.454	127.32
337.667	39.25
337.88	74.07
338.092	59.73
338.305	-24.23
338.517	-44.71
338.729	14.68
338.942	18.77
339.154	35.16
339.367	47.44
339.579	69.97
339.792	55.64
340.004	29.01
340.217	-7.85
340.429	14.68
340.641	49.49
340.854	31.06
341.066	-34.47
341.278	84.31
341.491	57.68
341.703	59.73
341.915	-18.09
342.128	57.68
342.34	31.06
342.552	51.54
342.764	16.73
342.977	102.74
343.189	108.88
343.401	-11.95
343.613	12.63
343.826	92.5
344.038	-5.8
344.25	88.4
344.462	29.01
344.674	-32.43
344.886	49.49
345.099	29.01
345.311	24.92
345.523	6.49
345.735	0.34
345.947	33.11
346.159	0.34
346.371	98.64
346.583	-1.71
346.795	84.31
347.007	20.82
347.219	43.35
347.431	31.06
347.643	47.44
347.855	61.78
348.067	76.12
348.279	4.44
348.491	31.06
348.703	24.92
348.915	63.83
349.127	-40.62
349.339	43.35
349.551	35.16
349.763	37.2
349.975	-3.75
350.187	80.21
350.399	-26.28
350.61	31.06
350.822	-1.71
351.034	2.39
351.246	43.35
351.458	-38.57
351.669	6.49
351.881	55.64
352.093	63.83
352.305	125.27
352.517	59.73
352.728	84.31
352.94	61.78
353.152	88.4
353.363	117.08
353.575	6.49
353.787	84.31
353.999	57.68
354.21	80.21
354.422	31.06
354.633	47.44
354.845	67.92
355.057	49.49
355.268	45.4
355.48	-30.38
355.692	-36.52
355.903	20.82
356.115	72.02
356.326	-24.23
356.538	31.06
356.749	98.64
356.961	125.27
357.172	-1.71
357.384	26.96
357.595	53.59
357.807	31.06
358.018	8.53
358.23	106.84
358.441	80.21
358.653	49.49
358.864	35.16
359.075	72.02
359.287	72.02
359.498	0.34
359.709	31.06
359.921	49.49
360.132	74.07
360.344	96.6
360.555	72.02
360.766	20.82
360.977	39.25
361.189	88.4
361.4	-1.71
361.611	69.97
361.823	45.4
362.034	63.83
362.245	41.3
362.456	96.6
362.667	63.83
362.879	16.73
363.09	47.44
363.301	6.49
363.512	35.16
363.723	41.3
363.935	26.96
364.146	43.35
364.357	-9.9
364.568	47.44
364.779	35.16
364.99	65.88
365.201	59.73
365.412	88.4
365.623	24.92
365.834	92.5
366.045	78.16
366.256	74.07
366.467	67.92
366.678	88.4
366.889	55.64
367.1	57.68
367.311	14.68
367.522	8.53
367.733	-9.9
367.944	94.55
368.155	61.78
368.366	-16.04
368.577	-9.9
368.788	74.07
368.999	20.82
369.209	55.64
369.42	78.16
369.631	47.44
369.842	96.6
370.053	55.64
370.264	74.07
370.474	49.49
370.685	49.49
370.896	35.16
371.107	43.35
371.317	-13.99
371.528	24.92
371.739	80.21
371.95	53.59
372.16	84.31
372.371	20.82
372.582	47.44
372.792	20.82
373.003	69.97
373.214	108.88
373.424	-1.71
373.635	-24.23
373.846	121.17
374.056	47.44
374.267	78.16
374.477	10.58
374.688	49.49
374.898	63.83
375.109	84.31
375.319	98.64
375.53	57.68
375.74	0.34
375.951	67.92
376.161	49.49
376.372	33.11
376.582	12.63
376.793	16.73
377.003	18.77
377.214	59.73
377.424	29.01
377.635	55.64
377.845	41.3
378.055	51.54
378.266	4.44
378.476	94.55
378.686	-52.91
378.897	33.11
379.107	147.8
379.317	96.6
379.528	61.78
379.738	31.06
379.948	108.88
380.158	6.49
380.369	39.25
380.579	74.07
380.789	92.5
380.999	45.4
381.21	6.49
381.42	33.11
381.63	22.87
381.84	14.68
382.05	84.31
382.261	65.88
382.471	22.87
382.681	82.26
382.891	47.44
383.101	135.51
383.311	61.78
383.521	53.59
383.731	2.39
383.941	90.45
384.151	59.73
384.361	86.36
384.571	86.36
384.781	67.92
384.991	59.73
385.201	26.96
385.411	29.01
385.621	26.96
385.831	-34.47
386.041	22.87
386.251	65.88
386.461	86.36
386.671	47.44
386.881	82.26
387.091	35.16
387.301	59.73
387.511	-44.71
387.72	-13.99
387.93	43.35
388.14	-7.85
388.35	12.63
388.56	57.68
388.769	127.32
388.979	2.39
389.189	-3.75
389.399	16.73
389.609	61.78
389.818	67.92
390.028	80.21
390.238	82.26
390.447	24.92
390.657	78.16
390.867	33.11
391.076	6.49
391.286	100.69
391.496	26.96
391.705	65.88
391.915	51.54
392.125	65.88
392.334	63.83
392.544	90.45
392.753	104.79
392.963	88.4
393.172	26.96
393.382	31.06
393.591	72.02
393.801	-11.95
394.01	41.3
394.22	76.12
394.429	59.73
394.639	55.64
394.848	69.97
395.058	31.06
395.267	96.6
395.477	121.17
395.686	90.45
395.895	2.39
396.105	63.83
396.314	-30.38
396.524	51.54
396.733	59.73
396.942	72.02
397.152	61.78
397.361	123.22
397.57	80.21
397.78	55.64
397.989	33.11
398.198	47.44
398.407	82.26
398.617	104.79
398.826	112.98
399.035	115.03
399.244	57.68
399.453	39.25
399.663	65.88
399.872	39.25
400.081	65.88
400.29	90.45
400.499	24.92
400.708	35.16
400.917	20.82
401.127	51.54
401.336	14.68
401.545	129.36
401.754	180.56
401.963	39.25
402.172	121.17
402.381	43.35
402.59	94.55
402.799	10.58
403.008	76.12
403.217	84.31
403.426	55.64
403.635	-5.8
403.844	26.96
404.053	14.68
404.262	123.22
404.471	123.22
404.68	102.74
404.888	82.26
405.097	100.69
405.306	90.45
405.515	92.5
405.724	92.5
405.933	39.25
406.142	74.07
406.35	102.74
406.559	143.7
406.768	108.88
406.977	84.31
407.185	102.74
407.394	112.98
407.603	90.45
407.812	112.98
408.02	121.17
408.229	160.08
408.438	92.5
408.646	49.49
408.855	96.6
409.064	86.36
409.272	53.59
409.481	174.42
409.69	129.36
409.898	201.04
410.107	141.65
410.315	186.71
410.524	164.18
410.733	121.17
410.941	201.04
411.15	207.19
411.358	168.27
411.567	215.38
411.775	125.27
411.984	143.7
412.192	248.15
412.401	219.47
412.609	242
412.818	207.19
413.026	260.43
413.234	287.06
413.443	325.97
413.651	264.53
413.86	207.19
414.068	237.91
414.276	235.86
414.485	270.67
414.693	282.96
414.901	323.92
415.11	305.49
415.318	325.97
415.526	293.2
415.734	309.58
415.943	336.21
416.151	352.59
416.359	360.78
416.567	409.94
416.776	358.74
416.984	342.35
417.192	375.12
417.4	393.55
417.608	401.74
417.817	377.17
418.025	465.23
418.233	446.8
418.441	473.42
418.649	424.27
418.857	448.85
419.065	579.92
419.273	487.76
419.481	579.92
419.689	530.77
419.897	612.68
420.105	631.12
420.313	590.16
420.521	639.31
420.729	725.32
420.937	665.93
421.145	713.03
421.353	770.38
421.561	729.42
421.769	813.38
421.977	842.06
422.185	885.06
422.393	817.48
422.601	850.25
422.809	835.91
423.017	891.21
423.224	911.69
423.432	870.73
423.64	952.65
423.848	1077.57
424.056	917.83
424.263	1141.06
424.471	1104.2
424.679	1159.49
424.887	1063.24
425.094	1196.36
425.302	1177.92
425.51	1274.18
425.718	1206.59
425.925	1284.42
426.133	1325.38
426.341	1534.27
426.548	1478.97
426.756	1487.17
426.964	1577.28
427.171	1632.57
427.379	1661.24
427.586	1794.36
427.794	1620.28
428.001	1734.97
428.209	1931.58
428.417	1759.55
428.624	1984.82
428.832	1993.01
429.039	2023.73
429.247	1986.87
429.454	2042.17
429.662	2185.52
429.869	2142.52
430.076	2283.83
430.284	2277.68
430.491	2277.68
430.699	2515.25
430.906	2414.9
431.114	2558.25
431.321	2613.55
431.528	2572.59
431.736	2787.63
431.943	2857.26
432.15	2830.63
432.358	2732.33
432.565	2959.66
432.772	2996.52
432.979	3039.53
433.187	3193.12
433.394	3195.17
433.601	3459.36
433.808	3483.94
434.016	3512.61
434.223	3531.04
434.43	3848.47
434.637	3627.29
434.844	4065.56
435.052	4024.6
435.259	3928.35
435.466	4008.22
435.673	3879.19
435.88	4348.18
436.087	4278.55
436.294	4315.41
436.501	4299.03
436.708	4344.08
436.915	4735.25
437.122	4761.87
437.329	4692.24
437.537	4966.67
437.743	4948.23
437.95	4968.71
438.157	5318.92
438.364	5241.09
438.571	5275.91
438.778	5402.88
438.985	5986.55
439.192	5650.69
439.399	5925.11
439.606	5679.36
439.813	5904.64
440.02	6379.76
440.227	6283.51
440.433	6072.57
440.64	6387.96
440.847	6326.52
441.054	6439.16
441.261	6959.34
441.467	6887.66
441.674	7004.39
441.881	7258.34
442.088	7268.58
442.294	7319.78
442.501	7307.49
442.708	7549.15
442.914	7889.12
443.121	8095.96
443.328	7837.92
443.534	8442.07
443.741	8345.81
443.948	8046.81
444.154	8579.28
444.361	8648.91
444.568	8773.84
444.774	8730.83
444.981	8757.46
445.187	8923.34
445.394	9410.76
445.6	9115.85
445.807	10229.95
446.013	9699.52
446.22	9812.16
446.426	10168.51
446.633	10551.48
446.839	10948.78
447.046	10139.83
447.252	10772.66
447.459	10827.95
447.665	11030.7
447.871	11341.99
448.078	11679.91
448.284	11131.05
448.491	11641
448.697	12075.17
448.903	12109.98
449.11	12349.59
449.316	12146.84
449.522	12312.73
449.728	12386.46
449.935	12679.32
450.141	12773.52
450.347	12914.83
450.553	12427.42
450.76	12693.65
450.966	13138.06
451.172	13019.28
451.378	13211.79
451.584	12877.97
451.791	13236.36
451.997	13326.47
452.203	13516.94
452.409	13334.67
452.615	13359.24
452.821	12941.46
453.027	12789.91
453.233	13166.73
453.44	12869.78
453.646	12861.59
453.852	12955.79
454.058	13187.21
454.264	12785.81
454.47	13195.4
454.676	12806.29
454.882	13125.77
455.088	12114.08
455.294	12159.13
455.5	12560.53
455.705	12564.63
455.911	12077.21
456.117	11692.19
456.323	11454.63
456.529	10786.99
456.735	11559.08
456.941	11356.33
457.147	11024.56
457.352	10467.51
457.558	10512.56
457.764	10412.21
457.97	10229.95
458.176	10188.99
458.381	10186.94
458.587	9666.75
458.793	9656.51
458.999	8964.3
459.204	9707.71
459.41	9564.36
459.616	8997.07
459.821	9029.84
460.027	9021.64
460.233	8644.82
460.438	8231.13
460.644	8265.94
460.85	8071.39
461.055	7903.45
461.261	7710.94
461.466	7387.36
461.672	7141.61
461.878	7635.17
462.083	7071.98
462.289	6932.72
462.494	6883.56
462.7	6512.88
462.905	6379.76
463.111	6488.31
463.316	6521.07
463.522	6539.51
463.727	6660.34
463.932	6695.15
464.138	6494.45
464.343	6379.76
464.549	6314.23
464.754	6512.88
464.959	6361.33
465.165	6297.85
465.37	6191.35
465.575	5957.88
465.781	6236.41
465.986	6392.05
466.191	6004.99
466.397	5785.85
466.602	5673.21
466.807	5736.7
467.012	5951.74
467.218	5867.77
467.423	5716.22
467.628	5716.22
467.833	6035.71
468.038	5644.54
468.244	5636.35
468.449	5839.1
468.654	5845.24
468.859	5650.69
469.064	5773.57
469.269	5351.68
469.474	5589.25
469.679	5478.66
469.885	5302.53
470.09	5531.9
470.295	5298.44
470.5	5347.59
470.705	5398.79
470.91	5177.61
471.115	5263.62
471.32	5284.1
471.525	5269.76
471.73	5218.57
471.935	4978.95
472.139	4929.8
472.344	4995.34
472.549	4919.56
472.754	4798.73
472.959	4815.12
473.164	4464.91
473.369	4712.72
473.574	4735.25
473.778	4741.39
473.983	4741.39
474.188	4608.27
474.393	4512.02
474.598	4440.34
474.802	4438.29
475.007	4348.18
475.212	4458.77
475.417	4258.07
475.621	4260.12
475.826	4331.8
476.031	4161.81
476.235	4028.7
476.44	4210.97
476.645	4043.03
476.849	4106.52
477.054	4020.5
477.259	3957.02
477.463	4004.12
477.668	3909.91
477.872	3973.4
478.077	3774.75
478.282	3741.98
478.486	3803.42
478.691	3651.87
478.895	3752.22
479.1	3653.92
479.304	3768.6
479.509	3498.27
479.713	3717.4
479.918	3539.23
480.122	3463.46
480.326	3506.46
480.531	3660.06
480.735	3533.09
480.94	3553.57
481.144	3559.71
481.348	3451.17
481.553	3442.98
481.757	3463.46
481.961	3465.5
482.166	3375.39
482.37	3459.36
482.574	3418.4
482.778	3406.11
482.983	3557.66
483.187	3389.73
483.391	3479.84
483.595	3369.25
483.8	3442.98
484.004	3473.7
484.208	3459.36
484.412	3406.11
484.616	3402.02
484.821	3469.6
485.025	3397.92
485.229	3408.16
485.433	3512.61
485.637	3512.61
485.841	3412.26
486.045	3535.14
486.249	3354.91
486.453	3381.54
486.657	3440.93
486.861	3406.11
487.065	3367.2
487.269	3416.35
487.473	3385.63
487.677	3354.91
487.881	3485.98
488.085	3291.43
488.289	3490.08
488.493	3447.07
488.697	3481.89
488.901	3420.45
489.105	3549.47
489.309	3453.22
489.512	3524.9
489.716	3602.72
489.92	3422.5
490.124	3461.41
490.328	3623.2
490.531	3533.09
490.735	3547.42
490.939	3492.13
491.143	3520.8
491.346	3416.35
491.55	3615.01
491.754	3666.21
491.958	3705.12
492.161	3526.94
492.365	3723.55
492.569	3578.14
492.772	3625.25
492.976	3563.81
493.18	3668.25
493.383	3731.74
493.587	3780.89
493.79	3866.91
493.994	3698.97
494.197	3893.53
494.401	3821.85
494.605	3942.68
494.808	3924.25
495.012	3914.01
495.215	4036.89
495.419	4110.61
495.622	3973.4
495.825	4127
496.029	3854.62
496.232	4051.22
496.436	4043.03
496.639	4262.16
496.843	4127
497.046	4243.73
497.249	4446.48
497.453	4413.71
497.656	4307.22
497.859	4286.74
498.063	4434.19
498.266	4507.92
498.469	4651.28
498.673	4538.64
498.876	4561.17
499.079	4751.63
499.282	4749.58
499.485	4827.4
499.689	4882.7
499.892	4999.43
500.095	5030.15
500.298	5075.21
500.501	4905.23
500.705	5134.6
500.908	5230.85
501.111	5370.12
501.314	5120.26
501.517	5306.63
501.72	5486.85
501.923	5472.51
502.126	5595.39
502.329	5726.46
502.532	5736.7
502.735	5687.55
502.938	5878.01
503.141	5923.07
503.344	6011.13
503.547	6050.04
503.75	6127.86
503.953	6246.65
504.156	6242.55
504.359	6242.55
504.562	6308.09
504.765	6486.26
504.968	6525.17
505.17	6684.91
505.373	6697.2
505.576	6697.2
505.779	6846.7
505.982	6916.33
506.185	7084.27
506.387	7084.27
506.59	7370.98
506.793	7321.83
506.996	7297.25
507.198	7639.26
507.401	7479.52
507.604	7545.06
507.807	7856.35
508.009	7688.42
508.212	7784.67
508.415	7979.23
508.617	8192.22
508.82	8169.69
509.022	8001.76
509.225	8448.21
509.428	8489.17
509.63	8368.34
509.833	8677.58
510.035	8861.9
510.238	8767.7
510.44	9021.64
510.643	9105.61
510.845	9142.47
511.048	9165
511.25	9339.08
511.453	9490.63
511.655	9912.51
511.858	9609.41
512.06	9941.18
512.262	10080.44
512.465	9765.06
512.667	10281.14
512.87	10158.27
513.072	10311.86
513.274	10647.73
513.477	10672.31
513.679	10688.69
513.881	10877.1
514.084	11026.61
514.286	11106.48
514.488	11210.92
514.69	11485.35
514.893	11425.96
515.095	11593.89
515.297	11708.58
515.499	11671.72
515.701	12013.73
515.904	12079.26
516.106	12282.01
516.308	12370.07
516.51	12642.45
516.712	12660.88
516.914	12734.61
517.116	12974.22
517.318	12794
517.52	13146.25
517.722	13326.47
517.925	13648.01
518.127	13664.39
518.329	13912.19
518.531	13695.11
518.733	13967.49
518.935	14393.47
519.136	14178.43
519.338	14510.2
519.54	14440.57
519.742	14551.16
519.944	14862.45
520.146	15165.55
520.348	15327.34
520.55	15368.3
520.752	15290.48
520.954	15861.86
521.155	15411.31
521.357	16060.51
521.559	16027.74
521.761	16332.89
521.963	16330.84
522.164	16423
522.366	16779.35
522.568	16848.98
522.77	16799.83
522.971	17227.85
523.173	17057.87
523.375	17326.16
523.576	17277.01
523.778	17281.1
523.98	17674.31
524.181	17733.7
524.383	17758.28
524.584	18034.75
524.786	18184.26
524.988	18061.38
525.189	18311.23
525.391	18051.14
525.592	18456.64
525.794	18638.9
525.995	18628.67
526.197	18749.5
526.398	18872.37
526.6	18905.14
526.801	18780.21
527.003	19099.7
527.204	19167.28
527.406	19392.56
527.607	19312.69
527.808	19650.6
528.01	19181.62
528.211	19753
528.412	19793.96
528.614	20062.24
528.815	19779.62
529.016	20033.57
529.218	20025.38
529.419	20009
529.62	20080.67
529.822	20078.63
530.023	20107.3
530.224	20316.19
530.425	20238.37
530.626	20146.21
530.828	19963.94
531.029	20408.35
531.23	20391.97
531.431	20334.62
531.632	20678.68
531.833	20785.18
532.035	20594.72
532.236	20940.82
532.437	21035.03
532.638	20690.97
532.839	20631.58
533.04	20740.12
533.241	20549.66
533.442	20748.31
533.643	20944.92
533.844	20758.55
534.045	20979.73
534.246	20643.87
534.447	20930.58
534.648	20834.33
534.849	20920.34
535.05	21157.91
535.251	20961.3
535.451	21094.42
535.652	21022.74
535.853	20850.71
536.054	21284.88
536.255	21327.89
536.456	21141.52
536.657	21344.27
536.857	21100.56
537.058	20852.76
537.259	20967.45
537.46	21223.44
537.66	20758.55
537.861	21094.42
538.062	20885.53
538.263	21311.5
538.463	21164.05
538.664	21266.45
538.865	20967.45
539.065	21311.5
539.266	20944.92
539.466	21059.6
539.667	21168.15
539.868	21407.76
540.068	21227.54
540.269	21131.28
540.469	21270.54
540.67	20985.88
540.87	21256.21
541.071	20865.05
541.271	21440.53
541.472	21209.11
541.672	21010.45
541.873	21090.32
542.073	20830.23
542.274	21116.95
542.474	21131.28
542.675	21018.64
542.875	21432.33
543.075	21284.88
543.276	20766.74
543.476	21078.04
543.676	20961.3
543.877	21356.56
544.077	20916.25
544.277	21026.84
544.478	21211.15
544.678	21162
544.878	21125.14
545.078	21086.23
545.279	21002.26
545.479	20901.91
545.679	21059.6
545.879	21004.31
546.079	21073.94
546.28	21176.34
546.48	20885.53
546.68	20836.38
546.88	21211.15
547.08	21348.37
547.28	20920.34
547.48	21106.71
547.68	21225.49
547.88	20819.99
548.081	21071.89
548.281	20965.4
548.481	20998.16
548.681	21461.01
548.881	20809.75
549.081	21024.79
549.28	21075.99
549.48	21321.74
549.68	20883.48
549.88	21346.32
550.08	21123.09
550.28	21104.66
550.48	20865.05
550.68	21123.09
550.88	21045.27
551.08	20893.72
551.279	21016.6
551.479	21016.6
551.679	21092.37
551.879	20932.63
552.079	21313.55
552.278	20971.54
552.478	20903.96
552.678	20889.62
552.878	21100.56
553.077	21239.83
553.277	20662.3
553.477	21190.67
553.676	21061.65
553.876	21065.75
554.076	20684.83
554.275	20789.27
554.475	20944.92
554.674	20924.44
554.874	21086.23
555.074	20617.24
555.273	20912.15
555.473	20983.83
555.672	20783.13
555.872	20678.68
556.071	20508.7
556.271	20955.16
556.47	20488.22
556.67	20578.33
556.869	20738.07
557.068	20918.29
557.268	20660.25
557.467	20539.42
557.667	20525.08
557.866	20305.95
558.065	20559.9
558.265	20379.68
558.464	20359.2
558.663	20592.67
558.863	20308
559.062	20346.91
559.261	20320.29
559.461	20559.9
559.66	20076.58
559.859	20256.8
560.058	19982.37
560.258	20207.65
560.457	20041.76
560.656	19998.76
560.855	19810.34
561.054	20080.67
561.253	19863.59
561.453	19906.6
561.652	19943.46
561.851	19720.23
562.05	20154.4
562.249	20037.67
562.448	19638.31
562.647	19765.29
562.846	19628.07
563.045	19865.64
563.244	19816.49
563.443	19535.92
563.642	19193.9
563.841	19513.39
564.04	19363.89
564.239	19722.28
564.438	19419.18
564.637	19497
564.836	19458.09
565.035	19175.47
565.234	19241.01
565.432	19085.36
565.631	19312.69
565.83	19349.55
566.029	18911.28
566.228	19202.1
566.427	18958.39
566.625	18444.35
566.824	18892.85
567.023	19005.49
567.222	18565.18
567.42	18884.66
567.619	18892.85
567.818	18495.55
568.016	18528.31
568.215	18630.71
568.414	18438.2
568.612	18714.68
568.811	18313.28
569.01	18450.49
569.208	18206.78
569.407	18059.33
569.605	18137.15
569.804	18421.82
570.002	18092.1
570.201	18028.61
570.4	17979.46
570.598	17909.83
570.797	18073.67
570.995	17975.36
571.193	17612.87
571.392	17854.53
571.59	17414.22
571.789	17662.02
571.987	17694.79
572.186	17586.25
572.384	17465.42
572.582	17582.15
572.781	17477.71
572.979	17139.79
573.177	17496.14
573.376	17549.39
573.574	17125.46
573.772	17174.61
573.971	16953.43
574.169	16982.1
574.367	16760.92
574.565	16859.22
574.763	16939.09
574.962	16695.38
575.16	16914.52
575.358	16691.29
575.556	16470.11
575.754	16853.08
575.952	16324.7
576.151	16726.1
576.349	16431.19
576.547	16373.85
576.745	16246.88
576.943	16351.32
577.141	16253.02
577.339	16244.83
577.537	16011.36
577.735	16128.1
577.933	15921.25
578.131	16019.55
578.329	15949.92
578.527	15777.89
578.725	15951.97
578.923	15788.13
579.121	15605.86
579.319	15734.89
579.516	15874.15
579.714	15659.11
579.912	15417.45
580.11	15601.77
580.308	15435.88
580.506	15421.55
580.704	15423.59
580.901	15212.65
581.099	15325.29
581.297	15030.38
581.495	15040.62
581.692	15018.1
581.89	15138.93
582.088	15192.17
582.285	14989.42
582.483	14975.09
582.681	14792.82
582.878	14983.28
583.076	14557.3
583.274	14762.1
583.471	14567.54
583.669	14782.58
583.866	14512.25
584.064	14698.61
584.262	14264.44
584.459	14811.25
584.657	14338.17
584.854	14504.06
585.052	14149.76
585.249	14297.21
585.447	14420.09
585.644	13873.28
585.841	14381.18
586.039	14233.72
586.236	14145.66
586.434	13899.91
586.631	13824.13
586.828	14100.61
587.026	13965.44
587.223	14026.88
587.42	13832.32
587.618	13901.95
587.815	13719.68
588.012	13545.61
588.21	13688.96
588.407	13619.33
588.604	13621.38
588.801	13340.81
588.999	13492.36
589.196	13629.57
589.393	13314.19
589.59	13392.01
589.787	13193.36
589.984	13271.18
590.182	13371.53
590.379	13432.97
590.576	13125.77
590.773	13379.72
590.97	12974.22
591.167	13250.7
591.364	12912.78
591.561	12908.69
591.758	12898.45
591.955	12851.35
592.152	12980.37
592.349	12791.95
592.546	12759.19
592.743	12949.65
592.94	12761.23
593.137	12687.51
593.334	12601.49
593.531	12382.36
593.727	12701.84
593.924	12576.92
594.121	12368.02
594.318	12402.84
594.515	12429.46
594.712	12497.05
594.908	12404.89
595.105	12615.83
595.302	12267.67
595.499	12163.23
595.696	12095.64
595.892	12228.76
596.089	12167.32
596.286	12163.23
596.482	12021.92
596.679	12144.8
596.876	12120.22
597.072	11923.62
597.269	12097.69
597.466	12042.4
597.662	12050.59
597.859	11866.27
598.055	12001.44
598.252	11825.31
598.448	11823.26
598.645	11597.99
598.841	11583.65
599.038	11741.35
599.234	11737.25
599.431	11446.44
599.627	11423.91
599.824	11317.42
600.02	11368.62
600.217	11339.94
600.413	11505.83
600.609	11270.31
600.806	11419.82
601.002	11151.53
601.198	11229.35
601.395	11163.82
601.591	10965.17
601.787	11124.91
601.984	11071.66
602.18	11184.3
602.376	10944.69
602.572	10830
602.769	10852.53
602.965	10846.38
603.161	10905.77
603.357	10741.94
603.553	10848.43
603.75	10739.89
603.946	10756.27
604.142	10633.4
604.338	10563.76
604.534	10631.35
604.73	10612.92
604.926	10377.4
605.122	10678.45
605.318	10485.94
605.514	10373.3
605.71	10307.77
605.906	10371.26
606.102	10275
606.298	10348.73
606.494	10170.55
606.69	10406.07
606.886	9965.76
607.082	10231.99
607.278	10133.69
607.474	9967.81
607.67	10203.32
607.866	10049.72
608.062	10070.2
608.257	9947.33
608.453	9916.61
608.649	10008.76
608.845	9836.74
609.041	9892.03
609.236	9885.89
609.432	9773.25
609.628	9703.62
609.824	9711.81
610.019	9656.51
610.215	9547.97
610.411	9787.58
610.606	9601.22
610.802	9574.6
610.998	9597.12
611.193	9701.57
611.389	9482.44
611.584	9312.46
611.78	9472.2
611.976	9394.37
612.171	9371.85
612.367	9418.95
612.562	9412.81
612.758	9150.67
612.953	9189.58
613.149	9375.94
613.344	9107.66
613.539	9287.88
613.735	9222.34
613.93	9308.36
614.126	9167.05
614.321	9242.82
614.517	9228.49
614.712	9076.94
614.907	9115.85
615.103	9173.19
615.298	8984.78
615.493	8880.33
615.688	8890.57
615.884	9136.33
616.079	8747.22
616.274	8853.71
616.47	8911.05
616.665	9017.55
616.86	8798.42
617.055	8929.49
617.25	8767.7
617.445	8671.44
617.641	8612.05
617.836	8661.2
618.031	8532.18
618.226	8521.94
618.421	8540.37
618.616	8792.27
618.811	8460.5
619.006	8521.94
619.201	8376.53
619.396	8349.91
619.591	8042.71
619.786	8308.95
619.981	8120.54
620.176	8335.57
620.371	8143.07
620.566	8270.04
620.761	8001.76
620.956	8343.77
621.151	8028.38
621.346	8202.46
621.541	7729.38
621.735	8077.53
621.93	7790.81
622.125	7878.88
622.32	7715.04
622.515	7745.76
622.709	7729.38
622.904	7708.9
623.099	7633.12
623.294	7815.39
623.488	7567.59
623.683	7604.45
623.878	7348.45
624.072	7534.82
624.267	7543.01
624.462	7440.61
624.656	7411.94
624.851	7430.37
625.046	7385.32
625.24	7227.62
625.435	7053.55
625.629	7174.38
625.824	7250.15
626.018	7182.57
626.213	7055.59
626.407	7147.75
626.602	7063.79
626.796	6988.01
626.991	6842.6
627.185	6801.65
627.38	6789.36
627.574	6768.88
627.768	6783.21
627.963	6729.97
628.157	6709.49
628.352	6834.41
628.546	6699.25
628.74	6572.27
628.935	6564.08
629.129	6314.23
629.323	6387.96
629.517	6516.98
629.712	6443.25
629.906	6318.32
630.1	6314.23
630.294	6340.85
630.489	6394.1
630.683	6287.61
630.877	6197.49
631.071	6191.35
631.265	6269.17
631.459	6086.9
631.653	6138.1
631.848	5929.21
632.042	6019.32
632.236	5939.45
632.43	6052.09
632.624	6019.32
632.818	6086.9
633.012	5843.2
633.206	5822.72
633.4	5906.68
633.594	6004.99
633.788	5826.81
633.982	5728.51
634.176	5579.01
634.369	5638.4
634.563	5728.51
634.757	5495.04
634.951	5460.23
635.145	5654.78
635.339	5568.77
635.533	5466.37
635.726	5542.14
635.92	5312.77
636.114	5376.26
636.308	5501.19
636.501	5384.45
636.695	5386.5
636.889	5241.09
637.083	5333.25
637.276	5232.9
637.47	5300.48
637.664	5239.05
637.857	5077.26
638.051	5224.71
638.244	5148.93
638.438	4978.95
638.632	5044.49
638.825	5042.44
639.019	4933.9
639.212	4970.76
639.406	4917.51
639.599	4905.23
639.793	4956.43
639.986	4970.76
640.18	4880.65
640.373	4837.64
640.567	4792.59
640.76	4763.92
640.954	4886.79
641.147	4643.09
641.34	4608.27
641.534	4600.08
641.727	4579.6
641.92	4577.55
642.114	4475.15
642.307	4434.19
642.5	4552.98
642.694	4415.76
642.887	4401.43
643.08	4448.53
643.273	4370.71
643.467	4348.18
643.66	4258.07
643.853	4215.06
644.046	4208.92
644.239	4151.57
644.432	4108.57
644.626	4165.91
644.819	4217.11
645.012	4235.54
645.205	4167.96
645.398	4096.28
645.591	4145.43
645.784	4081.94
645.977	4094.23
646.17	3979.54
646.363	3815.71
646.556	3924.25
646.749	4022.55
646.942	3881.24
647.135	3817.76
647.328	3827.99
647.521	3883.29
647.714	3889.43
647.907	3805.47
648.099	3811.61
648.292	3717.4
648.485	3723.55
648.678	3490.08
648.871	3756.32
649.064	3645.73
649.256	3713.31
649.449	3551.52
649.642	3557.66
649.835	3621.15
650.027	3604.77
650.22	3516.7
650.413	3584.29
650.605	3393.83
650.798	3354.91
650.991	3438.88
651.183	3311.91
651.376	3369.25
651.568	3428.64
651.761	3340.58
651.954	3410.21
652.146	3256.61
652.339	3227.94
652.531	3229.99
652.724	3311.91
652.916	3197.22
653.109	3236.13
653.301	3186.98
653.494	3279.14
653.686	3150.12
653.879	3195.17
654.071	3113.25
654.263	3086.63
654.456	3186.98
654.648	3211.56
654.84	3010.86
655.033	2984.23
655.225	3068.2
655.417	2961.7
655.61	3039.53
655.802	2971.94
655.994	2933.03
656.186	3057.96
656.379	2887.98
656.571	3004.71
656.763	2769.2
656.955	2971.94
657.148	2920.74
657.34	2879.79
657.532	2763.05
657.724	2783.53
657.916	2865.45
658.108	2812.2
658.3	2754.86
658.492	2804.01
658.684	2674.99
658.876	2758.96
659.068	2674.99
659.26	2634.03
659.452	2691.37
659.644	2662.7
659.836	2709.8
660.028	2638.13
660.22	2523.44
660.412	2498.86
660.604	2554.16
660.796	2441.52
660.988	2582.83
661.18	2570.54
661.372	2496.82
661.563	2623.79
661.755	2455.86
661.947	2509.1
662.139	2466.1
662.331	2404.66
662.522	2427.18
662.714	2455.86
662.906	2480.43
663.097	2281.78
663.289	2337.07
663.481	2304.31
663.673	2367.79
663.864	2371.89
664.056	2238.77
664.247	2240.82
664.439	2267.44
664.631	2294.07
664.822	2326.83
665.014	2341.17
665.205	2234.68
665.397	2234.68
665.588	2201.91
665.78	2246.96
665.971	2183.48
666.163	2187.57
666.354	2011.45
666.546	2031.93
666.737	2195.76
666.929	2138.42
667.12	2199.86
667.311	2068.79
667.503	2093.37
667.694	2021.69
667.885	2050.36
668.077	2019.64
668.268	2013.49
668.459	1966.39
668.651	2130.23
668.842	2054.45
669.033	2038.07
669.224	2038.07
669.416	2042.17
669.607	2038.07
669.798	2056.5
669.989	1997.11
670.18	1882.42
670.371	1960.25
670.563	2015.54
670.754	1960.25
670.945	1939.77
671.136	1863.99
671.327	1882.42
671.518	1962.3
671.709	1857.85
671.9	1927.48
672.091	2079.03
672.282	1933.62
672.473	1861.94
672.664	1931.58
672.855	1882.42
673.046	1868.09
673.237	1882.42
673.428	1878.33
673.619	1888.57
673.809	1767.74
674	1780.03
674.191	1851.71
674.382	1849.66
674.573	1825.08
674.764	1837.37
674.954	1780.03
675.145	1833.27
675.336	1741.11
675.527	1849.66
675.717	1751.35
675.908	1812.79
676.099	1743.16
676.289	1734.97
676.48	1737.02
676.671	1794.36
676.861	1818.94
677.052	1677.63
677.243	1763.64
677.433	1644.86
677.624	1753.4
677.814	1702.2
678.005	1775.93
678.195	1726.78
678.386	1777.98
678.576	1616.19
678.767	1755.45
678.957	1679.68
679.148	1737.02
679.338	1679.68
679.529	1751.35
679.719	1663.29
679.909	1743.16
680.1	1677.63
680.29	1775.93
680.481	1683.77
680.671	1726.78
680.861	1671.48
681.052	1696.06
681.242	1579.33
681.432	1722.68
681.622	1634.62
681.813	1618.24
682.003	1745.21
682.193	1616.19
682.383	1694.01
682.573	1671.48
682.764	1706.3
682.954	1651
683.144	1581.37
683.334	1632.57
683.524	1728.83
683.714	1558.85
683.904	1675.58
684.094	1648.96
684.284	1644.86
684.474	1595.71
684.664	1653.05
684.854	1687.87
685.044	1700.16
685.234	1616.19
685.424	1689.92
685.614	1618.24
685.804	1628.48
685.994	1687.87
686.184	1605.95
686.374	1575.23
686.564	1571.13
686.753	1626.43
686.943	1569.09
687.133	1562.94
687.323	1573.18
687.513	1546.56
687.702	1562.94
687.892	1542.46
688.082	1702.2
688.272	1608
688.461	1464.64
688.651	1573.18
688.841	1616.19
689.03	1501.5
689.22	1648.96
689.41	1550.65
689.599	1509.69
689.789	1542.46
689.979	1517.89
690.168	1550.65
690.358	1560.89
690.547	1491.26
690.737	1554.75
690.926	1571.13
691.116	1575.23
691.305	1538.37
691.495	1460.54
691.684	1556.8
691.874	1499.45
692.063	1485.12
692.252	1491.26
692.442	1497.41
692.631	1519.93
692.82	1560.89
693.01	1624.38
693.199	1452.35
693.388	1638.72
693.578	1569.09
693.767	1526.08
693.956	1593.66
694.146	1456.45
694.335	1427.78
694.524	1538.37
694.713	1575.23
694.902	1612.09
695.092	1431.87
695.281	1413.44
695.47	1575.23
695.659	1620.28
695.848	1571.13
696.037	1560.89
696.226	1624.38
696.415	1491.26
696.604	1587.52
696.793	1448.26
696.982	1593.66
697.171	1583.42
697.36	1534.27
697.549	1597.76
697.738	1524.03
697.927	1489.21
698.116	1591.61
698.305	1589.57
698.494	1603.9
698.683	1505.6
698.872	1573.18
699.061	1646.91
699.25	1546.56
699.438	1464.64
699.627	1485.12
699.816	1562.94
700.005	1562.94
700.193	1546.56
700.382	1524.03
700.571	1532.22
700.76	1540.41
700.948	1495.36
701.137	1538.37
701.326	1546.56
701.514	1526.08
701.703	1456.45
701.892	1462.59
702.08	1524.03
702.269	1478.97
702.457	1501.5
702.646	1601.85
702.834	1536.32
703.023	1575.23
703.212	1513.79
703.4	1517.89
703.589	1431.87
703.777	1546.56
703.965	1481.02
704.154	1558.85
704.342	1444.16
704.531	1524.03
704.719	1587.52
704.907	1481.02
705.096	1456.45
705.284	1556.8
705.472	1503.55
705.661	1564.99
705.849	1530.17
706.037	1564.99
706.226	1460.54
706.414	1478.97
706.602	1509.69
706.79	1538.37
706.979	1448.26
707.167	1474.88
707.355	1388.86
707.543	1458.5
707.731	1474.88
707.919	1442.11
708.107	1431.87
708.296	1354.05
708.484	1448.26
708.672	1495.36
708.86	1403.2
709.048	1374.53
709.236	1470.78
709.424	1364.29
709.612	1448.26
709.8	1395.01
709.988	1438.02
710.176	1454.4
710.364	1442.11
710.551	1341.76
710.739	1397.06
710.927	1392.96
711.115	1401.15
711.303	1470.78
711.491	1456.45
711.679	1368.38
711.866	1251.65
712.054	1395.01
712.242	1380.67
712.43	1413.44
712.617	1302.85
712.805	1386.82
712.993	1345.86
713.181	1270.08
713.368	1349.95
713.556	1335.62
713.744	1288.51
713.931	1356.1
714.119	1368.38
714.306	1352
714.494	1382.72
714.682	1360.19
714.869	1388.86
715.057	1300.8
715.244	1237.31
715.432	1333.57
715.619	1274.18
715.807	1216.83
715.994	1343.81
716.182	1294.66
716.369	1268.03
716.556	1300.8
716.744	1352
716.931	1212.74
717.119	1268.03
717.306	1327.43
717.493	1313.09
717.681	1280.32
717.868	1374.53
718.055	1313.09
718.242	1210.69
718.43	1182.02
718.617	1263.94
718.804	1257.79
718.991	1339.71
719.179	1200.45
719.366	1132.87
719.553	1167.68
719.74	1173.83
719.927	1251.65
720.114	1204.55
720.301	1165.64
720.488	1229.12
720.676	1161.54
720.863	1194.31
721.05	1173.83
721.237	1171.78
721.424	1257.79
721.611	1249.6
721.798	1145.16
721.985	1126.72
722.172	1194.31
722.358	1198.4
722.545	1173.83
722.732	1171.78
722.919	1153.35
723.106	1231.17
723.293	1175.88
723.48	1169.73
723.667	1153.35
723.853	1153.35
724.04	1075.52
724.227	1206.59
724.414	1155.4
724.6	1098.05
724.787	1134.92
724.974	1038.66
725.161	1104.2
725.347	1102.15
725.534	1048.9
725.72	1102.15
725.907	1136.96
726.094	1073.48
726.28	1145.16
726.467	1110.34
726.653	1153.35
726.84	1057.09
727.027	1087.81
727.213	1130.82
727.4	1059.14
727.586	1149.25
727.773	1059.14
727.959	1046.85
728.145	991.56
728.332	999.75
728.518	995.65
728.705	1044.81
728.891	1096
729.077	1022.28
729.264	1022.28
729.45	950.6
729.636	1091.91
729.823	1073.48
730.009	1098.05
730.195	1055.05
730.382	1073.48
730.568	1048.9
730.754	1085.76
730.94	1030.47
731.126	1034.57
731.313	1030.47
731.499	993.61
731.685	973.13
731.871	926.02
732.057	1007.94
732.243	1073.48
732.429	1055.05
732.615	977.22
732.801	1018.18
732.987	1022.28
733.173	993.61
733.359	977.22
733.545	1001.8
733.731	991.56
733.917	1050.95
734.103	932.17
734.289	958.79
734.475	944.45
734.661	989.51
734.847	878.92
735.033	952.65
735.219	950.6
735.404	1032.52
735.59	954.69
735.776	923.98
735.962	926.02
736.148	883.02
736.333	960.84
736.519	934.22
736.705	878.92
736.89	1001.8
737.076	950.6
737.262	956.74
737.447	901.45
737.633	895.3
737.819	883.02
738.004	995.65
738.19	909.64
738.375	983.37
738.561	868.68
738.747	893.26
738.932	817.48
739.118	852.3
739.303	985.41
739.489	905.54
739.674	868.68
739.859	909.64
740.045	823.62
740.23	942.41
740.416	868.68
740.601	883.02
740.786	942.41
740.972	807.24
741.157	827.72
741.342	807.24
741.528	823.62
741.713	842.06
741.898	846.15
742.084	876.87
742.269	964.93
742.454	792.91
742.639	854.34
742.824	850.25
743.01	821.58
743.195	885.06
743.38	782.67
743.565	829.77
743.75	895.3
743.935	803.15
744.12	811.34
744.305	727.37
744.49	819.53
744.675	790.86
744.86	811.34
745.045	876.87
745.23	805.19
745.415	782.67
745.6	717.13
745.785	741.71
745.97	778.57
746.155	708.94
746.34	801.1
746.525	727.37
746.71	778.57
746.895	805.19
747.079	710.99
747.264	680.27
747.449	719.18
747.634	749.9
747.819	745.8
748.003	749.9
748.188	723.27
748.373	786.76
748.557	756.04
748.742	678.22
748.927	702.79
749.111	702.79
749.296	678.22
749.481	696.65
749.665	682.31
749.85	686.41
750.034	731.47
750.219	651.6
750.404	667.98
750.588	598.35
750.773	606.54
750.957	661.84
751.141	624.97
751.326	629.07
751.51	631.12
751.695	579.92
751.879	680.27
752.064	653.64
752.248	622.92
752.432	579.92
752.617	645.45
752.801	596.3
752.985	592.2
753.17	602.44
753.354	579.92
753.538	588.11
753.722	547.15
753.907	565.58
754.091	614.73
754.275	608.59
754.459	524.62
754.643	528.72
754.828	551.24
755.012	516.43
755.196	547.15
755.38	532.81
755.564	530.77
755.748	522.57
755.932	569.68
756.116	565.58
756.3	442.7
756.484	512.33
756.668	512.33
756.852	563.53
757.036	598.35
757.22	522.57
757.404	498
757.588	575.82
757.772	493.9
757.956	588.11
758.14	584.01
758.323	559.44
758.507	536.91
758.691	434.51
758.875	508.24
759.059	530.77
759.242	395.6
759.426	442.7
759.61	553.29
759.794	502.09
759.977	450.89
760.161	481.61
760.345	504.14
760.528	475.47
760.712	481.61
760.895	485.71
761.079	457.04
761.263	475.47
761.446	461.13
761.63	416.08
761.813	477.52
761.997	465.23
762.18	512.33
762.364	448.85
762.547	428.37
762.731	438.61
762.914	430.41
763.098	418.13
763.281	473.42
763.464	457.04
763.648	391.5
763.831	485.71
764.015	422.22
764.198	436.56
764.381	416.08
764.564	498
764.748	498
764.931	416.08
765.114	409.94
765.297	399.7
765.481	358.74
765.664	379.22
765.847	395.6
766.03	489.81
766.213	465.23
766.397	348.5
766.58	338.26
766.763	498
766.946	338.26
767.129	457.04
767.312	422.22
767.495	387.41
767.678	469.33
767.861	362.83
768.044	381.26
768.227	430.41
768.41	416.08
768.593	405.84
768.776	424.27
768.959	391.5
769.142	436.56
769.324	420.17
769.507	418.13
769.69	403.79
769.873	393.55
770.056	385.36
770.239	311.63
770.421	430.41
770.604	387.41
770.787	330.06
770.97	399.7
771.152	416.08
771.335	418.13
771.518	399.7
771.7	379.22
771.883	358.74
772.066	311.63
772.248	360.78
772.431	350.54
772.613	368.98
772.796	309.58
772.978	401.74
773.161	350.54
773.343	352.59
773.526	313.68
773.708	362.83
773.891	332.11
774.073	291.15
774.256	305.49
774.438	399.7
774.621	342.35
774.803	387.41
774.985	295.25
775.168	373.07
775.35	270.67
775.532	287.06
775.715	225.62
775.897	395.6
776.079	285.01
776.261	334.16
776.444	352.59
776.626	319.82
776.808	336.21
776.99	225.62
777.173	307.54
777.355	239.95
777.537	260.43
777.719	285.01
777.901	268.63
778.083	334.16
778.265	354.64
778.447	252.24
778.629	293.2
778.811	227.67
778.993	233.81
779.175	256.34
779.357	293.2
779.539	276.82
779.721	289.1
779.903	285.01
780.085	305.49
780.267	237.91
780.449	297.3
780.631	307.54
780.812	242
780.994	287.06
781.176	213.33
781.358	270.67
781.54	229.71
781.721	229.71
781.903	309.58
782.085	268.63
782.267	254.29
782.448	252.24
782.63	256.34
782.812	301.39
782.993	211.28
783.175	219.47
783.357	270.67
783.538	194.9
783.72	211.28
783.901	260.43
784.083	291.15
784.264	219.47
784.446	229.71
784.627	164.18
784.809	225.62
784.99	246.1
785.172	180.56
785.353	196.95
785.535	270.67
785.716	285.01
785.897	162.13
786.079	178.51
786.26	213.33
786.441	203.09
786.623	131.41
786.804	237.91
786.985	137.56
787.167	188.75
787.348	256.34
787.529	186.71
787.71	285.01
787.891	213.33
788.073	192.85
788.254	235.86
788.435	219.47
788.616	209.23
788.797	186.71
788.978	248.15
789.159	246.1
789.34	246.1
789.522	92.5
789.703	219.47
789.884	186.71
790.065	149.84
790.246	158.03
790.427	235.86
790.607	147.8
790.788	186.71
790.969	219.47
791.15	192.85
791.331	170.32
791.512	121.17
791.693	131.41
791.874	227.67
792.054	192.85
792.235	213.33
792.416	145.75
792.597	176.47
792.778	186.71
792.958	223.57
793.139	174.42
793.32	117.08
793.5	209.23
793.681	239.95
793.862	203.09
794.042	194.9
794.223	143.7
794.404	155.99
794.584	137.56
794.765	186.71
794.945	135.51
795.126	231.76
795.306	162.13
795.487	219.47
795.667	84.31
795.848	115.03
796.028	172.37
796.209	147.8
796.389	153.94
796.57	205.14
796.75	90.45
796.93	196.95
797.111	88.4
797.291	164.18
797.471	57.68
797.652	211.28
797.832	129.36
798.012	143.7
798.192	139.6
798.373	170.32
798.553	149.84
798.733	123.22
798.913	94.55
799.093	121.17
799.274	106.84
799.454	178.51
799.634	244.05
799.814	121.17
799.994	192.85
800.174	172.37
800.354	162.13
800.534	172.37
800.714	121.17
800.894	90.45
801.074	94.55
801.254	82.26
801.434	104.79
801.614	170.32
801.794	155.99
801.974	346.45
802.154	76.12
802.334	92.5
802.514	155.99
802.693	20.82
802.873	65.88
803.053	149.84
803.233	129.36
803.413	125.27
803.592	72.02
803.772	47.44
803.952	158.03
804.131	155.99
804.311	155.99
804.491	76.12
804.67	104.79
804.85	35.16
805.03	180.56
805.209	155.99
805.389	127.32
805.568	57.68
805.748	121.17
805.928	162.13
806.107	125.27
806.287	129.36
806.466	74.07
806.646	104.79
806.825	96.6
807.004	47.44
807.184	94.55
807.363	170.32
807.543	80.21
807.722	108.88
807.901	61.78
808.081	153.94
808.26	106.84
808.439	112.98
808.619	65.88
808.798	92.5
808.977	108.88
809.156	137.56
809.336	88.4
809.515	137.56
809.694	78.16
809.873	125.27
810.052	145.75
810.231	172.37
810.411	98.64
810.59	92.5
810.769	88.4
810.948	94.55
811.127	110.93
811.306	117.08
811.485	98.64
811.664	149.84
811.843	47.44
812.022	121.17
812.201	63.83
812.38	74.07
812.559	121.17
812.737	76.12
812.916	102.74
813.095	80.21
813.274	57.68
813.453	80.21
813.632	131.41
813.811	110.93
813.989	84.31
814.168	94.55
814.347	59.73
814.526	96.6
814.704	20.82
814.883	104.79
815.062	67.92
815.24	139.6
815.419	59.73
815.598	80.21
815.776	45.4
815.955	45.4
816.133	-42.67
816.312	94.55
816.49	100.69
816.669	168.27
816.847	96.6
817.026	24.92
817.204	90.45
817.383	86.36
817.561	96.6
817.74	92.5
817.918	129.36
818.097	65.88
818.275	31.06
818.453	16.73
818.632	78.16
818.81	31.06
818.988	82.26
819.167	67.92
819.345	55.64
819.523	104.79
819.701	72.02
819.879	115.03
820.058	115.03
820.236	14.68
820.414	90.45
820.592	74.07
820.77	59.73
820.948	86.36
821.127	47.44
821.305	90.45
821.483	57.68
821.661	115.03
821.839	80.21
822.017	96.6
822.195	59.73
822.373	63.83
822.551	55.64
822.729	57.68
822.907	100.69
823.085	121.17
823.262	57.68
823.44	90.45
823.618	67.92
823.796	59.73
823.974	88.4
824.152	39.25
824.329	0.34
824.507	96.6
824.685	108.88
824.863	98.64
825.04	37.2
825.218	153.94
825.396	39.25
825.574	94.55
825.751	49.49
825.929	129.36
826.107	65.88
826.284	69.97
826.462	47.44
826.639	86.36
826.817	61.78
826.994	164.18
827.172	88.4
827.349	82.26
827.527	55.64
827.704	63.83
827.882	106.84
828.059	22.87
828.237	18.77
828.414	145.75
828.591	65.88
828.769	63.83
828.946	26.96
829.124	78.16
829.301	55.64
829.478	4.44
829.655	67.92
829.833	80.21
830.01	24.92
830.187	24.92
830.364	41.3
830.542	47.44
830.719	88.4
830.896	65.88
831.073	82.26
831.25	106.84
831.427	90.45
831.604	10.58
831.782	39.25
831.959	47.44
832.136	92.5
832.313	65.88
832.49	72.02
832.667	72.02
832.844	94.55
833.021	43.35
833.198	115.03
833.374	59.73
833.551	90.45
833.728	69.97
833.905	39.25
834.082	18.77
834.259	65.88
834.436	33.11
834.612	20.82
834.789	96.6
834.966	47.44
835.143	82.26
835.319	35.16
835.496	82.26
835.673	59.73
835.85	61.78
836.026	108.88
836.203	65.88
836.38	45.4
836.556	-9.9
836.733	106.84
836.909	110.93
837.086	8.53
837.262	24.92
837.439	14.68
837.616	47.44
837.792	0.34
837.968	96.6
838.145	20.82
838.321	39.25
838.498	33.11
838.674	98.64
838.851	22.87
839.027	16.73
839.203	39.25
839.38	141.65
839.556	-16.04
839.732	80.21
839.909	33.11
840.085	37.2
840.261	96.6
840.437	92.5
840.614	84.31
840.79	72.02
840.966	39.25
841.142	8.53
841.318	84.31
841.494	110.93
841.671	51.54
841.847	33.11
842.023	20.82
842.199	26.96
842.375	63.83
842.551	20.82
842.727	29.01
842.903	72.02
843.079	35.16
843.255	-9.9
843.431	115.03
843.607	24.92
843.783	65.88
843.959	33.11
844.134	51.54
844.31	65.88
844.486	8.53
844.662	22.87
844.838	86.36
845.013	78.16
845.189	90.45
845.365	131.41
845.541	51.54
845.716	26.96
845.892	39.25
846.068	57.68
846.244	78.16
846.419	102.74
846.595	69.97
846.77	2.39
846.946	14.68
847.122	65.88
847.297	39.25
847.473	94.55
847.648	-9.9
847.824	14.68
847.999	31.06
848.175	33.11
848.35	-1.71
848.526	80.21
848.701	43.35
848.876	39.25
849.052	-22.19
849.227	12.63
849.403	43.35
849.578	98.64
849.753	59.73
849.929	55.64
850.104	8.53
850.279	10.58
850.454	53.59
850.63	74.07
850.805	69.97
850.98	45.4
851.155	98.64
851.33	16.73
851.505	61.78
851.681	121.17
851.856	80.21
852.031	2.39
852.206	22.87
852.381	39.25
852.556	22.87
852.731	61.78
852.906	14.68
853.081	31.06
853.256	53.59
853.431	67.92
853.606	2.39
853.781	47.44
853.956	6.49
854.131	90.45
854.305	82.26
854.48	57.68
854.655	6.49
854.83	96.6
855.005	2.39
855.18	35.16
855.354	55.64
855.529	-1.71
855.704	20.82
855.879	16.73
856.053	-18.09
856.228	102.74
856.403	49.49
856.577	-5.8
856.752	-1.71
856.926	45.4
857.101	37.2
857.276	22.87
857.45	82.26
857.625	80.21
857.799	33.11
857.974	45.4
858.148	-18.09
858.323	98.64
858.497	12.63
858.672	22.87
858.846	35.16
859.02	33.11
859.195	59.73
859.369	22.87
859.543	6.49
859.718	43.35
859.892	24.92
860.066	33.11
860.241	43.35
860.415	43.35
860.589	8.53
860.763	98.64
860.938	45.4
861.112	55.64
861.286	-46.76
861.46	39.25
861.634	22.87
861.808	39.25
861.982	10.58
862.157	55.64
862.331	20.82
862.505	26.96
862.679	14.68
862.853	63.83
863.027	14.68
863.201	78.16
863.375	61.78
863.549	69.97
863.722	63.83
863.896	106.84
864.07	35.16
864.244	59.73
864.418	6.49
864.592	47.44
864.766	-32.43
864.939	22.87
865.113	51.54
865.287	59.73
865.461	-5.8
865.634	31.06
865.808	10.58
865.982	16.73
866.156	47.44
866.329	84.31
866.503	26.96
866.676	98.64
866.85	6.49
867.024	35.16
867.197	63.83
867.371	67.92
867.544	41.3
867.718	59.73
867.891	63.83
868.065	80.21
868.238	47.44
868.412	29.01
868.585	41.3
868.759	76.12
868.932	8.53
869.105	22.87
869.279	6.49
869.452	-26.28
869.625	24.92
869.799	14.68
869.972	-20.14
870.145	8.53
870.319	6.49
870.492	82.26
870.665	-22.19
870.838	43.35
871.011	14.68
871.185	-13.99
871.358	-9.9
871.531	-9.9
871.704	22.87
871.877	80.21
872.05	45.4
872.223	67.92
872.396	-5.8
872.569	47.44
872.742	33.11
872.915	55.64
873.088	65.88
873.261	-28.33
873.434	16.73
873.607	41.3
873.78	26.96
873.953	-20.14
874.126	63.83
874.299	-9.9
874.471	37.2
874.644	74.07
874.817	80.21
874.99	31.06
875.163	100.69
875.335	-34.47
875.508	31.06
875.681	117.08
875.853	45.4
876.026	74.07
876.199	51.54
876.371	47.44
876.544	-5.8
876.717	33.11
876.889	8.53
877.062	57.68
877.234	10.58
877.407	31.06
877.579	88.4
877.752	4.44
877.924	72.02
878.097	26.96
878.269	39.25
878.442	-24.23
878.614	41.3
878.786	6.49
878.959	80.21
879.131	78.16
879.303	-36.52
879.476	16.73
879.648	80.21
879.82	72.02
879.993	43.35
880.165	55.64
880.337	43.35
880.509	67.92
880.681	67.92
880.854	16.73
881.026	29.01
881.198	84.31
881.37	45.4
881.542	33.11
881.714	2.39
881.886	26.96
882.058	-7.85
882.23	26.96
882.402	55.64
882.574	-20.14
882.746	112.98
882.918	41.3
883.09	39.25
883.262	59.73
883.434	47.44
883.606	29.01
883.778	31.06
883.95	45.4
884.122	-13.99
884.293	35.16
884.465	-18.09
884.637	47.44
884.809	-40.62
884.98	119.12
885.152	41.3
885.324	-16.04
885.496	65.88
885.667	47.44
885.839	0.34
886.011	33.11
886.182	-73.39
886.354	65.88
886.525	35.16
886.697	57.68
886.869	0.34
887.04	43.35
887.212	-11.95
887.383	22.87
887.555	41.3
887.726	35.16
887.897	31.06
888.069	51.54
888.24	14.68
888.412	-38.57
888.583	33.11
888.754	57.68
888.926	53.59
889.097	10.58
889.268	74.07
889.44	82.26
889.611	31.06
889.782	14.68
889.953	33.11
890.125	8.53
890.296	26.96
890.467	-32.43
890.638	-1.71
890.809	57.68
890.98	61.78
891.151	10.58
891.323	31.06
891.494	65.88
891.665	72.02
891.836	18.77
892.007	55.64
892.178	57.68
892.349	63.83
892.52	80.21
892.691	6.49
892.862	69.97
893.032	-5.8
893.203	47.44
893.374	-36.52
893.545	31.06
893.716	6.49
893.887	92.5
894.057	47.44
894.228	39.25
894.399	-34.47
894.57	33.11
894.74	106.84
894.911	8.53
895.082	69.97
895.253	35.16
895.423	37.2
895.594	86.36
895.764	0.34
895.935	-26.28
896.106	82.26
896.276	18.77
896.447	59.73
896.617	24.92
896.788	80.21
896.958	51.54
897.129	18.77
897.299	31.06
897.47	39.25
897.64	8.53
897.81	-38.57
897.981	26.96
898.151	14.68
898.322	45.4
898.492	26.96
898.662	26.96
898.832	22.87
899.003	-44.71
899.173	12.63
899.343	-5.8
899.513	57.68
