Data from USB4F104151__103__13-54-44-168.txt Node

Date: Thu Mar 13 13:54:44 EDT 2025
User: louis
Spectrometer: USB4F10415
Trigger mode: 4
Integration Time (sec): 1.000000E-2
Scans to average: 1
Electric dark correction enabled: true
Nonlinearity correction enabled: false
Boxcar width: 0
XAxis mode: Wavelengths
Number of Pixels in Spectrum: 3648
>>>>>Begin Spectral Data<<<<<
178.204	-13.82
178.424	-13.82
178.644	-13.82
178.864	-15.87
179.084	-38.4
179.304	-19.97
179.524	51.71
179.744	14.85
179.964	-65.02
180.184	-48.64
180.404	33.28
180.624	43.52
180.844	-13.82
181.064	-19.97
181.283	33.28
181.503	16.9
181.723	-26.11
181.943	2.56
182.163	10.75
182.383	59.9
182.602	39.42
182.822	10.75
183.042	-7.68
183.262	-89.6
183.482	70.14
183.701	8.7
183.921	37.38
184.141	55.81
184.361	86.53
184.58	55.81
184.8	41.47
185.02	72.19
185.239	35.33
185.459	49.66
185.679	84.48
185.898	16.9
186.118	-42.5
186.338	45.57
186.557	82.43
186.777	37.38
186.997	14.85
187.216	39.42
187.436	31.23
187.655	92.67
187.875	10.75
188.095	33.28
188.314	72.19
188.534	66.05
188.753	70.14
188.973	-5.63
189.192	35.33
189.412	55.81
189.631	-17.92
189.851	53.76
190.07	96.77
190.29	-56.83
190.509	10.75
190.729	53.76
190.948	-54.78
191.168	72.19
191.387	70.14
191.607	70.14
191.826	-5.63
192.045	29.18
192.265	76.29
192.484	113.15
192.704	82.43
192.923	27.14
193.142	25.09
193.362	53.76
193.581	43.52
193.8	23.04
194.02	59.9
194.239	68.09
194.458	70.14
194.678	47.62
194.897	31.23
195.116	74.24
195.335	45.57
195.555	43.52
195.774	92.67
195.993	27.14
196.212	8.7
196.432	12.8
196.651	14.85
196.87	92.67
197.089	55.81
197.308	43.52
197.528	98.81
197.747	-32.26
197.966	66.05
198.185	8.7
198.404	88.57
198.623	72.19
198.842	-30.21
199.062	102.91
199.281	84.48
199.5	16.9
199.719	43.52
199.938	4.61
200.157	41.47
200.376	39.42
200.595	43.52
200.814	76.29
201.033	94.72
201.252	55.81
201.471	-24.06
201.69	70.14
201.909	53.76
202.128	29.18
202.347	49.66
202.566	49.66
202.785	2.56
203.004	8.7
203.223	78.33
203.442	23.04
203.661	18.94
203.879	49.66
204.098	16.9
204.317	68.09
204.536	121.34
204.755	14.85
204.974	113.15
205.193	25.09
205.411	12.8
205.63	41.47
205.849	57.86
206.068	43.52
206.287	68.09
206.505	33.28
206.724	53.76
206.943	61.95
207.162	14.85
207.381	53.76
207.599	8.7
207.818	14.85
208.037	98.81
208.255	16.9
208.474	-38.4
208.693	82.43
208.911	80.38
209.13	70.14
209.349	57.86
209.567	76.29
209.786	-3.58
210.005	43.52
210.223	27.14
210.442	-28.16
210.661	47.62
210.879	125.44
211.098	-9.73
211.316	43.52
211.535	35.33
211.753	74.24
211.972	16.9
212.191	45.57
212.409	25.09
212.628	31.23
212.846	0.51
213.065	-36.35
213.283	33.28
213.502	70.14
213.72	-13.82
213.938	45.57
214.157	29.18
214.375	47.62
214.594	-30.21
214.812	76.29
215.031	125.44
215.249	90.62
215.467	57.86
215.686	96.77
215.904	76.29
216.122	-44.54
216.341	59.9
216.559	18.94
216.778	6.66
216.996	127.49
217.214	41.47
217.432	84.48
217.651	66.05
217.869	-7.68
218.087	-9.73
218.306	-19.97
218.524	39.42
218.742	-11.78
218.96	43.52
219.179	100.86
219.397	90.62
219.615	64
219.833	29.18
220.051	16.9
220.27	121.34
220.488	-44.54
220.706	-15.87
220.924	31.23
221.142	88.57
221.36	45.57
221.578	45.57
221.796	45.57
222.015	70.14
222.233	8.7
222.451	6.66
222.669	76.29
222.887	113.15
223.105	4.61
223.323	-30.21
223.541	39.42
223.759	-17.92
223.977	6.66
224.195	35.33
224.413	61.95
224.631	25.09
224.849	-26.11
225.067	59.9
225.285	35.33
225.503	74.24
225.721	-32.26
225.939	86.53
226.157	39.42
226.375	47.62
226.592	66.05
226.81	16.9
227.028	-28.16
227.246	109.05
227.464	18.94
227.682	70.14
227.9	84.48
228.117	35.33
228.335	10.75
228.553	84.48
228.771	23.04
228.989	72.19
229.206	35.33
229.424	16.9
229.642	6.66
229.86	-24.06
230.077	70.14
230.295	16.9
230.513	41.47
230.731	47.62
230.948	47.62
231.166	127.49
231.384	57.86
231.601	35.33
231.819	92.67
232.037	12.8
232.254	78.33
232.472	31.23
232.689	104.96
232.907	18.94
233.125	53.76
233.342	2.56
233.56	27.14
233.777	16.9
233.995	4.61
234.213	78.33
234.43	39.42
234.648	10.75
234.865	61.95
235.083	35.33
235.3	64
235.518	33.28
235.735	82.43
235.953	84.48
236.17	25.09
236.388	29.18
236.605	49.66
236.822	-36.35
237.04	14.85
237.257	25.09
237.475	70.14
237.692	86.53
237.909	76.29
238.127	55.81
238.344	57.86
238.562	57.86
238.779	53.76
238.996	104.96
239.214	-48.64
239.431	43.52
239.648	16.9
239.865	92.67
240.083	4.61
240.3	35.33
240.517	6.66
240.735	20.99
240.952	66.05
241.169	45.57
241.386	-5.63
241.603	45.57
241.821	43.52
242.038	39.42
242.255	94.72
242.472	37.38
242.689	33.28
242.907	57.86
243.124	78.33
243.341	57.86
243.558	45.57
243.775	53.76
243.992	80.38
244.209	45.57
244.426	82.43
244.643	59.9
244.86	25.09
245.078	43.52
245.295	-3.58
245.512	133.63
245.729	68.09
245.946	-13.82
246.163	25.09
246.38	-48.64
246.597	14.85
246.814	43.52
247.031	59.9
247.248	23.04
247.464	-1.54
247.681	51.71
247.898	72.19
248.115	57.86
248.332	41.47
248.549	84.48
248.766	25.09
248.983	57.86
249.2	23.04
249.417	-5.63
249.633	90.62
249.85	39.42
250.067	31.23
250.284	74.24
250.501	35.33
250.717	-9.73
250.934	66.05
251.151	59.9
251.368	-46.59
251.585	113.15
251.801	70.14
252.018	49.66
252.235	57.86
252.451	25.09
252.668	72.19
252.885	-5.63
253.102	43.52
253.318	10.75
253.535	-28.16
253.752	61.95
253.968	72.19
254.185	41.47
254.401	27.14
254.618	37.38
254.835	53.76
255.051	70.14
255.268	59.9
255.484	82.43
255.701	53.76
255.917	98.81
256.134	39.42
256.351	80.38
256.567	74.24
256.784	51.71
257	78.33
257.217	37.38
257.433	-17.92
257.65	45.57
257.866	41.47
258.082	-26.11
258.299	92.67
258.515	49.66
258.732	72.19
258.948	109.05
259.165	-19.97
259.381	92.67
259.597	82.43
259.814	98.81
260.03	39.42
260.246	0.51
260.463	-15.87
260.679	98.81
260.895	37.38
261.112	55.81
261.328	-11.78
261.544	57.86
261.761	31.23
261.977	104.96
262.193	55.81
262.409	-50.69
262.626	25.09
262.842	27.14
263.058	39.42
263.274	76.29
263.49	20.99
263.707	55.81
263.923	-38.4
264.139	-38.4
264.355	51.71
264.571	78.33
264.787	41.47
265.004	41.47
265.22	100.86
265.436	25.09
265.652	100.86
265.868	92.67
266.084	-7.68
266.3	41.47
266.516	35.33
266.732	-24.06
266.948	35.33
267.164	33.28
267.38	-1.54
267.596	49.66
267.812	18.94
268.028	51.71
268.244	25.09
268.46	-22.02
268.676	51.71
268.892	-13.82
269.108	31.23
269.324	76.29
269.54	10.75
269.756	37.38
269.972	70.14
270.188	49.66
270.403	31.23
270.619	59.9
270.835	41.47
271.051	0.51
271.267	-5.63
271.483	8.7
271.698	94.72
271.914	-11.78
272.13	31.23
272.346	20.99
272.562	98.81
272.777	78.33
272.993	47.62
273.209	-13.82
273.425	66.05
273.64	66.05
273.856	55.81
274.072	66.05
274.287	41.47
274.503	37.38
274.719	-13.82
274.934	119.29
275.15	20.99
275.366	27.14
275.581	12.8
275.797	35.33
276.012	45.57
276.228	72.19
276.444	-1.54
276.659	0.51
276.875	-19.97
277.09	10.75
277.306	109.05
277.521	86.53
277.737	27.14
277.952	25.09
278.168	43.52
278.383	39.42
278.599	92.67
278.814	70.14
279.03	74.24
279.245	90.62
279.461	51.71
279.676	59.9
279.892	10.75
280.107	47.62
280.322	59.9
280.538	8.7
280.753	70.14
280.969	-7.68
281.184	53.76
281.399	145.92
281.615	23.04
281.83	45.57
282.045	66.05
282.26	4.61
282.476	23.04
282.691	64
282.906	4.61
283.122	6.66
283.337	29.18
283.552	45.57
283.767	90.62
283.983	49.66
284.198	59.9
284.413	43.52
284.628	72.19
284.843	23.04
285.058	-11.78
285.274	82.43
285.489	10.75
285.704	59.9
285.919	29.18
286.134	137.73
286.349	47.62
286.564	74.24
286.779	61.95
286.995	59.9
287.21	43.52
287.425	20.99
287.64	23.04
287.855	109.05
288.07	39.42
288.285	76.29
288.5	59.9
288.715	37.38
288.93	43.52
289.145	43.52
289.36	45.57
289.575	29.18
289.79	33.28
290.004	53.76
290.219	107.01
290.434	74.24
290.649	20.99
290.864	6.66
291.079	8.7
291.294	33.28
291.509	55.81
291.724	6.66
291.938	12.8
292.153	141.82
292.368	72.19
292.583	33.28
292.798	45.57
293.012	0.51
293.227	117.25
293.442	55.81
293.657	27.14
293.871	76.29
294.086	68.09
294.301	51.71
294.516	51.71
294.73	84.48
294.945	57.86
295.16	41.47
295.374	16.9
295.589	154.11
295.804	23.04
296.018	137.73
296.233	-1.54
296.447	59.9
296.662	8.7
296.877	35.33
297.091	51.71
297.306	115.2
297.52	25.09
297.735	74.24
297.949	41.47
298.164	111.1
298.378	51.71
298.593	70.14
298.807	33.28
299.022	6.66
299.236	35.33
299.451	92.67
299.665	-13.82
299.88	70.14
300.094	-17.92
300.309	74.24
300.523	49.66
300.737	41.47
300.952	51.71
301.166	14.85
301.381	-1.54
301.595	55.81
301.809	84.48
302.024	72.19
302.238	4.61
302.452	72.19
302.667	47.62
302.881	-7.68
303.095	74.24
303.309	45.57
303.524	47.62
303.738	-30.21
303.952	76.29
304.166	80.38
304.381	10.75
304.595	59.9
304.809	-15.87
305.023	12.8
305.237	37.38
305.452	41.47
305.666	4.61
305.88	100.86
306.094	143.87
306.308	-1.54
306.522	59.9
306.736	102.91
306.95	6.66
307.164	4.61
307.379	-3.58
307.593	92.67
307.807	-17.92
308.021	74.24
308.235	23.04
308.449	43.52
308.663	68.09
308.877	-17.92
309.091	51.71
309.305	43.52
309.519	12.8
309.733	74.24
309.947	-5.63
310.161	33.28
310.374	25.09
310.588	86.53
310.802	51.71
311.016	6.66
311.23	33.28
311.444	102.91
311.658	-1.54
311.872	117.25
312.085	35.33
312.299	33.28
312.513	-24.06
312.727	57.86
312.941	6.66
313.154	41.47
313.368	27.14
313.582	90.62
313.796	98.81
314.009	33.28
314.223	35.33
314.437	8.7
314.651	107.01
314.864	25.09
315.078	72.19
315.292	35.33
315.505	84.48
315.719	31.23
315.933	76.29
316.146	45.57
316.36	-32.26
316.573	-15.87
316.787	137.73
317.001	72.19
317.214	-44.54
317.428	61.95
317.641	72.19
317.855	57.86
318.068	90.62
318.282	100.86
318.495	98.81
318.709	14.85
318.922	39.42
319.136	51.71
319.349	53.76
319.563	72.19
319.776	33.28
319.99	123.39
320.203	57.86
320.417	29.18
320.63	53.76
320.843	41.47
321.057	18.94
321.27	98.81
321.483	-40.45
321.697	33.28
321.91	51.71
322.124	53.76
322.337	59.9
322.55	57.86
322.763	53.76
322.977	125.44
323.19	16.9
323.403	31.23
323.617	47.62
323.83	20.99
324.043	74.24
324.256	4.61
324.469	59.9
324.683	55.81
324.896	-26.11
325.109	-3.58
325.322	59.9
325.535	53.76
325.748	27.14
325.962	61.95
326.175	8.7
326.388	39.42
326.601	53.76
326.814	80.38
327.027	35.33
327.24	23.04
327.453	-3.58
327.666	115.2
327.879	6.66
328.092	72.19
328.305	39.42
328.518	43.52
328.731	49.66
328.944	29.18
329.157	82.43
329.37	90.62
329.583	4.61
329.796	74.24
330.009	4.61
330.222	-5.63
330.435	84.48
330.648	70.14
330.861	10.75
331.073	31.23
331.286	90.62
331.499	18.94
331.712	-19.97
331.925	102.91
332.138	82.43
332.35	156.16
332.563	-7.68
332.776	57.86
332.989	25.09
333.202	35.33
333.414	25.09
333.627	70.14
333.84	27.14
334.053	74.24
334.265	27.14
334.478	55.81
334.691	57.86
334.903	27.14
335.116	-3.58
335.329	66.05
335.541	86.53
335.754	39.42
335.966	-19.97
336.179	6.66
336.392	-5.63
336.604	-32.26
336.817	31.23
337.029	61.95
337.242	-3.58
337.454	35.33
337.667	113.15
337.88	78.33
338.092	61.95
338.305	27.14
338.517	6.66
338.729	96.77
338.942	59.9
339.154	102.91
339.367	8.7
339.579	45.57
339.792	94.72
340.004	59.9
340.217	86.53
340.429	100.86
340.641	6.66
340.854	49.66
341.066	43.52
341.278	29.18
341.491	51.71
341.703	33.28
341.915	61.95
342.128	121.34
342.34	76.29
342.552	86.53
342.764	53.76
342.977	37.38
343.189	37.38
343.401	14.85
343.613	18.94
343.826	4.61
344.038	51.71
344.25	-22.02
344.462	47.62
344.674	39.42
344.886	23.04
345.099	-9.73
345.311	64
345.523	-1.54
345.735	82.43
345.947	35.33
346.159	2.56
346.371	2.56
346.583	-17.92
346.795	72.19
347.007	86.53
347.219	33.28
347.431	72.19
347.643	51.71
347.855	-11.78
348.067	61.95
348.279	37.38
348.491	2.56
348.703	29.18
348.915	25.09
349.127	18.94
349.339	14.85
349.551	80.38
349.763	96.77
349.975	47.62
350.187	25.09
350.399	29.18
350.61	39.42
350.822	70.14
351.034	-22.02
351.246	68.09
351.458	61.95
351.669	18.94
351.881	53.76
352.093	80.38
352.305	68.09
352.517	59.9
352.728	55.81
352.94	84.48
353.152	68.09
353.363	23.04
353.575	49.66
353.787	94.72
353.999	125.44
354.21	57.86
354.422	64
354.633	-26.11
354.845	51.71
355.057	104.96
355.268	-30.21
355.48	74.24
355.692	59.9
355.903	39.42
356.115	16.9
356.326	35.33
356.538	6.66
356.749	0.51
356.961	59.9
357.172	27.14
357.384	45.57
357.595	98.81
357.807	51.71
358.018	82.43
358.23	61.95
358.441	76.29
358.653	49.66
358.864	33.28
359.075	98.81
359.287	-42.5
359.498	-24.06
359.709	55.81
359.921	102.91
360.132	74.24
360.344	-5.63
360.555	70.14
360.766	20.99
360.977	45.57
361.189	23.04
361.4	53.76
361.611	68.09
361.823	39.42
362.034	111.1
362.245	80.38
362.456	102.91
362.667	66.05
362.879	127.49
363.09	117.25
363.301	139.77
363.512	8.7
363.723	45.57
363.935	-17.92
364.146	-26.11
364.357	80.38
364.568	92.67
364.779	76.29
364.99	76.29
365.201	86.53
365.412	37.38
365.623	61.95
365.834	14.85
366.045	14.85
366.256	51.71
366.467	59.9
366.678	49.66
366.889	4.61
367.1	92.67
367.311	49.66
367.522	49.66
367.733	82.43
367.944	84.48
368.155	37.38
368.366	74.24
368.577	102.91
368.788	51.71
368.999	41.47
369.209	47.62
369.42	-19.97
369.631	147.97
369.842	76.29
370.053	-3.58
370.264	29.18
370.474	127.49
370.685	90.62
370.896	8.7
371.107	94.72
371.317	102.91
371.528	-15.87
371.739	43.52
371.95	37.38
372.16	111.1
372.371	64
372.582	72.19
372.792	25.09
373.003	82.43
373.214	41.47
373.424	90.62
373.635	102.91
373.846	66.05
374.056	12.8
374.267	61.95
374.477	64
374.688	-15.87
374.898	0.51
375.109	47.62
375.319	76.29
375.53	59.9
375.74	160.25
375.951	47.62
376.161	12.8
376.372	45.57
376.582	80.38
376.793	72.19
377.003	-5.63
377.214	20.99
377.424	41.47
377.635	64
377.845	27.14
378.055	31.23
378.266	14.85
378.476	27.14
378.686	76.29
378.897	-19.97
379.107	39.42
379.317	18.94
379.528	68.09
379.738	123.39
379.948	61.95
380.158	0.51
380.369	90.62
380.579	-42.5
380.789	16.9
380.999	61.95
381.21	66.05
381.42	123.39
381.63	84.48
381.84	51.71
382.05	64
382.261	96.77
382.471	74.24
382.681	-1.54
382.891	61.95
383.101	57.86
383.311	59.9
383.521	-32.26
383.731	59.9
383.941	88.57
384.151	82.43
384.361	35.33
384.571	102.91
384.781	27.14
384.991	-19.97
385.201	31.23
385.411	35.33
385.621	90.62
385.831	66.05
386.041	57.86
386.251	47.62
386.461	47.62
386.671	74.24
386.881	137.73
387.091	102.91
387.301	43.52
387.511	76.29
387.72	104.96
387.93	12.8
388.14	37.38
388.35	90.62
388.56	33.28
388.769	76.29
388.979	29.18
389.189	33.28
389.399	86.53
389.609	27.14
389.818	59.9
390.028	39.42
390.238	104.96
390.447	18.94
390.657	115.2
390.867	98.81
391.076	27.14
391.286	88.57
391.496	53.76
391.705	86.53
391.915	104.96
392.125	100.86
392.334	115.2
392.544	29.18
392.753	82.43
392.963	-11.78
393.172	98.81
393.382	53.76
393.591	43.52
393.801	57.86
394.01	66.05
394.22	33.28
394.429	70.14
394.639	-30.21
394.848	41.47
395.058	29.18
395.267	131.58
395.477	84.48
395.686	107.01
395.895	74.24
396.105	86.53
396.314	51.71
396.524	111.1
396.733	27.14
396.942	180.73
397.152	59.9
397.361	139.77
397.57	123.39
397.78	88.57
397.989	152.06
398.198	82.43
398.407	98.81
398.617	51.71
398.826	92.67
399.035	57.86
399.244	129.53
399.453	2.56
399.663	61.95
399.872	41.47
400.081	92.67
400.29	158.21
400.499	86.53
400.708	133.63
400.917	80.38
401.127	64
401.336	74.24
401.545	88.57
401.754	96.77
401.963	133.63
402.172	72.19
402.381	109.05
402.59	131.58
402.799	84.48
403.008	27.14
403.217	70.14
403.426	68.09
403.635	76.29
403.844	176.64
404.053	123.39
404.262	82.43
404.471	76.29
404.68	104.96
404.888	150.01
405.097	94.72
405.306	61.95
405.515	127.49
405.724	72.19
405.933	160.25
406.142	131.58
406.35	137.73
406.559	160.25
406.768	139.77
406.977	180.73
407.185	131.58
407.394	156.16
407.603	190.97
407.812	125.44
408.02	141.82
408.229	127.49
408.438	211.45
408.646	195.07
408.855	150.01
409.064	156.16
409.272	170.49
409.481	139.77
409.69	127.49
409.898	209.4
410.107	197.12
410.315	211.45
410.524	176.64
410.733	328.19
410.941	219.64
411.15	332.28
411.358	264.7
411.567	260.6
411.775	229.88
411.984	344.57
412.192	344.57
412.401	272.89
412.609	289.28
412.818	309.76
413.026	375.29
413.234	305.66
413.443	340.47
413.651	363
413.86	320
414.068	377.34
414.276	399.87
414.485	436.73
414.693	420.35
414.901	414.2
415.11	412.15
415.318	434.68
415.526	449.02
415.734	475.64
415.943	526.84
416.151	524.79
416.359	475.64
416.567	621.05
416.776	496.12
416.984	614.9
417.192	645.62
417.4	643.57
417.608	547.32
417.817	582.14
418.025	645.62
418.233	801.27
418.441	739.83
418.649	754.16
418.857	807.41
419.065	764.4
419.273	899.57
419.481	793.08
419.689	950.77
419.897	915.95
420.105	969.2
420.313	1006.06
420.521	999.92
420.729	973.3
420.937	1024.5
421.145	1178.09
421.353	1141.23
421.561	1100.27
421.769	1253.87
421.977	1264.11
422.185	1221.1
422.393	1327.6
422.601	1374.7
422.809	1446.38
423.017	1374.7
423.224	1429.99
423.432	1544.68
423.64	1614.31
423.848	1685.99
424.056	1630.7
424.263	1812.96
424.471	1827.3
424.679	1905.12
424.887	1860.07
425.094	1952.23
425.302	1964.51
425.51	2089.44
425.718	2130.4
425.925	2193.89
426.133	2281.95
426.341	2320.86
426.548	2435.55
426.756	2419.16
426.964	2451.93
427.171	2585.05
427.379	2681.3
427.586	2769.37
427.794	2814.42
428.001	2875.86
428.209	2959.83
428.417	2990.55
428.624	3121.62
428.832	3099.09
429.039	3166.67
429.247	3168.72
429.454	3424.72
429.662	3762.63
429.869	3434.96
430.076	3652.04
430.284	3598.79
430.491	3793.35
430.699	3975.62
430.906	3914.18
431.114	3996.1
431.321	4065.73
431.528	4264.38
431.736	4501.95
431.943	4831.67
432.15	4561.34
432.358	4710.84
432.565	4899.25
432.772	4946.36
432.979	5200.3
433.187	5226.93
433.394	5276.08
433.601	5769.64
433.808	5657
434.016	5597.61
434.223	5818.79
434.43	6058.4
434.637	6175.14
434.844	6343.07
435.052	6607.26
435.259	6465.95
435.466	6633.88
435.673	6386.08
435.88	7102.87
436.087	7201.17
436.294	7373.2
436.501	7199.12
436.708	7303.57
436.915	7561.61
437.122	7760.27
437.329	7725.45
437.537	8030.6
437.743	8253.83
437.95	8012.17
438.157	8685.95
438.364	8890.74
438.571	8794.49
438.778	8874.36
438.985	9853.29
439.192	9259.38
439.399	9621.87
439.606	9234.8
439.813	9800.04
440.02	10275.17
440.227	10316.13
440.433	10072.42
440.64	10762.59
440.847	10606.94
441.054	10682.72
441.261	11475.28
441.467	11229.52
441.674	11581.78
441.881	11884.87
442.088	11950.41
442.294	11762
442.501	12112.2
442.708	12540.22
442.914	12792.12
443.121	13353.27
443.328	13021.5
443.534	14037.29
443.741	13558.07
443.948	13355.32
444.154	14391.59
444.361	14387.49
444.568	14498.08
444.774	14375.2
444.981	14371.11
445.187	15001.88
445.394	15528.21
445.6	15261.98
445.807	16980.22
446.013	16107.79
446.22	16531.72
446.426	17234.17
446.633	17092.86
446.839	17760.5
447.046	17103.1
447.252	17903.85
447.459	17953.01
447.665	17879.28
447.871	18530.53
448.078	19458.26
448.284	18505.96
448.491	19249.37
448.697	19724.5
448.903	20173
449.11	20429
449.316	19912.91
449.522	20289.74
449.728	20676.8
449.935	21174.46
450.141	21018.82
450.347	21373.11
450.553	20857.03
450.76	21014.72
450.966	21629.11
451.172	21455.03
451.378	21905.59
451.584	21641.4
451.791	21858.48
451.997	21774.52
452.203	22403.24
452.409	22354.09
452.615	21952.69
452.821	21229.76
453.027	21371.07
453.233	22616.23
453.44	21059.77
453.646	21487.8
453.852	21500.09
454.058	21924.02
454.264	21440.7
454.47	21627.06
454.676	21227.71
454.882	21766.32
455.088	20154.57
455.294	20445.38
455.5	20805.83
455.705	21006.53
455.911	20113.61
456.117	19591.38
456.323	19232.99
456.529	18280.68
456.735	19079.39
456.941	18610.4
457.147	18286.82
457.352	17901.81
457.558	17606.9
457.764	17492.21
457.97	17160.44
458.176	17074.43
458.381	16722.18
458.587	16228.62
458.793	16263.43
458.999	15225.11
459.204	16066.83
459.41	15741.2
459.616	14688.54
459.821	14639.39
460.027	14754.08
460.233	14836
460.438	13920.56
460.644	13863.21
460.85	13408.56
461.055	13353.27
461.261	13066.55
461.466	12237.13
461.672	11766.09
461.878	12583.23
462.083	11721.04
462.289	11448.66
462.494	11352.4
462.7	10850.65
462.905	10666.33
463.111	11333.97
463.316	11088.21
463.522	10901.85
463.727	10877.27
463.932	10807.64
464.138	10652
464.343	10854.75
464.549	10492.26
464.754	10676.57
464.959	10733.92
465.165	10621.28
465.37	10309.99
465.575	9800.04
465.781	10197.35
465.986	10281.32
466.191	10176.87
466.397	9685.36
466.602	9404.78
466.807	9677.16
467.012	9867.63
467.218	9595.25
467.423	9453.94
467.628	9494.9
467.833	9859.43
468.038	9625.97
468.244	9458.03
468.449	9681.26
468.654	9410.93
468.859	9261.43
469.064	9402.74
469.269	9146.74
469.474	9095.54
469.679	9345.39
469.885	8862.07
470.09	9050.49
470.295	8950.14
470.5	8712.57
470.705	8681.85
470.91	8440.19
471.115	8567.17
471.32	8628.6
471.525	8440.19
471.73	8323.46
471.935	8534.4
472.139	8028.55
472.344	8067.46
472.549	7997.83
472.754	7891.34
472.959	7754.12
473.164	7469.45
473.369	7500.17
473.574	7965.06
473.778	7635.34
473.983	7653.77
474.188	7653.77
474.393	7367.06
474.598	7377.3
474.802	7297.42
475.007	7254.42
475.212	7125.4
475.417	6828.44
475.621	7033.24
475.826	7106.96
476.031	6814.1
476.235	6939.03
476.44	6832.54
476.645	6877.59
476.849	6857.11
477.054	6599.07
477.259	6461.85
477.463	6584.73
477.668	6513.05
477.872	6513.05
478.077	6351.26
478.282	6134.18
478.486	6287.78
478.691	6076.84
478.895	6136.23
479.1	5976.48
479.304	6017.44
479.509	5966.24
479.713	5980.58
479.918	5851.56
480.122	5845.41
480.326	5794.22
480.531	5917.09
480.735	5808.55
480.94	5917.09
481.144	6031.78
481.348	5820.84
481.553	5779.88
481.757	5636.52
481.961	5642.67
482.166	5804.46
482.37	5837.22
482.574	5560.75
482.778	5527.98
482.983	5693.87
483.187	5601.71
483.391	5630.38
483.595	5476.78
483.8	5738.92
484.004	5433.77
484.208	5697.96
484.412	5697.96
484.616	5564.84
484.821	5636.52
485.025	5603.75
485.229	5685.67
485.433	5597.61
485.637	5585.32
485.841	5595.56
486.045	5677.48
486.249	5693.87
486.453	5652.91
486.657	5525.93
486.861	5618.09
487.065	5368.24
487.269	5622.19
487.473	5695.91
487.677	5683.63
487.881	5667.24
488.085	5597.61
488.289	5720.49
488.493	5755.3
488.697	5652.91
488.901	5628.33
489.105	5675.43
489.309	5689.77
489.512	5800.36
489.716	5853.61
489.92	5712.3
490.124	5665.19
490.328	5861.8
490.531	5548.46
490.735	5958.05
490.939	6076.84
491.143	5773.74
491.346	5837.22
491.55	5986.72
491.754	5919.14
491.958	5966.24
492.161	5951.91
492.365	5978.53
492.569	6091.17
492.772	5986.72
492.976	5943.72
493.18	6189.47
493.383	6136.23
493.587	6166.95
493.79	6203.81
493.994	6214.05
494.197	6109.6
494.401	6308.26
494.605	6310.3
494.808	6515.1
495.012	6459.81
495.215	6549.92
495.419	6443.42
495.622	6760.86
495.825	6803.86
496.029	6799.77
496.232	6799.77
496.436	6721.95
496.639	6869.4
496.843	6932.89
497.046	7106.96
497.249	7205.27
497.453	7274.9
497.656	7180.69
497.859	7434.64
498.063	7408.01
498.266	7631.24
498.469	7643.53
498.673	7690.63
498.876	7696.78
499.079	7760.27
499.282	7833.99
499.485	8133
499.689	8006.02
499.892	8098.18
500.095	8219.01
500.298	8417.66
500.501	8440.19
500.705	8513.92
500.908	8784.25
501.111	8716.67
501.314	8733.05
501.517	8890.74
501.72	9120.12
501.923	9066.87
502.126	9396.59
502.329	9492.85
502.532	9513.33
502.735	9611.63
502.938	9703.79
503.141	9689.45
503.344	9986.41
503.547	9894.25
503.75	10248.55
503.953	10393.95
504.156	10336.61
504.359	10578.27
504.562	10623.33
504.765	10928.47
504.968	11053.4
505.17	10924.38
505.373	11157.85
505.576	11350.35
505.779	11209.04
505.982	11723.09
506.185	11796.81
506.387	11860.3
506.59	12132.68
506.793	12140.87
506.996	12374.34
507.198	12464.45
507.401	12505.41
507.604	12773.69
507.807	13019.45
508.009	13019.45
508.212	13463.86
508.415	13453.62
508.617	13652.27
508.82	13562.16
509.022	13680.94
509.225	13961.51
509.428	14162.22
509.63	14418.21
509.833	14590.24
510.035	14850.33
510.238	14836
510.44	15016.22
510.643	15350.04
510.845	15272.21
511.048	15542.55
511.25	15526.16
511.453	15870.22
511.655	16464.13
511.858	16138.51
512.06	16519.43
512.262	16634.11
512.465	16533.76
512.667	16906.49
512.87	17242.36
513.072	17060.09
513.274	17545.46
513.477	17772.78
513.679	17998.06
513.881	18354.41
514.084	18395.37
514.286	18483.43
514.488	18802.91
514.69	19259.61
514.893	19144.92
515.095	19329.24
515.297	19699.92
515.499	19708.12
515.701	20334.79
515.904	20179.15
516.106	20623.56
516.308	20615.37
516.51	20996.29
516.712	21512.38
516.914	21303.48
517.116	21676.21
517.318	21995.7
517.52	21870.77
517.722	22212.78
517.925	22747.3
518.127	22997.15
518.329	22890.66
518.531	22882.47
518.733	23298.2
518.935	23697.56
519.136	23904.4
519.338	24037.52
519.54	24248.46
519.742	24488.07
519.944	24510.6
520.146	25342.08
520.348	25143.42
520.55	25194.62
520.752	25806.97
520.954	26136.69
521.155	25804.92
521.357	26349.68
521.559	27058.28
521.761	27103.33
521.963	26853.48
522.164	27205.73
522.366	27068.51
522.568	27590.75
522.77	27922.52
522.971	28332.11
523.173	28084.31
523.375	28575.82
523.576	28438.61
523.778	28594.25
523.98	29251.65
524.181	29331.52
524.383	29259.84
524.584	29603.9
524.786	30031.93
524.988	30083.12
525.189	30144.56
525.391	30292.02
525.592	30566.45
525.794	30722.09
525.995	30898.22
526.197	31164.45
526.398	31068.2
526.6	31133.73
526.801	31535.13
527.003	31344.67
527.204	31995.93
527.406	31823.9
527.607	32262.16
527.808	32243.73
528.01	31590.43
528.211	32405.52
528.412	32667.66
528.614	32555.02
528.815	32419.86
529.016	32800.78
529.218	32759.82
529.419	33048.58
529.62	33171.46
529.822	33263.62
530.023	33062.92
530.224	33226.76
530.425	33232.9
530.626	33091.59
530.828	32854.03
531.029	33951.74
531.23	33159.17
531.431	33251.33
531.632	33986.55
531.833	34199.54
532.035	33703.93
532.236	33923.07
532.437	33728.51
532.638	33914.87
532.839	34265.08
533.04	34330.61
533.241	33624.06
533.442	34574.32
533.643	34318.32
533.844	34338.8
534.045	34531.31
534.246	34031.61
534.447	34488.31
534.648	34342.9
534.849	34396.15
535.05	34136.06
535.251	34174.97
535.451	34109.43
535.652	34379.76
535.853	34271.22
536.054	34668.53
536.255	34695.15
536.456	34285.56
536.657	34705.39
536.857	34322.42
537.058	34662.38
537.259	34631.66
537.46	34365.43
537.66	34602.99
537.861	34916.33
538.062	34772.97
538.263	34637.81
538.463	34473.97
538.664	34648.05
538.865	34697.2
539.065	34748.4
539.266	34076.66
539.466	34912.24
539.667	34478.07
539.868	34779.12
540.068	34641.9
540.269	34686.96
540.469	35010.54
540.67	34457.59
540.87	34580.46
541.071	34461.68
541.271	34787.31
541.472	34525.17
541.672	34609.14
541.873	34422.77
542.073	34082.81
542.274	34592.75
542.474	34375.67
542.675	34271.22
542.875	34873.32
543.075	34662.38
543.276	34283.51
543.476	34269.17
543.676	34127.86
543.877	34643.95
544.077	34838.51
544.277	33972.22
544.478	34547.7
544.678	34631.66
544.878	34426.87
545.078	34424.82
545.279	34447.35
545.479	34414.58
545.679	34760.69
545.879	34332.66
546.079	34398.2
546.28	34330.61
546.48	34035.7
546.68	34519.03
546.88	34547.7
547.08	34678.77
547.28	34172.92
547.48	34215.93
547.68	34795.5
547.88	34082.81
548.081	34858.99
548.281	34369.52
548.481	34390
548.681	34523.12
548.881	34627.57
549.081	34535.41
549.28	34297.84
549.48	34533.36
549.68	34578.42
549.88	34803.69
550.08	34240.5
550.28	34379.76
550.48	34318.32
550.68	34787.31
550.88	34062.33
551.08	34537.46
551.279	34355.19
551.479	34668.53
551.679	34471.92
551.879	34295.8
552.079	34545.65
552.278	34381.81
552.478	34467.83
552.678	34320.37
552.878	34592.75
553.077	34240.5
553.277	34082.81
553.477	34516.98
553.676	33818.62
553.876	34183.16
554.076	34068.47
554.275	34164.73
554.475	33667.07
554.674	34189.3
554.874	34017.27
555.074	34162.68
555.273	33886.2
555.473	34177.01
555.672	34095.1
555.872	34226.17
556.071	33912.83
556.271	34052.09
556.47	33679.36
556.67	33501.18
556.869	33609.73
557.068	33724.41
557.268	33462.27
557.467	33697.79
557.667	33323.01
557.866	33398.79
558.065	33476.61
558.265	33263.62
558.464	33056.78
558.663	33169.41
558.863	33153.03
559.062	33228.8
559.261	32964.62
559.461	33052.68
559.66	32925.71
559.859	33245.19
560.058	32573.45
560.258	33021.96
560.457	32432.15
560.656	33040.39
560.855	32651.28
561.054	32802.83
561.253	32632.85
561.453	32552.98
561.652	32628.75
561.851	32743.44
562.05	32698.38
562.249	32436.24
562.448	32587.79
562.647	32344.08
562.846	32176.15
563.045	32258.07
563.244	31766.56
563.443	32544.78
563.642	31852.57
563.841	32104.47
564.04	31801.37
564.239	32133.14
564.438	31719.45
564.637	32151.57
564.836	32059.41
565.035	31445.02
565.234	31748.12
565.432	31180.84
565.631	31485.98
565.83	31647.77
566.029	31574.05
566.228	31143.97
566.427	31256.61
566.625	31266.85
566.824	30832.68
567.023	31033.38
567.222	30640.17
567.42	31049.77
567.619	31119.4
567.818	30812.2
568.016	30947.37
568.215	31121.45
568.414	30611.5
568.612	31002.66
568.811	30509.1
569.01	30359.6
569.208	30115.89
569.407	30408.75
569.605	29880.38
569.804	30249.01
570.002	29825.08
570.201	29917.24
570.4	29884.47
570.598	29569.08
570.797	29728.83
570.995	29550.65
571.193	29364.29
571.392	29517.89
571.59	29337.66
571.789	29349.95
571.987	29237.31
572.186	29153.35
572.384	28876.87
572.582	29421.63
572.781	29134.92
572.979	28672.07
573.177	28586.06
573.376	28864.58
573.574	28508.24
573.772	28477.52
573.971	28295.25
574.169	28096.6
574.367	27881.56
574.565	28297.3
574.763	28063.83
574.962	27828.31
575.16	27637.85
575.358	27861.08
575.556	27494.49
575.754	27748.44
575.952	27193.44
576.151	27637.85
576.349	27248.74
576.547	27279.46
576.745	27097.19
576.943	27050.08
577.141	27050.08
577.339	27230.3
577.537	26644.59
577.735	27076.71
577.933	26624.11
578.131	26441.84
578.329	26347.63
578.527	26161.26
578.725	26490.99
578.923	26316.91
579.121	26566.76
579.319	26210.42
579.516	26425.45
579.714	26222.7
579.912	26044.53
580.11	25997.43
580.308	25874.55
580.506	25708.66
580.704	25417.85
580.901	25485.44
581.099	25800.82
581.297	25264.25
581.495	25403.52
581.692	25100.42
581.89	25038.98
582.088	25180.29
582.285	24936.58
582.483	25096.32
582.681	25026.69
582.878	24756.36
583.076	24602.76
583.274	24893.57
583.471	24330.38
583.669	24148.11
583.866	24395.92
584.064	24559.75
584.262	24260.75
584.459	24641.67
584.657	23965.84
584.854	24422.54
585.052	23511.19
585.249	24213.65
585.447	24230.03
585.644	23439.51
585.841	23650.46
586.039	23500.95
586.236	23318.68
586.434	23580.82
586.631	23204
586.828	23629.98
587.026	23627.93
587.223	23179.42
587.42	23210.14
587.618	23292.06
587.815	22945.95
588.012	23019.68
588.21	22665.38
588.407	23042.21
588.604	22804.64
588.801	22515.88
588.999	22636.71
589.196	22286.51
589.393	22587.56
589.59	22706.34
589.787	22143.15
589.984	22390.95
590.182	22190.25
590.379	22419.63
590.576	21969.07
590.773	22034.61
590.97	21700.79
591.167	21967.02
591.364	21809.33
591.561	21747.89
591.758	21530.81
591.955	21514.42
592.152	21729.46
592.349	21385.4
592.546	21434.55
592.743	21395.64
592.94	21153.98
593.137	21369.02
593.334	21246.14
593.531	20961.47
593.727	21405.88
593.924	21186.75
594.121	20762.82
594.318	21123.26
594.515	20848.83
594.712	20728
594.908	21018.82
595.105	20803.78
595.302	20342.99
595.499	20725.96
595.696	20318.41
595.892	20230.35
596.089	20259.02
596.286	20609.22
596.482	20504.78
596.679	20338.89
596.876	20160.72
597.072	19980.5
597.269	19937.49
597.466	19679.44
597.662	19820.75
597.859	20015.31
598.055	20095.18
598.252	19712.21
598.448	19763.41
598.645	19531.99
598.841	19374.3
599.038	19517.65
599.234	19419.35
599.431	19278.04
599.627	18829.54
599.824	19290.33
600.02	19290.33
600.217	19198.17
600.413	18899.17
600.609	19142.88
600.806	19060.96
601.002	19050.72
601.198	18938.08
601.395	18999.52
601.591	18751.71
601.787	18454.76
601.984	18559.2
602.18	18551.01
602.376	18454.76
602.572	18364.65
602.769	18268.39
602.965	18192.62
603.161	18045.16
603.357	18039.02
603.553	17946.86
603.75	18104.56
603.946	17625.33
604.142	18004.21
604.338	17703.15
604.534	17961.2
604.73	17502.45
604.926	17629.43
605.122	17862.9
605.318	17625.33
605.514	17268.98
605.71	17256.7
605.906	17293.56
606.102	17193.21
606.298	17125.63
606.494	17000.7
606.69	16931.07
606.886	17115.39
607.082	16859.39
607.278	17056
607.474	16881.92
607.67	17010.94
607.866	16521.48
608.062	16963.84
608.257	16593.15
608.453	16546.05
608.649	16490.76
608.845	16503.04
609.041	16417.03
609.236	16273.67
609.432	16427.27
609.628	16277.77
609.824	16052.49
610.019	16011.53
610.215	16226.57
610.411	16302.34
610.606	16396.55
610.802	16097.55
610.998	15950.09
611.193	16154.89
611.389	15911.18
611.584	15466.77
611.78	15681.81
611.976	15851.79
612.171	15595.79
612.367	15745.3
612.562	15474.96
612.758	15300.89
612.953	15399.19
613.149	15628.56
613.344	15288.6
613.539	15497.49
613.735	15288.6
613.93	15548.69
614.126	15104.28
614.321	15333.65
614.517	15266.07
614.712	15089.95
614.907	15132.95
615.103	15190.3
615.298	14944.54
615.493	15010.07
615.688	14786.85
615.884	15057.18
616.079	14721.31
616.274	14838.05
616.47	14704.93
616.665	14596.39
616.86	14559.52
617.055	14719.26
617.25	14448.93
617.445	14797.09
617.641	14393.64
617.836	14526.75
618.031	14270.76
618.226	14514.47
618.421	14362.92
618.616	14229.8
618.811	13986.09
619.006	14045.48
619.201	13936.94
619.396	13975.85
619.591	13822.25
619.786	14197.03
619.981	13848.88
620.176	13803.82
620.371	13830.44
620.566	13789.49
620.761	13648.18
620.956	13771.05
621.151	13476.15
621.346	13515.06
621.541	13220.15
621.735	13285.69
621.93	13048.12
622.125	13408.56
622.32	12921.15
622.515	13058.36
622.709	12890.43
622.904	12878.14
623.099	12609.86
623.294	12769.6
623.488	12552.51
623.683	12468.55
623.878	12527.94
624.072	12486.98
624.267	12364.1
624.462	12400.96
624.656	12167.49
624.851	12360
625.046	11903.31
625.24	11891.02
625.435	11882.83
625.629	11987.27
625.824	11899.21
626.018	11737.42
626.213	11581.78
626.407	11655.5
626.602	11381.07
626.796	11792.72
626.991	11348.31
627.185	11270.48
627.38	11106.65
627.574	10926.43
627.768	11176.28
627.963	11043.16
628.157	11116.89
628.352	10948.95
628.546	10864.99
628.74	11098.45
628.935	10750.3
629.129	10721.63
629.323	10668.38
629.517	10619.23
629.712	10670.43
629.906	10549.6
630.1	10412.39
630.294	10338.66
630.489	10486.11
630.683	10322.27
630.877	10293.6
631.071	10299.75
631.265	10363.23
631.459	10019.18
631.653	9994.6
631.848	10127.72
632.042	9955.69
632.236	9924.97
632.43	9748.84
632.624	10033.51
632.818	9812.33
633.012	9613.68
633.206	9625.97
633.4	9730.41
633.594	9511.28
633.788	9472.37
633.982	9609.58
634.176	9214.32
634.369	9396.59
634.563	9398.64
634.757	9212.28
634.951	9429.36
635.145	9240.95
635.339	9273.71
635.533	9095.54
635.726	9187.7
635.92	8915.32
636.114	8898.94
636.308	8829.31
636.501	8919.42
636.695	8980.85
636.889	8950.14
637.083	8677.76
637.276	8558.97
637.47	8739.19
637.664	8589.69
637.857	8436.1
638.051	8571.26
638.244	8503.68
638.438	8225.15
638.632	8227.2
638.825	8229.25
639.019	8165.76
639.212	8212.87
639.406	8268.16
639.599	8257.92
639.793	8192.39
639.986	7960.97
640.18	8053.13
640.373	8010.12
640.567	7852.42
640.76	7887.24
640.954	7606.67
641.147	7690.63
641.34	7819.66
641.534	7700.87
641.727	7723.4
641.92	7666.06
642.114	7393.68
642.307	7625.1
642.5	7586.19
642.694	7195.03
642.887	7139.73
643.08	7311.76
643.273	7295.38
643.467	7276.94
643.66	7254.42
643.853	7256.47
644.046	7111.06
644.239	7094.68
644.432	7010.71
644.626	7100.82
644.819	6906.26
645.012	6898.07
645.205	6898.07
645.398	6760.86
645.591	6631.83
645.784	6715.8
645.977	6678.94
646.17	6513.05
646.363	6545.82
646.556	6498.72
646.749	6695.32
646.942	6515.1
647.135	6392.22
647.328	6455.71
647.521	6173.09
647.714	6209.95
647.907	6304.16
648.099	6123.94
648.292	6318.5
648.485	6318.5
648.678	6209.95
648.871	5994.92
649.064	6078.88
649.256	5943.72
649.449	6085.03
649.642	5974.44
649.835	5753.26
650.027	5849.51
650.22	5855.65
650.413	5708.2
650.605	5753.26
650.798	5712.3
650.991	5644.71
651.183	5693.87
651.376	5626.28
651.568	5638.57
651.761	5419.44
651.954	5562.8
652.146	5638.57
652.339	5376.43
652.531	5513.64
652.724	5573.03
652.916	5151.15
653.109	5339.57
653.301	5183.92
653.494	5282.22
653.686	5145.01
653.879	5337.52
654.071	5169.59
654.263	5079.47
654.456	5054.9
654.648	4870.58
654.84	5026.23
655.033	5050.8
655.225	4923.83
655.417	4897.21
655.61	4964.79
655.802	4782.52
655.994	4942.26
656.186	4864.44
656.379	4706.74
656.571	4886.97
656.763	4682.17
656.955	4647.35
657.148	4673.98
657.34	4463.04
657.532	4501.95
657.724	4442.56
657.916	4450.75
658.108	4530.62
658.3	4454.84
658.492	4420.03
658.684	4346.3
658.876	4405.69
659.068	4354.49
659.26	4311.49
659.452	4370.88
659.644	4420.03
659.836	4360.64
660.028	4233.66
660.22	4182.46
660.412	4151.74
660.604	4135.36
660.796	4125.12
660.988	4014.53
661.18	4055.49
661.372	4024.77
661.563	4116.93
661.755	3877.32
661.947	4043.2
662.139	3957.19
662.331	3971.52
662.522	3785.16
662.714	3959.24
662.906	3787.21
663.097	4030.91
663.289	3721.67
663.481	3756.49
663.673	3623.37
663.864	3729.86
664.056	3762.63
664.247	3701.19
664.439	3574.22
664.631	3785.16
664.822	3588.55
665.014	3543.5
665.205	3551.69
665.397	3523.02
665.588	3508.68
665.78	3523.02
665.971	3566.03
666.163	3441.1
666.354	3488.2
666.546	3416.52
666.737	3353.04
666.929	3469.77
667.12	3379.66
667.311	3377.61
667.503	3404.24
667.694	3334.61
667.885	3320.27
668.077	3236.3
668.268	3262.93
668.459	3140.05
668.651	3264.97
668.842	3219.92
669.033	3125.71
669.224	3211.73
669.416	3113.42
669.607	3203.54
669.798	3144.14
669.989	3160.53
670.18	3097.04
670.371	3088.85
670.563	3131.86
670.754	2931.16
670.945	2974.16
671.136	3090.9
671.327	2978.26
671.518	2918.87
671.709	2974.16
671.9	2986.45
672.091	2996.69
672.282	3025.36
672.473	2873.81
672.664	2980.31
672.855	2875.86
673.046	2916.82
673.237	2925.01
673.428	2931.16
673.619	2994.64
673.809	2724.31
674	2957.78
674.191	2902.48
674.382	2834.9
674.573	2830.8
674.764	2808.28
674.954	2826.71
675.145	2949.59
675.336	2773.46
675.527	2703.83
675.717	2722.26
675.908	2634.2
676.099	2724.31
676.289	2697.69
676.48	2673.11
676.671	2613.72
676.861	2691.54
677.052	2750.93
677.243	2638.3
677.433	2716.12
677.624	2623.96
677.814	2712.02
678.005	2695.64
678.195	2724.31
678.386	2607.58
678.576	2603.48
678.767	2638.3
678.957	2666.97
679.148	2656.73
679.338	2630.1
679.529	2615.77
679.719	2499.03
679.909	2490.84
680.1	2617.82
680.29	2552.28
680.481	2521.56
680.671	2664.92
680.861	2554.33
681.052	2611.67
681.242	2535.9
681.432	2550.23
681.622	2527.71
681.813	2460.12
682.003	2441.69
682.193	2511.32
682.383	2515.42
682.573	2535.9
682.764	2587.1
682.954	2445.79
683.144	2521.56
683.334	2488.79
683.524	2341.34
683.714	2580.95
683.904	2433.5
684.094	2468.31
684.284	2539.99
684.474	2574.81
684.664	2427.35
684.854	2458.07
685.044	2400.73
685.234	2476.51
685.424	2462.17
685.614	2372.06
685.804	2439.64
685.994	2523.61
686.184	2408.92
686.374	2406.88
686.564	2453.98
686.753	2339.29
686.943	2337.24
687.133	2468.31
687.323	2445.79
687.513	2398.68
687.702	2392.54
687.892	2386.4
688.082	2400.73
688.272	2322.91
688.461	2335.2
688.651	2380.25
688.841	2406.88
689.03	2335.2
689.22	2372.06
689.41	2320.86
689.599	2382.3
689.789	2421.21
689.979	2396.64
690.168	2437.59
690.358	2128.35
690.547	2433.5
690.737	2324.96
690.926	2281.95
691.116	2257.37
691.305	2365.92
691.495	2298.33
691.684	2273.76
691.874	2374.11
692.063	2253.28
692.252	2339.29
692.442	2263.52
692.631	2277.85
692.82	2304.48
693.01	2206.17
693.199	2367.96
693.388	2365.92
693.578	2367.96
693.767	2259.42
693.956	2378.2
694.146	2245.09
694.335	2306.52
694.524	2388.44
694.713	2273.76
694.902	2335.2
695.092	2437.59
695.281	2238.94
695.47	2363.87
695.659	2216.41
695.848	2273.76
696.037	2359.77
696.226	2257.37
696.415	2245.09
696.604	2339.29
696.793	2232.8
696.982	2292.19
697.171	2294.24
697.36	2324.96
697.549	2345.44
697.738	2367.96
697.927	2243.04
698.116	2327
698.305	2361.82
698.494	2304.48
698.683	2341.34
698.872	2320.86
699.061	2335.2
699.25	2249.18
699.438	2232.8
699.627	2236.89
699.816	2329.05
700.005	2312.67
700.193	2304.48
700.382	2433.5
700.571	2232.8
700.76	2200.03
700.948	2314.72
701.137	2324.96
701.326	2335.2
701.514	2316.76
701.703	2294.24
701.892	2193.89
702.08	2277.85
702.269	2306.52
702.457	2277.85
702.646	2240.99
702.834	2185.69
703.023	2245.09
703.212	2329.05
703.4	2294.24
703.589	2273.76
703.777	2218.46
703.965	2120.16
704.154	2265.57
704.342	2243.04
704.531	2200.03
704.719	2152.93
704.907	2208.22
705.096	2165.21
705.284	2206.17
705.472	2212.32
705.661	2128.35
705.849	2083.3
706.037	2216.41
706.226	2120.16
706.414	2206.17
706.602	2142.69
706.79	2140.64
706.979	2134.5
707.167	2208.22
707.355	2040.29
707.543	2140.64
707.731	2083.3
707.919	2062.82
708.107	2066.91
708.296	2124.26
708.484	2009.57
708.672	2177.5
708.86	2052.58
709.048	2068.96
709.236	2007.52
709.424	2148.83
709.612	2128.35
709.8	2021.86
709.988	2036.19
710.176	2048.48
710.364	1962.47
710.551	2144.74
710.739	2032.1
710.927	2005.47
711.115	1989.09
711.303	1989.09
711.491	1995.23
711.679	1954.27
711.866	2142.69
712.054	1960.42
712.242	1968.61
712.43	2036.19
712.617	1935.84
712.805	1948.13
712.993	1894.88
713.181	1907.17
713.368	1980.9
713.556	1843.68
713.744	2032.1
713.931	1929.7
714.119	1935.84
714.306	1892.84
714.494	1925.6
714.682	1745.38
714.869	1831.4
715.057	1876.45
715.244	1819.11
715.432	1851.88
715.619	1874.4
715.807	1782.24
715.994	1958.37
716.182	1784.29
716.369	1763.81
716.556	1798.63
716.744	1786.34
716.931	1802.72
717.119	1755.62
717.306	1729
717.493	1714.66
717.681	1806.82
717.868	1702.37
718.055	1669.61
718.242	1794.53
718.43	1739.24
718.617	1778.15
718.804	1751.53
718.991	1718.76
719.179	1759.72
719.366	1749.48
719.553	1694.18
719.74	1661.41
719.927	1675.75
720.114	1741.29
720.301	1634.79
720.488	1722.85
720.676	1653.22
720.863	1714.66
721.05	1685.99
721.237	1628.65
721.424	1665.51
721.611	1716.71
721.798	1718.76
721.985	1618.41
722.172	1475.05
722.358	1599.98
722.545	1579.5
722.732	1608.17
722.919	1544.68
723.106	1556.97
723.293	1610.22
723.48	1626.6
723.667	1540.58
723.853	1563.11
724.04	1532.39
724.227	1536.49
724.414	1473
724.6	1546.73
724.787	1595.88
724.974	1483.24
725.161	1343.98
725.347	1548.78
725.534	1454.57
725.72	1624.55
725.907	1507.82
726.094	1487.34
726.28	1497.58
726.467	1501.67
726.653	1458.67
726.84	1448.43
727.027	1421.8
727.213	1421.8
727.4	1475.05
727.586	1399.27
727.773	1497.58
727.959	1491.43
728.145	1417.71
728.332	1411.56
728.518	1479.15
728.705	1429.99
728.891	1399.27
729.077	1460.71
729.264	1432.04
729.45	1389.03
729.636	1434.09
729.823	1411.56
730.009	1432.04
730.195	1393.13
730.382	1446.38
730.568	1339.88
730.754	1432.04
730.94	1397.23
731.126	1446.38
731.313	1384.94
731.499	1391.08
731.685	1253.87
731.871	1321.45
732.057	1321.45
732.243	1458.67
732.429	1393.13
732.615	1395.18
732.801	1303.02
732.987	1323.5
733.173	1255.92
733.359	1360.36
733.545	1329.64
733.731	1233.39
733.917	1395.18
734.103	1268.2
734.289	1413.61
734.475	1237.49
734.661	1253.87
734.847	1249.77
735.033	1343.98
735.219	1309.16
735.404	1247.72
735.59	1278.44
735.776	1235.44
735.962	1260.01
736.148	1231.34
736.333	1202.67
736.519	1253.87
736.705	1176.05
736.89	1184.24
737.076	1270.25
737.262	1153.52
737.447	1180.14
737.633	1272.3
737.819	1225.2
738.004	1161.71
738.19	1245.68
738.375	1192.43
738.561	1192.43
738.747	1227.25
738.932	1184.24
739.118	1167.85
739.303	1120.75
739.489	1184.24
739.674	1120.75
739.859	1116.65
740.045	1212.91
740.23	1184.24
740.416	1153.52
740.601	1122.8
740.786	1100.27
740.972	1040.88
741.157	1212.91
741.342	1106.42
741.528	1024.5
741.713	1135.09
741.898	1098.22
742.084	1026.54
742.269	1122.8
742.454	1071.6
742.639	1053.17
742.824	1143.28
743.01	983.54
743.195	1049.07
743.38	1065.46
743.565	1032.69
743.75	1028.59
743.935	1106.42
744.12	1044.98
744.305	1030.64
744.49	961.01
744.675	1106.42
744.86	1073.65
745.045	1063.41
745.23	1044.98
745.415	1087.98
745.6	1004.02
745.785	1067.5
745.97	973.3
746.155	989.68
746.34	1004.02
746.525	1030.64
746.71	1036.78
746.895	942.58
747.079	963.06
747.264	909.81
747.449	954.87
747.634	883.19
747.819	948.72
748.003	975.35
748.188	932.34
748.373	831.99
748.557	920.05
748.742	893.43
748.927	954.87
749.111	905.71
749.296	944.63
749.481	881.14
749.665	793.08
749.85	926.19
750.034	887.28
750.219	909.81
750.404	813.56
750.588	889.33
750.773	856.56
750.957	809.46
751.141	913.91
751.326	891.38
751.51	750.07
751.695	756.21
751.879	799.22
752.064	803.32
752.248	805.36
752.432	813.56
752.617	848.37
752.801	838.13
752.985	856.56
753.17	819.7
753.354	836.08
753.538	813.56
753.722	735.73
753.907	809.46
754.091	758.26
754.275	723.44
754.459	715.25
754.643	780.79
754.828	793.08
755.012	696.82
755.196	768.5
755.38	719.35
755.564	791.03
755.748	743.92
755.932	702.97
756.116	731.64
756.3	768.5
756.484	668.15
756.668	700.92
756.852	684.53
757.036	698.87
757.22	629.24
757.404	651.77
757.588	674.29
757.772	592.37
757.956	662.01
758.14	623.09
758.323	702.97
758.507	649.72
758.691	608.76
758.875	684.53
759.059	662.01
759.242	606.71
759.426	672.25
759.61	532.98
759.794	643.57
759.977	582.14
760.161	586.23
760.345	582.14
760.528	633.33
760.712	608.76
760.895	625.14
761.079	563.7
761.263	541.18
761.446	659.96
761.63	557.56
761.813	612.85
761.997	524.79
762.18	565.75
762.364	600.57
762.547	506.36
762.731	612.85
762.914	608.76
763.098	541.18
763.281	551.42
763.464	567.8
763.648	518.65
763.831	481.78
764.015	489.98
764.198	565.75
764.381	539.13
764.564	565.75
764.748	535.03
764.931	565.75
765.114	520.7
765.297	477.69
765.481	471.54
765.664	518.65
765.847	471.54
766.03	520.7
766.213	471.54
766.397	598.52
766.58	453.11
766.763	461.3
766.946	567.8
767.129	549.37
767.312	481.78
767.495	479.74
767.678	508.41
767.861	545.27
768.044	453.11
768.227	492.02
768.41	492.02
768.593	543.22
768.776	530.94
768.959	438.78
769.142	432.63
769.324	498.17
769.507	520.7
769.69	428.54
769.873	512.5
770.056	516.6
770.239	481.78
770.421	518.65
770.604	510.46
770.787	475.64
770.97	496.12
771.152	457.21
771.335	440.83
771.518	492.02
771.7	481.78
771.883	475.64
772.066	530.94
772.248	408.06
772.431	481.78
772.613	426.49
772.796	494.07
772.978	453.11
773.161	457.21
773.343	453.11
773.526	430.59
773.708	403.96
773.891	410.11
774.073	449.02
774.256	434.68
774.438	475.64
774.621	428.54
774.803	446.97
774.985	436.73
775.168	465.4
775.35	338.43
775.532	422.39
775.715	442.87
775.897	371.19
776.079	446.97
776.261	344.57
776.444	403.96
776.626	389.63
776.808	412.15
776.99	391.67
777.173	449.02
777.355	338.43
777.537	440.83
777.719	365.05
777.901	356.86
778.083	377.34
778.265	375.29
778.447	356.86
778.629	326.14
778.811	385.53
778.993	412.15
779.175	385.53
779.357	363
779.539	360.95
779.721	336.38
779.903	358.91
780.085	340.47
780.267	403.96
780.449	348.67
780.631	373.24
780.812	309.76
780.994	373.24
781.176	301.56
781.358	348.67
781.54	315.9
781.721	236.03
781.903	283.13
782.085	338.43
782.267	285.18
782.448	250.36
782.63	358.91
782.812	262.65
782.993	272.89
783.175	320
783.357	231.93
783.538	317.95
783.72	385.53
783.901	266.75
784.083	299.52
784.264	330.23
784.446	233.98
784.627	311.8
784.809	375.29
784.99	203.26
785.172	344.57
785.353	199.16
785.535	279.04
785.716	309.76
785.897	311.8
786.079	215.55
786.26	297.47
786.441	283.13
786.623	260.6
786.804	274.94
786.985	346.62
787.167	195.07
787.348	156.16
787.529	315.9
787.71	256.51
787.891	244.22
788.073	178.69
788.254	246.27
788.435	252.41
788.616	289.28
788.797	176.64
788.978	160.25
789.159	182.78
789.34	246.27
789.522	217.6
789.703	188.93
789.884	195.07
790.065	238.08
790.246	291.32
790.427	229.88
790.607	289.28
790.788	219.64
790.969	145.92
791.15	221.69
791.331	295.42
791.512	242.17
791.693	240.12
791.874	260.6
792.054	201.21
792.235	225.79
792.416	201.21
792.597	305.66
792.778	201.21
792.958	201.21
793.139	98.81
793.32	203.26
793.5	197.12
793.681	164.35
793.862	190.97
794.042	248.32
794.223	150.01
794.404	219.64
794.584	229.88
794.765	201.21
794.945	107.01
795.126	231.93
795.306	215.55
795.487	143.87
795.667	199.16
795.848	199.16
796.028	166.4
796.209	215.55
796.389	211.45
796.57	113.15
796.75	217.6
796.93	145.92
797.111	176.64
797.291	143.87
797.471	133.63
797.652	139.77
797.832	238.08
798.012	176.64
798.192	154.11
798.373	107.01
798.553	174.59
798.733	166.4
798.913	199.16
799.093	154.11
799.274	76.29
799.454	141.82
799.634	223.74
799.814	203.26
799.994	197.12
800.174	160.25
800.354	174.59
800.534	197.12
800.714	107.01
800.894	174.59
801.074	107.01
801.254	154.11
801.434	145.92
801.614	178.69
801.794	209.4
801.974	377.34
802.154	182.78
802.334	176.64
802.514	98.81
802.693	147.97
802.873	147.97
803.053	150.01
803.233	98.81
803.413	176.64
803.592	119.29
803.772	59.9
803.952	117.25
804.131	115.2
804.311	150.01
804.491	109.05
804.67	164.35
804.85	150.01
805.03	125.44
805.209	156.16
805.389	104.96
805.568	109.05
805.748	109.05
805.928	135.68
806.107	143.87
806.287	100.86
806.466	119.29
806.646	59.9
806.825	174.59
807.004	209.4
807.184	123.39
807.363	129.53
807.543	76.29
807.722	133.63
807.901	57.86
808.081	102.91
808.26	55.81
808.439	127.49
808.619	107.01
808.798	104.96
808.977	154.11
809.156	152.06
809.336	174.59
809.515	98.81
809.694	74.24
809.873	74.24
810.052	127.49
810.231	158.21
810.411	115.2
810.59	102.91
810.769	131.58
810.948	86.53
811.127	104.96
811.306	119.29
811.485	84.48
811.664	90.62
811.843	121.34
812.022	127.49
812.201	150.01
812.38	156.16
812.559	92.67
812.737	100.86
812.916	135.68
813.095	43.52
813.274	166.4
813.453	51.71
813.632	102.91
813.811	135.68
813.989	86.53
814.168	96.77
814.347	10.75
814.526	147.97
814.704	100.86
814.883	84.48
815.062	102.91
815.24	61.95
815.419	154.11
815.598	88.57
815.776	88.57
815.955	109.05
816.133	109.05
816.312	84.48
816.49	111.1
816.669	107.01
816.847	39.42
817.026	121.34
817.204	111.1
817.383	41.47
817.561	143.87
817.74	88.57
817.918	137.73
818.097	86.53
818.275	154.11
818.453	86.53
818.632	90.62
818.81	94.72
818.988	133.63
819.167	154.11
819.345	94.72
819.523	74.24
819.701	27.14
819.879	139.77
820.058	82.43
820.236	84.48
820.414	51.71
820.592	125.44
820.77	117.25
820.948	127.49
821.127	64
821.305	80.38
821.483	64
821.661	86.53
821.839	76.29
822.017	133.63
822.195	121.34
822.373	123.39
822.551	102.91
822.729	133.63
822.907	98.81
823.085	29.18
823.262	111.1
823.44	49.66
823.618	23.04
823.796	139.77
823.974	145.92
824.152	68.09
824.329	25.09
824.507	84.48
824.685	39.42
824.863	66.05
825.04	188.93
825.218	43.52
825.396	49.66
825.574	82.43
825.751	70.14
825.929	41.47
826.107	88.57
826.284	23.04
826.462	23.04
826.639	145.92
826.817	88.57
826.994	117.25
827.172	43.52
827.349	117.25
827.527	43.52
827.704	25.09
827.882	49.66
828.059	96.77
828.237	80.38
828.414	104.96
828.591	119.29
828.769	70.14
828.946	53.76
829.124	150.01
829.301	72.19
829.478	145.92
829.655	64
829.833	39.42
830.01	37.38
830.187	33.28
830.364	14.85
830.542	121.34
830.719	53.76
830.896	88.57
831.073	12.8
831.25	119.29
831.427	74.24
831.604	92.67
831.782	41.47
831.959	37.38
832.136	45.57
832.313	78.33
832.49	72.19
832.667	68.09
832.844	107.01
833.021	45.57
833.198	76.29
833.374	82.43
833.551	61.95
833.728	27.14
833.905	76.29
834.082	39.42
834.259	23.04
834.436	86.53
834.612	33.28
834.789	92.67
834.966	31.23
835.143	31.23
835.319	-22.02
835.496	27.14
835.673	68.09
835.85	68.09
836.026	18.94
836.203	53.76
836.38	92.67
836.556	33.28
836.733	76.29
836.909	90.62
837.086	51.71
837.262	82.43
837.439	18.94
837.616	-7.68
837.792	35.33
837.968	-1.54
838.145	66.05
838.321	25.09
838.498	6.66
838.674	49.66
838.851	72.19
839.027	20.99
839.203	94.72
839.38	80.38
839.556	115.2
839.732	49.66
839.909	80.38
840.085	6.66
840.261	27.14
840.437	72.19
840.614	43.52
840.79	53.76
840.966	86.53
841.142	37.38
841.318	49.66
841.494	35.33
841.671	0.51
841.847	23.04
842.023	12.8
842.199	70.14
842.375	68.09
842.551	68.09
842.727	49.66
842.903	68.09
843.079	121.34
843.255	82.43
843.431	-38.4
843.607	143.87
843.783	68.09
843.959	51.71
844.134	59.9
844.31	98.81
844.486	6.66
844.662	37.38
844.838	29.18
845.013	80.38
845.189	45.57
845.365	100.86
845.541	82.43
845.716	74.24
845.892	29.18
846.068	18.94
846.244	88.57
846.419	117.25
846.595	-5.63
846.77	25.09
846.946	33.28
847.122	70.14
847.297	-58.88
847.473	162.3
847.648	25.09
847.824	113.15
847.999	80.38
848.175	23.04
848.35	45.57
848.526	37.38
848.701	31.23
848.876	18.94
849.052	98.81
849.227	84.48
849.403	12.8
849.578	37.38
849.753	-1.54
849.929	70.14
850.104	59.9
850.279	57.86
850.454	61.95
850.63	51.71
850.805	-9.73
850.98	45.57
851.155	20.99
851.33	12.8
851.505	43.52
851.681	43.52
851.856	96.77
852.031	-22.02
852.206	72.19
852.381	94.72
852.556	49.66
852.731	80.38
852.906	41.47
853.081	51.71
853.256	-60.93
853.431	64
853.606	20.99
853.781	33.28
853.956	-48.64
854.131	16.9
854.305	31.23
854.48	27.14
854.655	16.9
854.83	74.24
855.005	33.28
855.18	41.47
855.354	47.62
855.529	27.14
855.704	-30.21
855.879	74.24
856.053	51.71
856.228	53.76
856.403	25.09
856.577	27.14
856.752	33.28
856.926	45.57
857.101	8.7
857.276	-7.68
857.45	33.28
857.625	98.81
857.799	47.62
857.974	139.77
858.148	45.57
858.323	18.94
858.497	23.04
858.672	20.99
858.846	64
859.02	94.72
859.195	-5.63
859.369	43.52
859.543	96.77
859.718	-15.87
859.892	78.33
860.066	-5.63
860.241	68.09
860.415	35.33
860.589	59.9
860.763	57.86
860.938	-38.4
861.112	-3.58
861.286	51.71
861.46	-3.58
861.634	-1.54
861.808	94.72
861.982	14.85
862.157	-13.82
862.331	-7.68
862.505	64
862.679	68.09
862.853	20.99
863.027	4.61
863.201	6.66
863.375	27.14
863.549	-24.06
863.722	51.71
863.896	92.67
864.07	23.04
864.244	82.43
864.418	53.76
864.592	78.33
864.766	18.94
864.939	55.81
865.113	107.01
865.287	-15.87
865.461	-26.11
865.634	35.33
865.808	70.14
865.982	-24.06
866.156	35.33
866.329	117.25
866.503	43.52
866.676	25.09
866.85	33.28
867.024	31.23
867.197	59.9
867.371	43.52
867.544	-5.63
867.718	45.57
867.891	23.04
868.065	35.33
868.238	-9.73
868.412	117.25
868.585	-40.45
868.759	35.33
868.932	37.38
869.105	49.66
869.279	-11.78
869.452	16.9
869.625	-11.78
869.799	49.66
869.972	39.42
870.145	-22.02
870.319	2.56
870.492	29.18
870.665	10.75
870.838	12.8
871.011	0.51
871.185	-24.06
871.358	47.62
871.531	-15.87
871.704	125.44
871.877	-11.78
872.05	27.14
872.223	16.9
872.396	18.94
872.569	47.62
872.742	20.99
872.915	43.52
873.088	80.38
873.261	49.66
873.434	-50.69
873.607	-26.11
873.78	61.95
873.953	80.38
874.126	43.52
874.299	0.51
874.471	102.91
874.644	80.38
874.817	31.23
874.99	27.14
875.163	4.61
875.335	45.57
875.508	16.9
875.681	43.52
875.853	18.94
876.026	-1.54
876.199	57.86
876.371	8.7
876.544	68.09
876.717	51.71
876.889	31.23
877.062	-11.78
877.234	53.76
877.407	55.81
877.579	-7.68
877.752	107.01
877.924	76.29
878.097	-9.73
878.269	-26.11
878.442	68.09
878.614	64
878.786	59.9
878.959	23.04
879.131	8.7
879.303	8.7
879.476	-7.68
879.648	18.94
879.82	14.85
879.993	31.23
880.165	39.42
880.337	61.95
880.509	-9.73
880.681	16.9
880.854	41.47
881.026	-19.97
881.198	117.25
881.37	0.51
881.542	70.14
881.714	88.57
881.886	59.9
882.058	35.33
882.23	57.86
882.402	-7.68
882.574	25.09
882.746	39.42
882.918	53.76
883.09	70.14
883.262	96.77
883.434	16.9
883.606	45.57
883.778	43.52
883.95	31.23
884.122	35.33
884.293	74.24
884.465	16.9
884.637	-24.06
884.809	59.9
884.98	-24.06
885.152	18.94
885.324	49.66
885.496	-28.16
885.667	33.28
885.839	80.38
886.011	51.71
886.182	33.28
886.354	6.66
886.525	41.47
886.697	23.04
886.869	86.53
887.04	-1.54
887.212	109.05
887.383	-3.58
887.555	-22.02
887.726	61.95
887.897	27.14
888.069	59.9
888.24	-1.54
888.412	14.85
888.583	14.85
888.754	37.38
888.926	-15.87
889.097	8.7
889.268	53.76
889.44	68.09
889.611	20.99
889.782	14.85
889.953	27.14
890.125	33.28
890.296	29.18
890.467	43.52
890.638	-15.87
890.809	25.09
890.98	31.23
891.151	43.52
891.323	-3.58
891.494	74.24
891.665	-5.63
891.836	18.94
892.007	27.14
892.178	-42.5
892.349	104.96
892.52	53.76
892.691	-28.16
892.862	23.04
893.032	57.86
893.203	57.86
893.374	23.04
893.545	39.42
893.716	-24.06
893.887	14.85
894.057	18.94
894.228	35.33
894.399	90.62
894.57	37.38
894.74	10.75
894.911	43.52
895.082	10.75
895.253	-34.3
895.423	14.85
895.594	59.9
895.764	-1.54
895.935	-3.58
896.106	-3.58
896.276	96.77
896.447	-9.73
896.617	-44.54
896.788	-40.45
896.958	-95.74
897.129	27.14
897.299	49.66
897.47	57.86
897.64	-3.58
897.81	29.18
897.981	16.9
898.151	-17.92
898.322	-11.78
898.492	-9.73
898.662	-32.26
898.832	-24.06
899.003	27.14
899.173	14.85
899.343	8.7
899.513	90.62
