Data from USB4F104151__242__14-01-17-976.txt Node

Date: Thu Mar 13 14:01:17 EDT 2025
User: louis
Spectrometer: USB4F10415
Trigger mode: 4
Integration Time (sec): 1.000000E-2
Scans to average: 1
Electric dark correction enabled: true
Nonlinearity correction enabled: false
Boxcar width: 0
XAxis mode: Wavelengths
Number of Pixels in Spectrum: 3648
>>>>>Begin Spectral Data<<<<<
178.204	-68.78
178.424	-68.78
178.644	-68.78
178.864	-33.96
179.084	-54.44
179.304	-1.19
179.524	-46.25
179.744	17.24
179.964	19.29
180.184	7
180.404	11.09
180.624	4.95
180.844	-15.53
181.064	7
181.283	50
181.503	-62.63
181.723	9.05
181.943	23.38
182.163	17.24
182.383	-23.72
182.602	88.92
182.822	17.24
183.042	70.48
183.262	-60.59
183.482	17.24
183.701	-9.39
183.921	-11.43
184.141	-72.87
184.361	64.34
184.58	37.72
184.8	-31.91
185.02	-15.53
185.239	103.25
185.459	56.15
185.679	76.63
185.898	2.9
186.118	13.14
186.338	45.91
186.557	50
186.777	31.57
186.997	0.85
187.216	-48.3
187.436	17.24
187.655	43.86
187.875	72.53
188.095	-15.53
188.314	119.64
188.534	25.43
188.753	25.43
188.973	-29.87
189.192	50
189.412	90.96
189.631	-56.49
189.851	-3.24
190.07	0.85
190.29	-56.49
190.509	9.05
190.729	11.09
190.948	7
191.168	11.09
191.387	29.52
191.607	62.29
191.826	41.81
192.045	117.59
192.265	70.48
192.484	11.09
192.704	52.05
192.923	43.86
193.142	101.2
193.362	-42.15
193.581	66.39
193.8	33.62
194.02	99.16
194.239	17.24
194.458	-7.34
194.678	41.81
194.897	56.15
195.116	27.48
195.335	78.68
195.555	47.96
195.774	27.48
195.993	60.24
196.212	2.9
196.432	-50.35
196.651	58.2
196.87	43.86
197.089	60.24
197.308	19.29
197.528	-38.06
197.747	-27.82
197.966	64.34
198.185	90.96
198.404	52.05
198.623	11.09
198.842	78.68
199.062	78.68
199.281	-1.19
199.5	7
199.719	66.39
199.938	4.95
200.157	25.43
200.376	43.86
200.595	13.14
200.814	70.48
201.033	25.43
201.252	19.29
201.471	29.52
201.69	29.52
201.909	-38.06
202.128	117.59
202.347	4.95
202.566	9.05
202.785	-1.19
203.004	45.91
203.223	70.48
203.442	52.05
203.661	-7.34
203.879	66.39
204.098	11.09
204.317	-17.58
204.536	19.29
204.755	68.44
204.974	17.24
205.193	-13.48
205.411	74.58
205.63	-17.58
205.849	37.72
206.068	-3.24
206.287	35.67
206.505	43.86
206.724	33.62
206.943	70.48
207.162	13.14
207.381	41.81
207.599	62.29
207.818	111.44
208.037	25.43
208.255	-15.53
208.474	27.48
208.693	76.63
208.911	27.48
209.13	-21.67
209.349	11.09
209.567	54.1
209.786	-1.19
210.005	33.62
210.223	62.29
210.442	4.95
210.661	52.05
210.879	9.05
211.098	35.67
211.316	25.43
211.535	58.2
211.753	-11.43
211.972	-17.58
212.191	0.85
212.409	70.48
212.628	37.72
212.846	11.09
213.065	56.15
213.283	74.58
213.502	35.67
213.72	78.68
213.938	-19.63
214.157	86.87
214.375	-9.39
214.594	68.44
214.812	17.24
215.031	17.24
215.249	-9.39
215.467	11.09
215.686	33.62
215.904	11.09
216.122	29.52
216.341	-1.19
216.559	25.43
216.778	88.92
216.996	88.92
217.214	62.29
217.432	78.68
217.651	-13.48
217.869	17.24
218.087	54.1
218.306	15.19
218.524	-81.07
218.742	76.63
218.96	-46.25
219.179	64.34
219.397	13.14
219.615	68.44
219.833	-3.24
220.051	-38.06
220.27	43.86
220.488	-40.11
220.706	82.77
220.924	19.29
221.142	15.19
221.36	2.9
221.578	43.86
221.796	-11.43
222.015	115.54
222.233	25.43
222.451	35.67
222.669	47.96
222.887	35.67
223.105	35.67
223.323	-31.91
223.541	17.24
223.759	84.82
223.977	-19.63
224.195	-15.53
224.413	35.67
224.631	13.14
224.849	0.85
225.067	78.68
225.285	-15.53
225.503	64.34
225.721	23.38
225.939	62.29
226.157	13.14
226.375	140.12
226.592	-9.39
226.81	19.29
227.028	41.81
227.246	-38.06
227.464	7
227.682	74.58
227.9	70.48
228.117	50
228.335	-7.34
228.553	58.2
228.771	23.38
228.989	54.1
229.206	-5.29
229.424	58.2
229.642	37.72
229.86	13.14
230.077	31.57
230.295	-7.34
230.513	29.52
230.731	-48.3
230.948	50
231.166	33.62
231.384	-5.29
231.601	43.86
231.819	29.52
232.037	11.09
232.254	109.4
232.472	15.19
232.689	-15.53
232.907	33.62
233.125	60.24
233.342	62.29
233.56	74.58
233.777	19.29
233.995	45.91
234.213	-7.34
234.43	-23.72
234.648	62.29
234.865	54.1
235.083	-33.96
235.3	0.85
235.518	29.52
235.735	88.92
235.953	21.33
236.17	33.62
236.388	68.44
236.605	-25.77
236.822	27.48
237.04	97.11
237.257	11.09
237.475	74.58
237.692	60.24
237.909	25.43
238.127	41.81
238.344	64.34
238.562	39.76
238.779	-48.3
238.996	11.09
239.214	-3.24
239.431	45.91
239.648	37.72
239.865	25.43
240.083	-19.63
240.3	93.01
240.517	76.63
240.735	35.67
240.952	52.05
241.169	76.63
241.386	68.44
241.603	13.14
241.821	25.43
242.038	52.05
242.255	74.58
242.472	9.05
242.689	43.86
242.907	93.01
243.124	45.91
243.341	17.24
243.558	-27.82
243.775	103.25
243.992	2.9
244.209	0.85
244.426	43.86
244.643	90.96
244.86	64.34
245.078	115.54
245.295	-15.53
245.512	41.81
245.729	-44.2
245.946	13.14
246.163	23.38
246.38	33.62
246.597	23.38
246.814	60.24
247.031	66.39
247.248	86.87
247.464	35.67
247.681	50
247.898	84.82
248.115	80.72
248.332	0.85
248.549	33.62
248.766	60.24
248.983	31.57
249.2	33.62
249.417	-17.58
249.633	54.1
249.85	86.87
250.067	-1.19
250.284	33.62
250.501	17.24
250.717	4.95
250.934	33.62
251.151	31.57
251.368	80.72
251.585	-9.39
251.801	15.19
252.018	33.62
252.235	86.87
252.451	17.24
252.668	-62.63
252.885	-52.39
253.102	39.76
253.318	52.05
253.535	33.62
253.752	19.29
253.968	27.48
254.185	2.9
254.401	70.48
254.618	-21.67
254.835	33.62
255.051	47.96
255.268	-27.82
255.484	7
255.701	66.39
255.917	129.88
256.134	-23.72
256.351	0.85
256.567	33.62
256.784	29.52
257	47.96
257.217	-36.01
257.433	76.63
257.65	41.81
257.866	39.76
258.082	33.62
258.299	-19.63
258.515	70.48
258.732	31.57
258.948	9.05
259.165	-1.19
259.381	50
259.597	82.77
259.814	37.72
260.03	74.58
260.246	41.81
260.463	13.14
260.679	101.2
260.895	66.39
261.112	82.77
261.328	-11.43
261.544	29.52
261.761	115.54
261.977	76.63
262.193	-1.19
262.409	41.81
262.626	-23.72
262.842	47.96
263.058	72.53
263.274	33.62
263.49	4.95
263.707	66.39
263.923	70.48
264.139	-54.44
264.355	64.34
264.571	21.33
264.787	54.1
265.004	86.87
265.22	101.2
265.436	84.82
265.652	41.81
265.868	-3.24
266.084	27.48
266.3	80.72
266.516	64.34
266.732	88.92
266.948	-19.63
267.164	19.29
267.38	35.67
267.596	105.3
267.812	19.29
268.028	37.72
268.244	29.52
268.46	86.87
268.676	-27.82
268.892	0.85
269.108	54.1
269.324	-13.48
269.54	31.57
269.756	43.86
269.972	-29.87
270.188	45.91
270.403	-9.39
270.619	19.29
270.835	7
271.051	-11.43
271.267	-11.43
271.483	62.29
271.698	64.34
271.914	9.05
272.13	45.91
272.346	9.05
272.562	54.1
272.777	60.24
272.993	-23.72
273.209	70.48
273.425	35.67
273.64	19.29
273.856	-40.11
274.072	-19.63
274.287	25.43
274.503	74.58
274.719	-64.68
274.934	70.48
275.15	13.14
275.366	35.67
275.581	41.81
275.797	33.62
276.012	0.85
276.228	43.86
276.444	4.95
276.659	45.91
276.875	0.85
277.09	0.85
277.306	50
277.521	9.05
277.737	88.92
277.952	54.1
278.168	64.34
278.383	58.2
278.599	35.67
278.814	-58.54
279.03	-17.58
279.245	60.24
279.461	52.05
279.676	33.62
279.892	25.43
280.107	90.96
280.322	84.82
280.538	90.96
280.753	35.67
280.969	17.24
281.184	4.95
281.399	33.62
281.615	0.85
281.83	25.43
282.045	-3.24
282.26	82.77
282.476	52.05
282.691	109.4
282.906	4.95
283.122	56.15
283.337	43.86
283.552	66.39
283.767	70.48
283.983	74.58
284.198	27.48
284.413	82.77
284.628	52.05
284.843	25.43
285.058	41.81
285.274	25.43
285.489	-19.63
285.704	11.09
285.919	17.24
286.134	-17.58
286.349	2.9
286.564	21.33
286.779	17.24
286.995	45.91
287.21	45.91
287.425	50
287.64	78.68
287.855	93.01
288.07	88.92
288.285	93.01
288.5	86.87
288.715	50
288.93	45.91
289.145	0.85
289.36	-3.24
289.575	70.48
289.79	27.48
290.004	74.58
290.219	41.81
290.434	25.43
290.649	64.34
290.864	62.29
291.079	15.19
291.294	43.86
291.509	31.57
291.724	72.53
291.938	-21.67
292.153	41.81
292.368	-23.72
292.583	74.58
292.798	33.62
293.012	76.63
293.227	19.29
293.442	43.86
293.657	52.05
293.871	60.24
294.086	62.29
294.301	54.1
294.516	84.82
294.73	41.81
294.945	27.48
295.16	105.3
295.374	27.48
295.589	35.67
295.804	-21.67
296.018	45.91
296.233	23.38
296.447	76.63
296.662	25.43
296.877	93.01
297.091	15.19
297.306	86.87
297.52	43.86
297.735	82.77
297.949	23.38
298.164	72.53
298.378	-46.25
298.593	19.29
298.807	54.1
299.022	68.44
299.236	80.72
299.451	66.39
299.665	-36.01
299.88	41.81
300.094	-7.34
300.309	74.58
300.523	93.01
300.737	31.57
300.952	-7.34
301.166	115.54
301.381	-52.39
301.595	66.39
301.809	2.9
302.024	15.19
302.238	-11.43
302.452	50
302.667	29.52
302.881	58.2
303.095	84.82
303.309	-5.29
303.524	13.14
303.738	58.2
303.952	109.4
304.166	21.33
304.381	0.85
304.595	17.24
304.809	50
305.023	58.2
305.237	33.62
305.452	50
305.666	45.91
305.88	150.36
306.094	41.81
306.308	-1.19
306.522	-19.63
306.736	23.38
306.95	29.52
307.164	43.86
307.379	0.85
307.593	-7.34
307.807	27.48
308.021	37.72
308.235	64.34
308.449	-21.67
308.663	54.1
308.877	86.87
309.091	60.24
309.305	86.87
309.519	21.33
309.733	119.64
309.947	82.77
310.161	-36.01
310.374	117.59
310.588	58.2
310.802	-15.53
311.016	74.58
311.23	62.29
311.444	-23.72
311.658	35.67
311.872	74.58
312.085	-38.06
312.299	56.15
312.513	82.77
312.727	50
312.941	4.95
313.154	129.88
313.368	15.19
313.582	17.24
313.796	33.62
314.009	95.06
314.223	4.95
314.437	25.43
314.651	-52.39
314.864	9.05
315.078	21.33
315.292	64.34
315.505	19.29
315.719	86.87
315.933	33.62
316.146	78.68
316.36	25.43
316.573	66.39
316.787	27.48
317.001	-7.34
317.214	131.92
317.428	60.24
317.641	35.67
317.855	-33.96
318.068	0.85
318.282	0.85
318.495	56.15
318.709	60.24
318.922	17.24
319.136	41.81
319.349	90.96
319.563	107.35
319.776	-11.43
319.99	9.05
320.203	15.19
320.417	66.39
320.63	50
320.843	37.72
321.057	29.52
321.27	17.24
321.483	68.44
321.697	15.19
321.91	66.39
322.124	4.95
322.337	0.85
322.55	43.86
322.763	37.72
322.977	54.1
323.19	-1.19
323.403	76.63
323.617	97.11
323.83	17.24
324.043	50
324.256	41.81
324.469	29.52
324.683	88.92
324.896	66.39
325.109	-23.72
325.322	0.85
325.535	74.58
325.748	107.35
325.962	66.39
326.175	37.72
326.388	90.96
326.601	7
326.814	95.06
327.027	80.72
327.24	82.77
327.453	11.09
327.666	90.96
327.879	54.1
328.092	29.52
328.305	47.96
328.518	72.53
328.731	35.67
328.944	90.96
329.157	45.91
329.37	35.67
329.583	-19.63
329.796	33.62
330.009	47.96
330.222	33.62
330.435	-13.48
330.648	66.39
330.861	25.43
331.073	-56.49
331.286	76.63
331.499	50
331.712	82.77
331.925	-5.29
332.138	-17.58
332.35	107.35
332.563	-54.44
332.776	72.53
332.989	17.24
333.202	99.16
333.414	58.2
333.627	25.43
333.84	33.62
334.053	19.29
334.265	84.82
334.478	7
334.691	52.05
334.903	37.72
335.116	93.01
335.329	70.48
335.541	78.68
335.754	58.2
335.966	33.62
336.179	70.48
336.392	52.05
336.604	62.29
336.817	54.1
337.029	0.85
337.242	43.86
337.454	93.01
337.667	78.68
337.88	15.19
338.092	-44.2
338.305	-15.53
338.517	-62.63
338.729	70.48
338.942	43.86
339.154	15.19
339.367	74.58
339.579	23.38
339.792	-58.54
340.004	74.58
340.217	58.2
340.429	58.2
340.641	88.92
340.854	19.29
341.066	39.76
341.278	107.35
341.491	90.96
341.703	123.73
341.915	27.48
342.128	43.86
342.34	52.05
342.552	41.81
342.764	52.05
342.977	35.67
343.189	33.62
343.401	35.67
343.613	11.09
343.826	35.67
344.038	-21.67
344.25	19.29
344.462	86.87
344.674	54.1
344.886	33.62
345.099	39.76
345.311	58.2
345.523	58.2
345.735	101.2
345.947	-21.67
346.159	70.48
346.371	50
346.583	-1.19
346.795	105.3
347.007	90.96
347.219	121.68
347.431	56.15
347.643	136.02
347.855	52.05
348.067	50
348.279	17.24
348.491	19.29
348.703	39.76
348.915	13.14
349.127	4.95
349.339	-1.19
349.551	17.24
349.763	9.05
349.975	54.1
350.187	17.24
350.399	21.33
350.61	60.24
350.822	35.67
351.034	43.86
351.246	7
351.458	58.2
351.669	13.14
351.881	88.92
352.093	84.82
352.305	74.58
352.517	97.11
352.728	54.1
352.94	-21.67
353.152	58.2
353.363	17.24
353.575	84.82
353.787	148.31
353.999	66.39
354.21	80.72
354.422	70.48
354.633	23.38
354.845	17.24
355.057	54.1
355.268	-7.34
355.48	43.86
355.692	142.16
355.903	35.67
356.115	-15.53
356.326	0.85
356.538	99.16
356.749	19.29
356.961	115.54
357.172	11.09
357.384	9.05
357.595	25.43
357.807	31.57
358.018	107.35
358.23	50
358.441	93.01
358.653	45.91
358.864	2.9
359.075	45.91
359.287	52.05
359.498	80.72
359.709	74.58
359.921	56.15
360.132	60.24
360.344	54.1
360.555	23.38
360.766	52.05
360.977	-1.19
361.189	58.2
361.4	111.44
361.611	21.33
361.823	33.62
362.034	54.1
362.245	-5.29
362.456	-1.19
362.667	41.81
362.879	80.72
363.09	29.52
363.301	7
363.512	66.39
363.723	41.81
363.935	4.95
364.146	66.39
364.357	17.24
364.568	115.54
364.779	80.72
364.99	27.48
365.201	41.81
365.412	70.48
365.623	60.24
365.834	80.72
366.045	43.86
366.256	11.09
366.467	76.63
366.678	68.44
366.889	31.57
367.1	136.02
367.311	60.24
367.522	25.43
367.733	101.2
367.944	68.44
368.155	-31.91
368.366	93.01
368.577	33.62
368.788	25.43
368.999	138.07
369.209	64.34
369.42	41.81
369.631	74.58
369.842	70.48
370.053	19.29
370.264	76.63
370.474	86.87
370.685	23.38
370.896	50
371.107	107.35
371.317	97.11
371.528	60.24
371.739	99.16
371.95	41.81
372.16	84.82
372.371	107.35
372.582	19.29
372.792	68.44
373.003	13.14
373.214	76.63
373.424	31.57
373.635	90.96
373.846	76.63
374.056	86.87
374.267	113.49
374.477	-15.53
374.688	39.76
374.898	15.19
375.109	131.92
375.319	7
375.53	107.35
375.74	13.14
375.951	86.87
376.161	84.82
376.372	29.52
376.582	-5.29
376.793	23.38
377.003	37.72
377.214	39.76
377.424	7
377.635	33.62
377.845	9.05
378.055	62.29
378.266	35.67
378.476	25.43
378.686	13.14
378.897	109.4
379.107	66.39
379.317	2.9
379.528	15.19
379.738	54.1
379.948	72.53
380.158	97.11
380.369	56.15
380.579	56.15
380.789	-68.78
380.999	82.77
381.21	-11.43
381.42	119.64
381.63	113.49
381.84	-3.24
382.05	74.58
382.261	82.77
382.471	45.91
382.681	50
382.891	68.44
383.101	50
383.311	43.86
383.521	-3.24
383.731	136.02
383.941	33.62
384.151	2.9
384.361	111.44
384.571	-19.63
384.781	17.24
384.991	41.81
385.201	88.92
385.411	4.95
385.621	33.62
385.831	52.05
386.041	27.48
386.251	60.24
386.461	50
386.671	50
386.881	70.48
387.091	43.86
387.301	70.48
387.511	9.05
387.72	62.29
387.93	133.97
388.14	37.72
388.35	47.96
388.56	56.15
388.769	62.29
388.979	58.2
389.189	74.58
389.399	62.29
389.609	56.15
389.818	39.76
390.028	11.09
390.238	123.73
390.447	-19.63
390.657	19.29
390.867	54.1
391.076	-1.19
391.286	84.82
391.496	41.81
391.705	19.29
391.915	117.59
392.125	17.24
392.334	-3.24
392.544	121.68
392.753	88.92
392.963	72.53
393.172	90.96
393.382	25.43
393.591	78.68
393.801	50
394.01	37.72
394.22	45.91
394.429	123.73
394.639	47.96
394.848	19.29
395.058	84.82
395.267	35.67
395.477	33.62
395.686	129.88
395.895	113.49
396.105	15.19
396.314	68.44
396.524	27.48
396.733	148.31
396.942	64.34
397.152	107.35
397.361	29.52
397.57	54.1
397.78	-21.67
397.989	97.11
398.198	99.16
398.407	140.12
398.617	138.07
398.826	76.63
399.035	95.06
399.244	99.16
399.453	125.78
399.663	107.35
399.872	33.62
400.081	70.48
400.29	84.82
400.499	95.06
400.708	103.25
400.917	82.77
401.127	90.96
401.336	74.58
401.545	109.4
401.754	148.31
401.963	131.92
402.172	131.92
402.381	121.68
402.59	66.39
402.799	103.25
403.008	101.2
403.217	174.93
403.426	50
403.635	113.49
403.844	50
404.053	50
404.262	127.83
404.471	138.07
404.68	127.83
404.888	74.58
405.097	101.2
405.306	117.59
405.515	101.2
405.724	131.92
405.933	158.55
406.142	183.12
406.35	105.3
406.559	109.4
406.768	43.86
406.977	136.02
407.185	109.4
407.394	179.03
407.603	117.59
407.812	152.4
408.02	162.64
408.229	166.74
408.438	109.4
408.646	205.65
408.855	103.25
409.064	230.23
409.272	78.68
409.481	168.79
409.69	172.88
409.898	228.18
410.107	191.31
410.315	224.08
410.524	193.36
410.733	185.17
410.941	219.99
411.15	232.27
411.358	215.89
411.567	248.66
411.775	258.9
411.984	297.81
412.192	287.57
412.401	318.29
412.609	238.42
412.818	254.8
413.026	258.9
413.234	310.1
413.443	367.44
413.651	308.05
413.86	326.48
414.068	320.34
414.276	342.86
414.485	353.1
414.693	445.26
414.901	361.3
415.11	435.02
415.318	396.11
415.526	402.26
415.734	482.13
415.943	451.41
416.151	447.31
416.359	484.17
416.567	557.9
416.776	535.37
416.984	602.96
417.192	598.86
417.4	529.23
417.608	545.61
417.817	627.53
418.025	559.95
418.233	774.99
418.441	674.64
418.649	715.59
418.857	742.22
419.065	729.93
419.273	736.07
419.481	725.83
419.689	840.52
419.897	955.21
420.105	824.14
420.313	883.53
420.521	885.58
420.729	942.92
420.937	1012.55
421.145	953.16
421.353	1131.33
421.561	1100.61
421.769	1157.96
421.977	1135.43
422.185	1106.76
422.393	1186.63
422.601	1356.61
422.809	1284.93
423.017	1366.85
423.224	1362.75
423.432	1475.39
423.64	1416
423.848	1557.31
424.056	1518.4
424.263	1663.8
424.471	1692.48
424.679	1626.94
424.887	1700.67
425.094	1755.96
425.302	1846.07
425.51	1884.98
425.718	1897.27
425.925	1925.94
426.133	2118.45
426.341	2284.34
426.548	2296.63
426.756	2181.94
426.964	2270
427.171	2388.78
427.379	2501.42
427.586	2425.65
427.794	2519.85
428.001	2726.7
428.209	2698.03
428.417	2728.75
428.624	2941.74
428.832	2894.63
429.039	2915.11
429.247	2917.16
429.454	3273.51
429.662	3355.43
429.869	3195.68
430.076	3455.78
430.284	3316.51
430.491	3343.14
430.699	3556.13
430.906	3707.68
431.114	3597.09
431.321	3875.61
431.528	3875.61
431.736	4119.32
431.943	4432.66
432.15	4277.01
432.358	4211.48
432.565	4438.8
432.772	4469.52
432.979	4735.76
433.187	4842.25
433.394	4702.99
433.601	5071.62
433.808	5149.45
434.016	5122.82
434.223	5440.26
434.43	5640.96
434.637	5505.79
434.844	5786.37
435.052	6023.93
435.259	5872.38
435.466	5911.29
435.673	5866.24
435.88	6337.27
436.087	6621.94
436.294	6648.56
436.501	6544.11
436.708	6576.88
436.915	6857.45
437.122	7107.3
437.329	7234.28
437.537	7299.81
437.743	7463.65
437.95	7387.88
438.157	7611.11
438.364	7981.79
438.571	8000.22
438.778	8094.43
438.985	8653.52
439.192	8501.97
439.399	8585.94
439.606	8405.72
439.813	9204.42
440.02	9646.79
440.227	9315.02
440.433	9386.69
440.64	9560.77
440.847	9648.83
441.054	9802.43
441.261	10367.67
441.467	10384.05
441.674	10449.59
441.881	10998.45
442.088	10941.1
442.294	10900.14
442.501	11143.85
442.708	11375.27
442.914	11776.67
443.121	12104.35
443.328	11969.18
443.534	12956.3
443.741	12188.32
443.948	12225.18
444.154	13095.57
444.361	12855.95
444.568	12962.45
444.774	13105.81
444.981	13097.61
445.187	13544.07
445.394	14150.27
445.6	13939.33
445.807	15182.45
446.013	14946.93
446.22	15084.14
446.426	15389.29
446.633	15782.5
446.839	16085.6
447.046	15518.31
447.252	16411.23
447.459	16310.88
447.665	16532.06
447.871	17099.34
448.078	17627.72
448.284	16978.51
448.491	17455.69
448.697	18242.11
448.903	18129.47
449.11	18358.85
449.316	18094.66
449.522	18487.87
449.728	18971.19
449.935	18938.42
450.141	19059.25
450.347	19591.72
450.553	18973.24
450.76	19235.38
450.966	19980.84
451.172	19765.8
451.378	20324.9
451.584	19653.16
451.791	20273.7
451.997	20050.47
452.203	20337.18
452.409	20566.56
452.615	20300.32
452.821	19718.7
453.027	19493.42
453.233	20681.24
453.44	19667.5
453.646	20029.99
453.852	20095.52
454.058	20220.45
454.264	19608.11
454.47	20036.13
454.676	19327.53
454.882	20144.67
455.088	18514.49
455.294	18721.34
455.5	18932.28
455.705	19163.7
455.911	18434.62
456.117	18274.88
456.323	17506.89
456.529	16865.88
456.735	17775.17
456.941	17326.67
457.147	16976.47
457.352	16671.32
457.558	16239.2
457.764	16292.44
457.97	16005.73
458.176	15544.94
458.381	15606.38
458.587	15088.24
458.793	14559.86
458.999	14127.74
459.204	15123.05
459.41	14590.58
459.616	13689.48
459.821	13724.29
460.027	13873.79
460.233	13363.85
460.438	12876.43
460.644	12782.23
460.85	12104.35
461.055	12065.44
461.261	12026.53
461.466	11139.76
461.672	10988.21
461.878	11575.97
462.083	10998.45
462.289	10732.21
462.494	10707.63
462.7	10083
462.905	9677.51
463.111	10025.66
463.316	10076.86
463.522	9816.77
463.727	10027.71
463.932	9960.13
464.138	9880.25
464.343	10035.9
464.549	9673.41
464.754	9933.5
464.959	9843.39
465.165	9913.02
465.37	9349.83
465.575	9224.9
465.781	9665.22
465.986	9720.51
466.191	9210.57
466.397	9093.83
466.602	8663.76
466.807	8958.67
467.012	8833.74
467.218	8981.2
467.423	8897.23
467.628	8903.37
467.833	9157.32
468.038	8817.36
468.244	8495.83
468.449	9188.04
468.654	8639.19
468.859	8610.51
469.064	8649.43
469.269	8139.48
469.474	8295.13
469.679	8438.48
469.885	8432.34
470.09	8192.73
470.295	8295.13
470.5	8127.19
470.705	8149.72
470.91	8012.51
471.115	7828.19
471.32	7918.3
471.525	7856.86
471.73	7650.02
471.935	7715.55
472.139	7488.23
472.344	7668.45
472.549	7537.38
472.754	7252.71
472.959	7271.14
473.164	7006.95
473.369	7015.15
473.574	7193.32
473.778	7121.64
473.983	7121.64
474.188	7191.27
474.393	6740.72
474.598	6759.15
474.802	6918.89
475.007	6869.74
475.212	6623.98
475.417	6578.93
475.621	6562.55
475.826	6570.74
476.031	6456.05
476.235	6269.69
476.44	6423.28
476.645	6161.14
476.849	6138.62
477.054	6130.42
477.259	6116.09
477.463	5958.39
477.668	5880.57
477.872	6087.42
478.077	5866.24
478.282	5501.7
478.486	5636.86
478.691	5675.77
478.895	5645.06
479.1	5612.29
479.304	5573.38
479.509	5456.64
479.713	5565.18
479.918	5409.54
480.122	5247.75
480.326	5548.8
480.531	5485.31
480.735	5415.68
480.94	5206.79
481.144	5356.29
481.348	5260.04
481.553	5350.15
481.757	5208.84
481.961	5317.38
482.166	5446.4
482.37	5305.09
482.574	5329.67
482.778	5174.02
482.983	5333.76
483.187	5217.03
483.391	5202.69
483.595	5249.8
483.8	5208.84
484.004	5262.09
484.208	5333.76
484.412	5190.41
484.616	5110.54
484.821	5079.82
485.025	5141.25
485.229	5225.22
485.433	5122.82
485.637	5235.46
485.841	5327.62
486.045	5032.71
486.249	5180.17
486.453	5210.89
486.657	5251.85
486.861	5198.6
487.065	5049.1
487.269	5301
487.473	5206.79
487.677	5452.55
487.881	5141.25
488.085	5135.11
488.289	5198.6
488.493	5219.08
488.697	5288.71
488.901	5180.17
489.105	5352.2
489.309	5364.48
489.512	5286.66
489.716	5214.98
489.92	5303.04
490.124	5257.99
490.328	5477.12
490.531	5245.7
490.735	5278.47
490.939	5497.6
491.143	5358.34
491.346	5399.3
491.55	5567.23
491.754	5522.18
491.958	5401.35
492.161	5477.12
492.365	5606.14
492.569	5569.28
492.772	5640.96
492.976	5470.98
493.18	5808.89
493.383	5653.25
493.587	5735.17
493.79	5718.78
493.994	5761.79
494.197	5671.68
494.401	5919.48
494.605	5829.37
494.808	5980.92
495.012	6058.74
495.215	6120.18
495.419	6140.66
495.622	6173.43
495.825	6050.55
496.029	6144.76
496.232	6277.88
496.436	6411
496.639	6400.76
496.843	6388.47
497.046	6537.97
497.249	6566.64
497.453	6607.6
497.656	6656.75
497.859	6798.06
498.063	6681.33
498.266	6904.56
498.469	6890.22
498.673	7099.11
498.876	7029.48
499.079	7318.25
499.282	7095.02
499.485	7365.35
499.689	7342.82
499.892	7598.82
500.095	7541.47
500.298	7840.48
500.501	7619.3
500.705	7918.3
500.908	8145.63
501.111	8157.91
501.314	8014.56
501.517	8104.67
501.72	8256.22
501.923	8325.85
502.126	8561.36
502.329	8710.86
502.532	8674
502.735	8776.4
502.938	8944.33
503.141	8964.81
503.344	9183.95
503.547	9050.83
503.75	9564.87
503.953	9568.96
504.156	9648.83
504.359	9845.44
504.562	9757.38
504.765	10216.12
504.968	10087.1
505.17	10111.68
505.373	10083
505.576	10488.5
505.779	10363.58
505.982	10785.46
506.185	10828.46
506.387	10994.35
506.59	11090.6
506.793	11178.67
506.996	11338.41
507.198	11518.63
507.401	11676.32
507.604	11840.16
507.807	12026.53
508.009	11938.46
508.212	12190.36
508.415	12268.19
508.617	12632.72
508.82	12571.29
509.022	12606.1
509.225	12880.53
509.428	13118.09
509.63	13357.71
509.833	13265.55
510.035	13621.89
510.238	13625.99
510.44	13910.66
510.643	14117.5
510.845	14019.2
511.048	14189.18
511.25	14424.7
511.453	14412.41
511.655	14922.35
511.858	14844.53
512.06	15071.86
512.262	15215.21
512.465	15616.62
512.667	15372.91
512.87	15829.6
513.072	15710.82
513.274	16343.64
513.477	16378.46
513.679	16484.95
513.881	16704.09
514.084	16908.88
514.286	17220.17
514.488	17080.91
514.69	17816.13
514.893	17744.45
515.095	17920.58
515.297	18145.86
515.499	18172.48
515.701	18483.77
515.904	18639.42
516.106	18858.55
516.308	18842.17
516.51	19243.57
516.712	19376.69
516.914	19698.22
517.116	19958.31
517.318	19993.12
517.52	20236.83
517.722	20341.28
517.925	20804.12
518.127	21008.92
518.329	20840.98
518.531	21043.73
518.733	21613.07
518.935	21711.37
519.136	21742.09
519.338	22311.42
519.54	22422.02
519.742	22450.69
519.944	22682.11
520.146	23271.92
520.348	23331.31
520.55	23325.17
520.752	23482.86
520.954	23927.27
521.155	23745
521.357	24547.81
521.559	24674.78
521.761	24836.57
521.963	24924.63
522.164	25029.08
522.366	25170.39
522.568	25440.72
522.77	25598.41
522.971	25776.59
523.173	26087.88
523.375	25995.72
523.576	26251.72
523.778	26237.38
523.98	26681.79
524.181	26923.45
524.383	26821.05
524.584	27251.13
524.786	27525.55
524.988	27265.46
525.189	27644.34
525.391	28002.73
525.592	28015.02
525.794	28213.67
525.995	28400.04
526.197	28373.41
526.398	28576.16
526.6	28840.35
526.801	28668.32
527.003	28838.3
527.204	28918.17
527.406	29002.14
527.607	29325.72
527.808	29794.7
528.01	29102.49
528.211	29266.33
528.412	29976.97
528.614	30038.41
528.815	29856.14
529.016	30026.12
529.218	29985.16
529.419	30155.15
529.62	30243.21
529.822	30548.36
530.023	30370.18
530.224	30488.96
530.425	30394.76
530.626	30114.19
530.828	30257.54
531.029	31015.29
531.23	30699.9
531.431	30693.76
531.632	30579.07
531.833	30990.72
532.035	30747.01
532.236	31193.47
532.437	31236.47
532.638	30808.45
532.839	31478.13
533.04	31205.75
533.241	30843.26
533.442	31687.03
533.643	31156.6
533.844	31261.05
534.045	31623.54
534.246	30941.57
534.447	31283.58
534.648	31064.44
534.849	31369.59
535.05	31234.42
535.251	31535.48
535.451	31164.79
535.652	31770.99
535.853	31590.77
536.054	31871.34
536.255	31697.27
536.456	31506.8
536.657	31689.07
536.857	31447.41
537.058	31310.2
537.259	31799.66
537.46	31404.41
537.66	31717.75
537.861	31494.52
538.062	31668.59
538.263	31857.01
538.463	31506.8
538.664	31719.79
538.865	31363.45
539.065	31701.36
539.266	31340.92
539.466	31816.05
539.667	31285.62
539.868	32190.83
540.068	31584.63
540.269	31603.06
540.469	31895.92
540.67	31506.8
540.87	31265.14
541.071	31531.38
541.271	31547.76
541.472	31785.33
541.672	31463.8
541.873	31908.21
542.073	31201.66
542.274	31805.81
542.474	31367.54
542.675	31138.17
542.875	31775.09
543.075	31385.97
543.276	31302.01
543.476	31879.53
543.676	31351.16
543.877	31871.34
544.077	31707.51
544.277	31766.9
544.478	31322.49
544.678	31865.2
544.878	31672.69
545.078	31723.89
545.279	31398.26
545.479	31408.5
545.679	31654.26
545.879	31816.05
546.079	31625.59
546.28	31322.49
546.48	31197.56
546.68	31558
546.88	31592.82
547.08	31940.97
547.28	31213.95
547.48	31443.32
547.68	32119.15
547.88	31261.05
548.081	31861.1
548.281	31418.74
548.481	31670.64
548.681	31924.59
548.881	31863.15
549.081	31373.69
549.28	31396.21
549.48	31760.75
549.68	31369.59
549.88	31797.62
550.08	31707.51
550.28	31723.89
550.48	31482.23
550.68	31842.67
550.88	31646.07
551.08	31492.47
551.279	31650.16
551.479	31220.09
551.679	31662.45
551.879	31398.26
552.079	31572.34
552.278	31129.98
552.478	31461.75
552.678	31396.21
552.878	31275.38
553.077	31322.49
553.277	31175.03
553.477	31826.29
553.676	31271.29
553.876	31435.13
554.076	31164.79
554.275	31394.17
554.475	30984.57
554.674	31299.96
554.874	31496.56
555.074	30955.9
555.273	31183.23
555.473	31355.25
555.672	31070.59
555.872	31191.42
556.071	31023.48
556.271	31463.8
556.47	30787.97
556.67	30558.6
556.869	30663.04
557.068	31031.68
557.268	30536.07
557.467	30722.43
557.667	30611.84
557.866	30384.52
558.065	30691.71
558.265	30417.29
558.464	30476.68
558.663	30548.36
558.863	30138.76
559.062	30484.87
559.261	30198.15
559.461	30599.55
559.66	30103.95
559.859	30224.78
560.058	30173.58
560.258	30130.57
560.457	29942.16
560.656	30022.03
560.855	29868.43
561.054	30202.25
561.253	29706.64
561.453	30216.58
561.652	29993.36
561.851	29850
562.05	29507.99
562.249	29682.06
562.448	29938.06
562.647	29677.97
562.846	29571.47
563.045	29688.21
563.244	29262.23
563.443	29833.61
563.642	29122.97
563.841	29129.11
564.04	29258.13
564.239	29495.7
564.438	29118.87
564.637	29165.98
564.836	29497.75
565.035	28889.5
565.234	29182.36
565.432	28860.83
565.631	29039
565.83	29061.53
566.029	28955.04
566.228	28805.53
566.427	28854.69
566.625	28742.05
566.824	28314.02
567.023	28643.74
567.222	28201.38
567.42	28649.89
567.619	28307.88
567.818	28211.62
568.016	28164.52
568.215	28291.49
568.414	27943.34
568.612	28338.6
568.811	27937.2
569.01	27771.31
569.208	27554.22
569.407	27791.79
569.605	27566.51
569.804	27609.52
570.002	27279.8
570.201	27388.34
570.4	27509.17
570.598	27374
570.797	26993.08
570.995	27134.39
571.193	26773.95
571.392	27138.49
571.59	27083.19
571.789	26872.25
571.987	27005.37
572.186	26548.67
572.384	26665.41
572.582	26651.07
572.781	26560.96
572.979	25848.27
573.177	26061.26
573.376	26313.16
573.574	26239.43
573.772	26268.1
573.971	25854.41
574.169	25891.27
574.367	25960.91
574.565	25909.71
574.763	25739.72
574.962	25516.5
575.16	25686.48
575.358	25592.27
575.556	25280.98
575.754	25575.89
575.952	25113.05
576.151	25319.89
576.349	24887.77
576.547	25010.65
576.745	24938.97
576.943	25100.76
577.141	24752.6
577.339	24922.59
577.537	24459.74
577.735	24535.52
577.933	24402.4
578.131	24744.41
578.329	24250.85
578.527	24181.22
578.725	24482.27
578.923	24359.39
579.121	24252.9
579.319	23745
579.516	24089.06
579.714	24058.34
579.912	23912.94
580.11	23849.45
580.308	23716.33
580.506	23652.84
580.704	23155.19
580.901	23632.36
581.099	23691.76
581.297	23093.75
581.495	23337.46
581.692	23433.71
581.89	22895.1
582.088	22987.25
582.285	22886.9
582.483	23220.72
582.681	22841.85
582.878	22888.95
583.076	22389.25
583.274	22991.35
583.471	22604.28
583.669	22589.95
583.866	22415.87
584.064	22503.93
584.262	22297.09
584.459	22422.02
584.657	22176.26
584.854	22364.67
585.052	22026.76
585.249	21785.1
585.447	21791.24
585.644	21852.68
585.841	22059.52
586.039	21826.06
586.236	21529.1
586.434	21584.4
586.631	21692.94
586.828	21568.01
587.026	21402.13
587.223	21479.95
587.42	21367.31
587.618	21389.84
587.815	21148.18
588.012	21158.42
588.21	20877.85
588.407	21164.56
588.604	21049.88
588.801	20974.1
588.999	20650.52
589.196	20703.77
589.393	20781.59
589.59	20498.97
589.787	20630.04
589.984	20460.06
590.182	20257.31
590.379	20711.96
590.576	20353.57
590.773	20179.49
590.97	20406.81
591.167	20204.07
591.364	20116
591.561	20214.3
591.758	19872.29
591.955	19835.43
592.152	20103.71
592.349	19868.2
592.546	19739.18
592.743	19583.53
592.94	19458.6
593.137	19667.5
593.334	19550.76
593.531	19302.96
593.727	19458.6
593.924	19370.54
594.121	19137.07
594.318	19241.52
594.515	18926.13
594.712	19243.57
594.908	19206.7
595.105	19079.73
595.302	19042.87
595.499	19061.3
595.696	18905.65
595.892	18741.82
596.089	18911.8
596.286	18821.69
596.482	18543.16
596.679	18756.15
596.876	18711.1
597.072	18377.28
597.269	18317.89
597.466	18485.82
597.662	18485.82
597.859	18430.52
598.055	18289.21
598.252	18051.65
598.448	18051.65
598.645	17826.37
598.841	17986.11
599.038	17967.68
599.234	18014.79
599.431	17691.21
599.627	17623.62
599.824	17807.94
600.02	17603.14
600.217	17431.12
600.413	17705.54
600.609	17515.08
600.806	17410.64
601.002	17558.09
601.198	17293.9
601.395	17238.61
601.591	17035.86
601.787	17156.69
601.984	17121.87
602.18	17168.98
602.376	17230.41
602.572	16921.17
602.769	17007.19
602.965	16640.6
603.161	16820.82
603.357	16886.36
603.553	16704.09
603.75	16833.11
603.946	16474.71
604.142	16400.99
604.338	16138.85
604.534	16439.9
604.73	15983.2
604.926	16274.01
605.122	16278.11
605.318	16067.17
605.514	16079.46
605.71	15856.23
605.906	15886.95
606.102	16050.78
606.298	15831.65
606.494	15839.84
606.69	15768.16
606.886	15719.01
607.082	15366.76
607.278	15637.09
607.474	15401.58
607.67	15745.64
607.866	15358.57
608.062	15585.9
608.257	15377
608.453	15215.21
608.649	15340.14
608.845	15374.95
609.041	15444.59
609.236	14936.69
609.432	15129.2
609.628	15145.58
609.824	14852.72
610.019	15037.04
610.215	14531.19
610.411	14850.67
610.606	14692.98
610.802	14920.31
610.998	14828.15
611.193	14869.11
611.389	14801.52
611.584	14604.92
611.78	14484.09
611.976	14649.97
612.171	14516.86
612.367	14371.45
612.562	14496.38
612.758	14137.98
612.953	14324.35
613.149	14631.54
613.344	14066.3
613.539	14297.72
613.735	14189.18
613.93	14461.56
614.126	13945.47
614.321	14373.5
614.517	14070.4
614.712	14031.49
614.907	13703.81
615.103	14037.63
615.298	13867.65
615.493	13904.51
615.688	13832.83
615.884	13867.65
616.079	13683.33
616.274	13722.24
616.47	13757.06
616.665	13898.37
616.86	13480.58
617.055	13613.7
617.25	13439.62
617.445	13658.76
617.641	13447.82
617.836	13369.99
618.031	13050.51
618.226	13462.15
618.421	13425.29
618.616	13382.28
618.811	12989.07
619.006	13271.69
619.201	13005.45
619.396	13064.85
619.591	12814.99
619.786	13009.55
619.981	12675.73
620.176	12753.55
620.371	12624.53
620.566	12456.6
620.761	12419.74
620.956	12714.64
621.151	12432.02
621.346	12327.58
621.541	12477.08
621.735	12526.23
621.93	12075.68
622.125	12401.3
622.32	11870.88
622.515	12067.49
622.709	11989.66
622.904	11977.37
623.099	11682.47
623.294	11670.18
623.488	11696.8
623.683	11657.89
623.878	11571.88
624.072	11518.63
624.267	11504.29
624.462	11358.89
624.656	11403.94
624.851	11502.25
625.046	11405.99
625.24	11193
625.435	10998.45
625.629	11150
625.824	10877.62
626.018	10887.86
626.213	10801.84
626.407	10986.16
626.602	10740.4
626.796	11010.73
626.991	10791.6
627.185	10619.57
627.38	10517.17
627.574	10582.71
627.768	10259.13
627.963	10455.73
628.157	10175.16
628.352	10209.98
628.546	10078.91
628.74	10107.58
628.935	10130.11
629.129	9937.6
629.323	9935.55
629.517	9732.8
629.712	9910.97
629.906	9861.82
630.1	9661.12
630.294	9646.79
630.489	9620.16
630.683	9726.66
630.877	9552.58
631.071	9392.84
631.265	9517.76
631.459	9388.74
631.653	9493.19
631.848	9466.56
632.042	9388.74
632.236	9347.78
632.43	9179.85
632.624	9278.15
632.818	9151.18
633.012	8946.38
633.206	8930
633.4	8991.44
633.594	8798.93
633.788	9009.87
633.982	8864.46
634.176	8956.62
634.369	8727.25
634.563	8721.1
634.757	8608.47
634.951	8544.98
635.145	8563.41
635.339	8637.14
635.533	8434.39
635.726	8407.77
635.92	8477.4
636.114	8307.41
636.308	8405.72
636.501	8209.11
636.695	8223.45
636.889	8168.15
637.083	8110.81
637.276	8057.56
637.47	7873.25
637.664	7832.29
637.857	7967.45
638.051	7826.14
638.244	7809.76
638.438	7684.83
638.632	7709.41
638.825	7535.33
639.019	7482.08
639.212	7496.42
639.406	7617.25
639.599	7615.2
639.793	7586.53
639.986	7475.94
640.18	7457.51
640.373	7426.79
640.567	7594.72
640.76	7330.53
640.954	7273.19
641.147	7101.16
641.34	7185.13
641.534	7242.47
641.727	7006.95
641.92	7150.31
642.114	7033.58
642.307	6984.43
642.5	7070.44
642.694	6902.51
642.887	6914.8
643.08	6882.03
643.273	6671.09
643.467	6793.97
643.66	6660.85
643.853	6585.07
644.046	6511.35
644.239	6546.16
644.432	6593.26
644.626	6490.87
644.819	6449.91
645.012	6398.71
645.205	6415.09
645.398	6183.67
645.591	6181.62
645.784	6247.16
645.977	6230.77
646.17	6171.38
646.363	6144.76
646.556	6169.34
646.749	6093.56
646.942	6111.99
647.135	6109.94
647.328	5958.39
647.521	6021.88
647.714	5757.69
647.907	5853.95
648.099	5790.46
648.292	5831.42
648.485	5786.37
648.678	5720.83
648.871	5661.44
649.064	5585.66
649.256	5759.74
649.449	5483.27
649.642	5415.68
649.835	5532.42
650.027	5413.63
650.22	5384.96
650.413	5470.98
650.605	5395.2
650.798	5380.87
650.991	5196.55
651.183	5419.78
651.376	5169.93
651.568	5075.72
651.761	5096.2
651.954	5174.02
652.146	5069.58
652.339	5081.86
652.531	4879.11
652.724	4938.51
652.916	5018.38
653.109	4993.8
653.301	4883.21
653.494	4932.36
653.686	4836.11
653.879	4909.83
654.071	4696.85
654.263	4836.11
654.456	4614.93
654.648	4786.96
654.84	4608.78
655.033	4612.88
655.225	4614.93
655.417	4465.43
655.61	4600.59
655.802	4584.21
655.994	4596.5
656.186	4467.47
656.379	4389.65
656.571	4461.33
656.763	4277.01
656.955	4410.13
657.148	4205.33
657.34	4326.16
657.532	4272.92
657.724	4277.01
657.916	4295.44
658.108	4096.79
658.3	4293.4
658.492	4039.45
658.684	4109.08
658.876	4150.04
659.068	4102.93
659.26	4162.33
659.452	4014.87
659.644	4014.87
659.836	4039.45
660.028	3894.04
660.22	3957.53
660.412	3744.54
660.604	3762.97
660.796	3900.19
660.988	3803.93
661.18	3767.07
661.372	3805.98
661.563	3828.51
661.755	3703.58
661.947	3623.71
662.139	3648.29
662.331	3771.16
662.522	3652.38
662.714	3629.85
662.906	3502.88
663.097	3447.58
663.289	3560.22
663.481	3490.59
663.673	3564.32
663.864	3621.66
664.056	3380
664.247	3369.76
664.439	3312.42
664.631	3369.76
664.822	3255.08
665.014	3334.95
665.205	3310.37
665.397	3207.97
665.588	3318.56
665.78	3343.14
665.971	3138.34
666.163	3261.22
666.354	3314.47
666.546	3253.03
666.737	3244.84
666.929	3089.19
667.12	3128.1
667.311	3103.53
667.503	3158.82
667.694	3128.1
667.885	3121.96
668.077	3029.8
668.268	3117.86
668.459	2911.02
668.651	3040.04
668.842	2947.88
669.033	2984.74
669.224	2941.74
669.416	2956.07
669.607	2925.35
669.798	2818.86
669.989	2986.79
670.18	2974.5
670.371	2908.97
670.563	2845.48
670.754	2882.35
670.945	2929.45
671.136	2794.28
671.327	2843.43
671.518	2769.71
671.709	2777.9
671.9	2894.63
672.091	2730.8
672.282	2757.42
672.473	2769.71
672.664	2747.18
672.855	2714.41
673.046	2650.92
673.237	2673.45
673.428	2702.12
673.619	2773.8
673.809	2669.36
674	2755.37
674.191	2763.56
674.382	2681.64
674.573	2636.59
674.764	2605.87
674.954	2601.77
675.145	2546.48
675.336	2612.01
675.527	2556.72
675.717	2513.71
675.908	2685.74
676.099	2636.59
676.289	2601.77
676.48	2519.85
676.671	2548.53
676.861	2558.77
677.052	2560.81
677.243	2407.22
677.433	2476.85
677.624	2497.33
677.814	2548.53
678.005	2427.7
678.195	2427.7
678.386	2493.23
678.576	2460.46
678.767	2419.5
678.957	2401.07
679.148	2515.76
679.338	2456.37
679.529	2501.42
679.719	2437.94
679.909	2622.25
680.1	2294.58
680.29	2358.07
680.481	2347.83
680.671	2464.56
680.861	2384.69
681.052	2380.59
681.242	2315.06
681.432	2378.55
681.622	2319.15
681.813	2356.02
682.003	2349.87
682.193	2263.86
682.383	2333.49
682.573	2294.58
682.764	2278.19
682.954	2329.39
683.144	2339.63
683.334	2243.38
683.524	2323.25
683.714	2374.45
683.904	2335.54
684.094	2292.53
684.284	2274.1
684.474	2382.64
684.664	2362.16
684.854	2329.39
685.044	2304.82
685.234	2294.58
685.424	2222.9
685.614	2194.23
685.804	2286.39
685.994	2257.71
686.184	2210.61
686.374	2261.81
686.564	2204.47
686.753	2294.58
686.943	2261.81
687.133	2235.19
687.323	2319.15
687.513	2169.65
687.702	2255.67
687.892	2220.85
688.082	2237.24
688.272	2204.47
688.461	2190.13
688.651	2183.99
688.841	2143.03
689.03	2351.92
689.22	2151.22
689.41	2356.02
689.599	2222.9
689.789	2190.13
689.979	2241.33
690.168	2171.7
690.358	2261.81
690.547	2206.52
690.737	2190.13
690.926	2177.84
691.116	2124.6
691.305	2153.27
691.495	2214.71
691.684	2241.33
691.874	2247.48
692.063	2218.8
692.252	2171.7
692.442	2288.43
692.631	2128.69
692.82	2263.86
693.01	2075.45
693.199	2274.1
693.388	2132.79
693.578	2065.21
693.767	2222.9
693.956	2173.75
694.146	2097.97
694.335	2059.06
694.524	2204.47
694.713	2257.71
694.902	2155.32
695.092	2196.28
695.281	2167.6
695.47	2192.18
695.659	2202.42
695.848	2286.39
696.037	2181.94
696.226	2179.89
696.415	2124.6
696.604	2233.14
696.793	2253.62
696.982	2073.4
697.171	2298.67
697.36	2179.89
697.549	2138.93
697.738	2132.79
697.927	2081.59
698.116	2200.37
698.305	2069.3
698.494	2231.09
698.683	2140.98
698.872	2186.04
699.061	2286.39
699.25	2186.04
699.438	2159.41
699.627	2155.32
699.816	2183.99
700.005	2181.94
700.193	2124.6
700.382	2155.32
700.571	2265.91
700.76	2224.95
700.948	2136.88
701.137	2065.21
701.326	2159.41
701.514	2190.13
701.703	2171.7
701.892	2206.52
702.08	2116.41
702.269	2136.88
702.457	2085.69
702.646	2065.21
702.834	2140.98
703.023	2175.8
703.212	2083.64
703.4	2132.79
703.589	1856.31
703.777	2206.52
703.965	2059.06
704.154	2108.21
704.342	2026.29
704.531	1989.43
704.719	2052.92
704.907	2175.8
705.096	2011.96
705.284	2005.81
705.472	1999.67
705.661	2007.86
705.849	2104.12
706.037	2024.25
706.226	2038.58
706.414	2069.3
706.602	2044.73
706.79	2073.4
706.979	1983.29
707.167	1958.71
707.355	1942.33
707.543	1923.9
707.731	2044.73
707.919	2085.69
708.107	1956.66
708.296	1944.38
708.484	2020.15
708.672	1913.66
708.86	2075.45
709.048	1884.98
709.236	1909.56
709.424	1950.52
709.612	2050.87
709.8	1889.08
709.988	1889.08
710.176	1911.61
710.364	1942.33
710.551	1993.53
710.739	1979.19
710.927	1917.75
711.115	1874.74
711.303	1936.18
711.491	1841.98
711.679	1868.6
711.866	1776.44
712.054	1786.68
712.242	1844.03
712.43	1860.41
712.617	1798.97
712.805	1905.46
712.993	1819.45
713.181	1770.3
713.368	1739.58
713.556	1891.13
713.744	1755.96
713.931	1817.4
714.119	1733.43
714.306	1696.57
714.494	1717.05
714.682	1813.31
714.869	1794.87
715.057	1755.96
715.244	1753.91
715.432	1782.59
715.619	1676.09
715.807	1672
715.994	1706.81
716.182	1649.47
716.369	1737.53
716.556	1696.57
716.744	1596.22
716.931	1684.28
717.119	1680.19
717.306	1729.34
717.493	1647.42
717.681	1696.57
717.868	1770.3
718.055	1682.24
718.242	1729.34
718.43	1612.6
718.617	1684.28
718.804	1594.17
718.991	1639.23
719.179	1624.89
719.366	1573.69
719.553	1604.41
719.74	1514.3
719.927	1602.36
720.114	1520.45
720.301	1563.45
720.488	1622.84
720.676	1518.4
720.863	1573.69
721.05	1514.3
721.237	1536.83
721.424	1504.06
721.611	1518.4
721.798	1407.81
721.985	1485.63
722.172	1575.74
722.358	1524.54
722.545	1477.44
722.732	1481.53
722.919	1467.2
723.106	1508.16
723.293	1508.16
723.48	1444.67
723.667	1499.97
723.853	1536.83
724.04	1459.01
724.227	1483.58
724.414	1368.9
724.6	1508.16
724.787	1409.86
724.974	1393.47
725.161	1329.99
725.347	1329.99
725.534	1469.25
725.72	1493.82
725.907	1411.9
726.094	1362.75
726.28	1397.57
726.467	1463.1
726.653	1344.32
726.84	1370.94
727.027	1459.01
727.213	1370.94
727.4	1309.51
727.586	1266.5
727.773	1358.66
727.959	1350.46
728.145	1354.56
728.332	1270.59
728.518	1303.36
728.705	1348.42
728.891	1264.45
729.077	1379.14
729.264	1291.07
729.45	1295.17
729.636	1243.97
729.823	1268.55
730.009	1280.83
730.195	1391.42
730.382	1258.31
730.568	1282.88
730.754	1233.73
730.94	1278.79
731.126	1246.02
731.313	1284.93
731.499	1362.75
731.685	1282.88
731.871	1262.4
732.057	1284.93
732.243	1207.11
732.429	1164.1
732.615	1297.22
732.801	1184.58
732.987	1213.25
733.173	1258.31
733.359	1274.69
733.545	1286.98
733.731	1227.59
733.917	1178.44
734.103	1233.73
734.289	1196.87
734.475	1131.33
734.661	1223.49
734.847	1207.11
735.033	1217.35
735.219	1147.72
735.404	1143.62
735.59	1196.87
735.776	1190.72
735.962	1184.58
736.148	1180.48
736.333	1168.2
736.519	1100.61
736.705	1207.11
736.89	1147.72
737.076	1096.52
737.262	1123.14
737.447	1149.76
737.633	1106.76
737.819	1160
738.004	1139.52
738.19	1166.15
738.375	1071.94
738.561	1141.57
738.747	1086.28
738.932	1012.55
739.118	1078.08
739.303	1065.8
739.489	1164.1
739.674	1071.94
739.859	1078.08
740.045	1024.84
740.23	1168.2
740.416	1047.37
740.601	967.49
740.786	996.17
740.972	955.21
741.157	1010.5
741.342	1080.13
741.528	981.83
741.713	987.97
741.898	992.07
742.084	987.97
742.269	1004.36
742.454	963.4
742.639	1073.99
742.824	992.07
743.01	1049.41
743.195	1022.79
743.38	973.64
743.565	1049.41
743.75	967.49
743.935	906.06
744.12	918.34
744.305	910.15
744.49	975.69
744.675	992.07
744.86	1002.31
745.045	949.06
745.23	920.39
745.415	852.81
745.6	879.43
745.785	922.44
745.97	881.48
746.155	889.67
746.34	897.86
746.525	869.19
746.71	897.86
746.895	918.34
747.079	830.28
747.264	908.1
747.449	869.19
747.634	856.9
747.819	932.68
748.003	846.66
748.188	832.33
748.373	957.25
748.557	838.47
748.742	815.94
748.927	910.15
749.111	789.32
749.296	820.04
749.481	801.61
749.665	772.94
749.85	883.53
750.034	850.76
750.219	861
750.404	893.77
750.588	828.23
750.773	797.51
750.957	832.33
751.141	758.6
751.326	711.5
751.51	772.94
751.695	795.47
751.879	787.27
752.064	779.08
752.248	715.59
752.432	854.86
752.617	707.4
752.801	770.89
752.985	670.54
753.17	738.12
753.354	711.5
753.538	713.55
753.722	666.44
753.907	662.35
754.091	668.49
754.275	611.15
754.459	711.5
754.643	746.31
754.828	633.68
755.012	654.16
755.196	658.25
755.38	645.96
755.564	570.19
755.748	697.16
755.932	688.97
756.116	568.14
756.3	619.34
756.484	674.64
756.668	648.01
756.852	707.4
757.036	652.11
757.22	609.1
757.404	609.1
757.588	559.95
757.772	619.34
757.956	525.13
758.14	625.48
758.323	541.52
758.507	623.44
758.691	598.86
758.875	711.5
759.059	664.4
759.242	541.52
759.426	566.09
759.61	641.87
759.794	639.82
759.977	471.89
760.161	633.68
760.345	492.37
760.528	578.38
760.712	516.94
760.895	572.24
761.079	584.52
761.263	557.9
761.446	480.08
761.63	510.8
761.813	588.62
761.997	512.85
762.18	475.98
762.364	652.11
762.547	545.61
762.731	527.18
762.914	506.7
763.098	555.85
763.281	514.89
763.464	500.56
763.648	488.27
763.831	547.66
764.015	559.95
764.198	426.83
764.381	488.27
764.564	539.47
764.748	437.07
764.931	471.89
765.114	400.21
765.297	508.75
765.481	490.32
765.664	478.03
765.847	490.32
766.03	475.98
766.213	588.62
766.397	516.94
766.58	486.22
766.763	523.09
766.946	547.66
767.129	475.98
767.312	478.03
767.495	467.79
767.678	437.07
767.861	437.07
768.044	498.51
768.227	439.12
768.41	437.07
768.593	494.41
768.776	457.55
768.959	492.37
769.142	492.37
769.324	445.26
769.507	549.71
769.69	484.17
769.873	490.32
770.056	420.69
770.239	398.16
770.421	461.65
770.604	453.45
770.787	463.69
770.97	441.17
771.152	441.17
771.335	518.99
771.518	484.17
771.7	398.16
771.883	443.21
772.066	457.55
772.248	449.36
772.431	486.22
772.613	426.83
772.796	400.21
772.978	465.74
773.161	467.79
773.343	453.45
773.526	404.3
773.708	422.73
773.891	381.78
774.073	334.67
774.256	322.38
774.438	480.08
774.621	400.21
774.803	465.74
774.985	344.91
775.168	437.07
775.35	400.21
775.532	402.26
775.715	400.21
775.897	320.34
776.079	381.78
776.261	328.53
776.444	410.45
776.626	373.58
776.808	355.15
776.99	430.93
777.173	355.15
777.355	412.5
777.537	330.58
777.719	267.09
777.901	324.43
778.083	320.34
778.265	291.66
778.447	400.21
778.629	332.62
778.811	371.54
778.993	426.83
779.175	361.3
779.357	351.06
779.539	289.62
779.721	316.24
779.903	336.72
780.085	338.77
780.267	365.39
780.449	293.71
780.631	359.25
780.812	349.01
780.994	291.66
781.176	238.42
781.358	338.77
781.54	297.81
781.721	336.72
781.903	295.76
782.085	303.95
782.267	275.28
782.448	273.23
782.63	285.52
782.812	314.19
782.993	324.43
783.175	299.86
783.357	279.38
783.538	252.75
783.72	246.61
783.901	279.38
784.083	228.18
784.264	238.42
784.446	285.52
784.627	262.99
784.809	267.09
784.99	314.19
785.172	248.66
785.353	246.61
785.535	318.29
785.716	183.12
785.897	170.83
786.079	246.61
786.26	256.85
786.441	224.08
786.623	181.07
786.804	250.71
786.985	238.42
787.167	265.04
787.348	269.14
787.529	193.36
787.71	203.6
787.891	224.08
788.073	195.41
788.254	303.95
788.435	254.8
788.616	217.94
788.797	170.83
788.978	146.26
789.159	246.61
789.34	254.8
789.522	189.27
789.703	107.35
789.884	232.27
790.065	187.22
790.246	234.32
790.427	168.79
790.607	195.41
790.788	224.08
790.969	201.55
791.15	207.7
791.331	213.84
791.512	236.37
791.693	232.27
791.874	209.75
792.054	232.27
792.235	123.73
792.416	76.63
792.597	197.46
792.778	142.16
792.958	222.03
793.139	181.07
793.32	170.83
793.5	191.31
793.681	160.59
793.862	224.08
794.042	279.38
794.223	101.2
794.404	201.55
794.584	127.83
794.765	117.59
794.945	176.98
795.126	211.79
795.306	213.84
795.487	168.79
795.667	111.44
795.848	140.12
796.028	136.02
796.209	168.79
796.389	238.42
796.57	222.03
796.75	224.08
796.93	201.55
797.111	166.74
797.291	146.26
797.471	195.41
797.652	148.31
797.832	111.44
798.012	195.41
798.192	117.59
798.373	168.79
798.553	203.6
798.733	187.22
798.913	156.5
799.093	82.77
799.274	111.44
799.454	156.5
799.634	119.64
799.814	168.79
799.994	115.54
800.174	207.7
800.354	205.65
800.534	140.12
800.714	156.5
800.894	138.07
801.074	74.58
801.254	131.92
801.434	164.69
801.614	156.5
801.794	107.35
801.974	371.54
802.154	203.6
802.334	146.26
802.514	99.16
802.693	115.54
802.873	179.03
803.053	138.07
803.233	172.88
803.413	64.34
803.592	133.97
803.772	93.01
803.952	131.92
804.131	209.75
804.311	133.97
804.491	168.79
804.67	115.54
804.85	80.72
805.03	172.88
805.209	125.78
805.389	127.83
805.568	170.83
805.748	17.24
805.928	170.83
806.107	142.16
806.287	123.73
806.466	78.68
806.646	74.58
806.825	152.4
807.004	76.63
807.184	140.12
807.363	76.63
807.543	93.01
807.722	162.64
807.901	115.54
808.081	140.12
808.26	62.29
808.439	99.16
808.619	86.87
808.798	88.92
808.977	78.68
809.156	226.13
809.336	70.48
809.515	82.77
809.694	21.33
809.873	142.16
810.052	101.2
810.231	60.24
810.411	148.31
810.59	144.21
810.769	58.2
810.948	97.11
811.127	50
811.306	103.25
811.485	156.5
811.664	144.21
811.843	68.44
812.022	105.3
812.201	123.73
812.38	115.54
812.559	103.25
812.737	84.82
812.916	52.05
813.095	123.73
813.274	109.4
813.453	80.72
813.632	160.59
813.811	152.4
813.989	103.25
814.168	78.68
814.347	99.16
814.526	97.11
814.704	99.16
814.883	50
815.062	103.25
815.24	140.12
815.419	123.73
815.598	138.07
815.776	97.11
815.955	111.44
816.133	105.3
816.312	27.48
816.49	125.78
816.669	50
816.847	131.92
817.026	111.44
817.204	41.81
817.383	107.35
817.561	74.58
817.74	115.54
817.918	88.92
818.097	66.39
818.275	68.44
818.453	142.16
818.632	41.81
818.81	58.2
818.988	95.06
819.167	101.2
819.345	109.4
819.523	86.87
819.701	111.44
819.879	64.34
820.058	115.54
820.236	74.58
820.414	25.43
820.592	47.96
820.77	113.49
820.948	33.62
821.127	62.29
821.305	70.48
821.483	11.09
821.661	111.44
821.839	68.44
822.017	82.77
822.195	35.67
822.373	50
822.551	88.92
822.729	82.77
822.907	93.01
823.085	117.59
823.262	47.96
823.44	80.72
823.618	66.39
823.796	111.44
823.974	64.34
824.152	31.57
824.329	54.1
824.507	82.77
824.685	60.24
824.863	119.64
825.04	25.43
825.218	129.88
825.396	52.05
825.574	78.68
825.751	39.76
825.929	84.82
826.107	95.06
826.284	37.72
826.462	82.77
826.639	21.33
826.817	54.1
826.994	56.15
827.172	56.15
827.349	109.4
827.527	66.39
827.704	25.43
827.882	25.43
828.059	-9.39
828.237	86.87
828.414	70.48
828.591	-54.44
828.769	84.82
828.946	41.81
829.124	86.87
829.301	86.87
829.478	25.43
829.655	13.14
829.833	50
830.01	72.53
830.187	99.16
830.364	58.2
830.542	52.05
830.719	152.4
830.896	31.57
831.073	68.44
831.25	119.64
831.427	90.96
831.604	13.14
831.782	-21.67
831.959	111.44
832.136	31.57
832.313	68.44
832.49	58.2
832.667	7
832.844	15.19
833.021	131.92
833.198	54.1
833.374	125.78
833.551	37.72
833.728	54.1
833.905	60.24
834.082	41.81
834.259	35.67
834.436	84.82
834.612	93.01
834.789	82.77
834.966	76.63
835.143	64.34
835.319	50
835.496	58.2
835.673	66.39
835.85	0.85
836.026	54.1
836.203	54.1
836.38	52.05
836.556	76.63
836.733	41.81
836.909	150.36
837.086	17.24
837.262	2.9
837.439	93.01
837.616	58.2
837.792	95.06
837.968	66.39
838.145	62.29
838.321	31.57
838.498	9.05
838.674	129.88
838.851	129.88
839.027	37.72
839.203	27.48
839.38	66.39
839.556	27.48
839.732	70.48
839.909	88.92
840.085	70.48
840.261	25.43
840.437	39.76
840.614	19.29
840.79	117.59
840.966	-3.24
841.142	2.9
841.318	0.85
841.494	45.91
841.671	62.29
841.847	33.62
842.023	66.39
842.199	39.76
842.375	39.76
842.551	0.85
842.727	9.05
842.903	45.91
843.079	21.33
843.255	41.81
843.431	74.58
843.607	113.49
843.783	17.24
843.959	37.72
844.134	70.48
844.31	9.05
844.486	21.33
844.662	58.2
844.838	27.48
845.013	25.43
845.189	35.67
845.365	25.43
845.541	0.85
845.716	78.68
845.892	64.34
846.068	21.33
846.244	-36.01
846.419	4.95
846.595	56.15
846.77	4.95
846.946	54.1
847.122	54.1
847.297	82.77
847.473	58.2
847.648	19.29
847.824	50
847.999	9.05
848.175	37.72
848.35	86.87
848.526	86.87
848.701	2.9
848.876	27.48
849.052	-58.54
849.227	39.76
849.403	-9.39
849.578	50
849.753	43.86
849.929	9.05
850.104	70.48
850.279	62.29
850.454	68.44
850.63	58.2
850.805	74.58
850.98	-19.63
851.155	-25.77
851.33	29.52
851.505	0.85
851.681	62.29
851.856	19.29
852.031	17.24
852.206	25.43
852.381	35.67
852.556	7
852.731	76.63
852.906	103.25
853.081	72.53
853.256	86.87
853.431	93.01
853.606	-40.11
853.781	9.05
853.956	21.33
854.131	125.78
854.305	-3.24
854.48	56.15
854.655	62.29
854.83	0.85
855.005	43.86
855.18	19.29
855.354	-23.72
855.529	127.83
855.704	90.96
855.879	0.85
856.053	52.05
856.228	4.95
856.403	13.14
856.577	60.24
856.752	-25.77
856.926	15.19
857.101	23.38
857.276	107.35
857.45	56.15
857.625	29.52
857.799	29.52
857.974	95.06
858.148	37.72
858.323	17.24
858.497	43.86
858.672	52.05
858.846	90.96
859.02	31.57
859.195	66.39
859.369	111.44
859.543	62.29
859.718	19.29
859.892	11.09
860.066	23.38
860.241	21.33
860.415	4.95
860.589	-19.63
860.763	-17.58
860.938	54.1
861.112	39.76
861.286	-52.39
861.46	21.33
861.634	-62.63
861.808	13.14
861.982	2.9
862.157	41.81
862.331	35.67
862.505	76.63
862.679	-29.87
862.853	29.52
863.027	25.43
863.201	41.81
863.375	27.48
863.549	21.33
863.722	35.67
863.896	37.72
864.07	31.57
864.244	35.67
864.418	78.68
864.592	66.39
864.766	11.09
864.939	15.19
865.113	-11.43
865.287	82.77
865.461	-15.53
865.634	90.96
865.808	17.24
865.982	19.29
866.156	17.24
866.329	9.05
866.503	23.38
866.676	58.2
866.85	50
867.024	13.14
867.197	-7.34
867.371	58.2
867.544	4.95
867.718	-29.87
867.891	41.81
868.065	-52.39
868.238	86.87
868.412	39.76
868.585	50
868.759	39.76
868.932	-13.48
869.105	0.85
869.279	-38.06
869.452	2.9
869.625	23.38
869.799	-7.34
869.972	90.96
870.145	35.67
870.319	47.96
870.492	-5.29
870.665	-7.34
870.838	23.38
871.011	17.24
871.185	15.19
871.358	-11.43
871.531	13.14
871.704	2.9
871.877	35.67
872.05	19.29
872.223	54.1
872.396	-33.96
872.569	11.09
872.742	9.05
872.915	56.15
873.088	-5.29
873.261	52.05
873.434	11.09
873.607	29.52
873.78	-29.87
873.953	25.43
874.126	2.9
874.299	58.2
874.471	37.72
874.644	-7.34
874.817	-15.53
874.99	17.24
875.163	21.33
875.335	41.81
875.508	52.05
875.681	68.44
875.853	47.96
876.026	60.24
876.199	9.05
876.371	-40.11
876.544	37.72
876.717	13.14
876.889	25.43
877.062	-7.34
877.234	17.24
877.407	-7.34
877.579	-17.58
877.752	52.05
877.924	115.54
878.097	43.86
878.269	25.43
878.442	27.48
878.614	84.82
878.786	82.77
878.959	35.67
879.131	60.24
879.303	31.57
879.476	43.86
879.648	11.09
879.82	17.24
879.993	29.52
880.165	41.81
880.337	50
880.509	-13.48
880.681	15.19
880.854	41.81
881.026	-19.63
881.198	66.39
881.37	7
881.542	78.68
881.714	-1.19
881.886	33.62
882.058	115.54
882.23	-3.24
882.402	58.2
882.574	50
882.746	15.19
882.918	43.86
883.09	74.58
883.262	86.87
883.434	0.85
883.606	37.72
883.778	-29.87
883.95	78.68
884.122	103.25
884.293	27.48
884.465	4.95
884.637	-44.2
884.809	-5.29
884.98	15.19
885.152	58.2
885.324	43.86
885.496	27.48
885.667	0.85
885.839	-1.19
886.011	31.57
886.182	95.06
886.354	-3.24
886.525	41.81
886.697	-38.06
886.869	74.58
887.04	-5.29
887.212	56.15
887.383	33.62
887.555	7
887.726	37.72
887.897	41.81
888.069	-36.01
888.24	33.62
888.412	0.85
888.583	-38.06
888.754	-33.96
888.926	27.48
889.097	37.72
889.268	66.39
889.44	35.67
889.611	-1.19
889.782	60.24
889.953	25.43
890.125	68.44
890.296	52.05
890.467	-1.19
890.638	82.77
890.809	29.52
890.98	39.76
891.151	-38.06
891.323	76.63
891.494	54.1
891.665	35.67
891.836	90.96
892.007	-15.53
892.178	21.33
892.349	33.62
892.52	9.05
892.691	-25.77
892.862	17.24
893.032	-11.43
893.203	29.52
893.374	27.48
893.545	-11.43
893.716	-7.34
893.887	56.15
894.057	50
894.228	33.62
894.399	-38.06
894.57	58.2
894.74	9.05
894.911	-7.34
895.082	-3.24
895.253	74.58
895.423	62.29
895.594	68.44
895.764	43.86
895.935	-7.34
896.106	9.05
896.276	50
896.447	13.14
896.617	7
896.788	-29.87
896.958	33.62
897.129	21.33
897.299	27.48
897.47	4.95
897.64	29.52
897.81	29.52
897.981	-23.72
898.151	-25.77
898.322	43.86
898.492	13.14
898.662	74.58
898.832	31.57
899.003	9.05
899.173	37.72
899.343	-36.01
899.513	56.15
