Data from USB4F104151__230__14-00-23-802.txt Node

Date: Thu Mar 13 14:00:23 EDT 2025
User: louis
Spectrometer: USB4F10415
Trigger mode: 4
Integration Time (sec): 1.000000E-2
Scans to average: 1
Electric dark correction enabled: true
Nonlinearity correction enabled: false
Boxcar width: 0
XAxis mode: Wavelengths
Number of Pixels in Spectrum: 3648
>>>>>Begin Spectral Data<<<<<
178.204	-93.01
178.424	-93.01
178.644	-93.01
178.864	-45.91
179.084	-31.57
179.304	-7
179.524	-35.67
179.744	-60.24
179.964	36.01
180.184	23.72
180.404	54.44
180.624	-35.67
180.844	-4.95
181.064	-17.24
181.283	17.58
181.503	-11.09
181.723	40.11
181.943	7.34
182.163	40.11
182.383	-39.76
182.602	-78.68
182.822	76.97
183.042	5.29
183.262	27.82
183.482	25.77
183.701	36.01
183.921	1.19
184.141	1.19
184.361	15.53
184.58	-76.63
184.8	68.78
185.02	7.34
185.239	15.53
185.459	-7
185.679	40.11
185.898	-29.52
186.118	-25.43
186.338	-29.52
186.557	23.72
186.777	46.25
186.997	5.29
187.216	-41.81
187.436	-7
187.655	54.44
187.875	60.59
188.095	54.44
188.314	95.4
188.534	-23.38
188.753	-41.81
188.973	21.67
189.192	31.91
189.412	23.72
189.631	31.91
189.851	-23.38
190.07	23.72
190.29	-45.91
190.509	15.53
190.729	-13.14
190.948	-9.05
191.168	23.72
191.387	36.01
191.607	60.59
191.826	36.01
192.045	-39.76
192.265	17.58
192.484	11.43
192.704	-31.57
192.923	-2.9
193.142	11.43
193.362	-4.95
193.581	38.06
193.8	7.34
194.02	-37.72
194.239	-15.19
194.458	19.63
194.678	19.63
194.897	5.29
195.116	-13.14
195.335	38.06
195.555	27.82
195.774	-21.33
195.993	-37.72
196.212	1.19
196.432	-25.43
196.651	44.2
196.87	46.25
197.089	3.24
197.308	62.63
197.528	1.19
197.747	11.43
197.966	-13.14
198.185	31.91
198.404	15.53
198.623	-52.05
198.842	-45.91
199.062	44.2
199.281	29.87
199.5	13.48
199.719	44.2
199.938	19.63
200.157	19.63
200.376	-47.96
200.595	-4.95
200.814	19.63
201.033	-11.09
201.252	15.53
201.471	19.63
201.69	21.67
201.909	44.2
202.128	11.43
202.347	-0.85
202.566	56.49
202.785	29.87
203.004	1.19
203.223	5.29
203.442	52.39
203.661	-19.29
203.879	-54.1
204.098	-23.38
204.317	-31.57
204.536	42.15
204.755	-21.33
204.974	56.49
205.193	74.92
205.411	58.54
205.63	-62.29
205.849	50.35
206.068	11.43
206.287	-0.85
206.505	5.29
206.724	23.72
206.943	-37.72
207.162	-70.48
207.381	27.82
207.599	58.54
207.818	-29.52
208.037	-33.62
208.255	5.29
208.474	56.49
208.693	15.53
208.911	-56.15
209.13	3.24
209.349	42.15
209.567	46.25
209.786	-7
210.005	-23.38
210.223	11.43
210.442	31.91
210.661	19.63
210.879	-68.44
211.098	7.34
211.316	21.67
211.535	64.68
211.753	-21.33
211.972	1.19
212.191	-47.96
212.409	-17.24
212.628	-21.33
212.846	17.58
213.065	31.91
213.283	113.83
213.502	9.39
213.72	-35.67
213.938	5.29
214.157	17.58
214.375	11.43
214.594	-68.44
214.812	-70.48
215.031	-23.38
215.249	33.96
215.467	27.82
215.686	7.34
215.904	-2.9
216.122	42.15
216.341	52.39
216.559	17.58
216.778	-0.85
216.996	60.59
217.214	46.25
217.432	23.72
217.651	-27.48
217.869	21.67
218.087	72.87
218.306	-25.43
218.524	62.63
218.742	-25.43
218.96	-19.29
219.179	-45.91
219.397	-11.09
219.615	21.67
219.833	33.96
220.051	-29.52
220.27	56.49
220.488	76.97
220.706	-2.9
220.924	-2.9
221.142	42.15
221.36	38.06
221.578	27.82
221.796	46.25
222.015	3.24
222.233	11.43
222.451	27.82
222.669	-39.76
222.887	5.29
223.105	-25.43
223.323	9.39
223.541	9.39
223.759	5.29
223.977	-4.95
224.195	68.78
224.413	33.96
224.631	93.35
224.849	-7
225.067	56.49
225.285	-43.86
225.503	-21.33
225.721	-74.58
225.939	52.39
226.157	-25.43
226.375	36.01
226.592	3.24
226.81	48.3
227.028	17.58
227.246	42.15
227.464	42.15
227.682	48.3
227.9	29.87
228.117	-11.09
228.335	-0.85
228.553	-7
228.771	19.63
228.989	-21.33
229.206	23.72
229.424	25.77
229.642	44.2
229.86	9.39
230.077	-9.05
230.295	25.77
230.513	72.87
230.731	38.06
230.948	36.01
231.166	79.02
231.384	15.53
231.601	9.39
231.819	-0.85
232.037	52.39
232.254	-74.58
232.472	60.59
232.689	23.72
232.907	109.74
233.125	50.35
233.342	-41.81
233.56	5.29
233.777	21.67
233.995	-2.9
234.213	25.77
234.43	33.96
234.648	-4.95
234.865	11.43
235.083	-9.05
235.3	89.26
235.518	-29.52
235.735	7.34
235.953	31.91
236.17	-19.29
236.388	76.97
236.605	1.19
236.822	21.67
237.04	17.58
237.257	-33.62
237.475	46.25
237.692	42.15
237.909	31.91
238.127	11.43
238.344	-50
238.562	64.68
238.779	-39.76
238.996	-13.14
239.214	11.43
239.431	-2.9
239.648	-45.91
239.865	79.02
240.083	-2.9
240.3	-60.24
240.517	-2.9
240.735	-9.05
240.952	5.29
241.169	29.87
241.386	13.48
241.603	-17.24
241.821	44.2
242.038	31.91
242.255	29.87
242.472	25.77
242.689	19.63
242.907	21.67
243.124	60.59
243.341	21.67
243.558	-82.77
243.775	44.2
243.992	-17.24
244.209	54.44
244.426	27.82
244.643	48.3
244.86	79.02
245.078	-33.62
245.295	48.3
245.512	52.39
245.729	31.91
245.946	-21.33
246.163	-31.57
246.38	-21.33
246.597	70.83
246.814	-19.29
247.031	-2.9
247.248	13.48
247.464	-4.95
247.681	29.87
247.898	70.83
248.115	44.2
248.332	3.24
248.549	-4.95
248.766	40.11
248.983	27.82
249.2	-4.95
249.417	68.78
249.633	-62.29
249.85	76.97
250.067	1.19
250.284	29.87
250.501	-2.9
250.717	-9.05
250.934	54.44
251.151	-7
251.368	17.58
251.585	40.11
251.801	31.91
252.018	40.11
252.235	54.44
252.451	23.72
252.668	-23.38
252.885	40.11
253.102	40.11
253.318	-64.34
253.535	126.12
253.752	7.34
253.968	29.87
254.185	-50
254.401	-27.48
254.618	-0.85
254.835	60.59
255.051	107.69
255.268	33.96
255.484	62.63
255.701	76.97
255.917	-11.09
256.134	-4.95
256.351	79.02
256.567	-31.57
256.784	-0.85
257	-27.48
257.217	-4.95
257.433	-9.05
257.65	-27.48
257.866	-35.67
258.082	38.06
258.299	25.77
258.515	-9.05
258.732	17.58
258.948	62.63
259.165	56.49
259.381	19.63
259.597	52.39
259.814	3.24
260.03	-19.29
260.246	15.53
260.463	56.49
260.679	19.63
260.895	7.34
261.112	3.24
261.328	25.77
261.544	91.31
261.761	52.39
261.977	-15.19
262.193	40.11
262.409	21.67
262.626	5.29
262.842	-50
263.058	70.83
263.274	89.26
263.49	27.82
263.707	5.29
263.923	-0.85
264.139	11.43
264.355	31.91
264.571	60.59
264.787	-11.09
265.004	93.35
265.22	17.58
265.436	-11.09
265.652	46.25
265.868	-0.85
266.084	-21.33
266.3	5.29
266.516	44.2
266.732	-13.14
266.948	21.67
267.164	31.91
267.38	9.39
267.596	-7
267.812	95.4
268.028	-7
268.244	-76.63
268.46	21.67
268.676	15.53
268.892	50.35
269.108	5.29
269.324	23.72
269.54	-17.24
269.756	46.25
269.972	-4.95
270.188	25.77
270.403	7.34
270.619	27.82
270.835	54.44
271.051	3.24
271.267	3.24
271.483	27.82
271.698	27.82
271.914	-31.57
272.13	21.67
272.346	52.39
272.562	21.67
272.777	-41.81
272.993	15.53
273.209	19.63
273.425	46.25
273.64	17.58
273.856	-19.29
274.072	17.58
274.287	-72.53
274.503	58.54
274.719	33.96
274.934	13.48
275.15	-13.14
275.366	-9.05
275.581	-47.96
275.797	52.39
276.012	31.91
276.228	3.24
276.444	33.96
276.659	5.29
276.875	25.77
277.09	-11.09
277.306	-29.52
277.521	-0.85
277.737	60.59
277.952	33.96
278.168	3.24
278.383	15.53
278.599	-56.15
278.814	13.48
279.03	56.49
279.245	-2.9
279.461	-23.38
279.676	68.78
279.892	3.24
280.107	1.19
280.322	-2.9
280.538	27.82
280.753	-66.39
280.969	40.11
281.184	-72.53
281.399	-19.29
281.615	54.44
281.83	1.19
282.045	-23.38
282.26	-23.38
282.476	42.15
282.691	-2.9
282.906	48.3
283.122	-21.33
283.337	38.06
283.552	27.82
283.767	-35.67
283.983	36.01
284.198	-50
284.413	27.82
284.628	-125.78
284.843	60.59
285.058	52.39
285.274	23.72
285.489	44.2
285.704	44.2
285.919	-23.38
286.134	3.24
286.349	11.43
286.564	66.73
286.779	36.01
286.995	42.15
287.21	-21.33
287.425	44.2
287.64	-7
287.855	109.74
288.07	-13.14
288.285	-27.48
288.5	33.96
288.715	64.68
288.93	60.59
289.145	42.15
289.36	-66.39
289.575	-0.85
289.79	-9.05
290.004	29.87
290.219	-2.9
290.434	-52.05
290.649	-4.95
290.864	-4.95
291.079	-21.33
291.294	-78.68
291.509	-7
291.724	-4.95
291.938	36.01
292.153	-4.95
292.368	62.63
292.583	36.01
292.798	-25.43
293.012	11.43
293.227	9.39
293.442	23.72
293.657	48.3
293.871	21.67
294.086	48.3
294.301	68.78
294.516	54.44
294.73	111.78
294.945	23.72
295.16	72.87
295.374	52.39
295.589	-13.14
295.804	-29.52
296.018	36.01
296.233	31.91
296.447	13.48
296.662	-43.86
296.877	33.96
297.091	-11.09
297.306	-17.24
297.52	-50
297.735	21.67
297.949	-23.38
298.164	-29.52
298.378	-0.85
298.593	-7
298.807	-21.33
299.022	52.39
299.236	56.49
299.451	68.78
299.665	-0.85
299.88	79.02
300.094	-23.38
300.309	19.63
300.523	60.59
300.737	76.97
300.952	11.43
301.166	-2.9
301.381	-35.67
301.595	72.87
301.809	-13.14
302.024	44.2
302.238	-2.9
302.452	5.29
302.667	17.58
302.881	38.06
303.095	3.24
303.309	99.5
303.524	56.49
303.738	1.19
303.952	-13.14
304.166	21.67
304.381	-2.9
304.595	40.11
304.809	23.72
305.023	5.29
305.237	-29.52
305.452	19.63
305.666	-27.48
305.88	11.43
306.094	44.2
306.308	85.16
306.522	-0.85
306.736	81.07
306.95	-115.54
307.164	-7
307.379	60.59
307.593	103.59
307.807	50.35
308.021	-11.09
308.235	31.91
308.449	-58.2
308.663	21.67
308.877	11.43
309.091	17.58
309.305	54.44
309.519	-31.57
309.733	-41.81
309.947	58.54
310.161	-60.24
310.374	46.25
310.588	85.16
310.802	62.63
311.016	40.11
311.23	3.24
311.444	-0.85
311.658	-60.24
311.872	27.82
312.085	64.68
312.299	52.39
312.513	52.39
312.727	5.29
312.941	66.73
313.154	72.87
313.368	27.82
313.582	-62.29
313.796	23.72
314.009	9.39
314.223	40.11
314.437	19.63
314.651	-35.67
314.864	36.01
315.078	97.45
315.292	19.63
315.505	3.24
315.719	52.39
315.933	-35.67
316.146	-37.72
316.36	23.72
316.573	-4.95
316.787	23.72
317.001	29.87
317.214	21.67
317.428	7.34
317.641	-29.52
317.855	122.02
318.068	36.01
318.282	81.07
318.495	76.97
318.709	21.67
318.922	-47.96
319.136	36.01
319.349	-19.29
319.563	23.72
319.776	54.44
319.99	5.29
320.203	-9.05
320.417	-43.86
320.63	68.78
320.843	13.48
321.057	44.2
321.27	5.29
321.483	42.15
321.697	48.3
321.91	40.11
322.124	23.72
322.337	48.3
322.55	-9.05
322.763	-17.24
322.977	42.15
323.19	48.3
323.403	44.2
323.617	1.19
323.83	-95.06
324.043	15.53
324.256	25.77
324.469	13.48
324.683	101.55
324.896	11.43
325.109	58.54
325.322	-7
325.535	-29.52
325.748	48.3
325.962	-19.29
326.175	46.25
326.388	21.67
326.601	-66.39
326.814	-4.95
327.027	60.59
327.24	21.67
327.453	-2.9
327.666	23.72
327.879	23.72
328.092	-0.85
328.305	-25.43
328.518	79.02
328.731	19.63
328.944	60.59
329.157	7.34
329.37	-9.05
329.583	50.35
329.796	-2.9
330.009	50.35
330.222	91.31
330.435	60.59
330.648	-0.85
330.861	-0.85
331.073	-27.48
331.286	7.34
331.499	40.11
331.712	50.35
331.925	-54.1
332.138	85.16
332.35	46.25
332.563	11.43
332.776	36.01
332.989	-54.1
333.202	64.68
333.414	40.11
333.627	60.59
333.84	-21.33
334.053	-82.77
334.265	-9.05
334.478	-29.52
334.691	5.29
334.903	27.82
335.116	5.29
335.329	58.54
335.541	-21.33
335.754	11.43
335.966	-52.05
336.179	44.2
336.392	-62.29
336.604	-17.24
336.817	66.73
337.029	27.82
337.242	-0.85
337.454	38.06
337.667	52.39
337.88	44.2
338.092	29.87
338.305	-13.14
338.517	-15.19
338.729	21.67
338.942	15.53
339.154	44.2
339.367	-17.24
339.579	23.72
339.792	7.34
340.004	33.96
340.217	-13.14
340.429	85.16
340.641	-0.85
340.854	-19.29
341.066	27.82
341.278	3.24
341.491	25.77
341.703	36.01
341.915	15.53
342.128	7.34
342.34	-11.09
342.552	48.3
342.764	-21.33
342.977	-56.15
343.189	21.67
343.401	36.01
343.613	-37.72
343.826	-11.09
344.038	-19.29
344.25	-11.09
344.462	-15.19
344.674	29.87
344.886	15.53
345.099	79.02
345.311	-17.24
345.523	11.43
345.735	-21.33
345.947	74.92
346.159	68.78
346.371	56.49
346.583	60.59
346.795	44.2
347.007	-33.62
347.219	19.63
347.431	44.2
347.643	3.24
347.855	17.58
348.067	89.26
348.279	-25.43
348.491	27.82
348.703	31.91
348.915	68.78
349.127	17.58
349.339	7.34
349.551	-17.24
349.763	42.15
349.975	19.63
350.187	46.25
350.399	-21.33
350.61	97.45
350.822	48.3
351.034	1.19
351.246	3.24
351.458	-11.09
351.669	-13.14
351.881	17.58
352.093	38.06
352.305	38.06
352.517	33.96
352.728	91.31
352.94	42.15
353.152	-33.62
353.363	1.19
353.575	23.72
353.787	13.48
353.999	-2.9
354.21	21.67
354.422	5.29
354.633	3.24
354.845	95.4
355.057	-90.96
355.268	27.82
355.48	27.82
355.692	-25.43
355.903	81.07
356.115	54.44
356.326	23.72
356.538	46.25
356.749	72.87
356.961	68.78
357.172	13.48
357.384	-35.67
357.595	66.73
357.807	38.06
358.018	25.77
358.23	42.15
358.441	72.87
358.653	85.16
358.864	17.58
359.075	-9.05
359.287	54.44
359.498	-21.33
359.709	-0.85
359.921	87.21
360.132	42.15
360.344	68.78
360.555	11.43
360.766	79.02
360.977	21.67
361.189	64.68
361.4	38.06
361.611	52.39
361.823	46.25
362.034	11.43
362.245	-74.58
362.456	50.35
362.667	7.34
362.879	25.77
363.09	42.15
363.301	36.01
363.512	109.74
363.723	46.25
363.935	-13.14
364.146	-0.85
364.357	-15.19
364.568	95.4
364.779	36.01
364.99	70.83
365.201	-7
365.412	46.25
365.623	42.15
365.834	11.43
366.045	-70.48
366.256	38.06
366.467	-27.48
366.678	38.06
366.889	93.35
367.1	13.48
367.311	-2.9
367.522	54.44
367.733	29.87
367.944	52.39
368.155	44.2
368.366	-4.95
368.577	33.96
368.788	76.97
368.999	-39.76
369.209	-4.95
369.42	60.59
369.631	15.53
369.842	-21.33
370.053	-4.95
370.264	33.96
370.474	9.39
370.685	-0.85
370.896	-4.95
371.107	7.34
371.317	-4.95
371.528	48.3
371.739	11.43
371.95	81.07
372.16	64.68
372.371	85.16
372.582	15.53
372.792	-35.67
373.003	68.78
373.214	13.48
373.424	25.77
373.635	3.24
373.846	72.87
374.056	56.49
374.267	31.91
374.477	33.96
374.688	-27.48
374.898	-19.29
375.109	68.78
375.319	29.87
375.53	5.29
375.74	21.67
375.951	42.15
376.161	19.63
376.372	27.82
376.582	15.53
376.793	19.63
377.003	-33.62
377.214	25.77
377.424	-9.05
377.635	44.2
377.845	31.91
378.055	9.39
378.266	-15.19
378.476	58.54
378.686	68.78
378.897	17.58
379.107	-23.38
379.317	27.82
379.528	25.77
379.738	48.3
379.948	13.48
380.158	87.21
380.369	-29.52
380.579	66.73
380.789	60.59
380.999	-0.85
381.21	5.29
381.42	27.82
381.63	9.39
381.84	60.59
382.05	44.2
382.261	38.06
382.471	3.24
382.681	46.25
382.891	109.74
383.101	33.96
383.311	-2.9
383.521	15.53
383.731	105.64
383.941	-15.19
384.151	-43.86
384.361	-23.38
384.571	23.72
384.781	76.97
384.991	58.54
385.201	19.63
385.411	13.48
385.621	56.49
385.831	17.58
386.041	89.26
386.251	36.01
386.461	52.39
386.671	1.19
386.881	13.48
387.091	19.63
387.301	87.21
387.511	36.01
387.72	36.01
387.93	76.97
388.14	-33.62
388.35	95.4
388.56	85.16
388.769	15.53
388.979	52.39
389.189	38.06
389.399	27.82
389.609	62.63
389.818	87.21
390.028	21.67
390.238	76.97
390.447	48.3
390.657	64.68
390.867	89.26
391.076	48.3
391.286	54.44
391.496	72.87
391.705	19.63
391.915	79.02
392.125	-50
392.334	15.53
392.544	72.87
392.753	76.97
392.963	113.83
393.172	13.48
393.382	36.01
393.591	103.59
393.801	-11.09
394.01	-13.14
394.22	76.97
394.429	56.49
394.639	33.96
394.848	21.67
395.058	31.91
395.267	93.35
395.477	36.01
395.686	81.07
395.895	81.07
396.105	91.31
396.314	56.49
396.524	29.87
396.733	48.3
396.942	50.35
397.152	44.2
397.361	167.08
397.57	11.43
397.78	93.35
397.989	33.96
398.198	38.06
398.407	46.25
398.617	87.21
398.826	29.87
399.035	64.68
399.244	60.59
399.453	-7
399.663	52.39
399.872	36.01
400.081	64.68
400.29	68.78
400.499	19.63
400.708	72.87
400.917	72.87
401.127	68.78
401.336	44.2
401.545	117.93
401.754	23.72
401.963	42.15
402.172	56.49
402.381	13.48
402.59	64.68
402.799	101.55
403.008	99.5
403.217	93.35
403.426	64.68
403.635	76.97
403.844	136.36
404.053	105.64
404.262	52.39
404.471	134.31
404.68	62.63
404.888	13.48
405.097	17.58
405.306	95.4
405.515	117.93
405.724	144.55
405.933	117.93
406.142	103.59
406.35	167.08
406.559	87.21
406.768	87.21
406.977	44.2
407.185	128.17
407.394	150.7
407.603	117.93
407.812	160.94
408.02	169.13
408.229	189.61
408.438	58.54
408.646	148.65
408.855	136.36
409.064	109.74
409.272	232.62
409.481	177.32
409.69	167.08
409.898	165.03
410.107	158.89
410.315	193.7
410.524	226.47
410.733	214.18
410.941	130.22
411.15	212.14
411.358	203.94
411.567	189.61
411.775	167.08
411.984	201.9
412.192	216.23
412.401	259.24
412.609	238.76
412.818	267.43
413.026	279.72
413.234	296.1
413.443	425.12
413.651	388.26
413.86	322.73
414.068	371.88
414.276	285.86
414.485	380.07
414.693	390.31
414.901	470.18
415.11	380.07
415.318	390.31
415.526	441.51
415.734	453.8
415.943	502.95
416.151	480.42
416.359	535.71
416.567	459.94
416.776	543.91
416.984	591.01
417.192	599.2
417.4	638.11
417.608	599.2
417.817	548
418.025	609.44
418.233	791.71
418.441	648.35
418.649	732.32
418.857	791.71
419.065	834.72
419.273	789.66
419.481	814.24
419.689	814.24
419.897	920.73
420.105	851.1
420.313	955.55
420.521	947.36
420.729	978.08
420.937	1016.99
421.145	1092.76
421.353	1146.01
421.561	1160.34
421.769	1254.55
421.977	1264.79
422.185	1123.48
422.393	1268.89
422.601	1336.47
422.809	1232.02
423.017	1393.81
423.224	1526.93
423.432	1518.74
423.64	1477.78
423.848	1639.57
424.056	1580.18
424.263	1752.21
424.471	1713.3
424.679	1809.55
424.887	1909.9
425.094	1870.99
425.302	2104.46
425.51	2018.44
425.718	2034.83
425.925	2116.75
426.133	2051.21
426.341	2307.21
426.548	2440.33
426.756	2378.89
426.964	2342.02
427.171	2479.24
427.379	2583.68
427.586	2526.34
427.794	2624.64
428.001	2841.73
428.209	2866.3
428.417	2872.45
428.624	3204.22
428.832	3077.24
429.039	3069.05
429.247	3083.39
429.454	3476.6
429.662	3650.67
429.869	3323
430.076	3619.96
430.284	3525.75
430.491	3724.4
430.699	3845.23
430.906	3849.33
431.114	3855.47
431.321	3998.83
431.528	4174.95
431.736	4451.43
431.943	4664.42
432.15	4510.82
432.358	4615.27
432.565	4846.69
432.772	4686.95
432.979	4942.94
433.187	4961.37
433.394	5086.3
433.601	5440.6
433.808	5405.78
434.016	5446.74
434.223	5684.31
434.43	6071.37
434.637	5872.72
434.844	6329.42
435.052	6278.22
435.259	6233.16
435.466	6397
435.673	6409.29
435.88	6827.07
436.087	7027.78
436.294	7007.3
436.501	6921.28
436.708	7070.78
436.915	7455.8
437.122	7638.07
437.329	7488.57
437.537	7877.68
437.743	7803.96
437.95	7920.69
438.157	8385.58
438.364	8664.1
438.571	8645.67
438.778	8674.34
438.985	9542.68
439.192	8887.33
439.399	9249.82
439.606	9055.26
439.813	9552.92
440.02	10273.81
440.227	9925.65
440.433	9937.94
440.64	10179.6
440.847	10376.2
441.054	10613.77
441.261	11158.53
441.467	11009.03
441.674	11351.04
441.881	11668.47
442.088	11627.51
442.294	11396.09
442.501	11836.41
442.708	11994.1
442.914	12444.65
443.121	12973.03
443.328	12708.84
443.534	13556.7
443.741	13239.26
443.948	12997.6
444.154	13857.75
444.361	13755.35
444.568	14150.61
444.774	14074.84
444.981	14080.98
445.187	14484.43
445.394	15166.4
445.6	14971.85
445.807	16180.15
446.013	15715.26
446.22	15713.21
446.426	16686
446.633	16495.53
446.839	17392.55
447.046	16665.52
447.252	17478.56
447.459	17320.87
447.665	17333.15
447.871	18396.05
448.078	18846.6
448.284	17904.54
448.491	18594.7
448.697	19280.77
448.903	19776.38
449.11	19465.09
449.316	19190.66
449.522	19815.29
449.728	20349.81
449.935	20120.44
450.141	20376.44
450.347	20591.47
450.553	20097.91
450.76	20343.67
450.966	20972.39
451.172	20726.64
451.378	21695.33
451.584	21009.26
451.791	21537.63
451.997	21490.53
452.203	21717.86
452.409	21830.49
452.615	21666.66
452.821	20874.09
453.027	20560.75
453.233	21865.31
453.44	20829.04
453.646	20984.68
453.852	21312.36
454.058	21394.28
454.264	20798.32
454.47	21353.32
454.676	20880.24
454.882	21494.63
455.088	19606.4
455.294	19766.14
455.5	20179.83
455.705	19968.89
455.911	19651.45
456.117	19090.31
456.323	18877.32
456.529	17738.65
456.735	18803.6
456.941	18477.97
457.147	18023.32
457.352	17439.65
457.558	17152.93
457.764	17331.11
457.97	17019.81
458.176	16634.8
458.381	16763.82
458.587	15733.69
458.793	15702.97
458.999	14808.01
459.204	16346.03
459.41	15573.95
459.616	14437.33
459.821	14615.5
460.027	14533.58
460.233	14379.98
460.438	13618.14
460.644	13603.8
460.85	13081.57
461.055	12956.64
461.261	12786.66
461.466	11973.62
461.672	11584.51
461.878	12430.32
462.083	11643.9
462.289	11291.65
462.494	11387.9
462.7	10769.41
462.905	10564.62
463.111	11013.12
463.316	11011.07
463.522	10523.66
463.727	10734.6
463.932	10603.53
464.138	10634.25
464.343	10570.76
464.549	10390.54
464.754	10468.36
464.959	10310.67
465.165	10390.54
465.37	10026
465.575	9874.45
465.781	10132.5
465.986	10243.09
466.191	9798.68
466.397	9520.15
466.602	9335.84
466.807	9561.11
467.012	9550.87
467.218	9487.39
467.423	9485.34
467.628	9395.23
467.833	9868.31
468.038	9589.78
468.244	9202.72
468.449	9477.15
468.654	9268.25
468.859	9243.68
469.064	9301.02
469.269	8791.08
469.474	8907.81
469.679	9059.36
469.885	8793.12
470.09	8858.66
470.295	8834.08
470.5	8508.46
470.705	8594.47
470.91	8430.63
471.115	8598.57
471.32	8512.55
471.525	8637.48
471.73	8211.5
471.935	8334.38
472.139	7926.83
472.344	8035.38
472.549	8043.57
472.754	7666.74
472.959	7719.99
473.164	7511.1
473.369	7359.55
473.574	7799.86
473.778	7744.56
473.983	7617.59
474.188	7572.54
474.393	7283.77
474.598	7353.4
474.802	7283.77
475.007	7101.5
475.212	7121.98
475.417	6913.09
475.621	6906.95
475.826	6964.29
476.031	6982.72
476.235	6571.08
476.44	6816.83
476.645	6605.89
476.849	6683.72
477.054	6466.63
477.259	6474.82
477.463	6431.82
477.668	6284.36
477.872	6442.06
478.077	6296.65
478.282	6093.9
478.486	6227.02
478.691	5954.64
478.895	6089.81
479.1	6028.37
479.304	6057.04
479.509	5874.77
479.713	6196.3
479.918	5868.63
480.122	5784.66
480.326	5856.34
480.531	5874.77
480.735	5831.76
480.94	5862.48
481.144	6001.74
481.348	5633.11
481.553	5602.39
481.757	5598.29
481.961	5690.45
482.166	5639.25
482.37	5420.12
482.574	5446.74
482.778	5575.77
482.983	5631.06
483.187	5706.84
483.391	5678.16
483.595	5737.56
483.8	5629.01
484.004	5629.01
484.208	5633.11
484.412	5594.2
484.616	5540.95
484.821	5512.28
485.025	5592.15
485.229	5547.09
485.433	5586.01
485.637	5471.32
485.841	5510.23
486.045	5565.53
486.249	5461.08
486.453	5440.6
486.657	5637.2
486.861	5747.79
487.065	5516.37
487.269	5655.64
487.473	5489.75
487.677	5473.37
487.881	5755.99
488.085	5520.47
488.289	5649.49
488.493	5665.88
488.697	5811.28
488.901	5551.19
489.105	5688.4
489.309	5690.45
489.512	5665.88
489.716	5786.71
489.92	5614.68
490.124	5739.6
490.328	5618.77
490.531	5686.36
490.735	5796.95
490.939	5741.65
491.143	5819.47
491.346	5737.56
491.55	5860.43
491.754	5911.63
491.958	5946.45
492.161	6020.17
492.365	6159.44
492.569	5983.31
492.772	6075.47
492.976	6106.19
493.18	6169.68
493.383	6169.68
493.587	6165.58
493.79	6210.64
493.994	6257.74
494.197	6216.78
494.401	6321.23
494.605	6298.7
494.808	6386.76
495.012	6577.22
495.215	6511.69
495.419	6630.47
495.622	6513.74
495.825	6579.27
496.029	6702.15
496.232	6747.2
496.436	6687.81
496.639	6954.05
496.843	6896.71
497.046	7126.08
497.249	7099.45
497.453	7195.71
497.656	7144.51
497.859	6999.1
498.063	7394.36
498.266	7443.51
498.469	7412.79
498.673	7742.52
498.876	7689.27
499.079	7746.61
499.282	7879.73
499.485	7953.46
499.689	7855.15
499.892	8084.53
500.095	8158.25
500.298	8303.66
500.501	8305.71
500.705	8537.13
500.908	8594.47
501.111	8729.64
501.314	8752.17
501.517	9010.21
501.72	8985.63
501.923	9098.27
502.126	9133.09
502.329	9397.28
502.532	9503.77
502.735	9296.92
502.938	9550.87
503.141	9853.97
503.344	9759.77
503.547	9948.18
503.75	10077.2
503.953	10400.78
504.156	10433.55
504.359	10431.5
504.562	10587.15
504.765	10710.02
504.968	10886.15
505.17	11019.27
505.373	11088.9
505.576	11303.93
505.779	11465.72
505.982	11475.96
506.185	11688.95
506.387	11740.15
506.59	12047.35
506.793	12395.5
506.996	12190.7
507.198	12639.21
507.401	12395.5
507.604	12655.59
507.807	12866.53
508.009	13007.84
508.212	13175.78
508.415	13556.7
508.617	13544.41
508.82	13579.23
509.022	13669.34
509.225	13921.24
509.428	14230.48
509.63	14197.71
509.833	14322.64
510.035	14715.85
510.238	14914.5
510.44	15006.66
510.643	15139.78
510.845	15217.6
511.048	15367.1
511.25	15705.02
511.453	15877.05
511.655	16102.32
511.858	16186.29
512.06	16272.31
512.262	16755.63
512.465	16417.71
512.667	16898.98
512.87	17376.16
513.072	17193.89
513.274	17644.45
513.477	17634.21
513.679	17933.21
513.881	18273.17
514.084	18178.97
514.286	18381.71
514.488	18318.23
514.69	19282.82
514.893	19073.93
515.095	19467.14
515.297	19526.53
515.499	19590.02
515.701	19983.23
515.904	20409.2
516.106	20185.97
516.308	20624.24
516.51	21001.07
516.712	20833.13
516.914	21351.27
517.116	21758.81
517.318	21666.66
517.52	21724
517.722	21822.3
517.925	22190.94
518.127	22430.55
518.329	22965.07
518.531	22590.29
518.733	23319.37
518.935	23665.47
519.136	23622.47
519.338	23583.55
519.54	23956.29
519.742	24529.72
519.944	24451.89
520.146	24830.77
520.348	24900.4
520.55	24914.73
520.752	25193.26
520.954	25582.37
521.155	25676.58
521.357	26094.36
521.559	26141.47
521.761	26624.79
521.963	26622.74
522.164	27183.88
522.366	26981.13
522.568	27222.8
522.77	27714.31
522.971	27896.58
523.173	27800.32
523.375	28271.36
523.576	28379.9
523.778	28158.72
523.98	28783.35
524.181	28846.83
524.383	28836.59
524.584	29385.45
524.786	29422.31
524.988	29176.56
525.189	29838.05
525.391	29866.72
525.592	29969.12
525.794	30116.58
525.995	30108.38
526.197	30720.73
526.398	30530.26
526.6	30782.16
526.801	30808.79
527.003	31197.9
527.204	31316.68
527.406	31507.15
527.607	31367.88
527.808	31245.01
528.01	31335.12
528.211	31550.15
528.412	31951.56
528.614	31902.4
528.815	31910.6
529.016	32408.25
529.218	31808.2
529.419	32213.7
529.62	32293.57
529.822	32107.2
530.023	32408.25
530.224	32531.13
530.425	32625.34
530.626	32983.73
530.828	32588.47
531.029	33075.89
531.23	32580.28
531.431	32783.03
531.632	33000.12
531.833	33170.1
532.035	33045.17
532.236	33489.58
532.437	33301.17
532.638	33409.71
532.839	33555.11
533.04	33622.7
533.241	33059.51
533.442	33700.52
533.643	33452.72
533.844	33307.31
534.045	33673.9
534.246	33262.26
534.447	33917.61
534.648	33471.15
534.849	33895.08
535.05	33352.37
535.251	33499.82
535.451	33614.51
535.652	33610.41
535.853	33524.4
536.054	33575.59
536.255	33882.79
536.456	33383.09
536.657	34157.22
536.857	33546.92
537.058	33745.58
537.259	33714.86
537.46	34175.65
537.66	33268.4
537.861	33591.98
538.062	33667.75
538.263	33749.67
538.463	33927.84
538.664	33575.59
538.865	33958.56
539.065	34310.82
539.266	33524.4
539.466	34132.64
539.667	33528.49
539.868	33723.05
540.068	33581.74
540.269	33657.51
540.469	33743.53
540.67	33862.31
540.87	33606.31
541.071	33422
541.271	33739.43
541.472	33860.26
541.672	33536.68
541.873	33454.76
542.073	33376.94
542.274	33970.85
542.474	33755.82
542.675	33327.79
542.875	33837.73
543.075	34024.1
543.276	32862.9
543.476	34071.2
543.676	33323.69
543.877	33469.1
544.077	33497.77
544.277	33532.59
544.478	33841.83
544.678	33704.62
544.878	33510.06
545.078	33714.86
545.279	33778.34
545.479	33575.59
545.679	34134.69
545.879	33591.98
546.079	33594.03
546.28	33716.9
546.48	33360.56
546.68	33526.44
546.88	33643.18
547.08	33845.93
547.28	33532.59
547.48	33499.82
547.68	33768.1
547.88	33444.52
548.081	34024.1
548.281	33465
548.481	33776.3
548.681	33807.01
548.881	33622.7
549.081	33823.4
549.28	33940.13
549.48	34075.3
549.68	33563.31
549.88	33985.19
550.08	33612.46
550.28	33739.43
550.48	33634.99
550.68	33815.21
550.88	33473.2
551.08	33551.02
551.279	33776.3
551.479	33352.37
551.679	33761.96
551.879	33520.3
552.079	33923.75
552.278	33508.01
552.478	33624.75
552.678	33585.83
552.878	33399.47
553.077	33325.74
553.277	32832.18
553.477	33911.46
553.676	33450.67
553.876	33389.23
554.076	33274.54
554.275	33059.51
554.475	32983.73
554.674	33540.78
554.874	33372.85
555.074	33114.8
555.273	33297.07
555.473	33260.21
555.672	33125.04
555.872	33256.11
556.071	33354.41
556.271	33338.03
556.47	33043.12
556.67	32813.75
556.869	33045.17
557.068	33127.09
557.268	32512.7
557.467	32910
557.667	32864.95
557.866	32969.4
558.065	32715.45
558.265	32770.74
558.464	32623.29
558.663	32766.65
558.863	32400.06
559.062	32557.75
559.261	32262.85
559.461	32873.14
559.66	32232.13
559.859	32619.19
560.058	32344.77
560.258	32522.94
560.457	32064.19
560.656	32285.37
560.855	32254.65
561.054	32543.42
561.253	31963.84
561.453	32168.64
561.652	32129.73
561.851	32205.5
562.05	31892.16
562.249	31634.12
562.448	32187.07
562.647	31595.21
562.846	31910.6
563.045	31507.15
563.244	31466.19
563.443	31883.97
563.642	31296.21
563.841	31808.2
564.04	31445.71
564.239	31576.78
564.438	31349.45
564.637	31566.54
564.836	31840.96
565.035	31122.13
565.234	31427.28
565.432	31113.94
565.631	31072.98
565.83	31181.52
566.029	31341.26
566.228	31191.76
566.427	30765.78
566.625	31021.78
566.824	30452.44
567.023	30888.66
567.222	30100.19
567.42	30730.97
567.619	30329.56
567.818	30329.56
568.016	30399.19
568.215	30470.87
568.414	30532.31
568.612	30556.89
568.811	30933.71
569.01	30345.95
569.208	29788.9
569.407	30421.72
569.605	29692.65
569.804	30075.62
570.002	30075.62
570.201	29977.31
570.4	29704.93
570.598	29543.14
570.797	29485.8
570.995	29385.45
571.193	28916.47
571.392	29426.41
571.59	29063.92
571.789	29029.1
571.987	28883.7
572.186	28920.56
572.384	29082.35
572.582	29383.4
572.781	29027.06
572.979	28371.71
573.177	28713.72
573.376	28633.85
573.574	28390.14
573.772	28420.86
573.971	28300.03
574.169	28099.33
574.367	27759.36
574.565	28404.47
574.763	27853.57
574.962	27929.34
575.16	27689.73
575.358	27925.25
575.556	27478.79
575.754	28148.48
575.952	27376.39
576.151	28062.46
576.349	27245.32
576.547	27304.71
576.745	27403.02
576.943	27386.63
577.141	27134.73
577.339	26989.33
577.537	27050.77
577.735	27056.91
577.933	26757.91
578.131	26741.52
578.329	26610.45
578.527	26204.95
578.725	26596.12
578.923	26387.22
579.121	26471.19
579.319	26247.96
579.516	26352.41
579.714	26356.5
579.912	26133.28
580.11	26073.88
580.308	25832.22
580.506	25858.85
580.704	25537.32
580.901	25594.66
581.099	25791.27
581.297	25279.27
581.495	25467.69
581.692	25684.77
581.89	25264.94
582.088	25336.62
582.285	25226.03
582.483	25226.03
582.681	25197.35
582.878	24881.97
583.076	24789.81
583.274	25060.14
583.471	24693.55
583.669	24949.55
583.866	24619.83
584.064	24853.3
584.262	24421.17
584.459	24666.93
584.657	24392.5
584.854	24404.79
585.052	24150.84
585.249	24435.51
585.447	24202.04
585.644	24144.7
585.841	24357.69
586.039	24050.49
586.236	23694.15
586.434	23798.59
586.631	23894.85
586.828	23778.11
587.026	23618.37
587.223	23565.12
587.42	23450.44
587.618	23475.01
587.815	23317.32
588.012	23335.75
588.21	23210.82
588.407	23530.31
588.604	22819.66
588.801	22901.58
588.999	23122.76
589.196	22752.08
589.393	22737.74
589.59	22797.13
589.787	22573.91
589.984	22539.09
590.182	22354.77
590.379	22702.93
590.576	22387.54
590.773	22506.32
590.97	21924.7
591.167	22305.62
591.364	22018.91
591.561	22139.74
591.758	21959.52
591.955	22197.08
592.152	22154.07
592.349	21891.93
592.546	21621.6
592.743	21885.79
592.94	21295.97
593.137	21597.03
593.334	21486.43
593.531	21384.04
593.727	21408.61
593.924	21609.31
594.121	21269.35
594.318	21375.84
594.515	21103.46
594.712	21377.89
594.908	21021.55
595.105	21072.75
595.302	20466.55
595.499	20925.29
595.696	21007.21
595.892	20644.72
596.089	20845.42
596.286	20673.39
596.482	20480.88
596.679	20622.19
596.876	20857.71
597.072	20468.59
597.269	20456.31
597.466	20327.28
597.662	20368.24
597.859	20310.9
598.055	20327.28
598.252	19893.12
598.448	20005.75
598.645	19952.51
598.841	19676.03
599.038	19721.09
599.234	19712.89
599.431	19661.69
599.627	19579.78
599.824	19504
600.02	19618.69
600.217	19420.03
600.413	19268.48
600.609	19475.33
600.806	19534.72
601.002	19110.79
601.198	19147.65
601.395	19143.56
601.591	19323.78
601.787	19309.44
601.984	18617.23
602.18	19012.49
602.376	18852.75
602.572	18586.51
602.769	18944.91
602.965	18699.15
603.161	18645.9
603.357	18424.72
603.553	18459.54
603.75	18310.04
603.946	18121.62
604.142	18391.95
604.338	18043.8
604.534	18510.74
604.73	17875.87
604.926	17826.71
605.122	17824.67
605.318	17816.47
605.514	17970.07
605.71	17851.29
605.906	17576.86
606.102	17521.57
606.298	17623.97
606.494	17730.46
606.69	17669.02
606.886	17537.95
607.082	17255.33
607.278	17458.08
607.474	17025.96
607.67	17087.4
607.866	16921.51
608.062	17159.08
608.257	17208.23
608.453	16913.32
608.649	17056.68
608.845	17046.44
609.041	16962.47
609.236	16765.87
609.432	16941.99
609.628	16964.52
609.824	16759.72
610.019	16497.58
610.215	16634.8
610.411	16722.86
610.606	16417.71
610.802	16491.44
610.998	16292.79
611.193	16323.51
611.389	16200.63
611.584	16153.52
611.78	16104.37
611.976	16505.77
612.171	16010.17
612.367	16051.13
612.562	16159.67
612.758	15756.22
612.953	15956.92
613.149	16055.22
613.344	15819.71
613.539	15879.1
613.735	15778.75
613.93	16032.69
614.126	15678.4
614.321	15788.99
614.517	15705.02
614.712	15500.22
614.907	15248.32
615.103	15465.41
615.298	15401.92
615.493	15688.64
615.688	15313.86
615.884	15623.1
616.079	15012.81
616.274	15303.62
616.47	15190.98
616.665	15152.07
616.86	15104.96
617.055	14906.31
617.25	15059.91
617.445	15023.05
617.641	14609.36
617.836	15014.85
618.031	14676.94
618.226	14861.26
618.421	14558.16
618.616	14910.41
618.811	14566.35
619.006	14881.74
619.201	14304.21
619.396	14422.99
619.591	14166.99
619.786	14386.13
619.981	14025.68
620.176	14037.97
620.371	14212.05
620.566	14080.98
620.761	13976.53
620.956	14050.26
621.151	13751.26
621.346	13945.81
621.541	13530.08
621.735	13708.25
621.93	13421.53
622.125	13556.7
622.32	13317.09
622.515	13503.45
622.709	13116.39
622.904	13323.23
623.099	13085.67
623.294	13235.17
623.488	13134.82
623.683	13108.19
623.878	12741.61
624.072	12778.47
624.267	12925.93
624.462	12737.51
624.656	12557.29
624.851	12434.41
625.046	12389.36
625.24	12538.86
625.435	12110.83
625.629	12143.6
625.824	12008.44
626.018	12196.85
626.213	11932.66
626.407	11863.03
626.602	11811.83
626.796	11908.08
626.991	12008.44
627.185	11811.83
627.38	11887.61
627.574	11607.03
627.768	11496.44
627.963	11516.92
628.157	11379.71
628.352	11340.8
628.546	11238.4
628.74	11219.97
628.935	11324.41
629.129	11437.05
629.323	11133.95
629.517	10974.21
629.712	10992.64
629.906	11078.66
630.1	10699.78
630.294	10726.41
630.489	10499.08
630.683	10859.52
630.877	10570.76
631.071	10531.85
631.265	10658.82
631.459	10468.36
631.653	10392.59
631.848	10599.43
632.042	10251.28
632.236	10253.33
632.43	10138.64
632.624	10183.7
632.818	9913.36
633.012	10042.39
633.206	9890.84
633.4	9921.56
633.594	9884.69
633.788	9923.6
633.982	9673.75
634.176	9851.92
634.369	9544.73
634.563	9669.66
634.757	9669.66
634.951	9595.93
635.145	9620.5
635.339	9593.88
635.533	9423.9
635.726	9245.73
635.92	9464.86
636.114	9485.34
636.308	9352.22
636.501	9417.75
636.695	9323.55
636.889	9055.26
637.083	9116.7
637.276	9145.38
637.47	9069.6
637.664	8866.85
637.857	8948.77
638.051	8918.05
638.244	8799.27
638.438	8782.88
638.632	8641.57
638.825	8733.73
639.019	8506.41
639.212	8588.33
639.406	8496.17
639.599	8408.11
639.793	8498.22
639.986	8315.95
640.18	8285.23
640.373	8248.36
640.567	8178.73
640.76	8174.64
640.954	8172.59
641.147	8186.93
641.34	7912.5
641.534	7812.15
641.727	7836.72
641.92	7896.11
642.114	8010.8
642.307	7705.65
642.5	7830.58
642.694	7705.65
642.887	7529.53
643.08	7808.05
643.273	7615.54
643.467	7738.42
643.66	7564.34
643.853	7482.42
644.046	7449.66
644.239	7484.47
644.432	7398.46
644.626	7328.83
644.819	7269.44
645.012	7461.94
645.205	7060.54
645.398	7011.39
645.591	7033.92
645.784	7093.31
645.977	6952
646.17	6935.62
646.363	6868.03
646.556	6798.4
646.749	6741.06
646.942	7025.73
647.135	6822.98
647.328	6648.9
647.521	6790.21
647.714	6538.31
647.907	6614.09
648.099	6403.14
648.292	6618.18
648.485	6466.63
648.678	6212.68
648.871	6284.36
649.064	6382.67
649.256	6345.8
649.449	6397
649.642	6136.91
649.835	6141
650.027	6083.66
650.22	6083.66
650.413	6073.42
650.605	5964.88
650.798	5866.58
650.991	5796.95
651.183	5948.5
651.376	5893.2
651.568	5846.1
651.761	5958.74
651.954	5815.38
652.146	5805.14
652.339	5575.77
652.531	5760.08
652.724	5786.71
652.916	5612.63
653.109	5446.74
653.301	5502.04
653.494	5581.91
653.686	5350.49
653.879	5555.29
654.071	5397.59
654.263	5254.23
654.456	5467.22
654.648	5313.63
654.84	5266.52
655.033	5155.93
655.225	5289.05
655.417	5196.89
655.61	5229.66
655.802	5117.02
655.994	4971.61
656.186	5039.2
656.379	5028.96
656.571	5203.04
656.763	4850.78
656.955	4881.5
657.148	5067.87
657.34	4818.02
657.532	4861.02
657.724	4725.86
657.916	4844.64
658.108	4787.3
658.3	4609.12
658.492	4836.45
658.684	4564.07
658.876	4557.93
659.068	4525.16
659.26	4387.94
659.452	4412.52
659.644	4385.9
659.836	4392.04
660.028	4389.99
660.22	4371.56
660.412	4375.66
660.604	4240.49
660.796	4256.87
660.988	4332.65
661.18	4265.07
661.372	4226.15
661.563	4246.63
661.755	4066.41
661.947	4115.56
662.139	4148.33
662.331	4101.23
662.522	4007.02
662.714	4035.69
662.906	3980.4
663.097	4058.22
663.289	3847.28
663.481	3820.66
663.673	3976.3
663.864	3773.55
664.056	3900.53
664.247	3878
664.439	3767.41
664.631	3685.49
664.822	3742.83
665.014	3787.89
665.205	3617.91
665.397	3589.24
665.588	3593.33
665.78	3583.09
665.971	3556.47
666.163	3562.61
666.354	3556.47
666.546	3423.35
666.737	3552.37
666.929	3595.38
667.12	3378.3
667.311	3497.08
667.503	3394.68
667.694	3490.93
667.885	3351.67
668.077	3312.76
668.268	3271.8
668.459	3343.48
668.651	3378.3
668.842	3296.38
669.033	3337.34
669.224	3320.95
669.416	3265.66
669.607	3206.27
669.798	3159.16
669.989	3384.44
670.18	3279.99
670.371	3134.59
670.563	3159.16
670.754	3056.76
670.945	3103.87
671.136	3046.52
671.327	2944.13
671.518	3007.61
671.709	3146.87
671.9	3069.05
672.091	2933.89
672.282	3044.48
672.473	2956.41
672.664	3069.05
672.855	2978.94
673.046	2948.22
673.237	3003.52
673.428	2892.93
673.619	2833.54
673.809	2958.46
674	2886.78
674.191	2907.26
674.382	2860.16
674.573	2813.06
674.764	2782.34
674.954	2702.47
675.145	2772.1
675.336	2712.71
675.527	2888.83
675.717	2892.93
675.908	2763.9
676.099	2821.25
676.289	2770.05
676.48	2595.97
676.671	2813.06
676.861	2780.29
677.052	2692.23
677.243	2708.61
677.433	2579.59
677.624	2679.94
677.814	2712.71
678.005	2698.37
678.195	2614.4
678.386	2593.92
678.576	2659.46
678.767	2610.31
678.957	2677.89
679.148	2675.84
679.338	2526.34
679.529	2466.95
679.719	2495.62
679.909	2591.88
680.1	2512
680.29	2567.3
680.481	2532.48
680.671	2526.34
680.861	2405.51
681.052	2569.35
681.242	2509.96
681.432	2606.21
681.622	2401.41
681.813	2569.35
682.003	2495.62
682.193	2417.8
682.383	2495.62
682.573	2493.57
682.764	2405.51
682.954	2501.76
683.144	2339.97
683.334	2350.21
683.524	2460.81
683.714	2475.14
683.904	2395.27
684.094	2382.98
684.284	2512
684.474	2413.7
684.664	2317.45
684.854	2460.81
685.044	2372.74
685.234	2421.89
685.424	2421.89
685.614	2469
685.804	2395.27
685.994	2321.54
686.184	2303.11
686.374	2372.74
686.564	2436.23
686.753	2397.32
686.943	2268.3
687.133	2276.49
687.323	2321.54
687.513	2333.83
687.702	2323.59
687.892	2194.57
688.082	2276.49
688.272	2321.54
688.461	2313.35
688.651	2311.3
688.841	2296.97
689.03	2294.92
689.22	2247.82
689.41	2233.48
689.599	2223.24
689.789	2346.12
689.979	2323.59
690.168	2262.15
690.358	2323.59
690.547	2350.21
690.737	2317.45
690.926	2278.54
691.116	2296.97
691.305	2325.64
691.495	2253.96
691.684	2280.58
691.874	2213
692.063	2172.04
692.252	2258.06
692.442	2323.59
692.631	2116.75
692.82	2313.35
693.01	2202.76
693.199	2198.67
693.388	2219.14
693.578	2284.68
693.767	2180.23
693.956	2309.26
694.146	2176.14
694.335	2243.72
694.524	2198.67
694.713	2225.29
694.902	2303.11
695.092	2266.25
695.281	2215.05
695.47	2241.67
695.659	2196.62
695.848	2256.01
696.037	2256.01
696.226	2237.58
696.415	2253.96
696.604	2126.99
696.793	2358.41
696.982	2278.54
697.171	2200.71
697.36	2258.06
697.549	2223.24
697.738	2247.82
697.927	2151.56
698.116	2182.28
698.305	2188.43
698.494	2270.34
698.683	2202.76
698.872	2174.09
699.061	2223.24
699.25	2165.9
699.438	2141.32
699.627	2208.9
699.816	2219.14
700.005	2213
700.193	2149.51
700.382	2167.95
700.571	2124.94
700.76	2151.56
700.948	2141.32
701.137	2120.84
701.326	2167.95
701.514	2161.8
701.703	2198.67
701.892	2038.92
702.08	2178.19
702.269	2118.79
702.457	2002.06
702.646	2075.79
702.834	2081.93
703.023	2104.46
703.212	2020.49
703.4	2100.36
703.589	2112.65
703.777	2071.69
703.965	2135.18
704.154	2094.22
704.342	2032.78
704.531	1969.29
704.719	2071.69
704.907	2088.07
705.096	1981.58
705.284	2047.12
705.472	2135.18
705.661	2030.73
705.849	2049.16
706.037	2071.69
706.226	2067.6
706.414	1977.48
706.602	2116.75
706.79	2143.37
706.979	1981.58
707.167	1827.98
707.355	1969.29
707.543	1977.48
707.731	1938.57
707.919	1977.48
708.107	1903.76
708.296	1942.67
708.484	1854.61
708.672	1944.72
708.86	1864.85
709.048	1879.18
709.236	2018.44
709.424	1907.85
709.612	1930.38
709.8	1795.22
709.988	1780.88
710.176	1907.85
710.364	1920.14
710.551	1807.5
710.739	1756.3
710.927	1813.65
711.115	1803.41
711.303	1911.95
711.491	1731.73
711.679	1692.82
711.866	1795.22
712.054	1801.36
712.242	1703.06
712.43	1739.92
712.617	1813.65
712.805	1696.91
712.993	1709.2
713.181	1617.04
713.368	1744.02
713.556	1651.86
713.744	1752.21
713.931	1660.05
714.119	1750.16
714.306	1676.43
714.494	1705.1
714.682	1684.62
714.869	1703.06
715.057	1633.43
715.244	1649.81
715.432	1705.1
715.619	1664.15
715.807	1553.55
715.994	1639.57
716.182	1576.08
716.369	1658
716.556	1660.05
716.744	1516.69
716.931	1635.47
717.119	1551.51
717.306	1645.71
717.493	1592.47
717.681	1518.74
717.868	1537.17
718.055	1627.28
718.242	1516.69
718.43	1588.37
718.617	1555.6
718.804	1559.7
718.991	1535.12
719.179	1453.2
719.366	1506.45
719.553	1440.92
719.74	1580.18
719.927	1416.34
720.114	1471.64
720.301	1354.9
720.488	1469.59
720.676	1385.62
720.863	1363.09
721.05	1457.3
721.237	1408.15
721.424	1352.85
721.611	1402.01
721.798	1326.23
721.985	1332.37
722.172	1359
722.358	1324.18
722.545	1297.56
722.732	1250.46
722.919	1369.24
723.106	1334.42
723.293	1367.19
723.48	1354.9
723.667	1287.32
723.853	1291.41
724.04	1264.79
724.227	1315.99
724.414	1277.08
724.6	1262.74
724.787	1311.89
724.974	1324.18
725.161	1076.38
725.347	1264.79
725.534	1246.36
725.72	1305.75
725.907	1354.9
726.094	1164.44
726.28	1211.54
726.467	1195.16
726.653	1191.06
726.84	1305.75
727.027	1248.41
727.213	1240.22
727.4	1184.92
727.586	1240.22
727.773	1170.58
727.959	1182.87
728.145	1168.54
728.332	1254.55
728.518	1232.02
728.705	1170.58
728.891	1201.3
729.077	1207.45
729.264	1168.54
729.45	1193.11
729.636	1174.68
729.823	1076.38
730.009	1154.2
730.195	1094.81
730.382	1148.06
730.568	1143.96
730.754	1043.61
730.94	1084.57
731.126	1150.11
731.313	1117.34
731.499	1109.15
731.685	1115.29
731.871	1080.47
732.057	1123.48
732.243	1096.86
732.429	1068.19
732.615	1012.89
732.801	1088.67
732.987	1068.19
733.173	1002.65
733.359	1111.19
733.545	1008.8
733.731	1111.19
733.917	1068.19
734.103	1070.23
734.289	1006.75
734.475	1021.08
734.661	1027.23
734.847	1051.8
735.033	978.08
735.219	990.36
735.404	973.98
735.59	922.78
735.776	1021.08
735.962	1000.6
736.148	937.12
736.333	990.36
736.519	1012.89
736.705	914.59
736.89	973.98
737.076	961.69
737.262	941.21
737.447	930.97
737.633	971.93
737.819	969.88
738.004	922.78
738.19	965.79
738.375	896.16
738.561	898.2
738.747	879.77
738.932	937.12
739.118	933.02
739.303	898.2
739.489	914.59
739.674	859.29
739.859	847.01
740.045	838.81
740.23	824.48
740.416	916.64
740.601	847.01
740.786	863.39
740.972	910.49
741.157	949.4
741.342	881.82
741.528	826.53
741.713	865.44
741.898	787.61
742.084	849.05
742.269	890.01
742.454	793.76
742.639	801.95
742.824	873.63
743.01	873.63
743.195	808.09
743.38	838.81
743.565	767.13
743.75	787.61
743.935	742.56
744.12	840.86
744.305	773.28
744.49	748.7
744.675	773.28
744.86	758.94
745.045	752.8
745.23	711.84
745.415	822.43
745.6	857.25
745.785	711.84
745.97	699.55
746.155	787.61
746.34	674.98
746.525	699.55
746.71	799.9
746.895	730.27
747.079	789.66
747.264	740.51
747.449	732.32
747.634	709.79
747.819	707.74
748.003	756.9
748.188	674.98
748.373	640.16
748.557	742.56
748.742	648.35
748.927	709.79
749.111	636.06
749.296	691.36
749.481	650.4
749.665	654.5
749.85	672.93
750.034	746.66
750.219	703.65
750.404	619.68
750.588	668.83
750.773	703.65
750.957	662.69
751.141	679.07
751.326	607.39
751.51	648.35
751.695	603.3
751.879	601.25
752.064	586.91
752.248	545.95
752.432	601.25
752.617	656.54
752.801	603.3
752.985	595.11
753.17	646.3
753.354	539.81
753.538	609.44
753.722	543.91
753.907	527.52
754.091	584.87
754.275	607.39
754.459	576.67
754.643	584.87
754.828	533.67
755.012	535.71
755.196	507.04
755.38	468.13
755.564	470.18
755.748	484.52
755.932	560.29
756.116	502.95
756.3	617.63
756.484	507.04
756.668	525.47
756.852	476.32
757.036	537.76
757.22	511.14
757.404	431.27
757.588	523.43
757.772	484.52
757.956	586.91
758.14	447.65
758.323	515.23
758.507	539.81
758.691	490.66
758.875	453.8
759.059	445.6
759.242	427.17
759.426	507.04
759.61	478.37
759.794	464.04
759.977	498.85
760.161	478.37
760.345	472.23
760.528	472.23
760.712	461.99
760.895	535.71
761.079	423.08
761.263	468.13
761.446	421.03
761.63	343.21
761.813	285.86
761.997	400.55
762.18	421.03
762.364	418.98
762.547	373.92
762.731	418.98
762.914	394.4
763.098	464.04
763.281	371.88
763.464	400.55
763.648	382.12
763.831	357.54
764.015	314.53
764.198	378.02
764.381	449.7
764.564	390.31
764.748	373.92
764.931	384.16
765.114	410.79
765.297	447.65
765.481	388.26
765.664	375.97
765.847	400.55
766.03	330.92
766.213	384.16
766.397	373.92
766.58	433.32
766.763	412.84
766.946	341.16
767.129	396.45
767.312	369.83
767.495	369.83
767.678	343.21
767.861	461.99
768.044	373.92
768.227	341.16
768.41	349.35
768.593	445.6
768.776	380.07
768.959	343.21
769.142	326.82
769.324	277.67
769.507	394.4
769.69	324.77
769.873	289.96
770.056	388.26
770.239	330.92
770.421	292.01
770.604	337.06
770.787	361.64
770.97	369.83
771.152	429.22
771.335	285.86
771.518	332.97
771.7	388.26
771.883	349.35
772.066	343.21
772.248	388.26
772.431	369.83
772.613	318.63
772.796	388.26
772.978	339.11
773.161	390.31
773.343	335.01
773.526	416.93
773.708	357.54
773.891	275.62
774.073	359.59
774.256	320.68
774.438	347.3
774.621	281.77
774.803	279.72
774.985	308.39
775.168	322.73
775.35	306.34
775.532	265.38
775.715	314.53
775.897	367.78
776.079	298.15
776.261	310.44
776.444	265.38
776.626	310.44
776.808	222.38
776.99	275.62
777.173	269.48
777.355	173.22
777.537	373.92
777.719	351.4
777.901	298.15
778.083	265.38
778.265	183.46
778.447	339.11
778.629	228.52
778.811	300.2
778.993	296.1
779.175	244.9
779.357	236.71
779.539	232.62
779.721	246.95
779.903	388.26
780.085	218.28
780.267	212.14
780.449	269.48
780.631	271.53
780.812	257.19
780.994	306.34
781.176	195.75
781.358	289.96
781.54	269.48
781.721	216.23
781.903	195.75
782.085	244.9
782.267	249
782.448	275.62
782.63	271.53
782.812	185.51
782.993	218.28
783.175	283.81
783.357	193.7
783.538	257.19
783.72	185.51
783.901	189.61
784.083	201.9
784.264	224.42
784.446	134.31
784.627	146.6
784.809	169.13
784.99	181.42
785.172	265.38
785.353	195.75
785.535	234.66
785.716	210.09
785.897	195.75
786.079	199.85
786.26	165.03
786.441	208.04
786.623	222.38
786.804	160.94
786.985	191.66
787.167	160.94
787.348	130.22
787.529	187.56
787.71	152.74
787.891	273.57
788.073	144.55
788.254	171.18
788.435	203.94
788.616	140.46
788.797	218.28
788.978	240.81
789.159	275.62
789.34	249
789.522	142.5
789.703	158.89
789.884	138.41
790.065	130.22
790.246	150.7
790.427	128.17
790.607	210.09
790.788	167.08
790.969	177.32
791.15	277.67
791.331	203.94
791.512	183.46
791.693	113.83
791.874	158.89
792.054	191.66
792.235	150.7
792.416	165.03
792.597	93.35
792.778	195.75
792.958	162.98
793.139	212.14
793.32	132.26
793.5	150.7
793.681	152.74
793.862	173.22
794.042	154.79
794.223	160.94
794.404	50.35
794.584	99.5
794.765	136.36
794.945	124.07
795.126	113.83
795.306	109.74
795.487	117.93
795.667	115.88
795.848	142.5
796.028	144.55
796.209	70.83
796.389	203.94
796.57	117.93
796.75	144.55
796.93	146.6
797.111	169.13
797.291	68.78
797.471	113.83
797.652	191.66
797.832	122.02
798.012	68.78
798.192	136.36
798.373	48.3
798.553	128.17
798.733	109.74
798.913	181.42
799.093	152.74
799.274	128.17
799.454	60.59
799.634	150.7
799.814	85.16
799.994	109.74
800.174	130.22
800.354	146.6
800.534	117.93
800.714	74.92
800.894	93.35
801.074	132.26
801.254	81.07
801.434	87.21
801.614	85.16
801.794	58.54
801.974	369.83
802.154	173.22
802.334	122.02
802.514	122.02
802.693	27.82
802.873	72.87
803.053	142.5
803.233	83.11
803.413	140.46
803.592	81.07
803.772	62.63
803.952	85.16
804.131	62.63
804.311	132.26
804.491	109.74
804.67	48.3
804.85	56.49
805.03	119.98
805.209	109.74
805.389	62.63
805.568	89.26
805.748	101.55
805.928	76.97
806.107	72.87
806.287	144.55
806.466	85.16
806.646	54.44
806.825	17.58
807.004	42.15
807.184	79.02
807.363	122.02
807.543	103.59
807.722	68.78
807.901	134.31
808.081	54.44
808.26	13.48
808.439	21.67
808.619	76.97
808.798	81.07
808.977	97.45
809.156	142.5
809.336	31.91
809.515	126.12
809.694	42.15
809.873	126.12
810.052	56.49
810.231	126.12
810.411	103.59
810.59	83.11
810.769	52.39
810.948	74.92
811.127	23.72
811.306	79.02
811.485	60.59
811.664	89.26
811.843	40.11
812.022	29.87
812.201	-19.29
812.38	103.59
812.559	68.78
812.737	83.11
812.916	54.44
813.095	66.73
813.274	13.48
813.453	142.5
813.632	42.15
813.811	72.87
813.989	42.15
814.168	62.63
814.347	44.2
814.526	21.67
814.704	54.44
814.883	85.16
815.062	15.53
815.24	70.83
815.419	38.06
815.598	99.5
815.776	95.4
815.955	122.02
816.133	52.39
816.312	15.53
816.49	113.83
816.669	87.21
816.847	42.15
817.026	95.4
817.204	81.07
817.383	31.91
817.561	33.96
817.74	101.55
817.918	60.59
818.097	62.63
818.275	103.59
818.453	62.63
818.632	38.06
818.81	68.78
818.988	60.59
819.167	52.39
819.345	7.34
819.523	126.12
819.701	62.63
819.879	25.77
820.058	44.2
820.236	19.63
820.414	29.87
820.592	85.16
820.77	101.55
820.948	27.82
821.127	33.96
821.305	13.48
821.483	-13.14
821.661	-2.9
821.839	19.63
822.017	29.87
822.195	38.06
822.373	11.43
822.551	-19.29
822.729	76.97
822.907	72.87
823.085	68.78
823.262	-29.52
823.44	19.63
823.618	44.2
823.796	40.11
823.974	60.59
824.152	79.02
824.329	19.63
824.507	56.49
824.685	87.21
824.863	60.59
825.04	52.39
825.218	3.24
825.396	29.87
825.574	52.39
825.751	-17.24
825.929	27.82
826.107	-23.38
826.284	13.48
826.462	-9.05
826.639	29.87
826.817	-4.95
826.994	87.21
827.172	52.39
827.349	58.54
827.527	-2.9
827.704	126.12
827.882	7.34
828.059	9.39
828.237	-25.43
828.414	72.87
828.591	27.82
828.769	15.53
828.946	-13.14
829.124	60.59
829.301	52.39
829.478	64.68
829.655	11.43
829.833	23.72
830.01	-23.38
830.187	27.82
830.364	-13.14
830.542	79.02
830.719	21.67
830.896	23.72
831.073	-39.76
831.25	146.6
831.427	-17.24
831.604	52.39
831.782	68.78
831.959	36.01
832.136	-17.24
832.313	52.39
832.49	60.59
832.667	66.73
832.844	15.53
833.021	76.97
833.198	-7
833.374	-62.29
833.551	29.87
833.728	-4.95
833.905	66.73
834.082	-29.52
834.259	-0.85
834.436	113.83
834.612	13.48
834.789	56.49
834.966	29.87
835.143	-13.14
835.319	56.49
835.496	79.02
835.673	60.59
835.85	19.63
836.026	56.49
836.203	25.77
836.38	-70.48
836.556	11.43
836.733	27.82
836.909	58.54
837.086	11.43
837.262	60.59
837.439	85.16
837.616	15.53
837.792	40.11
837.968	23.72
838.145	72.87
838.321	27.82
838.498	109.74
838.674	-25.43
838.851	-2.9
839.027	60.59
839.203	-52.05
839.38	36.01
839.556	66.73
839.732	-37.72
839.909	19.63
840.085	9.39
840.261	11.43
840.437	21.67
840.614	9.39
840.79	21.67
840.966	-0.85
841.142	15.53
841.318	58.54
841.494	76.97
841.671	97.45
841.847	-29.52
842.023	79.02
842.199	25.77
842.375	5.29
842.551	-7
842.727	21.67
842.903	33.96
843.079	36.01
843.255	13.48
843.431	3.24
843.607	15.53
843.783	48.3
843.959	33.96
844.134	-15.19
844.31	27.82
844.486	9.39
844.662	52.39
844.838	-43.86
845.013	29.87
845.189	52.39
845.365	21.67
845.541	36.01
845.716	3.24
845.892	-47.96
846.068	-11.09
846.244	-54.1
846.419	23.72
846.595	-60.24
846.77	52.39
846.946	115.88
847.122	74.92
847.297	-25.43
847.473	79.02
847.648	-21.33
847.824	58.54
847.999	54.44
848.175	44.2
848.35	-21.33
848.526	38.06
848.701	54.44
848.876	3.24
849.052	21.67
849.227	-56.15
849.403	-9.05
849.578	46.25
849.753	-21.33
849.929	27.82
850.104	21.67
850.279	31.91
850.454	-13.14
850.63	-0.85
850.805	-80.72
850.98	-21.33
851.155	7.34
851.33	9.39
851.505	89.26
851.681	62.63
851.856	-35.67
852.031	-29.52
852.206	13.48
852.381	-4.95
852.556	5.29
852.731	-7
852.906	-13.14
853.081	5.29
853.256	36.01
853.431	-13.14
853.606	46.25
853.781	11.43
853.956	-37.72
854.131	3.24
854.305	36.01
854.48	-33.62
854.655	-4.95
854.83	-29.52
855.005	-0.85
855.18	-9.05
855.354	21.67
855.529	33.96
855.704	-0.85
855.879	40.11
856.053	-15.19
856.228	81.07
856.403	74.92
856.577	-2.9
856.752	-52.05
856.926	27.82
857.101	-43.86
857.276	5.29
857.45	-7
857.625	-13.14
857.799	-17.24
857.974	-23.38
858.148	68.78
858.323	-45.91
858.497	11.43
858.672	3.24
858.846	-17.24
859.02	21.67
859.195	-4.95
859.369	15.53
859.543	-43.86
859.718	44.2
859.892	-15.19
860.066	38.06
860.241	-23.38
860.415	3.24
860.589	-31.57
860.763	11.43
860.938	-35.67
861.112	58.54
861.286	-0.85
861.46	-54.1
861.634	21.67
861.808	40.11
861.982	-19.29
862.157	-2.9
862.331	11.43
862.505	-74.58
862.679	7.34
862.853	-33.62
863.027	38.06
863.201	13.48
863.375	-43.86
863.549	17.58
863.722	23.72
863.896	46.25
864.07	-39.76
864.244	-47.96
864.418	-60.24
864.592	-13.14
864.766	-11.09
864.939	40.11
865.113	-29.52
865.287	15.53
865.461	-17.24
865.634	21.67
865.808	-4.95
865.982	-11.09
866.156	19.63
866.329	-25.43
866.503	-25.43
866.676	3.24
866.85	25.77
867.024	27.82
867.197	31.91
867.371	-45.91
867.544	-21.33
867.718	-13.14
867.891	-4.95
868.065	-4.95
868.238	52.39
868.412	-23.38
868.585	-33.62
868.759	9.39
868.932	-4.95
869.105	-4.95
869.279	17.58
869.452	40.11
869.625	-29.52
869.799	31.91
869.972	31.91
870.145	19.63
870.319	-13.14
870.492	-9.05
870.665	36.01
870.838	27.82
871.011	-15.19
871.185	-45.91
871.358	-2.9
871.531	-21.33
871.704	-2.9
871.877	-68.44
872.05	-15.19
872.223	-17.24
872.396	-23.38
872.569	3.24
872.742	89.26
872.915	11.43
873.088	-54.1
873.261	3.24
873.434	27.82
873.607	50.35
873.78	-23.38
873.953	-4.95
874.126	7.34
874.299	40.11
874.471	-23.38
874.644	-66.39
874.817	-21.33
874.99	42.15
875.163	-9.05
875.335	15.53
875.508	-21.33
875.681	19.63
875.853	11.43
876.026	7.34
876.199	66.73
876.371	-35.67
876.544	124.07
876.717	-62.29
876.889	33.96
877.062	76.97
877.234	27.82
877.407	38.06
877.579	46.25
877.752	44.2
877.924	3.24
878.097	11.43
878.269	50.35
878.442	-58.2
878.614	-41.81
878.786	3.24
878.959	9.39
879.131	23.72
879.303	5.29
879.476	27.82
879.648	36.01
879.82	-41.81
879.993	-25.43
880.165	-0.85
880.337	-54.1
880.509	-2.9
880.681	23.72
880.854	3.24
881.026	7.34
881.198	23.72
881.37	7.34
881.542	64.68
881.714	-31.57
881.886	-72.53
882.058	9.39
882.23	-0.85
882.402	-15.19
882.574	-70.48
882.746	-39.76
882.918	-13.14
883.09	-86.87
883.262	3.24
883.434	31.91
883.606	-74.58
883.778	-76.63
883.95	-0.85
884.122	3.24
884.293	3.24
884.465	-0.85
884.637	29.87
884.809	-23.38
884.98	-33.62
885.152	-56.15
885.324	19.63
885.496	-27.48
885.667	19.63
885.839	-84.82
886.011	11.43
886.182	1.19
886.354	70.83
886.525	72.87
886.697	-17.24
886.869	29.87
887.04	46.25
887.212	11.43
887.383	21.67
887.555	19.63
887.726	15.53
887.897	-45.91
888.069	11.43
888.24	-29.52
888.412	5.29
888.583	29.87
888.754	-29.52
888.926	-58.2
889.097	23.72
889.268	-54.1
889.44	44.2
889.611	27.82
889.782	-17.24
889.953	-19.29
890.125	-45.91
890.296	9.39
890.467	15.53
890.638	-9.05
890.809	21.67
890.98	-19.29
891.151	25.77
891.323	-4.95
891.494	-0.85
891.665	-23.38
891.836	7.34
892.007	-0.85
892.178	-19.29
892.349	-11.09
892.52	5.29
892.691	-7
892.862	11.43
893.032	-15.19
893.203	15.53
893.374	5.29
893.545	19.63
893.716	-23.38
893.887	-21.33
894.057	-11.09
894.228	48.3
894.399	44.2
894.57	-11.09
894.74	-39.76
894.911	-21.33
895.082	-27.48
895.253	-41.81
895.423	27.82
895.594	27.82
895.764	11.43
895.935	-7
896.106	-7
896.276	11.43
896.447	-25.43
896.617	-25.43
896.788	-33.62
896.958	27.82
897.129	27.82
897.299	-27.48
897.47	21.67
897.64	56.49
897.81	7.34
897.981	-19.29
898.151	-45.91
898.322	-29.52
898.492	68.78
898.662	-4.95
898.832	52.39
899.003	3.24
899.173	-54.1
899.343	7.34
899.513	-45.91
