Data from USB4F104151__209__13-59-56-805.txt Node

Date: Thu Mar 13 13:59:56 EDT 2025
User: louis
Spectrometer: USB4F10415
Trigger mode: 4
Integration Time (sec): 1.000000E-2
Scans to average: 1
Electric dark correction enabled: true
Nonlinearity correction enabled: false
Boxcar width: 0
XAxis mode: Wavelengths
Number of Pixels in Spectrum: 3648
>>>>>Begin Spectral Data<<<<<
178.204	-10.07
178.424	-10.07
178.644	-10.07
178.864	32.94
179.084	-59.22
179.304	-36.69
179.524	-10.07
179.744	-79.7
179.964	45.23
180.184	20.65
180.404	20.65
180.624	47.27
180.844	-5.97
181.064	14.51
181.283	-61.27
181.503	37.03
181.723	8.36
181.943	18.6
182.163	12.46
182.383	45.23
182.602	24.75
182.822	18.6
183.042	108.71
183.262	32.94
183.482	47.27
183.701	8.36
183.921	32.94
184.141	-10.07
184.361	77.99
184.58	20.65
184.8	133.29
185.02	0.17
185.239	28.84
185.459	34.99
185.679	51.37
185.898	-10.07
186.118	6.31
186.338	32.94
186.557	110.76
186.777	20.65
186.997	16.55
187.216	34.99
187.436	86.19
187.655	20.65
187.875	84.14
188.095	12.46
188.314	71.85
188.534	100.52
188.753	-1.88
188.973	-8.02
189.192	32.94
189.412	-8.02
189.631	57.51
189.851	26.79
190.07	51.37
190.29	75.95
190.509	63.66
190.729	47.27
190.948	47.27
191.168	-16.21
191.387	16.55
191.607	92.33
191.826	37.03
192.045	-1.88
192.265	4.27
192.484	4.27
192.704	24.75
192.923	10.41
193.142	102.57
193.362	39.08
193.581	-5.97
193.8	57.51
194.02	88.23
194.239	22.7
194.458	30.89
194.678	4.27
194.897	88.23
195.116	47.27
195.335	63.66
195.555	28.84
195.774	6.31
195.993	41.13
196.212	47.27
196.432	67.75
196.651	125.1
196.87	34.99
197.089	129.19
197.308	22.7
197.528	127.14
197.747	-3.93
197.966	22.7
198.185	8.36
198.404	80.04
198.623	39.08
198.842	18.6
199.062	0.17
199.281	49.32
199.5	73.9
199.719	49.32
199.938	39.08
200.157	57.51
200.376	4.27
200.595	80.04
200.814	69.8
201.033	92.33
201.252	22.7
201.471	22.7
201.69	92.33
201.909	6.31
202.128	45.23
202.347	59.56
202.566	53.42
202.785	32.94
203.004	51.37
203.223	34.99
203.442	10.41
203.661	39.08
203.879	51.37
204.098	-32.6
204.317	18.6
204.536	75.95
204.755	43.18
204.974	-65.36
205.193	16.55
205.411	41.13
205.63	67.75
205.849	94.38
206.068	45.23
206.287	98.47
206.505	67.75
206.724	16.55
206.943	18.6
207.162	16.55
207.381	-18.26
207.599	32.94
207.818	16.55
208.037	53.42
208.255	61.61
208.474	24.75
208.693	12.46
208.911	47.27
209.13	0.17
209.349	63.66
209.567	49.32
209.786	53.42
210.005	71.85
210.223	16.55
210.442	59.56
210.661	16.55
210.879	8.36
211.098	71.85
211.316	77.99
211.535	12.46
211.753	28.84
211.972	43.18
212.191	45.23
212.409	61.61
212.628	67.75
212.846	-30.55
213.065	96.43
213.283	-14.17
213.502	26.79
213.72	55.47
213.938	6.31
214.157	0.17
214.375	49.32
214.594	110.76
214.812	67.75
215.031	61.61
215.249	34.99
215.467	-12.12
215.686	-10.07
215.904	49.32
216.122	26.79
216.341	77.99
216.559	69.8
216.778	82.09
216.996	28.84
217.214	2.22
217.432	43.18
217.651	24.75
217.869	47.27
218.087	75.95
218.306	92.33
218.524	82.09
218.742	82.09
218.96	98.47
219.179	55.47
219.397	39.08
219.615	94.38
219.833	61.61
220.051	16.55
220.27	32.94
220.488	100.52
220.706	-46.93
220.924	-22.36
221.142	65.71
221.36	37.03
221.578	73.9
221.796	-5.97
222.015	43.18
222.233	41.13
222.451	149.67
222.669	16.55
222.887	61.61
223.105	-12.12
223.323	88.23
223.541	-18.26
223.759	77.99
223.977	55.47
224.195	24.75
224.413	47.27
224.631	10.41
224.849	41.13
225.067	71.85
225.285	37.03
225.503	49.32
225.721	94.38
225.939	63.66
226.157	16.55
226.375	43.18
226.592	-10.07
226.81	43.18
227.028	43.18
227.246	41.13
227.464	34.99
227.682	10.41
227.9	77.99
228.117	26.79
228.335	2.22
228.553	30.89
228.771	-42.84
228.989	75.95
229.206	51.37
229.424	26.79
229.642	53.42
229.86	98.47
230.077	67.75
230.295	22.7
230.513	63.66
230.731	104.62
230.948	90.28
231.166	26.79
231.384	20.65
231.601	51.37
231.819	24.75
232.037	10.41
232.254	26.79
232.472	71.85
232.689	-59.22
232.907	59.56
233.125	82.09
233.342	63.66
233.56	73.9
233.777	24.75
233.995	69.8
234.213	14.51
234.43	6.31
234.648	34.99
234.865	-14.17
235.083	65.71
235.3	22.7
235.518	10.41
235.735	-1.88
235.953	59.56
236.17	41.13
236.388	34.99
236.605	34.99
236.822	57.51
237.04	45.23
237.257	-18.26
237.475	65.71
237.692	61.61
237.909	18.6
238.127	67.75
238.344	6.31
238.562	4.27
238.779	63.66
238.996	47.27
239.214	-16.21
239.431	71.85
239.648	18.6
239.865	2.22
240.083	39.08
240.3	61.61
240.517	-18.26
240.735	71.85
240.952	104.62
241.169	30.89
241.386	86.19
241.603	39.08
241.821	88.23
242.038	71.85
242.255	65.71
242.472	39.08
242.689	22.7
242.907	75.95
243.124	18.6
243.341	18.6
243.558	63.66
243.775	41.13
243.992	55.47
244.209	39.08
244.426	73.9
244.643	28.84
244.86	12.46
245.078	65.71
245.295	49.32
245.512	37.03
245.729	4.27
245.946	90.28
246.163	41.13
246.38	98.47
246.597	39.08
246.814	24.75
247.031	75.95
247.248	67.75
247.464	59.56
247.681	32.94
247.898	47.27
248.115	61.61
248.332	139.43
248.549	77.99
248.766	80.04
248.983	41.13
249.2	51.37
249.417	49.32
249.633	55.47
249.85	63.66
250.067	67.75
250.284	30.89
250.501	59.56
250.717	45.23
250.934	10.41
251.151	82.09
251.368	34.99
251.585	90.28
251.801	86.19
252.018	73.9
252.235	106.67
252.451	49.32
252.668	53.42
252.885	2.22
253.102	77.99
253.318	63.66
253.535	28.84
253.752	67.75
253.968	34.99
254.185	-34.64
254.401	63.66
254.618	84.14
254.835	-8.02
255.051	6.31
255.268	77.99
255.484	51.37
255.701	8.36
255.917	88.23
256.134	41.13
256.351	57.51
256.567	37.03
256.784	20.65
257	59.56
257.217	98.47
257.433	2.22
257.65	84.14
257.866	106.67
258.082	55.47
258.299	41.13
258.515	-18.26
258.732	80.04
258.948	106.67
259.165	-18.26
259.381	82.09
259.597	16.55
259.814	34.99
260.03	22.7
260.246	53.42
260.463	96.43
260.679	41.13
260.895	32.94
261.112	106.67
261.328	55.47
261.544	39.08
261.761	16.55
261.977	55.47
262.193	41.13
262.409	75.95
262.626	14.51
262.842	59.56
263.058	-3.93
263.274	51.37
263.49	14.51
263.707	71.85
263.923	14.51
264.139	61.61
264.355	80.04
264.571	63.66
264.787	63.66
265.004	39.08
265.22	49.32
265.436	49.32
265.652	-38.74
265.868	63.66
266.084	8.36
266.3	129.19
266.516	24.75
266.732	106.67
266.948	63.66
267.164	80.04
267.38	32.94
267.596	34.99
267.812	49.32
268.028	114.86
268.244	96.43
268.46	67.75
268.676	43.18
268.892	30.89
269.108	73.9
269.324	73.9
269.54	-42.84
269.756	43.18
269.972	26.79
270.188	30.89
270.403	41.13
270.619	67.75
270.835	22.7
271.051	57.51
271.267	28.84
271.483	86.19
271.698	12.46
271.914	112.81
272.13	41.13
272.346	59.56
272.562	69.8
272.777	16.55
272.993	53.42
273.209	73.9
273.425	22.7
273.64	51.37
273.856	123.05
274.072	69.8
274.287	37.03
274.503	73.9
274.719	39.08
274.934	84.14
275.15	10.41
275.366	14.51
275.581	49.32
275.797	-1.88
276.012	-8.02
276.228	82.09
276.444	-12.12
276.659	28.84
276.875	41.13
277.09	73.9
277.306	65.71
277.521	65.71
277.737	-16.21
277.952	82.09
278.168	121
278.383	86.19
278.599	129.19
278.814	57.51
279.03	39.08
279.245	110.76
279.461	51.37
279.676	90.28
279.892	14.51
280.107	47.27
280.322	55.47
280.538	80.04
280.753	37.03
280.969	121
281.184	80.04
281.399	65.71
281.615	59.56
281.83	49.32
282.045	2.22
282.26	22.7
282.476	94.38
282.691	6.31
282.906	22.7
283.122	73.9
283.337	61.61
283.552	96.43
283.767	24.75
283.983	67.75
284.198	6.31
284.413	88.23
284.628	77.99
284.843	2.22
285.058	0.17
285.274	-36.69
285.489	18.6
285.704	32.94
285.919	49.32
286.134	82.09
286.349	82.09
286.564	77.99
286.779	77.99
286.995	53.42
287.21	18.6
287.425	-1.88
287.64	-1.88
287.855	14.51
288.07	-22.36
288.285	47.27
288.5	59.56
288.715	18.6
288.93	73.9
289.145	145.58
289.36	114.86
289.575	73.9
289.79	6.31
290.004	73.9
290.219	49.32
290.434	77.99
290.649	-1.88
290.864	73.9
291.079	51.37
291.294	98.47
291.509	6.31
291.724	127.14
291.938	63.66
292.153	77.99
292.368	69.8
292.583	110.76
292.798	67.75
293.012	100.52
293.227	75.95
293.442	73.9
293.657	37.03
293.871	18.6
294.086	49.32
294.301	88.23
294.516	71.85
294.73	67.75
294.945	22.7
295.16	108.71
295.374	24.75
295.589	53.42
295.804	63.66
296.018	37.03
296.233	-30.55
296.447	88.23
296.662	80.04
296.877	80.04
297.091	18.6
297.306	8.36
297.52	41.13
297.735	90.28
297.949	34.99
298.164	92.33
298.378	12.46
298.593	65.71
298.807	14.51
299.022	18.6
299.236	30.89
299.451	8.36
299.665	57.51
299.88	98.47
300.094	106.67
300.309	110.76
300.523	55.47
300.737	59.56
300.952	84.14
301.166	55.47
301.381	57.51
301.595	26.79
301.809	-5.97
302.024	41.13
302.238	-51.03
302.452	49.32
302.667	47.27
302.881	57.51
303.095	77.99
303.309	73.9
303.524	-32.6
303.738	30.89
303.952	43.18
304.166	0.17
304.381	6.31
304.595	137.38
304.809	73.9
305.023	0.17
305.237	34.99
305.452	123.05
305.666	39.08
305.88	47.27
306.094	75.95
306.308	53.42
306.522	16.55
306.736	104.62
306.95	53.42
307.164	92.33
307.379	53.42
307.593	127.14
307.807	53.42
308.021	65.71
308.235	26.79
308.449	12.46
308.663	63.66
308.877	127.14
309.091	39.08
309.305	90.28
309.519	26.79
309.733	131.24
309.947	-26.45
310.161	45.23
310.374	59.56
310.588	98.47
310.802	30.89
311.016	53.42
311.23	110.76
311.444	80.04
311.658	118.95
311.872	63.66
312.085	37.03
312.299	61.61
312.513	82.09
312.727	82.09
312.941	129.19
313.154	65.71
313.368	55.47
313.582	82.09
313.796	-89.94
314.009	88.23
314.223	145.58
314.437	43.18
314.651	47.27
314.864	88.23
315.078	121
315.292	94.38
315.505	39.08
315.719	141.48
315.933	57.51
316.146	22.7
316.36	75.95
316.573	49.32
316.787	53.42
317.001	108.71
317.214	22.7
317.428	77.99
317.641	55.47
317.855	24.75
318.068	57.51
318.282	-5.97
318.495	10.41
318.709	16.55
318.922	12.46
319.136	106.67
319.349	82.09
319.563	28.84
319.776	96.43
319.99	65.71
320.203	84.14
320.417	92.33
320.63	43.18
320.843	63.66
321.057	106.67
321.27	47.27
321.483	51.37
321.697	32.94
321.91	139.43
322.124	80.04
322.337	104.62
322.55	8.36
322.763	30.89
322.977	10.41
323.19	84.14
323.403	73.9
323.617	39.08
323.83	57.51
324.043	55.47
324.256	86.19
324.469	45.23
324.683	71.85
324.896	30.89
325.109	59.56
325.322	55.47
325.535	100.52
325.748	26.79
325.962	104.62
326.175	118.95
326.388	84.14
326.601	53.42
326.814	71.85
327.027	26.79
327.24	65.71
327.453	63.66
327.666	75.95
327.879	108.71
328.092	43.18
328.305	28.84
328.518	0.17
328.731	2.22
328.944	14.51
329.157	137.38
329.37	53.42
329.583	145.58
329.796	82.09
330.009	65.71
330.222	26.79
330.435	80.04
330.648	67.75
330.861	63.66
331.073	88.23
331.286	139.43
331.499	104.62
331.712	63.66
331.925	14.51
332.138	14.51
332.35	26.79
332.563	77.99
332.776	104.62
332.989	108.71
333.202	-1.88
333.414	32.94
333.627	51.37
333.84	69.8
334.053	67.75
334.265	63.66
334.478	71.85
334.691	100.52
334.903	86.19
335.116	69.8
335.329	67.75
335.541	110.76
335.754	69.8
335.966	88.23
336.179	73.9
336.392	82.09
336.604	34.99
336.817	47.27
337.029	82.09
337.242	30.89
337.454	18.6
337.667	39.08
337.88	84.14
338.092	110.76
338.305	75.95
338.517	34.99
338.729	63.66
338.942	43.18
339.154	41.13
339.367	-8.02
339.579	26.79
339.792	10.41
340.004	121
340.217	71.85
340.429	63.66
340.641	34.99
340.854	82.09
341.066	-20.31
341.278	30.89
341.491	61.61
341.703	112.81
341.915	16.55
342.128	90.28
342.34	34.99
342.552	82.09
342.764	90.28
342.977	116.9
343.189	69.8
343.401	110.76
343.613	51.37
343.826	49.32
344.038	57.51
344.25	108.71
344.462	71.85
344.674	149.67
344.886	59.56
345.099	41.13
345.311	24.75
345.523	96.43
345.735	55.47
345.947	121
346.159	82.09
346.371	41.13
346.583	82.09
346.795	86.19
347.007	49.32
347.219	92.33
347.431	-26.45
347.643	149.67
347.855	14.51
348.067	96.43
348.279	49.32
348.491	88.23
348.703	26.79
348.915	75.95
349.127	80.04
349.339	102.57
349.551	20.65
349.763	106.67
349.975	110.76
350.187	55.47
350.399	116.9
350.61	45.23
350.822	69.8
351.034	92.33
351.246	26.79
351.458	108.71
351.669	61.61
351.881	43.18
352.093	106.67
352.305	41.13
352.517	65.71
352.728	82.09
352.94	41.13
353.152	84.14
353.363	57.51
353.575	59.56
353.787	143.53
353.999	82.09
354.21	96.43
354.422	71.85
354.633	28.84
354.845	135.34
355.057	96.43
355.268	65.71
355.48	57.51
355.692	80.04
355.903	86.19
356.115	133.29
356.326	28.84
356.538	71.85
356.749	71.85
356.961	77.99
357.172	65.71
357.384	88.23
357.595	159.91
357.807	102.57
358.018	106.67
358.23	125.1
358.441	47.27
358.653	61.61
358.864	88.23
359.075	77.99
359.287	67.75
359.498	106.67
359.709	100.52
359.921	43.18
360.132	104.62
360.344	82.09
360.555	22.7
360.766	77.99
360.977	53.42
361.189	71.85
361.4	141.48
361.611	77.99
361.823	116.9
362.034	28.84
362.245	86.19
362.456	57.51
362.667	43.18
362.879	88.23
363.09	57.51
363.301	121
363.512	96.43
363.723	55.47
363.935	30.89
364.146	71.85
364.357	77.99
364.568	57.51
364.779	63.66
364.99	75.95
365.201	43.18
365.412	63.66
365.623	90.28
365.834	88.23
366.045	49.32
366.256	121
366.467	100.52
366.678	75.95
366.889	39.08
367.1	88.23
367.311	55.47
367.522	-48.98
367.733	104.62
367.944	39.08
368.155	96.43
368.366	63.66
368.577	123.05
368.788	32.94
368.999	141.48
369.209	61.61
369.42	92.33
369.631	108.71
369.842	100.52
370.053	73.9
370.264	112.81
370.474	121
370.685	59.56
370.896	129.19
371.107	67.75
371.317	86.19
371.528	34.99
371.739	77.99
371.95	86.19
372.16	61.61
372.371	-32.6
372.582	63.66
372.792	12.46
373.003	116.9
373.214	110.76
373.424	96.43
373.635	116.9
373.846	57.51
374.056	22.7
374.267	57.51
374.477	47.27
374.688	145.58
374.898	30.89
375.109	63.66
375.319	161.96
375.53	98.47
375.74	102.57
375.951	71.85
376.161	32.94
376.372	96.43
376.582	-10.07
376.793	88.23
377.003	106.67
377.214	49.32
377.424	47.27
377.635	96.43
377.845	94.38
378.055	137.38
378.266	-26.45
378.476	39.08
378.686	57.51
378.897	88.23
379.107	127.14
379.317	133.29
379.528	63.66
379.738	43.18
379.948	8.36
380.158	69.8
380.369	53.42
380.579	123.05
380.789	102.57
380.999	164.01
381.21	14.51
381.42	63.66
381.63	63.66
381.84	100.52
382.05	53.42
382.261	73.9
382.471	114.86
382.681	55.47
382.891	123.05
383.101	100.52
383.311	94.38
383.521	63.66
383.731	59.56
383.941	41.13
384.151	155.82
384.361	18.6
384.571	102.57
384.781	80.04
384.991	96.43
385.201	63.66
385.411	94.38
385.621	229.54
385.831	108.71
386.041	164.01
386.251	155.82
386.461	55.47
386.671	133.29
386.881	147.62
387.091	47.27
387.301	100.52
387.511	123.05
387.72	112.81
387.93	102.57
388.14	49.32
388.35	49.32
388.56	108.71
388.769	110.76
388.979	100.52
389.189	53.42
389.399	149.67
389.609	102.57
389.818	96.43
390.028	47.27
390.238	125.1
390.447	131.24
390.657	73.9
390.867	59.56
391.076	88.23
391.286	106.67
391.496	131.24
391.705	104.62
391.915	137.38
392.125	176.3
392.334	69.8
392.544	108.71
392.753	110.76
392.963	69.8
393.172	88.23
393.382	157.86
393.591	108.71
393.801	55.47
394.01	110.76
394.22	153.77
394.429	182.44
394.639	82.09
394.848	133.29
395.058	112.81
395.267	82.09
395.477	94.38
395.686	149.67
395.895	202.92
396.105	172.2
396.314	80.04
396.524	164.01
396.733	157.86
396.942	123.05
397.152	127.14
397.361	123.05
397.57	118.95
397.78	188.58
397.989	176.3
398.198	145.58
398.407	139.43
398.617	174.25
398.826	153.77
399.035	53.42
399.244	133.29
399.453	221.35
399.663	200.87
399.872	207.02
400.081	123.05
400.29	106.67
400.499	82.09
400.708	137.38
400.917	217.26
401.127	198.82
401.336	180.39
401.545	250.02
401.754	129.19
401.963	237.74
402.172	159.91
402.381	153.77
402.59	172.2
402.799	227.5
403.008	141.48
403.217	225.45
403.426	225.45
403.635	153.77
403.844	147.62
404.053	161.96
404.262	196.78
404.471	207.02
404.68	219.3
404.888	235.69
405.097	166.06
405.306	219.3
405.515	213.16
405.724	260.26
405.933	221.35
406.142	217.26
406.35	202.92
406.559	272.55
406.768	229.54
406.977	327.85
407.185	270.5
407.394	278.69
407.603	219.3
407.812	286.89
408.02	241.83
408.229	270.5
408.438	278.69
408.646	383.14
408.855	368.81
409.064	340.13
409.272	379.04
409.481	333.99
409.69	301.22
409.898	422.05
410.107	372.9
410.315	415.91
410.524	446.63
410.733	467.11
410.941	391.33
411.15	395.43
411.358	434.34
411.567	512.16
411.775	520.35
411.984	489.64
412.192	534.69
412.401	522.4
412.609	561.31
412.818	575.65
413.026	647.33
413.234	673.95
413.443	614.56
413.651	671.9
413.86	678.05
414.068	710.82
414.276	764.06
414.485	753.82
414.693	848.03
414.901	954.52
415.11	870.56
415.318	899.23
415.526	987.29
415.734	1024.16
415.943	891.04
416.151	1079.45
416.359	1013.92
416.567	1171.61
416.776	1083.55
416.984	1224.86
417.192	1226.9
417.4	1214.62
417.608	1235.1
417.817	1357.97
418.025	1278.1
418.233	1437.84
418.441	1484.95
418.649	1499.28
418.857	1562.77
419.065	1636.5
419.273	1691.79
419.481	1704.08
419.689	1747.09
419.897	1829.01
420.105	1843.34
420.313	2011.28
420.521	2019.47
420.729	1951.88
420.937	2136.2
421.145	2203.79
421.353	2281.61
421.561	2363.53
421.769	2400.39
421.977	2603.14
422.185	2494.6
422.393	2728.07
422.601	2846.85
422.809	2889.85
423.017	2799.74
423.224	2992.25
423.432	2998.4
423.64	3111.04
423.848	3465.33
424.056	3217.53
424.263	3412.09
424.471	3604.6
424.679	3612.79
424.887	3799.15
425.094	3938.41
425.302	3983.47
425.51	3960.94
425.718	4360.3
425.925	4204.65
426.133	4397.16
426.341	4517.99
426.548	4888.67
426.756	4730.98
426.964	4784.23
427.171	5171.29
427.379	5470.3
427.586	5490.77
427.794	5572.69
428.001	5965.9
428.209	5881.94
428.417	5912.66
428.624	6514.76
428.832	6309.96
429.039	6428.74
429.247	6406.22
429.454	6940.74
429.662	7335.99
429.869	6924.35
430.076	7553.08
430.284	7327.8
430.491	7696.44
430.699	7804.98
430.906	8013.87
431.114	8140.85
431.321	8390.7
431.528	8581.16
431.736	9080.86
431.943	9328.67
432.15	9044
432.358	9234.46
432.565	9846.8
432.772	9887.76
432.979	10117.14
433.187	10625.03
433.394	10352.65
433.601	11063.3
433.808	11399.16
434.016	11126.78
434.223	11640.83
434.43	12251.12
434.637	12060.66
434.844	12951.53
435.052	12994.53
435.259	13031.4
435.466	13170.66
435.673	12898.28
435.88	13832.15
436.087	14395.34
436.294	14438.35
436.501	14381.01
436.708	14569.42
436.915	14856.14
437.122	15726.52
437.329	15341.5
437.537	16160.69
437.743	16598.96
437.95	16256.95
438.157	17059.75
438.364	17522.59
438.571	17541.02
438.778	17760.16
438.985	19595.14
439.192	18358.16
439.399	19314.56
439.606	18827.15
439.813	19773.31
440.02	20864.88
440.227	20545.39
440.433	20615.02
440.64	21305.19
440.847	20946.8
441.054	21538.66
441.261	22638.42
441.467	22407
441.674	23465.8
441.881	23832.38
442.088	23928.64
442.294	23641.92
442.501	24078.14
442.708	24653.62
442.914	25886.5
443.121	26840.85
443.328	26019.61
443.534	27825.92
443.741	26941.2
443.948	26539.8
444.154	28530.42
444.361	28532.47
444.568	28794.61
444.774	28645.11
444.981	28847.86
445.187	29841.12
445.394	30987.99
445.6	30928.59
445.807	33285.81
446.013	32075.46
446.22	32906.93
446.426	34039.46
446.633	34324.13
446.839	35296.91
447.046	33799.85
447.252	35794.57
447.459	35681.93
447.665	35927.69
447.871	36908.66
448.078	38692.44
448.284	37090.93
448.491	38086.25
448.697	39255.64
448.903	39972.42
449.11	40552
449.316	39726.67
449.522	40433.22
449.728	41373.24
449.935	41592.37
450.141	41547.31
450.347	42432.04
450.553	41203.25
450.76	41842.22
450.966	43165.21
451.172	42081.83
451.378	43666.96
451.584	42712.61
451.791	43730.45
451.997	43789.84
452.203	44230.15
452.409	44008.97
452.615	43982.35
452.821	42206.76
453.027	42014.25
453.233	44236.3
453.44	42440.23
453.646	42649.12
453.852	43052.57
454.058	43804.17
454.264	42298.92
454.47	43298.33
454.676	42485.28
454.882	43744.78
455.088	39816.78
455.294	40640.06
455.5	41217.59
455.705	41604.66
455.911	39743.05
456.117	39472.72
456.323	38688.35
456.529	36775.55
456.735	38170.21
456.941	37379.7
457.147	36693.63
457.352	35708.55
457.558	35253.9
457.764	35362.45
457.97	34451.1
458.176	33908.39
458.381	33980.07
458.587	32186.05
458.793	32143.04
458.999	30688.98
459.204	32673.46
459.41	31921.86
459.616	29859.56
459.821	29920.99
460.027	29617.89
460.233	29214.44
460.438	28063.49
460.644	28018.43
460.85	26638.1
461.055	26320.67
461.261	26306.33
461.466	24555.32
461.672	23664.45
461.878	25128.75
462.083	23508.8
462.289	23410.5
462.494	22871.89
462.7	22282.07
462.905	21389.16
463.111	22177.62
463.316	22220.63
463.522	21897.05
463.727	21968.73
463.932	21938.01
464.138	21651.3
464.343	21770.08
464.549	21284.71
464.754	21841.76
464.959	21434.21
465.165	21608.29
465.37	20707.18
465.575	20203.38
465.781	20629.36
465.986	20973.42
466.191	20133.75
466.397	19861.37
466.602	18952.07
466.807	19390.34
467.012	19689.34
467.218	19361.67
467.423	19105.67
467.628	19328.9
467.833	20010.87
468.038	19371.91
468.244	18927.5
468.449	19812.22
468.654	18851.72
468.859	18859.91
469.064	18708.37
469.269	17917.85
469.474	17842.07
469.679	18646.93
469.885	18007.96
470.09	18136.98
470.295	18128.79
470.5	17760.16
470.705	17600.41
470.91	17399.71
471.115	17094.57
471.32	17258.4
471.525	17323.94
471.73	16848.81
471.935	16768.94
472.139	16277.43
472.344	16467.89
472.549	16553.9
472.754	16168.88
472.959	15740.86
473.164	15292.35
473.369	15536.06
473.574	15955.9
473.778	15534.01
473.983	15642.56
474.188	15507.39
474.393	14811.08
474.598	14645.2
474.802	14651.34
475.007	14505.93
475.212	14397.39
475.417	14120.92
475.621	14196.69
475.826	14155.73
476.031	13801.43
476.235	13598.68
476.44	13905.88
476.645	13563.87
476.849	13580.25
477.054	13342.69
477.259	13019.11
477.463	13252.58
477.668	12859.37
477.872	12857.32
478.077	12769.26
478.282	12406.77
478.486	12232.69
478.691	12419.05
478.895	12275.7
479.1	12283.89
479.304	12070.9
479.509	11876.34
479.713	12107.76
479.918	11880.44
480.122	11606.01
480.326	11802.61
480.531	11712.5
480.735	11808.76
480.94	11386.88
481.144	11704.31
481.348	11479.04
481.553	11524.09
481.757	11218.94
481.961	11536.38
482.166	11548.67
482.37	11489.28
482.574	11204.61
482.778	11210.75
482.983	11452.41
483.187	11307.01
483.391	11442.17
483.595	11280.38
483.8	11122.69
484.004	11376.64
484.208	11460.6
484.412	11245.57
484.616	11296.77
484.821	11311.1
485.025	11034.63
485.229	11272.19
485.433	11204.61
485.637	11208.7
485.841	11233.28
486.045	11008
486.249	11388.92
486.453	11200.51
486.657	11083.78
486.861	11528.19
487.065	11059.2
487.269	11132.93
487.473	10965
487.677	11411.45
487.881	11288.57
488.085	11200.51
488.289	11268.09
488.493	11245.57
488.697	11327.49
488.901	11395.07
489.105	11403.26
489.309	11188.22
489.512	11546.62
489.716	11345.92
489.92	11417.6
490.124	11405.31
490.328	11548.67
490.531	11532.28
490.735	11595.77
490.939	11790.33
491.143	11388.92
491.346	11563
491.55	11763.7
491.754	11804.66
491.958	11773.94
492.161	11753.46
492.365	11591.67
492.569	11841.53
492.772	11778.04
492.976	12015.6
493.18	12158.96
493.383	12306.41
493.587	12359.66
493.79	12443.63
493.994	12306.41
494.197	12529.64
494.401	12853.22
494.605	12629.99
494.808	12885.99
495.012	12769.26
495.215	13150.18
495.419	12972
495.622	12842.98
495.825	13135.84
496.029	13201.38
496.232	13522.91
496.436	13475.81
496.639	13572.06
496.843	13770.71
497.046	14084.05
497.249	14039
497.453	14104.53
497.656	14546.89
497.859	14426.06
498.063	14639.05
498.266	15011.78
498.469	14712.78
498.673	15374.27
498.876	15448
499.079	15468.48
499.282	15417.28
499.485	15794.11
499.689	15759.29
499.892	16050.1
500.095	16478.13
500.298	16709.55
500.501	16584.62
500.705	17055.65
500.908	17340.32
501.111	17211.3
501.314	17526.69
501.517	17590.17
501.72	17848.22
501.923	17971.1
502.126	18059.16
502.329	18558.86
502.532	18505.62
502.735	19081.1
502.938	19330.95
503.141	19365.76
503.344	19836.8
503.547	19695.49
503.75	20019.07
503.953	20436.85
504.156	20469.62
504.359	20871.02
504.562	21213.03
504.765	21575.52
504.968	21428.07
505.17	21598.05
505.373	22222.68
505.576	22128.47
505.779	22693.71
505.982	22972.24
506.185	23052.11
506.387	23398.21
506.59	23672.64
506.793	24366.9
506.996	24002.36
507.198	24780.59
507.401	24751.92
507.604	25079.6
507.807	25687.84
508.009	25829.15
508.212	25919.26
508.415	26486.55
508.617	26808.08
508.82	26812.18
509.022	26928.91
509.225	27528.97
509.428	27993.86
509.63	28280.57
509.833	28268.28
510.035	28940.02
510.238	28882.67
510.44	29415.15
510.643	29753.06
510.845	30371.55
511.048	30068.45
511.25	30713.56
511.453	30844.63
511.655	31700.68
511.858	31899.33
512.06	31870.66
512.262	32667.32
512.465	32290.49
512.667	33326.77
512.87	33517.23
513.072	33488.56
513.274	34238.11
513.477	34895.51
513.679	34901.65
513.881	35327.63
514.084	35722.89
514.286	35835.53
514.488	35980.93
514.69	37297.78
514.893	36978.29
515.095	37213.81
515.297	38053.48
515.499	38026.85
515.701	38643.29
515.904	38991.45
516.106	39599.69
516.308	39679.57
516.51	40277.57
516.712	40308.29
516.914	40691.26
517.116	41307.7
517.318	41639.47
517.52	41920.04
517.722	42581.54
517.925	42794.53
518.127	42790.43
518.329	43736.59
518.531	43331.09
518.733	44531.2
518.935	44361.22
519.136	45331.96
519.338	45659.63
519.54	45811.18
519.742	46261.74
519.944	46392.81
520.146	47558.1
520.348	47531.48
520.55	47486.42
520.752	47924.69
520.954	49356.22
521.155	48557.51
521.357	48991.68
521.559	49434.04
521.761	50134.45
521.963	50150.83
522.164	50824.61
522.366	50732.45
522.568	51283.36
522.77	51379.61
522.971	52094.35
523.173	51977.62
523.375	52577.67
523.576	52655.5
523.778	52723.08
523.98	53878.13
524.181	53489.02
524.383	53962.1
524.584	54324.59
524.786	54420.84
524.988	54265.2
525.189	55379.29
525.391	55080.29
525.592	55666.01
525.794	56005.97
525.995	55524.7
526.197	55653.72
526.398	56202.58
526.6	56544.59
526.801	56266.06
527.003	57288
527.204	56843.59
527.406	57843
527.607	57509.18
527.808	58295.6
528.01	57118.02
528.211	57455.93
528.412	58099
528.614	58250.55
528.815	58584.36
529.016	59219.24
529.218	58496.3
529.419	58989.86
529.62	58801.45
529.822	59045.16
530.023	58891.56
530.224	59278.63
530.425	59061.54
530.626	58946.86
530.828	58557.74
531.029	59964.7
531.23	59376.93
531.431	59282.72
531.632	59542.81
531.833	59954.46
532.035	59704.6
532.236	59641.12
532.437	60298.51
532.638	59864.35
532.839	60265.75
533.04	60435.73
533.241	59778.33
533.442	60837.13
533.643	60228.88
533.844	60140.82
534.045	60232.98
534.246	59749.66
534.447	60941.58
534.648	60339.47
534.849	60607.76
535.05	60280.08
535.251	60478.74
535.451	60671.24
535.652	60253.46
535.853	60593.42
536.054	60566.8
536.255	60556.56
536.456	60130.58
536.657	61031.69
536.857	60343.57
537.058	60253.46
537.259	60839.18
537.46	60632.33
537.66	60359.95
537.861	60812.55
538.062	60499.22
538.263	60728.59
538.463	60548.37
538.664	60585.23
538.865	60972.3
539.065	61568.26
539.266	60241.17
539.466	61156.61
539.667	60331.28
539.868	60796.17
540.068	60585.23
540.269	60347.67
540.469	60816.65
540.67	60359.95
540.87	60556.56
541.071	60386.58
541.271	60439.82
541.472	60278.03
541.672	60161.3
541.873	60149.01
542.073	59682.08
542.274	60673.29
542.474	60386.58
542.675	60163.35
542.875	60542.22
543.075	60329.23
543.276	59837.72
543.476	60982.54
543.676	60089.62
543.877	60327.19
544.077	60347.67
544.277	60146.96
544.478	60081.43
544.678	60411.15
544.878	60198.16
545.078	60224.79
545.279	59870.49
545.479	60067.09
545.679	60298.51
545.879	60036.37
546.079	60177.68
546.28	59976.98
546.48	60077.33
546.68	60226.84
546.88	60312.85
547.08	60099.86
547.28	60206.36
547.48	60187.92
547.68	60054.81
547.88	59811.1
548.081	60542.22
548.281	60149.01
548.481	59372.83
548.681	60429.58
548.881	60255.51
549.081	60099.86
549.28	59694.36
549.48	60382.48
549.68	60136.73
549.88	60802.31
550.08	59731.23
550.28	60116.25
550.48	59798.81
550.68	59872.54
550.88	59897.11
551.08	59952.41
551.279	59993.37
551.479	59632.92
551.679	60243.22
551.879	59905.3
552.079	60364.05
552.278	59483.42
552.478	59469.09
552.678	59589.92
552.878	59663.64
553.077	59321.63
553.277	59342.11
553.477	60124.44
553.676	59348.26
553.876	59712.8
554.076	59551.01
554.275	59419.94
554.475	59063.59
554.674	59389.22
554.874	59321.63
555.074	59585.82
555.273	59258.15
555.473	59350.31
555.672	58883.37
555.872	58993.96
556.071	59372.83
556.271	59421.98
556.47	59354.4
556.67	58592.56
556.869	58672.43
557.068	59362.59
557.268	58393.9
557.467	58621.23
557.667	58735.91
557.866	58627.37
558.065	58400.05
558.265	58543.41
558.464	58330.42
558.663	58758.44
558.863	58203.44
559.062	58576.17
559.261	57673.02
559.461	58684.72
559.66	57857.34
559.859	58576.17
560.058	57910.58
560.258	57953.59
560.457	57783.61
560.656	58053.94
560.855	57804.09
561.054	57832.76
561.253	57140.55
561.453	57589.05
561.652	57478.46
561.851	57568.57
562.05	57427.26
562.249	57355.58
562.448	57529.66
562.647	57439.55
562.846	57101.64
563.045	57421.12
563.244	56757.58
563.443	57609.53
563.642	56472.91
563.841	56812.87
564.04	56786.25
564.239	57044.29
564.438	56630.6
564.637	56790.34
564.836	56757.58
565.035	56032.6
565.234	56194.39
565.432	56083.79
565.631	56337.74
565.83	56157.52
566.029	55946.58
566.228	55797.08
566.427	55917.91
566.625	55887.19
566.824	55598.43
567.023	55907.67
567.222	55057.76
567.42	55477.6
567.619	55645.53
567.818	55154.02
568.016	55512.41
568.215	55442.78
568.414	55016.8
568.612	55586.14
568.811	54945.12
569.01	54625.64
569.208	54465.9
569.407	54955.36
569.605	54242.67
569.804	54771.05
570.002	54066.55
570.201	54781.29
570.4	53923.19
570.598	54095.22
570.797	53802.36
570.995	54033.78
571.193	53685.62
571.392	54216.05
571.59	53171.58
571.789	53446.01
571.987	53290.37
572.186	53644.66
572.384	53218.69
572.582	52923.78
572.781	53304.7
572.979	52258.19
573.177	52776.33
573.376	52876.68
573.574	52202.89
573.772	52618.63
573.971	51946.9
574.169	52084.11
574.367	51635.61
574.565	51955.09
574.763	51551.64
574.962	51463.58
575.16	51215.77
575.358	51615.13
575.556	50982.3
575.754	51697.05
575.952	50804.13
576.151	51506.58
576.349	50660.77
576.547	50300.33
576.745	50546.09
576.943	50455.98
577.141	49737.14
577.339	50396.59
577.537	50195.88
577.735	50318.76
577.933	49212.86
578.131	49925.55
578.329	49149.37
578.527	49249.72
578.725	49262.01
578.923	49450.42
579.121	49147.32
579.319	48932.29
579.516	48729.54
579.714	48866.75
579.912	48278.99
580.11	48250.31
580.308	48469.45
580.506	48616.9
580.704	47998.41
580.901	48418.25
581.099	47769.04
581.297	47734.23
581.495	47607.25
581.692	47629.78
581.89	47226.33
582.088	47349.21
582.285	47758.8
582.483	47517.14
582.681	47085.02
582.878	46945.76
583.076	46661.09
583.274	47103.45
583.471	46390.76
583.669	46202.35
583.866	46265.83
584.064	46183.91
584.262	45622.77
584.459	46251.5
584.657	45891.05
584.854	45872.62
585.052	45188.6
585.249	45639.15
585.447	45225.46
585.644	45090.3
585.841	45446.65
586.039	45254.14
586.236	44584.45
586.434	44527.11
586.631	44684.8
586.828	44469.76
587.026	44676.61
587.223	44545.54
587.42	43882
587.618	44008.97
587.815	44002.83
588.012	43816.46
588.21	43755.02
588.407	43716.11
588.604	43341.33
588.801	42968.6
588.999	43226.65
589.196	43032.09
589.393	43232.79
589.59	42989.08
589.787	42815.01
589.984	42683.94
590.182	42153.51
590.379	42636.83
590.576	42114.6
590.773	42481.19
590.97	41907.76
591.167	42505.76
591.364	41479.73
591.561	41520.69
591.758	41248.31
591.955	41391.67
592.152	41575.98
592.349	41088.57
592.546	41373.24
592.743	41229.88
592.94	40685.12
593.137	40994.36
593.334	40775.23
593.531	39990.86
593.727	40386.11
593.924	40334.92
594.121	40312.39
594.318	40451.65
594.515	39704.14
594.712	40388.16
594.908	39654.99
595.105	39820.88
595.302	39599.69
595.499	39548.5
595.696	39384.66
595.892	39165.53
596.089	39556.69
596.286	39269.97
596.482	39364.18
596.679	39110.23
596.876	39102.04
597.072	38569.57
597.269	38741.6
597.466	38245.99
597.662	38149.73
597.859	38745.69
598.055	38418.02
598.252	38049.38
598.448	38180.45
598.645	37756.52
598.841	37406.32
599.038	37668.46
599.234	37658.22
599.431	37484.14
599.627	37117.56
599.824	37426.8
600.02	36875.9
600.217	37238.39
600.413	36873.85
600.609	36755.07
600.806	36529.79
601.002	36867.7
601.198	36398.72
601.395	36112
601.591	36288.13
601.787	36376.19
601.984	36144.77
602.18	36320.9
602.376	35651.21
602.572	35610.25
602.769	35782.28
602.965	35282.58
603.161	34999.96
603.357	34662.04
603.553	35102.36
603.75	35137.17
603.946	34436.77
604.142	35002
604.338	34258.59
604.534	34778.78
604.73	34389.66
604.926	34453.15
605.122	34252.45
605.318	33865.38
605.514	33834.66
605.71	33625.77
605.906	33730.22
606.102	33861.29
606.298	33713.83
606.494	33492.65
606.69	33384.11
606.886	33310.38
607.082	33160.88
607.278	33068.72
607.474	32689.85
607.67	33029.81
607.866	32360.12
608.062	32935.6
608.257	32634.55
608.453	32296.64
608.649	32917.17
608.845	32384.7
609.041	32390.84
609.236	32423.61
609.432	32276.16
609.628	31915.72
609.824	31502.03
610.019	31600.33
610.215	31573.7
610.411	31651.53
610.606	31426.25
610.802	31606.47
610.998	31168.21
611.193	31438.54
611.389	30912.21
611.584	31295.18
611.78	31112.91
611.976	30998.23
612.171	30953.17
612.367	30772.95
612.562	30490.33
612.758	30381.79
612.953	30160.61
613.149	30791.38
613.344	29873.89
613.539	30758.61
613.735	30052.06
613.93	30619.35
614.126	30201.57
614.321	30351.07
614.517	29951.71
614.712	29910.75
614.907	29570.79
615.103	29894.37
615.298	29603.56
615.493	29918.95
615.688	29349.61
615.884	30162.65
616.079	29144.81
616.274	29501.16
616.47	29363.95
616.665	29007.6
616.86	28704.5
617.055	28931.83
617.25	29013.74
617.445	29089.52
617.641	28425.98
617.836	28561.14
618.031	28337.91
618.226	28509.94
618.421	28356.35
618.616	28614.39
618.811	27838.21
619.006	28311.29
619.201	27533.06
619.396	27801.35
619.591	27315.98
619.786	28088.06
619.981	26992.4
620.176	27436.81
620.371	27068.17
620.566	27303.69
620.761	27172.62
620.956	27031.31
621.151	26621.72
621.346	26818.32
621.541	26345.24
621.735	26513.17
621.93	26040.09
622.125	26461.97
622.32	25921.31
622.515	26130.2
622.709	25923.36
622.904	25538.34
623.099	25550.63
623.294	25657.12
623.488	25128.75
623.683	25122.6
623.878	24620.85
624.072	24860.46
624.267	25059.12
624.462	24672.05
624.656	24241.98
624.851	24414.01
625.046	24110.91
625.24	24065.85
625.435	23936.83
625.629	23963.45
625.824	23467.84
626.018	23750.46
626.213	23043.92
626.407	23201.61
626.602	22857.55
626.796	23086.92
626.991	22908.75
627.185	22906.7
627.38	22320.98
627.574	22314.84
627.768	22654.8
627.963	22099.8
628.157	21933.92
628.352	22183.77
628.546	21981.02
628.74	21827.42
628.935	21598.05
629.129	21552.99
629.323	21487.46
629.517	21731.17
629.712	21423.97
629.906	21122.92
630.1	20780.91
630.294	21057.39
630.489	20879.21
630.683	20842.35
630.877	20696.94
631.071	20576.11
631.265	20817.77
631.459	20397.94
631.653	20131.7
631.848	20168.57
632.042	20014.97
632.236	20129.66
632.43	19625.86
632.624	19699.58
632.818	19611.52
633.012	19261.32
633.206	19371.91
633.4	19679.1
633.594	19019.66
633.788	19195.78
633.982	18923.4
634.176	19146.63
634.369	18868.11
634.563	18978.7
634.757	18724.75
634.951	18636.69
635.145	18585.49
635.339	18446.23
635.533	18245.52
635.726	18247.57
635.92	17942.42
636.114	18157.46
636.308	18079.64
636.501	17960.86
636.695	17981.34
636.889	17733.53
637.083	17481.63
637.276	17575.84
637.47	17250.21
637.664	17373.09
637.857	17409.95
638.051	17442.72
638.244	17170.34
638.438	16936.87
638.632	17061.8
638.825	16957.35
639.019	16531.37
639.212	16367.54
639.406	16613.29
639.599	16566.19
639.793	16525.23
639.986	16097.21
640.18	16220.08
640.373	16199.6
640.567	15839.16
640.76	16177.08
640.954	15998.9
641.147	15673.28
641.34	15712.19
641.534	15488.96
641.727	15519.68
641.92	15245.25
642.114	15450.05
642.307	15415.23
642.5	15081.41
642.694	15097.8
642.887	14954.44
643.08	14958.53
643.273	14696.39
643.467	14827.46
643.66	14702.54
643.853	14542.8
644.046	14413.77
644.239	14507.98
644.432	14307.28
644.626	14479.31
644.819	14063.57
645.012	14139.35
645.205	14141.39
645.398	13989.85
645.591	13838.3
645.784	13928.41
645.977	13705.18
646.17	13547.48
646.363	13342.69
646.556	13502.43
646.749	13230.05
646.942	13385.69
647.135	13244.38
647.328	13105.12
647.521	13275.1
647.714	12933.09
647.907	12767.21
648.099	12812.26
648.292	12779.5
648.485	12730.34
648.678	12464.11
648.871	12400.62
649.064	12359.66
649.256	12468.2
649.449	12376.05
649.642	12218.35
649.835	12144.63
650.027	12122.1
650.22	12138.48
650.413	12023.8
650.605	11862.01
650.798	11907.06
650.991	11741.18
651.183	11708.41
651.376	11438.08
651.568	11456.51
651.761	11614.2
651.954	11571.19
652.146	11411.45
652.339	11538.43
652.531	11141.12
652.724	11147.26
652.916	10971.14
653.109	10940.42
653.301	10766.34
653.494	10999.81
653.686	10684.42
653.879	10657.8
654.071	10684.42
654.263	10428.43
654.456	10627.08
654.648	10455.05
654.84	10274.83
655.033	10262.54
655.225	10395.66
655.417	10164.24
655.61	10004.5
655.802	10100.75
655.994	10057.75
656.186	10035.22
656.379	9639.96
656.571	9930.77
656.763	9631.77
656.955	9848.85
657.148	9666.58
657.34	9555.99
657.532	9369.63
657.724	9254.94
657.916	9297.95
658.108	9308.19
658.3	9218.08
658.492	9109.54
658.684	8978.47
658.876	9103.39
659.068	8951.84
659.26	8937.51
659.452	8828.96
659.644	8839.2
659.836	8511.53
660.028	8534.06
660.22	8405.03
660.412	8597.54
660.604	8351.79
660.796	8429.61
660.988	8325.16
661.18	8048.69
661.372	8077.36
661.563	8267.82
661.755	8140.85
661.947	8169.52
662.139	8151.09
662.331	8011.82
662.522	7745.59
662.714	7970.87
662.906	7739.44
663.097	7659.57
663.289	7620.66
663.481	7575.61
663.673	7596.09
663.864	7495.74
664.056	7266.36
664.247	7419.96
664.439	6971.46
664.631	7350.33
664.822	7153.73
665.014	7206.97
665.205	7034.94
665.397	7200.83
665.588	7256.12
665.78	7039.04
665.971	6801.47
666.163	6981.7
666.354	6809.67
666.546	6891.59
666.737	6850.63
666.929	6682.69
667.12	6785.09
667.311	6744.13
667.503	6502.47
667.694	6510.66
667.885	6430.79
668.077	6494.28
668.268	6518.86
668.459	6504.52
668.651	6438.98
668.842	6377.55
669.033	6297.67
669.224	6166.6
669.416	6211.66
669.607	6469.7
669.798	6256.72
669.989	6006.86
670.18	6105.17
670.371	6094.93
670.563	6205.52
670.754	6019.15
670.945	5963.86
671.136	5902.42
671.327	5834.83
671.518	5902.42
671.709	6062.16
671.9	5879.89
672.091	5759.06
672.282	5865.55
672.473	5761.11
672.664	5666.9
672.855	5689.43
673.046	5679.19
673.237	5560.41
673.428	5673.04
673.619	5705.81
673.809	5644.37
674	5515.35
674.191	5398.62
674.382	5476.44
674.573	5650.52
674.764	5345.37
674.954	5380.18
675.145	5371.99
675.336	5285.98
675.527	5333.08
675.717	5347.42
675.908	5341.27
676.099	5230.68
676.289	5161.05
676.48	5253.21
676.671	5265.5
676.861	5349.47
677.052	5173.34
677.243	5034.08
677.433	5005.41
677.624	5126.24
677.814	5040.22
678.005	5081.18
678.195	4864.1
678.386	5038.17
678.576	4954.21
678.767	4907.1
678.957	5023.84
679.148	4929.63
679.338	5048.41
679.529	4946.02
679.719	4819.04
679.909	4810.85
680.1	4724.83
680.29	4853.86
680.481	4765.79
680.671	4773.99
680.861	4714.59
681.052	4698.21
681.242	4735.07
681.432	4896.86
681.622	4647.01
681.813	4778.08
682.003	4761.7
682.193	4745.31
682.383	4671.59
682.573	4649.06
682.764	4712.55
682.954	4632.68
683.144	4620.39
683.334	4589.67
683.524	4581.48
683.714	4511.85
683.904	4446.31
684.094	4573.28
684.284	4522.09
684.474	4565.09
684.664	4501.61
684.854	4438.12
685.044	4517.99
685.234	4378.73
685.424	4391.02
685.614	4448.36
685.804	4401.26
685.994	4513.89
686.184	4350.06
686.374	4507.75
686.564	4386.92
686.753	4403.3
686.943	4350.06
687.133	4276.33
687.323	4407.4
687.513	4483.17
687.702	4364.39
687.892	4323.43
688.082	4479.08
688.272	4292.71
688.461	4251.75
688.651	4229.23
688.841	4423.78
689.03	4327.53
689.22	4341.86
689.41	4266.09
689.599	4184.17
689.789	4216.94
689.979	4231.27
690.168	4147.31
690.358	4235.37
690.547	4270.19
690.737	4130.92
690.926	4192.36
691.116	4092.01
691.305	4155.5
691.495	4132.97
691.684	4204.65
691.874	4128.88
692.063	4130.92
692.252	4235.37
692.442	4192.36
692.631	4135.02
692.82	4122.73
693.01	4261.99
693.199	4104.3
693.388	4024.43
693.578	4182.12
693.767	4087.92
693.956	4018.29
694.146	4116.59
694.335	4110.44
694.524	4057.2
694.713	4053.1
694.902	4092.01
695.092	4161.64
695.281	4075.63
695.47	4137.07
695.659	4098.16
695.848	4161.64
696.037	4087.92
696.226	3979.37
696.415	3885.17
696.604	4094.06
696.793	4059.24
696.982	3936.37
697.171	3840.11
697.36	3973.23
697.549	3934.32
697.738	3987.57
697.927	3987.57
698.116	3954.8
698.305	3977.33
698.494	3915.89
698.683	3874.93
698.872	3784.82
699.061	3813.49
699.25	3905.65
699.438	3907.7
699.627	3823.73
699.816	3979.37
700.005	3842.16
700.193	3907.7
700.382	3883.12
700.571	3706.99
700.76	3790.96
700.948	3813.49
701.137	3854.45
701.326	3954.8
701.514	3653.75
701.703	3844.21
701.892	3760.24
702.08	3752.05
702.269	3684.47
702.457	3704.95
702.646	3577.97
702.834	3661.94
703.023	3584.12
703.212	3721.33
703.4	3528.82
703.589	3588.21
703.777	3680.37
703.965	3598.45
704.154	3543.16
704.342	3496.05
704.531	3453.05
704.719	3434.61
704.907	3479.67
705.096	3483.77
705.284	3385.46
705.472	3526.77
705.661	3526.77
705.849	3498.1
706.037	3397.75
706.226	3414.13
706.414	3448.95
706.602	3401.85
706.79	3367.03
706.979	3334.26
707.167	3233.91
707.355	3332.22
707.543	3289.21
707.731	3340.41
707.919	3203.19
708.107	3190.91
708.296	3125.37
708.484	3209.34
708.672	3264.63
708.86	3258.49
709.048	3156.09
709.236	3074.17
709.424	3139.71
709.612	3098.75
709.8	3076.22
709.988	3092.6
710.176	3037.31
710.364	3225.72
710.551	3131.51
710.739	3047.55
710.927	2979.97
711.115	2998.4
711.303	3070.08
711.491	2971.77
711.679	2967.68
711.866	2867.33
712.054	3039.36
712.242	2973.82
712.43	2896
712.617	2836.61
712.805	2881.66
712.993	2914.43
713.181	2826.37
713.368	2908.29
713.556	2846.85
713.744	2830.46
713.931	2709.63
714.119	2795.65
714.306	2707.59
714.494	2762.88
714.682	2693.25
714.869	2580.61
715.057	2683.01
715.244	2597
715.432	2783.36
715.619	2713.73
715.807	2719.87
715.994	2689.15
716.182	2744.45
716.369	2660.48
716.556	2668.67
716.744	2621.57
716.931	2580.61
717.119	2668.67
717.306	2650.24
717.493	2574.47
717.681	2480.26
717.868	2529.41
718.055	2531.46
718.242	2521.22
718.43	2506.88
718.617	2412.68
718.804	2472.07
718.991	2513.03
719.179	2427.01
719.366	2353.29
719.553	2480.26
719.74	2463.88
719.927	2394.25
720.114	2306.18
720.301	2336.9
720.488	2418.82
720.676	2162.83
720.863	2320.52
721.05	2232.46
721.237	2283.66
721.424	2246.79
721.611	2177.16
721.798	2238.6
721.985	2240.65
722.172	2195.59
722.358	2275.46
722.545	2166.92
722.732	2228.36
722.919	2187.4
723.106	2197.64
723.293	2121.87
723.48	2136.2
723.667	2089.1
723.853	2070.67
724.04	2095.24
724.227	2164.87
724.414	2095.24
724.6	2064.52
724.787	2074.76
724.974	2003.08
725.161	1986.7
725.347	2015.37
725.534	2066.57
725.72	2048.14
725.907	2087.05
726.094	2001.04
726.28	1943.69
726.467	2007.18
726.653	2117.77
726.84	2019.47
727.027	2025.61
727.213	2007.18
727.4	1953.93
727.586	1953.93
727.773	1880.21
727.959	1976.46
728.145	1931.41
728.332	1808.53
728.518	1886.35
728.705	1804.43
728.891	1925.26
729.077	1759.38
729.264	1908.88
729.45	1869.97
729.636	1915.02
729.823	1747.09
730.009	1763.47
730.195	1761.42
730.382	1767.57
730.568	1816.72
730.754	1736.85
730.94	1747.09
731.126	1663.12
731.313	1792.14
731.499	1759.38
731.685	1726.61
731.871	1781.9
732.057	1640.59
732.243	1679.51
732.429	1624.21
732.615	1765.52
732.801	1644.69
732.987	1757.33
733.173	1656.98
733.359	1650.83
733.545	1581.2
733.731	1638.55
733.917	1630.35
734.103	1589.39
734.289	1689.74
734.475	1622.16
734.661	1667.22
734.847	1607.83
735.033	1613.97
735.219	1611.92
735.404	1611.92
735.59	1581.2
735.776	1560.72
735.962	1511.57
736.148	1603.73
736.333	1607.83
736.519	1480.85
736.705	1419.41
736.89	1491.09
737.076	1495.19
737.262	1548.44
737.447	1476.76
737.633	1530
737.819	1505.43
738.004	1372.31
738.19	1544.34
738.375	1441.94
738.561	1491.09
738.747	1446.04
738.932	1341.59
739.118	1550.48
739.303	1429.65
739.489	1493.14
739.674	1349.78
739.859	1366.17
740.045	1290.39
740.23	1304.73
740.416	1398.93
740.601	1374.36
740.786	1343.64
740.972	1349.78
741.157	1341.59
741.342	1462.42
741.528	1321.11
741.713	1292.44
741.898	1366.17
742.084	1327.25
742.269	1269.91
742.454	1206.42
742.639	1224.86
742.824	1341.59
743.01	1325.21
743.195	1280.15
743.38	1292.44
743.565	1335.45
743.75	1261.72
743.935	1251.48
744.12	1235.1
744.305	1122.46
744.49	1231
744.675	1177.75
744.86	1224.86
745.045	1249.43
745.23	1200.28
745.415	1167.51
745.6	1104.03
745.785	1149.08
745.97	1210.52
746.155	1177.75
746.34	1101.98
746.525	1099.93
746.71	1263.77
746.895	1075.35
747.079	1071.26
747.264	1050.78
747.449	1106.07
747.634	1147.03
747.819	1061.02
748.003	999.58
748.188	1091.74
748.373	968.86
748.557	1075.35
748.742	1099.93
748.927	1011.87
749.111	1120.41
749.296	1018.01
749.481	1099.93
749.665	1022.11
749.85	1048.73
750.034	1005.72
750.219	1011.87
750.404	964.76
750.588	1030.3
750.773	913.56
750.957	948.38
751.141	934.04
751.326	960.67
751.51	927.9
751.695	880.8
751.879	927.9
752.064	946.33
752.248	983.2
752.432	972.96
752.617	991.39
752.801	1020.06
752.985	958.62
753.17	962.72
753.354	913.56
753.538	956.57
753.722	897.18
753.907	802.97
754.091	852.13
754.275	876.7
754.459	852.13
754.643	862.37
754.828	807.07
755.012	843.93
755.196	919.71
755.38	800.93
755.564	755.87
755.748	747.68
755.932	811.17
756.116	792.73
756.3	872.61
756.484	817.31
756.668	817.31
756.852	778.4
757.036	796.83
757.22	743.58
757.404	794.78
757.588	743.58
757.772	721.06
757.956	665.76
758.14	774.3
758.323	788.64
758.507	782.49
758.691	719.01
758.875	731.3
759.059	727.2
759.242	647.33
759.426	708.77
759.61	735.39
759.794	678.05
759.977	698.53
760.161	831.65
760.345	770.21
760.528	719.01
760.712	708.77
760.895	759.97
761.079	694.43
761.263	635.04
761.446	671.9
761.63	727.2
761.813	698.53
761.997	643.23
762.18	620.71
762.364	665.76
762.547	643.23
762.731	678.05
762.914	678.05
763.098	706.72
763.281	600.23
763.464	721.06
763.648	598.18
763.831	682.14
764.015	579.75
764.198	637.09
764.381	587.94
764.564	612.51
764.748	669.86
764.931	692.38
765.114	651.42
765.297	676
765.481	708.77
765.664	647.33
765.847	637.09
766.03	561.31
766.213	542.88
766.397	608.42
766.58	526.5
766.763	641.18
766.946	589.99
767.129	612.51
767.312	592.03
767.495	600.23
767.678	649.38
767.861	608.42
768.044	616.61
768.227	657.57
768.41	663.71
768.593	594.08
768.776	565.41
768.959	663.71
769.142	622.75
769.324	645.28
769.507	606.37
769.69	612.51
769.873	530.59
770.056	530.59
770.239	602.27
770.421	546.98
770.604	493.73
770.787	565.41
770.97	577.7
771.152	563.36
771.335	592.03
771.518	508.07
771.7	528.55
771.883	526.5
772.066	534.69
772.248	532.64
772.431	551.07
772.613	448.68
772.796	620.71
772.978	524.45
773.161	538.79
773.343	616.61
773.526	540.83
773.708	508.07
773.891	489.64
774.073	512.16
774.256	534.69
774.438	589.99
774.621	444.58
774.803	526.5
774.985	440.48
775.168	542.88
775.35	528.55
775.532	487.59
775.715	467.11
775.897	493.73
776.079	460.96
776.261	534.69
776.444	497.83
776.626	508.07
776.808	516.26
776.99	471.2
777.173	567.46
777.355	458.92
777.537	460.96
777.719	538.79
777.901	475.3
778.083	444.58
778.265	534.69
778.447	544.93
778.629	450.72
778.811	436.39
778.993	399.52
779.175	530.59
779.357	393.38
779.539	428.2
779.721	436.39
779.903	422.05
780.085	401.57
780.267	383.14
780.449	465.06
780.631	428.2
780.812	399.52
780.994	458.92
781.176	446.63
781.358	440.48
781.54	387.24
781.721	428.2
781.903	383.14
782.085	385.19
782.267	426.15
782.448	379.04
782.63	385.19
782.812	354.47
782.993	342.18
783.175	377
783.357	377
783.538	372.9
783.72	329.89
783.901	348.33
784.083	338.09
784.264	385.19
784.446	434.34
784.627	317.61
784.809	333.99
784.99	377
785.172	362.66
785.353	286.89
785.535	270.5
785.716	399.52
785.897	358.57
786.079	268.45
786.26	362.66
786.441	389.28
786.623	344.23
786.804	344.23
786.985	286.89
787.167	366.76
787.348	252.07
787.529	293.03
787.71	284.84
787.891	276.65
788.073	276.65
788.254	284.84
788.435	264.36
788.616	303.27
788.797	336.04
788.978	329.89
789.159	252.07
789.34	256.17
789.522	288.93
789.703	278.69
789.884	309.41
790.065	311.46
790.246	321.7
790.427	293.03
790.607	272.55
790.788	252.07
790.969	278.69
791.15	293.03
791.331	223.4
791.512	295.08
791.693	233.64
791.874	190.63
792.054	280.74
792.235	309.41
792.416	333.99
792.597	272.55
792.778	192.68
792.958	280.74
793.139	360.61
793.32	272.55
793.5	170.15
793.681	237.74
793.862	262.31
794.042	284.84
794.223	262.31
794.404	219.3
794.584	243.88
794.765	231.59
794.945	174.25
795.126	297.13
795.306	243.88
795.487	186.54
795.667	250.02
795.848	237.74
796.028	204.97
796.209	229.54
796.389	293.03
796.57	270.5
796.75	227.5
796.93	200.87
797.111	178.34
797.291	278.69
797.471	215.21
797.652	131.24
797.832	149.67
798.012	145.58
798.192	157.86
798.373	256.17
798.553	182.44
798.733	204.97
798.913	139.43
799.093	202.92
799.274	225.45
799.454	112.81
799.634	215.21
799.814	202.92
799.994	194.73
800.174	221.35
800.354	207.02
800.534	260.26
800.714	188.58
800.894	204.97
801.074	164.01
801.254	196.78
801.434	211.11
801.614	215.21
801.794	100.52
801.974	446.63
802.154	227.5
802.334	145.58
802.514	241.83
802.693	151.72
802.873	247.97
803.053	164.01
803.233	200.87
803.413	133.29
803.592	178.34
803.772	155.82
803.952	151.72
804.131	245.93
804.311	211.11
804.491	147.62
804.67	151.72
804.85	164.01
805.03	147.62
805.209	137.38
805.389	121
805.568	188.58
805.748	86.19
805.928	153.77
806.107	149.67
806.287	194.73
806.466	168.1
806.646	198.82
806.825	166.06
807.004	170.15
807.184	217.26
807.363	153.77
807.543	147.62
807.722	80.04
807.901	213.16
808.081	211.11
808.26	133.29
808.439	174.25
808.619	104.62
808.798	141.48
808.977	80.04
809.156	141.48
809.336	164.01
809.515	194.73
809.694	104.62
809.873	121
810.052	166.06
810.231	182.44
810.411	96.43
810.59	178.34
810.769	153.77
810.948	147.62
811.127	116.9
811.306	118.95
811.485	131.24
811.664	186.54
811.843	73.9
812.022	116.9
812.201	143.53
812.38	170.15
812.559	100.52
812.737	71.85
812.916	82.09
813.095	194.73
813.274	143.53
813.453	149.67
813.632	125.1
813.811	82.09
813.989	159.91
814.168	88.23
814.347	143.53
814.526	125.1
814.704	94.38
814.883	123.05
815.062	65.71
815.24	90.28
815.419	75.95
815.598	127.14
815.776	96.43
815.955	96.43
816.133	174.25
816.312	133.29
816.49	96.43
816.669	143.53
816.847	129.19
817.026	100.52
817.204	131.24
817.383	98.47
817.561	30.89
817.74	153.77
817.918	94.38
818.097	98.47
818.275	108.71
818.453	45.23
818.632	104.62
818.81	112.81
818.988	73.9
819.167	51.37
819.345	131.24
819.523	82.09
819.701	176.3
819.879	139.43
820.058	110.76
820.236	149.67
820.414	118.95
820.592	45.23
820.77	71.85
820.948	10.41
821.127	96.43
821.305	131.24
821.483	139.43
821.661	129.19
821.839	145.58
822.017	26.79
822.195	172.2
822.373	116.9
822.551	57.51
822.729	98.47
822.907	125.1
823.085	139.43
823.262	16.55
823.44	98.47
823.618	20.65
823.796	147.62
823.974	80.04
824.152	112.81
824.329	49.32
824.507	108.71
824.685	129.19
824.863	96.43
825.04	80.04
825.218	145.58
825.396	75.95
825.574	88.23
825.751	73.9
825.929	127.14
826.107	88.23
826.284	98.47
826.462	123.05
826.639	69.8
826.817	51.37
826.994	127.14
827.172	51.37
827.349	127.14
827.527	118.95
827.704	123.05
827.882	96.43
828.059	34.99
828.237	16.55
828.414	0.17
828.591	39.08
828.769	96.43
828.946	82.09
829.124	77.99
829.301	100.52
829.478	90.28
829.655	82.09
829.833	129.19
830.01	84.14
830.187	100.52
830.364	30.89
830.542	86.19
830.719	90.28
830.896	104.62
831.073	41.13
831.25	59.56
831.427	131.24
831.604	45.23
831.782	104.62
831.959	57.51
832.136	47.27
832.313	98.47
832.49	90.28
832.667	108.71
832.844	49.32
833.021	57.51
833.198	51.37
833.374	112.81
833.551	24.75
833.728	51.37
833.905	145.58
834.082	80.04
834.259	59.56
834.436	145.58
834.612	84.14
834.789	166.06
834.966	37.03
835.143	45.23
835.319	88.23
835.496	98.47
835.673	151.72
835.85	98.47
836.026	106.67
836.203	16.55
836.38	53.42
836.556	84.14
836.733	34.99
836.909	65.71
837.086	43.18
837.262	90.28
837.439	47.27
837.616	18.6
837.792	61.61
837.968	100.52
838.145	133.29
838.321	32.94
838.498	63.66
838.674	110.76
838.851	84.14
839.027	112.81
839.203	20.65
839.38	137.38
839.556	22.7
839.732	-12.12
839.909	77.99
840.085	104.62
840.261	88.23
840.437	28.84
840.614	-24.4
840.79	39.08
840.966	65.71
841.142	61.61
841.318	92.33
841.494	49.32
841.671	96.43
841.847	49.32
842.023	71.85
842.199	88.23
842.375	108.71
842.551	-18.26
842.727	57.51
842.903	123.05
843.079	55.47
843.255	82.09
843.431	10.41
843.607	55.47
843.783	14.51
843.959	90.28
844.134	39.08
844.31	110.76
844.486	104.62
844.662	59.56
844.838	34.99
845.013	75.95
845.189	55.47
845.365	88.23
845.541	34.99
845.716	-5.97
845.892	28.84
846.068	114.86
846.244	55.47
846.419	71.85
846.595	63.66
846.77	55.47
846.946	37.03
847.122	55.47
847.297	88.23
847.473	57.51
847.648	4.27
847.824	71.85
847.999	34.99
848.175	57.51
848.35	67.75
848.526	39.08
848.701	53.42
848.876	116.9
849.052	39.08
849.227	147.62
849.403	14.51
849.578	16.55
849.753	127.14
849.929	88.23
850.104	82.09
850.279	57.51
850.454	51.37
850.63	-38.74
850.805	63.66
850.98	0.17
851.155	8.36
851.33	30.89
851.505	90.28
851.681	10.41
851.856	75.95
852.031	37.03
852.206	39.08
852.381	57.51
852.556	22.7
852.731	77.99
852.906	-10.07
853.081	84.14
853.256	80.04
853.431	55.47
853.606	67.75
853.781	59.56
853.956	20.65
854.131	-14.17
854.305	-10.07
854.48	57.51
854.655	30.89
854.83	22.7
855.005	6.31
855.18	98.47
855.354	16.55
855.529	57.51
855.704	37.03
855.879	137.38
856.053	43.18
856.228	88.23
856.403	59.56
856.577	104.62
856.752	39.08
856.926	71.85
857.101	88.23
857.276	55.47
857.45	22.7
857.625	37.03
857.799	96.43
857.974	39.08
858.148	34.99
858.323	39.08
858.497	26.79
858.672	104.62
858.846	-1.88
859.02	30.89
859.195	18.6
859.369	67.75
859.543	63.66
859.718	14.51
859.892	26.79
860.066	-8.02
860.241	22.7
860.415	80.04
860.589	-14.17
860.763	34.99
860.938	61.61
861.112	10.41
861.286	71.85
861.46	30.89
861.634	18.6
861.808	41.13
861.982	20.65
862.157	39.08
862.331	39.08
862.505	8.36
862.679	26.79
862.853	-42.84
863.027	51.37
863.201	69.8
863.375	0.17
863.549	-14.17
863.722	63.66
863.896	18.6
864.07	26.79
864.244	26.79
864.418	14.51
864.592	147.62
864.766	73.9
864.939	28.84
865.113	26.79
865.287	65.71
865.461	-10.07
865.634	73.9
865.808	104.62
865.982	8.36
866.156	61.61
866.329	47.27
866.503	51.37
866.676	-14.17
866.85	37.03
867.024	65.71
867.197	-5.97
867.371	22.7
867.544	30.89
867.718	55.47
867.891	39.08
868.065	-5.97
868.238	51.37
868.412	104.62
868.585	-20.31
868.759	18.6
868.932	49.32
869.105	-12.12
869.279	-22.36
869.452	26.79
869.625	18.6
869.799	43.18
869.972	-1.88
870.145	-1.88
870.319	32.94
870.492	12.46
870.665	129.19
870.838	51.37
871.011	43.18
871.185	63.66
871.358	41.13
871.531	18.6
871.704	30.89
871.877	51.37
872.05	30.89
872.223	86.19
872.396	88.23
872.569	41.13
872.742	53.42
872.915	-8.02
873.088	-10.07
873.261	75.95
873.434	-8.02
873.607	47.27
873.78	41.13
873.953	92.33
874.126	22.7
874.299	10.41
874.471	-46.93
874.644	51.37
874.817	32.94
874.99	32.94
875.163	-40.79
875.335	30.89
875.508	-8.02
875.681	47.27
875.853	16.55
876.026	41.13
876.199	-18.26
876.371	108.71
876.544	-1.88
876.717	-26.45
876.889	22.7
877.062	30.89
877.234	28.84
877.407	-5.97
877.579	24.75
877.752	34.99
877.924	53.42
878.097	59.56
878.269	121
878.442	88.23
878.614	80.04
878.786	32.94
878.959	0.17
879.131	92.33
879.303	39.08
879.476	-22.36
879.648	104.62
879.82	84.14
879.993	-14.17
880.165	-1.88
880.337	22.7
880.509	6.31
880.681	28.84
880.854	26.79
881.026	-8.02
881.198	37.03
881.37	55.47
881.542	6.31
881.714	41.13
881.886	63.66
882.058	30.89
882.23	24.75
882.402	90.28
882.574	67.75
882.746	65.71
882.918	28.84
883.09	84.14
883.262	61.61
883.434	137.38
883.606	30.89
883.778	41.13
883.95	106.67
884.122	-20.31
884.293	-3.93
884.465	12.46
884.637	106.67
884.809	47.27
884.98	8.36
885.152	2.22
885.324	145.58
885.496	34.99
885.667	55.47
885.839	88.23
886.011	43.18
886.182	26.79
886.354	80.04
886.525	102.57
886.697	69.8
886.869	49.32
887.04	47.27
887.212	28.84
887.383	75.95
887.555	-14.17
887.726	-10.07
887.897	22.7
888.069	57.51
888.24	57.51
888.412	125.1
888.583	53.42
888.754	71.85
888.926	34.99
889.097	-24.4
889.268	-24.4
889.44	39.08
889.611	34.99
889.782	-18.26
889.953	6.31
890.125	88.23
890.296	37.03
890.467	57.51
890.638	-61.27
890.809	12.46
890.98	77.99
891.151	34.99
891.323	30.89
891.494	-18.26
891.665	-48.98
891.836	-14.17
892.007	-16.21
892.178	59.56
892.349	22.7
892.52	16.55
892.691	-36.69
892.862	30.89
893.032	24.75
893.203	55.47
893.374	-8.02
893.545	45.23
893.716	55.47
893.887	-20.31
894.057	10.41
894.228	88.23
894.399	47.27
894.57	-28.5
894.74	51.37
894.911	57.51
895.082	37.03
895.253	12.46
895.423	49.32
895.594	18.6
895.764	-26.45
895.935	22.7
896.106	-5.97
896.276	30.89
896.447	47.27
896.617	2.22
896.788	41.13
896.958	26.79
897.129	45.23
897.299	55.47
897.47	-1.88
897.64	41.13
897.81	-28.5
897.981	24.75
898.151	-34.64
898.322	10.41
898.492	-16.21
898.662	30.89
898.832	18.6
899.003	90.28
899.173	-28.5
899.343	65.71
899.513	59.56
