Data from USB4F104151__40__13-53-14-579.txt Node

Date: Thu Mar 13 13:53:14 EDT 2025
User: louis
Spectrometer: USB4F10415
Trigger mode: 4
Integration Time (sec): 1.000000E-2
Scans to average: 1
Electric dark correction enabled: true
Nonlinearity correction enabled: false
Boxcar width: 0
XAxis mode: Wavelengths
Number of Pixels in Spectrum: 3648
>>>>>Begin Spectral Data<<<<<
178.204	3.41
178.424	3.41
178.644	3.41
178.864	17.75
179.084	-47.79
179.304	-33.45
179.524	-4.78
179.744	34.13
179.964	13.65
180.184	3.41
180.404	-8.87
180.624	30.04
180.844	25.94
181.064	-62.12
181.283	-12.97
181.503	1.37
181.723	13.65
181.943	9.56
182.163	1.37
182.383	27.99
182.602	11.61
182.822	9.56
183.042	52.56
183.262	-10.92
183.482	48.47
183.701	-23.21
183.921	54.61
184.141	34.13
184.361	-8.87
184.58	-35.5
184.8	34.13
185.02	17.75
185.239	87.38
185.459	15.7
185.679	-2.73
185.898	-47.79
186.118	62.8
186.338	13.65
186.557	50.52
186.777	-33.45
186.997	-19.11
187.216	34.13
187.436	-6.83
187.655	-27.31
187.875	77.14
188.095	34.13
188.314	-27.31
188.534	36.18
188.753	-53.93
188.973	7.51
189.192	9.56
189.412	-21.16
189.631	38.23
189.851	46.42
190.07	17.75
190.29	54.61
190.509	62.8
190.729	46.42
190.948	97.62
191.168	-6.83
191.387	58.71
191.607	-8.87
191.826	-25.26
192.045	-2.73
192.265	1.37
192.484	-2.73
192.704	25.94
192.923	3.41
193.142	-37.55
193.362	40.28
193.581	56.66
193.8	34.13
194.02	52.56
194.239	50.52
194.458	75.09
194.678	46.42
194.897	-41.64
195.116	32.08
195.335	9.56
195.555	-23.21
195.774	85.33
195.993	89.43
196.212	32.08
196.432	40.28
196.651	21.84
196.87	-49.83
197.089	19.8
197.308	7.51
197.528	40.28
197.747	-2.73
197.966	-39.59
198.185	1.37
198.404	68.95
198.623	-17.07
198.842	42.32
199.062	58.71
199.281	103.76
199.5	-17.07
199.719	68.95
199.938	5.46
200.157	52.56
200.376	21.84
200.595	38.23
200.814	-0.68
201.033	-12.97
201.252	-43.69
201.471	1.37
201.69	-31.4
201.909	5.46
202.128	46.42
202.347	40.28
202.566	50.52
202.785	68.95
203.004	-4.78
203.223	3.41
203.442	9.56
203.661	-6.83
203.879	3.41
204.098	36.18
204.317	13.65
204.536	25.94
204.755	23.89
204.974	95.57
205.193	17.75
205.411	7.51
205.63	103.76
205.849	44.37
206.068	-25.26
206.287	60.76
206.505	13.65
206.724	21.84
206.943	34.13
207.162	30.04
207.381	32.08
207.599	-25.26
207.818	54.61
208.037	27.99
208.255	34.13
208.474	40.28
208.693	21.84
208.911	21.84
209.13	13.65
209.349	32.08
209.567	38.23
209.786	56.66
210.005	77.14
210.223	3.41
210.442	-10.92
210.661	62.8
210.879	40.28
211.098	-15.02
211.316	7.51
211.535	103.76
211.753	-82.6
211.972	52.56
212.191	1.37
212.409	11.61
212.628	7.51
212.846	32.08
213.065	71
213.283	81.24
213.502	23.89
213.72	40.28
213.938	7.51
214.157	30.04
214.375	23.89
214.594	58.71
214.812	-10.92
215.031	-15.02
215.249	34.13
215.467	-4.78
215.686	-29.35
215.904	44.37
216.122	48.47
216.341	23.89
216.559	48.47
216.778	58.71
216.996	-21.16
217.214	36.18
217.432	25.94
217.651	3.41
217.869	-21.16
218.087	19.8
218.306	50.52
218.524	93.52
218.742	71
218.96	75.09
219.179	-29.35
219.397	-25.26
219.615	56.66
219.833	19.8
220.051	-62.12
220.27	7.51
220.488	56.66
220.706	30.04
220.924	101.72
221.142	25.94
221.36	-10.92
221.578	7.51
221.796	48.47
222.015	9.56
222.233	21.84
222.451	64.85
222.669	-21.16
222.887	27.99
223.105	-31.4
223.323	42.32
223.541	64.85
223.759	25.94
223.977	-35.5
224.195	46.42
224.413	36.18
224.631	15.7
224.849	64.85
225.067	38.23
225.285	-19.11
225.503	15.7
225.721	13.65
225.939	30.04
226.157	68.95
226.375	111.96
226.592	11.61
226.81	56.66
227.028	79.19
227.246	58.71
227.464	3.41
227.682	64.85
227.9	68.95
228.117	64.85
228.335	17.75
228.553	32.08
228.771	-4.78
228.989	11.61
229.206	54.61
229.424	95.57
229.642	71
229.86	64.85
230.077	25.94
230.295	58.71
230.513	64.85
230.731	15.7
230.948	38.23
231.166	-12.97
231.384	44.37
231.601	-2.73
231.819	44.37
232.037	19.8
232.254	46.42
232.472	-6.83
232.689	-49.83
232.907	-25.26
233.125	-25.26
233.342	17.75
233.56	3.41
233.777	25.94
233.995	99.67
234.213	-8.87
234.43	-4.78
234.648	7.51
234.865	36.18
235.083	9.56
235.3	-15.02
235.518	-0.68
235.735	38.23
235.953	-10.92
236.17	-4.78
236.388	56.66
236.605	-23.21
236.822	83.28
237.04	19.8
237.257	48.47
237.475	42.32
237.692	58.71
237.909	81.24
238.127	52.56
238.344	56.66
238.562	40.28
238.779	95.57
238.996	25.94
239.214	11.61
239.431	52.56
239.648	5.46
239.865	64.85
240.083	40.28
240.3	56.66
240.517	44.37
240.735	-33.45
240.952	5.46
241.169	-31.4
241.386	-53.93
241.603	27.99
241.821	23.89
242.038	-4.78
242.255	5.46
242.472	97.62
242.689	73.04
242.907	-12.97
243.124	40.28
243.341	-2.73
243.558	-19.11
243.775	-6.83
243.992	-29.35
244.209	-15.02
244.426	66.9
244.643	56.66
244.86	38.23
245.078	40.28
245.295	52.56
245.512	71
245.729	-21.16
245.946	-2.73
246.163	126.29
246.38	40.28
246.597	7.51
246.814	15.7
247.031	50.52
247.248	60.76
247.464	52.56
247.681	17.75
247.898	-47.79
248.115	-23.21
248.332	-8.87
248.549	30.04
248.766	48.47
248.983	44.37
249.2	13.65
249.417	79.19
249.633	17.75
249.85	32.08
250.067	-27.31
250.284	-37.55
250.501	-12.97
250.717	40.28
250.934	-31.4
251.151	56.66
251.368	46.42
251.585	40.28
251.801	81.24
252.018	40.28
252.235	42.32
252.451	64.85
252.668	52.56
252.885	-4.78
253.102	27.99
253.318	3.41
253.535	-17.07
253.752	27.99
253.968	-25.26
254.185	52.56
254.401	32.08
254.618	5.46
254.835	32.08
255.051	52.56
255.268	109.91
255.484	52.56
255.701	46.42
255.917	97.62
256.134	17.75
256.351	21.84
256.567	-12.97
256.784	-0.68
257	87.38
257.217	-2.73
257.433	15.7
257.65	60.76
257.866	-0.68
258.082	68.95
258.299	-10.92
258.515	64.85
258.732	3.41
258.948	54.61
259.165	52.56
259.381	60.76
259.597	50.52
259.814	83.28
260.03	38.23
260.246	42.32
260.463	5.46
260.679	62.8
260.895	3.41
261.112	15.7
261.328	30.04
261.544	-0.68
261.761	68.95
261.977	38.23
262.193	-21.16
262.409	13.65
262.626	19.8
262.842	44.37
263.058	34.13
263.274	36.18
263.49	-8.87
263.707	40.28
263.923	23.89
264.139	50.52
264.355	46.42
264.571	60.76
264.787	71
265.004	62.8
265.22	25.94
265.436	1.37
265.652	23.89
265.868	83.28
266.084	27.99
266.3	-23.21
266.516	11.61
266.732	44.37
266.948	-47.79
267.164	68.95
267.38	-45.74
267.596	42.32
267.812	36.18
268.028	56.66
268.244	77.14
268.46	40.28
268.676	-62.12
268.892	17.75
269.108	1.37
269.324	66.9
269.54	58.71
269.756	27.99
269.972	1.37
270.188	11.61
270.403	97.62
270.619	77.14
270.835	30.04
271.051	87.38
271.267	23.89
271.483	38.23
271.698	-8.87
271.914	-8.87
272.13	30.04
272.346	114
272.562	40.28
272.777	60.76
272.993	89.43
273.209	93.52
273.425	-21.16
273.64	9.56
273.856	111.96
274.072	23.89
274.287	85.33
274.503	21.84
274.719	-8.87
274.934	50.52
275.15	5.46
275.366	-21.16
275.581	60.76
275.797	44.37
276.012	58.71
276.228	-35.5
276.444	44.37
276.659	34.13
276.875	5.46
277.09	-0.68
277.306	62.8
277.521	25.94
277.737	7.51
277.952	68.95
278.168	19.8
278.383	52.56
278.599	9.56
278.814	142.68
279.03	48.47
279.245	62.8
279.461	79.19
279.676	3.41
279.892	-10.92
280.107	95.57
280.322	114
280.538	-0.68
280.753	66.9
280.969	-29.35
281.184	15.7
281.399	27.99
281.615	-4.78
281.83	27.99
282.045	-43.69
282.26	-2.73
282.476	5.46
282.691	9.56
282.906	1.37
283.122	91.48
283.337	-6.83
283.552	95.57
283.767	42.32
283.983	75.09
284.198	56.66
284.413	32.08
284.628	25.94
284.843	25.94
285.058	-4.78
285.274	40.28
285.489	3.41
285.704	-15.02
285.919	15.7
286.134	-2.73
286.349	9.56
286.564	42.32
286.779	27.99
286.995	-0.68
287.21	-15.02
287.425	7.51
287.64	11.61
287.855	38.23
288.07	46.42
288.285	-86.7
288.5	36.18
288.715	68.95
288.93	87.38
289.145	54.61
289.36	25.94
289.575	32.08
289.79	23.89
290.004	30.04
290.219	1.37
290.434	95.57
290.649	19.8
290.864	44.37
291.079	-49.83
291.294	46.42
291.509	38.23
291.724	5.46
291.938	46.42
292.153	54.61
292.368	11.61
292.583	23.89
292.798	5.46
293.012	124.24
293.227	89.43
293.442	64.85
293.657	60.76
293.871	79.19
294.086	23.89
294.301	95.57
294.516	13.65
294.73	42.32
294.945	48.47
295.16	17.75
295.374	91.48
295.589	73.04
295.804	54.61
296.018	73.04
296.233	21.84
296.447	75.09
296.662	-19.11
296.877	48.47
297.091	-41.64
297.306	71
297.52	38.23
297.735	50.52
297.949	34.13
298.164	-2.73
298.378	-8.87
298.593	21.84
298.807	40.28
299.022	85.33
299.236	-17.07
299.451	1.37
299.665	40.28
299.88	3.41
300.094	32.08
300.309	56.66
300.523	42.32
300.737	89.43
300.952	-49.83
301.166	97.62
301.381	17.75
301.595	50.52
301.809	58.71
302.024	56.66
302.238	15.7
302.452	-19.11
302.667	60.76
302.881	-19.11
303.095	46.42
303.309	-23.21
303.524	-17.07
303.738	-72.36
303.952	5.46
304.166	-23.21
304.381	23.89
304.595	103.76
304.809	15.7
305.023	19.8
305.237	71
305.452	60.76
305.666	46.42
305.88	32.08
306.094	50.52
306.308	97.62
306.522	99.67
306.736	-15.02
306.95	60.76
307.164	-0.68
307.379	62.8
307.593	120.15
307.807	23.89
308.021	46.42
308.235	25.94
308.449	-25.26
308.663	-15.02
308.877	101.72
309.091	30.04
309.305	93.52
309.519	44.37
309.733	66.9
309.947	30.04
310.161	44.37
310.374	15.7
310.588	-2.73
310.802	5.46
311.016	15.7
311.23	58.71
311.444	-0.68
311.658	44.37
311.872	38.23
312.085	64.85
312.299	58.71
312.513	66.9
312.727	-0.68
312.941	87.38
313.154	60.76
313.368	79.19
313.582	42.32
313.796	13.65
314.009	34.13
314.223	46.42
314.437	75.09
314.651	-0.68
314.864	48.47
315.078	-23.21
315.292	27.99
315.505	111.96
315.719	103.76
315.933	-43.69
316.146	5.46
316.36	36.18
316.573	23.89
316.787	34.13
317.001	64.85
317.214	23.89
317.428	97.62
317.641	85.33
317.855	5.46
318.068	48.47
318.282	42.32
318.495	-21.16
318.709	34.13
318.922	75.09
319.136	50.52
319.349	-21.16
319.563	42.32
319.776	87.38
319.99	48.47
320.203	25.94
320.417	11.61
320.63	3.41
320.843	118.1
321.057	52.56
321.27	-2.73
321.483	42.32
321.697	56.66
321.91	17.75
322.124	-31.4
322.337	32.08
322.55	-23.21
322.763	19.8
322.977	9.56
323.19	42.32
323.403	27.99
323.617	30.04
323.83	27.99
324.043	-17.07
324.256	58.71
324.469	52.56
324.683	93.52
324.896	30.04
325.109	40.28
325.322	-10.92
325.535	13.65
325.748	46.42
325.962	81.24
326.175	21.84
326.388	32.08
326.601	44.37
326.814	17.75
327.027	1.37
327.24	87.38
327.453	-23.21
327.666	64.85
327.879	66.9
328.092	66.9
328.305	-4.78
328.518	68.95
328.731	44.37
328.944	109.91
329.157	58.71
329.37	9.56
329.583	68.95
329.796	27.99
330.009	93.52
330.222	23.89
330.435	79.19
330.648	68.95
330.861	42.32
331.073	46.42
331.286	36.18
331.499	62.8
331.712	58.71
331.925	34.13
332.138	40.28
332.35	60.76
332.563	-10.92
332.776	30.04
332.989	23.89
333.202	13.65
333.414	52.56
333.627	-8.87
333.84	3.41
334.053	116.05
334.265	19.8
334.478	40.28
334.691	58.71
334.903	85.33
335.116	68.95
335.329	30.04
335.541	25.94
335.754	66.9
335.966	-19.11
336.179	30.04
336.392	64.85
336.604	40.28
336.817	46.42
337.029	42.32
337.242	7.51
337.454	50.52
337.667	7.51
337.88	48.47
338.092	-17.07
338.305	58.71
338.517	13.65
338.729	34.13
338.942	66.9
339.154	30.04
339.367	46.42
339.579	-17.07
339.792	13.65
340.004	-0.68
340.217	27.99
340.429	42.32
340.641	-0.68
340.854	-23.21
341.066	30.04
341.278	25.94
341.491	50.52
341.703	99.67
341.915	-62.12
342.128	81.24
342.34	17.75
342.552	54.61
342.764	-0.68
342.977	46.42
343.189	54.61
343.401	30.04
343.613	-0.68
343.826	-19.11
344.038	-27.31
344.25	64.85
344.462	73.04
344.674	40.28
344.886	1.37
345.099	48.47
345.311	19.8
345.523	42.32
345.735	-15.02
345.947	38.23
346.159	-49.83
346.371	5.46
346.583	-45.74
346.795	107.86
347.007	15.7
347.219	81.24
347.431	13.65
347.643	73.04
347.855	38.23
348.067	27.99
348.279	75.09
348.491	-19.11
348.703	17.75
348.915	50.52
349.127	11.61
349.339	58.71
349.551	52.56
349.763	9.56
349.975	46.42
350.187	75.09
350.399	44.37
350.61	58.71
350.822	60.76
351.034	36.18
351.246	30.04
351.458	36.18
351.669	32.08
351.881	77.14
352.093	56.66
352.305	118.1
352.517	91.48
352.728	54.61
352.94	34.13
353.152	9.56
353.363	-21.16
353.575	68.95
353.787	89.43
353.999	111.96
354.21	48.47
354.422	64.85
354.633	40.28
354.845	-6.83
355.057	25.94
355.268	7.51
355.48	83.28
355.692	36.18
355.903	27.99
356.115	64.85
356.326	13.65
356.538	118.1
356.749	9.56
356.961	38.23
357.172	64.85
357.384	-0.68
357.595	44.37
357.807	-10.92
358.018	-37.55
358.23	32.08
358.441	89.43
358.653	52.56
358.864	62.8
359.075	68.95
359.287	44.37
359.498	77.14
359.709	52.56
359.921	58.71
360.132	75.09
360.344	15.7
360.555	56.66
360.766	105.81
360.977	34.13
361.189	32.08
361.4	25.94
361.611	85.33
361.823	66.9
362.034	36.18
362.245	60.76
362.456	64.85
362.667	15.7
362.879	3.41
363.09	40.28
363.301	-15.02
363.512	-0.68
363.723	40.28
363.935	38.23
364.146	56.66
364.357	-4.78
364.568	87.38
364.779	111.96
364.99	89.43
365.201	32.08
365.412	25.94
365.623	79.19
365.834	34.13
366.045	5.46
366.256	56.66
366.467	11.61
366.678	42.32
366.889	19.8
367.1	19.8
367.311	36.18
367.522	50.52
367.733	81.24
367.944	73.04
368.155	7.51
368.366	36.18
368.577	7.51
368.788	75.09
368.999	46.42
369.209	46.42
369.42	122.2
369.631	128.34
369.842	27.99
370.053	27.99
370.264	50.52
370.474	-4.78
370.685	15.7
370.896	87.38
371.107	9.56
371.317	-4.78
371.528	27.99
371.739	71
371.95	62.8
372.16	101.72
372.371	50.52
372.582	23.89
372.792	97.62
373.003	77.14
373.214	99.67
373.424	3.41
373.635	-25.26
373.846	111.96
374.056	56.66
374.267	42.32
374.477	132.44
374.688	13.65
374.898	64.85
375.109	44.37
375.319	-29.35
375.53	118.1
375.74	62.8
375.951	73.04
376.161	91.48
376.372	101.72
376.582	38.23
376.793	52.56
377.003	13.65
377.214	54.61
377.424	42.32
377.635	87.38
377.845	-66.22
378.055	19.8
378.266	46.42
378.476	79.19
378.686	52.56
378.897	75.09
379.107	13.65
379.317	-4.78
379.528	68.95
379.738	-19.11
379.948	42.32
380.158	52.56
380.369	73.04
380.579	56.66
380.789	23.89
380.999	81.24
381.21	15.7
381.42	42.32
381.63	36.18
381.84	58.71
382.05	38.23
382.261	71
382.471	62.8
382.681	130.39
382.891	101.72
383.101	30.04
383.311	1.37
383.521	50.52
383.731	71
383.941	19.8
384.151	42.32
384.361	42.32
384.571	71
384.781	101.72
384.991	68.95
385.201	60.76
385.411	25.94
385.621	89.43
385.831	75.09
386.041	66.9
386.251	9.56
386.461	56.66
386.671	89.43
386.881	32.08
387.091	85.33
387.301	36.18
387.511	-31.4
387.72	54.61
387.93	40.28
388.14	-12.97
388.35	81.24
388.56	36.18
388.769	66.9
388.979	62.8
389.189	87.38
389.399	62.8
389.609	-15.02
389.818	114
390.028	-25.26
390.238	79.19
390.447	46.42
390.657	132.44
390.867	15.7
391.076	95.57
391.286	36.18
391.496	95.57
391.705	48.47
391.915	44.37
392.125	30.04
392.334	101.72
392.544	21.84
392.753	66.9
392.963	17.75
393.172	68.95
393.382	58.71
393.591	23.89
393.801	58.71
394.01	68.95
394.22	46.42
394.429	73.04
394.639	97.62
394.848	48.47
395.058	111.96
395.267	-4.78
395.477	11.61
395.686	40.28
395.895	93.52
396.105	75.09
396.314	124.24
396.524	34.13
396.733	79.19
396.942	124.24
397.152	101.72
397.361	105.81
397.57	38.23
397.78	54.61
397.989	81.24
398.198	124.24
398.407	5.46
398.617	91.48
398.826	54.61
399.035	23.89
399.244	77.14
399.453	42.32
399.663	48.47
399.872	71
400.081	27.99
400.29	132.44
400.499	50.52
400.708	93.52
400.917	52.56
401.127	62.8
401.336	161.11
401.545	73.04
401.754	95.57
401.963	111.96
402.172	36.18
402.381	71
402.59	163.15
402.799	34.13
403.008	44.37
403.217	116.05
403.426	62.8
403.635	101.72
403.844	152.91
404.053	116.05
404.262	64.85
404.471	79.19
404.68	157.01
404.888	89.43
405.097	46.42
405.306	130.39
405.515	126.29
405.724	111.96
405.933	56.66
406.142	167.25
406.35	81.24
406.559	167.25
406.768	146.77
406.977	144.72
407.185	132.44
407.394	146.77
407.603	146.77
407.812	173.39
408.02	197.97
408.229	150.87
408.438	165.2
408.646	177.49
408.855	187.73
409.064	187.73
409.272	249.17
409.481	232.79
409.69	300.37
409.898	200.02
410.107	126.29
410.315	281.94
410.524	222.55
410.733	240.98
410.941	220.5
411.15	208.21
411.358	277.84
411.567	288.08
411.775	308.56
411.984	275.79
412.192	302.42
412.401	222.55
412.609	339.28
412.818	269.65
413.026	449.87
413.234	347.47
413.443	378.19
413.651	281.94
413.86	310.61
414.068	388.43
414.276	406.86
414.485	421.2
414.693	478.54
414.901	439.63
415.11	429.39
415.318	462.16
415.526	380.24
415.734	486.73
415.943	458.06
416.151	494.93
416.359	505.17
416.567	507.21
416.776	566.6
416.984	617.8
417.192	640.33
417.4	646.48
417.608	644.43
417.817	699.72
418.025	734.54
418.233	830.79
418.441	773.45
418.649	812.36
418.857	865.61
419.065	916.81
419.273	826.7
419.481	859.46
419.689	912.71
419.897	931.14
420.105	922.95
420.313	1058.12
420.521	998.73
420.729	1135.94
420.937	1123.65
421.145	1240.39
421.353	1133.89
421.561	1279.3
421.769	1310.02
421.977	1293.63
422.185	1291.59
422.393	1267.01
422.601	1492.29
422.809	1594.68
423.017	1449.28
423.224	1586.49
423.432	1502.53
423.64	1592.64
423.848	1731.9
424.056	1670.46
424.263	1893.69
424.471	1858.87
424.679	1879.35
424.887	2035
425.094	2098.49
425.302	2065.72
425.51	2069.81
425.718	2325.81
425.925	2196.79
426.133	2331.95
426.341	2426.16
426.548	2598.19
426.756	2514.22
426.964	2598.19
427.171	2762.03
427.379	2831.66
427.586	2833.71
427.794	2919.72
428.001	2977.06
428.209	3204.39
428.417	3159.33
428.624	3278.12
428.832	3425.57
429.039	3337.51
429.247	3321.12
429.454	3554.59
429.662	4044.06
429.869	3595.55
430.076	3757.34
430.284	3810.59
430.491	3925.27
430.699	4160.79
430.906	3933.47
431.114	4312.34
431.321	4347.15
431.528	4508.94
431.736	4689.17
431.943	5020.94
432.15	4732.17
432.358	4877.58
432.565	5246.21
432.772	5143.81
432.979	5444.87
433.187	5418.24
433.394	5369.09
433.601	5911.8
433.808	5924.09
434.016	5954.81
434.223	5952.76
434.43	6495.47
434.637	6204.66
434.844	6755.57
435.052	6798.57
435.259	6868.2
435.466	6845.68
435.673	6800.62
435.88	7296.23
436.087	7736.54
436.294	7632.1
436.501	7722.21
436.708	7591.14
436.915	7972.06
437.122	8326.36
437.329	8441.04
437.537	8342.74
437.743	8475.86
437.95	8637.65
438.157	8985.8
438.364	9045.2
438.571	9096.39
438.778	9479.36
438.985	10079.42
439.192	9798.85
439.399	10036.41
439.606	9944.25
439.813	10478.77
440.02	11166.89
440.227	10962.09
440.433	10669.23
440.64	11125.93
440.847	10996.91
441.054	11424.93
441.261	12065.95
441.467	11852.96
441.674	12371.1
441.881	12522.65
442.088	12594.33
442.294	12588.18
442.501	12815.51
442.708	12962.96
442.914	13581.45
443.121	14050.43
443.328	13831.3
443.534	14771.32
443.741	14384.25
443.948	14156.93
444.154	15283.31
444.361	15123.57
444.568	15131.76
444.774	15432.81
444.981	15252.59
445.187	15846.5
445.394	16436.31
445.6	16217.18
445.807	17781.83
446.013	16893.01
446.22	17255.5
446.426	18060.35
446.633	18228.29
446.839	18641.98
447.046	18125.89
447.252	19033.14
447.459	19020.85
447.665	18943.03
447.871	19881
448.078	20642.84
448.284	19465.26
448.491	20126.75
448.697	20859.93
448.903	21330.96
449.11	20995.09
449.316	21103.64
449.522	21302.29
449.728	21883.91
449.935	22197.25
450.141	22057.99
450.347	22821.88
450.553	21785.61
450.76	22203.39
450.966	22707.19
451.172	22719.48
451.378	23211
451.584	22526.97
451.791	22950.9
451.997	23284.72
452.203	23765.99
452.409	23217.14
452.615	23133.17
452.821	22594.56
453.027	22178.82
453.233	23411.7
453.44	22242.31
453.646	22733.82
453.852	22840.31
454.058	22942.71
454.264	22348.8
454.47	23022.58
454.676	22455.29
454.882	23129.08
455.088	20904.98
455.294	21201.94
455.5	21486.61
455.705	21756.94
455.911	20812.82
456.117	20737.05
456.323	20446.24
456.529	19092.53
456.735	20093.99
456.941	19510.32
457.147	19199.02
457.352	18615.35
457.558	18306.11
457.764	18314.3
457.97	18068.55
458.176	17454.15
458.381	17523.79
458.587	16589.91
458.793	16718.93
458.999	15793.25
459.204	17040.47
459.41	16776.28
459.616	15275.12
459.821	15488.1
460.027	15529.06
460.233	14881.91
460.438	14206.08
460.644	14599.29
460.85	13962.37
461.055	13857.92
461.261	13556.87
461.466	12645.52
461.672	12076.19
461.878	13175.95
462.083	12297.37
462.289	11805.86
462.494	11967.65
462.7	11396.26
462.905	11095.21
463.111	11582.63
463.316	11420.84
463.522	11259.05
463.727	11320.49
463.932	11281.58
464.138	11084.97
464.343	11222.19
464.549	10855.6
464.754	11373.74
464.959	11250.86
465.165	10986.67
465.37	10620.08
465.575	10398.9
465.781	10716.34
465.986	10908.85
466.191	10368.18
466.397	10349.75
466.602	9680.07
466.807	10079.42
467.012	10044.6
467.218	10097.85
467.423	9776.32
467.628	9903.29
467.833	10235.07
468.038	9979.07
468.244	9555.14
468.449	10038.46
468.654	9714.88
468.859	9776.32
469.064	9708.74
469.269	9331.91
469.474	9315.53
469.679	9536.71
469.885	9262.28
470.09	9237.7
470.295	9168.07
470.5	9047.24
470.705	8957.13
470.91	9051.34
471.115	8766.67
471.32	8953.04
471.525	9032.91
471.73	8643.79
471.935	8582.35
472.139	8350.93
472.344	8439
472.549	8305.88
472.754	8195.29
472.959	8060.12
473.164	8234.2
473.369	7918.81
473.574	8008.92
473.778	8015.07
473.983	7927
474.188	8019.16
474.393	7453.92
474.598	7558.37
474.802	7468.26
475.007	7412.96
475.212	7433.44
475.417	7343.33
475.621	7335.14
475.826	7277.8
476.031	7046.38
476.235	7046.38
476.44	7019.75
476.645	7007.47
476.849	7042.28
477.054	6870.25
477.259	6829.29
477.463	6630.64
477.668	6669.55
477.872	6604.02
478.077	6509.81
478.282	6348.02
478.486	6313.2
478.691	6425.84
478.895	6298.87
479.1	6362.36
479.304	6249.72
479.509	6319.35
479.713	6102.26
479.918	6036.73
480.122	6061.3
480.326	6014.2
480.531	6094.07
480.735	5987.58
480.94	5885.18
481.144	6190.33
481.348	5922.04
481.553	5938.43
481.757	5952.76
481.961	5997.82
482.166	6038.78
482.37	5821.69
482.574	5917.95
482.778	5723.39
482.983	5819.64
483.187	5797.12
483.391	5885.18
483.595	5895.42
483.8	5747.97
484.004	5825.79
484.208	5977.34
484.412	5784.83
484.616	5897.47
484.821	5905.66
485.025	5782.78
485.229	5932.28
485.433	5762.3
485.637	5790.97
485.841	5879.04
486.045	5743.87
486.249	5965.05
486.453	5821.69
486.657	5729.53
486.861	5893.37
487.065	5676.29
487.269	5889.28
487.473	5901.56
487.677	5868.8
487.881	5831.93
488.085	5797.12
488.289	5879.04
488.493	5967.1
488.697	5819.64
488.901	5807.36
489.105	5823.74
489.309	6026.49
489.512	5879.04
489.716	6022.39
489.92	5999.87
490.124	6008.06
490.328	6223.09
490.531	5881.08
490.735	6167.8
490.939	5995.77
491.143	5893.37
491.346	5889.28
491.55	6233.33
491.754	6141.18
491.958	6137.08
492.161	6038.78
492.365	6161.66
492.569	6128.89
492.772	6171.9
492.976	6343.92
493.18	6204.66
493.383	6384.88
493.587	6395.12
493.79	6481.14
493.994	6440.18
494.197	6374.64
494.401	6460.66
494.605	6601.97
494.808	6694.13
495.012	6542.58
495.215	6808.81
495.419	6767.85
495.622	6898.92
495.825	6890.73
496.029	6978.79
496.232	6976.75
496.436	6921.45
496.639	7275.75
496.843	7167.21
497.046	7384.29
497.249	7212.26
497.453	7474.4
497.656	7451.88
497.859	7513.31
498.063	7591.14
498.266	7820.51
498.469	7668.96
498.673	7738.59
498.876	7845.09
499.079	7931.1
499.282	8058.07
499.485	8058.07
499.689	8275.16
499.892	8221.91
500.095	8273.11
500.298	8467.67
500.501	8549.59
500.705	8709.33
500.908	8955.08
501.111	8957.13
501.314	8938.7
501.517	9149.64
501.72	9313.48
501.923	9364.68
502.126	9528.52
502.329	9598.15
502.532	9606.34
502.735	9880.77
502.938	9884.86
503.141	9929.92
503.344	10175.67
503.547	10095.8
503.75	10362.04
503.953	10742.96
504.156	10597.56
504.359	10783.92
504.562	10785.97
504.765	11130.03
504.968	11115.69
505.17	11246.76
505.373	11295.91
505.576	11412.65
505.779	11422.89
505.982	11701.41
506.185	12039.33
506.387	12256.41
506.59	12113.05
506.793	12358.81
506.996	12459.16
507.198	12741.78
507.401	12575.89
507.604	12866.7
507.807	13200.52
508.009	13440.14
508.212	13468.81
508.415	13239.44
508.617	13694.08
508.82	13851.78
509.022	13939.84
509.225	14269.56
509.428	14165.12
509.63	14427.26
509.833	14498.94
510.035	14769.27
510.238	14845.04
510.44	15080.56
510.643	15291.5
510.845	15262.83
511.048	15395.95
511.25	15789.16
511.453	15905.89
511.655	16518.23
511.858	16213.09
512.06	16536.67
512.262	16725.08
512.465	16505.95
512.667	17003.6
512.87	17388.62
513.072	17120.34
513.274	17677.38
513.477	17886.28
513.679	17810.5
513.881	18125.89
514.084	18324.54
514.286	18519.1
514.488	18721.85
514.69	19219.5
514.893	19022.9
515.095	19262.51
515.297	19407.92
515.499	19665.96
515.701	19825.7
515.904	20184.1
516.106	20108.32
516.308	20202.53
516.51	20892.69
516.712	20913.17
516.914	21077.01
517.116	21593.1
517.318	21447.69
517.52	21627.92
517.722	22023.17
517.925	22135.81
518.127	22035.46
518.329	22729.72
518.531	22653.95
518.733	23131.12
518.935	23090.17
519.136	23544.81
519.338	23720.94
519.54	23677.93
519.742	24382.43
519.944	24302.56
520.146	24806.36
520.348	25039.83
520.55	25029.59
520.752	25183.19
520.954	25793.48
521.155	25402.32
521.357	25895.88
521.559	25971.66
521.761	26403.78
521.963	26567.62
522.164	26502.08
522.366	27165.62
522.568	27118.52
522.77	27249.59
522.971	27460.53
523.173	27325.36
523.375	27859.88
523.576	28001.19
523.778	28068.78
523.98	28431.27
524.181	28332.96
524.383	28709.79
524.584	29107.1
524.786	29016.99
524.988	28779.42
525.189	29682.58
525.391	29674.38
525.592	29602.71
525.794	29860.75
525.995	30192.52
526.197	29875.09
526.398	29950.86
526.6	30149.51
526.801	30483.33
527.003	31017.85
527.204	30858.11
527.406	30964.6
527.607	31048.57
527.808	31032.19
528.01	30806.91
528.211	31122.3
528.412	31769.46
528.614	31808.37
528.815	31634.29
529.016	31970.16
529.218	31605.62
529.419	31818.61
529.62	31646.58
529.822	32015.21
530.023	32199.53
530.224	32265.06
530.425	32199.53
530.626	32031.6
530.828	31918.96
531.029	32588.64
531.23	32353.13
531.431	32648.04
531.632	32805.73
531.833	33069.92
532.035	32818.02
532.236	32883.55
532.437	33043.29
532.638	32607.08
532.839	32748.39
533.04	32768.87
533.241	32748.39
533.442	33373.02
533.643	33219.42
533.844	32863.07
534.045	33243.99
534.246	32854.88
534.447	33620.82
534.648	33039.2
534.849	33153.88
535.05	33082.2
535.251	33065.82
535.451	33069.92
535.652	33340.25
535.853	33203.03
536.054	33358.68
536.255	33323.86
536.456	32969.57
536.657	33626.96
536.857	33182.55
537.058	33291.1
537.259	33657.68
537.46	33358.68
537.66	33530.71
537.861	33327.96
538.062	33420.12
538.263	33153.88
538.463	33336.15
538.664	33395.54
538.865	33393.5
539.065	33516.37
539.266	33121.12
539.466	33753.94
539.667	33010.53
539.868	33588.05
540.068	33581.91
540.269	33454.93
540.469	33559.38
540.67	33307.48
540.87	33375.06
541.071	33104.73
541.271	33252.19
541.472	33432.41
541.672	33168.22
541.873	32795.49
542.073	32869.22
542.274	33659.73
542.474	33327.96
542.675	32985.95
542.875	33665.88
543.075	33444.69
543.276	32779.11
543.476	33506.13
543.676	33088.35
543.877	33422.17
544.077	33477.46
544.277	33135.45
544.478	33237.85
544.678	33512.28
544.878	33397.59
545.078	33080.16
545.279	33024.86
545.479	33088.35
545.679	33219.42
545.879	33186.65
546.079	33366.87
546.28	33213.27
546.48	32944.99
546.68	33594.2
546.88	33348.44
547.08	33299.29
547.28	33309.53
547.48	33016.67
547.68	33223.51
547.88	33014.62
548.081	33424.22
548.281	33348.44
548.481	33129.31
548.681	33254.23
548.881	33112.92
549.081	33305.43
549.28	33186.65
549.48	33477.46
549.68	33426.26
549.88	33381.21
550.08	33063.77
550.28	33289.05
550.48	33031.01
550.68	33549.14
550.88	33155.93
551.08	33012.57
551.279	33241.95
551.479	32963.42
551.679	33033.05
551.879	33117.02
552.079	33311.58
552.278	32824.16
552.478	33260.38
552.678	33100.64
552.878	33035.1
553.077	33022.81
553.277	32725.86
553.477	33184.6
553.676	32783.2
553.876	32961.37
554.076	32512.87
554.275	32613.22
554.475	32658.27
554.674	33047.39
554.874	33000.29
555.074	32867.17
555.273	32809.82
555.473	32777.06
555.672	32660.32
555.872	33002.33
556.071	32510.82
556.271	32277.35
556.47	32785.25
556.67	32523.11
556.869	32224.11
557.068	32418.66
557.268	32437.09
557.467	32404.33
557.667	32492.39
557.866	32232.3
558.065	32117.61
558.265	31691.63
558.464	32260.97
558.663	31890.29
558.863	31802.22
559.062	32744.29
559.261	31728.5
559.461	32215.91
559.66	31474.55
559.859	31988.59
560.058	31501.17
560.258	31605.62
560.457	31605.62
560.656	31695.73
560.855	31097.72
561.054	31802.22
561.253	31175.55
561.453	31560.56
561.652	31449.97
561.851	31390.58
562.05	31271.8
562.249	31040.38
562.448	31263.61
562.647	30929.79
562.846	31067
563.045	31333.24
563.244	30708.61
563.443	31400.82
563.642	30776.19
563.841	30995.32
564.04	30802.82
564.239	30821.25
564.438	30724.99
564.637	30534.53
564.836	30524.29
565.035	30028.68
565.234	30749.57
565.432	30491.52
565.631	30227.34
565.83	30618.5
566.029	30296.97
566.228	29737.87
566.427	29866.89
566.625	30219.14
566.824	29725.58
567.023	30430.08
567.222	29397.91
567.42	30102.41
567.619	29911.95
567.818	29770.64
568.016	29498.26
568.215	29645.71
568.414	29496.21
568.612	29465.49
568.811	29103
569.01	29471.64
569.208	29154.2
569.407	29406.1
569.605	28685.22
569.804	28924.83
570.002	29000.6
570.201	29213.59
570.4	28545.95
570.598	28588.96
570.797	28406.69
570.995	28537.76
571.193	28332.96
571.392	28480.42
571.59	28171.18
571.789	27923.37
571.987	28101.54
572.186	27804.59
572.384	28029.87
572.582	27892.65
572.781	27902.89
572.979	27556.78
573.177	27845.55
573.376	28109.74
573.574	27374.52
573.772	27470.77
573.971	27339.7
574.169	27126.71
574.367	27145.14
574.565	27177.91
574.763	26745.79
574.962	26862.52
575.16	26747.84
575.358	27126.71
575.556	26409.92
575.754	27065.27
575.952	26260.42
576.151	26567.62
576.349	26256.32
576.547	26219.46
576.745	26266.56
576.943	26012.62
577.141	26117.06
577.339	25967.56
577.537	25904.07
577.735	25865.16
577.933	25807.82
578.131	25635.79
578.329	25486.29
578.527	25508.82
578.725	25459.66
578.923	25682.89
579.121	25070.55
579.319	25471.95
579.516	25494.48
579.714	25086.93
579.912	24884.19
580.11	24974.3
580.308	25005.02
580.506	24880.09
580.704	24452.06
580.901	24708.06
581.099	24986.58
581.297	24490.98
581.495	24554.46
581.692	24603.61
581.89	24226.79
582.088	24579.04
582.285	24611.81
582.483	24447.97
582.681	24370.15
582.878	24171.49
583.076	23776.23
583.274	23960.55
583.471	23403.5
583.669	23892.97
583.866	23636.97
584.064	24017.89
584.262	23802.86
584.459	23843.82
584.657	23329.78
584.854	23622.64
585.052	23178.23
585.249	23008.25
585.447	23448.56
585.644	22852.6
585.841	23333.87
586.039	23167.99
586.236	22782.97
586.434	22885.37
586.631	22807.55
586.828	22635.52
587.026	22959.1
587.223	22588.41
587.42	22461.44
587.618	22434.81
587.815	22137.86
588.012	22311.94
588.21	22141.96
588.407	22260.74
588.604	22070.28
588.801	21709.83
588.999	22008.84
589.196	21875.72
589.393	21697.55
589.59	21974.02
589.787	21746.7
589.984	21814.28
590.182	21224.47
590.379	21552.14
590.576	21505.04
590.773	21701.64
590.97	21437.45
591.167	21369.87
591.364	21058.58
591.561	21283.86
591.758	20884.5
591.955	20999.19
592.152	21064.72
592.349	21044.24
592.546	20876.31
592.743	20732.95
592.94	20714.52
593.137	20509.72
593.334	20714.52
593.531	20302.88
593.727	20745.24
593.924	20640.79
594.121	20225.06
594.318	20300.83
594.515	20225.06
594.712	20417.57
594.908	20055.08
595.105	20225.06
595.302	19842.09
595.499	19749.93
595.696	19977.25
595.892	19725.35
596.089	19915.81
596.286	19659.82
596.482	19729.45
596.679	19557.42
596.876	19663.91
597.072	19668.01
597.269	19569.71
597.466	19133.49
597.662	19366.96
597.859	19278.9
598.055	19276.85
598.252	19201.07
598.448	18863.16
598.645	19293.23
598.841	18809.91
599.038	18922.55
599.234	18918.45
599.431	18756.66
599.627	18603.07
599.824	18785.33
600.02	18568.25
600.217	18816.05
600.413	18598.97
600.609	18621.5
600.806	18435.13
601.002	18201.66
601.198	18322.49
601.395	18066.5
601.591	17998.91
601.787	17808.45
601.984	17892.42
602.18	18293.82
602.376	18029.63
602.572	17646.66
602.769	17880.13
602.965	17704.01
603.161	17800.26
603.357	17544.27
603.553	17427.53
603.75	17730.63
603.946	17501.26
604.142	17677.38
604.338	17296.46
604.534	17392.72
604.73	17249.36
604.926	17085.52
605.122	17280.08
605.318	16929.88
605.514	16811.09
605.71	16852.05
605.906	17052.75
606.102	16850
606.298	16841.81
606.494	16708.69
606.69	16882.77
606.886	16680.02
607.082	16542.81
607.278	16364.64
607.474	16268.38
607.67	16655.45
607.866	16475.23
608.062	16450.65
608.257	16514.14
608.453	16587.86
608.649	16211.04
608.845	16188.51
609.041	16292.96
609.236	16045.15
609.432	15883.36
609.628	15985.76
609.824	15729.77
610.019	15723.62
610.215	15719.53
610.411	15656.04
610.606	15707.24
610.802	15574.12
610.998	15803.49
611.193	15803.49
611.389	15656.04
611.584	15461.48
611.78	15336.56
611.976	15385.71
612.171	15617.13
612.367	15502.44
612.562	15305.84
612.758	15101.04
612.953	15287.4
613.149	15502.44
613.344	15432.81
613.539	15471.72
613.735	15244.4
613.93	15281.26
614.126	15002.74
614.321	14988.4
614.517	15019.12
614.712	14947.44
614.907	14959.73
615.103	14726.26
615.298	14851.19
615.493	15070.32
615.688	14716.02
615.884	15033.46
616.079	14789.75
616.274	14984.3
616.47	14619.77
616.665	14634.1
616.86	14455.93
617.055	14527.61
617.25	14316.67
617.445	14486.65
617.641	14441.59
617.836	14347.39
618.031	14367.87
618.226	14462.07
618.421	14163.07
618.616	14400.63
618.811	14087.29
619.006	14165.12
619.201	13907.07
619.396	13929.6
619.591	13624.45
619.786	13806.72
619.981	13583.49
620.176	13702.28
620.371	13513.86
620.566	13599.88
620.761	13350.03
620.956	13794.43
621.151	13499.53
621.346	13462.66
621.541	13253.77
621.735	13366.41
621.93	12766.35
622.125	12934.29
622.32	12848.27
622.515	13134.99
622.709	12887.18
622.904	12999.82
623.099	12776.59
623.294	12741.78
623.488	12616.85
623.683	12772.5
623.878	12496.02
624.072	12416.15
624.267	12424.34
624.462	12168.35
624.656	12053.66
624.851	12354.71
625.046	11902.11
625.24	12119.2
625.435	11721.89
625.629	11912.35
625.824	11824.29
626.018	11822.24
626.213	11639.97
626.407	11459.75
626.602	11441.32
626.796	11646.12
626.991	11519.14
627.185	11218.09
627.38	11459.75
627.574	11359.4
627.768	11127.98
627.963	11158.7
628.157	11017.39
628.352	11130.03
628.546	10800.3
628.74	10935.47
628.935	10906.8
629.129	10998.96
629.323	10609.84
629.517	10556.6
629.712	10581.17
629.906	10511.54
630.1	10437.81
630.294	10579.12
630.489	10075.32
630.683	10452.15
630.877	10431.67
631.071	10237.11
631.265	10169.53
631.459	10128.57
631.653	10060.99
631.848	9974.97
632.042	9888.96
632.236	10159.29
632.43	9788.61
632.624	9868.48
632.818	9819.33
633.012	9745.6
633.206	9710.79
633.4	9706.69
633.594	9544.9
633.788	9526.47
633.982	9571.52
634.176	9424.07
634.369	9407.69
634.563	9229.51
634.757	9184.46
634.951	9131.21
635.145	9219.27
635.339	9260.23
635.533	8936.65
635.726	8897.74
635.92	9071.82
636.114	9041.1
636.308	8750.29
636.501	9061.58
636.695	8774.86
636.889	8746.19
637.083	8871.12
637.276	8531.16
637.47	8623.31
637.664	8434.9
637.857	8502.48
638.051	8518.87
638.244	8496.34
638.438	8230.1
638.632	8406.23
638.825	8303.83
639.019	8103.13
639.212	8301.78
639.406	8242.39
639.599	8008.92
639.793	8035.55
639.986	7963.87
640.18	7886.05
640.373	7894.24
640.567	7849.18
640.76	7791.84
640.954	7816.41
641.147	7584.99
641.34	7691.49
641.534	7515.36
641.727	7591.14
641.92	7652.58
642.114	7359.72
642.307	7560.42
642.5	7464.16
642.694	7388.39
642.887	7251.17
643.08	7318.76
643.273	7242.98
643.467	7335.14
643.66	7075.05
643.853	7214.31
644.046	7038.19
644.239	7062.76
644.432	6958.32
644.626	6925.55
644.819	6860.01
645.012	6898.92
645.205	6849.77
645.398	6817.01
645.591	6804.72
645.784	6520.05
645.977	6636.78
646.17	6444.27
646.363	6812.91
646.556	6403.32
646.749	6628.59
646.942	6350.07
647.135	6472.95
647.328	6495.47
647.521	6266.1
647.714	6321.4
647.907	6325.49
648.099	6325.49
648.292	6284.53
648.485	6239.48
648.678	6073.59
648.871	6110.46
649.064	5999.87
649.256	6003.96
649.449	5981.43
649.642	5954.81
649.835	5883.13
650.027	5764.35
650.22	5786.88
650.413	5760.25
650.605	5774.59
650.798	5760.25
650.991	5821.69
651.183	5776.64
651.376	5573.89
651.568	5541.12
651.761	5649.66
651.954	5395.71
652.146	5434.63
652.339	5604.61
652.531	5483.78
652.724	5309.7
652.916	5319.94
653.109	5293.32
653.301	5383.43
653.494	5375.24
653.686	5149.96
653.879	5170.44
654.071	5084.42
654.263	5246.21
654.456	5293.32
654.648	5201.16
654.84	5084.42
655.033	5004.55
655.225	4807.95
655.417	5029.13
655.61	4969.74
655.802	4965.64
655.994	4799.76
656.186	5027.08
656.379	4943.11
656.571	4818.19
656.763	4795.66
656.955	4734.22
657.148	4769.04
657.34	4828.43
657.532	4762.89
657.724	4463.89
657.916	4617.49
658.108	4666.64
658.3	4588.82
658.492	4572.43
658.684	4443.41
658.876	4406.55
659.068	4515.09
659.26	4502.8
659.452	4449.55
659.644	4431.12
659.836	4310.29
660.028	4314.39
660.22	4242.71
660.412	4201.75
660.604	4322.58
660.796	4160.79
660.988	4203.8
661.18	4306.2
661.372	4164.89
661.563	4246.8
661.755	4140.31
661.947	4166.93
662.139	4066.58
662.331	4019.48
662.522	3984.66
662.714	3984.66
662.906	3994.9
663.097	3861.79
663.289	3915.03
663.481	3816.73
663.673	3769.63
663.864	3874.07
664.056	3738.91
664.247	3826.97
664.439	3763.48
664.631	3656.99
664.822	3743
665.014	3611.93
665.205	3786.01
665.397	3636.51
665.588	3757.34
665.78	3716.38
665.971	3673.37
666.163	3583.26
666.354	3706.14
666.546	3597.6
666.737	3706.14
666.929	3530.02
667.12	3609.89
667.311	3472.67
667.503	3491.1
667.694	3378.47
667.885	3441.95
668.077	3441.95
668.268	3398.95
668.459	3411.23
668.651	3384.61
668.842	3306.79
669.033	3321.12
669.224	3323.17
669.416	3400.99
669.607	3185.96
669.798	3243.3
669.989	3204.39
670.18	3233.06
670.371	3255.59
670.563	3255.59
670.754	3145
670.945	3278.12
671.136	3040.55
671.327	3175.72
671.518	3192.1
671.709	3142.95
671.9	3138.85
672.091	3056.93
672.282	3083.56
672.473	3030.31
672.664	3026.22
672.855	2987.3
673.046	3038.5
673.237	2956.58
673.428	2938.15
673.619	3028.26
673.809	2968.87
674	2958.63
674.191	3091.75
674.382	2991.4
674.573	2942.25
674.764	2932.01
674.954	2782.51
675.145	2905.38
675.336	2829.61
675.527	2786.6
675.717	2815.27
675.908	2815.27
676.099	2772.27
676.289	2800.94
676.48	2889
676.671	2684.2
676.861	2868.52
677.052	2833.71
677.243	2827.56
677.433	2735.4
677.624	2694.44
677.814	2774.31
678.005	2626.86
678.195	2649.39
678.386	2753.84
678.576	2657.58
678.767	2786.6
678.957	2702.64
679.148	2598.19
679.338	2745.64
679.529	2637.1
679.719	2762.03
679.909	2620.72
680.1	2622.77
680.29	2563.37
680.481	2587.95
680.671	2518.32
680.861	2647.34
681.052	2575.66
681.242	2594.09
681.432	2665.77
681.622	2493.74
681.813	2503.98
682.003	2565.42
682.193	2614.57
682.383	2522.41
682.573	2559.28
682.764	2573.61
682.954	2616.62
683.144	2518.32
683.334	2563.37
683.524	2491.7
683.714	2420.02
683.904	2405.68
684.094	2393.39
684.284	2499.89
684.474	2546.99
684.664	2481.46
684.854	2579.76
685.044	2434.35
685.234	2448.69
685.424	2438.45
685.614	2436.4
685.804	2442.54
685.994	2440.5
686.184	2436.4
686.374	2432.3
686.564	2350.39
686.753	2397.49
686.943	2448.69
687.133	2409.78
687.323	2385.2
687.513	2411.82
687.702	2403.63
687.892	2241.84
688.082	2321.71
688.272	2415.92
688.461	2372.91
688.651	2315.57
688.841	2303.28
689.03	2360.63
689.22	2329.91
689.41	2403.63
689.599	2295.09
689.789	2336.05
689.979	2387.25
690.168	2225.46
690.358	2247.99
690.547	2290.99
690.737	2280.75
690.926	2336.05
691.116	2395.44
691.305	2317.62
691.495	2313.52
691.684	2176.31
691.874	2338.1
692.063	2200.88
692.252	2270.51
692.442	2202.93
692.631	2360.63
692.82	2288.95
693.01	2254.13
693.199	2213.17
693.388	2211.12
693.578	2172.21
693.767	2264.37
693.956	2166.07
694.146	2305.33
694.335	2161.97
694.524	2215.22
694.713	2188.6
694.902	2393.39
695.092	2268.47
695.281	2319.67
695.47	2243.89
695.659	2155.83
695.848	2155.83
696.037	2317.62
696.226	2256.18
696.415	2229.56
696.604	2284.85
696.793	2290.99
696.982	2260.27
697.171	2258.23
697.36	2293.04
697.549	2190.64
697.738	2155.83
697.927	2305.33
698.116	2258.23
698.305	2164.02
698.494	2243.89
698.683	2174.26
698.872	2235.7
699.061	2303.28
699.25	2149.68
699.438	2213.17
699.627	2227.51
699.816	2307.38
700.005	2350.39
700.193	2260.27
700.382	2104.63
700.571	2209.08
700.76	2286.9
700.948	2153.78
701.137	2161.97
701.326	2217.27
701.514	2129.2
701.703	2243.89
701.892	2159.92
702.08	2155.83
702.269	2090.29
702.457	2233.65
702.646	2235.7
702.834	2157.88
703.023	2209.08
703.212	2168.12
703.4	2098.49
703.589	2098.49
703.777	2231.6
703.965	2125.11
704.154	2055.48
704.342	2155.83
704.531	2188.6
704.719	2096.44
704.907	2184.5
705.096	2196.79
705.284	2176.31
705.472	2172.21
705.661	2061.62
705.849	2149.68
706.037	2010.42
706.226	2090.29
706.414	2090.29
706.602	2164.02
706.79	2012.47
706.979	2106.68
707.167	2039.09
707.355	2045.24
707.543	2121.01
707.731	2067.77
707.919	2135.35
708.107	2010.42
708.296	2112.82
708.484	1985.85
708.672	2067.77
708.86	2063.67
709.048	2051.38
709.236	2002.23
709.424	1922.36
709.612	2030.9
709.8	1991.99
709.988	2045.24
710.176	1936.7
710.364	2084.15
710.551	1946.94
710.739	1996.09
710.927	2018.61
711.115	2032.95
711.303	1940.79
711.491	2063.67
711.679	2045.24
711.866	2008.37
712.054	1957.18
712.242	1803.58
712.43	1901.88
712.617	2002.23
712.805	1889.59
712.993	1860.92
713.181	1881.4
713.368	1912.12
713.556	1953.08
713.744	1834.3
713.931	2041.14
714.119	1793.34
714.306	1867.06
714.494	1971.51
714.682	1830.2
714.869	1838.39
715.057	2000.18
715.244	1807.67
715.432	1840.44
715.619	1830.2
715.807	1840.44
715.994	1752.38
716.182	1815.87
716.369	1754.43
716.556	1754.43
716.744	1832.25
716.931	1791.29
717.119	1744.19
717.306	1744.19
717.493	1738.04
717.681	1727.8
717.868	1744.19
718.055	1809.72
718.242	1701.18
718.43	1713.47
718.617	1727.8
718.804	1662.27
718.991	1785.15
719.179	1686.84
719.366	1631.55
719.553	1684.8
719.74	1781.05
719.927	1705.28
720.114	1709.37
720.301	1621.31
720.488	1664.32
720.676	1580.35
720.863	1723.71
721.05	1707.32
721.237	1609.02
721.424	1566.01
721.611	1678.65
721.798	1697.08
721.985	1594.68
722.172	1537.34
722.358	1660.22
722.545	1588.54
722.732	1633.6
722.919	1619.26
723.106	1566.01
723.293	1600.83
723.48	1506.62
723.667	1451.33
723.853	1488.19
724.04	1631.55
724.227	1525.05
724.414	1602.88
724.6	1520.96
724.787	1510.72
724.974	1570.11
725.161	1527.1
725.347	1467.71
725.534	1557.82
725.72	1426.75
725.907	1555.77
726.094	1510.72
726.28	1516.86
726.467	1449.28
726.653	1455.42
726.84	1496.38
727.027	1555.77
727.213	1373.5
727.4	1486.14
727.586	1465.66
727.773	1455.42
727.959	1471.81
728.145	1414.46
728.332	1396.03
728.518	1447.23
728.705	1449.28
728.891	1473.85
729.077	1549.63
729.264	1418.56
729.45	1447.23
729.636	1514.81
729.823	1379.65
730.009	1414.46
730.195	1350.98
730.382	1377.6
730.568	1359.17
730.754	1344.83
730.94	1406.27
731.126	1348.93
731.313	1381.7
731.499	1262.91
731.685	1377.6
731.871	1344.83
732.057	1291.59
732.243	1443.14
732.429	1359.17
732.615	1283.39
732.801	1402.18
732.987	1318.21
733.173	1334.59
733.359	1322.31
733.545	1342.78
733.731	1434.94
733.917	1312.07
734.103	1307.97
734.289	1377.6
734.475	1246.53
734.661	1336.64
734.847	1346.88
735.033	1244.48
735.219	1357.12
735.404	1238.34
735.59	1160.52
735.776	1099.08
735.962	1269.06
736.148	1287.49
736.333	1285.44
736.519	1289.54
736.705	1262.91
736.89	1240.39
737.076	1254.72
737.262	1183.04
737.447	1140.04
737.633	1264.96
737.819	1350.98
738.004	1156.42
738.19	1226.05
738.375	1185.09
738.561	1154.37
738.747	1183.04
738.932	1146.18
739.118	1246.53
739.303	1228.1
739.489	1244.48
739.674	1137.99
739.859	1158.47
740.045	1133.89
740.23	1246.53
740.416	1258.82
740.601	1105.22
740.786	1199.43
740.972	1170.76
741.157	1178.95
741.342	1185.09
741.528	1207.62
741.713	1094.98
741.898	1084.74
742.084	994.63
742.269	1178.95
742.454	1056.07
742.639	1160.52
742.824	1129.8
743.01	1097.03
743.195	1176.9
743.38	1066.31
743.565	1047.88
743.75	1125.7
743.935	1078.6
744.12	1117.51
744.305	1029.45
744.49	1080.64
744.675	1144.13
744.86	1023.3
745.045	1019.21
745.23	1084.74
745.415	1015.11
745.6	1015.11
745.785	945.48
745.97	1000.77
746.155	1008.97
746.34	1015.11
746.525	933.19
746.71	1039.69
746.895	986.44
747.079	1017.16
747.264	957.77
747.449	961.86
747.634	865.61
747.819	910.66
748.003	1051.97
748.188	886.09
748.373	939.33
748.557	961.86
748.742	927.05
748.927	884.04
749.111	810.31
749.296	884.04
749.481	943.43
749.665	888.14
749.85	980.29
750.034	933.19
750.219	896.33
750.404	875.85
750.588	900.42
750.773	793.93
750.957	890.18
751.141	908.62
751.326	865.61
751.51	787.79
751.695	812.36
751.879	879.94
752.064	820.55
752.248	822.6
752.432	795.98
752.617	877.9
752.801	802.12
752.985	814.41
753.17	718.15
753.354	865.61
753.538	783.69
753.722	836.94
753.907	738.63
754.091	847.18
754.275	750.92
754.459	744.78
754.643	783.69
754.828	757.07
755.012	748.87
755.196	755.02
755.38	732.49
755.564	787.79
755.748	675.15
755.932	716.11
756.116	732.49
756.3	726.35
756.484	689.48
756.668	732.49
756.852	677.19
757.036	716.11
757.22	658.76
757.404	750.92
757.588	628.04
757.772	671.05
757.956	638.28
758.14	607.56
758.323	660.81
758.507	636.24
758.691	669
758.875	597.32
759.059	660.81
759.242	566.6
759.426	660.81
759.61	572.75
759.794	574.8
759.977	621.9
760.161	640.33
760.345	642.38
760.528	617.8
760.712	585.04
760.895	634.19
761.079	695.63
761.263	589.13
761.446	607.56
761.63	542.03
761.813	574.8
761.997	617.8
762.18	566.6
762.364	593.23
762.547	570.7
762.731	554.32
762.914	582.99
763.098	537.93
763.281	568.65
763.464	619.85
763.648	519.5
763.831	535.89
764.015	623.95
764.198	550.22
764.381	599.37
764.564	599.37
764.748	533.84
764.931	572.75
765.114	523.6
765.297	533.84
765.481	601.42
765.664	525.65
765.847	472.4
766.03	587.08
766.213	478.54
766.397	572.75
766.58	494.93
766.763	494.93
766.946	560.46
767.129	496.97
767.312	542.03
767.495	492.88
767.678	521.55
767.861	496.97
768.044	533.84
768.227	593.23
768.41	529.74
768.593	531.79
768.776	556.36
768.959	453.97
769.142	548.17
769.324	464.21
769.507	443.73
769.69	542.03
769.873	482.64
770.056	519.5
770.239	548.17
770.421	521.55
770.604	451.92
770.787	443.73
770.97	433.49
771.152	458.06
771.335	468.3
771.518	556.36
771.7	453.97
771.883	425.29
772.066	474.45
772.248	546.12
772.431	519.5
772.613	456.01
772.796	503.12
772.978	533.84
773.161	505.17
773.343	464.21
773.526	527.69
773.708	478.54
773.891	462.16
774.073	494.93
774.256	458.06
774.438	507.21
774.621	460.11
774.803	472.4
774.985	406.86
775.168	449.87
775.35	453.97
775.532	406.86
775.715	509.26
775.897	384.34
776.079	482.64
776.261	496.97
776.444	378.19
776.626	392.53
776.808	363.86
776.99	404.82
777.173	447.82
777.355	365.9
777.537	367.95
777.719	419.15
777.901	429.39
778.083	447.82
778.265	347.47
778.447	361.81
778.629	333.14
778.811	337.23
778.993	324.94
779.175	378.19
779.357	355.66
779.539	269.65
779.721	419.15
779.903	367.95
780.085	318.8
780.267	347.47
780.449	359.76
780.631	388.43
780.812	294.22
780.994	333.14
781.176	361.81
781.358	374.1
781.54	318.8
781.721	357.71
781.903	257.36
782.085	261.46
782.267	308.56
782.448	341.33
782.63	273.75
782.812	310.61
782.993	326.99
783.175	310.61
783.357	296.27
783.538	302.42
783.72	353.62
783.901	273.75
784.083	337.23
784.264	292.18
784.446	279.89
784.627	376.14
784.809	255.31
784.99	247.12
785.172	240.98
785.353	304.46
785.535	243.03
785.716	318.8
785.897	259.41
786.079	308.56
786.26	261.46
786.441	304.46
786.623	286.03
786.804	345.42
786.985	288.08
787.167	261.46
787.348	271.7
787.529	257.36
787.71	210.26
787.891	331.09
788.073	312.66
788.254	296.27
788.435	228.69
788.616	216.4
788.797	173.39
788.978	259.41
789.159	226.64
789.34	281.94
789.522	200.02
789.703	204.11
789.884	193.87
790.065	212.31
790.246	206.16
790.427	179.54
790.607	208.21
790.788	249.17
790.969	212.31
791.15	183.63
791.331	220.5
791.512	177.49
791.693	111.96
791.874	171.35
792.054	261.46
792.235	218.45
792.416	283.98
792.597	240.98
792.778	288.08
792.958	154.96
793.139	236.88
793.32	185.68
793.5	195.92
793.681	238.93
793.862	238.93
794.042	193.87
794.223	136.53
794.404	154.96
794.584	144.72
794.765	159.06
794.945	175.44
795.126	171.35
795.306	89.43
795.487	181.59
795.667	208.21
795.848	269.65
796.028	150.87
796.209	267.6
796.389	171.35
796.57	204.11
796.75	189.78
796.93	191.83
797.111	165.2
797.291	220.5
797.471	148.82
797.652	224.59
797.832	165.2
798.012	206.16
798.192	150.87
798.373	224.59
798.553	111.96
798.733	165.2
798.913	161.11
799.093	206.16
799.274	161.11
799.454	116.05
799.634	181.59
799.814	197.97
799.994	259.41
800.174	169.3
800.354	68.95
800.534	134.48
800.714	105.81
800.894	200.02
801.074	191.83
801.254	167.25
801.434	165.2
801.614	177.49
801.794	183.63
801.974	410.96
802.154	144.72
802.334	132.44
802.514	132.44
802.693	130.39
802.873	89.43
803.053	144.72
803.233	64.85
803.413	173.39
803.592	167.25
803.772	105.81
803.952	66.9
804.131	195.92
804.311	177.49
804.491	177.49
804.67	93.52
804.85	128.34
805.03	93.52
805.209	157.01
805.389	152.91
805.568	132.44
805.748	144.72
805.928	148.82
806.107	85.33
806.287	179.54
806.466	109.91
806.646	183.63
806.825	144.72
807.004	77.14
807.184	152.91
807.363	138.58
807.543	167.25
807.722	116.05
807.901	120.15
808.081	60.76
808.26	83.28
808.439	148.82
808.619	124.24
808.798	91.48
808.977	152.91
809.156	71
809.336	101.72
809.515	103.76
809.694	58.71
809.873	91.48
810.052	83.28
810.231	138.58
810.411	179.54
810.59	60.76
810.769	68.95
810.948	114
811.127	87.38
811.306	114
811.485	62.8
811.664	103.76
811.843	109.91
812.022	111.96
812.201	148.82
812.38	130.39
812.559	101.72
812.737	130.39
812.916	101.72
813.095	185.68
813.274	81.24
813.453	118.1
813.632	93.52
813.811	95.57
813.989	64.85
814.168	109.91
814.347	48.47
814.526	138.58
814.704	97.62
814.883	118.1
815.062	97.62
815.24	73.04
815.419	68.95
815.598	64.85
815.776	40.28
815.955	91.48
816.133	109.91
816.312	140.63
816.49	34.13
816.669	44.37
816.847	48.47
817.026	50.52
817.204	54.61
817.383	40.28
817.561	85.33
817.74	105.81
817.918	101.72
818.097	140.63
818.275	97.62
818.453	75.09
818.632	103.76
818.81	77.14
818.988	81.24
819.167	58.71
819.345	107.86
819.523	87.38
819.701	71
819.879	114
820.058	54.61
820.236	56.66
820.414	124.24
820.592	87.38
820.77	48.47
820.948	91.48
821.127	-8.87
821.305	42.32
821.483	30.04
821.661	140.63
821.839	58.71
822.017	85.33
822.195	89.43
822.373	126.29
822.551	15.7
822.729	66.9
822.907	126.29
823.085	122.2
823.262	91.48
823.44	120.15
823.618	66.9
823.796	36.18
823.974	62.8
824.152	46.42
824.329	93.52
824.507	44.37
824.685	64.85
824.863	111.96
825.04	79.19
825.218	79.19
825.396	81.24
825.574	56.66
825.751	64.85
825.929	130.39
826.107	79.19
826.284	54.61
826.462	85.33
826.639	101.72
826.817	56.66
826.994	3.41
827.172	21.84
827.349	83.28
827.527	95.57
827.704	44.37
827.882	34.13
828.059	25.94
828.237	-19.11
828.414	75.09
828.591	23.89
828.769	103.76
828.946	89.43
829.124	38.23
829.301	66.9
829.478	23.89
829.655	97.62
829.833	50.52
830.01	38.23
830.187	36.18
830.364	114
830.542	81.24
830.719	77.14
830.896	48.47
831.073	107.86
831.25	142.68
831.427	-6.83
831.604	73.04
831.782	-45.74
831.959	105.81
832.136	-6.83
832.313	103.76
832.49	-2.73
832.667	58.71
832.844	48.47
833.021	105.81
833.198	44.37
833.374	52.56
833.551	87.38
833.728	44.37
833.905	46.42
834.082	124.24
834.259	40.28
834.436	66.9
834.612	19.8
834.789	34.13
834.966	23.89
835.143	52.56
835.319	77.14
835.496	95.57
835.673	56.66
835.85	44.37
836.026	103.76
836.203	83.28
836.38	34.13
836.556	-15.02
836.733	52.56
836.909	58.71
837.086	58.71
837.262	-10.92
837.439	103.76
837.616	27.99
837.792	3.41
837.968	44.37
838.145	66.9
838.321	73.04
838.498	13.65
838.674	103.76
838.851	19.8
839.027	75.09
839.203	50.52
839.38	23.89
839.556	30.04
839.732	7.51
839.909	5.46
840.085	9.56
840.261	36.18
840.437	58.71
840.614	101.72
840.79	-8.87
840.966	32.08
841.142	62.8
841.318	71
841.494	34.13
841.671	68.95
841.847	54.61
842.023	66.9
842.199	34.13
842.375	-0.68
842.551	44.37
842.727	95.57
842.903	-0.68
843.079	46.42
843.255	93.52
843.431	5.46
843.607	9.56
843.783	13.65
843.959	25.94
844.134	66.9
844.31	89.43
844.486	60.76
844.662	32.08
844.838	97.62
845.013	52.56
845.189	62.8
845.365	3.41
845.541	-8.87
845.716	9.56
845.892	23.89
846.068	-4.78
846.244	64.85
846.419	58.71
846.595	40.28
846.77	46.42
846.946	66.9
847.122	60.76
847.297	9.56
847.473	44.37
847.648	120.15
847.824	15.7
847.999	23.89
848.175	-8.87
848.35	40.28
848.526	36.18
848.701	71
848.876	9.56
849.052	19.8
849.227	1.37
849.403	36.18
849.578	36.18
849.753	25.94
849.929	50.52
850.104	7.51
850.279	25.94
850.454	42.32
850.63	25.94
850.805	46.42
850.98	42.32
851.155	27.99
851.33	83.28
851.505	23.89
851.681	83.28
851.856	36.18
852.031	58.71
852.206	36.18
852.381	-0.68
852.556	-8.87
852.731	83.28
852.906	23.89
853.081	52.56
853.256	7.51
853.431	34.13
853.606	50.52
853.781	42.32
853.956	13.65
854.131	42.32
854.305	21.84
854.48	30.04
854.655	50.52
854.83	83.28
855.005	56.66
855.18	-15.02
855.354	-10.92
855.529	42.32
855.704	42.32
855.879	38.23
856.053	71
856.228	-15.02
856.403	46.42
856.577	13.65
856.752	-43.69
856.926	30.04
857.101	46.42
857.276	60.76
857.45	52.56
857.625	50.52
857.799	-15.02
857.974	1.37
858.148	-21.16
858.323	40.28
858.497	-55.98
858.672	60.76
858.846	-2.73
859.02	48.47
859.195	-41.64
859.369	1.37
859.543	30.04
859.718	36.18
859.892	42.32
860.066	3.41
860.241	42.32
860.415	-23.21
860.589	-43.69
860.763	-0.68
860.938	19.8
861.112	64.85
861.286	73.04
861.46	54.61
861.634	-43.69
861.808	-4.78
861.982	-47.79
862.157	52.56
862.331	73.04
862.505	23.89
862.679	27.99
862.853	64.85
863.027	27.99
863.201	64.85
863.375	21.84
863.549	73.04
863.722	13.65
863.896	95.57
864.07	40.28
864.244	50.52
864.418	-10.92
864.592	60.76
864.766	34.13
864.939	-43.69
865.113	-4.78
865.287	159.06
865.461	25.94
865.634	44.37
865.808	48.47
865.982	-33.45
866.156	-29.35
866.329	30.04
866.503	-6.83
866.676	79.19
866.85	9.56
867.024	25.94
867.197	-8.87
867.371	27.99
867.544	81.24
867.718	19.8
867.891	32.08
868.065	25.94
868.238	36.18
868.412	-17.07
868.585	23.89
868.759	-2.73
868.932	13.65
869.105	-19.11
869.279	64.85
869.452	44.37
869.625	11.61
869.799	9.56
869.972	25.94
870.145	66.9
870.319	-6.83
870.492	1.37
870.665	15.7
870.838	50.52
871.011	-15.02
871.185	-8.87
871.358	-35.5
871.531	25.94
871.704	-8.87
871.877	30.04
872.05	23.89
872.223	23.89
872.396	11.61
872.569	-19.11
872.742	21.84
872.915	54.61
873.088	71
873.261	-49.83
873.434	95.57
873.607	9.56
873.78	15.7
873.953	44.37
874.126	-4.78
874.299	-2.73
874.471	15.7
874.644	56.66
874.817	36.18
874.99	120.15
875.163	-35.5
875.335	-12.97
875.508	50.52
875.681	-43.69
875.853	54.61
876.026	23.89
876.199	-37.55
876.371	30.04
876.544	-4.78
876.717	30.04
876.889	11.61
877.062	42.32
877.234	-21.16
877.407	19.8
877.579	-6.83
877.752	42.32
877.924	-0.68
878.097	-8.87
878.269	-4.78
878.442	42.32
878.614	52.56
878.786	89.43
878.959	13.65
879.131	-12.97
879.303	58.71
879.476	-41.64
879.648	32.08
879.82	60.76
879.993	23.89
880.165	71
880.337	15.7
880.509	-68.27
880.681	52.56
880.854	27.99
881.026	32.08
881.198	11.61
881.37	21.84
881.542	34.13
881.714	54.61
881.886	81.24
882.058	7.51
882.23	25.94
882.402	-2.73
882.574	9.56
882.746	-17.07
882.918	46.42
883.09	66.9
883.262	38.23
883.434	-31.4
883.606	25.94
883.778	-17.07
883.95	66.9
884.122	75.09
884.293	36.18
884.465	-23.21
884.637	-51.88
884.809	-31.4
884.98	75.09
885.152	-107.18
885.324	15.7
885.496	42.32
885.667	23.89
885.839	-10.92
886.011	32.08
886.182	52.56
886.354	38.23
886.525	60.76
886.697	66.9
886.869	5.46
887.04	38.23
887.212	-35.5
887.383	64.85
887.555	42.32
887.726	17.75
887.897	48.47
888.069	32.08
888.24	-8.87
888.412	85.33
888.583	11.61
888.754	56.66
888.926	-47.79
889.097	9.56
889.268	-60.07
889.44	5.46
889.611	-12.97
889.782	58.71
889.953	-55.98
890.125	40.28
890.296	68.95
890.467	71
890.638	27.99
890.809	40.28
890.98	-23.21
891.151	77.14
891.323	52.56
891.494	9.56
891.665	15.7
891.836	-2.73
892.007	9.56
892.178	42.32
892.349	32.08
892.52	5.46
892.691	-21.16
892.862	23.89
893.032	-23.21
893.203	50.52
893.374	-8.87
893.545	-29.35
893.716	75.09
893.887	-27.31
894.057	46.42
894.228	-4.78
894.399	-33.45
894.57	19.8
894.74	-6.83
894.911	-10.92
895.082	-8.87
895.253	46.42
895.423	34.13
895.594	83.28
895.764	-64.17
895.935	9.56
896.106	-6.83
896.276	-0.68
896.447	34.13
896.617	15.7
896.788	-27.31
896.958	19.8
897.129	15.7
897.299	77.14
897.47	42.32
897.64	30.04
897.81	-0.68
897.981	19.8
898.151	-25.26
898.322	-21.16
898.492	-29.35
898.662	42.32
898.832	34.13
899.003	13.65
899.173	32.08
899.343	58.71
899.513	25.94
