Data from USB4F104151__287__14-02-43-277.txt Node

Date: Thu Mar 13 14:02:43 EDT 2025
User: louis
Spectrometer: USB4F10415
Trigger mode: 4
Integration Time (sec): 1.000000E-2
Scans to average: 1
Electric dark correction enabled: true
Nonlinearity correction enabled: false
Boxcar width: 0
XAxis mode: Wavelengths
Number of Pixels in Spectrum: 3648
>>>>>Begin Spectral Data<<<<<
178.204	4.44
178.424	4.44
178.644	4.44
178.864	-48.81
179.084	-11.95
179.304	10.58
179.524	2.39
179.744	78.16
179.964	84.31
180.184	-9.9
180.404	-61.1
180.624	-59.05
180.844	29.01
181.064	-38.57
181.283	-20.14
181.503	-5.8
181.723	-9.9
181.943	-30.38
182.163	84.31
182.383	-26.28
182.602	63.83
182.822	24.92
183.042	94.55
183.262	29.01
183.482	-32.43
183.701	-11.95
183.921	74.07
184.141	22.87
184.361	10.58
184.58	72.02
184.8	49.49
185.02	16.73
185.239	55.64
185.459	18.77
185.679	37.2
185.898	-52.91
186.118	59.73
186.338	39.25
186.557	59.73
186.777	49.49
186.997	80.21
187.216	-32.43
187.436	10.58
187.655	10.58
187.875	6.49
188.095	33.11
188.314	24.92
188.534	8.53
188.753	-13.99
188.973	4.44
189.192	86.36
189.412	10.58
189.631	90.45
189.851	37.2
190.07	-20.14
190.29	4.44
190.509	69.97
190.729	-26.28
190.948	69.97
191.168	80.21
191.387	45.4
191.607	10.58
191.826	51.54
192.045	16.73
192.265	39.25
192.484	67.92
192.704	59.73
192.923	57.68
193.142	67.92
193.362	57.68
193.581	-3.75
193.8	-16.04
194.02	37.2
194.239	6.49
194.458	8.53
194.678	-5.8
194.897	65.88
195.116	123.22
195.335	29.01
195.555	18.77
195.774	35.16
195.993	74.07
196.212	55.64
196.432	57.68
196.651	-16.04
196.87	74.07
197.089	88.4
197.308	67.92
197.528	37.2
197.747	84.31
197.966	61.78
198.185	61.78
198.404	-32.43
198.623	65.88
198.842	4.44
199.062	24.92
199.281	41.3
199.5	26.96
199.719	0.34
199.938	33.11
200.157	94.55
200.376	0.34
200.595	82.26
200.814	12.63
201.033	-18.09
201.252	49.49
201.471	-40.62
201.69	86.36
201.909	35.16
202.128	-18.09
202.347	106.84
202.566	-5.8
202.785	-9.9
203.004	-7.85
203.223	-16.04
203.442	12.63
203.661	-52.91
203.879	57.68
204.098	33.11
204.317	69.97
204.536	67.92
204.755	39.25
204.974	39.25
205.193	121.17
205.411	86.36
205.63	-5.8
205.849	-7.85
206.068	0.34
206.287	20.82
206.505	37.2
206.724	78.16
206.943	45.4
207.162	18.77
207.381	4.44
207.599	8.53
207.818	18.77
208.037	37.2
208.255	37.2
208.474	94.55
208.693	31.06
208.911	57.68
209.13	6.49
209.349	24.92
209.567	-40.62
209.786	98.64
210.005	49.49
210.223	49.49
210.442	-7.85
210.661	63.83
210.879	94.55
211.098	49.49
211.316	67.92
211.535	33.11
211.753	69.97
211.972	76.12
212.191	0.34
212.409	72.02
212.628	33.11
212.846	108.88
213.065	24.92
213.283	8.53
213.502	-16.04
213.72	24.92
213.938	49.49
214.157	43.35
214.375	37.2
214.594	8.53
214.812	12.63
215.031	53.59
215.249	26.96
215.467	-16.04
215.686	26.96
215.904	67.92
216.122	57.68
216.341	74.07
216.559	45.4
216.778	41.3
216.996	104.79
217.214	-18.09
217.432	72.02
217.651	41.3
217.869	43.35
218.087	-48.81
218.306	35.16
218.524	14.68
218.742	24.92
218.96	110.93
219.179	82.26
219.397	-36.52
219.615	90.45
219.833	12.63
220.051	-28.33
220.27	53.59
220.488	119.12
220.706	61.78
220.924	53.59
221.142	8.53
221.36	6.49
221.578	59.73
221.796	2.39
222.015	8.53
222.233	37.2
222.451	41.3
222.669	33.11
222.887	82.26
223.105	-13.99
223.323	-3.75
223.541	90.45
223.759	4.44
223.977	94.55
224.195	29.01
224.413	16.73
224.631	29.01
224.849	-52.91
225.067	69.97
225.285	55.64
225.503	-11.95
225.721	51.54
225.939	49.49
226.157	92.5
226.375	115.03
226.592	41.3
226.81	24.92
227.028	55.64
227.246	82.26
227.464	-46.76
227.682	37.2
227.9	33.11
228.117	29.01
228.335	-16.04
228.553	49.49
228.771	8.53
228.989	94.55
229.206	0.34
229.424	59.73
229.642	-34.47
229.86	16.73
230.077	29.01
230.295	106.84
230.513	-42.67
230.731	31.06
230.948	49.49
231.166	16.73
231.384	18.77
231.601	33.11
231.819	8.53
232.037	82.26
232.254	51.54
232.472	37.2
232.689	-13.99
232.907	0.34
233.125	16.73
233.342	51.54
233.56	49.49
233.777	49.49
233.995	31.06
234.213	10.58
234.43	24.92
234.648	78.16
234.865	4.44
235.083	102.74
235.3	115.03
235.518	78.16
235.735	22.87
235.953	14.68
236.17	16.73
236.388	123.22
236.605	67.92
236.822	57.68
237.04	57.68
237.257	-16.04
237.475	12.63
237.692	151.89
237.909	26.96
238.127	123.22
238.344	16.73
238.562	45.4
238.779	2.39
238.996	57.68
239.214	-69.29
239.431	76.12
239.648	-13.99
239.865	51.54
240.083	96.6
240.3	4.44
240.517	-16.04
240.735	51.54
240.952	43.35
241.169	18.77
241.386	57.68
241.603	65.88
241.821	-18.09
242.038	-3.75
242.255	88.4
242.472	72.02
242.689	-36.52
242.907	41.3
243.124	59.73
243.341	12.63
243.558	78.16
243.775	39.25
243.992	-5.8
244.209	8.53
244.426	14.68
244.643	88.4
244.86	18.77
245.078	74.07
245.295	-52.91
245.512	26.96
245.729	4.44
245.946	18.77
246.163	24.92
246.38	53.59
246.597	55.64
246.814	16.73
247.031	90.45
247.248	43.35
247.464	-13.99
247.681	59.73
247.898	20.82
248.115	31.06
248.332	-38.57
248.549	123.22
248.766	31.06
248.983	65.88
249.2	41.3
249.417	57.68
249.633	-26.28
249.85	26.96
250.067	74.07
250.284	59.73
250.501	24.92
250.717	82.26
250.934	76.12
251.151	41.3
251.368	24.92
251.585	0.34
251.801	8.53
252.018	24.92
252.235	12.63
252.451	72.02
252.668	65.88
252.885	16.73
253.102	51.54
253.318	51.54
253.535	78.16
253.752	-3.75
253.968	26.96
254.185	-24.23
254.401	74.07
254.618	-30.38
254.835	-13.99
255.051	69.97
255.268	16.73
255.484	-5.8
255.701	26.96
255.917	18.77
256.134	33.11
256.351	102.74
256.567	31.06
256.784	-5.8
257	100.69
257.217	41.3
257.433	86.36
257.65	-18.09
257.866	33.11
258.082	57.68
258.299	41.3
258.515	26.96
258.732	41.3
258.948	78.16
259.165	37.2
259.381	59.73
259.597	0.34
259.814	59.73
260.03	33.11
260.246	4.44
260.463	12.63
260.679	14.68
260.895	-3.75
261.112	74.07
261.328	61.78
261.544	69.97
261.761	94.55
261.977	65.88
262.193	74.07
262.409	33.11
262.626	59.73
262.842	31.06
263.058	33.11
263.274	82.26
263.49	35.16
263.707	-18.09
263.923	33.11
264.139	69.97
264.355	-1.71
264.571	10.58
264.787	94.55
265.004	53.59
265.22	20.82
265.436	10.58
265.652	8.53
265.868	78.16
266.084	33.11
266.3	84.31
266.516	67.92
266.732	33.11
266.948	53.59
267.164	37.2
267.38	24.92
267.596	63.83
267.812	67.92
268.028	84.31
268.244	18.77
268.46	14.68
268.676	-75.43
268.892	20.82
269.108	35.16
269.324	49.49
269.54	-13.99
269.756	39.25
269.972	6.49
270.188	10.58
270.403	-28.33
270.619	22.87
270.835	53.59
271.051	43.35
271.267	84.31
271.483	8.53
271.698	-7.85
271.914	106.84
272.13	2.39
272.346	94.55
272.562	37.2
272.777	84.31
272.993	51.54
273.209	74.07
273.425	41.3
273.64	133.46
273.856	72.02
274.072	-13.99
274.287	65.88
274.503	4.44
274.719	67.92
274.934	90.45
275.15	-61.1
275.366	106.84
275.581	63.83
275.797	43.35
276.012	2.39
276.228	84.31
276.444	-16.04
276.659	61.78
276.875	-11.95
277.09	33.11
277.306	2.39
277.521	115.03
277.737	90.45
277.952	76.12
278.168	31.06
278.383	4.44
278.599	92.5
278.814	18.77
279.03	-38.57
279.245	59.73
279.461	-11.95
279.676	29.01
279.892	43.35
280.107	74.07
280.322	112.98
280.538	8.53
280.753	14.68
280.969	82.26
281.184	65.88
281.399	57.68
281.615	92.5
281.83	-7.85
282.045	18.77
282.26	-3.75
282.476	51.54
282.691	-13.99
282.906	53.59
283.122	67.92
283.337	51.54
283.552	16.73
283.767	24.92
283.983	53.59
284.198	69.97
284.413	84.31
284.628	74.07
284.843	20.82
285.058	4.44
285.274	41.3
285.489	-18.09
285.704	22.87
285.919	14.68
286.134	127.32
286.349	164.18
286.564	88.4
286.779	69.97
286.995	59.73
287.21	16.73
287.425	61.78
287.64	-5.8
287.855	55.64
288.07	31.06
288.285	35.16
288.5	4.44
288.715	98.64
288.93	14.68
289.145	-32.43
289.36	65.88
289.575	12.63
289.79	45.4
290.004	92.5
290.219	74.07
290.434	-7.85
290.649	106.84
290.864	10.58
291.079	16.73
291.294	82.26
291.509	10.58
291.724	90.45
291.938	86.36
292.153	69.97
292.368	29.01
292.583	65.88
292.798	65.88
293.012	65.88
293.227	-3.75
293.442	51.54
293.657	43.35
293.871	47.44
294.086	-11.95
294.301	106.84
294.516	43.35
294.73	86.36
294.945	4.44
295.16	2.39
295.374	84.31
295.589	94.55
295.804	31.06
296.018	10.58
296.233	45.4
296.447	47.44
296.662	4.44
296.877	51.54
297.091	26.96
297.306	29.01
297.52	-11.95
297.735	41.3
297.949	-5.8
298.164	63.83
298.378	49.49
298.593	4.44
298.807	33.11
299.022	86.36
299.236	106.84
299.451	22.87
299.665	43.35
299.88	-16.04
300.094	26.96
300.309	20.82
300.523	18.77
300.737	102.74
300.952	51.54
301.166	112.98
301.381	-61.1
301.595	88.4
301.809	18.77
302.024	2.39
302.238	-11.95
302.452	53.59
302.667	96.6
302.881	57.68
303.095	-1.71
303.309	20.82
303.524	63.83
303.738	-46.76
303.952	69.97
304.166	4.44
304.381	-11.95
304.595	90.45
304.809	14.68
305.023	-1.71
305.237	67.92
305.452	37.2
305.666	-5.8
305.88	45.4
306.094	-38.57
306.308	57.68
306.522	26.96
306.736	59.73
306.95	39.25
307.164	-7.85
307.379	47.44
307.593	119.12
307.807	33.11
308.021	-22.19
308.235	10.58
308.449	47.44
308.663	37.2
308.877	51.54
309.091	20.82
309.305	45.4
309.519	31.06
309.733	115.03
309.947	78.16
310.161	31.06
310.374	106.84
310.588	26.96
310.802	45.4
311.016	0.34
311.23	90.45
311.444	0.34
311.658	-5.8
311.872	100.69
312.085	6.49
312.299	16.73
312.513	20.82
312.727	-16.04
312.941	94.55
313.154	74.07
313.368	76.12
313.582	125.27
313.796	74.07
314.009	6.49
314.223	76.12
314.437	41.3
314.651	20.82
314.864	59.73
315.078	82.26
315.292	49.49
315.505	41.3
315.719	57.68
315.933	33.11
316.146	100.69
316.36	4.44
316.573	33.11
316.787	41.3
317.001	29.01
317.214	59.73
317.428	53.59
317.641	57.68
317.855	90.45
318.068	98.64
318.282	82.26
318.495	51.54
318.709	41.3
318.922	-22.19
319.136	55.64
319.349	41.3
319.563	78.16
319.776	41.3
319.99	43.35
320.203	65.88
320.417	8.53
320.63	39.25
320.843	108.88
321.057	20.82
321.27	16.73
321.483	37.2
321.697	-5.8
321.91	92.5
322.124	57.68
322.337	-38.57
322.55	41.3
322.763	49.49
322.977	76.12
323.19	26.96
323.403	59.73
323.617	72.02
323.83	69.97
324.043	39.25
324.256	115.03
324.469	43.35
324.683	33.11
324.896	92.5
325.109	69.97
325.322	24.92
325.535	-20.14
325.748	-26.28
325.962	39.25
326.175	10.58
326.388	29.01
326.601	90.45
326.814	74.07
327.027	47.44
327.24	55.64
327.453	49.49
327.666	29.01
327.879	49.49
328.092	4.44
328.305	10.58
328.518	61.78
328.731	-38.57
328.944	65.88
329.157	35.16
329.37	43.35
329.583	74.07
329.796	49.49
330.009	43.35
330.222	-1.71
330.435	86.36
330.648	98.64
330.861	26.96
331.073	108.88
331.286	16.73
331.499	18.77
331.712	20.82
331.925	29.01
332.138	31.06
332.35	82.26
332.563	6.49
332.776	20.82
332.989	10.58
333.202	49.49
333.414	43.35
333.627	80.21
333.84	24.92
334.053	53.59
334.265	4.44
334.478	84.31
334.691	59.73
334.903	45.4
335.116	65.88
335.329	115.03
335.541	51.54
335.754	102.74
335.966	-28.33
336.179	90.45
336.392	41.3
336.604	41.3
336.817	-1.71
337.029	78.16
337.242	12.63
337.454	102.74
337.667	45.4
337.88	78.16
338.092	76.12
338.305	90.45
338.517	24.92
338.729	-7.85
338.942	-22.19
339.154	88.4
339.367	98.64
339.579	-57
339.792	78.16
340.004	57.68
340.217	6.49
340.429	2.39
340.641	22.87
340.854	57.68
341.066	84.31
341.278	31.06
341.491	86.36
341.703	115.03
341.915	-5.8
342.128	84.31
342.34	49.49
342.552	20.82
342.764	8.53
342.977	29.01
343.189	112.98
343.401	63.83
343.613	0.34
343.826	76.12
344.038	41.3
344.25	43.35
344.462	41.3
344.674	100.69
344.886	121.17
345.099	76.12
345.311	65.88
345.523	61.78
345.735	76.12
345.947	86.36
346.159	16.73
346.371	80.21
346.583	49.49
346.795	41.3
347.007	82.26
347.219	78.16
347.431	65.88
347.643	100.69
347.855	51.54
348.067	155.99
348.279	22.87
348.491	100.69
348.703	80.21
348.915	57.68
349.127	-28.33
349.339	45.4
349.551	90.45
349.763	76.12
349.975	26.96
350.187	-50.86
350.399	74.07
350.61	59.73
350.822	24.92
351.034	-3.75
351.246	106.84
351.458	29.01
351.669	24.92
351.881	39.25
352.093	12.63
352.305	49.49
352.517	72.02
352.728	14.68
352.94	22.87
353.152	96.6
353.363	4.44
353.575	78.16
353.787	86.36
353.999	29.01
354.21	98.64
354.422	41.3
354.633	61.78
354.845	53.59
355.057	51.54
355.268	67.92
355.48	82.26
355.692	-22.19
355.903	57.68
356.115	63.83
356.326	-46.76
356.538	98.64
356.749	8.53
356.961	51.54
357.172	24.92
357.384	-20.14
357.595	121.17
357.807	74.07
358.018	104.79
358.23	108.88
358.441	80.21
358.653	-65.19
358.864	65.88
359.075	41.3
359.287	43.35
359.498	86.36
359.709	47.44
359.921	86.36
360.132	121.17
360.344	78.16
360.555	37.2
360.766	108.88
360.977	41.3
361.189	35.16
361.4	10.58
361.611	45.4
361.823	78.16
362.034	57.68
362.245	26.96
362.456	108.88
362.667	57.68
362.879	6.49
363.09	-20.14
363.301	53.59
363.512	59.73
363.723	94.55
363.935	37.2
364.146	33.11
364.357	90.45
364.568	72.02
364.779	41.3
364.99	47.44
365.201	29.01
365.412	14.68
365.623	51.54
365.834	31.06
366.045	2.39
366.256	-36.52
366.467	8.53
366.678	57.68
366.889	100.69
367.1	47.44
367.311	76.12
367.522	57.68
367.733	67.92
367.944	90.45
368.155	31.06
368.366	110.93
368.577	8.53
368.788	22.87
368.999	63.83
369.209	131.41
369.42	59.73
369.631	29.01
369.842	43.35
370.053	39.25
370.264	33.11
370.474	51.54
370.685	8.53
370.896	59.73
371.107	110.93
371.317	65.88
371.528	82.26
371.739	53.59
371.95	26.96
372.16	43.35
372.371	37.2
372.582	108.88
372.792	45.4
373.003	112.98
373.214	35.16
373.424	8.53
373.635	2.39
373.846	141.65
374.056	55.64
374.267	155.99
374.477	49.49
374.688	98.64
374.898	82.26
375.109	-22.19
375.319	-32.43
375.53	108.88
375.74	57.68
375.951	108.88
376.161	69.97
376.372	110.93
376.582	69.97
376.793	18.77
377.003	43.35
377.214	94.55
377.424	-11.95
377.635	106.84
377.845	94.55
378.055	74.07
378.266	35.16
378.476	72.02
378.686	69.97
378.897	59.73
379.107	82.26
379.317	35.16
379.528	49.49
379.738	84.31
379.948	-38.57
380.158	94.55
380.369	22.87
380.579	39.25
380.789	117.08
380.999	20.82
381.21	76.12
381.42	74.07
381.63	84.31
381.84	8.53
382.05	92.5
382.261	47.44
382.471	45.4
382.681	84.31
382.891	74.07
383.101	12.63
383.311	14.68
383.521	65.88
383.731	63.83
383.941	147.8
384.151	72.02
384.361	153.94
384.571	143.7
384.781	74.07
384.991	22.87
385.201	20.82
385.411	123.22
385.621	43.35
385.831	67.92
386.041	41.3
386.251	16.73
386.461	90.45
386.671	86.36
386.881	65.88
387.091	65.88
387.301	67.92
387.511	6.49
387.72	151.89
387.93	135.51
388.14	22.87
388.35	22.87
388.56	37.2
388.769	33.11
388.979	39.25
389.189	24.92
389.399	135.51
389.609	106.84
389.818	33.11
390.028	104.79
390.238	100.69
390.447	86.36
390.657	86.36
390.867	63.83
391.076	51.54
391.286	41.3
391.496	78.16
391.705	72.02
391.915	104.79
392.125	6.49
392.334	76.12
392.544	78.16
392.753	53.59
392.963	67.92
393.172	63.83
393.382	90.45
393.591	98.64
393.801	117.08
394.01	110.93
394.22	145.75
394.429	104.79
394.639	69.97
394.848	106.84
395.058	123.22
395.267	100.69
395.477	141.65
395.686	149.84
395.895	129.36
396.105	104.79
396.314	45.4
396.524	94.55
396.733	43.35
396.942	125.27
397.152	108.88
397.361	94.55
397.57	65.88
397.78	119.12
397.989	-11.95
398.198	121.17
398.407	86.36
398.617	125.27
398.826	106.84
399.035	141.65
399.244	59.73
399.453	115.03
399.663	72.02
399.872	155.99
400.081	98.64
400.29	127.32
400.499	102.74
400.708	39.25
400.917	143.7
401.127	45.4
401.336	106.84
401.545	137.56
401.754	102.74
401.963	145.75
402.172	139.6
402.381	67.92
402.59	125.27
402.799	33.11
403.008	135.51
403.217	86.36
403.426	186.71
403.635	133.46
403.844	174.42
404.053	201.04
404.262	125.27
404.471	98.64
404.68	153.94
404.888	149.84
405.097	141.65
405.306	149.84
405.515	213.33
405.724	141.65
405.933	186.71
406.142	137.56
406.35	192.85
406.559	149.84
406.768	139.6
406.977	158.03
407.185	143.7
407.394	186.71
407.603	209.23
407.812	309.58
408.02	270.67
408.229	215.38
408.438	196.95
408.646	223.57
408.855	280.91
409.064	201.04
409.272	270.67
409.481	309.58
409.69	250.19
409.898	389.46
410.107	268.63
410.315	297.3
410.524	246.1
410.733	299.34
410.941	338.26
411.15	325.97
411.358	379.22
411.567	340.3
411.775	379.22
411.984	420.17
412.192	436.56
412.401	428.37
412.609	446.8
412.818	491.85
413.026	473.42
413.234	405.84
413.443	563.53
413.651	483.66
413.86	504.14
414.068	631.12
414.276	530.77
414.485	622.92
414.693	598.35
414.901	657.74
415.11	768.33
415.318	643.4
415.526	698.7
415.734	715.08
415.943	700.75
416.151	725.32
416.359	827.72
416.567	846.15
416.776	909.64
416.984	913.74
417.192	889.16
417.4	911.69
417.608	962.89
417.817	915.78
418.025	1016.13
418.233	1116.48
418.441	1022.28
418.649	1102.15
418.857	1155.4
419.065	1245.51
419.273	1220.93
419.481	1196.36
419.689	1395.01
419.897	1417.54
420.105	1511.74
420.313	1483.07
420.521	1544.51
420.729	1483.07
420.937	1671.48
421.145	1720.64
421.353	1814.84
421.561	1743.16
421.769	1876.28
421.977	1907
422.185	1831.23
422.393	2113.85
422.601	2029.88
422.809	2148.66
423.017	2138.42
423.224	2206
423.432	2273.59
423.64	2345.27
423.848	2564.4
424.056	2347.31
424.263	2572.59
424.471	2683.18
424.679	2586.93
424.887	2857.26
425.094	2859.31
425.302	2953.51
425.51	3047.72
425.718	3105.06
425.925	3115.3
426.133	3268.9
426.341	3465.5
426.548	3621.15
426.756	3625.25
426.964	3703.07
427.171	3807.52
427.379	3961.11
427.586	4026.65
427.794	4161.81
428.001	4362.51
428.209	4661.52
428.417	4360.47
428.624	4872.46
428.832	4753.68
429.039	4628.75
429.247	4749.58
429.454	5288.2
429.662	5497.09
429.869	5175.56
430.076	5630.21
430.284	5382.4
430.491	5628.16
430.699	6000.89
430.906	6000.89
431.114	6052.09
431.321	6297.85
431.528	6367.48
431.736	6719.73
431.943	6947.05
432.15	6973.67
432.358	6967.53
432.565	7282.92
432.772	7266.53
432.979	7616.74
433.187	7823.58
433.394	7901.4
433.601	8456.4
433.808	8368.34
434.016	8265.94
434.223	8696.02
434.43	9070.79
434.637	8972.49
434.844	9605.31
435.052	9806.02
435.259	9777.34
435.466	9754.82
435.673	9609.41
435.88	10258.62
436.087	10930.35
436.294	11049.13
436.501	10905.77
436.708	10893.49
436.915	11069.61
437.122	12013.73
437.329	11813.03
437.537	12275.87
437.743	12361.88
437.95	12118.17
438.157	12902.54
438.364	13269.13
438.571	13013.13
438.778	13328.52
438.985	14415.99
439.192	13926.53
439.399	14338.17
439.606	13994.11
439.813	14854.26
440.02	15710.31
440.227	15411.31
440.433	15313
440.64	16025.7
440.847	15657.06
441.054	16281.69
441.261	17141.84
441.467	16990.29
441.674	17469.51
441.881	17985.6
442.088	17852.48
442.294	17711.18
442.501	18139.2
442.708	18542.65
442.914	19302.45
443.121	19990.56
443.328	19654.7
443.534	20865.05
443.741	20631.58
443.948	20017.19
444.154	21506.06
444.361	21321.74
444.568	21465.1
444.774	21442.57
444.981	21733.39
445.187	22282.24
445.394	23279.6
445.6	23027.7
445.807	25528.27
446.013	24172.52
446.22	24518.62
446.426	25671.63
446.633	25702.35
446.839	26722.24
447.046	25407.44
447.252	26865.6
447.459	26939.32
447.665	27103.16
447.871	28280.74
448.078	29296.53
448.284	28051.37
448.491	28624.8
448.697	29794.19
448.903	30357.38
449.11	30236.55
449.316	29685.65
449.522	30480.26
449.728	31145.85
449.935	31317.88
450.141	31598.45
450.347	31932.27
450.553	30941.05
450.76	31330.17
450.966	32448.36
451.172	32137.07
451.378	32690.02
451.584	32325.48
451.791	33142.62
451.997	33077.08
452.203	33029.98
452.409	33541.97
452.615	33419.1
452.821	31938.41
453.027	31848.3
453.233	33548.12
453.44	32194.41
453.646	32419.69
453.852	32612.2
454.058	33374.04
454.264	32423.78
454.47	32886.62
454.676	31715.19
454.882	33359.7
455.088	29882.25
455.294	30814.08
455.5	31178.62
455.705	31381.37
455.911	29974.41
456.117	30056.33
456.323	29206.42
456.529	28010.41
456.735	28669.86
456.941	28295.08
457.147	27746.22
457.352	26965.95
457.558	26689.47
457.764	26838.97
457.97	25853.9
458.176	25477.07
458.381	25645.01
458.587	24012.77
458.793	24405.98
458.999	23195.64
459.204	24764.38
459.41	23734.25
459.616	22337.54
459.821	22251.52
460.027	22276.1
460.233	21919.75
460.438	20973.59
460.644	21071.89
460.85	20258.85
461.055	20025.38
461.261	19783.72
461.466	18110.53
461.672	17786.95
461.878	18837.56
462.083	17895.49
462.289	17158.22
462.494	17393.74
462.7	16529.5
462.905	16357.47
463.111	16699.48
463.316	16762.97
463.522	16453.72
463.727	16269.41
463.932	16324.7
464.138	16298.08
464.343	16128.1
464.549	15728.74
464.754	16259.17
464.959	16001.12
465.165	15966.31
465.37	15339.63
465.575	14846.07
465.781	15667.3
465.986	15650.92
466.191	14944.37
466.397	14686.33
466.602	13891.71
466.807	14592.12
467.012	14489.72
467.218	14571.64
467.423	14213.24
467.628	14401.66
467.833	15048.82
468.038	14475.38
468.244	14059.65
468.449	14616.69
468.654	14280.83
468.859	13928.58
469.064	13865.09
469.269	13299.85
469.474	13471.88
469.679	13744.26
469.885	13365.39
470.09	13582.47
470.295	13318.28
470.5	13224.08
470.705	13107.34
470.91	12918.93
471.115	12701.84
471.32	12923.02
471.525	12949.65
471.73	12558.49
471.935	12435.61
472.139	12269.72
472.344	12449.94
472.549	11931.81
472.754	12005.53
472.959	11917.47
473.164	11493.54
473.369	11495.59
473.574	11909.28
473.778	11518.12
473.983	11548.84
474.188	11677.86
474.393	10995.89
474.598	11223.21
474.802	11102.38
475.007	10948.78
475.212	10809.52
475.417	10379.45
475.621	10389.69
475.826	10490.04
476.031	10307.77
476.235	10272.95
476.44	10281.14
476.645	10045.63
476.849	10059.96
477.054	9961.66
477.259	9865.41
477.463	9932.99
477.668	9476.29
477.872	9541.83
478.077	9502.92
478.282	9308.36
478.486	9197.77
478.691	9298.12
478.895	9187.53
479.1	9027.79
479.304	9390.28
479.509	8814.8
479.713	9146.57
479.918	8845.52
480.122	8655.06
480.326	8628.43
480.531	8743.12
480.735	8687.82
480.94	8673.49
481.144	8984.78
481.348	8499.41
481.553	8610
481.757	8212.7
481.961	8366.29
482.166	8706.26
482.37	8519.89
482.574	8376.53
482.778	8399.06
482.983	8532.18
483.187	8421.59
483.391	8462.55
483.595	8417.49
483.8	8370.39
484.004	8538.32
484.208	8560.85
484.412	8417.49
484.616	8446.16
484.821	8435.92
485.025	8300.76
485.229	8622.29
485.433	8372.44
485.637	8407.25
485.841	8302.81
486.045	8368.34
486.249	8579.28
486.453	8294.61
486.657	8419.54
486.861	8544.47
487.065	8161.5
487.269	8157.4
487.473	8249.56
487.677	8470.74
487.881	8507.6
488.085	8405.21
488.289	8577.23
488.493	8292.57
488.697	8513.75
488.901	8478.93
489.105	8483.03
489.309	8519.89
489.512	8376.53
489.716	8464.6
489.92	8321.24
490.124	8460.5
490.328	8720.59
490.531	8589.52
490.735	8677.58
490.939	8642.77
491.143	8442.07
491.346	8624.34
491.55	8761.55
491.754	8773.84
491.958	8675.54
492.161	8849.61
492.365	8906.96
492.569	8894.67
492.772	8921.29
492.976	8859.85
493.18	8939.72
493.383	9349.32
493.587	9060.56
493.79	9269.45
493.994	9228.49
494.197	9435.33
494.401	9339.08
494.605	9474.24
494.808	9642.18
495.012	9679.04
495.215	9633.99
495.419	9773.25
495.622	9474.24
495.825	9787.58
496.029	9875.65
496.232	10033.34
496.436	9935.04
496.639	10133.69
496.843	10234.04
497.046	10569.91
497.249	10553.52
497.453	10596.53
497.656	10786.99
497.859	10789.04
498.063	10850.48
498.266	11137.2
498.469	11165.87
498.673	11024.56
498.876	11387.05
499.079	11554.98
499.282	11362.47
499.485	11810.98
499.689	11872.42
499.892	12026.01
500.095	11790.5
500.298	12421.27
500.501	12085.4
500.705	12605.59
500.908	12691.6
501.111	12728.47
501.314	13129.87
501.517	12898.45
501.72	13199.5
501.923	13322.38
502.126	13576.33
502.329	13725.83
502.532	13707.4
502.735	14016.64
502.938	14164.09
503.141	14258.3
503.344	14352.51
503.547	14481.53
503.75	14876.79
503.953	15095.92
504.156	15204.46
504.359	15280.24
504.562	15495.27
504.765	15597.67
504.968	15925.35
505.17	16343.13
505.373	16121.95
505.576	16504.92
505.779	16715.86
505.982	16611.42
506.185	17098.83
506.387	16963.67
506.59	17350.73
506.793	17725.51
506.996	18053.19
507.198	18219.07
507.401	18034.75
507.604	18315.33
507.807	18868.28
508.009	18675.77
508.212	18888.76
508.415	19259.44
508.617	19445.8
508.82	19660.84
509.022	19570.73
509.225	20244.51
509.428	20332.58
509.63	20650.01
509.833	20750.36
510.035	21196.82
510.238	20979.73
510.44	21463.05
510.643	21671.95
510.845	21653.51
511.048	21841.93
511.25	22216.71
511.453	22378.5
511.655	23371.76
511.858	22902.78
512.06	23027.7
512.262	23678.96
512.465	23724.01
512.667	23904.23
512.87	24539.1
513.072	24375.27
513.274	24784.86
513.477	25149.4
513.679	25040.86
513.881	25638.86
514.084	25911.24
514.286	25759.69
514.488	26032.07
514.69	27269.05
514.893	26916.79
515.095	26988.47
515.297	27279.29
515.499	27514.8
515.701	27987.88
515.904	28491.68
516.106	28473.25
516.308	28770.21
516.51	29212.57
516.712	29112.22
516.914	29835.15
517.116	29990.8
517.318	30316.42
517.52	30375.81
517.722	30640
517.925	30939.01
518.127	31315.83
518.329	31905.65
518.531	31498.1
518.733	32216.94
518.935	32388.97
519.136	32712.55
519.338	33341.27
519.54	33269.59
519.742	33818.45
519.944	33806.16
520.146	34328.39
520.348	34346.83
520.55	34680.64
520.752	35022.65
520.954	35555.13
521.155	35409.72
521.357	35837.75
521.559	36478.76
521.761	36648.74
521.963	36577.06
522.164	36687.65
522.366	37011.23
522.568	37689.11
522.77	37789.46
522.971	38197.01
523.173	38162.19
523.375	38616.84
523.576	38612.74
523.778	38721.29
523.98	39059.2
524.181	39231.23
524.383	38973.19
524.584	40085.23
524.786	39972.6
524.988	40265.45
525.189	40009.46
525.391	40652.52
525.592	40912.61
525.794	41031.4
525.995	40943.33
526.197	41598.68
526.398	40972
526.6	41946.84
526.801	41735.9
527.003	42247.89
527.204	42288.85
527.406	42342.1
527.607	42276.56
527.808	42829.51
528.01	41971.41
528.211	42540.75
528.412	43519.68
528.614	43318.98
528.815	43388.61
529.016	43648.7
529.218	43343.55
529.419	43665.08
529.62	43835.06
529.822	43290.3
530.023	43593.4
530.224	44076.72
530.425	44023.48
530.626	43738.81
530.828	43476.67
531.029	44521.13
531.23	43861.69
531.431	44179.12
531.632	44215.99
531.833	44596.91
532.035	44474.03
532.236	44840.62
532.437	44893.86
532.638	44703.4
532.839	44316.34
533.04	44764.84
533.241	44283.57
533.442	45035.17
533.643	44762.79
533.844	44813.99
534.045	45188.77
534.246	44480.17
534.447	45569.69
534.648	44793.51
534.849	45205.16
535.05	45119.14
535.251	45135.52
535.451	45274.79
535.652	45508.25
535.853	44846.76
536.054	45010.6
536.255	45190.82
536.456	44877.48
536.657	45631.13
536.857	44914.34
537.058	45129.38
537.259	45291.17
537.46	45270.69
537.66	44934.82
537.861	45139.62
538.062	45039.27
538.263	45577.89
538.463	44975.78
538.664	44895.91
538.865	45190.82
539.065	45186.72
539.266	45008.55
539.466	45534.88
539.667	44889.77
539.868	45923.99
540.068	45350.56
540.269	44830.38
540.469	45692.57
540.67	45199.01
540.87	44799.66
541.071	44983.97
541.271	45412
541.472	45037.22
541.672	44951.21
541.873	44832.43
542.073	44934.82
542.274	45305.51
542.474	45127.33
542.675	44394.16
542.875	44955.3
543.075	44965.54
543.276	44586.67
543.476	45110.95
543.676	44838.57
543.877	45323.94
544.077	44787.37
544.277	44641.96
544.478	45018.79
544.678	45106.85
544.878	44930.73
545.078	45239.97
545.279	44793.51
545.479	44945.06
545.679	44998.31
545.879	44717.74
546.079	44983.97
546.28	44994.21
546.48	44828.33
546.68	44979.88
546.88	45174.44
547.08	44695.21
547.28	44897.96
547.48	44433.07
547.68	45037.22
547.88	44447.41
548.081	44805.8
548.281	44717.74
548.481	44648.11
548.681	44805.8
548.881	44895.91
549.081	44920.49
549.28	44803.75
549.48	44760.75
549.68	44627.63
549.88	45022.89
550.08	44959.4
550.28	44981.93
550.48	44560.05
550.68	45176.48
550.88	44842.67
551.08	44682.92
551.279	44797.61
551.479	44197.55
551.679	45168.29
551.879	44519.09
552.079	44764.84
552.278	44674.73
552.478	44381.87
552.678	44633.77
552.878	44871.34
553.077	44484.27
553.277	44043.96
553.477	44947.11
553.676	43919.03
553.876	44355.25
554.076	44170.93
554.275	44177.08
554.475	43593.4
554.674	44246.71
554.874	43988.66
555.074	44324.53
555.273	44390.06
555.473	44414.64
555.672	44046.01
555.872	43978.42
556.071	44261.04
556.271	44156.6
556.47	43800.25
556.67	43521.73
556.869	44146.36
557.068	43978.42
557.268	43562.68
557.467	43458.24
557.667	43730.62
557.866	43835.06
558.065	43736.76
558.265	43216.58
558.464	43280.06
558.663	43527.87
558.863	43216.58
559.062	43996.85
559.261	42981.06
559.461	43902.65
559.66	42397.39
559.859	43077.32
560.058	43050.69
560.258	43019.97
560.457	42538.7
560.656	43052.74
560.855	42530.51
561.054	43169.47
561.253	42546.89
561.453	42708.68
561.652	42806.98
561.851	42575.56
562.05	42206.93
562.249	42127.06
562.448	42475.21
562.647	42522.32
562.846	42608.33
563.045	41746.14
563.244	41451.23
563.443	42528.46
563.642	42137.3
563.841	41856.73
564.04	41547.48
564.239	42280.66
564.438	41576.15
564.637	41731.8
564.836	41924.31
565.035	41314.01
565.234	41735.9
565.432	41434.85
565.631	41000.68
565.83	41154.27
566.029	41328.35
566.228	41039.59
566.427	40765.16
566.625	40677.1
566.824	40879.85
567.023	40808.17
567.222	39935.73
567.42	40607.47
567.619	40546.03
567.818	40498.92
568.016	40451.82
568.215	40566.51
568.414	40187.63
568.612	40427.24
568.811	40169.2
569.01	40546.03
569.208	39732.98
569.407	39937.78
569.605	39325.44
569.804	40027.89
570.002	39696.12
570.201	39913.2
570.4	39497.47
570.598	39378.68
570.797	38989.57
570.995	39036.67
571.193	38887.17
571.392	39108.35
571.59	38887.17
571.789	38733.57
571.987	38276.88
572.186	38442.76
572.384	38512.39
572.582	38645.51
572.781	38588.17
572.979	37822.23
573.177	38274.83
573.376	38211.34
573.574	37816.08
573.772	37918.48
573.971	37646.1
574.169	37551.9
574.367	36947.75
574.565	37639.96
574.763	37216.03
574.962	37279.52
575.16	36587.3
575.358	36577.06
575.556	36484.9
575.754	37152.54
575.952	36415.27
576.151	36957.99
576.349	36577.06
576.547	36544.3
576.745	36695.85
576.943	36271.92
577.141	36233
577.339	36319.02
577.537	35878.71
577.735	35831.6
577.933	35710.77
578.131	35764.02
578.329	35221.31
578.527	35520.31
578.725	35274.56
578.923	35168.06
579.121	35147.58
579.319	35108.67
579.516	35276.6
579.714	35096.38
579.912	34670.4
580.11	34760.51
580.308	34275.15
580.506	34434.89
580.704	34019.15
580.901	34623.3
581.099	34543.43
581.297	34195.28
581.495	34125.64
581.692	34174.8
581.89	33470.29
582.088	34111.31
582.285	33423.19
582.483	33918.8
582.681	33490.77
582.878	33443.67
583.076	33066.84
583.274	33132.38
583.471	32976.73
583.669	33267.55
583.866	32868.19
584.064	33013.6
584.262	32890.72
584.459	32958.3
584.657	32464.74
584.854	33089.37
585.052	31899.5
585.249	32343.91
585.447	32472.93
585.644	31922.03
585.841	32194.41
586.039	32042.86
586.236	31786.86
586.434	31893.36
586.631	31510.39
586.828	31766.38
587.026	31461.24
587.223	31512.44
587.42	31473.53
587.618	31629.17
587.815	30922.62
588.012	31221.62
588.21	30885.76
588.407	31131.51
588.604	30816.13
588.801	30367.62
588.999	30640
589.196	30726.02
589.393	30252.94
589.59	30519.17
589.787	30134.15
589.984	30244.74
590.182	30066.57
590.379	30355.33
590.576	30099.34
590.773	29951.88
590.97	29763.47
591.167	30023.56
591.364	29091.74
591.561	29585.3
591.758	29196.18
591.955	29155.22
592.152	29505.43
592.349	28839.84
592.546	28960.67
592.743	28975
592.94	28768.16
593.137	28954.52
593.334	28903.32
593.531	28569.51
593.727	28684.19
593.924	28585.89
594.121	28356.52
594.318	28837.79
594.515	28239.78
594.712	28313.51
594.908	27905.96
595.105	28403.62
595.302	27930.54
595.499	27998.12
595.696	28182.44
595.892	27834.28
596.089	27834.28
596.286	27502.51
596.482	27701.17
596.679	27535.28
596.876	27541.43
597.072	27258.81
597.269	27242.42
597.466	27045.82
597.662	26851.26
597.859	27041.72
598.055	26642.37
598.252	27133.88
598.448	26763.2
598.645	26441.67
598.841	26308.55
599.038	26101.7
599.234	26329.03
599.431	26118.09
599.627	26200.01
599.824	26320.84
600.02	25933.77
600.217	26038.22
600.413	25890.76
600.609	25849.8
600.806	25438.16
601.002	25561.04
601.198	25638.86
601.395	25540.56
601.591	25567.18
601.787	25534.42
601.984	25192.4
602.18	25475.02
602.376	25100.25
602.572	24940.5
602.769	25055.19
602.965	24784.86
603.161	24891.35
603.357	24786.91
603.553	24688.6
603.75	24717.28
603.946	24567.77
604.142	24559.58
604.338	24248.29
604.534	24283.11
604.73	24246.24
604.926	23990.25
605.122	24279.01
605.318	23803.88
605.514	23861.23
605.71	23652.33
605.906	23744.49
606.102	23543.79
606.298	23605.23
606.494	23668.72
606.69	23277.55
606.886	23459.82
607.082	23209.97
607.278	23367.66
607.474	22773.75
607.67	22962.17
607.866	22937.59
608.062	23107.57
608.257	22585.34
608.453	22960.12
608.649	23029.75
608.845	22800.38
609.041	22902.78
609.236	22812.67
609.432	22470.65
609.628	22616.06
609.824	22722.55
610.019	22431.74
610.215	22376.45
610.411	22691.84
610.606	22339.58
610.802	22452.22
610.998	22276.1
611.193	21962.76
611.389	21997.57
611.584	21757.96
611.78	21768.2
611.976	21860.36
612.171	21893.13
612.367	21776.39
612.562	21692.43
612.758	21194.77
612.953	21452.81
613.149	21633.04
613.344	21045.27
613.539	21557.26
613.735	21307.41
613.93	21379.09
614.126	21342.22
614.321	21305.36
614.517	21415.95
614.712	21030.93
614.907	20791.32
615.103	21018.64
615.298	20793.37
615.493	21100.56
615.688	20635.67
615.884	20863
616.079	20332.58
616.274	20811.8
616.47	20754.46
616.665	20574.24
616.86	20473.88
617.055	20576.28
617.25	20484.12
617.445	20408.35
617.641	20221.98
617.836	20539.42
618.031	19947.56
618.226	20009
618.421	20011.04
618.616	20138.02
618.811	19585.07
619.006	20107.3
619.201	19476.52
619.396	19687.46
619.591	19382.32
619.786	19650.6
619.981	19263.54
620.176	19554.35
620.371	19171.38
620.566	19374.13
620.761	19152.95
620.956	19169.33
621.151	18526.27
621.346	19054.64
621.541	18747.45
621.735	18690.1
621.93	18505.79
622.125	18583.61
622.32	18231.36
622.515	18245.69
622.709	18100.29
622.904	18053.19
623.099	18108.48
623.294	17961.03
623.488	17907.78
623.683	17940.55
623.878	17399.88
624.072	17522.76
624.267	17700.94
624.462	17229.9
624.656	17070.16
624.851	17375.31
625.046	17133.65
625.24	16932.95
625.435	16756.82
625.629	16748.63
625.824	16801.88
626.018	16566.36
626.213	16361.56
626.407	16558.17
626.602	16107.62
626.796	16363.61
626.991	16240.73
627.185	16132.19
627.38	16177.25
627.574	15894.63
627.768	15753.32
627.963	15624.29
628.157	15663.21
628.352	15644.77
628.546	15310.96
628.74	15374.44
628.935	15235.18
629.129	15585.38
629.323	14966.9
629.517	15097.97
629.712	15052.91
629.906	14864.5
630.1	14749.81
630.294	14745.72
630.489	14622.84
630.683	14876.79
630.877	14395.51
631.071	14436.47
631.265	14403.71
631.459	14479.48
631.653	14096.51
631.848	14078.08
632.042	13983.87
632.236	14086.27
632.43	13930.62
632.624	13881.47
632.818	13828.23
633.012	13596.81
633.206	13740.16
633.4	13686.92
633.594	13461.64
633.788	13559.94
633.982	13514.89
634.176	13187.21
634.369	13207.69
634.563	13029.52
634.757	13101.2
634.951	13111.44
635.145	12994.7
635.339	13070.48
635.533	12843.15
635.726	12986.51
635.92	12914.83
636.114	12613.78
636.308	12413.08
636.501	12470.42
636.695	12279.96
636.889	12462.23
637.083	12437.66
637.276	12171.42
637.47	12091.55
637.664	12152.99
637.857	12228.76
638.051	12056.73
638.244	12021.92
638.438	11905.18
638.632	11774.11
638.825	11876.51
639.019	11798.69
639.212	11886.75
639.406	11587.75
639.599	11507.88
639.793	11524.26
639.986	11305.13
640.18	11274.41
640.373	11346.09
640.567	11255.98
640.76	11083.95
640.954	10950.83
641.147	10887.34
641.34	10864.82
641.534	10944.69
641.727	10893.49
641.92	10786.99
642.114	10893.49
642.307	10662.07
642.5	10528.95
642.694	10461.37
642.887	10227.9
643.08	10510.52
643.273	10322.1
643.467	10332.34
643.66	10205.37
643.853	10172.6
644.046	10043.58
644.239	9990.33
644.432	10217.66
644.626	9791.68
644.819	9754.82
645.012	9808.06
645.205	9803.97
645.398	9801.92
645.591	9519.3
645.784	9601.22
645.977	9504.96
646.17	9642.18
646.363	9171.15
646.556	9248.97
646.749	9283.78
646.942	9373.89
647.135	9212.1
647.328	9048.27
647.521	9267.4
647.714	9187.53
647.907	9048.27
648.099	8859.85
648.292	8954.06
648.485	9015.5
648.678	8757.46
648.871	8841.42
649.064	8675.54
649.256	8796.37
649.449	8339.67
649.642	8511.7
649.835	8503.51
650.027	8360.15
650.22	8446.16
650.413	8341.72
650.605	8419.54
650.798	8257.75
650.991	8159.45
651.183	8040.67
651.376	8034.52
651.568	8194.26
651.761	8028.38
651.954	8007.9
652.146	7891.16
652.339	7895.26
652.531	7702.75
652.724	7882.97
652.916	7659.74
653.109	7850.21
653.301	7940.32
653.494	7643.36
653.686	7579.87
653.879	7573.73
654.071	7303.4
654.263	7524.58
654.456	7375.08
654.648	7444.71
654.84	7194.86
655.033	7295.21
655.225	7225.58
655.417	7223.53
655.61	7211.24
655.802	7069.93
655.994	6955.24
656.186	7137.51
656.379	6840.56
656.571	6891.76
656.763	6873.32
656.955	6844.65
657.148	6961.39
657.34	6693.1
657.532	6635.76
657.724	6740.21
657.916	6732.01
658.108	6504.69
658.3	6619.38
658.492	6586.61
658.684	6496.5
658.876	6447.35
659.068	6408.44
659.26	6297.85
659.452	6390
659.644	6359.28
659.836	6390
660.028	6097.14
660.22	6105.34
660.412	6181.11
660.604	6103.29
660.796	6148.34
660.988	6017.27
661.18	6025.47
661.372	5837.05
661.563	6002.94
661.755	5796.09
661.947	5814.52
662.139	5990.65
662.331	5714.17
662.522	5736.7
662.714	5648.64
662.906	5529.86
663.097	5562.62
663.289	5705.98
663.481	5652.74
663.673	5513.47
663.864	5396.74
664.056	5458.18
664.247	5325.06
664.439	5282.05
664.631	5466.37
664.822	5374.21
665.014	5282.05
665.205	5359.88
665.397	5142.79
665.588	5136.65
665.78	5017.86
665.971	5234.95
666.163	5226.76
666.354	4997.39
666.546	5101.83
666.737	5050.63
666.929	4942.09
667.12	5097.74
667.311	4964.62
667.503	4772.11
667.694	4673.81
667.885	4978.95
668.077	4784.4
668.268	4874.51
668.459	4864.27
668.651	4684.05
668.842	4686.09
669.033	4671.76
669.224	4663.57
669.416	4841.74
669.607	4632.85
669.798	4499.73
669.989	4645.13
670.18	4516.11
670.371	4620.56
670.563	4522.26
670.754	4393.23
670.945	4505.87
671.136	4475.15
671.327	4577.55
671.518	4485.39
671.709	4311.32
671.9	4514.06
672.091	4405.52
672.282	4354.32
672.473	4284.69
672.664	4278.55
672.855	4458.77
673.046	4344.08
673.237	4331.8
673.428	4294.93
673.619	4206.87
673.809	4247.83
674	4282.64
674.191	4264.21
674.382	4145.43
674.573	4098.33
674.764	4112.66
674.954	4086.04
675.145	4118.81
675.336	3983.64
675.527	3989.78
675.717	4008.22
675.908	4083.99
676.099	4055.32
676.289	3993.88
676.48	3997.98
676.671	3950.87
676.861	3854.62
677.052	3950.87
677.243	3871
677.433	3862.81
677.624	3897.63
677.814	3748.12
678.005	3836.19
678.195	3801.37
678.386	3885.34
678.576	3787.04
678.767	3811.61
678.957	3729.69
679.148	3768.6
679.338	3760.41
679.529	3815.71
679.719	3723.55
679.909	3821.85
680.1	3680.54
680.29	3842.33
680.481	3582.24
680.671	3651.87
680.861	3662.11
681.052	3815.71
681.242	3672.35
681.432	3735.84
681.622	3739.93
681.813	3651.87
682.003	3514.66
682.193	3604.77
682.383	3635.49
682.573	3680.54
682.764	3612.96
682.954	3561.76
683.144	3641.63
683.334	3543.33
683.524	3506.46
683.714	3488.03
683.904	3498.27
684.094	3510.56
684.284	3490.08
684.474	3473.7
684.664	3508.51
684.854	3338.53
685.044	3543.33
685.234	3447.07
685.424	3557.66
685.614	3318.05
685.804	3432.74
685.994	3483.94
686.184	3410.21
686.374	3324.19
686.564	3344.67
686.753	3369.25
686.943	3350.82
687.133	3342.63
687.323	3250.47
687.513	3375.39
687.702	3221.8
687.892	3160.36
688.082	3268.9
688.272	3318.05
688.461	3285.28
688.651	3236.13
688.841	3211.56
689.03	3236.13
689.22	3326.24
689.41	3137.83
689.599	3273
689.789	3219.75
689.979	3096.87
690.168	3182.88
690.358	3100.97
690.547	3139.88
690.737	3242.28
690.926	3277.09
691.116	3023.14
691.305	3172.64
691.495	3162.41
691.684	3088.68
691.874	3229.99
692.063	3189.03
692.252	3131.69
692.442	3154.21
692.631	3098.92
692.82	3129.64
693.01	3041.57
693.199	3139.88
693.388	3162.41
693.578	3066.15
693.767	3100.97
693.956	3176.74
694.146	2973.99
694.335	3049.77
694.524	3029.29
694.713	3133.73
694.902	3060.01
695.092	3055.91
695.281	2996.52
695.47	2961.7
695.659	3117.35
695.848	3078.44
696.037	3057.96
696.226	3084.58
696.415	3072.29
696.604	3137.83
696.793	3064.1
696.982	3105.06
697.171	3039.53
697.36	3092.77
697.549	2982.18
697.738	2994.47
697.927	2978.09
698.116	3178.79
698.305	3070.25
698.494	3115.3
698.683	2910.5
698.872	3012.9
699.061	3023.14
699.25	3017
699.438	2986.28
699.627	2973.99
699.816	3000.62
700.005	2955.56
700.193	2851.11
700.382	2908.46
700.571	2914.6
700.76	2967.85
700.948	3021.1
701.137	2900.27
701.326	3006.76
701.514	2890.03
701.703	2986.28
701.892	2949.42
702.08	3017
702.269	2826.54
702.457	2851.11
702.646	2912.55
702.834	2814.25
703.023	2898.22
703.212	2844.97
703.4	2935.08
703.589	2896.17
703.777	3025.19
703.965	2793.77
704.154	2724.14
704.342	2754.86
704.531	2869.55
704.719	2703.66
704.907	2894.12
705.096	2853.16
705.284	2785.58
705.472	2801.96
705.661	2728.24
705.849	2746.67
706.037	2777.39
706.226	2654.51
706.414	2822.44
706.602	2660.65
706.79	2687.28
706.979	2758.96
707.167	2773.29
707.355	2767.15
707.543	2879.79
707.731	2709.8
707.919	2707.76
708.107	2693.42
708.296	2631.98
708.484	2562.35
708.672	2660.65
708.86	2728.24
709.048	2595.12
709.236	2615.6
709.424	2644.27
709.612	2654.51
709.8	2543.92
709.988	2576.69
710.176	2584.88
710.364	2597.17
710.551	2507.06
710.739	2640.17
710.927	2505.01
711.115	2445.62
711.303	2597.17
711.491	2558.25
711.679	2543.92
711.866	2535.73
712.054	2611.5
712.242	2457.9
712.43	2527.53
712.617	2509.1
712.805	2476.34
712.993	2361.65
713.181	2482.48
713.368	2326.83
713.556	2380.08
713.744	2337.07
713.931	2502.96
714.119	2382.13
714.306	2441.52
714.494	2312.5
714.682	2414.9
714.869	2244.92
715.057	2318.64
715.244	2365.75
715.432	2341.17
715.619	2398.51
715.807	2173.24
715.994	2216.24
716.182	2257.2
716.369	2230.58
716.556	2294.07
716.744	2281.78
716.931	2201.91
717.119	2259.25
717.306	2117.94
717.493	2214.2
717.681	2236.72
717.868	2107.7
718.055	2302.26
718.242	2244.92
718.43	2175.28
718.617	2140.47
718.804	2113.85
718.991	2160.95
719.179	2244.92
719.366	2142.52
719.553	1999.16
719.74	2056.5
719.927	2089.27
720.114	2111.8
720.301	2093.37
720.488	2052.41
720.676	1990.97
720.863	2179.38
721.05	2048.31
721.237	2003.25
721.424	2023.73
721.611	2081.08
721.798	1958.2
721.985	2040.12
722.172	2042.17
722.358	1958.2
722.545	1954.1
722.732	1995.06
722.919	1968.44
723.106	1911.1
723.293	1958.2
723.48	1962.3
723.667	2003.25
723.853	1937.72
724.04	1976.63
724.227	1986.87
724.414	1999.16
724.6	1876.28
724.787	1849.66
724.974	1847.61
725.161	1966.39
725.347	1784.12
725.534	1892.66
725.72	1843.51
725.907	1859.9
726.094	1870.14
726.28	1777.98
726.467	1835.32
726.653	1892.66
726.84	1755.45
727.027	1823.03
727.213	1761.59
727.4	1804.6
727.586	1806.65
727.773	1835.32
727.959	1802.55
728.145	1837.37
728.332	1720.64
728.518	1773.88
728.705	1751.35
728.891	1659.2
729.077	1818.94
729.264	1743.16
729.45	1755.45
729.636	1597.76
729.823	1691.96
730.009	1708.35
730.195	1724.73
730.382	1763.64
730.568	1671.48
730.754	1704.25
730.94	1767.74
731.126	1669.44
731.313	1657.15
731.499	1730.87
731.685	1659.2
731.871	1759.55
732.057	1622.33
732.243	1737.02
732.429	1585.47
732.615	1669.44
732.801	1581.37
732.987	1591.61
733.173	1608
733.359	1581.37
733.545	1646.91
733.731	1569.09
733.917	1616.19
734.103	1679.68
734.289	1569.09
734.475	1591.61
734.661	1579.33
734.847	1569.09
735.033	1464.64
735.219	1544.51
735.404	1526.08
735.59	1526.08
735.776	1511.74
735.962	1478.97
736.148	1548.61
736.333	1493.31
736.519	1538.37
736.705	1478.97
736.89	1599.8
737.076	1478.97
737.262	1515.84
737.447	1431.87
737.633	1440.06
737.819	1378.62
738.004	1575.23
738.19	1524.03
738.375	1485.12
738.561	1460.54
738.747	1493.31
738.932	1407.3
739.118	1442.11
739.303	1382.72
739.489	1485.12
739.674	1452.35
739.859	1397.06
740.045	1362.24
740.23	1294.66
740.416	1376.58
740.601	1378.62
740.786	1524.03
740.972	1358.14
741.157	1376.58
741.342	1386.82
741.528	1302.85
741.713	1321.28
741.898	1372.48
742.084	1284.42
742.269	1425.73
742.454	1370.43
742.639	1308.99
742.824	1280.32
743.01	1335.62
743.195	1358.14
743.38	1192.26
743.565	1311.04
743.75	1280.32
743.935	1218.88
744.12	1227.07
744.305	1212.74
744.49	1190.21
744.675	1243.46
744.86	1200.45
745.045	1263.94
745.23	1112.39
745.415	1239.36
745.6	1206.59
745.785	1147.2
745.97	1157.44
746.155	1198.4
746.34	1243.46
746.525	1239.36
746.71	1225.03
746.895	1159.49
747.079	1136.96
747.264	1157.44
747.449	1190.21
747.634	1237.31
747.819	1096
748.003	1130.82
748.188	1130.82
748.373	1134.92
748.557	1112.39
748.742	1077.57
748.927	1065.29
749.111	1136.96
749.296	1005.89
749.481	1128.77
749.665	1018.18
749.85	1093.96
750.034	1065.29
750.219	1020.23
750.404	1091.91
750.588	1065.29
750.773	1130.82
750.957	1053
751.141	1003.85
751.326	1059.14
751.51	1003.85
751.695	981.32
751.879	969.03
752.064	971.08
752.248	1016.13
752.432	917.83
752.617	985.41
752.801	1007.94
752.985	977.22
753.17	907.59
753.354	827.72
753.538	993.61
753.722	942.41
753.907	977.22
754.091	897.35
754.275	874.82
754.459	878.92
754.643	872.78
754.828	864.58
755.012	905.54
755.196	889.16
755.38	829.77
755.564	858.44
755.748	745.8
755.932	868.68
756.116	856.39
756.3	905.54
756.484	883.02
756.668	854.34
756.852	799.05
757.036	749.9
757.22	794.95
757.404	786.76
757.588	794.95
757.772	893.26
757.956	844.1
758.14	751.95
758.323	850.25
758.507	897.35
758.691	762.19
758.875	819.53
759.059	813.38
759.242	782.67
759.426	719.18
759.61	833.86
759.794	819.53
759.977	721.23
760.161	762.19
760.345	756.04
760.528	805.19
760.712	799.05
760.895	749.9
761.079	713.03
761.263	766.28
761.446	682.31
761.63	717.13
761.813	735.56
761.997	612.68
762.18	710.99
762.364	678.22
762.547	680.27
762.731	729.42
762.914	731.47
763.098	655.69
763.281	672.08
763.464	622.92
763.648	747.85
763.831	698.7
764.015	647.5
764.198	678.22
764.381	647.5
764.564	702.79
764.748	614.73
764.931	657.74
765.114	631.12
765.297	731.47
765.481	688.46
765.664	655.69
765.847	672.08
766.03	690.51
766.213	616.78
766.397	704.84
766.58	637.26
766.763	616.78
766.946	633.16
767.129	692.55
767.312	639.31
767.495	545.1
767.678	573.77
767.861	659.79
768.044	702.79
768.227	606.54
768.41	608.59
768.593	541.01
768.776	635.21
768.959	596.3
769.142	639.31
769.324	624.97
769.507	522.57
769.69	573.77
769.873	606.54
770.056	624.97
770.239	547.15
770.421	590.16
770.604	649.55
770.787	530.77
770.97	541.01
771.152	641.36
771.335	641.36
771.518	477.52
771.7	606.54
771.883	579.92
772.066	498
772.248	618.83
772.431	586.06
772.613	592.2
772.796	500.05
772.978	579.92
773.161	569.68
773.343	573.77
773.526	534.86
773.708	543.05
773.891	487.76
774.073	430.41
774.256	518.48
774.438	596.3
774.621	532.81
774.803	524.62
774.985	551.24
775.168	624.97
775.35	481.61
775.532	516.43
775.715	446.8
775.897	584.01
776.079	475.47
776.261	524.62
776.444	493.9
776.626	446.8
776.808	516.43
776.99	506.19
777.173	479.57
777.355	475.47
777.537	594.25
777.719	418.13
777.901	463.18
778.083	518.48
778.265	428.37
778.447	502.09
778.629	475.47
778.811	491.85
778.993	450.89
779.175	491.85
779.357	446.8
779.539	465.23
779.721	418.13
779.903	401.74
780.085	450.89
780.267	438.61
780.449	383.31
780.631	450.89
780.812	426.32
780.994	371.02
781.176	315.73
781.358	459.09
781.54	428.37
781.721	354.64
781.903	338.26
782.085	368.98
782.267	405.84
782.448	393.55
782.63	338.26
782.812	371.02
782.993	352.59
783.175	430.41
783.357	278.87
783.538	354.64
783.72	323.92
783.901	389.46
784.083	305.49
784.264	422.22
784.446	280.91
784.627	311.63
784.809	352.59
784.99	301.39
785.172	303.44
785.353	287.06
785.535	278.87
785.716	319.82
785.897	282.96
786.079	348.5
786.26	319.82
786.441	274.77
786.623	293.2
786.804	264.53
786.985	354.64
787.167	317.78
787.348	299.34
787.529	262.48
787.71	319.82
787.891	268.63
788.073	311.63
788.254	223.57
788.435	350.54
788.616	270.67
788.797	336.21
788.978	360.78
789.159	270.67
789.34	272.72
789.522	270.67
789.703	360.78
789.884	252.24
790.065	266.58
790.246	221.52
790.427	213.33
790.607	262.48
790.788	319.82
790.969	252.24
791.15	297.3
791.331	244.05
791.512	221.52
791.693	244.05
791.874	256.34
792.054	221.52
792.235	352.59
792.416	248.15
792.597	244.05
792.778	194.9
792.958	274.77
793.139	158.03
793.32	248.15
793.5	287.06
793.681	295.25
793.862	242
794.042	264.53
794.223	121.17
794.404	285.01
794.584	211.28
794.765	209.23
794.945	182.61
795.126	262.48
795.306	242
795.487	213.33
795.667	260.43
795.848	231.76
796.028	194.9
796.209	151.89
796.389	256.34
796.57	336.21
796.75	278.87
796.93	141.65
797.111	262.48
797.291	217.43
797.471	196.95
797.652	198.99
797.832	248.15
798.012	272.72
798.192	176.47
798.373	217.43
798.553	221.52
798.733	217.43
798.913	196.95
799.093	131.41
799.274	223.57
799.454	229.71
799.634	244.05
799.814	231.76
799.994	196.95
800.174	184.66
800.354	112.98
800.534	207.19
800.714	205.14
800.894	198.99
801.074	172.37
801.254	149.84
801.434	201.04
801.614	246.1
801.794	164.18
801.974	493.9
802.154	180.56
802.334	198.99
802.514	149.84
802.693	229.71
802.873	194.9
803.053	176.47
803.233	160.08
803.413	270.67
803.592	188.75
803.772	106.84
803.952	196.95
804.131	82.26
804.311	176.47
804.491	141.65
804.67	164.18
804.85	96.6
805.03	205.14
805.209	158.03
805.389	168.27
805.568	147.8
805.748	141.65
805.928	149.84
806.107	147.8
806.287	117.08
806.466	174.42
806.646	184.66
806.825	155.99
807.004	84.31
807.184	153.94
807.363	127.32
807.543	184.66
807.722	205.14
807.901	153.94
808.081	188.75
808.26	78.16
808.439	153.94
808.619	88.4
808.798	153.94
808.977	106.84
809.156	164.18
809.336	162.13
809.515	149.84
809.694	153.94
809.873	153.94
810.052	123.22
810.231	209.23
810.411	121.17
810.59	143.7
810.769	69.97
810.948	172.37
811.127	174.42
811.306	90.45
811.485	180.56
811.664	108.88
811.843	92.5
812.022	112.98
812.201	112.98
812.38	125.27
812.559	78.16
812.737	168.27
812.916	49.49
813.095	88.4
813.274	102.74
813.453	135.51
813.632	131.41
813.811	176.47
813.989	139.6
814.168	123.22
814.347	155.99
814.526	119.12
814.704	86.36
814.883	102.74
815.062	123.22
815.24	188.75
815.419	65.88
815.598	94.55
815.776	117.08
815.955	153.94
816.133	90.45
816.312	123.22
816.49	123.22
816.669	135.51
816.847	92.5
817.026	194.9
817.204	110.93
817.383	127.32
817.561	65.88
817.74	127.32
817.918	61.78
818.097	100.69
818.275	141.65
818.453	190.8
818.632	84.31
818.81	135.51
818.988	147.8
819.167	78.16
819.345	98.64
819.523	151.89
819.701	115.03
819.879	201.04
820.058	69.97
820.236	65.88
820.414	98.64
820.592	96.6
820.77	100.69
820.948	135.51
821.127	51.54
821.305	92.5
821.483	162.13
821.661	153.94
821.839	96.6
822.017	104.79
822.195	35.16
822.373	65.88
822.551	65.88
822.729	67.92
822.907	45.4
823.085	112.98
823.262	55.64
823.44	74.07
823.618	180.56
823.796	119.12
823.974	41.3
824.152	65.88
824.329	98.64
824.507	110.93
824.685	117.08
824.863	82.26
825.04	12.63
825.218	59.73
825.396	80.21
825.574	117.08
825.751	53.59
825.929	90.45
826.107	74.07
826.284	90.45
826.462	76.12
826.639	141.65
826.817	-32.43
826.994	65.88
827.172	57.68
827.349	90.45
827.527	125.27
827.704	67.92
827.882	131.41
828.059	-13.99
828.237	100.69
828.414	51.54
828.591	74.07
828.769	117.08
828.946	67.92
829.124	55.64
829.301	102.74
829.478	141.65
829.655	24.92
829.833	127.32
830.01	57.68
830.187	49.49
830.364	69.97
830.542	31.06
830.719	41.3
830.896	117.08
831.073	41.3
831.25	82.26
831.427	24.92
831.604	10.58
831.782	117.08
831.959	115.03
832.136	-16.04
832.313	117.08
832.49	10.58
832.667	86.36
832.844	-26.28
833.021	74.07
833.198	72.02
833.374	100.69
833.551	49.49
833.728	69.97
833.905	49.49
834.082	80.21
834.259	69.97
834.436	92.5
834.612	123.22
834.789	24.92
834.966	149.84
835.143	96.6
835.319	24.92
835.496	94.55
835.673	74.07
835.85	43.35
836.026	74.07
836.203	59.73
836.38	57.68
836.556	149.84
836.733	74.07
836.909	86.36
837.086	45.4
837.262	69.97
837.439	53.59
837.616	78.16
837.792	125.27
837.968	115.03
838.145	0.34
838.321	131.41
838.498	106.84
838.674	43.35
838.851	102.74
839.027	0.34
839.203	33.11
839.38	121.17
839.556	94.55
839.732	29.01
839.909	12.63
840.085	102.74
840.261	100.69
840.437	106.84
840.614	-28.33
840.79	67.92
840.966	-13.99
841.142	74.07
841.318	-22.19
841.494	49.49
841.671	31.06
841.847	29.01
842.023	37.2
842.199	4.44
842.375	65.88
842.551	24.92
842.727	45.4
842.903	106.84
843.079	10.58
843.255	41.3
843.431	53.59
843.607	76.12
843.783	24.92
843.959	-22.19
844.134	90.45
844.31	86.36
844.486	59.73
844.662	35.16
844.838	94.55
845.013	51.54
845.189	147.8
845.365	96.6
845.541	59.73
845.716	53.59
845.892	33.11
846.068	76.12
846.244	16.73
846.419	155.99
846.595	98.64
846.77	80.21
846.946	12.63
847.122	78.16
847.297	76.12
847.473	39.25
847.648	88.4
847.824	55.64
847.999	-11.95
848.175	74.07
848.35	35.16
848.526	57.68
848.701	65.88
848.876	92.5
849.052	80.21
849.227	35.16
849.403	31.06
849.578	-16.04
849.753	47.44
849.929	61.78
850.104	59.73
850.279	33.11
850.454	-5.8
850.63	115.03
850.805	33.11
850.98	90.45
851.155	18.77
851.33	0.34
851.505	26.96
851.681	24.92
851.856	18.77
852.031	86.36
852.206	96.6
852.381	76.12
852.556	108.88
852.731	88.4
852.906	6.49
853.081	49.49
853.256	26.96
853.431	31.06
853.606	12.63
853.781	33.11
853.956	31.06
854.131	92.5
854.305	76.12
854.48	2.39
854.655	-40.62
854.83	-26.28
855.005	67.92
855.18	78.16
855.354	0.34
855.529	24.92
855.704	-30.38
855.879	53.59
856.053	69.97
856.228	41.3
856.403	12.63
856.577	59.73
856.752	61.78
856.926	135.51
857.101	6.49
857.276	-16.04
857.45	37.2
857.625	57.68
857.799	0.34
857.974	22.87
858.148	18.77
858.323	69.97
858.497	-18.09
858.672	41.3
858.846	35.16
859.02	88.4
859.195	20.82
859.369	31.06
859.543	-46.76
859.718	-22.19
859.892	65.88
860.066	41.3
860.241	35.16
860.415	0.34
860.589	72.02
860.763	45.4
860.938	33.11
861.112	2.39
861.286	41.3
861.46	24.92
861.634	82.26
861.808	67.92
861.982	45.4
862.157	29.01
862.331	33.11
862.505	-7.85
862.679	4.44
862.853	74.07
863.027	10.58
863.201	12.63
863.375	57.68
863.549	57.68
863.722	31.06
863.896	78.16
864.07	-5.8
864.244	84.31
864.418	26.96
864.592	37.2
864.766	10.58
864.939	24.92
865.113	69.97
865.287	4.44
865.461	45.4
865.634	33.11
865.808	2.39
865.982	4.44
866.156	8.53
866.329	41.3
866.503	59.73
866.676	26.96
866.85	4.44
867.024	82.26
867.197	123.22
867.371	51.54
867.544	74.07
867.718	49.49
867.891	37.2
868.065	43.35
868.238	-30.38
868.412	39.25
868.585	22.87
868.759	49.49
868.932	86.36
869.105	-26.28
869.279	35.16
869.452	29.01
869.625	65.88
869.799	86.36
869.972	16.73
870.145	57.68
870.319	24.92
870.492	69.97
870.665	-3.75
870.838	26.96
871.011	-36.52
871.185	8.53
871.358	35.16
871.531	106.84
871.704	4.44
871.877	4.44
872.05	47.44
872.223	35.16
872.396	37.2
872.569	8.53
872.742	22.87
872.915	4.44
873.088	-18.09
873.261	67.92
873.434	8.53
873.607	82.26
873.78	-11.95
873.953	41.3
874.126	49.49
874.299	78.16
874.471	14.68
874.644	-5.8
874.817	26.96
874.99	18.77
875.163	-34.47
875.335	76.12
875.508	18.77
875.681	41.3
875.853	-28.33
876.026	24.92
876.199	18.77
876.371	-16.04
876.544	29.01
876.717	-9.9
876.889	10.58
877.062	69.97
877.234	-7.85
877.407	16.73
877.579	69.97
877.752	-3.75
877.924	20.82
878.097	106.84
878.269	67.92
878.442	4.44
878.614	61.78
878.786	78.16
878.959	4.44
879.131	84.31
879.303	41.3
879.476	43.35
879.648	0.34
879.82	133.46
879.993	0.34
880.165	74.07
880.337	-32.43
880.509	92.5
880.681	-36.52
880.854	76.12
881.026	33.11
881.198	74.07
881.37	67.92
881.542	55.64
881.714	-24.23
881.886	-50.86
882.058	98.64
882.23	65.88
882.402	24.92
882.574	18.77
882.746	-48.81
882.918	41.3
883.09	12.63
883.262	8.53
883.434	-34.47
883.606	49.49
883.778	24.92
883.95	57.68
884.122	-5.8
884.293	0.34
884.465	-32.43
884.637	47.44
884.809	24.92
884.98	8.53
885.152	78.16
885.324	31.06
885.496	31.06
885.667	39.25
885.839	-16.04
886.011	-24.23
886.182	65.88
886.354	61.78
886.525	37.2
886.697	45.4
886.869	0.34
887.04	63.83
887.212	37.2
887.383	29.01
887.555	-18.09
887.726	37.2
887.897	8.53
888.069	26.96
888.24	-1.71
888.412	65.88
888.583	65.88
888.754	33.11
888.926	55.64
889.097	45.4
889.268	-20.14
889.44	8.53
889.611	35.16
889.782	35.16
889.953	29.01
890.125	51.54
890.296	24.92
890.467	-7.85
890.638	-18.09
890.809	106.84
890.98	8.53
891.151	35.16
891.323	69.97
891.494	67.92
891.665	115.03
891.836	16.73
892.007	16.73
892.178	164.18
892.349	29.01
892.52	33.11
892.691	92.5
892.862	45.4
893.032	53.59
893.203	-24.23
893.374	-7.85
893.545	57.68
893.716	-3.75
893.887	18.77
894.057	-5.8
894.228	43.35
894.399	49.49
894.57	6.49
894.74	43.35
894.911	41.3
895.082	22.87
895.253	-46.76
895.423	57.68
895.594	33.11
895.764	49.49
895.935	63.83
896.106	63.83
896.276	-16.04
896.447	0.34
896.617	-11.95
896.788	-11.95
896.958	-73.39
897.129	-1.71
897.299	-54.95
897.47	24.92
897.64	47.44
897.81	78.16
897.981	74.07
898.151	2.39
898.322	61.78
898.492	26.96
898.662	37.2
898.832	8.53
899.003	-26.28
899.173	22.87
899.343	16.73
899.513	65.88
