Data from USB4F104151__197__13-59-40-266.txt Node

Date: Thu Mar 13 13:59:40 EDT 2025
User: louis
Spectrometer: USB4F10415
Trigger mode: 4
Integration Time (sec): 1.000000E-2
Scans to average: 1
Electric dark correction enabled: true
Nonlinearity correction enabled: false
Boxcar width: 0
XAxis mode: Wavelengths
Number of Pixels in Spectrum: 3648
>>>>>Begin Spectral Data<<<<<
178.204	-83.63
178.424	-83.63
178.644	-83.63
178.864	-7.85
179.084	-50.86
179.304	-3.75
179.524	-3.75
179.744	18.77
179.964	-7.85
180.184	-69.29
180.404	29.01
180.624	-30.38
180.844	76.12
181.064	4.44
181.283	-11.95
181.503	-65.19
181.723	63.83
181.943	-52.91
182.163	35.16
182.383	-22.19
182.602	24.92
182.822	-65.19
183.042	-61.1
183.262	-5.8
183.482	-20.14
183.701	16.73
183.921	84.31
184.141	-34.47
184.361	-44.71
184.58	31.06
184.8	6.49
185.02	12.63
185.239	16.73
185.459	-81.58
185.679	-28.33
185.898	-61.1
186.118	22.87
186.338	20.82
186.557	31.06
186.777	20.82
186.997	74.07
187.216	18.77
187.436	45.4
187.655	-11.95
187.875	-11.95
188.095	-9.9
188.314	-3.75
188.534	-22.19
188.753	-7.85
188.973	112.98
189.192	-36.52
189.412	-20.14
189.631	33.11
189.851	6.49
190.07	24.92
190.29	-73.39
190.509	29.01
190.729	14.68
190.948	2.39
191.168	69.97
191.387	98.64
191.607	-18.09
191.826	18.77
192.045	45.4
192.265	31.06
192.484	4.44
192.704	39.25
192.923	-59.05
193.142	37.2
193.362	31.06
193.581	45.4
193.8	-20.14
194.02	33.11
194.239	65.88
194.458	49.49
194.678	-34.47
194.897	16.73
195.116	2.39
195.335	39.25
195.555	41.3
195.774	39.25
195.993	31.06
196.212	20.82
196.432	-3.75
196.651	57.68
196.87	24.92
197.089	72.02
197.308	37.2
197.528	43.35
197.747	-9.9
197.966	53.59
198.185	39.25
198.404	53.59
198.623	49.49
198.842	0.34
199.062	78.16
199.281	24.92
199.5	82.26
199.719	33.11
199.938	43.35
200.157	-26.28
200.376	-11.95
200.595	-16.04
200.814	31.06
201.033	-3.75
201.252	47.44
201.471	129.36
201.69	12.63
201.909	20.82
202.128	55.64
202.347	-32.43
202.566	-26.28
202.785	35.16
203.004	18.77
203.223	37.2
203.442	41.3
203.661	22.87
203.879	41.3
204.098	26.96
204.317	-7.85
204.536	43.35
204.755	51.54
204.974	33.11
205.193	37.2
205.411	106.84
205.63	39.25
205.849	82.26
206.068	39.25
206.287	29.01
206.505	29.01
206.724	2.39
206.943	61.78
207.162	49.49
207.381	37.2
207.599	-16.04
207.818	20.82
208.037	29.01
208.255	14.68
208.474	-7.85
208.693	69.97
208.911	-9.9
209.13	-9.9
209.349	35.16
209.567	-11.95
209.786	69.97
210.005	12.63
210.223	-9.9
210.442	24.92
210.661	61.78
210.879	39.25
211.098	74.07
211.316	74.07
211.535	119.12
211.753	82.26
211.972	31.06
212.191	-34.47
212.409	26.96
212.628	22.87
212.846	69.97
213.065	22.87
213.283	63.83
213.502	2.39
213.72	31.06
213.938	69.97
214.157	20.82
214.375	26.96
214.594	39.25
214.812	45.4
215.031	35.16
215.249	-11.95
215.467	-9.9
215.686	-3.75
215.904	39.25
216.122	-9.9
216.341	74.07
216.559	51.54
216.778	49.49
216.996	-32.43
217.214	0.34
217.432	16.73
217.651	26.96
217.869	31.06
218.087	-9.9
218.306	94.55
218.524	4.44
218.742	33.11
218.96	-1.71
219.179	57.68
219.397	41.3
219.615	59.73
219.833	14.68
220.051	18.77
220.27	-7.85
220.488	69.97
220.706	51.54
220.924	31.06
221.142	45.4
221.36	8.53
221.578	8.53
221.796	12.63
222.015	35.16
222.233	10.58
222.451	37.2
222.669	-42.67
222.887	4.44
223.105	47.44
223.323	6.49
223.541	-9.9
223.759	6.49
223.977	37.2
224.195	90.45
224.413	94.55
224.631	39.25
224.849	41.3
225.067	76.12
225.285	24.92
225.503	-44.71
225.721	20.82
225.939	22.87
226.157	45.4
226.375	112.98
226.592	4.44
226.81	26.96
227.028	-9.9
227.246	-18.09
227.464	53.59
227.682	74.07
227.9	4.44
228.117	-7.85
228.335	-16.04
228.553	37.2
228.771	-1.71
228.989	57.68
229.206	20.82
229.424	-52.91
229.642	20.82
229.86	22.87
230.077	20.82
230.295	-1.71
230.513	6.49
230.731	104.79
230.948	35.16
231.166	-30.38
231.384	33.11
231.601	49.49
231.819	65.88
232.037	6.49
232.254	22.87
232.472	112.98
232.689	-42.67
232.907	-18.09
233.125	51.54
233.342	72.02
233.56	-9.9
233.777	29.01
233.995	20.82
234.213	16.73
234.43	-18.09
234.648	24.92
234.865	41.3
235.083	10.58
235.3	6.49
235.518	2.39
235.735	39.25
235.953	24.92
236.17	20.82
236.388	22.87
236.605	47.44
236.822	-20.14
237.04	26.96
237.257	31.06
237.475	-5.8
237.692	39.25
237.909	61.78
238.127	53.59
238.344	14.68
238.562	-13.99
238.779	-50.86
238.996	14.68
239.214	-13.99
239.431	26.96
239.648	-7.85
239.865	18.77
240.083	53.59
240.3	14.68
240.517	-16.04
240.735	16.73
240.952	133.46
241.169	61.78
241.386	2.39
241.603	10.58
241.821	39.25
242.038	69.97
242.255	37.2
242.472	-89.77
242.689	98.64
242.907	102.74
243.124	-3.75
243.341	69.97
243.558	-50.86
243.775	33.11
243.992	-36.52
244.209	6.49
244.426	80.21
244.643	43.35
244.86	-28.33
245.078	20.82
245.295	-48.81
245.512	14.68
245.729	2.39
245.946	57.68
246.163	-20.14
246.38	59.73
246.597	31.06
246.814	4.44
247.031	8.53
247.248	-44.71
247.464	57.68
247.681	24.92
247.898	61.78
248.115	6.49
248.332	41.3
248.549	0.34
248.766	-13.99
248.983	55.64
249.2	24.92
249.417	0.34
249.633	72.02
249.85	35.16
250.067	-34.47
250.284	63.83
250.501	72.02
250.717	86.36
250.934	20.82
251.151	-20.14
251.368	-26.28
251.585	41.3
251.801	33.11
252.018	82.26
252.235	45.4
252.451	-3.75
252.668	12.63
252.885	33.11
253.102	76.12
253.318	53.59
253.535	-18.09
253.752	14.68
253.968	-22.19
254.185	14.68
254.401	0.34
254.618	-1.71
254.835	45.4
255.051	6.49
255.268	35.16
255.484	47.44
255.701	-13.99
255.917	4.44
256.134	-48.81
256.351	104.79
256.567	20.82
256.784	51.54
257	61.78
257.217	-16.04
257.433	6.49
257.65	22.87
257.866	-5.8
258.082	65.88
258.299	-24.23
258.515	-24.23
258.732	41.3
258.948	24.92
259.165	-16.04
259.381	78.16
259.597	98.64
259.814	33.11
260.03	-3.75
260.246	80.21
260.463	65.88
260.679	59.73
260.895	2.39
261.112	49.49
261.328	72.02
261.544	-36.52
261.761	39.25
261.977	39.25
262.193	-20.14
262.409	45.4
262.626	43.35
262.842	55.64
263.058	6.49
263.274	121.17
263.49	84.31
263.707	102.74
263.923	47.44
264.139	20.82
264.355	-1.71
264.571	57.68
264.787	37.2
265.004	20.82
265.22	0.34
265.436	-3.75
265.652	-13.99
265.868	49.49
266.084	-13.99
266.3	-9.9
266.516	-18.09
266.732	88.4
266.948	-11.95
267.164	29.01
267.38	-26.28
267.596	29.01
267.812	74.07
268.028	37.2
268.244	-44.71
268.46	69.97
268.676	8.53
268.892	-28.33
269.108	-34.47
269.324	65.88
269.54	-54.95
269.756	26.96
269.972	63.83
270.188	35.16
270.403	-11.95
270.619	10.58
270.835	12.63
271.051	45.4
271.267	2.39
271.483	35.16
271.698	39.25
271.914	49.49
272.13	14.68
272.346	59.73
272.562	-3.75
272.777	88.4
272.993	74.07
273.209	37.2
273.425	-3.75
273.64	61.78
273.856	-18.09
274.072	29.01
274.287	-32.43
274.503	4.44
274.719	35.16
274.934	65.88
275.15	-13.99
275.366	88.4
275.581	63.83
275.797	59.73
276.012	72.02
276.228	-1.71
276.444	-11.95
276.659	37.2
276.875	14.68
277.09	26.96
277.306	10.58
277.521	90.45
277.737	-24.23
277.952	61.78
278.168	12.63
278.383	20.82
278.599	-9.9
278.814	47.44
279.03	53.59
279.245	41.3
279.461	65.88
279.676	37.2
279.892	49.49
280.107	-20.14
280.322	49.49
280.538	20.82
280.753	-54.95
280.969	90.45
281.184	-5.8
281.399	4.44
281.615	12.63
281.83	45.4
282.045	6.49
282.26	65.88
282.476	-1.71
282.691	82.26
282.906	31.06
283.122	16.73
283.337	-11.95
283.552	0.34
283.767	65.88
283.983	16.73
284.198	69.97
284.413	37.2
284.628	-7.85
284.843	20.82
285.058	37.2
285.274	14.68
285.489	14.68
285.704	88.4
285.919	22.87
286.134	2.39
286.349	84.31
286.564	45.4
286.779	37.2
286.995	90.45
287.21	-1.71
287.425	22.87
287.64	22.87
287.855	4.44
288.07	94.55
288.285	61.78
288.5	31.06
288.715	-28.33
288.93	57.68
289.145	20.82
289.36	57.68
289.575	61.78
289.79	24.92
290.004	43.35
290.219	41.3
290.434	20.82
290.649	49.49
290.864	-1.71
291.079	-3.75
291.294	37.2
291.509	12.63
291.724	76.12
291.938	86.36
292.153	8.53
292.368	6.49
292.583	24.92
292.798	35.16
293.012	65.88
293.227	-26.28
293.442	33.11
293.657	12.63
293.871	14.68
294.086	84.31
294.301	90.45
294.516	29.01
294.73	20.82
294.945	43.35
295.16	-36.52
295.374	-9.9
295.589	84.31
295.804	39.25
296.018	61.78
296.233	49.49
296.447	-46.76
296.662	94.55
296.877	18.77
297.091	22.87
297.306	-1.71
297.52	63.83
297.735	4.44
297.949	61.78
298.164	72.02
298.378	-11.95
298.593	39.25
298.807	-13.99
299.022	100.69
299.236	24.92
299.451	22.87
299.665	74.07
299.88	14.68
300.094	-42.67
300.309	47.44
300.523	41.3
300.737	-1.71
300.952	63.83
301.166	47.44
301.381	35.16
301.595	-7.85
301.809	-11.95
302.024	37.2
302.238	12.63
302.452	102.74
302.667	0.34
302.881	10.58
303.095	-13.99
303.309	4.44
303.524	37.2
303.738	22.87
303.952	82.26
304.166	33.11
304.381	31.06
304.595	14.68
304.809	-22.19
305.023	61.78
305.237	49.49
305.452	65.88
305.666	22.87
305.88	102.74
306.094	-3.75
306.308	49.49
306.522	65.88
306.736	20.82
306.95	57.68
307.164	22.87
307.379	57.68
307.593	65.88
307.807	20.82
308.021	18.77
308.235	-11.95
308.449	39.25
308.663	0.34
308.877	6.49
309.091	14.68
309.305	12.63
309.519	-9.9
309.733	80.21
309.947	31.06
310.161	67.92
310.374	2.39
310.588	63.83
310.802	31.06
311.016	12.63
311.23	63.83
311.444	69.97
311.658	-1.71
311.872	39.25
312.085	20.82
312.299	127.32
312.513	-1.71
312.727	6.49
312.941	26.96
313.154	84.31
313.368	82.26
313.582	82.26
313.796	59.73
314.009	29.01
314.223	80.21
314.437	39.25
314.651	92.5
314.864	20.82
315.078	90.45
315.292	41.3
315.505	47.44
315.719	22.87
315.933	-34.47
316.146	41.3
316.36	53.59
316.573	24.92
316.787	22.87
317.001	33.11
317.214	8.53
317.428	22.87
317.641	29.01
317.855	18.77
318.068	0.34
318.282	33.11
318.495	2.39
318.709	-5.8
318.922	63.83
319.136	39.25
319.349	-3.75
319.563	45.4
319.776	-11.95
319.99	-24.23
320.203	-7.85
320.417	4.44
320.63	35.16
320.843	78.16
321.057	8.53
321.27	-7.85
321.483	16.73
321.697	53.59
321.91	45.4
322.124	94.55
322.337	31.06
322.55	20.82
322.763	94.55
322.977	53.59
323.19	45.4
323.403	31.06
323.617	4.44
323.83	61.78
324.043	0.34
324.256	31.06
324.469	12.63
324.683	0.34
324.896	24.92
325.109	6.49
325.322	-44.71
325.535	88.4
325.748	-3.75
325.962	94.55
326.175	37.2
326.388	-11.95
326.601	106.84
326.814	131.41
327.027	37.2
327.24	112.98
327.453	88.4
327.666	162.13
327.879	78.16
328.092	29.01
328.305	18.77
328.518	31.06
328.731	61.78
328.944	63.83
329.157	84.31
329.37	12.63
329.583	106.84
329.796	78.16
330.009	22.87
330.222	-3.75
330.435	35.16
330.648	18.77
330.861	80.21
331.073	90.45
331.286	33.11
331.499	98.64
331.712	-5.8
331.925	121.17
332.138	33.11
332.35	74.07
332.563	96.6
332.776	59.73
332.989	-5.8
333.202	22.87
333.414	18.77
333.627	-5.8
333.84	49.49
334.053	2.39
334.265	39.25
334.478	24.92
334.691	37.2
334.903	69.97
335.116	74.07
335.329	92.5
335.541	39.25
335.754	100.69
335.966	82.26
336.179	39.25
336.392	4.44
336.604	53.59
336.817	98.64
337.029	65.88
337.242	20.82
337.454	94.55
337.667	55.64
337.88	33.11
338.092	55.64
338.305	145.75
338.517	20.82
338.729	67.92
338.942	26.96
339.154	88.4
339.367	-13.99
339.579	90.45
339.792	-11.95
340.004	121.17
340.217	-48.81
340.429	22.87
340.641	61.78
340.854	18.77
341.066	45.4
341.278	10.58
341.491	41.3
341.703	74.07
341.915	33.11
342.128	76.12
342.34	45.4
342.552	-11.95
342.764	80.21
342.977	76.12
343.189	14.68
343.401	12.63
343.613	49.49
343.826	57.68
344.038	47.44
344.25	-9.9
344.462	78.16
344.674	29.01
344.886	45.4
345.099	33.11
345.311	74.07
345.523	135.51
345.735	-28.33
345.947	74.07
346.159	63.83
346.371	55.64
346.583	22.87
346.795	76.12
347.007	86.36
347.219	96.6
347.431	6.49
347.643	53.59
347.855	35.16
348.067	14.68
348.279	29.01
348.491	53.59
348.703	-28.33
348.915	112.98
349.127	6.49
349.339	86.36
349.551	8.53
349.763	86.36
349.975	24.92
350.187	33.11
350.399	45.4
350.61	29.01
350.822	8.53
351.034	69.97
351.246	22.87
351.458	80.21
351.669	10.58
351.881	41.3
352.093	53.59
352.305	22.87
352.517	12.63
352.728	96.6
352.94	29.01
353.152	72.02
353.363	-7.85
353.575	22.87
353.787	178.51
353.999	31.06
354.21	45.4
354.422	8.53
354.633	65.88
354.845	53.59
355.057	33.11
355.268	-3.75
355.48	22.87
355.692	26.96
355.903	-3.75
356.115	8.53
356.326	-3.75
356.538	78.16
356.749	39.25
356.961	96.6
357.172	33.11
357.384	35.16
357.595	35.16
357.807	20.82
358.018	49.49
358.23	69.97
358.441	24.92
358.653	61.78
358.864	24.92
359.075	12.63
359.287	51.54
359.498	49.49
359.709	-16.04
359.921	-9.9
360.132	53.59
360.344	88.4
360.555	39.25
360.766	100.69
360.977	-24.23
361.189	4.44
361.4	53.59
361.611	80.21
361.823	65.88
362.034	-52.91
362.245	24.92
362.456	10.58
362.667	14.68
362.879	24.92
363.09	39.25
363.301	98.64
363.512	47.44
363.723	-7.85
363.935	31.06
364.146	90.45
364.357	24.92
364.568	29.01
364.779	16.73
364.99	63.83
365.201	53.59
365.412	63.83
365.623	-3.75
365.834	119.12
366.045	35.16
366.256	88.4
366.467	80.21
366.678	100.69
366.889	41.3
367.1	43.35
367.311	78.16
367.522	61.78
367.733	47.44
367.944	98.64
368.155	18.77
368.366	24.92
368.577	72.02
368.788	53.59
368.999	67.92
369.209	6.49
369.42	78.16
369.631	49.49
369.842	82.26
370.053	37.2
370.264	16.73
370.474	119.12
370.685	96.6
370.896	-5.8
371.107	39.25
371.317	72.02
371.528	51.54
371.739	90.45
371.95	20.82
372.16	63.83
372.371	-7.85
372.582	82.26
372.792	108.88
373.003	53.59
373.214	57.68
373.424	100.69
373.635	2.39
373.846	18.77
374.056	22.87
374.267	69.97
374.477	37.2
374.688	86.36
374.898	33.11
375.109	96.6
375.319	82.26
375.53	45.4
375.74	96.6
375.951	100.69
376.161	45.4
376.372	33.11
376.582	33.11
376.793	164.18
377.003	20.82
377.214	106.84
377.424	53.59
377.635	80.21
377.845	67.92
378.055	61.78
378.266	-11.95
378.476	80.21
378.686	33.11
378.897	69.97
379.107	80.21
379.317	57.68
379.528	78.16
379.738	115.03
379.948	35.16
380.158	69.97
380.369	51.54
380.579	90.45
380.789	90.45
380.999	6.49
381.21	74.07
381.42	14.68
381.63	57.68
381.84	55.64
382.05	86.36
382.261	-16.04
382.471	35.16
382.681	80.21
382.891	100.69
383.101	129.36
383.311	61.78
383.521	-20.14
383.731	65.88
383.941	53.59
384.151	84.31
384.361	63.83
384.571	76.12
384.781	37.2
384.991	47.44
385.201	86.36
385.411	43.35
385.621	6.49
385.831	45.4
386.041	88.4
386.251	4.44
386.461	98.64
386.671	96.6
386.881	65.88
387.091	-24.23
387.301	86.36
387.511	43.35
387.72	63.83
387.93	43.35
388.14	22.87
388.35	14.68
388.56	78.16
388.769	78.16
388.979	45.4
389.189	47.44
389.399	90.45
389.609	35.16
389.818	61.78
390.028	39.25
390.238	26.96
390.447	53.59
390.657	115.03
390.867	121.17
391.076	20.82
391.286	33.11
391.496	51.54
391.705	158.03
391.915	94.55
392.125	100.69
392.334	65.88
392.544	51.54
392.753	115.03
392.963	160.08
393.172	80.21
393.382	55.64
393.591	80.21
393.801	102.74
394.01	104.79
394.22	115.03
394.429	82.26
394.639	63.83
394.848	49.49
395.058	127.32
395.267	102.74
395.477	20.82
395.686	123.22
395.895	131.41
396.105	98.64
396.314	102.74
396.524	55.64
396.733	78.16
396.942	131.41
397.152	125.27
397.361	90.45
397.57	72.02
397.78	80.21
397.989	106.84
398.198	121.17
398.407	-1.71
398.617	74.07
398.826	74.07
399.035	133.46
399.244	104.79
399.453	192.85
399.663	123.22
399.872	80.21
400.081	145.75
400.29	164.18
400.499	78.16
400.708	119.12
400.917	137.56
401.127	115.03
401.336	94.55
401.545	104.79
401.754	123.22
401.963	121.17
402.172	82.26
402.381	164.18
402.59	141.65
402.799	135.51
403.008	198.99
403.217	147.8
403.426	186.71
403.635	194.9
403.844	190.8
404.053	147.8
404.262	102.74
404.471	178.51
404.68	131.41
404.888	121.17
405.097	164.18
405.306	229.71
405.515	123.22
405.724	207.19
405.933	176.47
406.142	225.62
406.35	231.76
406.559	239.95
406.768	160.08
406.977	211.28
407.185	207.19
407.394	287.06
407.603	229.71
407.812	229.71
408.02	266.58
408.229	219.47
408.438	280.91
408.646	250.19
408.855	250.19
409.064	299.34
409.272	297.3
409.481	299.34
409.69	360.78
409.898	317.78
410.107	364.88
410.315	344.4
410.524	311.63
410.733	459.09
410.941	397.65
411.15	504.14
411.358	442.7
411.567	405.84
411.775	420.17
411.984	479.57
412.192	495.95
412.401	467.28
412.609	541.01
412.818	549.2
413.026	512.33
413.234	520.53
413.443	526.67
413.651	610.64
413.86	641.36
414.068	774.47
414.276	692.55
414.485	721.23
414.693	792.91
414.901	792.91
415.11	848.2
415.318	833.86
415.526	952.65
415.734	919.88
415.943	866.63
416.151	1034.57
416.359	891.21
416.567	1036.61
416.776	1040.71
416.984	1036.61
417.192	1042.76
417.4	1104.2
417.608	1067.33
417.817	1204.55
418.025	1206.59
418.233	1292.61
418.441	1272.13
418.649	1472.83
418.857	1364.29
419.065	1413.44
419.273	1511.74
419.481	1446.21
419.689	1614.14
419.897	1710.4
420.105	1722.68
420.313	1722.68
420.521	1823.03
420.729	1749.31
420.937	1880.38
421.145	2048.31
421.353	2081.08
421.561	2132.28
421.769	2265.39
421.977	2373.94
422.185	2257.2
422.393	2505.01
422.601	2674.99
422.809	2576.69
423.017	2642.22
423.224	2736.43
423.432	2890.03
423.64	2824.49
423.848	3074.34
424.056	3064.1
424.263	3229.99
424.471	3217.7
424.679	3369.25
424.887	3514.66
425.094	3565.85
425.302	3655.97
425.51	3741.98
425.718	3871
425.925	4006.17
426.133	4043.03
426.341	4145.43
426.548	4483.34
426.756	4403.47
426.964	4548.88
427.171	4731.15
427.379	4858.12
427.586	4962.57
427.794	5060.87
428.001	5427.46
428.209	5505.28
428.417	5335.3
428.624	5832.96
428.832	5804.28
429.039	5765.37
429.247	5841.15
429.454	6473.97
429.662	6578.42
429.869	6340.85
430.076	6858.99
430.284	6707.44
430.491	6873.32
430.699	7325.93
430.906	7299.3
431.114	7411.94
431.321	7583.97
431.528	7729.38
431.736	8351.96
431.943	8624.34
432.15	8515.8
432.358	8640.72
432.565	9146.57
432.772	8866
432.979	9345.22
433.187	9498.82
433.394	9568.45
433.601	10348.73
433.808	10363.06
434.016	10172.6
434.223	10731.7
434.43	11348.14
434.637	10838.19
434.844	11595.94
435.052	12064.93
435.259	11745.44
435.466	11962.53
435.673	11819.17
435.88	12533.91
436.087	13510.79
436.294	13328.52
436.501	13019.28
436.708	13320.33
436.915	13779.08
437.122	14409.85
437.329	14119.04
437.537	14700.66
437.743	15118.45
437.95	14764.15
438.157	15704.17
438.364	15904.87
438.571	16119.9
438.778	16109.66
438.985	17711.18
439.192	16906.32
439.399	17758.28
439.606	16949.33
439.813	18442.3
440.02	19327.02
440.227	18868.28
440.433	18628.67
440.64	19558.44
440.847	19253.3
441.054	19701.8
441.261	21069.84
441.467	20942.87
441.674	21162
441.881	22085.64
442.088	21829.64
442.294	21682.19
442.501	22427.65
442.708	22571
442.914	23326.71
443.121	24414.18
443.328	24008.68
443.534	25796.56
443.741	24850.39
443.948	24748
444.154	26279.88
444.361	25944.01
444.568	26169.29
444.774	26165.19
444.981	26570.69
445.187	27387.83
445.394	28436.39
445.6	28204.97
445.807	30893.95
446.013	29458.32
446.22	30316.42
446.426	31442.81
446.633	31336.31
446.839	32716.64
447.046	31225.72
447.252	32845.66
447.459	32972.64
447.665	32903.01
447.871	34262.86
448.078	35743.54
448.284	34051.92
448.491	35012.42
448.697	36480.81
448.903	36994.85
449.11	36949.79
449.316	36364.07
449.522	37302.04
449.728	38430.47
449.935	38584.07
450.141	38393.61
450.347	39317.25
450.553	38076.18
450.76	38491.91
450.966	39927.54
451.172	39331.58
451.378	40328.94
451.584	39894.77
451.791	40351.47
451.997	40472.3
452.203	41047.78
452.409	40980.2
452.615	41053.92
452.821	39352.06
453.027	39046.91
453.233	40640.23
453.44	39589.63
453.646	40161.01
453.852	39991.03
454.058	40722.15
454.264	39499.51
454.47	40617.71
454.676	39360.25
454.882	40795.88
455.088	37228.32
455.294	38070.03
455.5	38440.71
455.705	38764.29
455.911	36972.32
456.117	36427.56
456.323	35653.43
456.529	34258.76
456.735	35790.64
456.941	35020.61
457.147	34205.52
457.352	32911.2
457.558	32931.68
457.764	32927.58
457.97	32038.76
458.176	31426.42
458.381	31575.92
458.587	30201.74
458.793	30392.2
458.999	28432.29
459.204	30801.79
459.41	30037.9
459.616	27613.1
459.821	27928.49
460.027	27727.79
460.233	27199.41
460.438	25958.35
460.644	26443.71
460.85	25040.86
461.055	24653.79
461.261	24819.67
461.466	22661.12
461.672	22153.22
461.878	23603.18
462.083	21833.74
462.289	21651.47
462.494	21696.52
462.7	20537.37
462.905	19845.16
463.111	20807.7
463.316	20891.67
463.522	20461.6
463.727	20283.42
463.932	19992.61
464.138	20037.67
464.343	20264.99
464.549	19589.16
464.754	20398.11
464.959	20203.55
465.165	20310.05
465.37	19075.12
465.575	18866.23
465.781	19380.27
465.986	19470.38
466.191	18958.39
466.397	18536.51
466.602	17416.27
466.807	18309.18
467.012	18317.37
467.218	18272.32
467.423	17862.72
467.628	17938.5
467.833	18561.08
468.038	18188.35
468.244	17813.57
468.449	18315.33
468.654	17616.97
468.859	17764.42
469.064	17524.81
469.269	16779.35
469.474	17018.96
469.679	17307.73
469.885	16728.15
470.09	17086.54
470.295	16975.95
470.5	16556.12
470.705	16631.9
470.91	16267.36
471.115	16279.64
471.32	16597.08
471.525	16285.79
471.73	15917.15
471.935	15773.8
472.139	15126.64
472.344	15339.63
472.549	15163.5
472.754	15100.01
472.959	14809.2
473.164	14379.13
473.369	14286.97
473.574	14874.74
473.778	14618.74
473.983	14792.82
474.188	14475.38
474.393	13924.48
474.598	13852.8
474.802	13736.07
475.007	13500.55
475.212	13703.3
475.417	13287.56
475.621	13260.94
475.826	13381.77
476.031	13154.44
476.235	12710.04
476.44	12875.92
476.645	12411.03
476.849	12687.51
477.054	12599.45
477.259	12521.62
477.463	12304.54
477.668	12040.35
477.872	12230.81
478.077	11884.7
478.282	11813.03
478.486	11669.67
478.691	11530.41
478.895	11514.02
479.1	11483.3
479.304	11704.48
479.509	10883.25
479.713	11298.98
479.918	11038.89
480.122	10870.96
480.326	11182.25
480.531	11061.42
480.735	10832.05
480.94	10709.17
481.144	11301.03
481.348	10617.01
481.553	10748.08
481.757	10729.65
481.961	10617.01
482.166	10813.62
482.37	10676.4
482.574	10516.66
482.778	10627.25
482.983	10739.89
483.187	10780.85
483.391	10604.72
483.595	10594.48
483.8	10262.71
484.004	10547.38
484.208	10854.58
484.412	10600.63
484.616	10784.94
484.821	10602.68
485.025	10526.9
485.229	10821.81
485.433	10549.43
485.637	10764.47
485.841	10358.97
486.045	10395.83
486.249	10629.3
486.453	10633.4
486.657	10518.71
486.861	10490.04
487.065	10332.34
487.269	10653.87
487.473	10369.21
487.677	10541.24
487.881	10725.55
488.085	10502.33
488.289	10578.1
488.493	10614.96
488.697	10639.54
488.901	10578.1
489.105	10641.59
489.309	10696.88
489.512	10834.1
489.716	10782.9
489.92	10623.16
490.124	10772.66
490.328	10926.25
490.531	10721.46
490.735	10944.69
490.939	11106.48
491.143	10887.34
491.346	10930.35
491.55	11040.94
491.754	11159.72
491.958	11266.22
492.161	11042.99
492.365	11159.72
492.569	11188.39
492.772	11292.84
492.976	11362.47
493.18	11337.9
493.383	11817.12
493.587	11589.8
493.79	11802.79
493.994	11694.24
494.197	11770.02
494.401	11843.74
494.605	11798.69
494.808	12259.48
495.012	12218.52
495.215	12212.38
495.419	12310.68
495.622	12210.33
495.825	12564.63
496.029	12529.81
496.232	12687.51
496.436	12759.19
496.639	13215.88
496.843	13002.89
497.046	13228.17
497.249	13340.81
497.453	13449.35
497.656	13551.75
497.859	13842.56
498.063	13932.67
498.266	14143.61
498.469	13949.06
498.673	14286.97
498.876	14499.96
499.079	14614.65
499.282	14512.25
499.485	14948.47
499.689	14977.14
499.892	15462.51
500.095	15423.59
500.298	15755.36
500.501	15765.6
500.705	16054.37
500.908	16339.04
501.111	16531.55
501.314	16412.76
501.517	16750.68
501.72	17047.63
501.923	17066.06
502.126	17582.15
502.329	17518.67
502.532	17647.69
502.735	17784.9
502.938	18184.26
503.141	18358.33
503.344	18858.04
503.547	18855.99
503.75	19116.08
503.953	19605.55
504.156	19709.99
504.359	19683.37
504.562	20068.39
504.765	20506.65
504.968	20508.7
505.17	20883.48
505.373	21022.74
505.576	21850.12
505.779	21717
505.982	21719.05
506.185	22511.61
506.387	22394.88
506.59	22736.89
506.793	23185.4
506.996	23220.21
507.198	23855.08
507.401	23681
507.604	24262.63
507.807	24571.87
508.009	24504.29
508.212	24887.26
508.415	25685.97
508.617	25595.85
508.82	26003.4
509.022	25989.06
509.225	26476.48
509.428	26742.72
509.63	27080.63
509.833	27097.02
510.035	27903.92
510.238	27912.11
510.44	28227.49
510.643	28913.56
510.845	28966.81
511.048	28841.89
511.25	29587.35
511.453	29616.02
511.655	30971.77
511.858	30470.02
512.06	30732.16
512.262	31563.64
512.465	31289.21
512.667	31938.41
512.87	32014.19
513.072	32311.14
513.274	33036.13
513.477	33421.14
513.679	33714
513.881	34285.39
514.084	34565.96
514.286	34461.51
514.488	34803.52
514.69	36044.59
514.893	35632.95
515.095	36257.58
515.297	36407.08
515.499	36691.75
515.701	37044
515.904	37676.82
516.106	37920.53
516.308	38397.71
516.51	39048.96
516.712	38663.94
516.914	39519.99
517.116	40115.95
517.318	40181.49
517.52	40277.74
517.722	41101.03
517.925	41357.02
518.127	41983.7
518.329	42077.91
518.531	42194.64
518.733	42708.68
518.935	43327.17
519.136	43515.58
519.338	44248.75
519.54	44320.43
519.742	44820.14
519.944	44859.05
520.146	45616.8
520.348	46083.73
520.55	46268.05
520.752	46354.07
520.954	47451.78
521.155	47117.96
521.357	47908.47
521.559	48035.45
521.761	48641.65
521.963	48502.39
522.164	48868.97
522.366	49321.57
522.568	49677.92
522.77	50187.86
522.971	50849.36
523.173	50742.86
523.375	50949.71
523.576	51037.77
523.778	51226.18
523.98	51852.86
524.181	52375.09
524.383	51467.84
524.584	52805.17
524.786	52698.67
524.988	52626.99
525.189	53296.68
525.391	53255.72
525.592	53911.07
525.794	54103.58
525.995	54625.81
526.197	54126.11
526.398	54468.12
526.6	54990.35
526.801	55367.18
527.003	55244.3
527.204	55565.83
527.406	55477.77
527.607	55723.52
527.808	56509.94
528.01	55477.77
528.211	56053.25
528.412	57177.58
528.614	56679.92
528.815	57091.57
529.016	56966.64
529.218	56604.15
529.419	56956.4
529.62	57173.48
529.822	57185.77
530.023	56999.41
530.224	57701.86
530.425	57183.72
530.626	57411.05
530.828	57118.19
531.029	58402.27
531.23	57742.82
531.431	57601.51
531.632	57769.44
531.833	58375.64
532.035	57648.61
532.236	58070.5
532.437	58996.18
532.638	58375.64
532.839	58418.65
533.04	58648.02
533.241	57912.8
533.442	58924.5
533.643	58654.17
533.844	58570.2
534.045	58869.2
534.246	58232.28
534.447	58840.53
534.648	58387.93
534.849	58881.49
535.05	58385.88
535.251	58861.01
535.451	58770.9
535.652	59090.38
535.853	59139.53
536.054	59059.66
536.255	59131.34
536.456	58416.6
536.657	59827.65
536.857	58899.92
537.058	58588.63
537.259	59168.21
537.46	59303.37
537.66	58684.89
537.861	59274.7
538.062	58756.56
538.263	58944.98
538.463	58701.27
538.664	59043.28
538.865	59078.1
539.065	58906.07
539.266	58576.34
539.466	59366.86
539.667	58469.85
539.868	59426.25
540.068	58781.14
540.269	59164.11
540.469	59461.07
540.67	58799.57
540.87	58842.58
541.071	58842.58
541.271	58863.06
541.472	58963.41
541.672	58512.86
541.873	59018.7
542.073	58377.69
542.274	59256.27
542.474	58310.11
542.675	58596.82
542.875	59295.18
543.075	59114.96
543.276	58125.79
543.476	59166.16
543.676	58424.79
543.877	58541.53
544.077	58934.74
544.277	58355.16
544.478	58664.41
544.678	58793.43
544.878	58547.67
545.078	58934.74
545.279	58441.18
545.479	58605.02
545.679	58420.7
545.879	58189.28
546.079	58277.34
546.28	58099.17
546.48	58109.41
546.68	58523.1
546.88	58498.52
547.08	58469.85
547.28	58357.21
547.48	58148.32
547.68	58697.17
547.88	57918.95
548.081	58660.31
548.281	58633.69
548.481	58088.93
548.681	58910.16
548.881	58197.47
549.081	58508.76
549.28	58588.63
549.48	58703.32
549.68	58461.66
549.88	59018.7
550.08	58136.03
550.28	58512.86
550.48	57992.67
550.68	58990.03
550.88	58258.91
551.08	58678.74
551.279	58244.57
551.479	58054.11
551.679	58125.79
551.879	57904.61
552.079	58172.89
552.278	57898.47
552.478	58220
552.678	58088.93
552.878	58123.74
553.077	58019.3
553.277	57583.08
553.477	58545.62
553.676	58246.62
553.876	58211.81
554.076	57728.48
554.275	57691.62
554.475	57251.31
554.674	57347.56
554.874	58207.71
555.074	57761.25
555.273	58025.44
555.473	57914.85
555.672	57619.94
555.872	57605.61
556.071	57957.86
556.271	57384.43
556.47	57191.92
556.67	57466.34
556.869	57439.72
557.068	57247.21
557.268	57191.92
557.467	57411.05
557.667	57263.6
557.866	57157.1
558.065	56702.45
558.265	56862.19
558.464	56804.85
558.663	57482.73
558.863	56380.92
559.062	57132.53
559.261	55954.94
559.461	56997.36
559.66	56409.59
559.859	56632.82
560.058	56382.97
560.258	56456.7
560.457	56067.58
560.656	56102.4
560.855	56393.21
561.054	56552.95
561.253	56169.98
561.453	56034.81
561.652	56251.9
561.851	56255.99
562.05	56057.34
562.249	55520.77
562.448	55913.98
562.647	56040.96
562.846	55623.17
563.045	55764.48
563.244	55064.08
563.443	55717.38
563.642	54906.38
563.841	55301.64
564.04	55221.77
564.239	55909.89
564.438	55406.09
564.637	55445
564.836	55264.78
565.035	54894.1
565.234	55264.78
565.432	54738.45
565.631	55016.97
565.83	54871.57
566.029	54609.43
566.228	54558.23
566.427	54533.65
566.625	54760.98
566.824	53509.67
567.023	54500.89
567.222	53415.46
567.42	54527.51
567.619	53689.89
567.818	54085.15
568.016	53841.44
568.215	54191.64
568.414	53679.65
568.612	54267.42
568.811	53290.54
569.01	53321.26
569.208	53272.1
569.407	53741.09
569.605	52921.9
569.804	53585.44
570.002	53257.77
570.201	53151.27
570.4	52403.77
570.598	52684.34
570.797	52430.39
570.995	52923.95
571.193	52166.2
571.392	52602.42
571.59	52012.6
571.789	51994.17
571.987	51662.4
572.186	51955.26
572.384	51842.62
572.582	52108.86
572.781	51842.62
572.979	51326.53
573.177	51734.08
573.376	51676.74
573.574	51308.1
573.772	51134.03
573.971	50761.29
574.169	50904.65
574.367	50538.07
574.565	51029.58
574.763	50505.3
574.962	50245.21
575.16	49573.47
575.358	50245.21
575.556	49469.03
575.754	50880.08
575.952	49768.03
576.151	50064.99
576.349	49450.59
576.547	49485.41
576.745	49301.09
576.943	49677.92
577.141	49397.35
577.339	49180.26
577.537	48846.44
577.735	48823.92
577.933	48643.7
578.131	49014.38
578.329	48518.77
578.527	48008.82
578.725	48279.16
578.923	48125.56
579.121	48080.5
579.319	48141.94
579.516	47654.53
579.714	47677.05
579.912	47447.68
580.11	47300.23
580.308	47388.29
580.506	47253.12
580.704	46597.77
580.901	47165.06
581.099	47363.71
581.297	46495.38
581.495	46921.35
581.692	46675.6
581.89	46345.87
582.088	46694.03
582.285	46212.76
582.483	46509.71
582.681	46184.08
582.878	45770.39
583.076	45461.15
583.274	45958.81
583.471	44965.54
583.669	45297.31
583.866	44981.93
584.064	45293.22
584.262	44609.2
584.459	45059.75
584.657	44670.64
584.854	45295.27
585.052	44308.15
585.249	44514.99
585.447	44693.16
585.644	44248.75
585.841	44193.46
586.039	44273.33
586.236	43824.82
586.434	43878.07
586.631	43843.26
586.828	43876.02
587.026	43511.49
587.223	43642.56
587.42	43425.47
587.618	43132.61
587.815	42688.2
588.012	42614.48
588.21	42655.43
588.407	43228.87
588.604	42665.67
588.801	42247.89
588.999	42329.81
589.196	42446.54
589.393	42319.57
589.59	42049.24
589.787	41619.16
589.984	41893.59
590.182	41408.22
590.379	41965.27
590.576	41258.72
590.773	41338.59
590.97	41068.26
591.167	41440.99
591.364	41133.79
591.561	41273.06
591.758	40441.58
591.955	40410.86
592.152	40500.97
592.349	40013.55
592.546	40363.76
592.743	40718.06
592.94	39892.72
593.137	40369.9
593.334	40185.58
593.531	39458.56
593.727	39902.96
593.924	39841.53
594.121	39175.94
594.318	39489.27
594.515	38938.37
594.712	39515.9
594.908	39108.35
595.105	39057.15
595.302	38940.42
595.499	38706.95
595.696	38291.21
595.892	38293.26
596.089	38459.15
596.286	38483.72
596.482	38358.8
596.679	37998.35
596.876	38350.6
597.072	37535.51
597.269	37787.41
597.466	37791.51
597.662	37254.94
597.859	37750.55
598.055	37476.12
598.252	37207.84
598.448	37228.32
598.645	37052.19
598.841	36902.69
599.038	36964.13
599.234	36675.37
599.431	36790.05
599.627	36351.79
599.824	36931.36
600.02	36310.83
600.217	36615.97
600.413	36134.7
600.609	36235.05
600.806	35684.15
601.002	35909.43
601.198	35413.82
601.395	35229.5
601.591	35282.75
601.787	35157.82
601.984	35188.54
602.18	35542.84
602.376	35032.89
602.572	34832.19
602.769	34807.62
602.965	34625.35
603.161	34690.88
603.357	34463.56
603.553	34328.39
603.75	34647.88
603.946	33916.75
604.142	34273.1
604.338	33820.5
604.534	34064.21
604.73	33308.51
604.926	33425.24
605.122	33933.14
605.318	33574.74
605.514	33083.23
605.71	33341.27
605.906	32956.25
606.102	32733.03
606.298	32868.19
606.494	32896.86
606.69	32792.42
606.886	33091.42
607.082	32503.65
607.278	32399.21
607.474	32116.59
607.67	32380.78
607.866	31879.02
608.062	32616.29
608.257	31969.13
608.453	32092.01
608.649	31987.57
608.845	31510.39
609.041	31633.27
609.236	31823.73
609.432	31803.25
609.628	31334.26
609.824	31442.81
610.019	31014.78
610.215	31410.04
610.411	31172.47
610.606	30953.34
610.802	30820.22
610.998	30875.52
611.193	31037.31
611.389	30388.1
611.584	30580.61
611.78	30433.16
611.976	30289.8
612.171	30302.09
612.367	30435.2
612.562	30105.48
612.758	29761.42
612.953	30091.15
613.149	30019.47
613.344	29575.06
613.539	29886.35
613.735	29532.05
613.93	29726.61
614.126	29276.05
614.321	29607.83
614.517	29505.43
614.712	29224.86
614.907	29364.12
615.103	29642.64
615.298	29343.64
615.493	29247.38
615.688	28655.52
615.884	29132.7
616.079	28592.03
616.274	28843.93
616.47	28446.63
616.665	28983.2
616.86	28059.56
617.055	28557.22
617.25	27934.64
617.445	28311.46
617.641	28225.45
617.836	27832.24
618.031	27793.33
618.226	27862.96
618.421	27750.32
618.616	27787.18
618.811	27320.24
619.006	27703.21
619.201	26879.93
619.396	27486.13
619.591	26943.42
619.786	27199.41
619.981	26431.43
620.176	26953.66
620.371	26617.79
620.566	26394.56
620.761	26286.02
620.956	26513.34
621.151	26187.72
621.346	26632.13
621.541	25675.73
621.735	26032.07
621.93	25393.11
622.125	25495.5
622.32	25438.16
622.515	25673.68
622.709	25325.52
622.904	24840.15
623.099	24750.04
623.294	24922.07
623.488	24649.69
623.683	24799.19
623.878	24190.95
624.072	24360.93
624.267	23990.25
624.462	24143.84
624.656	23961.58
624.851	24002.54
625.046	23629.8
625.24	23525.36
625.435	23203.83
625.629	23314.42
625.824	22933.5
626.018	23289.84
626.213	22523.9
626.407	22935.54
626.602	22614.01
626.796	22536.19
626.991	22448.13
627.185	22284.29
627.38	22067.2
627.574	22011.91
627.768	21794.82
627.963	21858.31
628.157	21725.19
628.352	21858.31
628.546	21514.25
628.74	21493.77
628.935	21270.54
629.129	21119
629.323	20828.18
629.517	21071.89
629.712	20672.54
629.906	20885.53
630.1	20541.47
630.294	20570.14
630.489	20559.9
630.683	20576.28
630.877	20193.31
631.071	20197.41
631.265	19996.71
631.459	19755.05
631.653	19619.88
631.848	19857.45
632.042	19529.77
632.236	19687.46
632.43	19322.93
632.624	19519.53
632.818	19150.9
633.012	19093.55
633.206	19144.75
633.4	18888.76
633.594	18767.93
633.788	18855.99
633.982	18786.36
634.176	18602.04
634.369	18509.88
634.563	18126.91
634.757	18133.06
634.951	18260.03
635.145	18116.67
635.339	18255.93
635.533	17739.85
635.726	17793.09
635.92	17625.16
636.114	17762.37
636.308	17533
636.501	17510.47
636.695	17336.4
636.889	17616.97
637.083	17301.58
637.276	17242.19
637.47	17442.89
637.664	17315.92
637.857	17029.2
638.051	16963.67
638.244	16996.43
638.438	16818.26
638.632	16572.5
638.825	16506.97
639.019	16406.62
639.212	16293.98
639.406	16203.87
639.599	16154.72
639.793	16021.6
639.986	15808.61
640.18	15788.13
640.373	15673.45
640.567	15710.31
640.76	15849.57
640.954	15530.09
641.147	15372.39
641.34	15267.95
641.534	15427.69
641.727	15372.39
641.92	15081.58
642.114	15087.73
642.307	15116.4
642.5	14952.56
642.694	14884.98
642.887	14694.52
643.08	14983.28
643.273	14622.84
643.467	14592.12
643.66	14522.49
643.853	14090.37
644.046	14459
644.239	14260.35
644.432	14213.24
644.626	14096.51
644.819	14073.98
645.012	13883.52
645.205	13940.86
645.398	13961.34
645.591	13795.46
645.784	13658.24
645.977	13613.19
646.17	13465.74
646.363	13156.49
646.556	13181.07
646.749	13234.32
646.942	13047.95
647.135	13058.19
647.328	13131.92
647.521	12820.63
647.714	12949.65
647.907	12880.02
648.099	12531.86
648.292	12564.63
648.485	12562.58
648.678	12400.79
648.871	12531.86
649.064	12282.01
649.256	12304.54
649.449	12191.9
649.642	12101.79
649.835	11993.25
650.027	11720.87
650.22	12046.49
650.413	11690.15
650.605	11915.42
650.798	11696.29
650.991	11450.53
651.183	11751.59
651.376	11407.53
651.568	11290.79
651.761	11352.23
651.954	11215.02
652.146	11065.52
652.339	10936.49
652.531	10948.78
652.724	11051.18
652.916	10825.9
653.109	10770.61
653.301	10754.23
653.494	10682.55
653.686	10418.36
653.879	10604.72
654.071	10510.52
654.263	10490.04
654.456	10285.24
654.648	10199.23
654.84	9953.47
655.033	10125.5
655.225	10066.11
655.417	9861.31
655.61	9900.22
655.802	9930.94
655.994	9760.96
656.186	9763.01
656.379	9562.31
656.571	9490.63
656.763	9386.18
656.955	9457.86
657.148	9410.76
657.34	9269.45
657.532	9154.76
657.724	8925.39
657.916	9154.76
658.108	8933.58
658.3	8878.29
658.492	8870.09
658.684	8749.26
658.876	8790.22
659.068	8526.04
659.26	8839.37
659.452	8753.36
659.644	8446.16
659.836	8366.29
660.028	8390.87
660.22	8196.31
660.412	8251.61
660.604	8239.32
660.796	8222.94
660.988	8186.07
661.18	7903.45
661.372	7936.22
661.563	8024.28
661.755	7717.09
661.947	7684.32
662.139	7786.72
662.331	7659.74
662.522	7727.33
662.714	7653.6
662.906	7336.17
663.097	7278.82
663.289	7307.49
663.481	7350.5
663.673	7297.25
663.864	7260.39
664.056	7188.71
664.247	7141.61
664.439	6969.58
664.631	7026.92
664.822	6977.77
665.014	6994.15
665.205	6875.37
665.397	6879.47
665.588	6721.77
665.78	6686.96
665.971	6815.98
666.163	6758.64
666.354	6664.43
666.546	6594.8
666.737	6435.06
666.929	6494.45
667.12	6535.41
667.311	6324.47
667.503	6301.94
667.694	6293.75
667.885	6166.78
668.077	6183.16
668.268	6283.51
668.459	6250.74
668.651	6279.41
668.842	6099.19
669.033	5945.59
669.224	5882.11
669.416	5918.97
669.607	5984.51
669.798	5724.41
669.989	5828.86
670.18	5720.32
670.371	5710.08
670.563	5847.29
670.754	5812.48
670.945	5667.07
671.136	5622.02
671.327	5628.16
671.518	5583.1
671.709	5529.86
671.9	5613.82
672.091	5472.51
672.282	5552.38
672.473	5439.75
672.664	5298.44
672.855	5466.37
673.046	5396.74
673.237	5423.36
673.428	5386.5
673.619	5341.44
673.809	5310.72
674	5173.51
674.191	5273.86
674.382	5103.88
674.573	5232.9
674.764	4989.19
674.954	5206.28
675.145	5050.63
675.336	5050.63
675.527	5085.45
675.717	5026.06
675.908	4921.61
676.099	5073.16
676.289	5009.67
676.48	4919.56
676.671	4935.95
676.861	4978.95
677.052	4784.4
677.243	4792.59
677.433	4804.88
677.624	5071.11
677.814	4778.25
678.005	4800.78
678.195	4811.02
678.386	4727.05
678.576	4720.91
678.767	4776.2
678.957	4653.33
679.148	4665.61
679.338	4550.93
679.529	4614.41
679.719	4559.12
679.909	4606.22
680.1	4587.79
680.29	4512.02
680.481	4559.12
680.671	4546.83
680.861	4579.6
681.052	4585.74
681.242	4505.87
681.432	4520.21
681.622	4460.82
681.813	4507.92
682.003	4389.14
682.193	4299.03
682.383	4413.71
682.573	4339.99
682.764	4319.51
682.954	4296.98
683.144	4514.06
683.334	4280.6
683.524	4339.99
683.714	4368.66
683.904	4184.34
684.094	4374.8
684.284	4278.55
684.474	4337.94
684.664	4321.56
684.854	4282.64
685.044	4145.43
685.234	4253.97
685.424	4174.1
685.614	4225.3
685.804	4354.32
685.994	4208.92
686.184	4276.5
686.374	4249.88
686.564	4124.95
686.753	4135.19
686.943	4256.02
687.133	4096.28
687.323	4233.49
687.513	4077.85
687.702	4081.94
687.892	4172.05
688.082	4270.36
688.272	4241.68
688.461	4127
688.651	4083.99
688.841	4276.5
689.03	4116.76
689.22	4159.77
689.41	3967.26
689.599	3979.54
689.789	4096.28
689.979	4106.52
690.168	4122.9
690.358	4053.27
690.547	3957.02
690.737	3989.78
690.926	4124.95
691.116	3997.98
691.305	4186.39
691.495	4098.33
691.684	4014.36
691.874	4024.6
692.063	4012.31
692.252	3942.68
692.442	3940.63
692.631	4118.81
692.82	3963.16
693.01	3926.3
693.199	3952.92
693.388	3813.66
693.578	3977.5
693.767	3887.39
693.956	3823.9
694.146	3942.68
694.335	3991.83
694.524	3977.5
694.713	3946.78
694.902	3871
695.092	3932.44
695.281	3864.86
695.47	3846.43
695.659	3944.73
695.848	3875.1
696.037	3920.15
696.226	3973.4
696.415	3805.47
696.604	3858.71
696.793	3903.77
696.982	3780.89
697.171	3748.12
697.36	3801.37
697.549	3748.12
697.738	3694.88
697.927	3729.69
698.116	3809.56
698.305	3801.37
698.494	3782.94
698.683	3830.04
698.872	3739.93
699.061	3787.04
699.25	3793.18
699.438	3686.69
699.627	3766.56
699.816	3709.21
700.005	3694.88
700.193	3670.3
700.382	3715.36
700.571	3584.29
700.76	3696.92
700.948	3635.49
701.137	3512.61
701.326	3760.41
701.514	3653.92
701.703	3541.28
701.892	3660.06
702.08	3692.83
702.269	3516.7
702.457	3567.9
702.646	3414.31
702.834	3483.94
703.023	3430.69
703.212	3477.79
703.4	3541.28
703.589	3455.26
703.777	3565.85
703.965	3490.08
704.154	3432.74
704.342	3258.66
704.531	3338.53
704.719	3348.77
704.907	3342.63
705.096	3232.04
705.284	3240.23
705.472	3311.91
705.661	3199.27
705.849	3346.72
706.037	3279.14
706.226	3313.95
706.414	3277.09
706.602	3258.66
706.79	3178.79
706.979	3139.88
707.167	3184.93
707.355	3168.55
707.543	3182.88
707.731	3221.8
707.919	3275.04
708.107	3066.15
708.296	3053.86
708.484	3082.53
708.672	3035.43
708.86	3158.31
709.048	3066.15
709.236	3051.81
709.424	3133.73
709.612	2859.31
709.8	2988.33
709.988	2963.75
710.176	3019.05
710.364	2953.51
710.551	2871.59
710.739	2982.18
710.927	2783.53
711.115	2930.98
711.303	2865.45
711.491	2840.87
711.679	2828.59
711.866	2902.31
712.054	2681.13
712.242	2955.56
712.43	2908.46
712.617	2838.83
712.805	2687.28
712.993	2750.76
713.181	2744.62
713.368	2748.72
713.556	2771.24
713.744	2650.41
713.931	2607.41
714.119	2674.99
714.306	2627.89
714.494	2705.71
714.682	2677.04
714.869	2603.31
715.057	2558.25
715.244	2543.92
715.432	2578.73
715.619	2601.26
715.807	2466.1
715.994	2517.29
716.182	2545.97
716.369	2500.91
716.556	2556.21
716.744	2437.42
716.931	2312.5
717.119	2421.04
717.306	2527.53
717.493	2470.19
717.681	2388.27
717.868	2437.42
718.055	2310.45
718.242	2345.27
718.43	2431.28
718.617	2416.94
718.804	2330.93
718.991	2222.39
719.179	2214.2
719.366	2298.16
719.553	2275.63
719.74	2300.21
719.927	2273.59
720.114	2308.4
720.301	2171.19
720.488	2220.34
720.676	2234.68
720.863	2107.7
721.05	2253.11
721.237	2267.44
721.424	2224.44
721.611	2027.83
721.798	2128.18
721.985	2036.02
722.172	2134.32
722.358	2062.65
722.545	2126.13
722.732	2042.17
722.919	2046.26
723.106	2066.74
723.293	1968.44
723.48	2095.41
723.667	1968.44
723.853	1863.99
724.04	1945.91
724.227	1898.81
724.414	2009.4
724.6	2044.21
724.787	1970.49
724.974	1966.39
725.161	1913.14
725.347	1890.62
725.534	1984.82
725.72	1911.1
725.907	1896.76
726.094	2013.49
726.28	1843.51
726.467	1843.51
726.653	1833.27
726.84	1968.44
727.027	1925.43
727.213	1739.07
727.4	1978.68
727.586	1923.38
727.773	1794.36
727.959	1780.03
728.145	1798.46
728.332	1718.59
728.518	1632.57
728.705	1708.35
728.891	1741.11
729.077	1706.3
729.264	1659.2
729.45	1763.64
729.636	1749.31
729.823	1691.96
730.009	1673.53
730.195	1642.81
730.382	1636.67
730.568	1644.86
730.754	1704.25
730.94	1694.01
731.126	1622.33
731.313	1722.68
731.499	1616.19
731.685	1634.62
731.871	1614.14
732.057	1614.14
732.243	1536.32
732.429	1573.18
732.615	1661.24
732.801	1487.17
732.987	1577.28
733.173	1577.28
733.359	1546.56
733.545	1585.47
733.731	1532.22
733.917	1478.97
734.103	1546.56
734.289	1431.87
734.475	1493.31
734.661	1524.03
734.847	1388.86
735.033	1456.45
735.219	1505.6
735.404	1450.3
735.59	1429.82
735.776	1519.93
735.962	1409.34
736.148	1497.41
736.333	1378.62
736.519	1444.16
736.705	1362.24
736.89	1343.81
737.076	1372.48
737.262	1390.91
737.447	1446.21
737.633	1294.66
737.819	1446.21
738.004	1425.73
738.19	1329.47
738.375	1407.3
738.561	1284.42
738.747	1397.06
738.932	1323.33
739.118	1347.9
739.303	1306.95
739.489	1313.09
739.674	1306.95
739.859	1147.2
740.045	1286.47
740.23	1296.71
740.416	1196.36
740.601	1280.32
740.786	1290.56
740.972	1184.07
741.157	1249.6
741.342	1323.33
741.528	1251.65
741.713	1184.07
741.898	1165.64
742.084	1171.78
742.269	1251.65
742.454	1130.82
742.639	1153.35
742.824	1179.97
743.01	1235.27
743.195	1165.64
743.38	1116.48
743.565	1167.68
743.75	1159.49
743.935	1149.25
744.12	1110.34
744.305	1145.16
744.49	1089.86
744.675	1069.38
744.86	1071.43
745.045	1046.85
745.23	1159.49
745.415	1106.24
745.6	995.65
745.785	1044.81
745.97	999.75
746.155	1083.72
746.34	1034.57
746.525	1128.77
746.71	987.46
746.895	1032.52
747.079	991.56
747.264	1005.89
747.449	932.17
747.634	1030.47
747.819	1014.09
748.003	979.27
748.188	989.51
748.373	1020.23
748.557	964.93
748.742	1071.43
748.927	1034.57
749.111	977.22
749.296	950.6
749.481	880.97
749.665	995.65
749.85	915.78
750.034	985.41
750.219	944.45
750.404	905.54
750.588	917.83
750.773	899.4
750.957	788.81
751.141	907.59
751.326	893.26
751.51	811.34
751.695	848.2
751.879	823.62
752.064	868.68
752.248	866.63
752.432	864.58
752.617	790.86
752.801	880.97
752.985	862.54
753.17	860.49
753.354	856.39
753.538	874.82
753.722	721.23
753.907	788.81
754.091	768.33
754.275	780.62
754.459	774.47
754.643	794.95
754.828	686.41
755.012	696.65
755.196	743.75
755.38	770.38
755.564	782.67
755.748	692.55
755.932	731.47
756.116	739.66
756.3	670.03
756.484	774.47
756.668	702.79
756.852	768.33
757.036	694.6
757.22	688.46
757.404	645.45
757.588	663.88
757.772	729.42
757.956	758.09
758.14	680.27
758.323	702.79
758.507	745.8
758.691	643.4
758.875	637.26
759.059	692.55
759.242	676.17
759.426	727.37
759.61	649.55
759.794	684.36
759.977	598.35
760.161	674.12
760.345	649.55
760.528	649.55
760.712	610.64
760.895	731.47
761.079	622.92
761.263	602.44
761.446	588.11
761.63	639.31
761.813	651.6
761.997	690.51
762.18	579.92
762.364	692.55
762.547	596.3
762.731	608.59
762.914	577.87
763.098	672.08
763.281	577.87
763.464	643.4
763.648	600.4
763.831	655.69
764.015	598.35
764.198	596.3
764.381	643.4
764.564	655.69
764.748	602.44
764.931	528.72
765.114	639.31
765.297	610.64
765.481	508.24
765.664	545.1
765.847	573.77
766.03	532.81
766.213	667.98
766.397	563.53
766.58	571.72
766.763	602.44
766.946	514.38
767.129	577.87
767.312	500.05
767.495	590.16
767.678	553.29
767.861	561.48
768.044	573.77
768.227	641.36
768.41	612.68
768.593	549.2
768.776	588.11
768.959	493.9
769.142	569.68
769.324	487.76
769.507	510.29
769.69	487.76
769.873	471.37
770.056	514.38
770.239	483.66
770.421	543.05
770.604	498
770.787	498
770.97	536.91
771.152	686.41
771.335	436.56
771.518	567.63
771.7	516.43
771.883	524.62
772.066	555.34
772.248	491.85
772.431	424.27
772.613	461.13
772.796	500.05
772.978	530.77
773.161	487.76
773.343	444.75
773.526	405.84
773.708	479.57
773.891	452.94
774.073	442.7
774.256	475.47
774.438	467.28
774.621	504.14
774.803	438.61
774.985	516.43
775.168	520.53
775.35	407.89
775.532	545.1
775.715	416.08
775.897	481.61
776.079	469.33
776.261	545.1
776.444	452.94
776.626	557.39
776.808	399.7
776.99	379.22
777.173	426.32
777.355	459.09
777.537	399.7
777.719	438.61
777.901	391.5
778.083	428.37
778.265	385.36
778.447	416.08
778.629	381.26
778.811	315.73
778.993	352.59
779.175	352.59
779.357	328.02
779.539	389.46
779.721	366.93
779.903	446.8
780.085	409.94
780.267	438.61
780.449	373.07
780.631	385.36
780.812	368.98
780.994	389.46
781.176	350.54
781.358	389.46
781.54	325.97
781.721	457.04
781.903	364.88
782.085	321.87
782.267	346.45
782.448	350.54
782.63	379.22
782.812	364.88
782.993	373.07
783.175	397.65
783.357	319.82
783.538	272.72
783.72	323.92
783.901	368.98
784.083	282.96
784.264	409.94
784.446	293.2
784.627	381.26
784.809	248.15
784.99	348.5
785.172	305.49
785.353	293.2
785.535	301.39
785.716	311.63
785.897	340.3
786.079	315.73
786.26	237.91
786.441	315.73
786.623	246.1
786.804	229.71
786.985	254.29
787.167	280.91
787.348	305.49
787.529	317.78
787.71	293.2
787.891	256.34
788.073	280.91
788.254	266.58
788.435	270.67
788.616	325.97
788.797	221.52
788.978	293.2
789.159	293.2
789.34	266.58
789.522	166.23
789.703	299.34
789.884	235.86
790.065	235.86
790.246	229.71
790.427	219.47
790.607	254.29
790.788	196.95
790.969	274.77
791.15	250.19
791.331	178.51
791.512	135.51
791.693	311.63
791.874	244.05
792.054	231.76
792.235	196.95
792.416	192.85
792.597	201.04
792.778	168.27
792.958	246.1
793.139	237.91
793.32	186.71
793.5	227.67
793.681	278.87
793.862	246.1
794.042	233.81
794.223	244.05
794.404	219.47
794.584	182.61
794.765	147.8
794.945	174.42
795.126	174.42
795.306	123.22
795.487	170.32
795.667	207.19
795.848	143.7
796.028	221.52
796.209	201.04
796.389	192.85
796.57	213.33
796.75	168.27
796.93	201.04
797.111	151.89
797.291	211.28
797.471	227.67
797.652	160.08
797.832	219.47
798.012	137.56
798.192	209.23
798.373	133.46
798.553	217.43
798.733	209.23
798.913	104.79
799.093	186.71
799.274	176.47
799.454	127.32
799.634	155.99
799.814	135.51
799.994	176.47
800.174	143.7
800.354	86.36
800.534	121.17
800.714	198.99
800.894	121.17
801.074	119.12
801.254	192.85
801.434	106.84
801.614	160.08
801.794	90.45
801.974	377.17
802.154	176.47
802.334	268.63
802.514	110.93
802.693	108.88
802.873	74.07
803.053	164.18
803.233	176.47
803.413	115.03
803.592	100.69
803.772	160.08
803.952	119.12
804.131	176.47
804.311	196.95
804.491	192.85
804.67	117.08
804.85	149.84
805.03	133.46
805.209	119.12
805.389	84.31
805.568	131.41
805.748	135.51
805.928	188.75
806.107	143.7
806.287	145.75
806.466	160.08
806.646	196.95
806.825	135.51
807.004	151.89
807.184	174.42
807.363	100.69
807.543	133.46
807.722	135.51
807.901	145.75
808.081	104.79
808.26	100.69
808.439	135.51
808.619	108.88
808.798	182.61
808.977	47.44
809.156	96.6
809.336	153.94
809.515	141.65
809.694	123.22
809.873	80.21
810.052	151.89
810.231	141.65
810.411	110.93
810.59	31.06
810.769	102.74
810.948	41.3
811.127	74.07
811.306	180.56
811.485	129.36
811.664	119.12
811.843	176.47
812.022	92.5
812.201	78.16
812.38	119.12
812.559	100.69
812.737	162.13
812.916	88.4
813.095	20.82
813.274	143.7
813.453	131.41
813.632	139.6
813.811	129.36
813.989	127.32
814.168	106.84
814.347	39.25
814.526	49.49
814.704	39.25
814.883	67.92
815.062	69.97
815.24	102.74
815.419	86.36
815.598	43.35
815.776	117.08
815.955	115.03
816.133	69.97
816.312	119.12
816.49	135.51
816.669	94.55
816.847	63.83
817.026	110.93
817.204	39.25
817.383	80.21
817.561	170.32
817.74	155.99
817.918	92.5
818.097	78.16
818.275	33.11
818.453	84.31
818.632	149.84
818.81	16.73
818.988	69.97
819.167	39.25
819.345	57.68
819.523	84.31
819.701	22.87
819.879	88.4
820.058	49.49
820.236	86.36
820.414	108.88
820.592	135.51
820.77	45.4
820.948	59.73
821.127	94.55
821.305	90.45
821.483	86.36
821.661	78.16
821.839	162.13
822.017	22.87
822.195	59.73
822.373	53.59
822.551	88.4
822.729	131.41
822.907	14.68
823.085	94.55
823.262	123.22
823.44	78.16
823.618	10.58
823.796	69.97
823.974	67.92
824.152	-7.85
824.329	80.21
824.507	8.53
824.685	69.97
824.863	49.49
825.04	110.93
825.218	45.4
825.396	88.4
825.574	-5.8
825.751	74.07
825.929	94.55
826.107	53.59
826.284	22.87
826.462	69.97
826.639	127.32
826.817	49.49
826.994	143.7
827.172	72.02
827.349	80.21
827.527	65.88
827.704	55.64
827.882	69.97
828.059	39.25
828.237	67.92
828.414	76.12
828.591	24.92
828.769	88.4
828.946	90.45
829.124	69.97
829.301	82.26
829.478	100.69
829.655	115.03
829.833	47.44
830.01	86.36
830.187	47.44
830.364	8.53
830.542	20.82
830.719	80.21
830.896	-30.38
831.073	133.46
831.25	57.68
831.427	57.68
831.604	88.4
831.782	57.68
831.959	110.93
832.136	53.59
832.313	16.73
832.49	74.07
832.667	61.78
832.844	-3.75
833.021	57.68
833.198	-73.39
833.374	69.97
833.551	20.82
833.728	43.35
833.905	18.77
834.082	-26.28
834.259	72.02
834.436	63.83
834.612	78.16
834.789	61.78
834.966	96.6
835.143	117.08
835.319	53.59
835.496	14.68
835.673	76.12
835.85	106.84
836.026	-18.09
836.203	69.97
836.38	72.02
836.556	12.63
836.733	45.4
836.909	33.11
837.086	37.2
837.262	-34.47
837.439	0.34
837.616	-26.28
837.792	57.68
837.968	84.31
838.145	-26.28
838.321	26.96
838.498	86.36
838.674	20.82
838.851	110.93
839.027	12.63
839.203	22.87
839.38	24.92
839.556	57.68
839.732	35.16
839.909	55.64
840.085	39.25
840.261	14.68
840.437	29.01
840.614	29.01
840.79	72.02
840.966	100.69
841.142	72.02
841.318	53.59
841.494	33.11
841.671	43.35
841.847	37.2
842.023	18.77
842.199	24.92
842.375	-3.75
842.551	33.11
842.727	63.83
842.903	0.34
843.079	22.87
843.255	16.73
843.431	18.77
843.607	102.74
843.783	29.01
843.959	22.87
844.134	-11.95
844.31	153.94
844.486	94.55
844.662	94.55
844.838	8.53
845.013	67.92
845.189	-59.05
845.365	39.25
845.541	51.54
845.716	80.21
845.892	57.68
846.068	16.73
846.244	-1.71
846.419	-40.62
846.595	-20.14
846.77	43.35
846.946	-91.82
847.122	24.92
847.297	-28.33
847.473	92.5
847.648	35.16
847.824	22.87
847.999	49.49
848.175	72.02
848.35	31.06
848.526	35.16
848.701	-26.28
848.876	22.87
849.052	59.73
849.227	59.73
849.403	24.92
849.578	33.11
849.753	-20.14
849.929	45.4
850.104	-20.14
850.279	-36.52
850.454	43.35
850.63	67.92
850.805	74.07
850.98	33.11
851.155	57.68
851.33	84.31
851.505	2.39
851.681	8.53
851.856	53.59
852.031	-20.14
852.206	-18.09
852.381	-16.04
852.556	0.34
852.731	72.02
852.906	63.83
853.081	18.77
853.256	-38.57
853.431	6.49
853.606	49.49
853.781	-7.85
853.956	-34.47
854.131	-1.71
854.305	96.6
854.48	-3.75
854.655	92.5
854.83	41.3
855.005	-54.95
855.18	4.44
855.354	-65.19
855.529	43.35
855.704	29.01
855.879	51.54
856.053	-9.9
856.228	-9.9
856.403	33.11
856.577	69.97
856.752	-5.8
856.926	125.27
857.101	69.97
857.276	-26.28
857.45	-11.95
857.625	4.44
857.799	-16.04
857.974	12.63
858.148	4.44
858.323	4.44
858.497	-28.33
858.672	20.82
858.846	10.58
859.02	-9.9
859.195	-46.76
859.369	59.73
859.543	-1.71
859.718	-3.75
859.892	51.54
860.066	41.3
860.241	51.54
860.415	78.16
860.589	4.44
860.763	-9.9
860.938	6.49
861.112	49.49
861.286	37.2
861.46	63.83
861.634	39.25
861.808	-42.67
861.982	16.73
862.157	35.16
862.331	39.25
862.505	20.82
862.679	-5.8
862.853	37.2
863.027	45.4
863.201	31.06
863.375	35.16
863.549	-9.9
863.722	76.12
863.896	26.96
864.07	-20.14
864.244	-48.81
864.418	4.44
864.592	47.44
864.766	-20.14
864.939	6.49
865.113	8.53
865.287	14.68
865.461	31.06
865.634	6.49
865.808	-22.19
865.982	31.06
866.156	20.82
866.329	12.63
866.503	41.3
866.676	33.11
866.85	22.87
867.024	-24.23
867.197	45.4
867.371	12.63
867.544	26.96
867.718	57.68
867.891	0.34
868.065	61.78
868.238	-3.75
868.412	24.92
868.585	31.06
868.759	22.87
868.932	12.63
869.105	8.53
869.279	31.06
869.452	-54.95
869.625	-9.9
869.799	18.77
869.972	-108.2
870.145	29.01
870.319	16.73
870.492	51.54
870.665	12.63
870.838	-3.75
871.011	39.25
871.185	47.44
871.358	69.97
871.531	-46.76
871.704	-44.71
871.877	14.68
872.05	29.01
872.223	12.63
872.396	76.12
872.569	98.64
872.742	-26.28
872.915	69.97
873.088	12.63
873.261	45.4
873.434	-69.29
873.607	26.96
873.78	16.73
873.953	31.06
874.126	-1.71
874.299	-5.8
874.471	-46.76
874.644	20.82
874.817	-1.71
874.99	22.87
875.163	26.96
875.335	29.01
875.508	-22.19
875.681	-36.52
875.853	18.77
876.026	-13.99
876.199	29.01
876.371	-42.67
876.544	47.44
876.717	8.53
876.889	37.2
877.062	-24.23
877.234	-18.09
877.407	29.01
877.579	-34.47
877.752	22.87
877.924	16.73
878.097	24.92
878.269	33.11
878.442	55.64
878.614	20.82
878.786	29.01
878.959	-1.71
879.131	72.02
879.303	20.82
879.476	37.2
879.648	-13.99
879.82	16.73
879.993	-28.33
880.165	47.44
880.337	-40.62
880.509	4.44
880.681	-26.28
880.854	-7.85
881.026	47.44
881.198	22.87
881.37	10.58
881.542	2.39
881.714	-40.62
881.886	22.87
882.058	14.68
882.23	-28.33
882.402	-28.33
882.574	18.77
882.746	69.97
882.918	35.16
883.09	0.34
883.262	-20.14
883.434	-46.76
883.606	-20.14
883.778	-5.8
883.95	-7.85
884.122	-26.28
884.293	35.16
884.465	-36.52
884.637	-50.86
884.809	-32.43
884.98	-9.9
885.152	55.64
885.324	0.34
885.496	-63.15
885.667	-20.14
885.839	57.68
886.011	37.2
886.182	14.68
886.354	47.44
886.525	35.16
886.697	39.25
886.869	43.35
887.04	20.82
887.212	-26.28
887.383	16.73
887.555	-38.57
887.726	33.11
887.897	-26.28
888.069	110.93
888.24	-28.33
888.412	-48.81
888.583	-11.95
888.754	16.73
888.926	-63.15
889.097	-34.47
889.268	-34.47
889.44	49.49
889.611	26.96
889.782	-11.95
889.953	37.2
890.125	39.25
890.296	-28.33
890.467	31.06
890.638	-91.82
890.809	53.59
890.98	24.92
891.151	55.64
891.323	-48.81
891.494	-95.91
891.665	-38.57
891.836	4.44
892.007	4.44
892.178	47.44
892.349	65.88
892.52	16.73
892.691	-18.09
892.862	41.3
893.032	-91.82
893.203	12.63
893.374	31.06
893.545	49.49
893.716	-46.76
893.887	-30.38
894.057	-9.9
894.228	-38.57
894.399	-30.38
894.57	0.34
894.74	-42.67
894.911	16.73
895.082	69.97
895.253	-42.67
895.423	0.34
895.594	-26.28
895.764	41.3
895.935	16.73
896.106	-13.99
896.276	-20.14
896.447	29.01
896.617	88.4
896.788	10.58
896.958	-7.85
897.129	12.63
897.299	-42.67
897.47	35.16
897.64	16.73
897.81	94.55
897.981	26.96
898.151	-26.28
898.322	-34.47
898.492	33.11
898.662	-42.67
898.832	12.63
899.003	10.58
899.173	-7.85
899.343	35.16
899.513	18.77
