Data from USB4F104151__110__13-54-51-888.txt Node

Date: Thu Mar 13 13:54:51 EDT 2025
User: louis
Spectrometer: USB4F10415
Trigger mode: 4
Integration Time (sec): 1.000000E-2
Scans to average: 1
Electric dark correction enabled: true
Nonlinearity correction enabled: false
Boxcar width: 0
XAxis mode: Wavelengths
Number of Pixels in Spectrum: 3648
>>>>>Begin Spectral Data<<<<<
178.204	-30.89
178.424	-30.89
178.644	-30.89
178.864	-39.08
179.084	-28.84
179.304	-18.6
179.524	-2.22
179.744	-6.31
179.964	-37.03
180.184	-4.27
180.404	-28.84
180.624	12.12
180.844	63.32
181.064	-49.32
181.283	-14.51
181.503	57.17
181.723	28.5
181.943	-84.14
182.163	44.88
182.383	26.45
182.602	-18.6
182.822	-55.47
183.042	-53.42
183.262	5.97
183.482	-10.41
183.701	3.93
183.921	-57.51
184.141	-6.31
184.361	26.45
184.58	-28.84
184.8	34.64
185.02	-45.23
185.239	42.84
185.459	-45.23
185.679	51.03
185.898	32.6
186.118	-32.94
186.338	-0.17
186.557	53.08
186.777	46.93
186.997	57.17
187.216	-12.46
187.436	44.88
187.655	-55.47
187.875	16.21
188.095	32.6
188.314	-28.84
188.534	5.97
188.753	55.12
188.973	-16.55
189.192	53.08
189.412	42.84
189.631	-22.7
189.851	32.6
190.07	114.52
190.29	-2.22
190.509	34.64
190.729	24.4
190.948	3.93
191.168	51.03
191.387	36.69
191.607	22.36
191.826	12.12
192.045	-34.99
192.265	-0.17
192.484	-16.55
192.704	-67.75
192.923	-20.65
193.142	104.28
193.362	-22.7
193.581	16.21
193.8	20.31
194.02	-41.13
194.239	75.6
194.458	-8.36
194.678	-65.71
194.897	42.84
195.116	57.17
195.335	-20.65
195.555	42.84
195.774	20.31
195.993	-14.51
196.212	20.31
196.432	-41.13
196.651	3.93
196.87	48.98
197.089	8.02
197.308	-10.41
197.528	36.69
197.747	3.93
197.966	16.21
198.185	51.03
198.404	-8.36
198.623	57.17
198.842	-12.46
199.062	-22.7
199.281	77.65
199.5	5.97
199.719	-10.41
199.938	-34.99
200.157	44.88
200.376	8.02
200.595	48.98
200.814	14.17
201.033	36.69
201.252	48.98
201.471	-28.84
201.69	8.02
201.909	44.88
202.128	51.03
202.347	-8.36
202.566	-28.84
202.785	-51.37
203.004	12.12
203.223	65.36
203.442	40.79
203.661	18.26
203.879	-6.31
204.098	-39.08
204.317	20.31
204.536	12.12
204.755	-6.31
204.974	30.55
205.193	59.22
205.411	100.18
205.63	57.17
205.849	34.64
206.068	-8.36
206.287	-4.27
206.505	3.93
206.724	44.88
206.943	16.21
207.162	-6.31
207.381	-8.36
207.599	-8.36
207.818	-34.99
208.037	-24.75
208.255	-0.17
208.474	26.45
208.693	-39.08
208.911	67.41
209.13	12.12
209.349	34.64
209.567	14.17
209.786	14.17
210.005	10.07
210.223	-69.8
210.442	135
210.661	-6.31
210.879	30.55
211.098	108.37
211.316	-8.36
211.535	-39.08
211.753	75.6
211.972	-28.84
212.191	-24.75
212.409	14.17
212.628	-28.84
212.846	-2.22
213.065	5.97
213.283	42.84
213.502	69.46
213.72	22.36
213.938	61.27
214.157	-59.56
214.375	-28.84
214.594	20.31
214.812	5.97
215.031	-0.17
215.249	-20.65
215.467	-51.37
215.686	46.93
215.904	98.13
216.122	-59.56
216.341	-2.22
216.559	-24.75
216.778	28.5
216.996	-12.46
217.214	91.99
217.432	-67.75
217.651	-12.46
217.869	-49.32
218.087	-8.36
218.306	71.51
218.524	44.88
218.742	59.22
218.96	-43.18
219.179	26.45
219.397	28.5
219.615	-32.94
219.833	12.12
220.051	22.36
220.27	-4.27
220.488	-6.31
220.706	16.21
220.924	5.97
221.142	38.74
221.36	71.51
221.578	16.21
221.796	10.07
222.015	59.22
222.233	34.64
222.451	22.36
222.669	-30.89
222.887	-6.31
223.105	14.17
223.323	46.93
223.541	-6.31
223.759	46.93
223.977	10.07
224.195	28.5
224.413	40.79
224.631	98.13
224.849	42.84
225.067	8.02
225.285	-57.51
225.503	-14.51
225.721	1.88
225.939	-16.55
226.157	-14.51
226.375	63.32
226.592	22.36
226.81	22.36
227.028	48.98
227.246	22.36
227.464	20.31
227.682	-6.31
227.9	14.17
228.117	85.84
228.335	-14.51
228.553	14.17
228.771	26.45
228.989	44.88
229.206	-24.75
229.424	40.79
229.642	8.02
229.86	5.97
230.077	-28.84
230.295	71.51
230.513	-22.7
230.731	65.36
230.948	-22.7
231.166	-26.79
231.384	5.97
231.601	65.36
231.819	-0.17
232.037	32.6
232.254	-16.55
232.472	-24.75
232.689	-37.03
232.907	30.55
233.125	-8.36
233.342	-8.36
233.56	-26.79
233.777	34.64
233.995	-26.79
234.213	63.32
234.43	28.5
234.648	-20.65
234.865	-6.31
235.083	-20.65
235.3	28.5
235.518	18.26
235.735	24.4
235.953	18.26
236.17	-22.7
236.388	-0.17
236.605	71.51
236.822	38.74
237.04	-39.08
237.257	42.84
237.475	34.64
237.692	-20.65
237.909	-14.51
238.127	34.64
238.344	22.36
238.562	1.88
238.779	32.6
238.996	51.03
239.214	-22.7
239.431	14.17
239.648	-45.23
239.865	-32.94
240.083	20.31
240.3	32.6
240.517	18.26
240.735	5.97
240.952	-14.51
241.169	55.12
241.386	102.23
241.603	26.45
241.821	-18.6
242.038	5.97
242.255	-18.6
242.472	-55.47
242.689	-0.17
242.907	34.64
243.124	-20.65
243.341	-41.13
243.558	-45.23
243.775	-16.55
243.992	-14.51
244.209	-24.75
244.426	53.08
244.643	-4.27
244.86	-0.17
245.078	89.94
245.295	20.31
245.512	5.97
245.729	8.02
245.946	-14.51
246.163	-22.7
246.38	-2.22
246.597	-22.7
246.814	55.12
247.031	-47.27
247.248	1.88
247.464	5.97
247.681	16.21
247.898	28.5
248.115	46.93
248.332	-4.27
248.549	12.12
248.766	14.17
248.983	34.64
249.2	-16.55
249.417	16.21
249.633	8.02
249.85	53.08
250.067	8.02
250.284	48.98
250.501	42.84
250.717	38.74
250.934	-2.22
251.151	22.36
251.368	75.6
251.585	-6.31
251.801	-26.79
252.018	26.45
252.235	51.03
252.451	22.36
252.668	16.21
252.885	30.55
253.102	18.26
253.318	12.12
253.535	-34.99
253.752	79.7
253.968	-37.03
254.185	53.08
254.401	-8.36
254.618	55.12
254.835	-12.46
255.051	55.12
255.268	34.64
255.484	-63.66
255.701	38.74
255.917	-4.27
256.134	-8.36
256.351	59.22
256.567	-30.89
256.784	-37.03
257	8.02
257.217	44.88
257.433	12.12
257.65	12.12
257.866	3.93
258.082	46.93
258.299	-32.94
258.515	28.5
258.732	44.88
258.948	55.12
259.165	30.55
259.381	32.6
259.597	53.08
259.814	8.02
260.03	28.5
260.246	20.31
260.463	53.08
260.679	16.21
260.895	-53.42
261.112	57.17
261.328	-18.6
261.544	53.08
261.761	28.5
261.977	20.31
262.193	-2.22
262.409	-18.6
262.626	-2.22
262.842	44.88
263.058	-20.65
263.274	40.79
263.49	51.03
263.707	42.84
263.923	-6.31
264.139	46.93
264.355	18.26
264.571	104.28
264.787	-24.75
265.004	-18.6
265.22	-73.9
265.436	-0.17
265.652	63.32
265.868	22.36
266.084	1.88
266.3	-55.47
266.516	-45.23
266.732	10.07
266.948	-63.66
267.164	-39.08
267.38	73.56
267.596	18.26
267.812	-0.17
268.028	48.98
268.244	-41.13
268.46	-6.31
268.676	42.84
268.892	-6.31
269.108	22.36
269.324	1.88
269.54	42.84
269.756	36.69
269.972	59.22
270.188	81.75
270.403	-30.89
270.619	28.5
270.835	55.12
271.051	16.21
271.267	-14.51
271.483	-49.32
271.698	-43.18
271.914	34.64
272.13	40.79
272.346	3.93
272.562	-55.47
272.777	-34.99
272.993	38.74
273.209	-28.84
273.425	51.03
273.64	30.55
273.856	-24.75
274.072	-8.36
274.287	10.07
274.503	28.5
274.719	51.03
274.934	-4.27
275.15	46.93
275.366	-10.41
275.581	38.74
275.797	-20.65
276.012	-65.71
276.228	118.61
276.444	-2.22
276.659	12.12
276.875	22.36
277.09	-34.99
277.306	10.07
277.521	28.5
277.737	12.12
277.952	-2.22
278.168	-32.94
278.383	-10.41
278.599	28.5
278.814	-0.17
279.03	20.31
279.245	34.64
279.461	-2.22
279.676	16.21
279.892	53.08
280.107	-0.17
280.322	12.12
280.538	-34.99
280.753	-12.46
280.969	40.79
281.184	-71.85
281.399	-8.36
281.615	-18.6
281.83	65.36
282.045	75.6
282.26	-0.17
282.476	-10.41
282.691	38.74
282.906	51.03
283.122	-18.6
283.337	44.88
283.552	51.03
283.767	42.84
283.983	40.79
284.198	-10.41
284.413	51.03
284.628	-12.46
284.843	32.6
285.058	85.84
285.274	61.27
285.489	24.4
285.704	116.56
285.919	-73.9
286.134	-2.22
286.349	8.02
286.564	-20.65
286.779	59.22
286.995	42.84
287.21	34.64
287.425	-28.84
287.64	12.12
287.855	28.5
288.07	-4.27
288.285	-14.51
288.5	59.22
288.715	63.32
288.93	8.02
289.145	18.26
289.36	26.45
289.575	-67.75
289.79	30.55
290.004	-51.37
290.219	42.84
290.434	36.69
290.649	10.07
290.864	55.12
291.079	-61.61
291.294	-22.7
291.509	-86.19
291.724	20.31
291.938	22.36
292.153	-0.17
292.368	10.07
292.583	-2.22
292.798	12.12
293.012	-12.46
293.227	-16.55
293.442	-45.23
293.657	20.31
293.871	18.26
294.086	53.08
294.301	59.22
294.516	16.21
294.73	16.21
294.945	-45.23
295.16	-16.55
295.374	28.5
295.589	-2.22
295.804	34.64
296.018	-20.65
296.233	1.88
296.447	12.12
296.662	-28.84
296.877	-30.89
297.091	28.5
297.306	-6.31
297.52	-2.22
297.735	14.17
297.949	-34.99
298.164	34.64
298.378	-4.27
298.593	-59.56
298.807	-24.75
299.022	-30.89
299.236	46.93
299.451	-24.75
299.665	67.41
299.88	71.51
300.094	-0.17
300.309	32.6
300.523	-4.27
300.737	5.97
300.952	22.36
301.166	5.97
301.381	12.12
301.595	1.88
301.809	-63.66
302.024	26.45
302.238	22.36
302.452	-30.89
302.667	57.17
302.881	-6.31
303.095	-18.6
303.309	24.4
303.524	61.27
303.738	44.88
303.952	-24.75
304.166	5.97
304.381	-55.47
304.595	-14.51
304.809	42.84
305.023	14.17
305.237	51.03
305.452	-10.41
305.666	30.55
305.88	-34.99
306.094	18.26
306.308	67.41
306.522	61.27
306.736	36.69
306.95	-28.84
307.164	18.26
307.379	20.31
307.593	22.36
307.807	14.17
308.021	24.4
308.235	8.02
308.449	3.93
308.663	-2.22
308.877	65.36
309.091	16.21
309.305	-6.31
309.519	-28.84
309.733	-8.36
309.947	-45.23
310.161	38.74
310.374	1.88
310.588	44.88
310.802	20.31
311.016	5.97
311.23	67.41
311.444	51.03
311.658	28.5
311.872	22.36
312.085	46.93
312.299	-16.55
312.513	12.12
312.727	-84.14
312.941	-2.22
313.154	55.12
313.368	-4.27
313.582	24.4
313.796	12.12
314.009	59.22
314.223	12.12
314.437	18.26
314.651	1.88
314.864	-18.6
315.078	14.17
315.292	14.17
315.505	-37.03
315.719	40.79
315.933	38.74
316.146	-32.94
316.36	-43.18
316.573	-32.94
316.787	-30.89
317.001	-22.7
317.214	5.97
317.428	-6.31
317.641	14.17
317.855	-43.18
318.068	26.45
318.282	18.26
318.495	-6.31
318.709	-14.51
318.922	-53.42
319.136	69.46
319.349	26.45
319.563	46.93
319.776	8.02
319.99	28.5
320.203	44.88
320.417	91.99
320.63	18.26
320.843	-18.6
321.057	-32.94
321.27	48.98
321.483	53.08
321.697	98.13
321.91	5.97
322.124	-4.27
322.337	5.97
322.55	14.17
322.763	46.93
322.977	3.93
323.19	-88.23
323.403	71.51
323.617	-47.27
323.83	46.93
324.043	-20.65
324.256	1.88
324.469	-12.46
324.683	48.98
324.896	3.93
325.109	-12.46
325.322	18.26
325.535	51.03
325.748	-0.17
325.962	20.31
326.175	28.5
326.388	-6.31
326.601	12.12
326.814	-32.94
327.027	-16.55
327.24	55.12
327.453	-20.65
327.666	12.12
327.879	-4.27
328.092	-6.31
328.305	-18.6
328.518	-4.27
328.731	30.55
328.944	-49.32
329.157	-75.95
329.37	-39.08
329.583	-10.41
329.796	-20.65
330.009	10.07
330.222	48.98
330.435	57.17
330.648	-34.99
330.861	87.89
331.073	12.12
331.286	-43.18
331.499	-20.65
331.712	38.74
331.925	14.17
332.138	71.51
332.35	36.69
332.563	46.93
332.776	-8.36
332.989	-34.99
333.202	36.69
333.414	32.6
333.627	-6.31
333.84	8.02
334.053	30.55
334.265	48.98
334.478	51.03
334.691	-116.9
334.903	-67.75
335.116	12.12
335.329	34.64
335.541	32.6
335.754	53.08
335.966	-20.65
336.179	44.88
336.392	83.8
336.604	40.79
336.817	-6.31
337.029	-16.55
337.242	69.46
337.454	-20.65
337.667	42.84
337.88	24.4
338.092	38.74
338.305	42.84
338.517	-18.6
338.729	-24.75
338.942	71.51
339.154	-2.22
339.367	-28.84
339.579	42.84
339.792	79.7
340.004	20.31
340.217	1.88
340.429	1.88
340.641	-14.51
340.854	40.79
341.066	8.02
341.278	10.07
341.491	40.79
341.703	-53.42
341.915	26.45
342.128	65.36
342.34	-28.84
342.552	-22.7
342.764	18.26
342.977	75.6
343.189	8.02
343.401	28.5
343.613	-2.22
343.826	-2.22
344.038	28.5
344.25	51.03
344.462	59.22
344.674	-0.17
344.886	12.12
345.099	40.79
345.311	36.69
345.523	65.36
345.735	-57.51
345.947	18.26
346.159	20.31
346.371	34.64
346.583	38.74
346.795	94.04
347.007	8.02
347.219	79.7
347.431	-6.31
347.643	5.97
347.855	48.98
348.067	40.79
348.279	24.4
348.491	-8.36
348.703	40.79
348.915	10.07
349.127	36.69
349.339	48.98
349.551	-30.89
349.763	79.7
349.975	-55.47
350.187	16.21
350.399	46.93
350.61	-20.65
350.822	-24.75
351.034	28.5
351.246	-14.51
351.458	-18.6
351.669	71.51
351.881	14.17
352.093	98.13
352.305	5.97
352.517	28.5
352.728	28.5
352.94	44.88
353.152	-24.75
353.363	3.93
353.575	51.03
353.787	16.21
353.999	51.03
354.21	3.93
354.422	53.08
354.633	-24.75
354.845	-6.31
355.057	63.32
355.268	-39.08
355.48	-24.75
355.692	30.55
355.903	34.64
356.115	-24.75
356.326	24.4
356.538	10.07
356.749	-63.66
356.961	-16.55
357.172	100.18
357.384	-4.27
357.595	-10.41
357.807	-12.46
358.018	16.21
358.23	-2.22
358.441	20.31
358.653	-2.22
358.864	-16.55
359.075	67.41
359.287	5.97
359.498	-18.6
359.709	40.79
359.921	-12.46
360.132	20.31
360.344	28.5
360.555	18.26
360.766	14.17
360.977	-57.51
361.189	75.6
361.4	-8.36
361.611	48.98
361.823	32.6
362.034	51.03
362.245	18.26
362.456	10.07
362.667	71.51
362.879	-18.6
363.09	-26.79
363.301	-37.03
363.512	71.51
363.723	18.26
363.935	18.26
364.146	28.5
364.357	48.98
364.568	100.18
364.779	10.07
364.99	3.93
365.201	-4.27
365.412	28.5
365.623	-4.27
365.834	-22.7
366.045	16.21
366.256	69.46
366.467	40.79
366.678	18.26
366.889	91.99
367.1	91.99
367.311	-6.31
367.522	44.88
367.733	10.07
367.944	57.17
368.155	18.26
368.366	69.46
368.577	-49.32
368.788	53.08
368.999	-24.75
369.209	12.12
369.42	30.55
369.631	22.36
369.842	-18.6
370.053	10.07
370.264	20.31
370.474	-6.31
370.685	-6.31
370.896	28.5
371.107	94.04
371.317	3.93
371.528	42.84
371.739	51.03
371.95	16.21
372.16	51.03
372.371	12.12
372.582	48.98
372.792	63.32
373.003	34.64
373.214	55.12
373.424	57.17
373.635	14.17
373.846	-43.18
374.056	24.4
374.267	51.03
374.477	-51.37
374.688	16.21
374.898	-0.17
375.109	53.08
375.319	5.97
375.53	12.12
375.74	59.22
375.951	38.74
376.161	65.36
376.372	32.6
376.582	65.36
376.793	59.22
377.003	20.31
377.214	16.21
377.424	12.12
377.635	-37.03
377.845	57.17
378.055	48.98
378.266	61.27
378.476	44.88
378.686	20.31
378.897	10.07
379.107	-16.55
379.317	36.69
379.528	12.12
379.738	18.26
379.948	34.64
380.158	63.32
380.369	20.31
380.579	34.64
380.789	44.88
380.999	61.27
381.21	59.22
381.42	89.94
381.63	55.12
381.84	91.99
382.05	22.36
382.261	32.6
382.471	24.4
382.681	34.64
382.891	65.36
383.101	61.27
383.311	69.46
383.521	8.02
383.731	-14.51
383.941	38.74
384.151	83.8
384.361	-6.31
384.571	-16.55
384.781	22.36
384.991	63.32
385.201	53.08
385.411	-10.41
385.621	8.02
385.831	75.6
386.041	-20.65
386.251	32.6
386.461	-26.79
386.671	-37.03
386.881	20.31
387.091	1.88
387.301	69.46
387.511	-22.7
387.72	-14.51
387.93	32.6
388.14	26.45
388.35	71.51
388.56	-32.94
388.769	-22.7
388.979	69.46
389.189	24.4
389.399	28.5
389.609	38.74
389.818	26.45
390.028	44.88
390.238	36.69
390.447	-37.03
390.657	48.98
390.867	-14.51
391.076	67.41
391.286	1.88
391.496	65.36
391.705	-0.17
391.915	89.94
392.125	108.37
392.334	81.75
392.544	-12.46
392.753	38.74
392.963	24.4
393.172	24.4
393.382	102.23
393.591	-4.27
393.801	-16.55
394.01	69.46
394.22	73.56
394.429	30.55
394.639	98.13
394.848	55.12
395.058	16.21
395.267	55.12
395.477	59.22
395.686	-2.22
395.895	65.36
396.105	91.99
396.314	42.84
396.524	18.26
396.733	-8.36
396.942	85.84
397.152	53.08
397.361	22.36
397.57	28.5
397.78	71.51
397.989	-45.23
398.198	12.12
398.407	100.18
398.617	94.04
398.826	1.88
399.035	85.84
399.244	24.4
399.453	73.56
399.663	65.36
399.872	57.17
400.081	85.84
400.29	102.23
400.499	85.84
400.708	69.46
400.917	89.94
401.127	28.5
401.336	89.94
401.545	208.72
401.754	44.88
401.963	102.23
402.172	16.21
402.381	69.46
402.59	44.88
402.799	143.19
403.008	71.51
403.217	153.43
403.426	59.22
403.635	28.5
403.844	94.04
404.053	63.32
404.262	73.56
404.471	87.89
404.68	89.94
404.888	106.32
405.097	32.6
405.306	75.6
405.515	77.65
405.724	180.05
405.933	34.64
406.142	114.52
406.35	110.42
406.559	91.99
406.768	104.28
406.977	141.14
407.185	42.84
407.394	71.51
407.603	87.89
407.812	126.8
408.02	71.51
408.229	94.04
408.438	118.61
408.646	186.19
408.855	124.76
409.064	171.86
409.272	175.95
409.481	149.33
409.69	137.04
409.898	61.27
410.107	122.71
410.315	194.39
410.524	171.86
410.733	278.35
410.941	139.09
411.15	233.3
411.358	178
411.567	247.63
411.775	227.15
411.984	255.83
412.192	200.53
412.401	253.78
412.609	288.59
412.818	268.11
413.026	216.91
413.234	290.64
413.443	249.68
413.651	374.61
413.86	329.55
414.068	286.54
414.276	341.84
414.485	329.55
414.693	339.79
414.901	411.47
415.11	444.24
415.318	429.9
415.526	352.08
415.734	444.24
415.943	401.23
416.151	411.47
416.359	483.15
416.567	513.87
416.776	538.45
416.984	462.67
417.192	522.06
417.4	509.77
417.608	530.25
417.817	589.64
418.025	618.32
418.233	606.03
418.441	675.66
418.649	665.42
418.857	696.14
419.065	741.19
419.273	749.39
419.481	751.43
419.689	814.92
419.897	814.92
420.105	796.49
420.313	896.84
420.521	960.33
420.729	937.8
420.937	919.37
421.145	878.41
421.353	1011.53
421.561	995.14
421.769	1056.58
421.977	1189.7
422.185	1148.74
422.393	1214.27
422.601	1285.95
422.809	1216.32
423.017	1228.61
423.224	1347.39
423.432	1464.13
423.64	1376.06
423.848	1417.02
424.056	1525.57
424.263	1642.3
424.471	1658.68
424.679	1576.77
424.887	1718.08
425.094	1838.91
425.302	1886.01
425.51	1888.06
425.718	1773.37
425.925	2031.41
426.133	1959.74
426.341	2131.76
426.548	2125.62
426.756	2361.14
426.964	2225.97
427.171	2334.51
427.379	2447.15
427.586	2365.23
427.794	2541.36
428.001	2713.39
428.209	2719.53
428.417	2811.69
428.624	2797.35
428.832	2862.89
429.039	2895.66
429.247	2930.47
429.454	3202.85
429.662	3317.54
429.869	3077.93
430.076	3335.97
430.284	3282.72
430.491	3376.93
430.699	3667.74
430.906	3528.48
431.114	3542.82
431.321	3847.96
431.528	4032.28
431.736	4095.77
431.943	4411.15
432.15	4314.9
432.358	4167.45
432.565	4517.65
432.772	4366.1
432.979	4701.97
433.187	4822.8
433.394	4740.88
433.601	5173
433.808	5080.84
434.016	5019.4
434.223	5381.89
434.43	5734.14
434.637	5566.21
434.844	5859.07
435.052	5998.33
435.259	5859.07
435.466	5910.27
435.673	5940.99
435.88	6307.57
436.087	6510.32
436.294	6674.16
436.501	6495.99
436.708	6582
436.915	7108.33
437.122	7323.37
437.329	7263.97
437.537	7227.11
437.743	7497.44
437.95	7483.11
438.157	7902.94
438.364	8046.3
438.571	8064.73
438.778	8056.54
438.985	8988.36
439.192	8539.86
439.399	8791.76
439.606	8726.22
439.813	9141.96
440.02	9600.71
440.227	9371.33
440.433	9277.13
440.64	9617.09
440.847	9723.58
441.054	9727.68
441.261	10391.22
441.467	10110.65
441.674	10530.48
441.881	10753.71
442.088	11058.86
442.294	10786.48
442.501	11042.48
442.708	11458.21
442.914	11896.48
443.121	12064.41
443.328	11970.21
443.534	12762.77
443.741	12232.35
443.948	12267.16
444.154	13098.64
444.361	13117.07
444.568	13035.15
444.774	13258.38
444.981	13399.69
445.187	13878.91
445.394	14218.88
445.6	14044.8
445.807	15494.76
446.013	14759.54
446.22	14906.99
446.426	15664.74
446.633	15634.02
446.839	16363.1
447.046	15683.17
447.252	16588.38
447.459	16655.96
447.665	16723.54
447.871	17032.79
448.078	17655.37
448.284	17268.3
448.491	17446.48
448.697	17907.27
448.903	18419.26
449.11	18660.92
449.316	18433.6
449.522	18703.93
449.728	19162.67
449.935	19146.29
450.141	19334.7
450.347	19695.14
450.553	19090.99
450.76	19457.58
450.966	19889.7
451.172	19725.86
451.378	20276.77
451.584	19631.66
451.791	20174.37
451.997	20327.97
452.203	20473.37
452.409	20583.96
452.615	20530.72
452.821	19615.27
453.027	19318.32
453.233	20362.78
453.44	19590.7
453.646	19777.06
453.852	19787.3
454.058	20319.78
454.264	19684.9
454.47	19807.78
454.676	19473.96
454.882	20045.35
455.088	18296.38
455.294	18730.55
455.5	18878.01
455.705	19273.26
455.911	18554.43
456.117	18179.65
456.323	17788.49
456.529	16885.33
456.735	17583.69
456.941	17040.98
457.147	16811.6
457.352	16361.05
457.558	16049.76
457.764	16043.62
457.97	15912.55
458.176	15468.14
458.381	15537.77
458.587	15029.87
458.793	15072.88
458.999	14003.84
459.204	14972.53
459.41	14780.02
459.616	13815.43
459.821	13725.32
460.027	13608.58
460.233	13293.19
460.438	12865.17
460.644	12787.35
460.85	12312.22
461.055	11812.51
461.261	12058.27
461.466	11185.83
461.672	10872.5
461.878	11517.61
462.083	10888.88
462.289	10428.09
462.494	10503.86
462.7	10135.23
462.905	9729.73
463.111	10340.02
463.316	10227.39
463.522	9930.43
463.727	10045.12
463.932	9924.29
464.138	9701.06
464.343	9961.15
464.549	9713.35
464.754	9871.04
464.959	9938.62
465.165	9799.36
465.37	9465.54
465.575	8967.88
465.781	9467.59
465.986	9520.84
466.191	9281.22
466.397	9076.43
466.602	8503
466.807	8978.12
467.012	8933.07
467.218	9101
467.423	8849.1
467.628	8869.58
467.833	9213.64
468.038	8775.38
468.244	8541.91
468.449	9043.66
468.654	8650.45
468.859	8802
469.064	8550.1
469.269	8376.02
469.474	8279.77
469.679	8464.08
469.885	8113.88
470.09	8304.34
470.295	8126.17
470.5	8193.75
470.705	8122.07
470.91	7872.22
471.115	7814.88
471.32	7878.37
471.525	7646.94
471.73	7685.86
471.935	7769.82
472.139	7554.79
472.344	7546.59
472.549	7300.84
472.754	7569.12
472.959	7235.3
473.164	7151.34
473.369	6860.52
473.574	7335.65
473.778	7229.16
473.983	7155.43
474.188	6983.4
474.393	6874.86
474.598	6846.19
474.802	6747.89
475.007	6676.21
475.212	6665.97
475.417	6412.02
475.621	6414.07
475.826	6412.02
476.031	6430.45
476.235	6213.37
476.44	6459.12
476.645	6309.62
476.849	6440.69
477.054	6049.53
477.259	6162.17
477.463	6041.34
477.668	6031.1
477.872	5959.42
478.077	5820.16
478.282	5725.95
478.486	5732.09
478.691	5644.03
478.895	5605.12
479.1	5709.57
479.304	5564.16
479.509	5641.98
479.713	5467.91
479.918	5443.33
480.122	5349.12
480.326	5336.84
480.531	5420.8
480.735	5502.72
480.94	5398.27
481.144	5537.54
481.348	5201.67
481.553	5240.58
481.757	5193.48
481.961	5342.98
482.166	5332.74
482.37	5306.12
482.574	5158.66
482.778	5283.59
482.983	5177.09
483.187	5269.25
483.391	5363.46
483.595	5201.67
483.8	5187.33
484.004	5361.41
484.208	5220.1
484.412	5271.3
484.616	5478.15
484.821	5256.97
485.025	5082.89
485.229	5340.93
485.433	5287.68
485.637	5177.09
485.841	5211.91
486.045	5203.72
486.249	5224.2
486.453	5213.96
486.657	5195.53
486.861	5353.22
487.065	5156.61
487.269	5314.31
487.473	5199.62
487.677	5252.87
487.881	5371.65
488.085	5150.47
488.289	5365.51
488.493	5136.13
488.697	5359.36
488.901	5351.17
489.105	5269.25
489.309	5111.56
489.512	5293.83
489.716	5265.16
489.92	5371.65
490.124	5234.44
490.328	5390.08
490.531	5295.88
490.735	5486.34
490.939	5488.39
491.143	5326.6
491.346	5369.6
491.55	5566.21
491.754	5424.9
491.958	5365.51
492.161	5627.65
492.365	5586.69
492.569	5566.21
492.772	5476.1
492.976	5709.57
493.18	5392.13
493.383	5684.99
493.587	5689.09
493.79	5834.49
493.994	5666.56
494.197	5828.35
494.401	5938.94
494.605	5900.03
494.808	5932.79
495.012	5947.13
495.215	6051.58
495.419	6027
495.622	6092.54
495.825	6299.38
496.029	6176.5
496.232	6149.88
496.436	6196.98
496.639	6459.12
496.843	6405.88
497.046	6592.24
497.249	6625.01
497.453	6686.45
497.656	6688.5
497.859	6797.04
498.063	6782.7
498.266	6954.73
498.469	6995.69
498.673	6969.07
498.876	7288.55
499.079	7114.47
499.282	7286.5
499.485	7300.84
499.689	7425.76
499.892	7536.35
500.095	7583.46
500.298	7730.91
500.501	7689.95
500.705	7921.37
500.908	7993.05
501.111	8095.45
501.314	8179.42
501.517	8285.91
501.72	8543.95
501.923	8328.92
502.126	8543.95
502.329	8773.33
502.532	8885.97
502.735	8814.29
502.938	9154.25
503.141	9021.13
503.344	9350.85
503.547	9264.84
503.75	9600.71
503.953	9559.75
504.156	9752.26
504.359	9748.16
504.562	10008.25
504.765	10014.4
504.968	10397.37
505.17	10346.17
505.373	10505.91
505.576	10766
505.779	10784.43
505.982	10774.19
506.185	10940.08
506.387	11308.71
506.59	11204.27
506.793	11548.33
506.996	11562.66
507.198	11703.97
507.401	11871.9
507.604	12074.65
507.807	12412.57
508.009	12136.09
508.212	12508.82
508.415	12428.95
508.617	12783.25
508.82	12773.01
509.022	12635.8
509.225	13323.91
509.428	13420.17
509.63	13475.46
509.833	13328.01
510.035	13825.67
510.238	13891.2
510.44	14124.67
510.643	14575.22
510.845	14499.45
511.048	14308.99
511.25	14743.16
511.453	14823.03
511.655	15367.79
511.858	15060.59
512.06	15607.4
512.262	15730.28
512.465	15957.6
512.667	16326.24
512.87	16279.13
513.072	16281.18
513.274	16658.01
513.477	16684.63
513.679	16922.2
513.881	17073.74
514.084	17397.32
514.286	17333.84
514.488	17548.87
514.69	18083.39
514.893	18069.06
515.095	18417.21
515.297	18570.81
515.499	18794.04
515.701	19297.84
515.904	19267.12
516.106	19539.5
516.308	19828.26
516.51	19797.54
516.712	19899.94
516.914	20022.82
517.116	20579.87
517.318	20743.7
517.52	20739.61
517.722	20803.1
517.925	21364.24
518.127	21646.86
518.329	21927.43
518.531	21755.4
518.733	22496.77
518.935	22531.58
519.136	22558.21
519.338	22808.06
519.54	23084.53
519.742	23522.8
519.944	23320.05
520.146	23948.78
520.348	23977.45
520.55	24276.45
520.752	24397.28
520.954	24712.67
521.155	24761.82
521.357	24800.73
521.559	25474.51
521.761	25634.25
521.963	25847.24
522.164	25570.77
522.366	26215.88
522.568	26285.51
522.77	26660.29
522.971	26791.36
523.173	27125.18
523.375	27231.67
523.576	27379.12
523.778	27268.53
523.98	27739.57
524.181	27596.21
524.383	28003.75
524.584	28222.89
524.786	28329.38
524.988	28708.26
525.189	28898.72
525.391	29154.71
525.592	29154.71
525.794	29291.93
525.995	29175.19
526.197	29414.8
526.398	29345.17
526.6	29535.63
526.801	30016.91
527.003	30344.58
527.204	29762.96
527.406	30471.56
527.607	30401.93
527.808	30782.85
528.01	30487.94
528.211	30745.98
528.412	31427.96
528.614	30750.08
528.815	31114.62
529.016	31323.51
529.218	31118.71
529.419	31370.61
529.62	31387
529.822	31747.44
530.023	31731.06
530.224	31569.27
530.425	31448.44
530.626	31526.26
530.828	31409.53
531.029	32433.51
531.23	31954.29
531.431	31876.46
531.632	32279.91
531.833	32370.02
532.035	32259.43
532.236	32318.82
532.437	32349.54
532.638	32128.36
532.839	32527.72
533.04	32908.64
533.241	32062.83
533.442	33084.76
533.643	32568.68
533.844	32628.07
534.045	32990.56
534.246	32394.6
534.447	32630.12
534.648	32435.56
534.849	33174.88
535.05	32855.39
535.251	33035.61
535.451	32886.11
535.652	33113.44
535.853	32750.95
536.054	32910.69
536.255	33285.47
536.456	32675.17
536.657	33320.28
536.857	32978.27
537.058	32736.61
537.259	33269.08
537.46	33295.71
537.66	32976.22
537.861	33332.57
538.062	33103.2
538.263	32959.84
538.463	33289.56
538.664	32933.21
538.865	33097.05
539.065	33105.24
539.266	32464.23
539.466	33234.27
539.667	33004.89
539.868	33420.63
540.068	33000.8
540.269	32841.06
540.469	33197.4
540.67	33008.99
540.87	32859.49
541.071	32859.49
541.271	33058.14
541.472	33396.06
541.672	33027.42
541.873	32583.01
542.073	32722.27
542.274	33031.52
542.474	32935.26
542.675	32662.88
542.875	33088.86
543.075	33174.88
543.276	32492.9
543.476	33244.51
543.676	32986.46
543.877	33152.35
544.077	32992.61
544.277	33004.89
544.478	33049.95
544.678	33056.09
544.878	32787.81
545.078	32759.14
545.279	32689.51
545.479	32859.49
545.679	33099.1
545.879	32990.56
546.079	32941.41
546.28	32832.86
546.48	32810.34
546.68	33142.11
546.88	33074.52
547.08	32732.51
547.28	32779.62
547.48	32570.72
547.68	32775.52
547.88	32779.62
548.081	32945.5
548.281	32752.99
548.481	32654.69
548.681	33076.57
548.881	33031.52
549.081	33047.9
549.28	32886.11
549.48	32986.46
549.68	32755.04
549.88	33148.25
550.08	33033.57
550.28	32980.32
550.48	32669.03
550.68	33170.78
550.88	32769.38
551.08	33084.76
551.279	33148.25
551.479	32607.59
551.679	32898.4
551.879	32370.02
552.079	32875.87
552.278	33168.73
552.478	32986.46
552.678	32615.78
552.878	32965.98
553.077	32679.27
553.277	32464.23
553.477	33144.16
553.676	32572.77
553.876	32443.75
554.076	32789.86
554.275	32611.68
554.475	32329.06
554.674	32634.21
554.874	32752.99
555.074	32476.52
555.273	32757.09
555.473	32525.67
555.672	32320.87
555.872	32249.19
556.071	32214.38
556.271	32300.39
556.47	32421.22
556.67	31942
556.869	32314.73
557.068	32028.01
557.268	32015.72
557.467	31708.53
557.667	31776.11
557.866	31923.57
558.065	31989.1
558.265	31876.46
558.464	31524.21
558.663	31870.32
558.863	31516.02
559.062	32257.39
559.261	31446.39
559.461	31939.95
559.66	30985.6
559.859	31599.99
560.058	31466.87
560.258	31587.7
560.457	31067.52
560.656	31370.61
560.855	31417.72
561.054	31552.88
561.253	31321.46
561.453	31405.43
561.652	31389.05
561.851	31137.15
562.05	30672.26
562.249	30936.45
562.448	31190.39
562.647	30891.39
562.846	30772.61
563.045	31010.17
563.244	30059.91
563.443	31010.17
563.642	30170.5
563.841	30668.16
564.04	30803.33
564.239	30668.16
564.438	30344.58
564.637	30207.37
564.836	30631.3
565.035	30014.86
565.234	30383.49
565.432	30385.54
565.631	30117.26
565.83	30010.76
566.029	29920.65
566.228	29834.64
566.427	29758.86
566.625	29672.85
566.824	29500.82
567.023	29715.86
567.222	29402.52
567.42	29613.46
567.619	29441.43
567.818	29242.78
568.016	29332.89
568.215	29371.8
568.414	29111.71
568.612	29322.65
568.811	29027.74
569.01	29238.68
569.208	28743.07
569.407	29066.65
569.605	28773.79
569.804	29140.38
570.002	28329.38
570.201	28822.94
570.4	28640.67
570.598	28120.49
570.797	28118.44
570.995	28366.24
571.193	28212.65
571.392	28476.83
571.59	27733.42
571.789	28059.05
571.987	27936.17
572.186	27950.51
572.384	27334.07
572.582	27477.43
572.781	27282.87
572.979	27440.56
573.177	27153.85
573.376	27444.66
573.574	27014.59
573.772	27231.67
573.971	27174.33
574.169	26752.45
574.367	26492.35
574.565	26815.93
574.763	26801.6
574.962	26699.2
575.16	26381.76
575.358	26322.37
575.556	25943.5
575.754	26559.94
575.952	25818.57
576.151	26156.49
576.349	25931.21
576.547	26049.99
576.745	25996.74
576.943	25943.5
577.141	25486.8
577.339	25830.86
577.537	25685.45
577.735	25562.58
577.933	25112.02
578.131	25484.75
578.329	25122.26
578.527	24989.14
578.725	25177.56
578.923	25179.61
579.121	24966.62
579.319	24976.86
579.516	24853.98
579.714	24794.59
579.912	24997.34
580.11	24442.34
580.308	24661.47
580.506	24581.6
580.704	24190.44
580.901	24288.74
581.099	24516.06
581.297	24270.31
581.495	24024.55
581.692	24151.52
581.89	23737.84
582.088	23987.69
582.285	23700.97
582.483	24110.57
582.681	23754.22
582.878	23733.74
583.076	23240.18
583.274	23465.46
583.471	23244.27
583.669	23277.04
583.866	23150.07
584.064	23508.46
584.262	22980.09
584.459	23152.12
584.657	22959.61
584.854	23229.94
585.052	22420.99
585.249	22887.93
585.447	22754.81
585.644	22531.58
585.841	22685.18
586.039	22539.77
586.236	22296.07
586.434	22437.37
586.631	22402.56
586.828	22189.57
587.026	22222.34
587.223	21925.38
587.42	22126.08
587.618	22232.58
587.815	21665.29
588.012	22001.16
588.21	21646.86
588.407	21898.76
588.604	21786.12
588.801	21169.68
588.999	21480.97
589.196	21327.38
589.393	21589.52
589.59	21046.8
589.787	21468.69
589.984	21071.38
590.182	20968.98
590.379	20923.93
590.576	20930.07
590.773	20780.57
590.97	20438.56
591.167	20817.43
591.364	20522.52
591.561	20540.96
591.758	20358.69
591.955	20506.14
592.152	20588.06
592.349	20006.44
592.546	20420.13
592.743	20059.68
592.94	20403.74
593.137	20299.3
593.334	20510.24
593.531	19877.41
593.727	20061.73
593.924	20250.14
594.121	19762.73
594.318	19916.33
594.515	19582.51
594.712	19619.37
594.908	19533.36
595.105	19904.04
595.302	19269.17
595.499	19639.85
595.696	19629.61
595.892	18984.5
596.089	19484.2
596.286	19390
596.482	19103.28
596.679	19129.91
596.876	19250.74
597.072	19144.24
597.269	19260.98
597.466	18830.9
597.662	18888.25
597.859	19113.52
598.055	18757.18
598.252	18656.82
598.448	18882.1
598.645	18681.4
598.841	18318.91
599.038	18761.27
599.234	18595.39
599.431	18329.15
599.627	18167.36
599.824	18472.51
600.02	18067.01
600.217	18388.54
600.413	18142.78
600.609	17935.94
600.806	17980.99
601.002	18128.45
601.198	17856.07
601.395	17673.8
601.591	17806.92
601.787	17608.26
601.984	17702.47
602.18	17739.33
602.376	17417.8
602.572	17260.11
602.769	17501.77
602.965	17276.49
603.161	17315.41
603.357	17376.84
603.553	17012.31
603.75	17444.43
603.946	16905.81
604.142	17110.61
604.338	16907.86
604.534	17006.16
604.73	16750.17
604.926	16445.02
605.122	16819.8
605.318	16420.44
605.514	16268.89
605.71	16455.26
605.906	16432.73
606.102	16422.49
606.298	16442.97
606.494	16234.08
606.69	16526.94
606.886	16176.73
607.082	16113.25
607.278	16311.9
607.474	15578.73
607.67	16012.9
607.866	15681.13
608.062	16260.7
608.257	15578.73
608.453	15670.89
608.649	15822.44
608.845	15490.66
609.041	15836.77
609.236	15572.58
609.432	15418.99
609.628	15414.89
609.824	15443.56
610.019	15691.37
610.215	15441.51
610.411	15273.58
610.606	15158.89
610.802	15259.24
610.998	15187.57
611.193	15230.57
611.389	15234.67
611.584	15038.06
611.78	14927.47
611.976	15136.37
612.171	15025.78
612.367	14810.74
612.562	14794.36
612.758	14663.29
612.953	14509.69
613.149	14765.68
613.344	14499.45
613.539	14661.24
613.735	14329.47
613.93	14583.41
614.126	14487.16
614.321	14300.8
614.517	14370.43
614.712	14173.82
614.907	14239.36
615.103	14290.56
615.298	14126.72
615.493	14599.8
615.688	13971.07
615.884	14169.73
616.079	14022.27
616.274	14067.33
616.47	14098.05
616.665	14046.85
616.86	13665.92
617.055	13989.5
617.25	13840
617.445	13606.53
617.641	13737.6
617.836	13641.35
618.031	13414.02
618.226	13702.79
618.421	13504.14
618.616	13516.42
618.811	13321.87
619.006	13411.98
619.201	13053.58
619.396	13102.73
619.591	12920.46
619.786	13280.91
619.981	12744.34
620.176	13020.81
620.371	12824.21
620.566	12840.59
620.761	12625.56
620.956	12781.2
621.151	12682.9
621.346	12734.1
621.541	12420.76
621.735	12699.28
621.93	12398.23
622.125	12404.38
622.32	12142.24
622.515	12289.69
622.709	12175
622.904	12070.56
623.099	12240.54
623.294	12088.99
623.488	11919.01
623.683	11972.25
623.878	11869.86
624.072	11876
624.267	11646.63
624.462	11646.63
624.656	11593.38
624.851	11495.08
625.046	11490.98
625.24	11466.41
625.435	11208.36
625.629	11380.39
625.824	11216.55
626.018	11046.57
626.213	11087.53
626.407	10903.21
626.602	10856.11
626.796	10958.51
626.991	10962.61
627.185	10624.69
627.38	10782.38
627.574	10487.48
627.768	10454.71
627.963	10581.68
628.157	10510
628.352	10471.09
628.546	10297.02
628.74	10411.7
628.935	10190.52
629.129	10366.65
629.323	10088.12
629.517	10141.37
629.712	10116.79
629.906	9936.57
630.1	9787.07
630.294	9825.98
630.489	10061.5
630.683	9854.65
630.877	9760.45
631.071	9811.65
631.265	9602.75
631.459	9658.05
631.653	9494.21
631.848	9502.4
632.042	9344.71
632.236	9297.61
632.43	9227.98
632.624	9461.44
632.818	9279.18
633.012	9049.8
633.206	9408.2
633.4	9039.56
633.594	8922.83
633.788	9107.15
633.982	9139.91
634.176	8953.55
634.369	8834.77
634.563	8849.1
634.757	8828.62
634.951	8636.11
635.145	8640.21
635.339	8412.88
635.533	8597.2
635.726	8595.15
635.92	8521.43
636.114	8541.91
636.308	8505.04
636.501	8392.41
636.695	8328.92
636.889	8343.25
637.083	8144.6
637.276	8126.17
637.47	8077.02
637.664	8074.97
637.857	8052.44
638.051	7923.42
638.244	7857.89
638.438	7943.9
638.632	7874.27
638.825	7829.21
639.019	7737.06
639.212	7712.48
639.406	7732.96
639.599	7769.82
639.793	7714.53
639.986	7601.89
640.18	7644.9
640.373	7573.22
640.567	7466.72
640.76	7474.92
640.954	7433.96
641.147	7343.85
641.34	7247.59
641.534	7253.73
641.727	7003.88
641.92	7018.22
642.114	7069.42
642.307	7073.51
642.5	7091.95
642.694	6964.97
642.887	7012.07
643.08	6889.2
643.273	6874.86
643.467	6868.72
643.66	6751.98
643.853	6743.79
644.046	6643.44
644.239	6653.68
644.432	6559.47
644.626	6649.58
644.819	6364.92
645.012	6520.56
645.205	6385.4
645.398	6348.53
645.591	6188.79
645.784	6385.4
645.977	6203.13
646.17	6313.72
646.363	6082.3
646.556	6129.4
646.749	6162.17
646.942	6145.78
647.135	5938.94
647.328	5940.99
647.521	5902.08
647.714	5797.63
647.907	5697.28
648.099	5908.22
648.292	5922.55
648.485	5883.64
648.678	5742.33
648.871	5693.18
649.064	5771.01
649.256	5766.91
649.449	5490.43
649.642	5517.06
649.835	5435.14
650.027	5560.06
650.22	5304.07
650.413	5463.81
650.605	5394.18
650.798	5322.5
650.991	5242.63
651.183	5277.44
651.376	5170.95
651.568	5261.06
651.761	5228.29
651.954	5297.92
652.146	5265.16
652.339	5242.63
652.531	5082.89
652.724	5054.22
652.916	5054.22
653.109	5072.65
653.301	5027.59
653.494	5005.06
653.686	4812.56
653.879	4878.09
654.071	4822.8
654.263	4708.11
654.456	4925.19
654.648	4673.29
654.84	4683.53
655.033	4747.02
655.225	4603.66
655.417	4566.8
655.61	4562.7
655.802	4595.47
655.994	4736.78
656.186	4507.41
656.379	4445.97
656.571	4618
656.763	4374.29
656.955	4386.58
657.148	4386.58
657.34	4345.62
657.532	4278.04
657.724	4310.8
657.916	4253.46
658.108	4171.54
658.3	4097.81
658.492	4392.72
658.684	4187.93
658.876	4134.68
659.068	4056.86
659.26	3942.17
659.452	4056.86
659.644	4005.66
659.836	3921.69
660.028	3987.22
660.22	3858.2
660.412	3950.36
660.604	3792.67
660.796	3739.42
660.988	3794.72
661.18	3782.43
661.372	3727.13
661.563	3718.94
661.755	3733.28
661.947	3696.41
662.139	3596.06
662.331	3774.24
662.522	3473.18
662.714	3645.21
662.906	3583.77
663.097	3325.73
663.289	3548.96
663.481	3495.71
663.673	3561.25
663.864	3307.3
664.056	3467.04
664.247	3405.6
664.439	3450.66
664.631	3335.97
664.822	3299.11
665.014	3462.94
665.205	3378.98
665.397	3376.93
665.588	3335.97
665.78	3235.62
665.971	3237.67
666.163	3319.59
666.354	3108.65
666.546	3116.84
666.737	3221.28
666.929	3110.69
667.12	3174.18
667.311	3311.39
667.503	3069.73
667.694	3108.65
667.885	3014.44
668.077	3125.03
668.268	3051.3
668.459	2977.58
668.651	2979.62
668.842	3016.49
669.033	2903.85
669.224	2860.84
669.416	2936.62
669.607	2881.32
669.798	3051.3
669.989	2961.19
670.18	2862.89
670.371	2754.35
670.563	2797.35
670.754	2776.87
670.945	2895.66
671.136	2711.34
671.327	2770.73
671.518	2746.16
671.709	2789.16
671.9	2750.25
672.091	2703.15
672.282	2721.58
672.473	2735.92
672.664	2729.77
672.855	2715.44
673.046	2717.48
673.237	2754.35
673.428	2815.79
673.619	2604.85
673.809	2701.1
674	2649.9
674.191	2684.72
674.382	2635.57
674.573	2643.76
674.764	2508.59
674.954	2567.98
675.145	2570.03
675.336	2520.88
675.527	2518.83
675.717	2547.5
675.908	2576.17
676.099	2484.02
676.289	2668.33
676.48	2457.39
676.671	2527.02
676.861	2596.65
677.052	2404.14
677.243	2506.54
677.433	2551.6
677.624	2436.91
677.814	2547.5
678.005	2522.93
678.195	2357.04
678.386	2522.93
678.576	2410.29
678.767	2375.47
678.957	2441.01
679.148	2496.3
679.338	2434.86
679.529	2471.73
679.719	2465.58
679.909	2373.43
680.1	2279.22
680.29	2367.28
680.481	2422.58
680.671	2240.31
680.861	2354.99
681.052	2318.13
681.242	2402.1
681.432	2363.19
681.622	2303.79
681.813	2381.62
682.003	2307.89
682.193	2314.03
682.383	2418.48
682.573	2240.31
682.764	2338.61
682.954	2311.99
683.144	2256.69
683.334	2271.03
683.524	2357.04
683.714	2371.38
683.904	2324.27
684.094	2379.57
684.284	2326.32
684.474	2195.25
684.664	2318.13
684.854	2248.5
685.044	2266.93
685.234	2244.4
685.424	2301.75
685.614	2326.32
685.804	2262.83
685.994	2242.36
686.184	2246.45
686.374	2254.64
686.564	2275.12
686.753	2320.18
686.943	2260.79
687.133	2236.21
687.323	2242.36
687.513	2248.5
687.702	2101.05
687.892	2139.96
688.082	2172.72
688.272	2293.55
688.461	2191.16
688.651	2383.66
688.841	2203.44
689.03	2193.2
689.22	2344.75
689.41	2168.63
689.599	2195.25
689.789	2160.44
689.979	2342.71
690.168	2219.83
690.358	2221.88
690.547	2086.71
690.737	2195.25
690.926	2187.06
691.116	2162.48
691.305	2174.77
691.495	2230.07
691.684	2156.34
691.874	2215.73
692.063	2279.22
692.252	2238.26
692.442	2264.88
692.631	2148.15
692.82	2211.64
693.01	2242.36
693.199	2168.63
693.388	2187.06
693.578	2256.69
693.767	2137.91
693.956	2197.3
694.146	2299.7
694.335	2103.09
694.524	2142
694.713	2299.7
694.902	2174.77
695.092	2146.1
695.281	2332.47
695.47	2244.4
695.659	2162.48
695.848	2193.2
696.037	2250.55
696.226	2139.96
696.415	2264.88
696.604	2154.29
696.793	2125.62
696.982	2189.11
697.171	2182.96
697.36	2172.72
697.549	2191.16
697.738	2221.88
697.927	2246.45
698.116	2205.49
698.305	2174.77
698.494	2168.63
698.683	2238.26
698.872	2228.02
699.061	2148.15
699.25	2203.44
699.438	2230.07
699.627	2152.24
699.816	2135.86
700.005	2187.06
700.193	2154.29
700.382	2170.68
700.571	2139.96
700.76	2164.53
700.948	2303.79
701.137	2195.25
701.326	2150.2
701.514	2115.38
701.703	2172.72
701.892	2129.72
702.08	2068.28
702.269	2238.26
702.457	2164.53
702.646	2092.85
702.834	2182.96
703.023	2150.2
703.212	2111.29
703.4	2283.31
703.589	2064.18
703.777	2125.62
703.965	2187.06
704.154	2076.47
704.342	2228.02
704.531	2197.3
704.719	2105.14
704.907	2002.74
705.096	2076.47
705.284	2142
705.472	2092.85
705.661	2047.8
705.849	2074.42
706.037	2121.52
706.226	2017.08
706.414	2053.94
706.602	2090.81
706.79	2088.76
706.979	2152.24
707.167	2092.85
707.355	1994.55
707.543	2033.46
707.731	1969.98
707.919	2080.57
708.107	2088.76
708.296	2006.84
708.484	1935.16
708.672	1988.41
708.86	1963.83
709.048	2010.93
709.236	1953.59
709.424	2055.99
709.612	1986.36
709.8	1978.17
709.988	1918.78
710.176	1992.5
710.364	2010.93
710.551	1955.64
710.739	1886.01
710.927	1879.86
711.115	1924.92
711.303	1908.54
711.491	1888.06
711.679	1922.87
711.866	1840.95
712.054	1877.82
712.242	1787.71
712.43	1795.9
712.617	1781.56
712.805	1812.28
712.993	1947.45
713.181	1865.53
713.368	1853.24
713.556	1789.75
713.744	1713.98
713.931	1851.19
714.119	1810.23
714.306	1683.26
714.494	1861.43
714.682	1793.85
714.869	1756.99
715.057	1824.57
715.244	1740.6
715.432	1740.6
715.619	1697.6
715.807	1685.31
715.994	1738.55
716.182	1726.27
716.369	1853.24
716.556	1627.96
716.744	1744.7
716.931	1611.58
717.119	1744.7
717.306	1711.93
717.493	1550.14
717.681	1652.54
717.868	1681.21
718.055	1662.78
718.242	1707.84
718.43	1670.97
718.617	1597.24
718.804	1650.49
718.991	1664.83
719.179	1662.78
719.366	1587.01
719.553	1660.73
719.74	1607.48
719.927	1627.96
720.114	1611.58
720.301	1505.09
720.488	1654.59
720.676	1462.08
720.863	1546.05
721.05	1625.92
721.237	1609.53
721.424	1574.72
721.611	1529.66
721.798	1537.85
721.985	1537.85
722.172	1468.22
722.358	1515.33
722.545	1515.33
722.732	1523.52
722.919	1589.05
723.106	1431.36
723.293	1531.71
723.48	1464.13
723.667	1474.37
723.853	1529.66
724.04	1492.8
724.227	1503.04
724.414	1423.17
724.6	1376.06
724.787	1552.19
724.974	1457.98
725.161	1431.36
725.347	1390.4
725.534	1388.35
725.72	1480.51
725.907	1339.2
726.094	1449.79
726.28	1390.4
726.467	1408.83
726.653	1353.54
726.84	1427.26
727.027	1335.1
727.213	1361.73
727.4	1427.26
727.586	1392.45
727.773	1443.65
727.959	1406.78
728.145	1453.89
728.332	1353.54
728.518	1288
728.705	1292.1
728.891	1337.15
729.077	1425.22
729.264	1357.63
729.45	1273.67
729.636	1355.58
729.823	1417.02
730.009	1292.1
730.195	1363.78
730.382	1378.11
730.568	1304.39
730.754	1257.28
730.94	1345.34
731.126	1318.72
731.313	1292.1
731.499	1228.61
731.685	1316.67
731.871	1283.91
732.057	1296.19
732.243	1236.8
732.429	1304.39
732.615	1244.99
732.801	1271.62
732.987	1279.81
733.173	1281.86
733.359	1222.47
733.545	1224.51
733.731	1152.84
733.917	1232.71
734.103	1171.27
734.289	1285.95
734.475	1269.57
734.661	1267.52
734.847	1175.36
735.033	1185.6
735.219	1222.47
735.404	1234.75
735.59	1148.74
735.776	1144.64
735.962	1099.59
736.148	1220.42
736.333	1179.46
736.519	1136.45
736.705	1152.84
736.89	1175.36
737.076	1087.3
737.262	1122.12
737.447	1142.6
737.633	1167.17
737.819	1097.54
738.004	1183.56
738.19	1228.61
738.375	1158.98
738.561	1197.89
738.747	1068.87
738.932	1113.92
739.118	1097.54
739.303	1079.11
739.489	1081.16
739.674	1124.16
739.859	991.05
740.045	1050.44
740.23	1060.68
740.416	1093.44
740.601	1007.43
740.786	1042.25
740.972	999.24
741.157	1032.01
741.342	948.04
741.528	978.76
741.713	976.71
741.898	921.42
742.084	1058.63
742.269	984.9
742.454	980.81
742.639	991.05
742.824	954.18
743.01	1017.67
743.195	939.85
743.38	989
743.565	974.66
743.75	1009.48
743.935	909.13
744.12	1003.33
744.305	984.9
744.49	1079.11
744.675	1013.57
744.86	954.18
745.045	972.61
745.23	896.84
745.415	1015.62
745.6	976.71
745.785	968.52
745.97	1017.67
746.155	907.08
746.34	857.93
746.525	886.6
746.71	882.5
746.895	945.99
747.079	909.13
747.264	845.64
747.449	902.98
747.634	870.22
747.819	788.3
748.003	833.35
748.188	812.87
748.373	802.63
748.557	919.37
748.742	890.7
748.927	800.59
749.111	888.65
749.296	870.22
749.481	845.64
749.665	816.97
749.85	749.39
750.034	874.31
750.219	763.72
750.404	839.5
750.588	708.43
750.773	794.44
750.957	761.67
751.141	634.7
751.326	790.35
751.51	743.24
751.695	839.5
751.879	767.82
752.064	716.62
752.248	773.96
752.432	665.42
752.617	622.41
752.801	743.24
752.985	728.91
753.17	765.77
753.354	651.08
753.538	685.9
753.722	640.84
753.907	704.33
754.091	673.61
754.275	722.76
754.459	618.32
754.643	638.8
754.828	620.36
755.012	661.32
755.196	628.56
755.38	565.07
755.564	659.28
755.748	669.52
755.932	640.84
756.116	667.47
756.3	593.74
756.484	653.13
756.668	634.7
756.852	646.99
757.036	591.69
757.22	565.07
757.404	610.12
757.588	685.9
757.772	606.03
757.956	610.12
758.14	573.26
758.323	546.64
758.507	530.25
758.691	673.61
758.875	618.32
759.059	489.29
759.242	599.88
759.426	634.7
759.61	556.88
759.794	472.91
759.977	610.12
760.161	579.4
760.345	526.16
760.528	614.22
760.712	468.81
760.895	573.26
761.079	489.29
761.263	577.36
761.446	528.21
761.63	569.16
761.813	556.88
761.997	505.68
762.18	536.4
762.364	517.97
762.547	448.33
762.731	495.44
762.914	487.25
763.098	579.4
763.281	511.82
763.464	456.53
763.648	560.97
763.831	448.33
764.015	491.34
764.198	431.95
764.381	474.96
764.564	481.1
764.748	448.33
764.931	444.24
765.114	534.35
765.297	491.34
765.481	417.61
765.664	403.28
765.847	501.58
766.03	517.97
766.213	470.86
766.397	505.68
766.58	558.92
766.763	532.3
766.946	520.01
767.129	421.71
767.312	366.42
767.495	511.82
767.678	434
767.861	560.97
768.044	474.96
768.227	466.77
768.41	483.15
768.593	497.49
768.776	468.81
768.959	411.47
769.142	493.39
769.324	470.86
769.507	466.77
769.69	419.66
769.873	458.57
770.056	499.53
770.239	431.95
770.421	444.24
770.604	423.76
770.787	366.42
770.97	393.04
771.152	350.03
771.335	393.04
771.518	368.46
771.7	405.33
771.883	429.9
772.066	423.76
772.248	460.62
772.431	417.61
772.613	423.76
772.796	438.09
772.978	397.14
773.161	372.56
773.343	427.85
773.526	325.46
773.708	384.85
773.891	370.51
774.073	388.94
774.256	405.33
774.438	327.5
774.621	358.22
774.803	411.47
774.985	370.51
775.168	350.03
775.35	284.5
775.532	431.95
775.715	399.18
775.897	329.55
776.079	356.18
776.261	356.18
776.444	300.88
776.626	311.12
776.808	286.54
776.99	413.52
777.173	315.22
777.355	358.22
777.537	268.11
777.719	296.78
777.901	315.22
778.083	337.74
778.265	280.4
778.447	319.31
778.629	350.03
778.811	298.83
778.993	356.18
779.175	356.18
779.357	339.79
779.539	266.07
779.721	317.26
779.903	350.03
780.085	311.12
780.267	337.74
780.449	298.83
780.631	290.64
780.812	261.97
780.994	286.54
781.176	333.65
781.358	339.79
781.54	237.39
781.721	321.36
781.903	309.07
782.085	321.36
782.267	315.22
782.448	239.44
782.63	302.93
782.812	315.22
782.993	200.53
783.175	288.59
783.357	290.64
783.538	288.59
783.72	292.69
783.901	247.63
784.083	268.11
784.264	237.39
784.446	202.58
784.627	274.26
784.809	210.77
784.99	243.54
785.172	249.68
785.353	362.32
785.535	307.02
785.716	212.82
785.897	216.91
786.079	266.07
786.26	188.24
786.441	241.49
786.623	169.81
786.804	184.15
786.985	268.11
787.167	268.11
787.348	188.24
787.529	204.63
787.71	200.53
787.891	210.77
788.073	130.9
788.254	255.83
788.435	245.59
788.616	175.95
788.797	190.29
788.978	276.31
789.159	255.83
789.34	186.19
789.522	225.11
789.703	282.45
789.884	190.29
790.065	194.39
790.246	227.15
790.427	216.91
790.607	200.53
790.788	216.91
790.969	221.01
791.15	130.9
791.331	175.95
791.512	235.35
791.693	128.85
791.874	167.76
792.054	173.91
792.235	233.3
792.416	180.05
792.597	200.53
792.778	173.91
792.958	137.04
793.139	143.19
793.32	229.2
793.5	208.72
793.681	132.95
793.862	126.8
794.042	182.1
794.223	182.1
794.404	108.37
794.584	204.63
794.765	178
794.945	171.86
795.126	175.95
795.306	212.82
795.487	223.06
795.667	153.43
795.848	116.56
796.028	69.46
796.209	122.71
796.389	102.23
796.57	122.71
796.75	96.08
796.93	139.09
797.111	102.23
797.291	120.66
797.471	139.09
797.652	149.33
797.832	147.28
798.012	147.28
798.192	83.8
798.373	151.38
798.553	126.8
798.733	91.99
798.913	118.61
799.093	28.5
799.274	151.38
799.454	153.43
799.634	132.95
799.814	145.24
799.994	157.52
800.174	149.33
800.354	120.66
800.534	161.62
800.714	137.04
800.894	100.18
801.074	65.36
801.254	118.61
801.434	124.76
801.614	85.84
801.794	135
801.974	333.65
802.154	102.23
802.334	188.24
802.514	132.95
802.693	161.62
802.873	20.31
803.053	159.57
803.233	102.23
803.413	126.8
803.592	69.46
803.772	110.42
803.952	96.08
804.131	100.18
804.311	46.93
804.491	96.08
804.67	118.61
804.85	108.37
805.03	81.75
805.209	124.76
805.389	77.65
805.568	137.04
805.748	114.52
805.928	169.81
806.107	108.37
806.287	100.18
806.466	46.93
806.646	126.8
806.825	124.76
807.004	167.76
807.184	61.27
807.363	132.95
807.543	126.8
807.722	48.98
807.901	137.04
808.081	87.89
808.26	26.45
808.439	83.8
808.619	94.04
808.798	77.65
808.977	163.67
809.156	81.75
809.336	94.04
809.515	42.84
809.694	112.47
809.873	163.67
810.052	3.93
810.231	57.17
810.411	157.52
810.59	114.52
810.769	28.5
810.948	128.85
811.127	65.36
811.306	63.32
811.485	91.99
811.664	51.03
811.843	61.27
812.022	104.28
812.201	89.94
812.38	32.6
812.559	110.42
812.737	71.51
812.916	67.41
813.095	83.8
813.274	61.27
813.453	128.85
813.632	71.51
813.811	77.65
813.989	44.88
814.168	71.51
814.347	8.02
814.526	44.88
814.704	75.6
814.883	100.18
815.062	69.46
815.24	55.12
815.419	40.79
815.598	69.46
815.776	57.17
815.955	59.22
816.133	96.08
816.312	59.22
816.49	75.6
816.669	91.99
816.847	81.75
817.026	59.22
817.204	51.03
817.383	36.69
817.561	10.07
817.74	81.75
817.918	83.8
818.097	94.04
818.275	36.69
818.453	-10.41
818.632	63.32
818.81	16.21
818.988	42.84
819.167	83.8
819.345	51.03
819.523	71.51
819.701	18.26
819.879	126.8
820.058	22.36
820.236	61.27
820.414	71.51
820.592	38.74
820.77	-47.27
820.948	124.76
821.127	128.85
821.305	67.41
821.483	44.88
821.661	-0.17
821.839	55.12
822.017	-14.51
822.195	30.55
822.373	102.23
822.551	89.94
822.729	137.04
822.907	24.4
823.085	28.5
823.262	79.7
823.44	81.75
823.618	71.51
823.796	81.75
823.974	42.84
824.152	75.6
824.329	38.74
824.507	-10.41
824.685	40.79
824.863	34.64
825.04	73.56
825.218	20.31
825.396	34.64
825.574	28.5
825.751	-10.41
825.929	-8.36
826.107	10.07
826.284	-8.36
826.462	73.56
826.639	12.12
826.817	34.64
826.994	91.99
827.172	85.84
827.349	53.08
827.527	77.65
827.704	71.51
827.882	-22.7
828.059	71.51
828.237	-28.84
828.414	114.52
828.591	3.93
828.769	36.69
828.946	73.56
829.124	81.75
829.301	55.12
829.478	-4.27
829.655	83.8
829.833	44.88
830.01	16.21
830.187	51.03
830.364	26.45
830.542	79.7
830.719	-37.03
830.896	57.17
831.073	-26.79
831.25	51.03
831.427	46.93
831.604	55.12
831.782	12.12
831.959	67.41
832.136	-2.22
832.313	-4.27
832.49	55.12
832.667	40.79
832.844	20.31
833.021	120.66
833.198	53.08
833.374	69.46
833.551	48.98
833.728	42.84
833.905	20.31
834.082	-4.27
834.259	14.17
834.436	67.41
834.612	79.7
834.789	-14.51
834.966	-10.41
835.143	34.64
835.319	16.21
835.496	5.97
835.673	55.12
835.85	96.08
836.026	24.4
836.203	98.13
836.38	32.6
836.556	-4.27
836.733	34.64
836.909	65.36
837.086	18.26
837.262	46.93
837.439	10.07
837.616	53.08
837.792	71.51
837.968	51.03
838.145	36.69
838.321	63.32
838.498	18.26
838.674	-22.7
838.851	83.8
839.027	48.98
839.203	36.69
839.38	65.36
839.556	12.12
839.732	85.84
839.909	61.27
840.085	36.69
840.261	-14.51
840.437	26.45
840.614	-8.36
840.79	40.79
840.966	1.88
841.142	5.97
841.318	14.17
841.494	16.21
841.671	-28.84
841.847	36.69
842.023	57.17
842.199	42.84
842.375	26.45
842.551	36.69
842.727	8.02
842.903	-2.22
843.079	18.26
843.255	26.45
843.431	67.41
843.607	36.69
843.783	5.97
843.959	67.41
844.134	-4.27
844.31	38.74
844.486	10.07
844.662	20.31
844.838	71.51
845.013	91.99
845.189	18.26
845.365	30.55
845.541	36.69
845.716	32.6
845.892	-12.46
846.068	46.93
846.244	98.13
846.419	46.93
846.595	14.17
846.77	67.41
846.946	53.08
847.122	44.88
847.297	24.4
847.473	91.99
847.648	-39.08
847.824	36.69
847.999	12.12
848.175	14.17
848.35	48.98
848.526	51.03
848.701	30.55
848.876	53.08
849.052	-51.37
849.227	26.45
849.403	36.69
849.578	46.93
849.753	67.41
849.929	-22.7
850.104	-12.46
850.279	75.6
850.454	53.08
850.63	-34.99
850.805	-20.65
850.98	1.88
851.155	-24.75
851.33	16.21
851.505	36.69
851.681	34.64
851.856	61.27
852.031	-12.46
852.206	5.97
852.381	-30.89
852.556	79.7
852.731	42.84
852.906	1.88
853.081	-0.17
853.256	-2.22
853.431	-28.84
853.606	10.07
853.781	32.6
853.956	79.7
854.131	16.21
854.305	53.08
854.48	30.55
854.655	34.64
854.83	1.88
855.005	10.07
855.18	10.07
855.354	-0.17
855.529	-32.94
855.704	-10.41
855.879	104.28
856.053	-4.27
856.228	-30.89
856.403	81.75
856.577	20.31
856.752	-57.51
856.926	26.45
857.101	-16.55
857.276	-59.56
857.45	59.22
857.625	53.08
857.799	-37.03
857.974	-37.03
858.148	28.5
858.323	42.84
858.497	65.36
858.672	-34.99
858.846	-18.6
859.02	59.22
859.195	44.88
859.369	57.17
859.543	44.88
859.718	-8.36
859.892	51.03
860.066	-65.71
860.241	40.79
860.415	10.07
860.589	28.5
860.763	-12.46
860.938	-6.31
861.112	-41.13
861.286	12.12
861.46	69.46
861.634	-20.65
861.808	34.64
861.982	14.17
862.157	16.21
862.331	-55.47
862.505	-30.89
862.679	1.88
862.853	-2.22
863.027	38.74
863.201	147.28
863.375	-10.41
863.549	48.98
863.722	14.17
863.896	28.5
864.07	46.93
864.244	1.88
864.418	18.26
864.592	59.22
864.766	28.5
864.939	-75.95
865.113	-61.61
865.287	12.12
865.461	24.4
865.634	18.26
865.808	-6.31
865.982	28.5
866.156	-37.03
866.329	57.17
866.503	5.97
866.676	26.45
866.85	-32.94
867.024	81.75
867.197	38.74
867.371	-12.46
867.544	-8.36
867.718	-28.84
867.891	-14.51
868.065	59.22
868.238	16.21
868.412	-8.36
868.585	-8.36
868.759	65.36
868.932	-26.79
869.105	16.21
869.279	-65.71
869.452	-55.47
869.625	-4.27
869.799	34.64
869.972	-30.89
870.145	-0.17
870.319	18.26
870.492	-2.22
870.665	1.88
870.838	-34.99
871.011	-47.27
871.185	-12.46
871.358	-37.03
871.531	-26.79
871.704	53.08
871.877	-12.46
872.05	12.12
872.223	-51.37
872.396	-39.08
872.569	-22.7
872.742	10.07
872.915	34.64
873.088	-18.6
873.261	83.8
873.434	94.04
873.607	65.36
873.78	28.5
873.953	-55.47
874.126	71.51
874.299	65.36
874.471	-14.51
874.644	18.26
874.817	61.27
874.99	28.5
875.163	-37.03
875.335	-41.13
875.508	12.12
875.681	42.84
875.853	-39.08
876.026	8.02
876.199	-20.65
876.371	-55.47
876.544	-10.41
876.717	-32.94
876.889	-4.27
877.062	-2.22
877.234	-16.55
877.407	8.02
877.579	-4.27
877.752	-43.18
877.924	89.94
878.097	53.08
878.269	-24.75
878.442	32.6
878.614	20.31
878.786	32.6
878.959	-14.51
879.131	61.27
879.303	-6.31
879.476	71.51
879.648	-30.89
879.82	-2.22
879.993	44.88
880.165	16.21
880.337	36.69
880.509	-32.94
880.681	-75.95
880.854	-12.46
881.026	40.79
881.198	16.21
881.37	-6.31
881.542	67.41
881.714	14.17
881.886	63.32
882.058	-26.79
882.23	26.45
882.402	-45.23
882.574	22.36
882.746	3.93
882.918	59.22
883.09	-20.65
883.262	16.21
883.434	-22.7
883.606	10.07
883.778	5.97
883.95	40.79
884.122	-43.18
884.293	67.41
884.465	-8.36
884.637	3.93
884.809	14.17
884.98	-53.42
885.152	63.32
885.324	53.08
885.496	1.88
885.667	-10.41
885.839	30.55
886.011	22.36
886.182	57.17
886.354	42.84
886.525	65.36
886.697	16.21
886.869	-8.36
887.04	-2.22
887.212	-6.31
887.383	20.31
887.555	18.26
887.726	28.5
887.897	-55.47
888.069	-53.42
888.24	8.02
888.412	36.69
888.583	14.17
888.754	69.46
888.926	-51.37
889.097	-20.65
889.268	1.88
889.44	-24.75
889.611	-8.36
889.782	1.88
889.953	44.88
890.125	44.88
890.296	-22.7
890.467	12.12
890.638	-26.79
890.809	-55.47
890.98	-39.08
891.151	75.6
891.323	-65.71
891.494	12.12
891.665	14.17
891.836	42.84
892.007	-6.31
892.178	10.07
892.349	-37.03
892.52	-0.17
892.691	-14.51
892.862	-8.36
893.032	-24.75
893.203	-34.99
893.374	-28.84
893.545	24.4
893.716	-28.84
893.887	-10.41
894.057	-16.55
894.228	3.93
894.399	48.98
894.57	-22.7
894.74	24.4
894.911	-14.51
895.082	-47.27
895.253	-8.36
895.423	-49.32
895.594	12.12
895.764	3.93
895.935	36.69
896.106	1.88
896.276	3.93
896.447	42.84
896.617	16.21
896.788	-106.67
896.958	3.93
897.129	42.84
897.299	-88.23
897.47	26.45
897.64	51.03
897.81	-30.89
897.981	5.97
898.151	12.12
898.322	59.22
898.492	1.88
898.662	55.12
898.832	75.6
899.003	-37.03
899.173	-24.75
899.343	-14.51
899.513	38.74
