Data from USB4F104151__98__13-54-37-929.txt Node

Date: Thu Mar 13 13:54:37 EDT 2025
User: louis
Spectrometer: USB4F10415
Trigger mode: 4
Integration Time (sec): 1.000000E-2
Scans to average: 1
Electric dark correction enabled: true
Nonlinearity correction enabled: false
Boxcar width: 0
XAxis mode: Wavelengths
Number of Pixels in Spectrum: 3648
>>>>>Begin Spectral Data<<<<<
178.204	-13.99
178.424	-13.99
178.644	-13.99
178.864	-34.47
179.084	18.77
179.304	26.96
179.524	-87.72
179.744	47.44
179.964	45.4
180.184	55.64
180.404	-20.14
180.624	-71.34
180.844	-48.81
181.064	31.06
181.283	41.3
181.503	-71.34
181.723	51.54
181.943	-20.14
182.163	-9.9
182.383	-3.75
182.602	-38.57
182.822	33.11
183.042	-16.04
183.262	59.73
183.482	-69.29
183.701	-11.95
183.921	-34.47
184.141	-5.8
184.361	20.82
184.58	0.34
184.8	-54.95
185.02	43.35
185.239	63.83
185.459	-20.14
185.679	-13.99
185.898	33.11
186.118	49.49
186.338	6.49
186.557	33.11
186.777	-71.34
186.997	65.88
187.216	-46.76
187.436	-20.14
187.655	55.64
187.875	10.58
188.095	-40.62
188.314	49.49
188.534	39.25
188.753	16.73
188.973	10.58
189.192	43.35
189.412	8.53
189.631	20.82
189.851	49.49
190.07	-18.09
190.29	20.82
190.509	-24.23
190.729	47.44
190.948	39.25
191.168	10.58
191.387	-28.33
191.607	20.82
191.826	-16.04
192.045	-57
192.265	-20.14
192.484	-75.43
192.704	-50.86
192.923	59.73
193.142	35.16
193.362	0.34
193.581	-50.86
193.8	20.82
194.02	12.63
194.239	-22.19
194.458	10.58
194.678	47.44
194.897	-5.8
195.116	-30.38
195.335	-1.71
195.555	-32.43
195.774	4.44
195.993	-38.57
196.212	-30.38
196.432	-28.33
196.651	37.2
196.87	2.39
197.089	-16.04
197.308	26.96
197.528	-18.09
197.747	55.64
197.966	12.63
198.185	-36.52
198.404	33.11
198.623	-20.14
198.842	35.16
199.062	2.39
199.281	4.44
199.5	-22.19
199.719	-28.33
199.938	-22.19
200.157	18.77
200.376	37.2
200.595	-7.85
200.814	-38.57
201.033	-34.47
201.252	0.34
201.471	6.49
201.69	22.87
201.909	0.34
202.128	26.96
202.347	16.73
202.566	18.77
202.785	51.54
203.004	20.82
203.223	76.12
203.442	37.2
203.661	6.49
203.879	-11.95
204.098	-34.47
204.317	-30.38
204.536	33.11
204.755	-5.8
204.974	6.49
205.193	51.54
205.411	41.3
205.63	12.63
205.849	-16.04
206.068	6.49
206.287	33.11
206.505	-75.43
206.724	-40.62
206.943	43.35
207.162	4.44
207.381	-24.23
207.599	2.39
207.818	-95.91
208.037	-83.63
208.255	-59.05
208.474	29.01
208.693	-36.52
208.911	18.77
209.13	-16.04
209.349	12.63
209.567	-26.28
209.786	-20.14
210.005	-16.04
210.223	-26.28
210.442	-16.04
210.661	-5.8
210.879	-28.33
211.098	12.63
211.316	20.82
211.535	74.07
211.753	10.58
211.972	-1.71
212.191	2.39
212.409	-1.71
212.628	-26.28
212.846	-24.23
213.065	-7.85
213.283	-7.85
213.502	-20.14
213.72	-32.43
213.938	-18.09
214.157	29.01
214.375	55.64
214.594	-42.67
214.812	-13.99
215.031	-9.9
215.249	-36.52
215.467	26.96
215.686	10.58
215.904	57.68
216.122	59.73
216.341	-38.57
216.559	65.88
216.778	84.31
216.996	72.02
217.214	-16.04
217.432	-30.38
217.651	8.53
217.869	-50.86
218.087	72.02
218.306	-40.62
218.524	-30.38
218.742	-38.57
218.96	-20.14
219.179	-61.1
219.397	16.73
219.615	26.96
219.833	31.06
220.051	12.63
220.27	41.3
220.488	-3.75
220.706	-1.71
220.924	-38.57
221.142	0.34
221.36	-20.14
221.578	-30.38
221.796	-11.95
222.015	-34.47
222.233	-38.57
222.451	26.96
222.669	-26.28
222.887	20.82
223.105	-38.57
223.323	35.16
223.541	-34.47
223.759	-13.99
223.977	6.49
224.195	-3.75
224.413	22.87
224.631	2.39
224.849	-36.52
225.067	33.11
225.285	14.68
225.503	-5.8
225.721	8.53
225.939	-20.14
226.157	-5.8
226.375	39.25
226.592	-20.14
226.81	10.58
227.028	14.68
227.246	49.49
227.464	-7.85
227.682	35.16
227.9	-59.05
228.117	-28.33
228.335	26.96
228.553	41.3
228.771	-59.05
228.989	16.73
229.206	-46.76
229.424	-28.33
229.642	-20.14
229.86	2.39
230.077	-44.71
230.295	59.73
230.513	26.96
230.731	8.53
230.948	-30.38
231.166	65.88
231.384	39.25
231.601	-85.67
231.819	43.35
232.037	2.39
232.254	74.07
232.472	0.34
232.689	31.06
232.907	-16.04
233.125	-32.43
233.342	-7.85
233.56	16.73
233.777	-18.09
233.995	-44.71
234.213	-22.19
234.43	-18.09
234.648	22.87
234.865	-26.28
235.083	-48.81
235.3	10.58
235.518	14.68
235.735	2.39
235.953	-61.1
236.17	20.82
236.388	-5.8
236.605	-22.19
236.822	84.31
237.04	-24.23
237.257	29.01
237.475	12.63
237.692	18.77
237.909	-26.28
238.127	31.06
238.344	43.35
238.562	63.83
238.779	12.63
238.996	29.01
239.214	-42.67
239.431	59.73
239.648	-36.52
239.865	-30.38
240.083	-22.19
240.3	39.25
240.517	35.16
240.735	-40.62
240.952	24.92
241.169	86.36
241.386	18.77
241.603	20.82
241.821	-20.14
242.038	29.01
242.255	4.44
242.472	-13.99
242.689	20.82
242.907	-38.57
243.124	78.16
243.341	16.73
243.558	2.39
243.775	-50.86
243.992	-52.91
244.209	-16.04
244.426	-18.09
244.643	-44.71
244.86	59.73
245.078	-13.99
245.295	47.44
245.512	-16.04
245.729	-44.71
245.946	-22.19
246.163	2.39
246.38	-22.19
246.597	18.77
246.814	74.07
247.031	12.63
247.248	-30.38
247.464	-34.47
247.681	-18.09
247.898	-38.57
248.115	26.96
248.332	8.53
248.549	29.01
248.766	24.92
248.983	18.77
249.2	12.63
249.417	-3.75
249.633	-36.52
249.85	20.82
250.067	-65.19
250.284	24.92
250.501	-20.14
250.717	-5.8
250.934	57.68
251.151	35.16
251.368	14.68
251.585	-7.85
251.801	-9.9
252.018	12.63
252.235	59.73
252.451	0.34
252.668	24.92
252.885	-11.95
253.102	12.63
253.318	14.68
253.535	4.44
253.752	10.58
253.968	-42.67
254.185	39.25
254.401	8.53
254.618	16.73
254.835	-16.04
255.051	-18.09
255.268	10.58
255.484	-3.75
255.701	80.21
255.917	-5.8
256.134	-28.33
256.351	-42.67
256.567	22.87
256.784	-42.67
257	-40.62
257.217	31.06
257.433	-3.75
257.65	0.34
257.866	45.4
258.082	53.59
258.299	37.2
258.515	0.34
258.732	-9.9
258.948	-13.99
259.165	18.77
259.381	16.73
259.597	-11.95
259.814	41.3
260.03	22.87
260.246	-16.04
260.463	96.6
260.679	-30.38
260.895	14.68
261.112	65.88
261.328	-18.09
261.544	29.01
261.761	-18.09
261.977	14.68
262.193	51.54
262.409	33.11
262.626	10.58
262.842	31.06
263.058	-16.04
263.274	47.44
263.49	10.58
263.707	18.77
263.923	-77.48
264.139	45.4
264.355	4.44
264.571	33.11
264.787	20.82
265.004	-9.9
265.22	92.5
265.436	18.77
265.652	-9.9
265.868	20.82
266.084	-28.33
266.3	31.06
266.516	8.53
266.732	63.83
266.948	-3.75
267.164	51.54
267.38	18.77
267.596	47.44
267.812	39.25
268.028	55.64
268.244	-11.95
268.46	2.39
268.676	6.49
268.892	29.01
269.108	20.82
269.324	-7.85
269.54	4.44
269.756	8.53
269.972	-46.76
270.188	-20.14
270.403	6.49
270.619	-13.99
270.835	43.35
271.051	-20.14
271.267	-32.43
271.483	-5.8
271.698	-9.9
271.914	-22.19
272.13	24.92
272.346	-30.38
272.562	65.88
272.777	-20.14
272.993	33.11
273.209	39.25
273.425	-50.86
273.64	61.78
273.856	41.3
274.072	26.96
274.287	-65.19
274.503	43.35
274.719	-11.95
274.934	12.63
275.15	74.07
275.366	-13.99
275.581	-1.71
275.797	-16.04
276.012	31.06
276.228	-67.24
276.444	55.64
276.659	-40.62
276.875	-5.8
277.09	4.44
277.306	16.73
277.521	-13.99
277.737	-5.8
277.952	51.54
278.168	80.21
278.383	-44.71
278.599	67.92
278.814	55.64
279.03	55.64
279.245	-11.95
279.461	-100.01
279.676	-42.67
279.892	31.06
280.107	4.44
280.322	-7.85
280.538	57.68
280.753	-42.67
280.969	115.03
281.184	-54.95
281.399	22.87
281.615	-79.53
281.83	12.63
282.045	-13.99
282.26	-59.05
282.476	35.16
282.691	94.55
282.906	-75.43
283.122	-26.28
283.337	-7.85
283.552	-24.23
283.767	2.39
283.983	-69.29
284.198	-16.04
284.413	35.16
284.628	22.87
284.843	18.77
285.058	90.45
285.274	-11.95
285.489	2.39
285.704	-24.23
285.919	-16.04
286.134	-22.19
286.349	-65.19
286.564	-7.85
286.779	0.34
286.995	-48.81
287.21	18.77
287.425	37.2
287.64	6.49
287.855	-52.91
288.07	-26.28
288.285	31.06
288.5	63.83
288.715	29.01
288.93	20.82
289.145	-38.57
289.36	-9.9
289.575	-9.9
289.79	29.01
290.004	29.01
290.219	26.96
290.434	6.49
290.649	76.12
290.864	90.45
291.079	45.4
291.294	-83.63
291.509	-5.8
291.724	39.25
291.938	-3.75
292.153	20.82
292.368	-28.33
292.583	39.25
292.798	57.68
293.012	16.73
293.227	35.16
293.442	29.01
293.657	10.58
293.871	0.34
294.086	35.16
294.301	22.87
294.516	6.49
294.73	37.2
294.945	29.01
295.16	29.01
295.374	29.01
295.589	24.92
295.804	-7.85
296.018	39.25
296.233	26.96
296.447	26.96
296.662	24.92
296.877	-7.85
297.091	-40.62
297.306	26.96
297.52	33.11
297.735	20.82
297.949	8.53
298.164	-7.85
298.378	-34.47
298.593	-30.38
298.807	-11.95
299.022	39.25
299.236	53.59
299.451	24.92
299.665	31.06
299.88	4.44
300.094	-11.95
300.309	12.63
300.523	-57
300.737	-26.28
300.952	18.77
301.166	31.06
301.381	41.3
301.595	33.11
301.809	72.02
302.024	31.06
302.238	4.44
302.452	0.34
302.667	-24.23
302.881	37.2
303.095	-30.38
303.309	-16.04
303.524	-1.71
303.738	12.63
303.952	8.53
304.166	-69.29
304.381	-22.19
304.595	55.64
304.809	51.54
305.023	-16.04
305.237	10.58
305.452	-28.33
305.666	4.44
305.88	20.82
306.094	-28.33
306.308	22.87
306.522	6.49
306.736	4.44
306.95	-22.19
307.164	-20.14
307.379	-48.81
307.593	43.35
307.807	2.39
308.021	47.44
308.235	-18.09
308.449	51.54
308.663	-44.71
308.877	-1.71
309.091	-18.09
309.305	-65.19
309.519	-34.47
309.733	43.35
309.947	-32.43
310.161	-20.14
310.374	51.54
310.588	22.87
310.802	-36.52
311.016	-7.85
311.23	22.87
311.444	57.68
311.658	-1.71
311.872	-20.14
312.085	61.78
312.299	29.01
312.513	6.49
312.727	45.4
312.941	-83.63
313.154	61.78
313.368	55.64
313.582	35.16
313.796	22.87
314.009	14.68
314.223	-26.28
314.437	-5.8
314.651	12.63
314.864	6.49
315.078	55.64
315.292	-3.75
315.505	-71.34
315.719	20.82
315.933	47.44
316.146	41.3
316.36	39.25
316.573	45.4
316.787	47.44
317.001	45.4
317.214	10.58
317.428	55.64
317.641	45.4
317.855	51.54
318.068	0.34
318.282	14.68
318.495	-24.23
318.709	6.49
318.922	33.11
319.136	-11.95
319.349	37.2
319.563	61.78
319.776	14.68
319.99	-20.14
320.203	-36.52
320.417	-48.81
320.63	49.49
320.843	-3.75
321.057	22.87
321.27	76.12
321.483	-22.19
321.697	20.82
321.91	31.06
322.124	20.82
322.337	2.39
322.55	-54.95
322.763	29.01
322.977	22.87
323.19	8.53
323.403	41.3
323.617	-28.33
323.83	-28.33
324.043	26.96
324.256	49.49
324.469	8.53
324.683	-18.09
324.896	22.87
325.109	-36.52
325.322	45.4
325.535	8.53
325.748	4.44
325.962	-34.47
326.175	6.49
326.388	106.84
326.601	45.4
326.814	-34.47
327.027	-28.33
327.24	47.44
327.453	-18.09
327.666	-61.1
327.879	-3.75
328.092	10.58
328.305	-24.23
328.518	53.59
328.731	-32.43
328.944	16.73
329.157	20.82
329.37	14.68
329.583	20.82
329.796	-30.38
330.009	10.58
330.222	-26.28
330.435	-1.71
330.648	6.49
330.861	0.34
331.073	22.87
331.286	-46.76
331.499	43.35
331.712	-26.28
331.925	61.78
332.138	-24.23
332.35	20.82
332.563	2.39
332.776	41.3
332.989	-81.58
333.202	-3.75
333.414	-40.62
333.627	6.49
333.84	35.16
334.053	45.4
334.265	-16.04
334.478	8.53
334.691	2.39
334.903	57.68
335.116	-11.95
335.329	-11.95
335.541	24.92
335.754	43.35
335.966	76.12
336.179	12.63
336.392	0.34
336.604	31.06
336.817	76.12
337.029	29.01
337.242	29.01
337.454	-28.33
337.667	33.11
337.88	-3.75
338.092	4.44
338.305	-5.8
338.517	35.16
338.729	-52.91
338.942	2.39
339.154	57.68
339.367	0.34
339.579	100.69
339.792	49.49
340.004	10.58
340.217	6.49
340.429	14.68
340.641	59.73
340.854	-7.85
341.066	-3.75
341.278	10.58
341.491	-26.28
341.703	-11.95
341.915	-30.38
342.128	-5.8
342.34	-44.71
342.552	20.82
342.764	55.64
342.977	22.87
343.189	22.87
343.401	74.07
343.613	29.01
343.826	-69.29
344.038	-26.28
344.25	-59.05
344.462	45.4
344.674	14.68
344.886	31.06
345.099	63.83
345.311	26.96
345.523	20.82
345.735	0.34
345.947	29.01
346.159	55.64
346.371	31.06
346.583	-24.23
346.795	-13.99
347.007	20.82
347.219	-11.95
347.431	12.63
347.643	24.92
347.855	-1.71
348.067	22.87
348.279	18.77
348.491	45.4
348.703	4.44
348.915	2.39
349.127	-16.04
349.339	78.16
349.551	-36.52
349.763	-3.75
349.975	37.2
350.187	12.63
350.399	123.22
350.61	31.06
350.822	37.2
351.034	14.68
351.246	-9.9
351.458	37.2
351.669	29.01
351.881	78.16
352.093	90.45
352.305	59.73
352.517	-5.8
352.728	-7.85
352.94	-11.95
353.152	-18.09
353.363	-40.62
353.575	18.77
353.787	-26.28
353.999	-18.09
354.21	-3.75
354.422	61.78
354.633	41.3
354.845	-5.8
355.057	-1.71
355.268	45.4
355.48	8.53
355.692	45.4
355.903	-11.95
356.115	59.73
356.326	2.39
356.538	-13.99
356.749	18.77
356.961	53.59
357.172	2.39
357.384	-16.04
357.595	55.64
357.807	26.96
358.018	33.11
358.23	8.53
358.441	102.74
358.653	6.49
358.864	-40.62
359.075	-22.19
359.287	-16.04
359.498	92.5
359.709	20.82
359.921	61.78
360.132	16.73
360.344	29.01
360.555	-18.09
360.766	78.16
360.977	-28.33
361.189	39.25
361.4	-22.19
361.611	26.96
361.823	63.83
362.034	41.3
362.245	14.68
362.456	-75.43
362.667	6.49
362.879	35.16
363.09	16.73
363.301	-9.9
363.512	26.96
363.723	14.68
363.935	35.16
364.146	-16.04
364.357	80.21
364.568	-24.23
364.779	14.68
364.99	33.11
365.201	-28.33
365.412	72.02
365.623	45.4
365.834	59.73
366.045	26.96
366.256	18.77
366.467	20.82
366.678	8.53
366.889	4.44
367.1	35.16
367.311	37.2
367.522	43.35
367.733	33.11
367.944	65.88
368.155	29.01
368.366	10.58
368.577	26.96
368.788	72.02
368.999	-26.28
369.209	84.31
369.42	20.82
369.631	8.53
369.842	-24.23
370.053	-69.29
370.264	0.34
370.474	-38.57
370.685	14.68
370.896	90.45
371.107	8.53
371.317	-42.67
371.528	8.53
371.739	-11.95
371.95	24.92
372.16	-44.71
372.371	-28.33
372.582	6.49
372.792	55.64
373.003	72.02
373.214	51.54
373.424	2.39
373.635	35.16
373.846	18.77
374.056	22.87
374.267	10.58
374.477	12.63
374.688	16.73
374.898	-18.09
375.109	31.06
375.319	4.44
375.53	78.16
375.74	-22.19
375.951	14.68
376.161	-1.71
376.372	74.07
376.582	49.49
376.793	0.34
377.003	-57
377.214	-28.33
377.424	76.12
377.635	-9.9
377.845	14.68
378.055	43.35
378.266	-18.09
378.476	127.32
378.686	22.87
378.897	59.73
379.107	90.45
379.317	31.06
379.528	39.25
379.738	-11.95
379.948	6.49
380.158	41.3
380.369	-44.71
380.579	4.44
380.789	14.68
380.999	31.06
381.21	67.92
381.42	12.63
381.63	24.92
381.84	37.2
382.05	-5.8
382.261	55.64
382.471	-5.8
382.681	-20.14
382.891	20.82
383.101	39.25
383.311	-40.62
383.521	20.82
383.731	49.49
383.941	-5.8
384.151	-30.38
384.361	76.12
384.571	51.54
384.781	16.73
384.991	90.45
385.201	98.64
385.411	47.44
385.621	74.07
385.831	61.78
386.041	31.06
386.251	-5.8
386.461	0.34
386.671	-42.67
386.881	29.01
387.091	29.01
387.301	47.44
387.511	8.53
387.72	63.83
387.93	-13.99
388.14	26.96
388.35	-16.04
388.56	59.73
388.769	-20.14
388.979	65.88
389.189	18.77
389.399	41.3
389.609	74.07
389.818	65.88
390.028	24.92
390.238	6.49
390.447	61.78
390.657	-69.29
390.867	-38.57
391.076	45.4
391.286	0.34
391.496	80.21
391.705	33.11
391.915	4.44
392.125	0.34
392.334	49.49
392.544	-36.52
392.753	-22.19
392.963	67.92
393.172	-20.14
393.382	22.87
393.591	49.49
393.801	0.34
394.01	10.58
394.22	-1.71
394.429	-11.95
394.639	61.78
394.848	110.93
395.058	24.92
395.267	115.03
395.477	59.73
395.686	39.25
395.895	45.4
396.105	127.32
396.314	74.07
396.524	78.16
396.733	41.3
396.942	18.77
397.152	69.97
397.361	106.84
397.57	47.44
397.78	129.36
397.989	78.16
398.198	39.25
398.407	80.21
398.617	78.16
398.826	100.69
399.035	49.49
399.244	33.11
399.453	80.21
399.663	65.88
399.872	65.88
400.081	106.84
400.29	141.65
400.499	26.96
400.708	84.31
400.917	100.69
401.127	104.79
401.336	65.88
401.545	43.35
401.754	96.6
401.963	98.64
402.172	37.2
402.381	76.12
402.59	76.12
402.799	123.22
403.008	74.07
403.217	115.03
403.426	112.98
403.635	29.01
403.844	69.97
404.053	147.8
404.262	47.44
404.471	129.36
404.68	57.68
404.888	110.93
405.097	100.69
405.306	69.97
405.515	59.73
405.724	94.55
405.933	117.08
406.142	72.02
406.35	102.74
406.559	192.85
406.768	131.41
406.977	164.18
407.185	162.13
407.394	131.41
407.603	90.45
407.812	151.89
408.02	227.67
408.229	145.75
408.438	194.9
408.646	121.17
408.855	217.43
409.064	121.17
409.272	133.46
409.481	213.33
409.69	233.81
409.898	258.39
410.107	164.18
410.315	182.61
410.524	217.43
410.733	278.87
410.941	196.95
411.15	231.76
411.358	235.86
411.567	258.39
411.775	237.91
411.984	362.83
412.192	346.45
412.401	260.43
412.609	246.1
412.818	348.5
413.026	342.35
413.234	368.98
413.443	379.22
413.651	346.45
413.86	399.7
414.068	414.03
414.276	389.46
414.485	477.52
414.693	454.99
414.901	483.66
415.11	483.66
415.318	426.32
415.526	504.14
415.734	590.16
415.943	606.54
416.151	573.77
416.359	602.44
416.567	680.27
416.776	633.16
416.984	708.94
417.192	661.84
417.4	682.31
417.608	690.51
417.817	694.6
418.025	862.54
418.233	797
418.441	840.01
418.649	829.77
418.857	907.59
419.065	868.68
419.273	973.13
419.481	995.65
419.689	1028.42
419.897	1055.05
420.105	1116.48
420.313	1118.53
420.521	1163.59
420.729	1118.53
420.937	1233.22
421.145	1196.36
421.353	1335.62
421.561	1446.21
421.769	1487.17
421.977	1540.41
422.185	1429.82
422.393	1601.85
422.601	1691.96
422.809	1679.68
423.017	1712.44
423.224	1796.41
423.432	1749.31
423.64	1892.66
423.848	1896.76
424.056	1851.71
424.263	2138.42
424.471	2238.77
424.679	2144.56
424.887	2208.05
425.094	2224.44
425.302	2359.6
425.51	2384.18
425.718	2529.58
425.925	2464.05
426.133	2709.8
426.341	2701.61
426.548	2937.13
426.756	2836.78
426.964	2887.98
427.171	2902.31
427.379	3127.59
427.586	3291.43
427.794	3318.05
428.001	3363.11
428.209	3721.5
428.417	3588.38
428.624	3764.51
428.832	3690.78
429.039	3748.12
429.247	3719.45
429.454	4032.79
429.662	4319.51
429.869	4002.07
430.076	4342.04
430.284	4372.75
430.491	4327.7
430.699	4725.01
430.906	4698.38
431.114	4800.78
431.321	4892.94
431.528	4913.42
431.736	5300.48
431.943	5476.61
432.15	5384.45
432.358	5568.77
432.565	5767.42
432.772	5783.81
432.979	6009.08
433.187	6129.91
433.394	6189.3
433.601	6709.49
433.808	6574.32
434.016	6594.8
434.223	6828.27
434.43	7211.24
434.637	7100.65
434.844	7612.64
435.052	7837.92
435.259	7680.22
435.466	7753.95
435.673	7721.18
435.88	8229.08
436.087	8495.32
436.294	8503.51
436.501	8376.53
436.708	8558.8
436.915	8853.71
437.122	9369.8
437.329	9257.16
437.537	9496.77
437.743	9812.16
437.95	9500.87
438.157	10039.48
438.364	10438.84
438.571	10356.92
438.778	10598.58
438.985	11483.3
439.192	11143.34
439.399	11530.41
439.606	11028.65
439.813	11870.37
440.02	12572.82
440.227	12134.56
440.433	12128.41
440.64	12564.63
440.847	12619.92
441.054	12910.74
441.261	13607.05
441.467	13435.02
441.674	13584.52
441.881	14284.92
442.088	14065.79
442.294	13887.62
442.501	14684.28
442.708	14659.7
442.914	15421.55
443.121	15829.09
443.328	15716.45
443.534	16574.55
443.741	16083.04
443.948	15968.35
444.154	17131.6
444.361	16822.36
444.568	17199.18
444.774	16887.89
444.981	17383.5
445.187	17674.31
445.394	18708.54
445.6	18544.7
445.807	19947.56
446.013	19206.19
446.22	19519.53
446.426	20207.65
446.633	20598.81
446.839	21059.6
447.046	20250.66
447.252	21452.81
447.459	21405.71
447.665	21282.83
447.871	22345.73
448.078	23556.08
448.284	22206.47
448.491	22732.79
448.697	23504.88
448.903	23973.86
449.11	23943.14
449.316	23668.72
449.522	24375.27
449.728	24481.76
449.935	24913.88
450.141	24786.91
450.347	25194.45
450.553	24604.64
450.76	24745.95
450.966	25862.09
451.172	25558.99
451.378	26165.19
451.584	25688.01
451.791	26312.64
451.997	26226.63
452.203	26562.5
452.409	26734.53
452.615	26425.28
452.821	25438.16
453.027	25069.53
453.233	26570.69
453.44	25309.14
453.646	25667.53
453.852	25749.45
454.058	26390.47
454.264	25030.62
454.47	26179.53
454.676	25415.63
454.882	26265.54
455.088	24070.12
455.294	24362.98
455.5	24295.39
455.705	24793.05
455.911	23451.63
456.117	23162.87
456.323	23001.08
456.529	21874.7
456.735	22589.44
456.941	22106.12
457.147	21819.4
457.352	21176.34
457.558	20817.94
457.764	20916.25
457.97	20588.57
458.176	19945.51
458.381	19875.88
458.587	19284.02
458.793	19198
458.999	18227.26
459.204	19484.72
459.41	18911.28
459.616	17369.16
459.821	17711.18
460.027	17596.49
460.233	17168.46
460.438	16156.77
460.644	16605.27
460.85	15734.89
461.055	15349.87
461.261	15564.9
461.466	14297.21
461.672	13930.62
461.878	15097.97
462.083	14188.67
462.289	13471.88
462.494	13523.08
462.7	12908.69
462.905	12726.42
463.111	13140.11
463.316	13117.58
463.522	12791.95
463.727	12849.3
463.932	12755.09
464.138	12765.33
464.343	12767.38
464.549	12353.69
464.754	12826.77
464.959	12843.15
465.165	12486.81
465.37	12052.64
465.575	12058.78
465.781	12128.41
465.986	12394.65
466.191	11808.93
466.397	11729.06
466.602	10922.16
466.807	11493.54
467.012	11493.54
467.218	11341.99
467.423	11286.7
467.628	11374.76
467.833	11661.48
468.038	11290.79
468.244	11149.48
468.449	11462.82
468.654	11141.29
468.859	10991.79
469.064	11092.14
469.269	10373.3
469.474	10723.51
469.679	10944.69
469.885	10535.09
470.09	10758.32
470.295	10705.07
470.5	10283.19
470.705	10322.1
470.91	9889.98
471.115	9855.17
471.32	10145.98
471.525	9947.33
471.73	9973.95
471.935	9824.45
472.139	9507.01
472.344	9810.11
472.549	9588.93
472.754	9459.91
472.959	9294.02
473.164	9056.46
473.369	9062.6
473.574	9394.37
473.778	9185.48
473.983	9044.17
474.188	9169.1
474.393	8677.58
474.598	8681.68
474.802	8650.96
475.007	8351.96
475.212	8597.71
475.417	8218.84
475.621	8267.99
475.826	8206.55
476.031	8300.76
476.235	8028.38
476.44	8126.68
476.645	8057.05
476.849	7776.48
477.054	7696.61
477.259	7751.9
477.463	7860.45
477.668	7602.4
477.872	7631.07
478.077	7512.29
478.282	7395.56
478.486	7188.71
478.691	7287.01
478.895	7203.05
479.1	7178.47
479.304	7207.14
479.509	7006.44
479.713	7082.22
479.918	6926.57
480.122	6785.26
480.326	6945
480.531	7100.65
480.735	6897.9
480.94	6744.3
481.144	6902
481.348	6680.82
481.553	6762.73
481.757	6527.22
481.961	6815.98
482.166	6889.71
482.37	6822.13
482.574	6488.31
482.778	6732.01
482.983	6897.9
483.187	6684.91
483.391	6764.78
483.595	6654.19
483.8	6465.78
484.004	6742.25
484.208	6719.73
484.412	6666.48
484.616	6660.34
484.821	6623.47
485.025	6510.83
485.229	6695.15
485.433	6670.58
485.637	6533.36
485.841	6684.91
486.045	6559.99
486.249	6803.69
486.453	6740.21
486.657	6582.51
486.861	6803.69
487.065	6566.13
487.269	6711.53
487.473	6504.69
487.677	6574.32
487.881	6713.58
488.085	6625.52
488.289	6670.58
488.493	6596.85
488.697	6775.02
488.901	6678.77
489.105	6674.67
489.309	6635.76
489.512	6684.91
489.716	6727.92
489.92	6766.83
490.124	6703.34
490.328	6897.9
490.531	6975.72
490.735	6842.6
490.939	6981.87
491.143	6983.91
491.346	6854.89
491.55	6963.44
491.754	6992.11
491.958	6945
492.161	7004.39
492.365	7168.23
492.569	6858.99
492.772	7180.52
492.976	7172.33
493.18	7221.48
493.383	7282.92
493.587	7528.67
493.79	7211.24
493.994	7418.08
494.197	7395.56
494.401	7413.99
494.605	7370.98
494.808	7581.92
495.012	7477.48
495.215	7553.25
495.419	7667.94
495.622	7903.45
495.825	7829.73
496.029	7774.43
496.232	8167.64
496.436	7872.73
496.639	8167.64
496.843	7985.37
497.046	8415.44
497.249	8409.3
497.453	8554.71
497.656	8650.96
497.859	8612.05
498.063	8501.46
498.266	8927.44
498.469	8691.92
498.673	8835.28
498.876	9173.19
499.079	9152.71
499.282	9230.54
499.485	9525.44
499.689	9287.88
499.892	9531.59
500.095	9494.72
500.298	9982.14
500.501	9617.6
500.705	10213.56
500.908	10231.99
501.111	10223.8
501.314	10315.96
501.517	10483.89
501.72	10647.73
501.923	10557.62
502.126	10858.67
502.329	10993.84
502.532	11061.42
502.735	11036.84
502.938	11423.91
503.141	11356.33
503.344	11829.41
503.547	11585.7
503.75	11735.2
503.953	12091.55
504.156	11929.76
504.359	12359.83
504.562	12484.76
504.765	12601.49
504.968	12695.7
505.17	12974.22
505.373	13031.57
505.576	13035.66
505.779	13160.59
505.982	13203.6
506.185	13648.01
506.387	13762.69
506.59	14041.22
506.793	14254.2
506.996	14274.68
507.198	14377.08
507.401	14160
507.604	14772.34
507.807	15231.08
508.009	15100.01
508.212	15304.81
508.415	15478.89
508.617	15622.25
508.82	15890.53
509.022	15810.66
509.225	16236.64
509.428	16150.62
509.63	16443.48
509.833	16349.28
510.035	16762.97
510.238	16775.25
510.44	17358.92
510.643	17389.64
510.845	17389.64
511.048	17582.15
511.25	18036.8
511.453	18128.96
511.655	18665.53
511.858	18530.36
512.06	18679.86
512.262	19200.05
512.465	19079.22
512.667	19419.18
512.87	19628.07
513.072	19527.72
513.274	19890.21
513.477	20371.49
513.679	20207.65
513.881	20836.38
514.084	20803.61
514.286	20942.87
514.488	21270.54
514.69	21751.82
514.893	21645.32
515.095	21929.99
515.297	22360.06
515.499	21981.19
515.701	22726.65
515.904	22968.31
516.106	23136.24
516.308	23488.49
516.51	23875.56
516.712	23793.64
516.914	23900.14
517.116	24264.68
517.318	24713.18
517.52	24422.37
517.722	24856.54
517.925	25018.33
518.127	25536.46
518.329	25589.71
518.531	25569.23
518.733	26214.34
518.935	26283.97
519.136	26615.74
519.338	27117.5
519.54	26939.32
519.742	27275.19
519.944	27387.83
520.146	27615.15
520.348	27774.89
520.55	28358.56
520.752	28114.86
520.954	28872.6
521.155	28710.82
521.357	29396.88
521.559	29613.97
521.761	29837.2
521.963	29607.83
522.164	29755.28
522.366	30142.35
522.568	30496.64
522.77	30756.74
522.971	31283.06
523.173	30824.32
523.375	31543.16
523.576	31205.24
523.778	31362.93
523.98	32010.09
524.181	31885.17
524.383	32075.63
524.584	32558.95
524.786	32608.1
524.988	32608.1
525.189	32991.07
525.391	33431.38
525.592	33445.72
525.794	33902.42
525.995	33589.08
526.197	33615.7
526.398	33736.53
526.6	34307.91
526.801	34234.19
527.003	34395.98
527.204	34475.85
527.406	34811.71
527.607	34752.32
527.808	35061.57
528.01	34584.39
528.211	34713.41
528.412	35409.72
528.614	35325.75
528.815	35475.26
529.016	35833.65
529.218	35499.83
529.419	35741.49
529.62	35694.39
529.822	35991.34
530.023	35981.1
530.224	36169.52
530.425	36122.41
530.626	35757.88
530.828	35565.37
531.029	36867.87
531.23	36106.03
531.431	36499.24
531.632	36724.52
531.833	36415.27
532.035	36781.86
532.236	36566.82
532.437	36822.82
532.638	36200.24
532.839	37029.66
533.04	37029.66
533.241	36599.59
533.442	37261.08
533.643	36802.34
533.844	36966.18
534.045	36597.54
534.246	36714.28
534.447	37013.28
534.648	36900.64
534.849	36976.42
535.05	36890.4
535.251	37119.77
535.451	37259.04
535.652	37381.91
535.853	37316.38
536.054	37277.47
536.255	37222.17
536.456	36843.3
536.657	37758.74
536.857	37238.56
537.058	37095.2
537.259	37355.29
537.46	37447.45
537.66	37326.62
537.861	37185.31
538.062	37402.39
538.263	37062.43
538.463	37330.72
538.664	37144.35
538.865	37474.07
539.065	37746.45
539.266	37130.01
539.466	37508.89
539.667	36726.56
539.868	37725.97
540.068	37211.93
540.269	37293.85
540.469	37492.51
540.67	37308.19
540.87	37422.87
541.071	36835.11
541.271	37476.12
541.472	36914.98
541.672	37011.23
541.873	37125.92
542.073	36597.54
542.274	37465.88
542.474	37263.13
542.675	37213.98
542.875	37564.18
543.075	37521.18
543.276	37029.66
543.476	37285.66
543.676	36984.61
543.877	37424.92
544.077	37105.44
544.277	36978.47
544.478	36847.4
544.678	37334.81
544.878	36939.55
545.078	37140.25
545.279	37097.25
545.479	37314.33
545.679	37762.84
545.879	37603.1
546.079	37388.06
546.28	36822.82
546.48	36880.16
546.68	37138.21
546.88	37777.17
547.08	37386.01
547.28	37109.54
547.48	36949.79
547.68	37242.65
547.88	37373.72
548.081	37160.73
548.281	37134.11
548.481	37009.18
548.681	37302.04
548.881	37416.73
549.081	37256.99
549.28	36919.07
549.48	37455.64
549.68	36968.23
549.88	37508.89
550.08	37183.26
550.28	36900.64
550.48	37048.1
550.68	37404.44
550.88	37048.1
551.08	36937.51
551.279	37005.09
551.479	36613.93
551.679	37146.4
551.879	37162.78
552.079	37170.97
552.278	36925.22
552.478	36779.81
552.678	37322.52
552.878	37205.79
553.077	36964.13
553.277	36742.95
553.477	36884.26
553.676	36841.25
553.876	36902.69
554.076	36972.32
554.275	36405.03
554.475	36263.72
554.674	37101.34
554.874	36835.11
555.074	36759.33
555.273	37089.06
555.473	36804.39
555.672	36910.88
555.872	36843.3
556.071	36554.54
556.271	36878.11
556.47	36396.84
556.67	36251.44
556.869	36476.71
557.068	36591.4
557.268	36253.48
557.467	36347.69
557.667	36263.72
557.866	36110.13
558.065	36228.91
558.265	35974.96
558.464	36034.35
558.663	36595.49
558.863	35661.62
559.062	36415.27
559.261	35616.57
559.461	36144.94
559.66	35587.89
559.859	35870.51
560.058	35612.47
560.258	35802.93
560.457	35587.89
560.656	35895.09
560.855	35307.32
561.054	36093.74
561.253	35675.96
561.453	35166.01
561.652	35688.24
561.851	35782.45
562.05	35080
562.249	35057.47
562.448	35194.68
562.647	35372.86
562.846	34942.78
563.045	35049.28
563.244	34912.06
563.443	35282.75
563.642	34785.09
563.841	34975.55
564.04	34928.45
564.239	35200.83
564.438	35030.85
564.637	34586.44
564.836	35036.99
565.035	34299.72
565.234	34889.54
565.432	34465.61
565.631	34209.61
565.83	34260.81
566.029	34215.76
566.228	34326.35
566.427	34000.72
566.625	34266.95
566.824	33800.02
567.023	34320.2
567.222	33474.39
567.42	34309.96
567.619	33501.01
567.818	33697.62
568.016	33720.15
568.215	34191.18
568.414	33681.24
568.612	33976.14
568.811	33226.59
569.01	33439.58
569.208	33040.22
569.407	33281.88
569.605	32728.93
569.804	33324.89
570.002	32708.45
570.201	33089.37
570.4	32446.31
570.598	32735.07
570.797	32843.62
570.995	32706.4
571.193	32599.91
571.392	32923.49
571.59	32348.01
571.789	32309.1
571.987	32544.61
572.186	32173.93
572.384	32065.39
572.582	32331.62
572.781	32145.26
572.979	31799.15
573.177	31754.1
573.376	32114.54
573.574	31666.03
573.772	31811.44
573.971	31565.68
574.169	31332.22
574.367	31186.81
574.565	31508.34
574.763	30961.53
574.962	31117.18
575.16	30775.17
575.358	30779.26
575.556	30394.25
575.754	31139.71
575.952	30648.19
576.151	31000.44
576.349	30197.64
576.547	30506.88
576.745	30226.31
576.943	30248.84
577.141	30181.26
577.339	30228.36
577.537	30146.44
577.735	30437.25
577.933	29783.95
578.131	29861.77
578.329	29523.86
578.527	29681.55
578.725	29640.59
578.923	29474.71
579.121	29362.07
579.319	29468.56
579.516	29073.31
579.714	29292.44
579.912	29212.57
580.11	29081.5
580.308	29095.83
580.506	29046.68
580.704	28510.11
580.901	28938.14
581.099	29222.81
581.297	28426.15
581.495	28557.22
581.692	28383.14
581.89	28213.16
582.088	28530.59
582.285	27928.49
582.483	28266.41
582.681	28207.01
582.878	27930.54
583.076	27330.48
583.274	28151.72
583.471	27764.65
583.669	27711.41
583.866	27674.54
584.064	27506.61
584.262	27054.01
584.459	27465.65
584.657	27244.47
584.854	27279.29
585.052	27281.33
585.249	27314.1
585.447	26996.67
585.644	26548.16
585.841	26652.61
586.039	26933.18
586.236	26486.72
586.434	26421.19
586.631	26404.8
586.828	26468.29
587.026	26382.27
587.223	26341.32
587.42	26050.5
587.618	26580.93
587.815	26023.88
588.012	25872.33
588.21	25761.74
588.407	25960.39
588.604	25702.35
588.801	25593.81
588.999	25780.17
589.196	25804.75
589.393	25444.31
589.59	25352.15
589.787	25315.28
589.984	25227.22
590.182	24901.59
590.379	25397.2
590.576	24711.13
590.773	24883.16
590.97	25032.66
591.167	25130.97
591.364	24752.09
591.561	24788.96
591.758	24592.35
591.955	24762.33
592.152	24530.91
592.349	24555.49
592.546	24254.44
592.743	24047.59
592.94	23973.86
593.137	23959.53
593.334	24461.28
593.531	23756.78
593.727	23951.34
593.924	23867.37
594.121	23588.85
594.318	23734.25
594.515	23492.59
594.712	23789.55
594.908	23547.89
595.105	23529.45
595.302	23175.16
595.499	23459.82
595.696	23115.76
595.892	23195.64
596.089	23291.89
596.286	23207.92
596.482	23060.47
596.679	23083
596.876	22808.57
597.072	22628.35
597.269	22804.47
597.466	22734.84
597.662	22509.57
597.859	22392.83
598.055	22546.43
598.252	22222.85
598.448	22296.58
598.645	22282.24
598.841	22120.45
599.038	22198.27
599.234	22140.93
599.431	22011.91
599.627	21688.33
599.824	22128.64
600.02	21643.28
600.217	22016.01
600.413	21794.82
600.609	21745.67
600.806	21434.38
601.002	21659.66
601.198	21338.13
601.395	21260.3
601.591	21352.46
601.787	21409.81
601.984	21026.84
602.18	21096.47
602.376	21084.18
602.572	20922.39
602.769	20858.9
602.965	20619.29
603.161	20910.1
603.357	20631.58
603.553	20555.8
603.75	20590.62
603.946	20328.48
604.142	20705.31
604.338	20244.51
604.534	20189.22
604.73	19972.13
604.926	20074.53
605.122	20162.59
605.318	20123.68
605.514	19701.8
605.71	19855.4
605.906	19693.61
606.102	19951.65
606.298	19763.24
606.494	19734.57
606.69	19701.8
606.886	19636.27
607.082	19277.87
607.278	19443.76
607.474	19046.45
607.67	19394.61
607.866	19001.4
608.062	19183.66
608.257	19189.81
608.453	19017.78
608.649	19097.65
608.845	18704.44
609.041	18855.99
609.236	18786.36
609.432	18696.25
609.628	18499.64
609.824	18749.5
610.019	18769.97
610.215	18714.68
610.411	19058.74
610.606	18604.09
610.802	18661.43
610.998	18360.38
611.193	18337.85
611.389	18100.29
611.584	18622.52
611.78	18176.06
611.976	18186.3
612.171	18131.01
612.367	18126.91
612.562	18008.13
612.758	17729.61
612.953	17711.18
613.149	18198.59
613.344	17797.19
613.539	17969.22
613.735	17844.29
613.93	17946.69
614.126	17557.58
614.321	17631.3
614.517	17391.69
614.712	17520.71
614.907	17526.86
615.103	17596.49
615.298	17270.86
615.493	17662.02
615.688	17229.9
615.884	17731.65
616.079	17258.57
616.274	17195.09
616.47	17258.57
616.665	17066.06
616.86	17090.64
617.055	17092.69
617.25	16963.67
617.445	17137.74
617.641	16775.25
617.836	16846.93
618.031	16910.42
618.226	16945.23
618.421	16498.78
618.616	16791.64
618.811	16425.05
619.006	16599.13
619.201	16164.96
619.396	16418.91
619.591	15954.02
619.786	16253.02
619.981	15788.13
620.176	16177.25
620.371	15847.52
620.566	15868
620.761	15927.39
620.956	15861.86
621.151	15618.15
621.346	15820.9
621.541	15478.89
621.735	15495.27
621.93	15284.33
622.125	15349.87
622.32	15134.83
622.515	15130.73
622.709	15063.15
622.904	14854.26
623.099	14649.46
623.294	15059.06
623.488	14749.81
623.683	14901.36
623.878	14557.3
624.072	14653.56
624.267	14516.34
624.462	14452.86
624.656	14266.49
624.851	14235.77
625.046	14155.9
625.24	14000.26
625.435	13867.14
625.629	13992.06
625.824	13834.37
626.018	13672.58
626.213	13588.61
626.407	13807.75
626.602	13449.35
626.796	13463.69
626.991	13400.2
627.185	13224.08
627.38	13256.84
627.574	13144.2
627.768	13035.66
627.963	12875.92
628.157	12904.59
628.352	12843.15
628.546	12656.79
628.74	12800.15
628.935	12714.13
629.129	12675.22
629.323	12505.24
629.517	12497.05
629.712	12429.46
629.906	12425.37
630.1	12021.92
630.294	12130.46
630.489	12157.08
630.683	12298.39
630.877	11913.38
631.071	11829.41
631.265	12058.78
631.459	11712.67
631.653	12021.92
631.848	11798.69
632.042	11759.78
632.236	11552.93
632.43	11409.58
632.624	11434.15
632.818	11391.14
633.012	11507.88
633.206	11495.59
633.4	11540.65
633.594	11055.28
633.788	11413.67
633.982	11022.51
634.176	11045.04
634.369	10916.01
634.563	10991.79
634.757	10668.21
634.951	11077.8
635.145	10879.15
635.339	10741.94
635.533	10703.03
635.726	10741.94
635.92	10516.66
636.114	10438.84
636.308	10555.57
636.501	10520.76
636.695	10295.48
636.889	10334.39
637.083	10258.62
637.276	10145.98
637.47	10121.4
637.664	9957.57
637.857	9990.33
638.051	9994.43
638.244	9803.97
638.438	9961.66
638.632	9629.89
638.825	9664.71
639.019	9681.09
639.212	9461.96
639.406	9545.92
639.599	9543.88
639.793	9441.48
639.986	9537.73
640.18	9470.15
640.373	9314.5
640.567	9113.8
640.76	9248.97
640.954	9078.99
641.147	8927.44
641.34	8952.01
641.534	9021.64
641.727	8870.09
641.92	9005.26
642.114	8749.26
642.307	8939.72
642.5	8779.98
642.694	8677.58
642.887	8628.43
643.08	8683.73
643.273	8530.13
643.467	8556.75
643.66	8362.2
643.853	8229.08
644.046	8220.89
644.239	8300.76
644.432	8220.89
644.626	8087.77
644.819	8145.11
645.012	8167.64
645.205	8061.15
645.398	7966.94
645.591	8141.02
645.784	7893.21
645.977	7704.8
646.17	7917.79
646.363	7856.35
646.556	7629.02
646.749	7569.63
646.942	7743.71
647.135	7606.5
647.328	7606.5
647.521	7471.33
647.714	7334.12
647.907	7389.41
648.099	7375.08
648.292	7325.93
648.485	7270.63
648.678	6967.53
648.871	7121.13
649.064	7071.98
649.256	7338.21
649.449	7198.95
649.642	6809.84
649.835	7055.59
650.027	6848.75
650.22	6789.36
650.413	6818.03
650.605	6670.58
650.798	6912.24
650.991	6705.39
651.183	6811.89
651.376	6664.43
651.568	6525.17
651.761	6502.64
651.954	6646
652.146	6525.17
652.339	6525.17
652.531	6279.41
652.724	6291.7
652.916	6238.45
653.109	6103.29
653.301	6242.55
653.494	6355.19
653.686	6150.39
653.879	6197.49
654.071	6072.57
654.263	6179.06
654.456	6086.9
654.648	5918.97
654.84	5918.97
655.033	5828.86
655.225	5886.2
655.417	5718.27
655.61	5902.59
655.802	5716.22
655.994	5699.84
656.186	5781.76
656.379	5714.17
656.571	5640.45
656.763	5624.06
656.955	5505.28
657.148	5615.87
657.34	5568.77
657.532	5425.41
657.724	5409.03
657.916	5423.36
658.108	5374.21
658.3	5435.65
658.492	5314.82
658.684	5189.89
658.876	5196.04
659.068	5148.93
659.26	5179.65
659.452	5212.42
659.644	5136.65
659.836	5189.89
660.028	5097.74
660.22	4931.85
660.412	4872.46
660.604	4917.51
660.796	4915.47
660.988	4849.93
661.18	4782.35
661.372	4854.03
661.563	4784.4
661.755	4606.22
661.947	4735.25
662.139	4731.15
662.331	4628.75
662.522	4548.88
662.714	4575.5
662.906	4503.82
663.097	4462.87
663.289	4495.63
663.481	4401.43
663.673	4471.06
663.864	4397.33
664.056	4251.92
664.247	4296.98
664.439	4206.87
664.631	4321.56
664.822	4395.28
665.014	4299.03
665.205	4272.4
665.397	4112.66
665.588	4235.54
665.78	4065.56
665.971	4221.2
666.163	4180.25
666.354	4077.85
666.546	4067.61
666.737	4088.09
666.929	4022.55
667.12	4036.89
667.311	3922.2
667.503	3934.49
667.694	3922.2
667.885	3825.95
668.077	3834.14
668.268	3784.99
668.459	3758.36
668.651	3920.15
668.842	3729.69
669.033	3696.92
669.224	3795.23
669.416	3778.84
669.607	3754.27
669.798	3610.91
669.989	3899.67
670.18	3559.71
670.371	3602.72
670.563	3572
670.754	3578.14
670.945	3576.09
671.136	3662.11
671.327	3506.46
671.518	3485.98
671.709	3647.77
671.9	3518.75
672.091	3569.95
672.282	3395.87
672.473	3582.24
672.664	3457.31
672.855	3410.21
673.046	3387.68
673.237	3307.81
673.428	3395.87
673.619	3387.68
673.809	3307.81
674	3291.43
674.191	3424.55
674.382	3205.41
674.573	3340.58
674.764	3164.45
674.954	3316
675.145	3219.75
675.336	3203.36
675.527	3092.77
675.717	3244.32
675.908	3299.62
676.099	3186.98
676.289	3186.98
676.48	3123.49
676.671	3246.37
676.861	3143.97
677.052	3213.6
677.243	3031.34
677.433	3098.92
677.624	3119.4
677.814	2992.42
678.005	3049.77
678.195	3146.02
678.386	3119.4
678.576	3060.01
678.767	2890.03
678.957	2984.23
679.148	3098.92
679.338	3014.95
679.529	2967.85
679.719	2896.17
679.909	2930.98
680.1	2992.42
680.29	2922.79
680.481	2971.94
680.671	2976.04
680.861	2928.94
681.052	2885.93
681.242	2910.5
681.432	2853.16
681.622	2838.83
681.813	2861.35
682.003	2883.88
682.193	2867.5
682.383	2824.49
682.573	2969.9
682.764	2765.1
682.954	2912.55
683.144	2906.41
683.334	2724.14
683.524	2824.49
683.714	2750.76
683.904	2910.5
684.094	2730.28
684.284	2758.96
684.474	2681.13
684.664	2763.05
684.854	2822.44
685.044	2734.38
685.234	2771.24
685.424	2715.95
685.614	2642.22
685.804	2662.7
685.994	2781.48
686.184	2781.48
686.374	2623.79
686.564	2726.19
686.753	2871.59
686.943	2654.51
687.133	2746.67
687.323	2758.96
687.513	2656.56
687.702	2699.56
687.892	2529.58
688.082	2638.13
688.272	2691.37
688.461	2701.61
688.651	2564.4
688.841	2631.98
689.03	2521.39
689.22	2554.16
689.41	2603.31
689.599	2562.35
689.789	2654.51
689.979	2548.01
690.168	2621.74
690.358	2543.92
690.547	2548.01
690.737	2539.82
690.926	2550.06
691.116	2550.06
691.305	2595.12
691.495	2548.01
691.684	2537.77
691.874	2646.32
692.063	2470.19
692.252	2439.47
692.442	2488.62
692.631	2494.77
692.82	2488.62
693.01	2406.7
693.199	2578.73
693.388	2507.06
693.578	2541.87
693.767	2560.3
693.956	2408.75
694.146	2462
694.335	2457.9
694.524	2490.67
694.713	2488.62
694.902	2496.82
695.092	2498.86
695.281	2437.42
695.47	2404.66
695.659	2552.11
695.848	2402.61
696.037	2523.44
696.226	2402.61
696.415	2412.85
696.604	2541.87
696.793	2425.14
696.982	2328.88
697.171	2548.01
697.36	2330.93
697.549	2320.69
697.738	2455.86
697.927	2451.76
698.116	2412.85
698.305	2384.18
698.494	2398.51
698.683	2474.29
698.872	2443.57
699.061	2359.6
699.25	2363.7
699.438	2355.51
699.627	2441.52
699.816	2404.66
700.005	2337.07
700.193	2416.94
700.382	2267.44
700.571	2474.29
700.76	2425.14
700.948	2470.19
701.137	2214.2
701.326	2410.8
701.514	2310.45
701.703	2437.42
701.892	2226.48
702.08	2283.83
702.269	2304.31
702.457	2328.88
702.646	2388.27
702.834	2302.26
703.023	2324.79
703.212	2308.4
703.4	2375.99
703.589	2232.63
703.777	2312.5
703.965	2199.86
704.154	2365.75
704.342	2240.82
704.531	2138.42
704.719	2208.05
704.907	2224.44
705.096	2203.96
705.284	2294.07
705.472	2277.68
705.661	2312.5
705.849	2238.77
706.037	2234.68
706.226	2185.52
706.414	2230.58
706.602	2138.42
706.79	2177.33
706.979	2144.56
707.167	2220.34
707.355	2152.76
707.543	2156.85
707.731	2206
707.919	2160.95
708.107	2019.64
708.296	2107.7
708.484	2003.25
708.672	2066.74
708.86	2165.04
709.048	2085.17
709.236	2142.52
709.424	2083.13
709.612	2119.99
709.8	1997.11
709.988	2023.73
710.176	2048.31
710.364	2132.28
710.551	2070.84
710.739	2015.54
710.927	1960.25
711.115	1993.01
711.303	1929.53
711.491	1970.49
711.679	2021.69
711.866	1999.16
712.054	1935.67
712.242	1878.33
712.43	1943.86
712.617	1958.2
712.805	1982.78
712.993	1972.54
713.181	1939.77
713.368	1870.14
713.556	1925.43
713.744	1798.46
713.931	2005.3
714.119	1884.47
714.306	1954.1
714.494	1970.49
714.682	1913.14
714.869	1952.06
715.057	1907
715.244	1818.94
715.432	1792.31
715.619	1753.4
715.807	1818.94
715.994	1794.36
716.182	1743.16
716.369	1788.22
716.556	1845.56
716.744	1726.78
716.931	1698.11
717.119	1829.18
717.306	1835.32
717.493	1784.12
717.681	1689.92
717.868	1722.68
718.055	1827.13
718.242	1730.87
718.43	1704.25
718.617	1749.31
718.804	1685.82
718.991	1698.11
719.179	1718.59
719.366	1644.86
719.553	1632.57
719.74	1642.81
719.927	1599.8
720.114	1718.59
720.301	1532.22
720.488	1634.62
720.676	1612.09
720.863	1683.77
721.05	1587.52
721.237	1575.23
721.424	1567.04
721.611	1657.15
721.798	1597.76
721.985	1526.08
722.172	1694.01
722.358	1526.08
722.545	1534.27
722.732	1567.04
722.919	1542.46
723.106	1470.78
723.293	1591.61
723.48	1548.61
723.667	1478.97
723.853	1487.17
724.04	1542.46
724.227	1472.83
724.414	1507.65
724.6	1458.5
724.787	1421.63
724.974	1433.92
725.161	1419.58
725.347	1474.88
725.534	1519.93
725.72	1493.31
725.907	1483.07
726.094	1448.26
726.28	1429.82
726.467	1417.54
726.653	1397.06
726.84	1485.12
727.027	1431.87
727.213	1306.95
727.4	1354.05
727.586	1399.1
727.773	1464.64
727.959	1395.01
728.145	1438.02
728.332	1392.96
728.518	1382.72
728.705	1354.05
728.891	1360.19
729.077	1335.62
729.264	1395.01
729.45	1382.72
729.636	1339.71
729.823	1386.82
730.009	1372.48
730.195	1270.08
730.382	1454.4
730.568	1227.07
730.754	1216.83
730.94	1225.03
731.126	1276.23
731.313	1255.75
731.499	1249.6
731.685	1222.98
731.871	1202.5
732.057	1163.59
732.243	1194.31
732.429	1208.64
732.615	1282.37
732.801	1235.27
732.987	1257.79
733.173	1216.83
733.359	1165.64
733.545	1222.98
733.731	1134.92
733.917	1288.51
734.103	1177.92
734.289	1282.37
734.475	1173.83
734.661	1171.78
734.847	1179.97
735.033	1204.55
735.219	1196.36
735.404	1145.16
735.59	1188.16
735.776	1112.39
735.962	1182.02
736.148	1106.24
736.333	1149.25
736.519	1134.92
736.705	1120.58
736.89	1157.44
737.076	1132.87
737.262	1075.52
737.447	1081.67
737.633	1022.28
737.819	1237.31
738.004	1124.68
738.19	1122.63
738.375	1075.52
738.561	1089.86
738.747	1067.33
738.932	1075.52
739.118	1120.58
739.303	1059.14
739.489	1145.16
739.674	1071.43
739.859	1036.61
740.045	977.22
740.23	1079.62
740.416	944.45
740.601	1087.81
740.786	1012.04
740.972	1104.2
741.157	1114.44
741.342	991.56
741.528	971.08
741.713	1012.04
741.898	1018.18
742.084	979.27
742.269	1069.38
742.454	954.69
742.639	938.31
742.824	1003.85
743.01	999.75
743.195	964.93
743.38	969.03
743.565	971.08
743.75	966.98
743.935	962.89
744.12	940.36
744.305	950.6
744.49	856.39
744.675	934.22
744.86	958.79
745.045	913.74
745.23	946.5
745.415	907.59
745.6	766.28
745.785	891.21
745.97	987.46
746.155	956.74
746.34	850.25
746.525	917.83
746.71	946.5
746.895	874.82
747.079	901.45
747.264	850.25
747.449	915.78
747.634	887.11
747.819	860.49
748.003	815.43
748.188	811.34
748.373	889.16
748.557	844.1
748.742	878.92
748.927	848.2
749.111	807.24
749.296	815.43
749.481	794.95
749.665	768.33
749.85	739.66
750.034	768.33
750.219	760.14
750.404	749.9
750.588	721.23
750.773	700.75
750.957	710.99
751.141	708.94
751.326	713.03
751.51	725.32
751.695	694.6
751.879	794.95
752.064	784.71
752.248	686.41
752.432	756.04
752.617	708.94
752.801	768.33
752.985	700.75
753.17	682.31
753.354	663.88
753.538	739.66
753.722	606.54
753.907	717.13
754.091	696.65
754.275	723.27
754.459	635.21
754.643	616.78
754.828	674.12
755.012	592.2
755.196	647.5
755.38	647.5
755.564	602.44
755.748	563.53
755.932	700.75
756.116	641.36
756.3	569.68
756.484	649.55
756.668	659.79
756.852	592.2
757.036	618.83
757.22	631.12
757.404	696.65
757.588	584.01
757.772	545.1
757.956	604.49
758.14	633.16
758.323	569.68
758.507	594.25
758.691	485.71
758.875	588.11
759.059	528.72
759.242	600.4
759.426	598.35
759.61	514.38
759.794	520.53
759.977	477.52
760.161	516.43
760.345	608.59
760.528	590.16
760.712	594.25
760.895	524.62
761.079	498
761.263	522.57
761.446	471.37
761.63	487.76
761.813	559.44
761.997	577.87
762.18	473.42
762.364	504.14
762.547	516.43
762.731	459.09
762.914	428.37
763.098	555.34
763.281	518.48
763.464	479.57
763.648	495.95
763.831	491.85
764.015	461.13
764.198	514.38
764.381	432.46
764.564	573.77
764.748	498
764.931	530.77
765.114	534.86
765.297	577.87
765.481	438.61
765.664	534.86
765.847	475.47
766.03	471.37
766.213	502.09
766.397	395.6
766.58	444.75
766.763	504.14
766.946	438.61
767.129	475.47
767.312	438.61
767.495	424.27
767.678	432.46
767.861	461.13
768.044	434.51
768.227	467.28
768.41	393.55
768.593	436.56
768.776	426.32
768.959	424.27
769.142	401.74
769.324	405.84
769.507	385.36
769.69	481.61
769.873	454.99
770.056	401.74
770.239	407.89
770.421	483.66
770.604	399.7
770.787	487.76
770.97	399.7
771.152	506.19
771.335	469.33
771.518	432.46
771.7	473.42
771.883	454.99
772.066	409.94
772.248	416.08
772.431	399.7
772.613	409.94
772.796	471.37
772.978	360.78
773.161	432.46
773.343	385.36
773.526	340.3
773.708	426.32
773.891	344.4
774.073	409.94
774.256	368.98
774.438	463.18
774.621	479.57
774.803	377.17
774.985	334.16
775.168	348.5
775.35	373.07
775.532	405.84
775.715	323.92
775.897	356.69
776.079	321.87
776.261	360.78
776.444	340.3
776.626	364.88
776.808	383.31
776.99	434.51
777.173	375.12
777.355	366.93
777.537	303.44
777.719	348.5
777.901	395.6
778.083	299.34
778.265	348.5
778.447	373.07
778.629	293.2
778.811	293.2
778.993	297.3
779.175	373.07
779.357	338.26
779.539	315.73
779.721	272.72
779.903	282.96
780.085	311.63
780.267	328.02
780.449	272.72
780.631	311.63
780.812	340.3
780.994	260.43
781.176	297.3
781.358	313.68
781.54	297.3
781.721	315.73
781.903	360.78
782.085	293.2
782.267	313.68
782.448	274.77
782.63	235.86
782.812	307.54
782.993	217.43
783.175	323.92
783.357	268.63
783.538	242
783.72	305.49
783.901	301.39
784.083	155.99
784.264	219.47
784.446	235.86
784.627	235.86
784.809	278.87
784.99	231.76
785.172	166.23
785.353	162.13
785.535	149.84
785.716	291.15
785.897	219.47
786.079	254.29
786.26	143.7
786.441	203.09
786.623	231.76
786.804	221.52
786.985	233.81
787.167	180.56
787.348	219.47
787.529	223.57
787.71	280.91
787.891	274.77
788.073	196.95
788.254	170.32
788.435	180.56
788.616	254.29
788.797	209.23
788.978	149.84
789.159	192.85
789.34	176.47
789.522	223.57
789.703	131.41
789.884	168.27
790.065	274.77
790.246	252.24
790.427	194.9
790.607	211.28
790.788	186.71
790.969	231.76
791.15	176.47
791.331	174.42
791.512	164.18
791.693	125.27
791.874	233.81
792.054	215.38
792.235	229.71
792.416	108.88
792.597	151.89
792.778	155.99
792.958	86.36
793.139	135.51
793.32	196.95
793.5	225.62
793.681	155.99
793.862	135.51
794.042	162.13
794.223	151.89
794.404	192.85
794.584	119.12
794.765	151.89
794.945	147.8
795.126	198.99
795.306	143.7
795.487	190.8
795.667	162.13
795.848	190.8
796.028	74.07
796.209	123.22
796.389	115.03
796.57	110.93
796.75	55.64
796.93	102.74
797.111	145.75
797.291	168.27
797.471	160.08
797.652	149.84
797.832	174.42
798.012	184.66
798.192	141.65
798.373	188.75
798.553	151.89
798.733	176.47
798.913	100.69
799.093	153.94
799.274	104.79
799.454	141.65
799.634	90.45
799.814	106.84
799.994	158.03
800.174	201.04
800.354	162.13
800.534	180.56
800.714	102.74
800.894	125.27
801.074	51.54
801.254	119.12
801.434	88.4
801.614	125.27
801.794	117.08
801.974	356.69
802.154	115.03
802.334	112.98
802.514	65.88
802.693	76.12
802.873	63.83
803.053	164.18
803.233	119.12
803.413	194.9
803.592	61.78
803.772	74.07
803.952	90.45
804.131	37.2
804.311	41.3
804.491	176.47
804.67	131.41
804.85	47.44
805.03	158.03
805.209	119.12
805.389	145.75
805.568	137.56
805.748	61.78
805.928	102.74
806.107	98.64
806.287	47.44
806.466	108.88
806.646	106.84
806.825	100.69
807.004	43.35
807.184	121.17
807.363	108.88
807.543	65.88
807.722	121.17
807.901	168.27
808.081	108.88
808.26	88.4
808.439	182.61
808.619	59.73
808.798	110.93
808.977	86.36
809.156	108.88
809.336	90.45
809.515	39.25
809.694	117.08
809.873	117.08
810.052	35.16
810.231	117.08
810.411	133.46
810.59	49.49
810.769	127.32
810.948	143.7
811.127	88.4
811.306	41.3
811.485	82.26
811.664	112.98
811.843	76.12
812.022	69.97
812.201	92.5
812.38	102.74
812.559	61.78
812.737	72.02
812.916	63.83
813.095	72.02
813.274	35.16
813.453	57.68
813.632	6.49
813.811	90.45
813.989	18.77
814.168	65.88
814.347	59.73
814.526	106.84
814.704	2.39
814.883	14.68
815.062	106.84
815.24	37.2
815.419	76.12
815.598	51.54
815.776	20.82
815.955	49.49
816.133	29.01
816.312	80.21
816.49	-3.75
816.669	86.36
816.847	96.6
817.026	41.3
817.204	94.55
817.383	37.2
817.561	61.78
817.74	35.16
817.918	88.4
818.097	67.92
818.275	86.36
818.453	43.35
818.632	63.83
818.81	78.16
818.988	-9.9
819.167	61.78
819.345	-18.09
819.523	6.49
819.701	47.44
819.879	-1.71
820.058	37.2
820.236	18.77
820.414	94.55
820.592	47.44
820.77	104.79
820.948	29.01
821.127	31.06
821.305	55.64
821.483	26.96
821.661	-16.04
821.839	76.12
822.017	55.64
822.195	49.49
822.373	72.02
822.551	24.92
822.729	98.64
822.907	-42.67
823.085	4.44
823.262	-28.33
823.44	-26.28
823.618	-3.75
823.796	78.16
823.974	18.77
824.152	67.92
824.329	39.25
824.507	29.01
824.685	90.45
824.863	39.25
825.04	-30.38
825.218	65.88
825.396	39.25
825.574	65.88
825.751	74.07
825.929	41.3
826.107	69.97
826.284	16.73
826.462	96.6
826.639	57.68
826.817	80.21
826.994	12.63
827.172	76.12
827.349	59.73
827.527	61.78
827.704	53.59
827.882	69.97
828.059	12.63
828.237	-16.04
828.414	33.11
828.591	2.39
828.769	35.16
828.946	39.25
829.124	63.83
829.301	33.11
829.478	49.49
829.655	10.58
829.833	18.77
830.01	8.53
830.187	67.92
830.364	-48.81
830.542	29.01
830.719	96.6
830.896	22.87
831.073	8.53
831.25	39.25
831.427	-18.09
831.604	35.16
831.782	-63.15
831.959	24.92
832.136	-57
832.313	88.4
832.49	51.54
832.667	72.02
832.844	-1.71
833.021	-89.77
833.198	8.53
833.374	-22.19
833.551	6.49
833.728	29.01
833.905	6.49
834.082	24.92
834.259	45.4
834.436	-50.86
834.612	-5.8
834.789	12.63
834.966	-3.75
835.143	117.08
835.319	-44.71
835.496	29.01
835.673	57.68
835.85	37.2
836.026	16.73
836.203	29.01
836.38	-13.99
836.556	45.4
836.733	-13.99
836.909	69.97
837.086	55.64
837.262	55.64
837.439	0.34
837.616	84.31
837.792	-13.99
837.968	0.34
838.145	45.4
838.321	8.53
838.498	39.25
838.674	69.97
838.851	-13.99
839.027	6.49
839.203	22.87
839.38	-40.62
839.556	-1.71
839.732	35.16
839.909	88.4
840.085	86.36
840.261	24.92
840.437	-28.33
840.614	53.59
840.79	12.63
840.966	-65.19
841.142	-3.75
841.318	-28.33
841.494	31.06
841.671	-5.8
841.847	47.44
842.023	22.87
842.199	47.44
842.375	2.39
842.551	4.44
842.727	37.2
842.903	26.96
843.079	-18.09
843.255	8.53
843.431	29.01
843.607	35.16
843.783	-24.23
843.959	6.49
844.134	16.73
844.31	51.54
844.486	-18.09
844.662	22.87
844.838	8.53
845.013	8.53
845.189	-18.09
845.365	76.12
845.541	18.77
845.716	-3.75
845.892	-1.71
846.068	67.92
846.244	35.16
846.419	20.82
846.595	4.44
846.77	-26.28
846.946	-20.14
847.122	29.01
847.297	-16.04
847.473	10.58
847.648	-28.33
847.824	-18.09
847.999	-54.95
848.175	10.58
848.35	22.87
848.526	6.49
848.701	-20.14
848.876	0.34
849.052	43.35
849.227	24.92
849.403	18.77
849.578	29.01
849.753	-9.9
849.929	47.44
850.104	16.73
850.279	39.25
850.454	63.83
850.63	-42.67
850.805	78.16
850.98	20.82
851.155	-40.62
851.33	-7.85
851.505	2.39
851.681	33.11
851.856	2.39
852.031	29.01
852.206	-28.33
852.381	-32.43
852.556	35.16
852.731	-38.57
852.906	10.58
853.081	35.16
853.256	35.16
853.431	-38.57
853.606	-75.43
853.781	35.16
853.956	4.44
854.131	20.82
854.305	57.68
854.48	29.01
854.655	45.4
854.83	-20.14
855.005	20.82
855.18	0.34
855.354	-48.81
855.529	-16.04
855.704	-46.76
855.879	33.11
856.053	-24.23
856.228	72.02
856.403	24.92
856.577	88.4
856.752	10.58
856.926	49.49
857.101	2.39
857.276	37.2
857.45	24.92
857.625	-59.05
857.799	-9.9
857.974	2.39
858.148	37.2
858.323	4.44
858.497	-67.24
858.672	-13.99
858.846	-16.04
859.02	29.01
859.195	65.88
859.369	-9.9
859.543	8.53
859.718	-28.33
859.892	-5.8
860.066	33.11
860.241	-11.95
860.415	47.44
860.589	-63.15
860.763	55.64
860.938	-28.33
861.112	29.01
861.286	-13.99
861.46	-79.53
861.634	12.63
861.808	29.01
861.982	-63.15
862.157	-9.9
862.331	-18.09
862.505	-16.04
862.679	-52.91
862.853	-5.8
863.027	-13.99
863.201	22.87
863.375	-24.23
863.549	-52.91
863.722	-5.8
863.896	-16.04
864.07	-42.67
864.244	-44.71
864.418	4.44
864.592	-18.09
864.766	22.87
864.939	-67.24
865.113	-22.19
865.287	26.96
865.461	-36.52
865.634	10.58
865.808	-11.95
865.982	-9.9
866.156	-46.76
866.329	-67.24
866.503	20.82
866.676	-11.95
866.85	-69.29
867.024	65.88
867.197	-9.9
867.371	69.97
867.544	-34.47
867.718	-75.43
867.891	2.39
868.065	55.64
868.238	-59.05
868.412	-87.72
868.585	37.2
868.759	-5.8
868.932	-32.43
869.105	-7.85
869.279	-48.81
869.452	6.49
869.625	6.49
869.799	-46.76
869.972	-75.43
870.145	14.68
870.319	47.44
870.492	-11.95
870.665	22.87
870.838	8.53
871.011	-38.57
871.185	-24.23
871.358	-26.28
871.531	45.4
871.704	37.2
871.877	14.68
872.05	-42.67
872.223	47.44
872.396	-9.9
872.569	12.63
872.742	-61.1
872.915	20.82
873.088	-11.95
873.261	-24.23
873.434	-11.95
873.607	-9.9
873.78	-16.04
873.953	-11.95
874.126	-32.43
874.299	18.77
874.471	-30.38
874.644	31.06
874.817	-34.47
874.99	2.39
875.163	-32.43
875.335	84.31
875.508	4.44
875.681	10.58
875.853	67.92
876.026	29.01
876.199	10.58
876.371	-26.28
876.544	14.68
876.717	12.63
876.889	-22.19
877.062	53.59
877.234	-44.71
877.407	-32.43
877.579	16.73
877.752	-3.75
877.924	-11.95
878.097	-65.19
878.269	45.4
878.442	10.58
878.614	51.54
878.786	-9.9
878.959	67.92
879.131	-5.8
879.303	-36.52
879.476	31.06
879.648	-71.34
879.82	-63.15
879.993	-59.05
880.165	-13.99
880.337	-20.14
880.509	69.97
880.681	-85.67
880.854	-1.71
881.026	12.63
881.198	35.16
881.37	16.73
881.542	-3.75
881.714	16.73
881.886	-11.95
882.058	6.49
882.23	2.39
882.402	16.73
882.574	-61.1
882.746	-20.14
882.918	41.3
883.09	-63.15
883.262	74.07
883.434	-32.43
883.606	-69.29
883.778	-7.85
883.95	10.58
884.122	-48.81
884.293	92.5
884.465	-40.62
884.637	-38.57
884.809	-44.71
884.98	-32.43
885.152	-40.62
885.324	6.49
885.496	10.58
885.667	22.87
885.839	-22.19
886.011	8.53
886.182	31.06
886.354	-52.91
886.525	-16.04
886.697	-54.95
886.869	0.34
887.04	-13.99
887.212	6.49
887.383	12.63
887.555	24.92
887.726	-118.44
887.897	41.3
888.069	-50.86
888.24	-34.47
888.412	-54.95
888.583	-18.09
888.754	-26.28
888.926	2.39
889.097	39.25
889.268	-18.09
889.44	14.68
889.611	0.34
889.782	-50.86
889.953	-116.39
890.125	47.44
890.296	0.34
890.467	-32.43
890.638	-7.85
890.809	-1.71
890.98	-65.19
891.151	-40.62
891.323	-77.48
891.494	47.44
891.665	-7.85
891.836	-52.91
892.007	-1.71
892.178	57.68
892.349	2.39
892.52	22.87
892.691	-1.71
892.862	76.12
893.032	35.16
893.203	-44.71
893.374	-28.33
893.545	6.49
893.716	-71.34
893.887	0.34
894.057	22.87
894.228	16.73
894.399	43.35
894.57	-11.95
894.74	10.58
894.911	18.77
895.082	29.01
895.253	10.58
895.423	-44.71
895.594	37.2
895.764	29.01
895.935	-18.09
896.106	-22.19
896.276	-30.38
896.447	37.2
896.617	-13.99
896.788	8.53
896.958	-61.1
897.129	35.16
897.299	14.68
897.47	59.73
897.64	-24.23
897.81	-30.38
897.981	-7.85
898.151	-57
898.322	2.39
898.492	-73.39
898.662	22.87
898.832	-75.43
899.003	0.34
899.173	29.01
899.343	8.53
899.513	12.63
