Data from USB4F104151__275__14-02-21-659.txt Node

Date: Thu Mar 13 14:02:21 EDT 2025
User: louis
Spectrometer: USB4F10415
Trigger mode: 4
Integration Time (sec): 1.000000E-2
Scans to average: 1
Electric dark correction enabled: true
Nonlinearity correction enabled: false
Boxcar width: 0
XAxis mode: Wavelengths
Number of Pixels in Spectrum: 3648
>>>>>Begin Spectral Data<<<<<
178.204	-54.61
178.424	-54.61
178.644	-54.61
178.864	-73.04
179.084	-23.89
179.304	15.02
179.524	-58.71
179.744	33.45
179.964	21.16
180.184	-7.51
180.404	-15.7
180.624	-3.41
180.844	37.55
181.064	-32.08
181.283	15.02
181.503	19.11
181.723	-23.89
181.943	-11.61
182.163	-3.41
182.383	64.17
182.602	27.31
182.822	51.88
183.042	2.73
183.262	35.5
183.482	37.55
183.701	-7.51
183.921	-23.89
184.141	17.07
184.361	23.21
184.58	66.22
184.8	-11.61
185.02	-32.08
185.239	-5.46
185.459	-23.89
185.679	12.97
185.898	-11.61
186.118	55.98
186.338	-68.95
186.557	23.21
186.777	-5.46
186.997	19.11
187.216	-1.37
187.436	4.78
187.655	49.83
187.875	60.07
188.095	-9.56
188.314	41.64
188.534	-1.37
188.753	15.02
188.973	-7.51
189.192	68.27
189.412	2.73
189.631	78.51
189.851	-21.84
190.07	41.64
190.29	10.92
190.509	88.75
190.729	47.79
190.948	76.46
191.168	66.22
191.387	8.87
191.607	37.55
191.826	86.7
192.045	12.97
192.265	8.87
192.484	12.97
192.704	41.64
192.923	-13.65
193.142	66.22
193.362	-23.89
193.581	27.31
193.8	6.83
194.02	-15.7
194.239	-7.51
194.458	10.92
194.678	-11.61
194.897	27.31
195.116	12.97
195.335	-3.41
195.555	47.79
195.774	62.12
195.993	-5.46
196.212	-77.14
196.432	25.26
196.651	45.74
196.87	6.83
197.089	-15.7
197.308	-30.04
197.528	23.21
197.747	2.73
197.966	27.31
198.185	-23.89
198.404	10.92
198.623	-68.95
198.842	-95.57
199.062	-15.7
199.281	-9.56
199.5	-56.66
199.719	66.22
199.938	-9.56
200.157	35.5
200.376	66.22
200.595	-7.51
200.814	-36.18
201.033	0.68
201.252	15.02
201.471	0.68
201.69	12.97
201.909	19.11
202.128	35.5
202.347	-32.08
202.566	-23.89
202.785	-19.8
203.004	29.35
203.223	-1.37
203.442	27.31
203.661	27.31
203.879	-36.18
204.098	49.83
204.317	10.92
204.536	82.6
204.755	17.07
204.974	-13.65
205.193	-3.41
205.411	43.69
205.63	98.99
205.849	37.55
206.068	-15.7
206.287	-11.61
206.505	58.03
206.724	-19.8
206.943	31.4
207.162	31.4
207.381	-25.94
207.599	49.83
207.818	33.45
208.037	53.93
208.255	4.78
208.474	-44.37
208.693	41.64
208.911	19.11
209.13	64.17
209.349	2.73
209.567	10.92
209.786	-19.8
210.005	-17.75
210.223	10.92
210.442	-25.94
210.661	25.26
210.879	-73.04
211.098	27.31
211.316	0.68
211.535	27.31
211.753	-38.23
211.972	45.74
212.191	12.97
212.409	-7.51
212.628	19.11
212.846	37.55
213.065	21.16
213.283	29.35
213.502	-5.46
213.72	19.11
213.938	8.87
214.157	29.35
214.375	19.11
214.594	49.83
214.812	-5.46
215.031	-11.61
215.249	-21.84
215.467	25.26
215.686	0.68
215.904	58.03
216.122	25.26
216.341	-11.61
216.559	-19.8
216.778	49.83
216.996	-3.41
217.214	33.45
217.432	31.4
217.651	-13.65
217.869	6.83
218.087	80.55
218.306	10.92
218.524	60.07
218.742	-9.56
218.96	-21.84
219.179	51.88
219.397	-5.46
219.615	53.93
219.833	72.36
220.051	45.74
220.27	8.87
220.488	70.31
220.706	17.07
220.924	-66.9
221.142	33.45
221.36	60.07
221.578	-5.46
221.796	-36.18
222.015	43.69
222.233	27.31
222.451	-25.94
222.669	12.97
222.887	-5.46
223.105	21.16
223.323	19.11
223.541	-46.42
223.759	101.03
223.977	41.64
224.195	-13.65
224.413	-7.51
224.631	29.35
224.849	0.68
225.067	0.68
225.285	-58.71
225.503	17.07
225.721	41.64
225.939	33.45
226.157	-3.41
226.375	33.45
226.592	31.4
226.81	33.45
227.028	76.46
227.246	19.11
227.464	51.88
227.682	27.31
227.9	27.31
228.117	58.03
228.335	-23.89
228.553	27.31
228.771	66.22
228.989	8.87
229.206	-23.89
229.424	74.41
229.642	-64.85
229.86	43.69
230.077	27.31
230.295	-13.65
230.513	8.87
230.731	17.07
230.948	0.68
231.166	-44.37
231.384	39.59
231.601	12.97
231.819	-36.18
232.037	39.59
232.254	-23.89
232.472	27.31
232.689	2.73
232.907	10.92
233.125	-15.7
233.342	39.59
233.56	-23.89
233.777	-46.42
233.995	41.64
234.213	58.03
234.43	0.68
234.648	-75.09
234.865	-9.56
235.083	-1.37
235.3	41.64
235.518	15.02
235.735	10.92
235.953	103.08
236.17	-25.94
236.388	-21.84
236.605	-15.7
236.822	70.31
237.04	25.26
237.257	29.35
237.475	58.03
237.692	51.88
237.909	33.45
238.127	15.02
238.344	25.26
238.562	8.87
238.779	-40.28
238.996	-5.46
239.214	-27.99
239.431	60.07
239.648	78.51
239.865	25.26
240.083	27.31
240.3	49.83
240.517	8.87
240.735	74.41
240.952	90.79
241.169	0.68
241.386	0.68
241.603	49.83
241.821	-42.32
242.038	33.45
242.255	17.07
242.472	37.55
242.689	21.16
242.907	15.02
243.124	-11.61
243.341	19.11
243.558	51.88
243.775	25.26
243.992	31.4
244.209	74.41
244.426	41.64
244.643	10.92
244.86	74.41
245.078	23.21
245.295	23.21
245.512	-11.61
245.729	101.03
245.946	53.93
246.163	-15.7
246.38	-19.8
246.597	15.02
246.814	45.74
247.031	29.35
247.248	23.21
247.464	2.73
247.681	74.41
247.898	86.7
248.115	68.27
248.332	70.31
248.549	51.88
248.766	19.11
248.983	0.68
249.2	29.35
249.417	-58.71
249.633	45.74
249.85	10.92
250.067	41.64
250.284	29.35
250.501	21.16
250.717	25.26
250.934	23.21
251.151	19.11
251.368	49.83
251.585	10.92
251.801	31.4
252.018	-30.04
252.235	4.78
252.451	43.69
252.668	-11.61
252.885	109.23
253.102	41.64
253.318	31.4
253.535	-23.89
253.752	64.17
253.968	37.55
254.185	19.11
254.401	-7.51
254.618	-13.65
254.835	55.98
255.051	33.45
255.268	-15.7
255.484	-3.41
255.701	-15.7
255.917	33.45
256.134	-15.7
256.351	-15.7
256.567	21.16
256.784	4.78
257	-5.46
257.217	17.07
257.433	-34.13
257.65	-19.8
257.866	0.68
258.082	-5.46
258.299	-21.84
258.515	23.21
258.732	27.31
258.948	21.16
259.165	62.12
259.381	45.74
259.597	-17.75
259.814	90.79
260.03	33.45
260.246	17.07
260.463	-23.89
260.679	15.02
260.895	-25.94
261.112	-15.7
261.328	72.36
261.544	-48.47
261.761	51.88
261.977	41.64
262.193	70.31
262.409	41.64
262.626	0.68
262.842	-19.8
263.058	129.7
263.274	0.68
263.49	-17.75
263.707	47.79
263.923	-38.23
264.139	-13.65
264.355	58.03
264.571	33.45
264.787	68.27
265.004	41.64
265.22	-11.61
265.436	-5.46
265.652	74.41
265.868	4.78
266.084	-19.8
266.3	35.5
266.516	-27.99
266.732	-13.65
266.948	39.59
267.164	8.87
267.38	-15.7
267.596	-11.61
267.812	8.87
268.028	33.45
268.244	-38.23
268.46	-60.76
268.676	17.07
268.892	10.92
269.108	12.97
269.324	8.87
269.54	47.79
269.756	-9.56
269.972	25.26
270.188	6.83
270.403	25.26
270.619	19.11
270.835	-17.75
271.051	21.16
271.267	0.68
271.483	8.87
271.698	27.31
271.914	19.11
272.13	76.46
272.346	-5.46
272.562	-15.7
272.777	12.97
272.993	74.41
273.209	6.83
273.425	12.97
273.64	60.07
273.856	23.21
274.072	37.55
274.287	-32.08
274.503	25.26
274.719	47.79
274.934	12.97
275.15	58.03
275.366	-23.89
275.581	51.88
275.797	27.31
276.012	-3.41
276.228	53.93
276.444	33.45
276.659	21.16
276.875	68.27
277.09	-27.99
277.306	-11.61
277.521	84.65
277.737	66.22
277.952	103.08
278.168	0.68
278.383	43.69
278.599	4.78
278.814	43.69
279.03	12.97
279.245	146.09
279.461	8.87
279.676	21.16
279.892	66.22
280.107	43.69
280.322	29.35
280.538	58.03
280.753	-13.65
280.969	62.12
281.184	43.69
281.399	-13.65
281.615	47.79
281.83	51.88
282.045	19.11
282.26	17.07
282.476	35.5
282.691	55.98
282.906	2.73
283.122	88.75
283.337	-11.61
283.552	74.41
283.767	-48.47
283.983	-21.84
284.198	-3.41
284.413	49.83
284.628	4.78
284.843	25.26
285.058	43.69
285.274	17.07
285.489	-17.75
285.704	43.69
285.919	-44.37
286.134	58.03
286.349	33.45
286.564	33.45
286.779	51.88
286.995	76.46
287.21	-15.7
287.425	0.68
287.64	17.07
287.855	55.98
288.07	-21.84
288.285	82.6
288.5	19.11
288.715	-7.51
288.93	33.45
289.145	68.27
289.36	0.68
289.575	41.64
289.79	78.51
290.004	53.93
290.219	0.68
290.434	17.07
290.649	23.21
290.864	-7.51
291.079	0.68
291.294	62.12
291.509	49.83
291.724	-3.41
291.938	49.83
292.153	19.11
292.368	21.16
292.583	10.92
292.798	8.87
293.012	23.21
293.227	74.41
293.442	-15.7
293.657	-23.89
293.871	39.59
294.086	29.35
294.301	164.52
294.516	-11.61
294.73	15.02
294.945	82.6
295.16	-30.04
295.374	12.97
295.589	-7.51
295.804	-13.65
296.018	92.84
296.233	33.45
296.447	-13.65
296.662	66.22
296.877	25.26
297.091	-54.61
297.306	-19.8
297.52	66.22
297.735	-1.37
297.949	-7.51
298.164	98.99
298.378	-48.47
298.593	49.83
298.807	43.69
299.022	49.83
299.236	68.27
299.451	51.88
299.665	2.73
299.88	-62.8
300.094	121.51
300.309	68.27
300.523	23.21
300.737	43.69
300.952	21.16
301.166	-46.42
301.381	-11.61
301.595	72.36
301.809	47.79
302.024	-11.61
302.238	49.83
302.452	0.68
302.667	72.36
302.881	27.31
303.095	78.51
303.309	4.78
303.524	-64.85
303.738	29.35
303.952	19.11
304.166	41.64
304.381	-5.46
304.595	19.11
304.809	17.07
305.023	-1.37
305.237	-38.23
305.452	-30.04
305.666	8.87
305.88	51.88
306.094	49.83
306.308	-19.8
306.522	66.22
306.736	23.21
306.95	-60.76
307.164	66.22
307.379	53.93
307.593	0.68
307.807	23.21
308.021	-15.7
308.235	33.45
308.449	33.45
308.663	25.26
308.877	74.41
309.091	72.36
309.305	8.87
309.519	21.16
309.733	-7.51
309.947	111.27
310.161	60.07
310.374	10.92
310.588	41.64
310.802	35.5
311.016	-5.46
311.23	-21.84
311.444	33.45
311.658	45.74
311.872	10.92
312.085	53.93
312.299	35.5
312.513	43.69
312.727	45.74
312.941	-7.51
313.154	25.26
313.368	45.74
313.582	58.03
313.796	-5.46
314.009	45.74
314.223	-62.8
314.437	94.89
314.651	45.74
314.864	12.97
315.078	90.79
315.292	-30.04
315.505	-48.47
315.719	43.69
315.933	-23.89
316.146	45.74
316.36	-56.66
316.573	43.69
316.787	41.64
317.001	62.12
317.214	68.27
317.428	12.97
317.641	-73.04
317.855	-5.46
318.068	-23.89
318.282	47.79
318.495	-11.61
318.709	47.79
318.922	-7.51
319.136	17.07
319.349	-44.37
319.563	-23.89
319.776	94.89
319.99	-52.56
320.203	41.64
320.417	0.68
320.63	70.31
320.843	21.16
321.057	10.92
321.27	39.59
321.483	25.26
321.697	41.64
321.91	55.98
322.124	12.97
322.337	117.42
322.55	41.64
322.763	64.17
322.977	23.21
323.19	-5.46
323.403	-23.89
323.617	51.88
323.83	12.97
324.043	58.03
324.256	55.98
324.469	21.16
324.683	113.32
324.896	-15.7
325.109	33.45
325.322	35.5
325.535	62.12
325.748	27.31
325.962	41.64
326.175	123.56
326.388	82.6
326.601	21.16
326.814	-13.65
327.027	39.59
327.24	62.12
327.453	23.21
327.666	-60.76
327.879	66.22
328.092	90.79
328.305	41.64
328.518	17.07
328.731	-9.56
328.944	12.97
329.157	33.45
329.37	-5.46
329.583	82.6
329.796	86.7
330.009	47.79
330.222	31.4
330.435	66.22
330.648	27.31
330.861	23.21
331.073	49.83
331.286	90.79
331.499	47.79
331.712	25.26
331.925	-11.61
332.138	53.93
332.35	43.69
332.563	19.11
332.776	27.31
332.989	43.69
333.202	12.97
333.414	37.55
333.627	-1.37
333.84	62.12
334.053	90.79
334.265	53.93
334.478	2.73
334.691	-19.8
334.903	31.4
335.116	49.83
335.329	70.31
335.541	37.55
335.754	86.7
335.966	37.55
336.179	33.45
336.392	33.45
336.604	37.55
336.817	45.74
337.029	41.64
337.242	15.02
337.454	64.17
337.667	4.78
337.88	41.64
338.092	-23.89
338.305	27.31
338.517	55.98
338.729	66.22
338.942	25.26
339.154	41.64
339.367	107.18
339.579	37.55
339.792	31.4
340.004	27.31
340.217	-5.46
340.429	101.03
340.641	6.83
340.854	6.83
341.066	49.83
341.278	78.51
341.491	15.02
341.703	45.74
341.915	60.07
342.128	25.26
342.34	10.92
342.552	2.73
342.764	115.37
342.977	35.5
343.189	-54.61
343.401	25.26
343.613	55.98
343.826	66.22
344.038	35.5
344.25	33.45
344.462	62.12
344.674	29.35
344.886	45.74
345.099	41.64
345.311	33.45
345.523	55.98
345.735	-9.56
345.947	-19.8
346.159	70.31
346.371	-3.41
346.583	41.64
346.795	-40.28
347.007	8.87
347.219	4.78
347.431	6.83
347.643	-3.41
347.855	8.87
348.067	107.18
348.279	0.68
348.491	62.12
348.703	51.88
348.915	-9.56
349.127	84.65
349.339	27.31
349.551	39.59
349.763	58.03
349.975	64.17
350.187	58.03
350.399	39.59
350.61	55.98
350.822	17.07
351.034	51.88
351.246	17.07
351.458	15.02
351.669	55.98
351.881	49.83
352.093	12.97
352.305	-11.61
352.517	45.74
352.728	58.03
352.94	41.64
353.152	45.74
353.363	6.83
353.575	70.31
353.787	33.45
353.999	66.22
354.21	4.78
354.422	17.07
354.633	10.92
354.845	17.07
355.057	131.75
355.268	88.75
355.48	-11.61
355.692	33.45
355.903	-13.65
356.115	23.21
356.326	-27.99
356.538	66.22
356.749	33.45
356.961	25.26
357.172	64.17
357.384	-25.94
357.595	19.11
357.807	21.16
358.018	78.51
358.23	76.46
358.441	90.79
358.653	25.26
358.864	-13.65
359.075	0.68
359.287	96.94
359.498	51.88
359.709	12.97
359.921	53.93
360.132	74.41
360.344	-64.85
360.555	23.21
360.766	86.7
360.977	17.07
361.189	90.79
361.4	8.87
361.611	74.41
361.823	37.55
362.034	45.74
362.245	0.68
362.456	37.55
362.667	98.99
362.879	45.74
363.09	25.26
363.301	29.35
363.512	76.46
363.723	84.65
363.935	37.55
364.146	41.64
364.357	17.07
364.568	21.16
364.779	-60.76
364.99	53.93
365.201	43.69
365.412	49.83
365.623	27.31
365.834	64.17
366.045	82.6
366.256	-1.37
366.467	31.4
366.678	27.31
366.889	90.79
367.1	25.26
367.311	45.74
367.522	51.88
367.733	-7.51
367.944	25.26
368.155	-9.56
368.366	72.36
368.577	35.5
368.788	127.66
368.999	88.75
369.209	10.92
369.42	-9.56
369.631	41.64
369.842	33.45
370.053	33.45
370.264	27.31
370.474	-5.46
370.685	107.18
370.896	15.02
371.107	66.22
371.317	74.41
371.528	64.17
371.739	55.98
371.95	60.07
372.16	45.74
372.371	35.5
372.582	29.35
372.792	-5.46
373.003	31.4
373.214	8.87
373.424	41.64
373.635	-9.56
373.846	84.65
374.056	53.93
374.267	-23.89
374.477	12.97
374.688	12.97
374.898	111.27
375.109	21.16
375.319	70.31
375.53	37.55
375.74	-32.08
375.951	51.88
376.161	21.16
376.372	117.42
376.582	33.45
376.793	103.08
377.003	72.36
377.214	10.92
377.424	92.84
377.635	0.68
377.845	78.51
378.055	39.59
378.266	37.55
378.476	55.98
378.686	76.46
378.897	29.35
379.107	92.84
379.317	58.03
379.528	70.31
379.738	72.36
379.948	4.78
380.158	68.27
380.369	37.55
380.579	31.4
380.789	-27.99
380.999	45.74
381.21	103.08
381.42	19.11
381.63	84.65
381.84	94.89
382.05	84.65
382.261	78.51
382.471	98.99
382.681	27.31
382.891	68.27
383.101	4.78
383.311	17.07
383.521	68.27
383.731	66.22
383.941	51.88
384.151	49.83
384.361	107.18
384.571	37.55
384.781	51.88
384.991	45.74
385.201	101.03
385.411	133.8
385.621	43.69
385.831	10.92
386.041	-15.7
386.251	51.88
386.461	58.03
386.671	90.79
386.881	41.64
387.091	27.31
387.301	37.55
387.511	33.45
387.72	88.75
387.93	53.93
388.14	37.55
388.35	43.69
388.56	103.08
388.769	51.88
388.979	33.45
389.189	12.97
389.399	37.55
389.609	84.65
389.818	43.69
390.028	19.11
390.238	98.99
390.447	35.5
390.657	96.94
390.867	51.88
391.076	49.83
391.286	68.27
391.496	74.41
391.705	62.12
391.915	164.52
392.125	-30.04
392.334	55.98
392.544	76.46
392.753	121.51
392.963	45.74
393.172	82.6
393.382	98.99
393.591	119.46
393.801	66.22
394.01	64.17
394.22	80.55
394.429	53.93
394.639	117.42
394.848	29.35
395.058	60.07
395.267	-5.46
395.477	70.31
395.686	117.42
395.895	111.27
396.105	103.08
396.314	121.51
396.524	76.46
396.733	60.07
396.942	70.31
397.152	58.03
397.361	90.79
397.57	76.46
397.78	86.7
397.989	51.88
398.198	92.84
398.407	146.09
398.617	86.7
398.826	62.12
399.035	164.52
399.244	78.51
399.453	131.75
399.663	45.74
399.872	49.83
400.081	86.7
400.29	84.65
400.499	47.79
400.708	66.22
400.917	109.23
401.127	76.46
401.336	121.51
401.545	172.71
401.754	156.33
401.963	94.89
402.172	133.8
402.381	137.9
402.59	131.75
402.799	117.42
403.008	107.18
403.217	152.23
403.426	154.28
403.635	113.32
403.844	92.84
404.053	139.94
404.262	154.28
404.471	195.24
404.68	182.95
404.888	137.9
405.097	62.12
405.306	191.14
405.515	180.9
405.724	139.94
405.933	129.7
406.142	215.72
406.35	248.49
406.559	164.52
406.768	152.23
406.977	223.91
407.185	217.77
407.394	326.31
407.603	264.87
407.812	221.86
408.02	264.87
408.229	297.64
408.438	279.21
408.646	178.86
408.855	266.92
409.064	246.44
409.272	369.32
409.481	234.15
409.69	305.83
409.898	266.92
410.107	295.59
410.315	346.79
410.524	447.14
410.733	344.74
410.941	381.6
411.15	369.32
411.358	289.45
411.567	457.38
411.775	424.61
411.984	434.85
412.192	488.1
412.401	484
412.609	576.16
412.818	467.62
413.026	551.59
413.234	533.15
413.443	582.31
413.651	608.93
413.86	580.26
414.068	688.8
414.276	746.14
414.485	621.22
414.693	668.32
414.901	733.86
415.11	748.19
415.318	715.42
415.526	791.2
415.734	875.17
415.943	740
416.151	909.98
416.359	895.65
416.567	885.41
416.776	1028.76
416.984	1057.43
417.192	993.95
417.4	1077.91
417.608	1100.44
417.817	1098.39
418.025	1260.18
418.233	1272.47
418.441	1249.94
418.649	1225.37
418.857	1340.05
419.065	1467.03
419.273	1335.96
419.481	1469.08
419.689	1528.47
419.897	1485.46
420.105	1641.11
420.313	1618.58
420.521	1663.63
420.729	1802.9
420.937	1843.85
421.145	2022.03
421.353	1872.53
421.561	2034.32
421.769	2093.71
421.977	2218.63
422.185	2173.58
422.393	2347.65
422.601	2521.73
422.809	2454.15
423.017	2482.82
423.224	2634.37
423.432	2591.36
423.64	2730.62
423.848	2859.65
424.056	2951.81
424.263	3058.3
424.471	3117.69
424.679	3093.12
424.887	3316.34
425.094	3357.3
425.302	3394.17
425.51	3494.52
425.718	3680.88
425.925	3607.16
426.133	3820.14
426.341	4026.99
426.548	4201.07
426.756	4350.57
426.964	4303.47
427.171	4526.69
427.379	4727.39
427.586	4682.34
427.794	4889.18
428.001	5104.22
428.209	5298.78
428.417	5036.64
428.624	5511.77
428.832	5718.61
429.039	5712.47
429.247	5589.59
429.454	6101.58
429.662	6312.52
429.869	6154.83
430.076	6146.64
430.284	6259.28
430.491	6615.62
430.699	7031.36
430.906	7031.36
431.114	6871.62
431.321	7473.72
431.528	7635.51
431.736	7965.23
431.943	8278.57
432.15	8079.92
432.358	8227.37
432.565	8471.08
432.772	8362.54
432.979	8944.16
433.187	9083.42
433.394	9151.01
433.601	9691.67
433.808	9861.65
434.016	9679.38
434.223	10369.55
434.43	10770.95
434.637	10641.93
434.844	11497.98
435.052	11411.96
435.259	11389.44
435.466	11450.88
435.673	11121.15
435.88	11997.68
436.087	12632.55
436.294	12861.93
436.501	12605.93
436.708	12558.83
436.915	13165.03
437.122	13763.03
437.329	13527.52
437.537	14248.4
437.743	14250.45
437.95	14238.16
438.157	15131.08
438.364	15679.93
438.571	15477.18
438.778	15280.58
438.985	16912.81
439.192	16183.73
439.399	17017.25
439.606	16452.02
439.813	17471.9
440.02	18479.5
440.227	17871.26
440.433	17979.8
440.64	18618.77
440.847	18493.84
441.054	19079.56
441.261	20228.47
441.467	19921.27
441.674	20373.88
441.881	20887.92
442.088	21131.62
442.294	20734.32
442.501	21444.96
442.708	21692.77
442.914	22350.17
443.121	23683.39
443.328	22778.19
443.534	24461.62
443.741	23900.48
443.948	23472.45
444.154	25303.34
444.361	25092.4
444.568	25164.07
444.774	25325.86
444.981	25284.9
445.187	25950.49
445.394	27328.78
445.6	27246.86
445.807	29491.43
446.013	28346.62
446.22	28766.45
446.426	29901.03
446.633	29948.13
446.839	31314.12
447.046	29632.74
447.252	31369.42
447.459	31563.98
447.665	31254.73
447.871	32700.6
448.078	34093.22
448.284	32383.16
448.491	33292.46
448.697	34543.77
448.903	35125.39
449.11	35541.13
449.316	34404.51
449.522	35420.3
449.728	36098.18
449.935	36624.51
450.141	36792.44
450.347	37202.04
450.553	35987.59
450.76	36724.86
450.966	37662.83
451.172	37091.44
451.378	38166.63
451.584	37576.81
451.791	38393.95
451.997	38033.51
452.203	38795.35
452.409	38717.53
452.615	38819.93
452.821	37257.33
453.027	36915.32
453.233	39014.49
453.44	37638.25
453.646	37511.28
453.852	37648.49
454.058	38346.85
454.264	37191.8
454.47	37845.1
454.676	37593.2
454.882	38350.95
455.088	35281.04
455.294	35600.52
455.5	35831.94
455.705	36319.36
455.911	35031.19
456.117	34488.48
456.323	33888.42
456.529	32194.75
456.735	33577.13
456.941	32673.98
457.147	31998.15
457.352	30904.53
457.558	30464.22
457.764	30894.29
457.97	29991.14
458.176	29778.15
458.381	29630.69
458.587	28094.72
458.793	28289.27
458.999	26589.46
459.204	28741.88
459.41	27644.16
459.616	25643.3
459.821	26159.39
460.027	25741.6
460.233	25188.65
460.438	23968.06
460.644	24428.85
460.85	23314.76
461.055	22677.84
461.261	23234.89
461.466	21113.19
461.672	20744.56
461.878	21602.66
462.083	20408.69
462.289	20187.51
462.494	20021.63
462.7	19181.96
462.905	18575.76
463.111	19368.32
463.316	19493.25
463.522	18549.14
463.727	18837.9
463.932	18885
464.138	18780.56
464.343	19091.85
464.549	18424.21
464.754	18823.56
464.959	18600.33
465.165	18485.65
465.37	17758.62
465.575	17293.73
465.781	17822.11
465.986	18172.31
466.191	17494.43
466.397	17050.02
466.602	16312.75
466.807	17133.99
467.012	16808.36
467.218	16675.24
467.423	16531.89
467.628	16628.14
467.833	17439.14
468.038	16615.85
468.244	16495.02
468.449	16937.38
468.654	16482.74
468.859	16460.21
469.064	16406.96
469.269	15542.72
469.474	15872.44
469.679	16253.36
469.885	15368.64
470.09	15931.83
470.295	15821.24
470.5	15344.06
470.705	15378.88
470.91	14932.42
471.115	14799.3
471.32	14965.19
471.525	14989.77
471.73	14715.34
471.935	14553.55
472.139	14242.26
472.344	14012.88
472.549	14176.72
472.754	13922.77
472.959	13593.05
473.164	13541.85
473.369	13187.55
473.574	13677.02
473.778	13498.84
473.983	13746.65
474.188	13361.63
474.393	12780.01
474.598	12935.65
474.802	12769.77
475.007	12653.03
475.212	12706.28
475.417	12188.14
475.621	12278.26
475.826	12079.6
476.031	12126.71
476.235	11899.38
476.44	11946.48
476.645	11743.74
476.849	11790.84
477.054	11483.64
477.259	11518.46
477.463	11309.57
477.668	11225.6
477.872	11151.87
478.077	10744.33
478.282	10646.02
478.486	10650.12
478.691	10740.23
478.895	10834.44
479.1	10551.82
479.304	10494.47
479.509	10351.12
479.713	10496.52
479.918	10095.12
480.122	9959.95
480.326	10160.66
480.531	10142.22
480.735	9937.43
480.94	10015.25
481.144	10318.35
481.348	9830.93
481.553	10029.59
481.757	9761.3
481.961	9896.47
482.166	10052.11
482.37	9773.59
482.574	9736.73
482.778	9796.12
482.983	9845.27
483.187	9724.44
483.391	9980.43
483.595	9812.5
483.8	9681.43
484.004	9789.97
484.208	9904.66
484.412	9619.99
484.616	9759.25
484.821	9832.98
485.025	9611.8
485.229	9955.86
485.433	9652.76
485.637	9728.53
485.841	9374.24
486.045	9851.41
486.249	9949.71
486.453	9644.57
486.657	9749.01
486.861	9847.32
487.065	9521.69
487.269	9613.85
487.473	9658.9
487.677	9718.29
487.881	9904.66
488.085	9777.69
488.289	9939.47
488.493	9783.83
488.697	9710.1
488.901	9742.87
489.105	9810.45
489.309	9812.5
489.512	9691.67
489.716	9691.67
489.92	9794.07
490.124	9949.71
490.328	9968.15
490.531	10035.73
490.735	10052.11
490.939	10103.31
491.143	10017.3
491.346	10230.29
491.55	10119.7
491.754	10007.06
491.958	10246.67
492.161	10252.81
492.365	10129.94
492.569	10306.06
492.772	10070.54
492.976	10496.52
493.18	10467.85
493.383	10480.14
493.587	10664.46
493.79	10641.93
493.994	10545.67
494.197	10793.48
494.401	10805.77
494.605	10824.2
494.808	10983.94
495.012	10920.45
495.215	11231.74
495.419	11143.68
495.622	11266.56
495.825	11190.78
496.029	11262.46
496.232	11807.22
496.436	11444.73
496.639	11747.83
496.843	11733.5
497.046	12018.16
497.249	12028.4
497.453	12212.72
497.656	12425.71
497.859	12153.33
498.063	12298.73
498.266	12665.32
498.469	12554.73
498.673	12915.17
498.876	13001.19
499.079	13107.68
499.282	13292
499.485	13429.21
499.689	13361.63
499.892	13574.62
500.095	13724.12
500.298	14180.82
500.501	13883.86
500.705	14397.9
500.908	14768.59
501.111	14682.57
501.314	14809.54
501.517	14916.04
501.72	15102.4
501.923	14903.75
502.126	15763.9
502.329	15638.97
502.532	15753.66
502.735	15862.2
502.938	16284.08
503.141	16341.43
503.344	16820.65
503.547	16540.08
503.75	16845.23
503.953	17179.04
504.156	16986.54
504.359	17445.28
504.562	17363.36
504.765	18061.72
504.968	18145.69
505.17	18203.03
505.373	18145.69
505.576	18542.99
505.779	18989.45
505.982	18805.13
506.185	19468.67
506.387	19224.97
506.59	19609.98
506.793	20009.34
506.996	19847.55
507.198	20803.95
507.401	20439.41
507.604	20822.38
507.807	21211.49
508.009	21240.17
508.212	21391.72
508.415	21741.92
508.617	21932.38
508.82	22313.3
509.022	22079.83
509.225	22632.79
509.428	22620.5
509.63	23001.42
509.833	22974.8
510.035	23791.94
510.238	23716.16
510.44	24019.26
510.643	24521.01
510.845	24326.46
511.048	24754.48
511.25	24930.61
511.453	24881.45
511.655	25962.78
511.858	25581.86
512.06	25807.14
512.262	26280.22
512.465	26028.32
512.667	26661.14
512.87	26972.43
513.072	27007.25
513.274	27422.98
513.477	27871.49
513.679	28016.9
513.881	28408.06
514.084	28573.94
514.286	28733.68
514.488	28881.14
514.69	29722.85
514.893	29778.15
515.095	29939.94
515.297	30507.23
515.499	30421.21
515.701	31013.07
515.904	31144.14
516.106	31660.23
516.308	31985.86
516.51	32190.66
516.712	32299.2
516.914	32596.15
517.116	33007.79
517.318	33011.89
517.52	33525.93
517.722	33517.74
517.925	34160.8
518.127	34496.67
518.329	34893.97
518.531	34642.07
518.733	35375.25
518.935	35696.78
519.136	35442.83
519.338	36462.72
519.54	36253.83
519.742	36599.93
519.944	36786.3
520.146	37658.73
520.348	37724.27
520.55	38215.78
520.752	37937.26
520.954	38570.08
521.155	38160.48
521.357	39125.08
521.559	39135.32
521.761	39981.13
521.963	39682.13
522.164	40284.23
522.366	40433.73
522.568	40491.07
522.77	40433.73
522.971	41723.95
523.173	41001.02
523.375	41381.94
523.576	41889.84
523.778	41519.15
523.98	42520.61
524.181	42704.93
524.383	42678.3
524.584	43132.95
524.786	43069.47
524.988	42934.3
525.189	44027.91
525.391	44113.93
525.592	44218.38
525.794	44509.19
525.995	44408.84
526.197	44187.66
526.398	44406.79
526.6	45152.25
526.801	45072.38
527.003	45324.28
527.204	45373.43
527.406	45635.57
527.607	45320.18
527.808	46413.8
528.01	45508.6
528.211	46084.08
528.412	46673.89
528.614	46677.99
528.815	46020.59
529.016	47022.05
529.218	46585.83
529.419	46983.13
529.62	46530.53
529.822	46454.76
530.023	47091.68
530.224	47386.58
530.425	46821.34
530.626	46585.83
530.828	46503.91
531.029	47968.21
531.23	47202.27
531.431	47097.82
531.632	47509.46
531.833	47673.3
532.035	47503.32
532.236	47818.71
532.437	47773.65
532.638	47443.93
532.839	47835.09
533.04	48246.73
533.241	47441.88
533.442	48244.68
533.643	47896.53
533.844	47624.15
534.045	47837.14
534.246	47736.79
534.447	48259.02
534.648	47718.35
534.849	48488.39
535.05	48043.98
535.251	48052.17
535.451	48107.47
535.652	47988.69
535.853	48058.32
536.054	48232.39
536.255	48682.95
536.456	47665.11
536.657	48693.19
536.857	48136.14
537.058	47908.82
537.259	48263.11
537.46	48216.01
537.66	47986.64
537.861	48273.35
538.062	48035.79
538.263	48070.61
538.463	47663.06
538.664	47947.73
538.865	48248.78
539.065	48299.98
539.266	47943.63
539.466	48000.97
539.667	47669.2
539.868	48525.25
540.068	48173
540.269	47894.48
540.469	48195.53
540.67	48015.31
540.87	47904.72
541.071	48226.25
541.271	48007.12
541.472	48076.75
541.672	47654.87
541.873	47974.35
542.073	47325.14
542.274	48183.24
542.474	47880.14
542.675	47495.13
542.875	48015.31
543.075	47800.27
543.276	47620.05
543.476	48326.6
543.676	47953.87
543.877	48469.96
544.077	47822.8
544.277	47378.39
544.478	48201.68
544.678	48150.48
544.878	47685.59
545.078	47742.93
545.279	47468.5
545.479	47708.11
545.679	48015.31
545.879	47636.44
546.079	47798.23
546.28	47597.52
546.48	47347.67
546.68	47982.54
546.88	47493.08
547.08	47742.93
547.28	48048.08
547.48	47241.18
547.68	47595.48
547.88	47134.68
548.081	47980.49
548.281	47531.99
548.481	47642.58
548.681	47736.79
548.881	47443.93
549.081	47607.76
549.28	47224.79
549.48	47828.94
549.68	47384.54
549.88	48093.13
550.08	47202.27
550.28	47835.09
550.48	47185.88
550.68	48035.79
550.88	47210.46
551.08	47341.53
551.279	47036.38
551.479	47376.34
551.679	47534.04
551.879	47681.49
552.079	47415.26
552.278	47310.81
552.478	47421.4
552.678	47337.43
552.878	47488.98
553.077	47128.54
553.277	46784.48
553.477	47747.03
553.676	47085.53
553.876	47441.88
554.076	46692.32
554.275	46878.69
554.475	46471.14
554.674	46897.12
554.874	47077.34
555.074	46807.01
555.273	46925.79
555.473	46905.31
555.672	46854.11
555.872	46847.97
556.071	46923.74
556.271	47038.43
556.47	46368.74
556.67	46495.72
556.869	46473.19
557.068	46974.94
557.268	46186.47
557.467	46149.61
557.667	46465
557.866	46436.33
558.065	46450.66
558.265	46016.49
558.464	46419.94
558.663	46512.1
558.863	45369.33
559.062	46319.59
559.261	45524.98
559.461	46067.69
559.66	45860.85
559.859	45914.09
560.058	45342.71
560.258	45662.19
560.457	45314.04
560.656	45934.57
560.855	45103.1
561.054	45826.03
561.253	45207.54
561.453	45414.39
561.652	45279.22
561.851	45610.99
562.05	45101.05
562.249	45219.83
562.448	45330.42
562.647	44863.49
562.846	44767.23
563.045	44943.36
563.244	44554.24
563.443	45099
563.642	44120.07
563.841	44527.62
564.04	44349.45
564.239	44726.27
564.438	44292.1
564.637	44410.89
564.836	44754.94
565.035	43814.93
565.234	44052.49
565.432	44036.11
565.631	44003.34
565.83	44328.97
566.029	43495.44
566.228	43874.32
566.427	43857.93
566.625	43323.41
566.824	43120.66
567.023	43855.89
567.222	42946.59
567.42	43956.24
567.619	43202.58
567.818	43606.03
568.016	43245.59
568.215	43202.58
568.414	42430.5
568.612	43208.73
568.811	42539.04
569.01	42926.11
569.208	42475.55
569.407	42901.53
569.605	42004.52
569.804	42711.07
570.002	42084.39
570.201	42377.25
570.4	41754.67
570.598	42020.91
570.797	42237.99
570.995	41889.84
571.193	41435.19
571.392	41928.75
571.59	41410.61
571.789	41580.59
571.987	41271.35
572.186	41363.51
572.384	41295.92
572.582	41203.77
572.781	41386.04
572.979	40366.15
573.177	41138.23
573.376	41611.31
573.574	40456.26
573.772	40771.64
573.971	40065.1
574.169	40546.37
574.367	40323.14
574.565	40327.24
574.763	40282.18
574.962	39991.37
575.16	39342.16
575.358	39888.97
575.556	39630.93
575.754	40376.39
575.952	39467.09
576.151	39553.1
576.349	39147.61
576.547	38887.51
576.745	39170.13
576.943	39217.24
577.141	38785.11
577.339	39151.7
577.537	38832.22
577.735	38760.54
577.933	38434.91
578.131	38168.68
578.329	38543.45
578.527	38248.55
578.725	37873.77
578.923	38295.65
579.121	38101.09
579.319	37605.48
579.516	38006.89
579.714	37994.6
579.912	37408.88
580.11	37521.52
580.308	37247.09
580.506	37404.78
580.704	36982.9
580.901	37097.59
581.099	36905.08
581.297	36794.49
581.495	36892.79
581.692	36884.6
581.89	36448.38
582.088	36829.3
582.285	36585.6
582.483	36409.47
582.681	36495.49
582.878	36108.42
583.076	35676.3
583.274	36034.69
583.471	35772.55
583.669	36200.58
583.866	35307.66
584.064	35555.47
584.262	35315.86
584.459	35700.87
584.657	35508.36
584.854	35553.42
585.052	34828.44
585.249	34941.08
585.447	34816.15
585.644	34615.45
585.841	34807.96
586.039	35002.52
586.236	34605.21
586.434	34300.06
586.631	33976.48
586.828	34318.5
587.026	34123.94
587.223	34291.87
587.42	34009.25
587.618	33906.85
587.815	33269.94
588.012	33689.77
588.21	33421.48
588.407	33904.81
588.604	33175.73
588.801	33171.63
588.999	33255.6
589.196	33040.56
589.393	33503.4
589.59	33013.94
589.787	32622.78
589.984	32755.89
590.182	32938.16
590.379	32487.61
590.576	32411.84
590.773	32524.47
590.97	32465.08
591.167	32239.81
591.364	32063.68
591.561	32198.85
591.758	31787.21
591.955	31918.28
592.152	31869.12
592.349	31473.87
592.546	31803.59
592.743	31946.95
592.94	31082.7
593.137	31520.97
593.334	31938.76
593.531	31000.79
593.727	31174.86
593.924	31252.69
594.121	30406.87
594.318	30902.48
594.515	30488.79
594.712	30689.49
594.908	30245.09
595.105	30658.77
595.302	30492.89
595.499	30664.92
595.696	30408.92
595.892	30318.81
596.089	30071.01
596.286	29919.46
596.482	29884.64
596.679	29755.62
596.876	29616.36
597.072	29706.47
597.269	29729
597.466	29298.92
597.662	29217
597.859	29083.89
598.055	29389.03
598.252	29376.75
598.448	29169.9
598.645	28907.76
598.841	28549.37
599.038	28891.38
599.234	28823.79
599.431	28743.92
599.627	28000.51
599.824	28502.26
600.02	28383.48
600.217	28541.18
600.413	27824.39
600.609	27959.55
600.806	27990.27
601.002	27980.03
601.198	27705.6
601.395	27588.87
601.591	27980.03
601.787	27670.79
601.984	27306.25
602.18	27697.41
602.376	27328.78
602.572	27119.88
602.769	27513.09
602.965	27105.55
603.161	27152.65
603.357	26839.31
603.553	26749.2
603.75	27074.83
603.946	26517.78
604.142	26741.01
604.338	26278.17
604.534	26439.96
604.73	26229.02
604.926	26282.27
605.122	26343.7
605.318	26130.72
605.514	26081.56
605.71	26001.69
605.906	25774.37
606.102	25784.61
606.298	25829.66
606.494	25911.58
606.69	25805.09
606.886	25569.57
607.082	25233.71
607.278	25649.44
607.474	25114.92
607.67	25444.65
607.866	25010.48
608.062	25350.44
608.257	24586.55
608.453	25119.02
608.649	24944.94
608.845	24873.26
609.041	24985.9
609.236	24750.38
609.432	24523.06
609.628	24856.88
609.824	24494.39
610.019	24379.7
610.215	24371.51
610.411	24531.25
610.606	24064.32
610.802	24410.42
610.998	24285.5
611.193	24135.99
611.389	23933.25
611.584	23816.51
611.78	23957.82
611.976	23861.57
612.171	23839.04
612.367	23740.74
612.562	23914.81
612.758	23327.05
612.953	23216.46
613.149	23750.98
613.344	23585.09
613.539	23617.86
613.735	23402.82
613.93	23599.43
614.126	23277.9
614.321	23435.59
614.517	23085.39
614.712	22933.84
614.907	22966.6
615.103	23048.52
615.298	22720.85
615.493	23134.54
615.688	22968.65
615.884	22976.84
616.079	22796.62
616.274	23150.92
616.47	22999.37
616.665	22759.76
616.86	22536.53
617.055	22427.99
617.25	22591.83
617.445	22696.27
617.641	22311.25
617.836	22280.53
618.031	22042.97
618.226	22225.24
618.421	21676.38
618.616	22114.65
618.811	21862.75
619.006	22241.62
619.201	21242.21
619.396	21797.21
619.591	21274.98
619.786	21584.23
619.981	21201.26
620.176	21315.94
620.371	20775.28
620.566	21199.21
620.761	20853.1
620.956	21260.65
621.151	20783.47
621.346	20885.87
621.541	20799.85
621.735	20812.14
621.93	20222.33
622.125	20506.99
622.32	20150.65
622.515	20224.37
622.709	20109.69
622.904	19935.61
623.099	20042.1
623.294	19933.56
623.488	19652.99
623.683	19548.54
623.878	19317.12
624.072	19317.12
624.267	19476.87
624.462	19153.29
624.656	19003.78
624.851	18825.61
625.046	18846.09
625.24	18928.01
625.435	18629.01
625.629	18416.02
625.824	18278.8
626.018	18524.56
626.213	17961.37
626.407	18274.71
626.602	17979.8
626.796	18205.08
626.991	17713.56
627.185	17973.66
627.38	17510.82
627.574	17631.65
627.768	17535.39
627.963	17346.98
628.157	17162.66
628.352	17004.97
628.546	17021.35
628.74	17297.83
628.935	16783.79
629.129	16837.03
629.323	16701.87
629.517	16699.82
629.712	16712.11
629.906	16554.41
630.1	16177.59
630.294	16306.61
630.489	16306.61
630.683	16058.81
630.877	16107.96
631.071	16071.09
631.265	16105.91
631.459	15995.32
631.653	15542.72
631.848	15729.08
632.042	15557.05
632.236	15608.25
632.43	15485.37
632.624	15413.7
632.818	15196.61
633.012	15129.03
633.206	15243.71
633.4	15163.84
633.594	14754.25
633.788	14942.66
633.982	14893.51
634.176	14731.72
634.369	14643.66
634.563	14688.71
634.757	14406.09
634.951	14328.27
635.145	14518.73
635.339	14520.78
635.533	14240.21
635.726	14041.56
635.92	13953.49
636.114	14033.36
636.308	14006.74
636.501	13965.78
636.695	13660.63
636.889	13771.22
637.083	13472.22
637.276	13621.72
637.47	13371.87
637.664	13306.34
637.857	13425.12
638.051	13470.17
638.244	13380.06
638.438	12976.61
638.632	13122.02
638.825	12952.04
639.019	12790.25
639.212	12753.38
639.406	12814.82
639.599	12804.58
639.793	12747.24
639.986	12378.61
640.18	12577.26
640.373	12626.41
640.567	12263.92
640.76	12362.22
640.954	12257.78
641.147	12106.23
641.34	12268.02
641.534	12069.36
641.727	11948.53
641.92	11893.24
642.114	11786.74
642.307	11971.06
642.5	11753.98
642.694	11561.47
642.887	11450.88
643.08	11663.86
643.273	11260.41
643.467	11444.73
643.66	11338.24
643.853	11063.81
644.046	11088.39
644.239	11239.94
644.432	11043.33
644.626	11024.9
644.819	10961.41
645.012	10869.25
645.205	10856.96
645.398	10867.2
645.591	10635.78
645.784	10488.33
645.977	10527.24
646.17	10486.28
646.363	10336.78
646.556	10218
646.749	10220.05
646.942	10103.31
647.135	10162.7
647.328	10185.23
647.521	9996.82
647.714	9982.48
647.907	9929.24
648.099	9765.4
648.292	9927.19
648.485	9955.86
648.678	9767.45
648.871	9689.62
649.064	9566.74
649.256	9732.63
649.449	9626.14
649.642	9568.79
649.835	9617.94
650.027	9286.17
650.22	9169.44
650.413	9175.58
650.605	9128.48
650.798	9044.51
650.991	9202.21
651.183	9087.52
651.376	9019.94
651.568	9007.65
651.761	9003.55
651.954	8696.36
652.146	8725.03
652.339	8962.59
652.531	8651.3
652.724	8636.97
652.916	8358.44
653.109	8583.72
653.301	8606.25
653.494	8542.76
653.686	8243.76
653.879	8442.41
654.071	8294.96
654.263	8370.73
654.456	8372.78
654.648	8200.75
654.84	8092.21
655.033	8018.48
655.225	8043.06
655.417	8006.19
655.61	7985.71
655.802	7787.06
655.994	7805.49
656.186	7758.39
656.379	7748.15
656.571	7631.41
656.763	7658.04
656.955	7621.17
657.148	7830.07
657.34	7486.01
657.532	7443
657.724	7340.6
657.916	7408.19
658.108	7246.4
658.3	7330.36
658.492	7365.18
658.684	7146.05
658.876	7250.49
659.068	7129.66
659.26	7031.36
659.452	7057.98
659.644	6996.54
659.836	7033.41
660.028	7021.12
660.22	6826.56
660.412	6816.32
660.604	6781.51
660.796	6849.09
660.988	6736.45
661.18	6484.55
661.372	6574.66
661.563	6791.75
661.755	6419.02
661.947	6419.02
662.139	6578.76
662.331	6324.81
662.522	6527.56
662.714	6382.15
662.906	6359.63
663.097	6382.15
663.289	6203.98
663.481	6134.35
663.673	6275.66
663.864	6179.4
664.056	6105.68
664.247	6093.39
664.439	5943.89
664.631	6101.58
664.822	5874.26
665.014	6150.73
665.205	5950.03
665.397	5915.22
665.588	5800.53
665.78	5804.63
665.971	5812.82
666.163	5823.06
666.354	5839.44
666.546	5710.42
666.737	5728.85
666.929	5804.63
667.12	5542.49
667.311	5470.81
667.503	5644.88
667.694	5532.25
667.885	5487.19
668.077	5517.91
668.268	5384.79
668.459	5435.99
668.651	5311.07
668.842	5229.15
669.033	5339.74
669.224	5231.19
669.416	5321.31
669.607	5196.38
669.798	5304.92
669.989	5098.08
670.18	5204.57
670.371	5202.52
670.563	5141.08
670.754	5143.13
670.945	5114.46
671.136	5030.49
671.327	5098.08
671.518	4981.34
671.709	5106.27
671.9	5075.55
672.091	4803.17
672.282	4848.22
672.473	4807.27
672.664	4840.03
672.855	4749.92
673.046	4776.55
673.237	4561.51
673.428	4706.91
673.619	4559.46
673.809	4788.83
674	4760.16
674.191	4686.44
674.382	4682.34
674.573	4559.46
674.764	4573.8
674.954	4700.77
675.145	4596.32
675.336	4629.09
675.527	4461.16
675.717	4606.56
675.908	4438.63
676.099	4455.01
676.289	4485.73
676.48	4330.09
676.671	4457.06
676.861	4364.9
677.052	4459.11
677.243	4346.47
677.433	4321.9
677.624	4264.55
677.814	4407.91
678.005	4233.83
678.195	4325.99
678.386	4268.65
678.576	4369
678.767	4254.31
678.957	4178.54
679.148	4225.64
679.338	4117.1
679.529	4235.88
679.719	4022.89
679.909	4086.38
680.1	4076.14
680.29	3967.6
680.481	3947.12
680.671	3943.02
680.861	3920.49
681.052	4076.14
681.242	3977.84
681.432	3943.02
681.622	3842.67
681.813	3744.37
682.003	3979.89
682.193	3883.63
682.383	3871.34
682.573	3793.52
682.764	3785.33
682.954	3826.29
683.144	3863.15
683.334	3807.86
683.524	3830.38
683.714	3795.57
683.904	3713.65
684.094	3793.52
684.284	3662.45
684.474	3879.54
684.664	3723.89
684.854	3746.42
685.044	3695.22
685.234	3738.23
685.424	3662.45
685.614	3613.3
685.804	3580.53
685.994	3707.51
686.184	3684.98
686.374	3539.57
686.564	3582.58
686.753	3631.73
686.943	3564.15
687.133	3525.24
687.323	3656.31
687.513	3584.63
687.702	3506.81
687.892	3549.81
688.082	3607.16
688.272	3431.03
688.461	3580.53
688.651	3551.86
688.841	3443.32
689.03	3369.59
689.22	3406.45
689.41	3373.69
689.599	3576.44
689.789	3379.83
689.979	3351.16
690.168	3293.82
690.358	3383.93
690.547	3351.16
690.737	3273.34
690.926	3461.75
691.116	3275.38
691.305	3351.16
691.495	3412.6
691.684	3388.02
691.874	3347.06
692.063	3324.54
692.252	3474.04
692.442	3340.92
692.631	3263.1
692.82	3220.09
693.01	3295.86
693.199	3203.71
693.388	3222.14
693.578	3267.19
693.767	3232.38
693.956	3273.34
694.146	3293.82
694.335	3164.79
694.524	3238.52
694.713	3238.52
694.902	3195.51
695.092	3146.36
695.281	3269.24
695.47	3125.88
695.659	3052.16
695.848	3017.34
696.037	3099.26
696.226	3228.28
696.415	3060.35
696.604	3097.21
696.793	3080.83
696.982	3125.88
697.171	3121.79
697.36	3248.76
697.549	2974.33
697.738	3213.95
697.927	3113.6
698.116	3107.45
698.305	3117.69
698.494	3101.31
698.683	3064.44
698.872	3078.78
699.061	2900.61
699.25	2884.22
699.438	2974.33
699.627	3054.2
699.816	2988.67
700.005	2964.09
700.193	3035.77
700.382	2962.05
700.571	3060.35
700.76	2994.81
700.948	3015.29
701.137	3025.53
701.326	2996.86
701.514	2953.85
701.703	3007.1
701.892	2949.76
702.08	2986.62
702.269	2964.09
702.457	2871.93
702.646	2953.85
702.834	2931.33
703.023	2865.79
703.212	2794.11
703.4	2910.85
703.589	2792.06
703.777	2886.27
703.965	2728.58
704.154	2777.73
704.342	2728.58
704.531	2908.8
704.719	2833.02
704.907	2679.43
705.096	2763.39
705.284	2824.83
705.472	2833.02
705.661	2785.92
705.849	2663.04
706.037	2747.01
706.226	2716.29
706.414	2761.34
706.602	2773.63
706.79	2665.09
706.979	2679.43
707.167	2769.54
707.355	2769.54
707.543	2708.1
707.731	2615.94
707.919	2724.48
708.107	2523.78
708.296	2687.62
708.484	2591.36
708.672	2716.29
708.86	2607.75
709.048	2646.66
709.236	2548.36
709.424	2519.68
709.612	2550.4
709.8	2624.13
709.988	2650.75
710.176	2495.11
710.364	2491.01
710.551	2480.77
710.739	2544.26
710.927	2509.44
711.115	2613.89
711.303	2505.35
711.491	2511.49
711.679	2454.15
711.866	2409.09
712.054	2499.2
712.242	2400.9
712.43	2431.62
712.617	2390.66
712.805	2484.87
712.993	2394.76
713.181	2392.71
713.368	2335.37
713.556	2349.7
713.744	2384.52
713.931	2314.89
714.119	2394.76
714.306	2323.08
714.494	2286.22
714.682	2253.45
714.869	2251.4
715.057	2329.22
715.244	2267.78
715.432	2347.65
715.619	2214.54
715.807	2308.74
715.994	2288.26
716.182	2275.98
716.369	2265.74
716.556	2200.2
716.744	2216.58
716.931	2300.55
717.119	2153.1
717.306	2151.05
717.493	2091.66
717.681	2101.9
717.868	2187.91
718.055	2196.11
718.242	2050.7
718.43	2097.8
718.617	2026.12
718.804	2157.19
718.991	2116.23
719.179	2050.7
719.366	2052.75
719.553	2091.66
719.74	2056.84
719.927	2101.9
720.114	1933.97
720.301	1942.16
720.488	2056.84
720.676	2007.69
720.863	2017.93
721.05	1985.16
721.237	2015.88
721.424	1931.92
721.611	1995.4
721.798	1950.35
721.985	1905.29
722.172	1958.54
722.358	1927.82
722.545	1936.01
722.732	1843.85
722.919	1839.76
723.106	1925.77
723.293	1927.82
723.48	1835.66
723.667	1882.77
723.853	1876.62
724.04	1882.77
724.227	1729.17
724.414	1938.06
724.6	1864.33
724.787	1876.62
724.974	1831.57
725.161	1778.32
725.347	1710.74
725.534	1819.28
725.72	1704.59
725.907	1788.56
726.094	1872.53
726.28	1704.59
726.467	1626.77
726.653	1792.66
726.84	1667.73
727.027	1786.51
727.213	1759.89
727.4	1749.65
727.586	1696.4
727.773	1749.65
727.959	1745.55
728.145	1663.63
728.332	1616.53
728.518	1659.54
728.705	1700.5
728.891	1708.69
729.077	1606.29
729.264	1591.95
729.45	1710.74
729.636	1667.73
729.823	1639.06
730.009	1630.87
730.195	1581.71
730.382	1718.93
730.568	1565.33
730.754	1622.67
730.94	1510.04
731.126	1600.15
731.313	1643.15
731.499	1544.85
731.685	1567.38
731.871	1542.8
732.057	1557.14
732.243	1487.51
732.429	1655.44
732.615	1530.52
732.801	1526.42
732.987	1518.23
733.173	1548.95
733.359	1522.32
733.545	1438.36
733.731	1520.28
733.917	1528.47
734.103	1534.61
734.289	1471.12
734.475	1477.27
734.661	1516.18
734.847	1471.12
735.033	1526.42
735.219	1436.31
735.404	1372.82
735.59	1413.78
735.776	1446.55
735.962	1440.4
736.148	1485.46
736.333	1405.59
736.519	1405.59
736.705	1497.75
736.89	1438.36
737.076	1417.88
737.262	1362.58
737.447	1370.77
737.633	1434.26
737.819	1387.16
738.004	1331.86
738.19	1446.55
738.375	1342.1
738.561	1442.45
738.747	1366.68
738.932	1362.58
739.118	1495.7
739.303	1360.53
739.489	1307.29
739.674	1286.81
739.859	1284.76
740.045	1297.05
740.23	1323.67
740.416	1276.57
740.601	1329.81
740.786	1290.9
740.972	1278.62
741.157	1282.71
741.342	1200.79
741.528	1225.37
741.713	1223.32
741.898	1360.53
742.084	1266.33
742.269	1266.33
742.454	1245.85
742.639	1202.84
742.824	1198.74
743.01	1231.51
743.195	1299.09
743.38	1180.31
743.565	1196.7
743.75	1188.5
743.935	1030.81
744.12	1192.6
744.305	1182.36
744.49	1278.62
744.675	1149.59
744.86	1116.83
745.045	1270.42
745.23	1096.35
745.415	1165.98
745.6	1149.59
745.785	1100.44
745.97	1100.44
746.155	1188.5
746.34	1120.92
746.525	1008.28
746.71	1159.83
746.895	1135.26
747.079	1047.19
747.264	1133.21
747.449	1069.72
747.634	1016.48
747.819	1129.11
748.003	1004.19
748.188	1000.09
748.373	1073.82
748.557	1051.29
748.742	979.61
748.927	1032.86
749.111	983.71
749.296	897.69
749.481	973.47
749.665	1043.1
749.85	989.85
750.034	1102.49
750.219	987.8
750.404	948.89
750.588	922.27
750.773	955.04
750.957	952.99
751.141	871.07
751.326	957.08
751.51	877.21
751.695	895.65
751.879	959.13
752.064	828.06
752.248	922.27
752.432	909.98
752.617	871.07
752.801	897.69
752.985	948.89
753.17	959.13
753.354	848.54
753.538	811.68
753.722	862.88
753.907	758.43
754.091	807.58
754.275	826.01
754.459	848.54
754.643	828.06
754.828	805.53
755.012	813.73
755.196	744.1
755.38	823.97
755.564	850.59
755.748	832.16
755.932	756.38
756.116	688.8
756.3	721.57
756.484	729.76
756.668	768.67
756.852	729.76
757.036	758.43
757.22	723.62
757.404	694.94
757.588	660.13
757.772	754.34
757.956	715.42
758.14	690.85
758.323	694.94
758.507	688.8
758.691	633.51
758.875	762.53
759.059	729.76
759.242	727.71
759.426	713.38
759.61	647.84
759.794	676.51
759.977	770.72
760.161	807.58
760.345	594.59
760.528	688.8
760.712	649.89
760.895	688.8
761.079	594.59
761.263	627.36
761.446	705.18
761.63	725.66
761.813	721.57
761.997	670.37
762.18	617.12
762.364	602.79
762.547	623.27
762.731	567.97
762.914	584.35
763.098	674.46
763.281	559.78
763.464	567.97
763.648	641.7
763.831	598.69
764.015	555.68
764.198	633.51
764.381	570.02
764.564	641.7
764.748	551.59
764.931	598.69
765.114	660.13
765.297	696.99
765.481	524.96
765.664	600.74
765.847	557.73
766.03	619.17
766.213	555.68
766.397	590.5
766.58	582.31
766.763	510.63
766.946	535.2
767.129	613.03
767.312	572.07
767.495	541.35
767.678	520.87
767.861	563.87
768.044	580.26
768.227	559.78
768.41	549.54
768.593	508.58
768.776	574.11
768.959	543.39
769.142	598.69
769.324	600.74
769.507	510.63
769.69	565.92
769.873	574.11
770.056	520.87
770.239	529.06
770.421	541.35
770.604	590.5
770.787	551.59
770.97	488.1
771.152	606.88
771.335	567.97
771.518	565.92
771.7	545.44
771.883	488.1
772.066	533.15
772.248	479.91
772.431	475.81
772.613	613.03
772.796	576.16
772.978	467.62
773.161	510.63
773.343	529.06
773.526	455.33
773.708	492.2
773.891	436.9
774.073	453.28
774.256	633.51
774.438	541.35
774.621	469.67
774.803	492.2
774.985	455.33
775.168	549.54
775.35	512.67
775.532	500.39
775.715	516.77
775.897	477.86
776.079	469.67
776.261	477.86
776.444	537.25
776.626	516.77
776.808	387.75
776.99	451.24
777.173	469.67
777.355	449.19
777.537	500.39
777.719	412.32
777.901	490.15
778.083	379.56
778.265	434.85
778.447	457.38
778.629	361.13
778.811	451.24
778.993	451.24
779.175	492.2
779.357	338.6
779.539	363.17
779.721	332.45
779.903	443.04
780.085	414.37
780.267	365.22
780.449	369.32
780.631	434.85
780.812	344.74
780.994	361.13
781.176	336.55
781.358	295.59
781.54	357.03
781.721	377.51
781.903	389.8
782.085	381.6
782.267	336.55
782.448	352.93
782.63	311.97
782.812	340.65
782.993	391.84
783.175	338.6
783.357	340.65
783.538	352.93
783.72	359.08
783.901	309.93
784.083	332.45
784.264	352.93
784.446	303.78
784.627	340.65
784.809	244.39
784.99	365.22
785.172	326.31
785.353	273.06
785.535	289.45
785.716	309.93
785.897	254.63
786.079	340.65
786.26	330.41
786.441	266.92
786.623	234.15
786.804	320.17
786.985	326.31
787.167	295.59
787.348	316.07
787.529	262.82
787.71	301.73
787.891	291.49
788.073	242.34
788.254	266.92
788.435	283.3
788.616	260.77
788.797	197.29
788.978	215.72
789.159	219.82
789.34	256.68
789.522	230.06
789.703	238.25
789.884	268.97
790.065	223.91
790.246	279.21
790.427	219.82
790.607	225.96
790.788	242.34
790.969	230.06
791.15	246.44
791.331	271.01
791.512	289.45
791.693	223.91
791.874	275.11
792.054	205.48
792.235	305.83
792.416	254.63
792.597	201.38
792.778	146.09
792.958	262.82
793.139	260.77
793.32	189.1
793.5	205.48
793.681	264.87
793.862	180.9
794.042	164.52
794.223	238.25
794.404	268.97
794.584	150.18
794.765	189.1
794.945	189.1
795.126	250.53
795.306	178.86
795.487	180.9
795.667	148.14
795.848	258.73
796.028	199.34
796.209	121.51
796.389	150.18
796.57	234.15
796.75	141.99
796.93	180.9
797.111	123.56
797.291	205.48
797.471	176.81
797.652	141.99
797.832	164.52
798.012	201.38
798.192	180.9
798.373	139.94
798.553	187.05
798.733	273.06
798.913	133.8
799.093	141.99
799.274	205.48
799.454	150.18
799.634	164.52
799.814	148.14
799.994	168.62
800.174	168.62
800.354	152.23
800.534	156.33
800.714	156.33
800.894	111.27
801.074	45.74
801.254	131.75
801.434	215.72
801.614	180.9
801.794	119.46
801.974	303.78
802.154	101.03
802.334	215.72
802.514	117.42
802.693	158.38
802.873	148.14
803.053	246.44
803.233	135.85
803.413	98.99
803.592	141.99
803.772	111.27
803.952	146.09
804.131	127.66
804.311	158.38
804.491	193.19
804.67	131.75
804.85	150.18
805.03	172.71
805.209	158.38
805.389	113.32
805.568	115.37
805.748	211.62
805.928	109.23
806.107	131.75
806.287	141.99
806.466	127.66
806.646	139.94
806.825	103.08
807.004	76.46
807.184	129.7
807.363	90.79
807.543	121.51
807.722	117.42
807.901	193.19
808.081	197.29
808.26	115.37
808.439	90.79
808.619	94.89
808.798	131.75
808.977	160.42
809.156	131.75
809.336	105.13
809.515	141.99
809.694	53.93
809.873	115.37
810.052	133.8
810.231	94.89
810.411	162.47
810.59	166.57
810.769	111.27
810.948	172.71
811.127	70.31
811.306	41.64
811.485	86.7
811.664	90.79
811.843	131.75
812.022	109.23
812.201	117.42
812.38	84.65
812.559	37.55
812.737	109.23
812.916	78.51
813.095	37.55
813.274	51.88
813.453	127.66
813.632	72.36
813.811	98.99
813.989	72.36
814.168	117.42
814.347	119.46
814.526	121.51
814.704	133.8
814.883	45.74
815.062	86.7
815.24	168.62
815.419	55.98
815.598	117.42
815.776	127.66
815.955	78.51
816.133	90.79
816.312	92.84
816.49	58.03
816.669	121.51
816.847	41.64
817.026	21.16
817.204	17.07
817.383	115.37
817.561	39.59
817.74	70.31
817.918	37.55
818.097	51.88
818.275	62.12
818.453	152.23
818.632	70.31
818.81	-1.37
818.988	76.46
819.167	131.75
819.345	86.7
819.523	-5.46
819.701	58.03
819.879	45.74
820.058	78.51
820.236	123.56
820.414	117.42
820.592	76.46
820.77	39.59
820.948	33.45
821.127	45.74
821.305	150.18
821.483	72.36
821.661	19.11
821.839	103.08
822.017	68.27
822.195	51.88
822.373	125.61
822.551	37.55
822.729	53.93
822.907	49.83
823.085	103.08
823.262	98.99
823.44	-54.61
823.618	49.83
823.796	72.36
823.974	53.93
824.152	55.98
824.329	82.6
824.507	41.64
824.685	121.51
824.863	64.17
825.04	33.45
825.218	127.66
825.396	19.11
825.574	64.17
825.751	98.99
825.929	25.26
826.107	19.11
826.284	43.69
826.462	53.93
826.639	66.22
826.817	-3.41
826.994	10.92
827.172	0.68
827.349	113.32
827.527	133.8
827.704	60.07
827.882	86.7
828.059	119.46
828.237	6.83
828.414	76.46
828.591	107.18
828.769	-5.46
828.946	70.31
829.124	90.79
829.301	92.84
829.478	58.03
829.655	109.23
829.833	70.31
830.01	49.83
830.187	43.69
830.364	35.5
830.542	58.03
830.719	-40.28
830.896	6.83
831.073	58.03
831.25	58.03
831.427	35.5
831.604	17.07
831.782	0.68
831.959	60.07
832.136	49.83
832.313	72.36
832.49	92.84
832.667	88.75
832.844	53.93
833.021	41.64
833.198	49.83
833.374	-46.42
833.551	33.45
833.728	68.27
833.905	92.84
834.082	49.83
834.259	31.4
834.436	60.07
834.612	51.88
834.789	27.31
834.966	41.64
835.143	117.42
835.319	90.79
835.496	12.97
835.673	49.83
835.85	86.7
836.026	2.73
836.203	4.78
836.38	0.68
836.556	19.11
836.733	27.31
836.909	101.03
837.086	-66.9
837.262	64.17
837.439	31.4
837.616	37.55
837.792	0.68
837.968	12.97
838.145	-5.46
838.321	41.64
838.498	15.02
838.674	0.68
838.851	105.13
839.027	29.35
839.203	35.5
839.38	64.17
839.556	58.03
839.732	107.18
839.909	25.26
840.085	25.26
840.261	-15.7
840.437	45.74
840.614	60.07
840.79	29.35
840.966	12.97
841.142	39.59
841.318	27.31
841.494	98.99
841.671	51.88
841.847	-9.56
842.023	41.64
842.199	15.02
842.375	25.26
842.551	39.59
842.727	29.35
842.903	-5.46
843.079	58.03
843.255	-15.7
843.431	10.92
843.607	70.31
843.783	-30.04
843.959	27.31
844.134	0.68
844.31	66.22
844.486	58.03
844.662	-40.28
844.838	19.11
845.013	43.69
845.189	27.31
845.365	33.45
845.541	21.16
845.716	0.68
845.892	19.11
846.068	76.46
846.244	-30.04
846.419	10.92
846.595	21.16
846.77	47.79
846.946	-11.61
847.122	-3.41
847.297	-68.95
847.473	125.61
847.648	-15.7
847.824	-21.84
847.999	31.4
848.175	25.26
848.35	-3.41
848.526	-9.56
848.701	35.5
848.876	41.64
849.052	58.03
849.227	68.27
849.403	51.88
849.578	74.41
849.753	0.68
849.929	4.78
850.104	-23.89
850.279	80.55
850.454	17.07
850.63	33.45
850.805	55.98
850.98	0.68
851.155	-19.8
851.33	4.78
851.505	19.11
851.681	70.31
851.856	-19.8
852.031	2.73
852.206	10.92
852.381	37.55
852.556	0.68
852.731	4.78
852.906	12.97
853.081	43.69
853.256	29.35
853.431	17.07
853.606	86.7
853.781	-13.65
853.956	2.73
854.131	-23.89
854.305	23.21
854.48	70.31
854.655	72.36
854.83	74.41
855.005	4.78
855.18	19.11
855.354	-62.8
855.529	8.87
855.704	8.87
855.879	107.18
856.053	-38.23
856.228	-7.51
856.403	49.83
856.577	8.87
856.752	62.12
856.926	37.55
857.101	-30.04
857.276	-23.89
857.45	17.07
857.625	21.16
857.799	64.17
857.974	49.83
858.148	-52.56
858.323	-3.41
858.497	-42.32
858.672	70.31
858.846	0.68
859.02	35.5
859.195	-13.65
859.369	4.78
859.543	-23.89
859.718	-68.95
859.892	-19.8
860.066	-13.65
860.241	33.45
860.415	0.68
860.589	-3.41
860.763	41.64
860.938	29.35
861.112	-19.8
861.286	33.45
861.46	-7.51
861.634	60.07
861.808	19.11
861.982	12.97
862.157	-40.28
862.331	51.88
862.505	49.83
862.679	45.74
862.853	-32.08
863.027	27.31
863.201	27.31
863.375	12.97
863.549	15.02
863.722	23.21
863.896	31.4
864.07	-27.99
864.244	45.74
864.418	-15.7
864.592	49.83
864.766	43.69
864.939	-40.28
865.113	29.35
865.287	-58.71
865.461	10.92
865.634	-32.08
865.808	-7.51
865.982	-23.89
866.156	19.11
866.329	-27.99
866.503	43.69
866.676	-19.8
866.85	-107.86
867.024	-21.84
867.197	12.97
867.371	-50.52
867.544	0.68
867.718	-81.24
867.891	21.16
868.065	-36.18
868.238	-27.99
868.412	49.83
868.585	37.55
868.759	-7.51
868.932	-54.61
869.105	25.26
869.279	19.11
869.452	-73.04
869.625	-36.18
869.799	-23.89
869.972	70.31
870.145	-73.04
870.319	-7.51
870.492	92.84
870.665	21.16
870.838	0.68
871.011	-1.37
871.185	-9.56
871.358	-109.91
871.531	15.02
871.704	-7.51
871.877	-13.65
872.05	43.69
872.223	-34.13
872.396	-11.61
872.569	-36.18
872.742	4.78
872.915	19.11
873.088	-11.61
873.261	-32.08
873.434	-30.04
873.607	-23.89
873.78	0.68
873.953	53.93
874.126	-58.71
874.299	-15.7
874.471	-15.7
874.644	41.64
874.817	10.92
874.99	6.83
875.163	-73.04
875.335	12.97
875.508	-5.46
875.681	-34.13
875.853	-9.56
876.026	31.4
876.199	6.83
876.371	-7.51
876.544	-11.61
876.717	33.45
876.889	31.4
877.062	0.68
877.234	-21.84
877.407	-5.46
877.579	31.4
877.752	41.64
877.924	27.31
878.097	-73.04
878.269	2.73
878.442	8.87
878.614	-23.89
878.786	107.18
878.959	2.73
879.131	27.31
879.303	27.31
879.476	2.73
879.648	-36.18
879.82	86.7
879.993	-50.52
880.165	-48.47
880.337	-23.89
880.509	8.87
880.681	-1.37
880.854	-46.42
881.026	10.92
881.198	82.6
881.37	-1.37
881.542	66.22
881.714	33.45
881.886	15.02
882.058	-15.7
882.23	33.45
882.402	-71
882.574	-19.8
882.746	-15.7
882.918	-5.46
883.09	66.22
883.262	15.02
883.434	-11.61
883.606	19.11
883.778	17.07
883.95	6.83
884.122	8.87
884.293	39.59
884.465	4.78
884.637	8.87
884.809	-5.46
884.98	70.31
885.152	-5.46
885.324	-23.89
885.496	21.16
885.667	-64.85
885.839	-42.32
886.011	-7.51
886.182	0.68
886.354	-5.46
886.525	-15.7
886.697	25.26
886.869	84.65
887.04	33.45
887.212	-40.28
887.383	55.98
887.555	-13.65
887.726	-44.37
887.897	-46.42
888.069	-13.65
888.24	-19.8
888.412	25.26
888.583	4.78
888.754	33.45
888.926	39.59
889.097	62.12
889.268	17.07
889.44	-32.08
889.611	-7.51
889.782	15.02
889.953	-7.51
890.125	-23.89
890.296	-81.24
890.467	-3.41
890.638	68.27
890.809	43.69
890.98	0.68
891.151	25.26
891.323	31.4
891.494	4.78
891.665	-15.7
891.836	-3.41
892.007	0.68
892.178	-21.84
892.349	-71
892.52	17.07
892.691	-54.61
892.862	-11.61
893.032	-19.8
893.203	-23.89
893.374	-27.99
893.545	47.79
893.716	31.4
893.887	6.83
894.057	-48.47
894.228	21.16
894.399	4.78
894.57	8.87
894.74	-21.84
894.911	-81.24
895.082	58.03
895.253	80.55
895.423	-38.23
895.594	21.16
895.764	17.07
895.935	-9.56
896.106	27.31
896.276	19.11
896.447	-91.48
896.617	-71
896.788	25.26
896.958	-7.51
897.129	4.78
897.299	31.4
897.47	-46.42
897.64	-50.52
897.81	-3.41
897.981	-44.37
898.151	53.93
898.322	17.07
898.492	33.45
898.662	62.12
898.832	2.73
899.003	-68.95
899.173	-5.46
899.343	-46.42
899.513	41.64
