Data from USB4F104151__276__14-02-22-159.txt Node

Date: Thu Mar 13 14:02:22 EDT 2025
User: louis
Spectrometer: USB4F10415
Trigger mode: 4
Integration Time (sec): 1.000000E-2
Scans to average: 1
Electric dark correction enabled: true
Nonlinearity correction enabled: false
Boxcar width: 0
XAxis mode: Wavelengths
Number of Pixels in Spectrum: 3648
>>>>>Begin Spectral Data<<<<<
178.204	-0.34
178.424	-0.34
178.644	-0.34
178.864	28.33
179.084	-26.96
179.304	-16.73
179.524	42.67
179.744	-39.25
179.964	-39.25
180.184	3.75
180.404	57
180.624	-31.06
180.844	5.8
181.064	-22.87
181.283	9.9
181.503	26.28
181.723	3.75
181.943	16.04
182.163	67.24
182.383	52.91
182.602	67.24
182.822	-18.77
183.042	13.99
183.262	79.53
183.482	-14.68
183.701	5.8
183.921	-47.44
184.141	-41.3
184.361	24.23
184.58	61.1
184.8	28.33
185.02	3.75
185.239	-4.44
185.459	26.28
185.679	36.52
185.898	-2.39
186.118	54.95
186.338	-22.87
186.557	83.63
186.777	9.9
186.997	59.05
187.216	-57.68
187.436	-4.44
187.655	16.04
187.875	-10.58
188.095	73.39
188.314	26.28
188.534	20.14
188.753	9.9
188.973	65.19
189.192	-10.58
189.412	11.95
189.631	69.29
189.851	73.39
190.07	9.9
190.29	9.9
190.509	22.19
190.729	-51.54
190.948	18.09
191.168	89.77
191.387	73.39
191.607	-10.58
191.826	87.72
192.045	40.62
192.265	16.04
192.484	-39.25
192.704	-4.44
192.923	-72.02
193.142	22.19
193.362	38.57
193.581	112.3
193.8	73.39
194.02	9.9
194.239	50.86
194.458	44.71
194.678	9.9
194.897	22.19
195.116	42.67
195.335	26.28
195.555	-12.63
195.774	-14.68
195.993	30.38
196.212	30.38
196.432	-24.92
196.651	52.91
196.87	26.28
197.089	83.63
197.308	16.04
197.528	75.43
197.747	-22.87
197.966	-37.2
198.185	59.05
198.404	40.62
198.623	61.1
198.842	65.19
199.062	11.95
199.281	-8.53
199.5	-18.77
199.719	20.14
199.938	59.05
200.157	26.28
200.376	34.47
200.595	40.62
200.814	36.52
201.033	71.34
201.252	9.9
201.471	44.71
201.69	-6.49
201.909	13.99
202.128	89.77
202.347	59.05
202.566	38.57
202.785	1.71
203.004	5.8
203.223	38.57
203.442	81.58
203.661	-10.58
203.879	-16.73
204.098	1.71
204.317	18.09
204.536	-31.06
204.755	50.86
204.974	-22.87
205.193	-20.82
205.411	-6.49
205.63	50.86
205.849	73.39
206.068	20.14
206.287	38.57
206.505	38.57
206.724	-6.49
206.943	34.47
207.162	38.57
207.381	-20.82
207.599	18.09
207.818	22.19
208.037	44.71
208.255	-51.54
208.474	-8.53
208.693	24.23
208.911	46.76
209.13	16.04
209.349	-6.49
209.567	1.71
209.786	20.14
210.005	5.8
210.223	-47.44
210.442	-39.25
210.661	1.71
210.879	42.67
211.098	-20.82
211.316	61.1
211.535	-6.49
211.753	22.19
211.972	20.14
212.191	97.96
212.409	38.57
212.628	-24.92
212.846	40.62
213.065	26.28
213.283	104.11
213.502	-39.25
213.72	36.52
213.938	52.91
214.157	-0.34
214.375	24.23
214.594	11.95
214.812	28.33
215.031	-35.16
215.249	-10.58
215.467	-31.06
215.686	50.86
215.904	18.09
216.122	26.28
216.341	52.91
216.559	69.29
216.778	77.48
216.996	-43.35
217.214	46.76
217.432	-14.68
217.651	18.09
217.869	24.23
218.087	-49.49
218.306	3.75
218.524	42.67
218.742	5.8
218.96	22.19
219.179	36.52
219.397	42.67
219.615	61.1
219.833	22.19
220.051	63.15
220.27	18.09
220.488	71.34
220.706	3.75
220.924	26.28
221.142	-4.44
221.36	-12.63
221.578	22.19
221.796	30.38
222.015	77.48
222.233	42.67
222.451	-47.44
222.669	36.52
222.887	26.28
223.105	13.99
223.323	38.57
223.541	-49.49
223.759	-8.53
223.977	38.57
224.195	108.2
224.413	-16.73
224.631	32.43
224.849	18.09
225.067	22.19
225.285	34.47
225.503	108.2
225.721	22.19
225.939	-4.44
226.157	-14.68
226.375	42.67
226.592	-35.16
226.81	61.1
227.028	9.9
227.246	50.86
227.464	-4.44
227.682	22.19
227.9	-51.54
228.117	11.95
228.335	38.57
228.553	18.09
228.771	-10.58
228.989	44.71
229.206	44.71
229.424	-12.63
229.642	-14.68
229.86	9.9
230.077	-12.63
230.295	46.76
230.513	20.14
230.731	-29.01
230.948	-4.44
231.166	79.53
231.384	77.48
231.601	-10.58
231.819	36.52
232.037	16.04
232.254	-55.64
232.472	32.43
232.689	-29.01
232.907	20.14
233.125	-18.77
233.342	16.04
233.56	-55.64
233.777	81.58
233.995	1.71
234.213	52.91
234.43	-8.53
234.648	34.47
234.865	-24.92
235.083	102.06
235.3	9.9
235.518	-22.87
235.735	-2.39
235.953	-20.82
236.17	-10.58
236.388	83.63
236.605	-31.06
236.822	22.19
237.04	46.76
237.257	67.24
237.475	-31.06
237.692	-12.63
237.909	3.75
238.127	-2.39
238.344	61.1
238.562	44.71
238.779	-78.16
238.996	11.95
239.214	22.19
239.431	18.09
239.648	46.76
239.865	9.9
240.083	16.04
240.3	65.19
240.517	77.48
240.735	57
240.952	-45.4
241.169	-29.01
241.386	63.15
241.603	-4.44
241.821	-35.16
242.038	-16.73
242.255	-31.06
242.472	52.91
242.689	28.33
242.907	71.34
243.124	18.09
243.341	9.9
243.558	-10.58
243.775	18.09
243.992	-18.77
244.209	-45.4
244.426	34.47
244.643	42.67
244.86	59.05
245.078	54.95
245.295	48.81
245.512	11.95
245.729	-2.39
245.946	-16.73
246.163	-14.68
246.38	59.05
246.597	-82.26
246.814	34.47
247.031	3.75
247.248	73.39
247.464	-18.77
247.681	22.19
247.898	118.44
248.115	30.38
248.332	61.1
248.549	16.04
248.766	-33.11
248.983	50.86
249.2	38.57
249.417	42.67
249.633	-29.01
249.85	26.28
250.067	7.85
250.284	42.67
250.501	22.19
250.717	38.57
250.934	-29.01
251.151	16.04
251.368	46.76
251.585	11.95
251.801	9.9
252.018	73.39
252.235	54.95
252.451	-31.06
252.668	-16.73
252.885	-6.49
253.102	16.04
253.318	28.33
253.535	-20.82
253.752	-39.25
253.968	24.23
254.185	-6.49
254.401	34.47
254.618	59.05
254.835	30.38
255.051	61.1
255.268	-20.82
255.484	59.05
255.701	-12.63
255.917	61.1
256.134	-12.63
256.351	50.86
256.567	1.71
256.784	22.19
257	20.14
257.217	106.15
257.433	67.24
257.65	18.09
257.866	30.38
258.082	-16.73
258.299	-8.53
258.515	44.71
258.732	3.75
258.948	5.8
259.165	-39.25
259.381	9.9
259.597	-10.58
259.814	59.05
260.03	26.28
260.246	59.05
260.463	28.33
260.679	28.33
260.895	42.67
261.112	-22.87
261.328	9.9
261.544	57
261.761	52.91
261.977	-6.49
262.193	65.19
262.409	34.47
262.626	11.95
262.842	50.86
263.058	1.71
263.274	42.67
263.49	34.47
263.707	28.33
263.923	-35.16
264.139	46.76
264.355	100.01
264.571	83.63
264.787	-41.3
265.004	30.38
265.22	20.14
265.436	124.58
265.652	-24.92
265.868	24.23
266.084	5.8
266.3	85.67
266.516	69.29
266.732	-18.77
266.948	-26.96
267.164	44.71
267.38	118.44
267.596	-14.68
267.812	71.34
268.028	24.23
268.244	26.28
268.46	65.19
268.676	-20.82
268.892	28.33
269.108	85.67
269.324	-31.06
269.54	7.85
269.756	18.09
269.972	26.28
270.188	3.75
270.403	-59.73
270.619	5.8
270.835	26.28
271.051	54.95
271.267	85.67
271.483	-22.87
271.698	46.76
271.914	34.47
272.13	40.62
272.346	61.1
272.562	52.91
272.777	71.34
272.993	44.71
273.209	28.33
273.425	18.09
273.64	-12.63
273.856	54.95
274.072	52.91
274.287	42.67
274.503	97.96
274.719	75.43
274.934	63.15
275.15	28.33
275.366	83.63
275.581	7.85
275.797	-22.87
276.012	-4.44
276.228	18.09
276.444	46.76
276.659	13.99
276.875	-80.21
277.09	-29.01
277.306	40.62
277.521	-10.58
277.737	85.67
277.952	67.24
278.168	83.63
278.383	-49.49
278.599	106.15
278.814	114.34
279.03	-37.2
279.245	-8.53
279.461	87.72
279.676	38.57
279.892	83.63
280.107	7.85
280.322	-14.68
280.538	85.67
280.753	81.58
280.969	36.52
281.184	-55.64
281.399	79.53
281.615	36.52
281.83	9.9
282.045	-29.01
282.26	46.76
282.476	-18.77
282.691	89.77
282.906	18.09
283.122	3.75
283.337	-26.96
283.552	46.76
283.767	-20.82
283.983	38.57
284.198	36.52
284.413	-29.01
284.628	11.95
284.843	-2.39
285.058	5.8
285.274	52.91
285.489	38.57
285.704	-31.06
285.919	3.75
286.134	20.14
286.349	67.24
286.564	50.86
286.779	34.47
286.995	77.48
287.21	42.67
287.425	18.09
287.64	18.09
287.855	36.52
288.07	-14.68
288.285	-51.54
288.5	69.29
288.715	36.52
288.93	-29.01
289.145	7.85
289.36	110.25
289.575	34.47
289.79	100.01
290.004	-20.82
290.219	-12.63
290.434	57
290.649	34.47
290.864	-20.82
291.079	44.71
291.294	9.9
291.509	18.09
291.724	65.19
291.938	7.85
292.153	36.52
292.368	61.1
292.583	1.71
292.798	18.09
293.012	75.43
293.227	91.82
293.442	-10.58
293.657	-55.64
293.871	95.91
294.086	65.19
294.301	-43.35
294.516	3.75
294.73	124.58
294.945	63.15
295.16	102.06
295.374	38.57
295.589	71.34
295.804	-10.58
296.018	67.24
296.233	57
296.447	-29.01
296.662	44.71
296.877	61.1
297.091	-43.35
297.306	13.99
297.52	36.52
297.735	30.38
297.949	77.48
298.164	3.75
298.378	18.09
298.593	-24.92
298.807	32.43
299.022	1.71
299.236	65.19
299.451	16.04
299.665	42.67
299.88	48.81
300.094	59.05
300.309	114.34
300.523	26.28
300.737	3.75
300.952	75.43
301.166	34.47
301.381	-35.16
301.595	120.49
301.809	36.52
302.024	-8.53
302.238	22.19
302.452	28.33
302.667	-18.77
302.881	102.06
303.095	1.71
303.309	77.48
303.524	42.67
303.738	20.14
303.952	61.1
304.166	-26.96
304.381	-14.68
304.595	79.53
304.809	16.04
305.023	-24.92
305.237	67.24
305.452	42.67
305.666	16.04
305.88	-47.44
306.094	-63.83
306.308	1.71
306.522	-16.73
306.736	116.39
306.95	-29.01
307.164	83.63
307.379	-10.58
307.593	3.75
307.807	52.91
308.021	36.52
308.235	69.29
308.449	108.2
308.663	-55.64
308.877	38.57
309.091	1.71
309.305	9.9
309.519	24.23
309.733	40.62
309.947	30.38
310.161	3.75
310.374	83.63
310.588	83.63
310.802	-29.01
311.016	11.95
311.23	-0.34
311.444	54.95
311.658	42.67
311.872	1.71
312.085	3.75
312.299	63.15
312.513	54.95
312.727	83.63
312.941	63.15
313.154	42.67
313.368	9.9
313.582	89.77
313.796	48.81
314.009	48.81
314.223	67.24
314.437	20.14
314.651	77.48
314.864	22.19
315.078	3.75
315.292	32.43
315.505	59.05
315.719	81.58
315.933	40.62
316.146	46.76
316.36	11.95
316.573	-2.39
316.787	32.43
317.001	30.38
317.214	-29.01
317.428	50.86
317.641	-2.39
317.855	13.99
318.068	11.95
318.282	85.67
318.495	42.67
318.709	-14.68
318.922	13.99
319.136	50.86
319.349	61.1
319.563	40.62
319.776	54.95
319.99	26.28
320.203	30.38
320.417	18.09
320.63	-6.49
320.843	44.71
321.057	34.47
321.27	30.38
321.483	57
321.697	42.67
321.91	-45.4
322.124	112.3
322.337	30.38
322.55	26.28
322.763	97.96
322.977	32.43
323.19	26.28
323.403	-14.68
323.617	-31.06
323.83	22.19
324.043	20.14
324.256	28.33
324.469	1.71
324.683	9.9
324.896	54.95
325.109	-10.58
325.322	30.38
325.535	100.01
325.748	5.8
325.962	-2.39
326.175	5.8
326.388	7.85
326.601	30.38
326.814	54.95
327.027	52.91
327.24	95.91
327.453	-45.4
327.666	40.62
327.879	61.1
328.092	24.23
328.305	7.85
328.518	-22.87
328.731	24.23
328.944	61.1
329.157	16.04
329.37	-53.59
329.583	11.95
329.796	81.58
330.009	40.62
330.222	-12.63
330.435	46.76
330.648	54.95
330.861	16.04
331.073	5.8
331.286	46.76
331.499	42.67
331.712	-53.59
331.925	32.43
332.138	18.09
332.35	46.76
332.563	42.67
332.776	-12.63
332.989	59.05
333.202	-41.3
333.414	9.9
333.627	20.14
333.84	38.57
334.053	-12.63
334.265	-53.59
334.478	52.91
334.691	91.82
334.903	-0.34
335.116	83.63
335.329	59.05
335.541	79.53
335.754	5.8
335.966	42.67
336.179	46.76
336.392	97.96
336.604	-35.16
336.817	42.67
337.029	9.9
337.242	-0.34
337.454	18.09
337.667	26.28
337.88	34.47
338.092	75.43
338.305	-0.34
338.517	54.95
338.729	104.11
338.942	89.77
339.154	52.91
339.367	36.52
339.579	3.75
339.792	-14.68
340.004	-35.16
340.217	32.43
340.429	110.25
340.641	83.63
340.854	100.01
341.066	-12.63
341.278	104.11
341.491	13.99
341.703	95.91
341.915	-10.58
342.128	-31.06
342.34	44.71
342.552	34.47
342.764	24.23
342.977	77.48
343.189	28.33
343.401	34.47
343.613	22.19
343.826	22.19
344.038	79.53
344.25	-14.68
344.462	63.15
344.674	69.29
344.886	-39.25
345.099	28.33
345.311	-2.39
345.523	16.04
345.735	42.67
345.947	18.09
346.159	-47.44
346.371	69.29
346.583	48.81
346.795	73.39
347.007	34.47
347.219	16.04
347.431	5.8
347.643	59.05
347.855	18.09
348.067	79.53
348.279	9.9
348.491	30.38
348.703	13.99
348.915	95.91
349.127	20.14
349.339	57
349.551	63.15
349.763	5.8
349.975	-8.53
350.187	48.81
350.399	52.91
350.61	93.87
350.822	46.76
351.034	81.58
351.246	42.67
351.458	54.95
351.669	61.1
351.881	79.53
352.093	38.57
352.305	67.24
352.517	28.33
352.728	59.05
352.94	73.39
353.152	36.52
353.363	79.53
353.575	26.28
353.787	97.96
353.999	46.76
354.21	48.81
354.422	57
354.633	-31.06
354.845	26.28
355.057	65.19
355.268	-8.53
355.48	87.72
355.692	7.85
355.903	34.47
356.115	34.47
356.326	85.67
356.538	71.34
356.749	3.75
356.961	52.91
357.172	-45.4
357.384	32.43
357.595	28.33
357.807	18.09
358.018	30.38
358.23	67.24
358.441	91.82
358.653	26.28
358.864	124.58
359.075	46.76
359.287	-24.92
359.498	28.33
359.709	34.47
359.921	108.2
360.132	-0.34
360.344	30.38
360.555	52.91
360.766	48.81
360.977	79.53
361.189	63.15
361.4	71.34
361.611	9.9
361.823	30.38
362.034	67.24
362.245	-18.77
362.456	30.38
362.667	18.09
362.879	73.39
363.09	26.28
363.301	-43.35
363.512	87.72
363.723	16.04
363.935	50.86
364.146	81.58
364.357	20.14
364.568	67.24
364.779	1.71
364.99	116.39
365.201	36.52
365.412	124.58
365.623	13.99
365.834	-6.49
366.045	42.67
366.256	87.72
366.467	120.49
366.678	36.52
366.889	16.04
367.1	22.19
367.311	59.05
367.522	18.09
367.733	20.14
367.944	9.9
368.155	59.05
368.366	50.86
368.577	-22.87
368.788	73.39
368.999	9.9
369.209	59.05
369.42	13.99
369.631	116.39
369.842	54.95
370.053	26.28
370.264	28.33
370.474	50.86
370.685	61.1
370.896	-6.49
371.107	-2.39
371.317	-20.82
371.528	22.19
371.739	1.71
371.95	-0.34
372.16	108.2
372.371	24.23
372.582	59.05
372.792	9.9
373.003	61.1
373.214	-8.53
373.424	50.86
373.635	50.86
373.846	100.01
374.056	-14.68
374.267	32.43
374.477	46.76
374.688	77.48
374.898	75.43
375.109	18.09
375.319	-26.96
375.53	69.29
375.74	-31.06
375.951	91.82
376.161	69.29
376.372	71.34
376.582	102.06
376.793	44.71
377.003	13.99
377.214	34.47
377.424	67.24
377.635	67.24
377.845	22.19
378.055	85.67
378.266	-59.73
378.476	52.91
378.686	24.23
378.897	-29.01
379.107	38.57
379.317	26.28
379.528	13.99
379.738	-0.34
379.948	42.67
380.158	75.43
380.369	-0.34
380.579	83.63
380.789	1.71
380.999	71.34
381.21	30.38
381.42	112.3
381.63	46.76
381.84	67.24
382.05	11.95
382.261	9.9
382.471	69.29
382.681	-0.34
382.891	24.23
383.101	67.24
383.311	30.38
383.521	30.38
383.731	3.75
383.941	13.99
384.151	67.24
384.361	67.24
384.571	34.47
384.781	5.8
384.991	120.49
385.201	9.9
385.411	-14.68
385.621	-16.73
385.831	-10.58
386.041	1.71
386.251	-2.39
386.461	38.57
386.671	7.85
386.881	118.44
387.091	22.19
387.301	52.91
387.511	42.67
387.72	73.39
387.93	67.24
388.14	26.28
388.35	-8.53
388.56	18.09
388.769	40.62
388.979	-39.25
389.189	26.28
389.399	-14.68
389.609	52.91
389.818	120.49
390.028	1.71
390.238	95.91
390.447	38.57
390.657	46.76
390.867	97.96
391.076	22.19
391.286	16.04
391.496	18.09
391.705	18.09
391.915	91.82
392.125	110.25
392.334	65.19
392.544	61.1
392.753	9.9
392.963	77.48
393.172	87.72
393.382	26.28
393.591	54.95
393.801	65.19
394.01	124.58
394.22	48.81
394.429	155.3
394.639	9.9
394.848	34.47
395.058	100.01
395.267	93.87
395.477	67.24
395.686	110.25
395.895	13.99
396.105	114.34
396.314	71.34
396.524	93.87
396.733	54.95
396.942	108.2
397.152	3.75
397.361	20.14
397.57	59.05
397.78	63.15
397.989	52.91
398.198	59.05
398.407	79.53
398.617	22.19
398.826	13.99
399.035	54.95
399.244	50.86
399.453	67.24
399.663	85.67
399.872	130.73
400.081	48.81
400.29	91.82
400.499	-16.73
400.708	85.67
400.917	73.39
401.127	44.71
401.336	93.87
401.545	106.15
401.754	100.01
401.963	85.67
402.172	52.91
402.381	116.39
402.59	85.67
402.799	93.87
403.008	147.11
403.217	112.3
403.426	50.86
403.635	20.14
403.844	11.95
404.053	102.06
404.262	108.2
404.471	79.53
404.68	89.77
404.888	95.91
405.097	46.76
405.306	145.06
405.515	100.01
405.724	65.19
405.933	87.72
406.142	134.82
406.35	140.97
406.559	87.72
406.768	75.43
406.977	169.64
407.185	130.73
407.394	226.98
407.603	69.29
407.812	91.82
408.02	165.54
408.229	122.54
408.438	140.97
408.646	151.21
408.855	132.78
409.064	173.74
409.272	149.16
409.481	136.87
409.69	177.83
409.898	200.36
410.107	212.65
410.315	206.5
410.524	163.5
410.733	214.7
410.941	214.7
411.15	190.12
411.358	235.18
411.567	263.85
411.775	208.55
411.984	269.99
412.192	274.09
412.401	345.77
412.609	269.99
412.818	280.23
413.026	331.43
413.234	364.2
413.443	294.57
413.651	313
413.86	345.77
414.068	460.45
414.276	339.62
414.485	368.29
414.693	386.72
414.901	489.12
415.11	374.44
415.318	407.2
415.526	403.11
415.734	452.26
415.943	509.6
416.151	452.26
416.359	552.61
416.567	446.12
416.776	452.26
416.984	507.55
417.192	577.19
417.4	544.42
417.608	618.15
417.817	624.29
418.025	704.16
418.233	622.24
418.441	636.58
418.649	681.63
418.857	802.46
419.065	702.11
419.273	775.84
419.481	857.76
419.689	796.32
419.897	827.04
420.105	824.99
420.313	908.96
420.521	974.49
420.729	972.44
420.937	951.96
421.145	1005.21
421.353	970.4
421.561	1205.91
421.769	1158.81
421.977	1189.53
422.185	1169.05
422.393	1207.96
422.601	1396.37
422.809	1353.37
423.017	1375.89
423.224	1392.28
423.432	1466
423.64	1390.23
423.848	1527.44
424.056	1502.87
424.263	1621.65
424.471	1715.86
424.679	1693.33
424.887	1709.71
425.094	1799.82
425.302	1838.73
425.51	1943.18
425.718	2031.24
425.925	1924.75
426.133	2061.96
426.341	2150.03
426.548	2229.9
426.756	2248.33
426.964	2240.14
427.171	2436.74
427.379	2465.41
427.586	2533
427.794	2614.91
428.001	2750.08
428.209	2854.53
428.417	2745.98
428.624	2975.36
428.832	2944.64
429.039	2778.75
429.247	2950.78
429.454	3190.39
429.662	3456.63
429.869	3249.79
430.076	3354.23
430.284	3413.62
430.491	3554.93
430.699	3679.86
430.906	3677.81
431.114	3751.54
431.321	3858.03
431.528	3987.05
431.736	4249.19
431.943	4402.79
432.15	4177.51
432.358	4408.94
432.565	4490.85
432.772	4488.81
432.979	4830.82
433.187	4802.15
433.394	4832.86
433.601	5156.44
433.808	5166.68
434.016	5146.2
434.223	5346.91
434.43	5701.2
434.637	5539.41
434.844	5916.24
435.052	5889.62
435.259	5901.9
435.466	6061.65
435.673	6014.54
435.88	6536.77
436.087	6747.72
436.294	6676.04
436.501	6661.7
436.708	6850.11
436.915	6975.04
437.122	7374.39
437.329	7353.91
437.537	7493.18
437.743	7450.17
437.95	7718.45
438.157	7917.11
438.364	8107.57
438.571	8031.79
438.778	8222.25
438.985	8955.43
439.192	8578.6
439.399	8820.26
439.606	8820.26
439.813	9322.01
440.02	9893.4
440.227	9555.48
440.433	9590.3
440.64	9811.48
440.847	9780.76
441.054	9922.07
441.261	10395.15
441.467	10393.1
441.674	10839.56
441.881	11013.63
442.088	11060.74
442.294	10929.67
442.501	11441.66
442.708	11703.8
442.914	11894.26
443.121	12439.02
443.328	12127.73
443.534	12881.38
443.741	12830.18
443.948	12420.59
444.154	13139.43
444.361	13391.33
444.568	13340.13
444.774	13239.78
444.981	13559.26
445.187	14028.24
445.394	14673.35
445.6	14165.46
445.807	15564.22
446.013	14904.78
446.22	15173.06
446.426	15715.77
446.633	15939
446.839	16494
447.046	15824.31
447.252	16606.64
447.459	16754.09
447.665	16537.01
447.871	17237.41
448.078	18185.62
448.284	17180.07
448.491	17587.61
448.697	18376.08
448.903	18544.02
449.11	18904.46
449.316	18677.13
449.522	18523.54
449.728	19148.17
449.935	19434.88
450.141	19459.46
450.347	19811.71
450.553	19139.97
450.76	19492.23
450.966	20354.42
451.172	19944.83
451.378	20563.31
451.584	19875.2
451.791	20407.67
451.997	20282.74
452.203	20788.59
452.409	20548.98
452.615	20604.27
452.821	19770.75
453.027	19803.52
453.233	20540.79
453.44	20135.29
453.646	20276.6
453.852	20036.98
454.058	20555.12
454.264	19991.93
454.47	20350.32
454.676	19647.87
454.882	20454.77
455.088	18521.49
455.294	18922.89
455.5	19082.63
455.705	19318.15
455.911	18752.91
456.117	18259.35
456.323	18007.45
456.529	16930.22
456.735	17651.1
456.941	17339.81
457.147	17141.16
457.352	16573.87
457.558	16278.96
457.764	16248.24
457.97	16074.17
458.176	15760.83
458.381	15875.51
458.587	14849.48
458.793	15140.29
458.999	13878.74
459.204	15324.61
459.41	14986.69
459.616	13893.08
459.821	13782.49
460.027	13852.12
460.233	13422.05
460.438	12799.46
460.644	12979.68
460.85	12586.47
461.055	12207.6
461.261	12170.74
461.466	11521.53
461.672	11077.12
461.878	11881.97
462.083	11009.54
462.289	10747.4
462.494	10657.29
462.7	10290.7
462.905	9920.02
463.111	10317.33
463.316	10128.91
463.522	10051.09
463.727	10221.07
463.932	10006.03
464.138	10001.94
464.343	10141.2
464.549	9653.78
464.754	10143.25
464.959	9799.19
465.165	9991.7
465.37	9520.67
465.575	9297.44
465.781	9586.2
465.986	9680.41
466.191	9233.95
466.397	9004.58
466.602	8744.49
466.807	8910.37
467.012	9135.65
467.218	8971.81
467.423	8707.62
467.628	8791.59
467.833	9291.29
468.038	8881.7
468.244	8789.54
468.449	9014.82
468.654	8554.02
468.859	8758.82
469.064	8664.61
469.269	8207.92
469.474	8269.36
469.679	8580.65
469.885	8459.82
470.09	8252.97
470.295	8283.69
470.5	8074.8
470.705	8144.43
470.91	8132.14
471.115	7749.17
471.32	8074.8
471.525	8228.4
471.73	7718.45
471.935	7833.14
472.139	7394.87
472.344	7491.13
472.549	7472.7
472.754	7462.46
472.959	7327.29
473.164	7087.68
473.369	7218.75
473.574	7380.54
473.778	7226.94
473.983	7136.83
474.188	7116.35
474.393	6784.58
474.598	6940.22
474.802	6813.25
475.007	6688.32
475.212	6626.89
475.417	6374.99
475.621	6612.55
475.826	6409.8
476.031	6393.42
476.235	6307.4
476.44	6516.3
476.645	6014.54
476.849	6327.88
477.054	6223.44
477.259	6104.65
477.463	6108.75
477.668	6043.21
477.872	5858.9
478.077	5973.58
478.282	5674.58
478.486	5809.75
478.691	5705.3
478.895	5865.04
479.1	5633.62
479.304	5600.85
479.509	5484.12
479.713	5862.99
479.918	5490.26
480.122	5277.27
480.326	5410.39
480.531	5457.5
480.735	5387.86
480.94	5363.29
481.144	5662.29
481.348	5285.47
481.553	5359.19
481.757	5301.85
481.961	5353.05
482.166	5572.18
482.37	5240.41
482.574	5199.45
482.778	5285.47
482.983	5344.86
483.187	5254.75
483.391	5129.82
483.595	5230.17
483.8	5219.93
484.004	5117.53
484.208	5367.38
484.412	5238.36
484.616	5148.25
484.821	5262.94
485.025	5119.58
485.229	5437.02
485.433	5148.25
485.637	5178.97
485.841	5262.94
486.045	5133.92
486.249	5154.4
486.453	5246.55
486.657	5236.31
486.861	5310.04
487.065	5043.81
487.269	5170.78
487.473	5256.79
487.677	5322.33
487.881	5219.93
488.085	5357.14
488.289	5219.93
488.493	5195.36
488.697	5383.77
488.901	5359.19
489.105	5326.43
489.309	5373.53
489.512	5432.92
489.716	5459.54
489.92	5369.43
490.124	5369.43
490.328	5297.75
490.531	5383.77
490.735	5359.19
490.939	5457.5
491.143	5199.45
491.346	5383.77
491.55	5516.89
491.754	5514.84
491.958	5592.66
492.161	5416.54
492.365	5457.5
492.569	5613.14
492.772	5555.8
492.976	5543.51
493.18	5602.9
493.383	5668.44
493.587	5742.16
493.79	5836.37
493.994	5746.26
494.197	5826.13
494.401	5916.24
494.605	5877.33
494.808	5910.1
495.012	5959.25
495.215	6133.33
495.419	6047.31
495.622	6082.13
495.825	6155.85
496.029	6141.52
496.232	6338.12
496.436	6293.07
496.639	6508.1
496.843	6401.61
497.046	6510.15
497.249	6563.4
497.453	6456.9
497.656	6622.79
497.859	6641.22
498.063	6866.5
498.266	6981.18
498.469	6983.23
498.673	6966.85
498.876	7306.81
499.079	7228.99
499.282	7120.45
499.485	7386.68
499.689	7462.46
499.892	7552.57
500.095	7560.76
500.298	7745.08
500.501	7677.49
500.705	7898.67
500.908	8238.64
501.111	8160.81
501.314	8195.63
501.517	7992.88
501.72	8314.41
501.923	8439.34
502.126	8597.03
502.329	8631.85
502.532	8693.29
502.735	8871.46
502.938	9018.91
503.141	8934.95
503.344	9276.96
503.547	9375.26
503.75	9555.48
503.953	9633.3
504.156	9473.56
504.359	9641.5
504.562	9700.89
504.765	9858.58
504.968	10059.28
505.17	10354.19
505.373	10180.11
505.576	10530.31
505.779	10528.27
505.982	10542.6
506.185	10864.13
506.387	10708.49
506.59	10880.52
506.793	11148.8
506.996	11343.36
507.198	11513.34
507.401	11572.73
507.604	11806.2
507.807	11859.45
508.009	11931.12
508.212	12076.53
508.415	12111.35
508.617	12471.79
508.82	12543.47
509.022	12529.13
509.225	12756.46
509.428	12987.88
509.63	13032.93
509.833	12897.77
510.035	13448.67
510.238	13534.68
510.44	13608.41
510.643	13972.95
510.845	13964.76
511.048	14104.02
511.25	14384.59
511.453	14366.16
511.655	15031.75
511.858	14720.46
512.06	14742.99
512.262	15046.09
512.465	15287.75
512.667	15582.65
512.87	15730.11
513.072	15721.91
513.274	15971.77
513.477	16059.83
513.679	16315.83
513.881	16518.57
514.084	16670.12
514.286	16903.59
514.488	17065.38
514.69	17227.17
514.893	17425.82
515.095	17415.58
515.297	17845.66
515.499	18009.5
515.701	18007.45
515.904	18222.48
516.106	18589.07
516.308	18699.66
516.51	18861.45
516.712	18855.31
516.914	19443.07
517.116	19625.34
517.318	19819.9
517.52	19633.54
517.722	19885.44
517.925	20379
518.127	20671.86
518.329	20632.94
518.531	20780.4
518.733	21155.18
518.935	21337.45
519.136	21366.12
519.338	21767.52
519.54	21712.22
519.742	21898.59
519.944	22386.01
520.146	22529.36
520.348	22562.13
520.55	22955.34
520.752	22916.43
520.954	23328.07
521.155	23522.63
521.357	23731.52
521.559	23786.82
521.761	24210.75
521.963	24182.07
522.164	24587.57
522.366	24311.1
522.568	24782.13
522.77	24980.78
522.971	25443.62
523.173	25277.74
523.375	25453.86
523.576	25642.28
523.778	25689.38
523.98	26152.22
524.181	26340.63
524.383	25888.03
524.584	26711.32
524.786	26567.96
524.988	26565.91
525.189	27196.68
525.391	27112.72
525.592	27424.01
525.794	27157.77
525.995	27378.95
526.197	27510.02
526.398	27297.03
526.6	27907.33
526.801	27749.64
527.003	28312.83
527.204	28009.73
527.406	28337.4
527.607	28523.77
527.808	28568.82
528.01	28218.62
528.211	28380.41
528.412	29082.86
528.614	28710.13
528.815	28970.22
529.016	29328.62
529.218	29009.14
529.419	29535.46
529.62	29426.92
529.822	29371.63
530.023	29457.64
530.224	29547.75
530.425	29461.74
530.626	29527.27
530.828	29584.62
531.029	30022.88
531.23	29826.28
531.431	29732.07
531.632	29924.58
531.833	30166.24
532.035	29885.67
532.236	29857
532.437	30239.97
532.638	30119.14
532.839	30135.52
533.04	30323.93
533.241	29883.62
533.442	30473.43
533.643	30149.85
533.844	30305.5
534.045	30393.56
534.246	29957.35
534.447	30373.08
534.648	30080.22
534.849	30584.02
535.05	30444.76
535.251	30618.84
535.451	30260.44
535.652	30325.98
535.853	30080.22
536.054	30756.05
536.255	30549.21
536.456	30170.33
536.657	30893.27
536.857	30514.39
537.058	30313.69
537.259	30577.88
537.46	30649.56
537.66	30430.43
537.861	30452.95
538.062	30663.89
538.263	30807.25
538.463	30471.39
538.664	30459.1
538.865	30590.17
539.065	30700.76
539.266	30272.73
539.466	30729.43
539.667	30481.63
539.868	30946.51
540.068	30772.44
540.269	30792.92
540.469	30887.12
540.67	30573.78
540.87	30645.46
541.071	30405.85
541.271	30567.64
541.472	30704.85
541.672	30426.33
541.873	30436.57
542.073	30125.28
542.274	30852.31
542.474	30495.96
542.675	30751.96
542.875	30688.47
543.075	30473.43
543.276	30393.56
543.476	30979.28
543.676	30377.18
543.877	30532.82
544.077	30446.81
544.277	30504.15
544.478	30498.01
544.678	30751.96
544.878	30780.63
545.078	30549.21
545.279	30110.94
545.479	30676.18
545.679	30530.78
545.879	30680.28
546.079	30463.19
546.28	30518.49
546.48	30272.73
546.68	30424.28
546.88	30594.26
547.08	30559.45
547.28	30299.36
547.48	30428.38
547.68	30321.88
547.88	30196.96
548.081	30448.86
548.281	30246.11
548.481	30131.42
548.681	30350.56
548.881	30418.14
549.081	30663.89
549.28	30178.53
549.48	30672.09
549.68	30156
549.88	30917.84
550.08	30422.23
550.28	30504.15
550.48	30315.74
550.68	30749.91
550.88	30162.14
551.08	30457.05
551.279	30209.25
551.479	30090.46
551.679	30371.04
551.879	30260.44
552.079	30518.49
552.278	30137.57
552.478	30237.92
552.678	30313.69
552.878	30364.89
553.077	30313.69
553.277	30219.49
553.477	30571.74
553.676	30022.88
553.876	30147.81
554.076	30072.03
554.275	30184.67
554.475	29664.49
554.674	30059.74
554.874	30158.05
555.074	29854.95
555.273	30000.35
555.473	30065.89
555.672	29836.52
555.872	29873.38
556.071	29973.73
556.271	29658.34
556.47	29514.98
556.67	29578.47
556.869	29385.96
557.068	29873.38
557.268	29732.07
557.467	29601
557.667	29639.91
557.866	29557.99
558.065	29371.63
558.265	29512.94
558.464	29115.63
558.663	29615.33
558.863	29328.62
559.062	29910.24
559.261	29201.65
559.461	29441.26
559.66	29025.52
559.859	29408.49
560.058	28837.11
560.258	28996.85
560.457	29107.44
560.656	28835.06
560.855	29013.23
561.054	29172.97
561.253	28710.13
561.453	29164.78
561.652	29015.28
561.851	29363.43
562.05	28466.42
562.249	28447.99
562.448	28843.25
562.647	28544.25
562.846	28386.55
563.045	28278.01
563.244	28136.7
563.443	28654.84
563.642	28003.58
563.841	28228.86
564.04	27995.39
564.239	28421.37
564.438	27868.42
564.637	28505.34
564.836	27997.44
565.035	27929.86
565.234	28306.68
565.432	27706.63
565.631	27903.23
565.83	28187.9
566.029	27847.94
566.228	27645.19
566.427	27618.57
566.625	27524.36
566.824	27333.9
567.023	27518.21
567.222	26823.95
567.42	27563.27
567.619	27374.86
567.818	27329.8
568.016	27284.75
568.215	27399.43
568.414	26539.29
568.612	27155.72
568.811	27012.37
569.01	27157.77
569.208	26555.67
569.407	26817.81
569.605	26676.5
569.804	26807.57
570.002	26531.09
570.201	26576.15
570.4	25916.7
570.598	26314.01
570.797	25910.56
570.995	26197.27
571.193	25904.42
571.392	25888.03
571.59	26070.3
571.789	25951.52
571.987	25726.24
572.186	25298.22
572.384	25206.06
572.582	25550.12
572.781	25742.63
572.979	25330.98
573.177	25521.45
573.376	25761.06
573.574	25040.17
573.772	25435.43
573.971	24960.3
574.169	25210.15
574.367	24984.88
574.565	24892.72
574.763	24907.05
574.962	24919.34
575.16	24253.75
575.358	24681.78
575.556	24290.62
575.754	24659.25
575.952	24415.54
576.151	24706.35
576.349	24327.48
576.547	24003.9
576.745	24182.07
576.943	24061.24
577.141	23887.17
577.339	23817.54
577.537	23831.87
577.735	23915.84
577.933	23627.07
578.131	23135.56
578.329	23506.24
578.527	23291.21
578.725	23457.09
578.923	23450.95
579.121	23190.86
579.319	23106.89
579.516	23455.04
579.714	23166.28
579.912	22713.68
580.11	23067.98
580.308	22961.48
580.506	22822.22
580.704	22656.34
580.901	22758.74
581.099	22820.17
581.297	22633.81
581.495	22658.38
581.692	22596.95
581.89	22191.45
582.088	22306.13
582.285	22340.95
582.483	22506.84
582.681	22275.41
582.878	22154.58
583.076	21869.92
583.274	22216.02
583.471	21890.4
583.669	21900.64
583.866	21773.66
584.064	21704.03
584.262	21343.59
584.459	21613.92
584.657	21501.28
584.854	21525.86
585.052	21026.15
585.249	21304.68
585.447	21402.98
585.644	20934
585.841	21085.54
586.039	21149.03
586.236	20905.32
586.434	20796.78
586.631	20876.65
586.828	20716.91
587.026	20829.55
587.223	20524.4
587.42	20479.35
587.618	20737.39
587.815	20612.46
588.012	20348.28
588.21	20532.59
588.407	20516.21
588.604	20227.45
588.801	20313.46
588.999	20188.53
589.196	19989.88
589.393	20090.23
589.59	19780.99
589.787	19711.36
589.984	19987.83
590.182	19643.77
590.379	19838.33
590.576	19582.34
590.773	19615.1
590.97	19588.48
591.167	19789.18
591.364	19373.44
591.561	19457.41
591.758	18830.73
591.955	19400.07
592.152	19076.49
592.349	19424.64
592.546	19316.1
592.743	19004.81
592.94	18990.47
593.137	18797.96
593.334	18898.31
593.531	18417.04
593.727	18681.23
593.924	18808.2
594.121	18343.31
594.318	18474.38
594.515	18245.01
594.712	18439.57
594.908	18392.47
595.105	18460.05
595.302	18107.8
595.499	18460.05
595.696	18134.42
595.892	17843.61
596.089	18042.26
596.286	18173.33
596.482	17978.78
596.679	18075.03
596.876	18113.94
597.072	17917.34
597.269	18161.05
597.466	17782.17
597.662	17599.9
597.859	17685.92
598.055	17538.46
598.252	17364.39
598.448	17329.57
598.645	17399.2
598.841	17364.39
599.038	17163.68
599.234	17169.83
599.431	16958.89
599.627	16993.7
599.824	16985.51
600.02	16750
600.217	17188.26
600.413	16729.52
600.609	16717.23
600.806	16713.13
601.002	16557.49
601.198	16557.49
601.395	16354.74
601.591	16463.28
601.787	16725.42
601.984	16299.44
602.18	16541.1
602.376	16475.57
602.572	16215.48
602.769	16303.54
602.965	16106.93
603.161	16303.54
603.357	16102.84
603.553	16098.74
603.75	16274.87
603.946	15941.05
604.142	16076.21
604.338	15918.52
604.534	15967.67
604.73	15476.16
604.926	15701.44
605.122	15543.74
605.318	15594.94
605.514	15631.8
605.71	15476.16
605.906	15586.75
606.102	15502.78
606.298	15265.22
606.494	15105.48
606.69	15244.74
606.886	15257.03
607.082	14894.54
607.278	15224.26
607.474	14888.39
607.67	14990.79
607.866	14902.73
608.062	14855.62
608.257	14732.75
608.453	14898.63
608.649	14796.23
608.845	14667.21
609.041	14724.55
609.236	14667.21
609.432	14620.11
609.628	14443.98
609.824	14585.29
610.019	14185.94
610.215	14732.75
610.411	14415.31
610.606	13999.57
610.802	14511.57
610.998	14468.56
611.193	14288.34
611.389	14177.75
611.584	14241.23
611.78	14319.06
611.976	13989.33
612.171	14091.73
612.367	14118.36
612.562	13868.5
612.758	13772.25
612.953	13874.65
613.149	13946.33
613.344	13721.05
613.539	13991.38
613.735	13903.32
613.93	14091.73
614.126	13800.92
614.321	13692.38
614.517	13632.99
614.712	13712.86
614.907	13538.78
615.103	13534.68
615.298	13376.99
615.493	13309.41
615.688	13129.19
615.884	13524.44
616.079	13116.9
616.274	13368.8
616.47	13391.33
616.665	13037.03
616.86	12965.35
617.055	13266.4
617.25	13112.8
617.445	12998.12
617.641	12824.04
617.836	13188.58
618.031	12805.61
618.226	12840.42
618.421	12828.13
618.616	12912.1
618.811	12703.21
619.006	12668.39
619.201	12592.62
619.396	12920.29
619.591	12336.62
619.786	12434.92
619.981	12275.18
620.176	12283.38
620.371	12180.98
620.566	12330.48
620.761	12299.76
620.956	12195.31
621.151	12033.52
621.346	12099.06
621.541	11931.12
621.735	12137.97
621.93	11568.63
622.125	11609.59
622.32	11562.49
622.515	11877.88
622.709	11326.97
622.904	11556.35
623.099	11488.76
623.294	11408.89
623.488	11390.46
623.683	11478.52
623.878	11410.94
624.072	11275.77
624.267	11060.74
624.462	11011.59
624.656	10907.14
624.851	10974.72
625.046	10888.71
625.24	10759.69
625.435	10675.72
625.629	10513.93
625.824	10636.81
626.018	10808.84
626.213	10350.09
626.407	10509.83
626.602	10450.44
626.796	10313.23
626.991	10462.73
627.185	10302.99
627.38	10253.84
627.574	10116.62
627.768	10110.48
627.963	10018.32
628.157	9911.83
628.352	9897.49
628.546	9772.57
628.74	9829.91
628.935	9739.8
629.129	9954.83
629.323	9711.13
629.517	9762.33
629.712	9522.71
629.906	9651.74
630.1	9477.66
630.294	9553.43
630.489	9455.13
630.683	9387.55
630.877	9342.49
631.071	9121.31
631.265	9389.6
631.459	9100.83
631.653	9078.3
631.848	9029.15
632.042	8932.9
632.236	8848.93
632.43	8861.22
632.624	9000.48
632.818	8832.55
633.012	8777.25
633.206	8728.1
633.4	8734.25
633.594	8672.81
633.788	8695.33
633.982	8601.13
634.176	8490.54
634.369	8543.78
634.563	8486.44
634.757	8453.67
634.951	8478.25
635.145	8410.67
635.339	8408.62
635.533	8175.15
635.726	8007.22
635.92	8044.08
636.114	8205.87
636.308	7927.35
636.501	7867.95
636.695	8029.74
636.889	7992.88
637.083	7876.15
637.276	7794.23
637.47	7712.31
637.664	7683.64
637.857	7732.79
638.051	7583.29
638.244	7517.75
638.438	7579.19
638.632	7544.38
638.825	7472.7
639.019	7493.18
639.212	7308.86
639.406	7392.83
639.599	7355.96
639.793	7228.99
639.986	7214.65
640.18	7204.41
640.373	7122.49
640.567	6997.57
640.76	7046.72
640.954	7073.34
641.147	6934.08
641.34	6841.92
641.534	6907.46
641.727	6889.03
641.92	6747.72
642.114	6807.11
642.307	6696.52
642.5	6727.24
642.694	6407.75
642.887	6680.13
643.08	6555.21
643.273	6563.4
643.467	6475.34
643.66	6252.11
643.853	6350.41
644.046	6344.27
644.239	6301.26
644.432	6245.96
644.626	6321.74
644.819	6282.83
645.012	6243.92
645.205	6243.92
645.398	6102.61
645.591	6219.34
645.784	6110.8
645.977	5977.68
646.17	6014.54
646.363	5834.32
646.556	5815.89
646.749	5989.97
646.942	5707.35
647.135	5705.3
647.328	5656.15
647.521	5670.48
647.714	5457.5
647.907	5744.21
648.099	5611.09
648.292	5559.89
648.485	5594.71
648.678	5441.11
648.871	5545.56
649.064	5381.72
649.256	5516.89
649.449	5285.47
649.642	5424.73
649.835	5203.55
650.027	5262.94
650.22	5334.62
650.413	5183.07
650.605	5240.41
650.798	5043.81
650.991	5195.36
651.183	5215.84
651.376	5072.48
651.568	5088.86
651.761	5004.89
651.954	4947.55
652.146	4994.65
652.339	4922.98
652.531	4830.82
652.724	4916.83
652.916	4775.52
653.109	4752.99
653.301	4734.56
653.494	4691.56
653.686	4687.46
653.879	4712.03
654.071	4572.77
654.263	4583.01
654.456	4566.63
654.648	4601.44
654.84	4587.11
655.033	4521.57
655.225	4433.51
655.417	4425.32
655.61	4427.37
655.802	4415.08
655.994	4308.58
656.186	4281.96
656.379	4365.93
656.571	4357.74
656.763	4245.1
656.955	4212.33
657.148	4073.07
657.34	4193.9
657.532	4197.99
657.724	4191.85
657.916	4114.03
658.108	4109.93
658.3	4099.69
658.492	4073.07
658.684	4054.64
658.876	3944.05
659.068	3880.56
659.26	3878.51
659.452	3872.37
659.644	3882.61
659.836	3823.22
660.028	3880.56
660.22	3765.87
660.412	3851.89
660.604	3888.75
660.796	3841.65
660.988	3624.56
661.18	3729.01
661.372	3724.91
661.563	3745.39
661.755	3602.04
661.947	3673.71
662.139	3509.88
662.331	3622.52
662.522	3528.31
662.714	3544.69
662.906	3501.69
663.097	3481.21
663.289	3446.39
663.481	3438.2
663.673	3491.45
663.864	3282.55
664.056	3335.8
664.247	3235.45
664.439	3270.26
664.631	3190.39
664.822	3243.64
665.014	3329.66
665.205	3262.07
665.397	3325.56
665.588	3225.21
665.78	3012.22
665.971	3108.48
666.163	3122.81
666.354	3171.96
666.546	3143.29
666.737	3028.6
666.929	3188.35
667.12	3028.6
667.311	3186.3
667.503	3014.27
667.694	3034.75
667.885	3004.03
668.077	3153.53
668.268	3088
668.459	2934.4
668.651	2954.88
668.842	2823.81
669.033	2940.54
669.224	2883.2
669.416	2901.63
669.607	2795.14
669.798	2717.31
669.989	2745.98
670.18	2743.94
670.371	2793.09
670.563	2655.87
670.754	2793.09
670.945	3049.08
671.136	2860.67
671.327	2764.42
671.518	2741.89
671.709	2756.22
671.9	2829.95
672.091	2717.31
672.282	2782.85
672.473	2676.35
672.664	2795.14
672.855	2694.79
673.046	2657.92
673.237	2616.96
673.428	2567.81
673.619	2625.15
673.809	2657.92
674	2631.3
674.191	2436.74
674.382	2594.44
674.573	2537.09
674.764	2608.77
674.954	2543.24
675.145	2567.81
675.336	2510.47
675.527	2537.09
675.717	2539.14
675.908	2428.55
676.099	2477.7
676.289	2481.8
676.48	2389.64
676.671	2442.89
676.861	2485.89
677.052	2610.82
677.243	2500.23
677.433	2506.37
677.624	2492.04
677.814	2442.89
678.005	2317.96
678.195	2401.93
678.386	2367.11
678.576	2322.06
678.767	2303.62
678.957	2297.48
679.148	2344.58
679.338	2315.91
679.529	2293.38
679.719	2266.76
679.909	2422.41
680.1	2373.25
680.29	2283.14
680.481	2410.12
680.671	2358.92
680.861	2195.08
681.052	2369.16
681.242	2233.99
681.432	2277
681.622	2213.51
681.813	2166.41
682.003	2244.23
682.193	2320.01
682.383	2356.87
682.573	2211.46
682.764	2121.35
682.954	2238.09
683.144	2160.27
683.334	2160.27
683.524	2188.94
683.714	2174.6
683.904	2297.48
684.094	2152.07
684.284	2117.26
684.474	2117.26
684.664	2250.38
684.854	2139.79
685.044	2133.64
685.234	2233.99
685.424	2109.07
685.614	2131.59
685.804	2176.65
685.994	2186.89
686.184	2115.21
686.374	2088.59
686.564	2217.61
686.753	2025.1
686.943	2092.68
687.133	2012.81
687.323	2193.03
687.513	2094.73
687.702	2092.68
687.892	2016.91
688.082	2125.45
688.272	1967.76
688.461	2150.03
688.651	1994.38
688.841	2047.63
689.03	2051.72
689.22	2139.79
689.41	2078.35
689.599	2098.83
689.789	2068.11
689.979	2004.62
690.168	2053.77
690.358	1967.76
690.547	2090.63
690.737	1975.95
690.926	2000.52
691.116	2010.76
691.305	2137.74
691.495	2041.48
691.684	1994.38
691.874	2156.17
692.063	2002.57
692.252	2041.48
692.442	2006.67
692.631	1957.52
692.82	1996.43
693.01	1978
693.199	1894.03
693.388	2008.72
693.578	1959.56
693.767	1879.69
693.956	2094.73
694.146	2033.29
694.335	2008.72
694.524	2037.39
694.713	2010.76
694.902	1975.95
695.092	1949.32
695.281	1996.43
695.47	2094.73
695.659	1975.95
695.848	1996.43
696.037	2049.68
696.226	2082.44
696.415	1996.43
696.604	1990.28
696.793	1973.9
696.982	1994.38
697.171	1992.33
697.36	1906.32
697.549	2070.16
697.738	2008.72
697.927	2031.24
698.116	1918.61
698.305	1988.24
698.494	1967.76
698.683	1986.19
698.872	1971.85
699.061	2016.91
699.25	1967.76
699.438	1934.99
699.627	2029.2
699.816	1984.14
700.005	1930.89
700.193	2002.57
700.382	2072.2
700.571	1918.61
700.76	2076.3
700.948	2008.72
701.137	1836.69
701.326	1992.33
701.514	1814.16
701.703	1984.14
701.892	1912.46
702.08	1945.23
702.269	1963.66
702.457	1877.65
702.646	1939.09
702.834	1910.41
703.023	1918.61
703.212	1930.89
703.4	1926.8
703.589	1906.32
703.777	1846.93
703.965	1951.37
704.154	1924.75
704.342	1926.8
704.531	1996.43
704.719	1889.93
704.907	2008.72
705.096	1885.84
705.284	1889.93
705.472	1851.02
705.661	1844.88
705.849	1904.27
706.037	1816.21
706.226	1773.2
706.414	1836.69
706.602	1887.89
706.79	1848.97
706.979	2012.81
707.167	1873.55
707.355	1793.68
707.543	1732.24
707.731	1846.93
707.919	1771.15
708.107	1812.11
708.296	1828.49
708.484	1740.43
708.672	1855.12
708.86	1736.34
709.048	1697.42
709.236	1767.06
709.424	1781.39
709.612	1746.58
709.8	1697.42
709.988	1734.29
710.176	1672.85
710.364	1742.48
710.551	1685.14
710.739	1711.76
710.927	1740.43
711.115	1765.01
711.303	1734.29
711.491	1705.62
711.679	1635.99
711.866	1631.89
712.054	1574.55
712.242	1668.75
712.43	1724.05
712.617	1734.29
712.805	1601.17
712.993	1703.57
713.181	1722
713.368	1664.66
713.556	1685.14
713.744	1777.3
713.931	1615.51
714.119	1664.66
714.306	1683.09
714.494	1547.92
714.682	1595.03
714.869	1611.41
715.057	1607.31
715.244	1537.68
715.432	1560.21
715.619	1595.03
715.807	1605.27
715.994	1652.37
716.182	1486.48
716.369	1476.24
716.556	1609.36
716.744	1547.92
716.931	1470.1
717.119	1619.6
717.306	1480.34
717.493	1549.97
717.681	1488.53
717.868	1484.44
718.055	1423
718.242	1439.38
718.43	1449.62
718.617	1367.7
718.804	1392.28
718.991	1617.55
719.179	1482.39
719.366	1521.3
719.553	1453.72
719.74	1502.87
719.927	1406.61
720.114	1457.81
720.301	1394.33
720.488	1326.74
720.676	1371.8
720.863	1412.76
721.05	1375.89
721.237	1390.23
721.424	1420.95
721.611	1455.76
721.798	1334.93
721.985	1382.04
722.172	1330.84
722.358	1425.04
722.545	1394.33
722.732	1330.84
722.919	1394.33
723.106	1298.07
723.293	1304.21
723.48	1451.67
723.667	1369.75
723.853	1390.23
724.04	1359.51
724.227	1279.64
724.414	1363.61
724.6	1279.64
724.787	1339.03
724.974	1336.98
725.161	1216.15
725.347	1324.69
725.534	1300.12
725.72	1271.45
725.907	1304.21
726.094	1328.79
726.28	1300.12
726.467	1242.78
726.653	1285.78
726.84	1269.4
727.027	1246.87
727.213	1220.25
727.4	1224.34
727.586	1228.44
727.773	1246.87
727.959	1177.24
728.145	1277.59
728.332	1191.58
728.518	1283.74
728.705	1236.63
728.891	1218.2
729.077	1205.91
729.264	1181.34
729.45	1216.15
729.636	1205.91
729.823	1277.59
730.009	1134.23
730.195	1156.76
730.382	1164.95
730.568	1214.1
730.754	1175.19
730.94	1210.01
731.126	1150.62
731.313	1205.91
731.499	1177.24
731.685	1140.38
731.871	1099.42
732.057	1173.14
732.243	1171.1
732.429	1195.67
732.615	1156.76
732.801	1101.47
732.987	1064.6
733.173	1017.5
733.359	1177.24
733.545	1101.47
733.731	1126.04
733.917	1207.96
734.103	1093.27
734.289	1117.85
734.475	1027.74
734.661	1050.27
734.847	1109.66
735.033	1148.57
735.219	1066.65
735.404	1099.42
735.59	1013.4
735.776	1054.36
735.962	949.92
736.148	1154.71
736.333	1068.7
736.519	1054.36
736.705	1074.84
736.89	1042.07
737.076	1017.5
737.262	1050.27
737.447	949.92
737.633	1001.12
737.819	999.07
738.004	898.72
738.19	994.97
738.375	1029.79
738.561	1050.27
738.747	986.78
738.932	970.4
739.118	1035.93
739.303	1021.6
739.489	994.97
739.674	968.35
739.859	1107.61
740.045	994.97
740.23	949.92
740.416	997.02
740.601	1009.31
740.786	933.53
740.972	958.11
741.157	888.48
741.342	984.73
741.528	894.62
741.713	872.09
741.898	964.25
742.084	925.34
742.269	999.07
742.454	988.83
742.639	822.94
742.824	937.63
743.01	868
743.195	888.48
743.38	978.59
743.565	900.76
743.75	894.62
743.935	911
744.12	898.72
744.305	859.81
744.49	888.48
744.675	937.63
744.86	898.72
745.045	876.19
745.23	847.52
745.415	898.72
745.6	827.04
745.785	806.56
745.97	779.93
746.155	761.5
746.34	884.38
746.525	878.24
746.71	822.94
746.895	773.79
747.079	841.37
747.264	861.85
747.449	738.98
747.634	781.98
747.819	804.51
748.003	734.88
748.188	767.65
748.373	767.65
748.557	820.89
748.742	728.74
748.927	734.88
749.111	755.36
749.296	730.78
749.481	765.6
749.665	761.5
749.85	759.46
750.034	771.74
750.219	732.83
750.404	706.21
750.588	710.3
750.773	716.45
750.957	665.25
751.141	687.78
751.326	691.87
751.51	587.43
751.695	734.88
751.879	616.1
752.064	700.06
752.248	736.93
752.432	693.92
752.617	659.1
752.801	722.59
752.985	614.05
753.17	679.58
753.354	593.57
753.538	550.56
753.722	597.67
753.907	648.86
754.091	642.72
754.275	599.71
754.459	679.58
754.643	669.34
754.828	665.25
755.012	634.53
755.196	603.81
755.38	693.92
755.564	597.67
755.748	632.48
755.932	618.15
756.116	622.24
756.3	628.39
756.484	562.85
756.668	575.14
756.852	491.17
757.036	603.81
757.22	528.03
757.404	493.22
757.588	622.24
757.772	568.99
757.956	579.23
758.14	534.18
758.323	530.08
758.507	587.43
758.691	487.08
758.875	538.27
759.059	542.37
759.242	528.03
759.426	552.61
759.61	536.23
759.794	476.84
759.977	528.03
760.161	573.09
760.345	566.95
760.528	505.51
760.712	448.16
760.895	493.22
761.079	491.17
761.263	509.6
761.446	509.6
761.63	509.6
761.813	482.98
761.997	536.23
762.18	515.75
762.364	591.52
762.547	452.26
762.731	538.27
762.914	435.88
763.098	419.49
763.281	464.55
763.464	478.88
763.648	478.88
763.831	585.38
764.015	419.49
764.198	462.5
764.381	437.92
764.564	460.45
764.748	372.39
764.931	468.64
765.114	550.56
765.297	478.88
765.481	372.39
765.664	407.2
765.847	423.59
766.03	480.93
766.213	435.88
766.397	456.36
766.58	480.93
766.763	480.93
766.946	425.64
767.129	439.97
767.312	317.09
767.495	472.74
767.678	452.26
767.861	476.84
768.044	407.2
768.227	425.64
768.41	476.84
768.593	462.5
768.776	470.69
768.959	450.21
769.142	435.88
769.324	425.64
769.507	435.88
769.69	419.49
769.873	362.15
770.056	421.54
770.239	370.34
770.421	407.2
770.604	450.21
770.787	468.64
770.97	399.01
771.152	351.91
771.335	370.34
771.518	339.62
771.7	341.67
771.883	448.16
772.066	323.24
772.248	444.07
772.431	421.54
772.613	329.38
772.796	435.88
772.978	341.67
773.161	370.34
773.343	374.44
773.526	323.24
773.708	421.54
773.891	327.33
774.073	419.49
774.256	327.33
774.438	374.44
774.621	362.15
774.803	370.34
774.985	358.05
775.168	433.83
775.35	374.44
775.532	396.96
775.715	331.43
775.897	366.25
776.079	360.1
776.261	304.81
776.444	284.33
776.626	263.85
776.808	298.66
776.99	274.09
777.173	327.33
777.355	343.72
777.537	315.05
777.719	298.66
777.901	282.28
778.083	302.76
778.265	276.13
778.447	399.01
778.629	341.67
778.811	298.66
778.993	278.18
779.175	288.42
779.357	372.39
779.539	233.13
779.721	278.18
779.903	296.61
780.085	313
780.267	325.29
780.449	313
780.631	360.1
780.812	272.04
780.994	329.38
781.176	294.57
781.358	282.28
781.54	235.18
781.721	321.19
781.903	272.04
782.085	263.85
782.267	243.37
782.448	241.32
782.63	212.65
782.812	280.23
782.993	249.51
783.175	296.61
783.357	267.94
783.538	325.29
783.72	245.41
783.901	272.04
784.083	198.31
784.264	235.18
784.446	181.93
784.627	323.24
784.809	231.08
784.99	257.7
785.172	265.89
785.353	224.94
785.535	194.22
785.716	167.59
785.897	243.37
786.079	224.94
786.26	231.08
786.441	251.56
786.623	212.65
786.804	284.33
786.985	181.93
787.167	214.7
787.348	249.51
787.529	253.61
787.71	116.39
787.891	214.7
788.073	202.41
788.254	177.83
788.435	263.85
788.616	110.25
788.797	190.12
788.978	173.74
789.159	204.46
789.34	206.5
789.522	208.55
789.703	140.97
789.884	128.68
790.065	163.5
790.246	186.02
790.427	220.84
790.607	212.65
790.788	75.43
790.969	145.06
791.15	165.54
791.331	120.49
791.512	181.93
791.693	171.69
791.874	202.41
792.054	151.21
792.235	198.31
792.416	235.18
792.597	235.18
792.778	200.36
792.958	136.87
793.139	122.54
793.32	159.4
793.5	208.55
793.681	167.59
793.862	192.17
794.042	132.78
794.223	138.92
794.404	190.12
794.584	100.01
794.765	196.26
794.945	167.59
795.126	157.35
795.306	138.92
795.487	214.7
795.667	100.01
795.848	194.22
796.028	124.58
796.209	157.35
796.389	186.02
796.57	165.54
796.75	126.63
796.93	143.02
797.111	190.12
797.291	136.87
797.471	138.92
797.652	198.31
797.832	120.49
798.012	157.35
798.192	120.49
798.373	83.63
798.553	149.16
798.733	175.78
798.913	179.88
799.093	202.41
799.274	155.3
799.454	155.3
799.634	153.26
799.814	165.54
799.994	161.45
800.174	206.5
800.354	110.25
800.534	222.89
800.714	128.68
800.894	69.29
801.074	157.35
801.254	67.24
801.434	163.5
801.614	69.29
801.794	57
801.974	394.92
802.154	143.02
802.334	116.39
802.514	114.34
802.693	106.15
802.873	116.39
803.053	108.2
803.233	120.49
803.413	108.2
803.592	59.05
803.772	42.67
803.952	95.91
804.131	69.29
804.311	93.87
804.491	132.78
804.67	91.82
804.85	134.82
805.03	212.65
805.209	102.06
805.389	87.72
805.568	126.63
805.748	63.15
805.928	132.78
806.107	124.58
806.287	61.1
806.466	112.3
806.646	9.9
806.825	87.72
807.004	85.67
807.184	97.96
807.363	118.44
807.543	81.58
807.722	100.01
807.901	126.63
808.081	167.59
808.26	140.97
808.439	102.06
808.619	128.68
808.798	100.01
808.977	126.63
809.156	124.58
809.336	59.05
809.515	124.58
809.694	81.58
809.873	118.44
810.052	79.53
810.231	118.44
810.411	163.5
810.59	145.06
810.769	97.96
810.948	93.87
811.127	126.63
811.306	75.43
811.485	71.34
811.664	136.87
811.843	34.47
812.022	42.67
812.201	112.3
812.38	83.63
812.559	102.06
812.737	132.78
812.916	34.47
813.095	85.67
813.274	93.87
813.453	140.97
813.632	46.76
813.811	77.48
813.989	7.85
814.168	124.58
814.347	61.1
814.526	50.86
814.704	91.82
814.883	91.82
815.062	79.53
815.24	79.53
815.419	126.63
815.598	132.78
815.776	95.91
815.955	52.91
816.133	44.71
816.312	59.05
816.49	40.62
816.669	108.2
816.847	36.52
817.026	59.05
817.204	36.52
817.383	124.58
817.561	87.72
817.74	97.96
817.918	5.8
818.097	104.11
818.275	77.48
818.453	65.19
818.632	28.33
818.81	91.82
818.988	83.63
819.167	69.29
819.345	3.75
819.523	57
819.701	36.52
819.879	85.67
820.058	-2.39
820.236	87.72
820.414	83.63
820.592	-4.44
820.77	91.82
820.948	11.95
821.127	79.53
821.305	97.96
821.483	57
821.661	57
821.839	59.05
822.017	20.14
822.195	75.43
822.373	65.19
822.551	38.57
822.729	18.09
822.907	18.09
823.085	134.82
823.262	54.95
823.44	22.19
823.618	-35.16
823.796	44.71
823.974	34.47
824.152	24.23
824.329	59.05
824.507	3.75
824.685	46.76
824.863	54.95
825.04	75.43
825.218	61.1
825.396	108.2
825.574	-22.87
825.751	30.38
825.929	77.48
826.107	57
826.284	93.87
826.462	112.3
826.639	-26.96
826.817	40.62
826.994	-33.11
827.172	44.71
827.349	40.62
827.527	61.1
827.704	61.1
827.882	73.39
828.059	9.9
828.237	-18.77
828.414	75.43
828.591	50.86
828.769	9.9
828.946	50.86
829.124	48.81
829.301	32.43
829.478	85.67
829.655	52.91
829.833	108.2
830.01	81.58
830.187	59.05
830.364	42.67
830.542	140.97
830.719	13.99
830.896	38.57
831.073	85.67
831.25	52.91
831.427	77.48
831.604	-10.58
831.782	100.01
831.959	50.86
832.136	116.39
832.313	114.34
832.49	108.2
832.667	42.67
832.844	65.19
833.021	102.06
833.198	9.9
833.374	54.95
833.551	36.52
833.728	11.95
833.905	-18.77
834.082	108.2
834.259	7.85
834.436	34.47
834.612	-2.39
834.789	46.76
834.966	-39.25
835.143	36.52
835.319	18.09
835.496	59.05
835.673	77.48
835.85	36.52
836.026	-14.68
836.203	36.52
836.38	-78.16
836.556	100.01
836.733	36.52
836.909	7.85
837.086	104.11
837.262	54.95
837.439	3.75
837.616	-2.39
837.792	-2.39
837.968	124.58
838.145	79.53
838.321	40.62
838.498	34.47
838.674	57
838.851	50.86
839.027	54.95
839.203	26.28
839.38	-37.2
839.556	-2.39
839.732	-0.34
839.909	-22.87
840.085	93.87
840.261	11.95
840.437	9.9
840.614	5.8
840.79	93.87
840.966	26.28
841.142	54.95
841.318	50.86
841.494	30.38
841.671	-14.68
841.847	-22.87
842.023	22.19
842.199	30.38
842.375	-49.49
842.551	16.04
842.727	-55.64
842.903	67.24
843.079	20.14
843.255	28.33
843.431	24.23
843.607	30.38
843.783	36.52
843.959	102.06
844.134	22.19
844.31	75.43
844.486	91.82
844.662	30.38
844.838	38.57
845.013	18.09
845.189	63.15
845.365	61.1
845.541	7.85
845.716	20.14
845.892	1.71
846.068	100.01
846.244	30.38
846.419	34.47
846.595	7.85
846.77	-78.16
846.946	61.1
847.122	69.29
847.297	-26.96
847.473	34.47
847.648	20.14
847.824	13.99
847.999	-12.63
848.175	13.99
848.35	63.15
848.526	-6.49
848.701	75.43
848.876	57
849.052	69.29
849.227	48.81
849.403	-22.87
849.578	34.47
849.753	26.28
849.929	28.33
850.104	3.75
850.279	-39.25
850.454	126.63
850.63	11.95
850.805	-4.44
850.98	1.71
851.155	52.91
851.33	52.91
851.505	34.47
851.681	93.87
851.856	5.8
852.031	73.39
852.206	34.47
852.381	67.24
852.556	-10.58
852.731	9.9
852.906	77.48
853.081	7.85
853.256	-12.63
853.431	24.23
853.606	13.99
853.781	11.95
853.956	-84.31
854.131	42.67
854.305	36.52
854.48	44.71
854.655	46.76
854.83	69.29
855.005	24.23
855.18	44.71
855.354	81.58
855.529	-69.97
855.704	36.52
855.879	34.47
856.053	30.38
856.228	20.14
856.403	7.85
856.577	42.67
856.752	67.24
856.926	38.57
857.101	-16.73
857.276	-39.25
857.45	3.75
857.625	108.2
857.799	-57.68
857.974	7.85
858.148	9.9
858.323	63.15
858.497	73.39
858.672	54.95
858.846	13.99
859.02	7.85
859.195	42.67
859.369	5.8
859.543	-16.73
859.718	-26.96
859.892	73.39
860.066	50.86
860.241	-8.53
860.415	-18.77
860.589	26.28
860.763	87.72
860.938	26.28
861.112	44.71
861.286	42.67
861.46	28.33
861.634	-61.78
861.808	95.91
861.982	57
862.157	-0.34
862.331	9.9
862.505	38.57
862.679	-18.77
862.853	83.63
863.027	-55.64
863.201	28.33
863.375	79.53
863.549	5.8
863.722	-4.44
863.896	-35.16
864.07	7.85
864.244	-45.4
864.418	-18.77
864.592	67.24
864.766	-22.87
864.939	46.76
865.113	83.63
865.287	22.19
865.461	46.76
865.634	-18.77
865.808	67.24
865.982	42.67
866.156	-2.39
866.329	18.09
866.503	-22.87
866.676	-4.44
866.85	9.9
867.024	22.19
867.197	5.8
867.371	42.67
867.544	-4.44
867.718	-29.01
867.891	24.23
868.065	24.23
868.238	-6.49
868.412	69.29
868.585	-26.96
868.759	36.52
868.932	-6.49
869.105	9.9
869.279	44.71
869.452	3.75
869.625	-6.49
869.799	7.85
869.972	-24.92
870.145	-6.49
870.319	-55.64
870.492	42.67
870.665	26.28
870.838	-4.44
871.011	-0.34
871.185	20.14
871.358	57
871.531	44.71
871.704	-45.4
871.877	-10.58
872.05	5.8
872.223	63.15
872.396	20.14
872.569	50.86
872.742	-14.68
872.915	-69.97
873.088	-39.25
873.261	38.57
873.434	57
873.607	38.57
873.78	-22.87
873.953	-0.34
874.126	20.14
874.299	71.34
874.471	-35.16
874.644	57
874.817	79.53
874.99	40.62
875.163	-53.59
875.335	34.47
875.508	44.71
875.681	59.05
875.853	26.28
876.026	20.14
876.199	85.67
876.371	40.62
876.544	-18.77
876.717	46.76
876.889	28.33
877.062	42.67
877.234	7.85
877.407	11.95
877.579	24.23
877.752	13.99
877.924	30.38
878.097	-22.87
878.269	13.99
878.442	40.62
878.614	7.85
878.786	48.81
878.959	36.52
879.131	3.75
879.303	-22.87
879.476	52.91
879.648	-2.39
879.82	11.95
879.993	-69.97
880.165	44.71
880.337	-12.63
880.509	67.24
880.681	-35.16
880.854	28.33
881.026	11.95
881.198	9.9
881.37	-20.82
881.542	46.76
881.714	18.09
881.886	28.33
882.058	-37.2
882.23	13.99
882.402	-37.2
882.574	16.04
882.746	-12.63
882.918	-14.68
883.09	38.57
883.262	-4.44
883.434	-4.44
883.606	26.28
883.778	-18.77
883.95	-29.01
884.122	-18.77
884.293	26.28
884.465	3.75
884.637	-0.34
884.809	-33.11
884.98	20.14
885.152	9.9
885.324	3.75
885.496	11.95
885.667	-4.44
885.839	38.57
886.011	-12.63
886.182	9.9
886.354	30.38
886.525	-8.53
886.697	36.52
886.869	-4.44
887.04	7.85
887.212	57
887.383	9.9
887.555	-4.44
887.726	-74.07
887.897	40.62
888.069	-59.73
888.24	26.28
888.412	67.24
888.583	26.28
888.754	-4.44
888.926	-4.44
889.097	-72.02
889.268	18.09
889.44	26.28
889.611	-10.58
889.782	13.99
889.953	-61.78
890.125	11.95
890.296	-0.34
890.467	-18.77
890.638	13.99
890.809	34.47
890.98	-37.2
891.151	22.19
891.323	-14.68
891.494	-2.39
891.665	16.04
891.836	36.52
892.007	-69.97
892.178	1.71
892.349	1.71
892.52	1.71
892.691	-45.4
892.862	5.8
893.032	30.38
893.203	-2.39
893.374	1.71
893.545	38.57
893.716	-2.39
893.887	-2.39
894.057	-18.77
894.228	81.58
894.399	59.05
894.57	44.71
894.74	-6.49
894.911	-12.63
895.082	40.62
895.253	9.9
895.423	-55.64
895.594	-2.39
895.764	5.8
895.935	18.09
896.106	48.81
896.276	7.85
896.447	-39.25
896.617	-53.59
896.788	30.38
896.958	3.75
897.129	40.62
897.299	-31.06
897.47	-14.68
897.64	69.29
897.81	18.09
897.981	9.9
898.151	-2.39
898.322	32.43
898.492	-55.64
898.662	54.95
898.832	26.28
899.003	13.99
899.173	-45.4
899.343	3.75
899.513	38.57
