Data from USB4F104151__86__13-54-27-170.txt Node

Date: Thu Mar 13 13:54:27 EDT 2025
User: louis
Spectrometer: USB4F10415
Trigger mode: 4
Integration Time (sec): 1.000000E-2
Scans to average: 1
Electric dark correction enabled: true
Nonlinearity correction enabled: false
Boxcar width: 0
XAxis mode: Wavelengths
Number of Pixels in Spectrum: 3648
>>>>>Begin Spectral Data<<<<<
178.204	35.67
178.424	35.67
178.644	35.67
178.864	-11.43
179.084	-11.43
179.304	-9.39
179.524	-15.53
179.744	11.09
179.964	37.72
180.184	-38.06
180.404	-27.82
180.624	-17.58
180.844	17.24
181.064	-31.91
181.283	70.48
181.503	-62.63
181.723	66.39
181.943	45.91
182.163	19.29
182.383	2.9
182.602	-21.67
182.822	2.9
183.042	43.86
183.262	-40.11
183.482	2.9
183.701	60.24
183.921	-1.19
184.141	-99.5
184.361	-5.29
184.58	-1.19
184.8	4.95
185.02	35.67
185.239	21.33
185.459	-25.77
185.679	29.52
185.898	-7.34
186.118	-79.02
186.338	4.95
186.557	7
186.777	31.57
186.997	7
187.216	33.62
187.436	15.19
187.655	58.2
187.875	4.95
188.095	-52.39
188.314	90.96
188.534	43.86
188.753	68.44
188.973	107.35
189.192	15.19
189.412	15.19
189.631	9.05
189.851	50
190.07	68.44
190.29	23.38
190.509	66.39
190.729	84.82
190.948	41.81
191.168	76.63
191.387	-17.58
191.607	-29.87
191.826	56.15
192.045	21.33
192.265	-29.87
192.484	-31.91
192.704	13.14
192.923	39.76
193.142	-36.01
193.362	29.52
193.581	35.67
193.8	0.85
194.02	33.62
194.239	19.29
194.458	19.29
194.678	-44.2
194.897	39.76
195.116	66.39
195.335	-56.49
195.555	35.67
195.774	0.85
195.993	66.39
196.212	-13.48
196.432	-1.19
196.651	66.39
196.87	-11.43
197.089	21.33
197.308	-36.01
197.528	-50.35
197.747	-17.58
197.966	74.58
198.185	37.72
198.404	7
198.623	90.96
198.842	-3.24
199.062	72.53
199.281	47.96
199.5	-5.29
199.719	13.14
199.938	-9.39
200.157	15.19
200.376	25.43
200.595	70.48
200.814	11.09
201.033	84.82
201.252	17.24
201.471	-38.06
201.69	-21.67
201.909	45.91
202.128	-13.48
202.347	-1.19
202.566	0.85
202.785	62.29
203.004	68.44
203.223	17.24
203.442	78.68
203.661	9.05
203.879	-13.48
204.098	62.29
204.317	31.57
204.536	-3.24
204.755	50
204.974	86.87
205.193	58.2
205.411	58.2
205.63	19.29
205.849	86.87
206.068	-13.48
206.287	-31.91
206.505	56.15
206.724	25.43
206.943	2.9
207.162	33.62
207.381	-7.34
207.599	-5.29
207.818	-15.53
208.037	29.52
208.255	17.24
208.474	23.38
208.693	7
208.911	-23.72
209.13	-5.29
209.349	68.44
209.567	39.76
209.786	17.24
210.005	41.81
210.223	39.76
210.442	31.57
210.661	-1.19
210.879	93.01
211.098	72.53
211.316	-21.67
211.535	70.48
211.753	2.9
211.972	68.44
212.191	60.24
212.409	37.72
212.628	43.86
212.846	19.29
213.065	-7.34
213.283	64.34
213.502	-11.43
213.72	27.48
213.938	54.1
214.157	41.81
214.375	9.05
214.594	-17.58
214.812	27.48
215.031	31.57
215.249	-17.58
215.467	-1.19
215.686	9.05
215.904	-21.67
216.122	7
216.341	64.34
216.559	72.53
216.778	62.29
216.996	21.33
217.214	-19.63
217.432	41.81
217.651	50
217.869	74.58
218.087	54.1
218.306	-54.44
218.524	15.19
218.742	-1.19
218.96	70.48
219.179	-9.39
219.397	-11.43
219.615	-7.34
219.833	17.24
220.051	-50.35
220.27	31.57
220.488	-27.82
220.706	27.48
220.924	62.29
221.142	-9.39
221.36	-40.11
221.578	19.29
221.796	25.43
222.015	21.33
222.233	58.2
222.451	43.86
222.669	15.19
222.887	7
223.105	54.1
223.323	21.33
223.541	0.85
223.759	33.62
223.977	62.29
224.195	-17.58
224.413	2.9
224.631	25.43
224.849	-46.25
225.067	64.34
225.285	-11.43
225.503	88.92
225.721	27.48
225.939	-5.29
226.157	33.62
226.375	29.52
226.592	13.14
226.81	23.38
227.028	78.68
227.246	39.76
227.464	19.29
227.682	78.68
227.9	7
228.117	-9.39
228.335	-1.19
228.553	107.35
228.771	76.63
228.989	47.96
229.206	-13.48
229.424	70.48
229.642	4.95
229.86	2.9
230.077	39.76
230.295	47.96
230.513	70.48
230.731	74.58
230.948	27.48
231.166	88.92
231.384	58.2
231.601	27.48
231.819	-27.82
232.037	-25.77
232.254	-7.34
232.472	-21.67
232.689	103.25
232.907	-19.63
233.125	95.06
233.342	37.72
233.56	-62.63
233.777	64.34
233.995	47.96
234.213	-9.39
234.43	19.29
234.648	60.24
234.865	93.01
235.083	-1.19
235.3	-23.72
235.518	-25.77
235.735	35.67
235.953	9.05
236.17	11.09
236.388	-44.2
236.605	-25.77
236.822	58.2
237.04	39.76
237.257	19.29
237.475	9.05
237.692	43.86
237.909	-3.24
238.127	54.1
238.344	19.29
238.562	11.09
238.779	27.48
238.996	-21.67
239.214	-3.24
239.431	39.76
239.648	-27.82
239.865	7
240.083	-46.25
240.3	52.05
240.517	21.33
240.735	-27.82
240.952	-5.29
241.169	19.29
241.386	-1.19
241.603	-48.3
241.821	43.86
242.038	-54.44
242.255	27.48
242.472	-7.34
242.689	64.34
242.907	23.38
243.124	29.52
243.341	99.16
243.558	54.1
243.775	4.95
243.992	-64.68
244.209	62.29
244.426	-33.96
244.643	50
244.86	-11.43
245.078	15.19
245.295	90.96
245.512	66.39
245.729	-36.01
245.946	0.85
246.163	15.19
246.38	25.43
246.597	41.81
246.814	13.14
247.031	31.57
247.248	-36.01
247.464	-62.63
247.681	11.09
247.898	68.44
248.115	21.33
248.332	54.1
248.549	-11.43
248.766	-5.29
248.983	23.38
249.2	54.1
249.417	17.24
249.633	39.76
249.85	2.9
250.067	93.01
250.284	43.86
250.501	-29.87
250.717	50
250.934	41.81
251.151	25.43
251.368	37.72
251.585	-27.82
251.801	-29.87
252.018	-91.31
252.235	-33.96
252.451	25.43
252.668	-5.29
252.885	-9.39
253.102	43.86
253.318	39.76
253.535	-3.24
253.752	66.39
253.968	2.9
254.185	-52.39
254.401	21.33
254.618	41.81
254.835	35.67
255.051	99.16
255.268	2.9
255.484	11.09
255.701	78.68
255.917	60.24
256.134	41.81
256.351	9.05
256.567	2.9
256.784	54.1
257	21.33
257.217	19.29
257.433	25.43
257.65	19.29
257.866	64.34
258.082	37.72
258.299	-38.06
258.515	-36.01
258.732	45.91
258.948	-23.72
259.165	-52.39
259.381	41.81
259.597	21.33
259.814	19.29
260.03	0.85
260.246	-1.19
260.463	-36.01
260.679	72.53
260.895	23.38
261.112	39.76
261.328	58.2
261.544	50
261.761	80.72
261.977	11.09
262.193	66.39
262.409	23.38
262.626	68.44
262.842	-17.58
263.058	-38.06
263.274	52.05
263.49	33.62
263.707	-3.24
263.923	-9.39
264.139	52.05
264.355	4.95
264.571	-1.19
264.787	47.96
265.004	21.33
265.22	-11.43
265.436	39.76
265.652	-13.48
265.868	15.19
266.084	7
266.3	23.38
266.516	68.44
266.732	31.57
266.948	-50.35
267.164	-7.34
267.38	41.81
267.596	17.24
267.812	66.39
268.028	41.81
268.244	121.68
268.46	37.72
268.676	29.52
268.892	41.81
269.108	21.33
269.324	39.76
269.54	-23.72
269.756	60.24
269.972	-46.25
270.188	41.81
270.403	37.72
270.619	-54.44
270.835	-15.53
271.051	19.29
271.267	-11.43
271.483	4.95
271.698	29.52
271.914	-3.24
272.13	64.34
272.346	54.1
272.562	23.38
272.777	54.1
272.993	45.91
273.209	11.09
273.425	-19.63
273.64	27.48
273.856	33.62
274.072	19.29
274.287	56.15
274.503	41.81
274.719	80.72
274.934	27.48
275.15	-9.39
275.366	2.9
275.581	37.72
275.797	68.44
276.012	29.52
276.228	0.85
276.444	70.48
276.659	7
276.875	17.24
277.09	72.53
277.306	88.92
277.521	60.24
277.737	-40.11
277.952	41.81
278.168	58.2
278.383	-1.19
278.599	-5.29
278.814	-72.87
279.03	33.62
279.245	29.52
279.461	25.43
279.676	9.05
279.892	-44.2
280.107	-31.91
280.322	-36.01
280.538	58.2
280.753	-13.48
280.969	103.25
281.184	-29.87
281.399	-5.29
281.615	47.96
281.83	31.57
282.045	41.81
282.26	58.2
282.476	-7.34
282.691	-17.58
282.906	64.34
283.122	-15.53
283.337	-21.67
283.552	37.72
283.767	2.9
283.983	64.34
284.198	62.29
284.413	74.58
284.628	25.43
284.843	54.1
285.058	37.72
285.274	33.62
285.489	95.06
285.704	80.72
285.919	72.53
286.134	95.06
286.349	7
286.564	25.43
286.779	-9.39
286.995	119.64
287.21	-48.3
287.425	62.29
287.64	-44.2
287.855	11.09
288.07	25.43
288.285	7
288.5	60.24
288.715	50
288.93	27.48
289.145	19.29
289.36	39.76
289.575	72.53
289.79	7
290.004	-27.82
290.219	27.48
290.434	17.24
290.649	11.09
290.864	-3.24
291.079	-17.58
291.294	-33.96
291.509	-50.35
291.724	-48.3
291.938	-13.48
292.153	9.05
292.368	-7.34
292.583	33.62
292.798	47.96
293.012	84.82
293.227	45.91
293.442	-13.48
293.657	117.59
293.871	64.34
294.086	11.09
294.301	76.63
294.516	15.19
294.73	9.05
294.945	9.05
295.16	47.96
295.374	-11.43
295.589	45.91
295.804	78.68
296.018	39.76
296.233	23.38
296.447	39.76
296.662	25.43
296.877	11.09
297.091	-48.3
297.306	84.82
297.52	-3.24
297.735	52.05
297.949	-5.29
298.164	-23.72
298.378	35.67
298.593	19.29
298.807	7
299.022	25.43
299.236	11.09
299.451	41.81
299.665	37.72
299.88	-27.82
300.094	-31.91
300.309	31.57
300.523	19.29
300.737	25.43
300.952	27.48
301.166	37.72
301.381	2.9
301.595	13.14
301.809	-62.63
302.024	2.9
302.238	-1.19
302.452	27.48
302.667	31.57
302.881	15.19
303.095	31.57
303.309	45.91
303.524	66.39
303.738	43.86
303.952	0.85
304.166	78.68
304.381	7
304.595	68.44
304.809	-42.15
305.023	29.52
305.237	17.24
305.452	11.09
305.666	54.1
305.88	90.96
306.094	56.15
306.308	64.34
306.522	-21.67
306.736	-7.34
306.95	88.92
307.164	29.52
307.379	64.34
307.593	47.96
307.807	41.81
308.021	41.81
308.235	47.96
308.449	52.05
308.663	43.86
308.877	31.57
309.091	-1.19
309.305	23.38
309.519	2.9
309.733	56.15
309.947	-1.19
310.161	7
310.374	23.38
310.588	4.95
310.802	33.62
311.016	50
311.23	27.48
311.444	13.14
311.658	80.72
311.872	56.15
312.085	13.14
312.299	33.62
312.513	7
312.727	62.29
312.941	52.05
313.154	31.57
313.368	66.39
313.582	74.58
313.796	25.43
314.009	27.48
314.223	0.85
314.437	80.72
314.651	39.76
314.864	43.86
315.078	25.43
315.292	15.19
315.505	54.1
315.719	33.62
315.933	-58.54
316.146	23.38
316.36	-23.72
316.573	-13.48
316.787	4.95
317.001	-29.87
317.214	19.29
317.428	68.44
317.641	43.86
317.855	-13.48
318.068	-50.35
318.282	43.86
318.495	50
318.709	72.53
318.922	58.2
319.136	47.96
319.349	7
319.563	78.68
319.776	54.1
319.99	52.05
320.203	-1.19
320.417	56.15
320.63	88.92
320.843	4.95
321.057	41.81
321.27	58.2
321.483	35.67
321.697	45.91
321.91	27.48
322.124	66.39
322.337	4.95
322.55	-33.96
322.763	74.58
322.977	37.72
323.19	43.86
323.403	45.91
323.617	13.14
323.83	15.19
324.043	-11.43
324.256	-50.35
324.469	37.72
324.683	2.9
324.896	37.72
325.109	31.57
325.322	9.05
325.535	47.96
325.748	60.24
325.962	50
326.175	88.92
326.388	-15.53
326.601	45.91
326.814	23.38
327.027	103.25
327.24	37.72
327.453	-5.29
327.666	37.72
327.879	72.53
328.092	-40.11
328.305	86.87
328.518	-23.72
328.731	21.33
328.944	62.29
329.157	23.38
329.37	-60.59
329.583	25.43
329.796	-23.72
330.009	7
330.222	107.35
330.435	27.48
330.648	47.96
330.861	-15.53
331.073	39.76
331.286	11.09
331.499	43.86
331.712	-38.06
331.925	35.67
332.138	103.25
332.35	-40.11
332.563	-9.39
332.776	2.9
332.989	-7.34
333.202	9.05
333.414	50
333.627	90.96
333.84	0.85
334.053	78.68
334.265	-1.19
334.478	80.72
334.691	72.53
334.903	50
335.116	27.48
335.329	43.86
335.541	64.34
335.754	50
335.966	4.95
336.179	43.86
336.392	31.57
336.604	47.96
336.817	88.92
337.029	115.54
337.242	58.2
337.454	45.91
337.667	-19.63
337.88	-7.34
338.092	-42.15
338.305	47.96
338.517	54.1
338.729	52.05
338.942	37.72
339.154	58.2
339.367	39.76
339.579	17.24
339.792	9.05
340.004	54.1
340.217	-3.24
340.429	82.77
340.641	13.14
340.854	56.15
341.066	56.15
341.278	-33.96
341.491	74.58
341.703	50
341.915	11.09
342.128	19.29
342.34	4.95
342.552	58.2
342.764	64.34
342.977	76.63
343.189	-48.3
343.401	25.43
343.613	-17.58
343.826	19.29
344.038	-58.54
344.25	-7.34
344.462	23.38
344.674	105.3
344.886	23.38
345.099	0.85
345.311	74.58
345.523	90.96
345.735	-11.43
345.947	54.1
346.159	-42.15
346.371	-29.87
346.583	117.59
346.795	117.59
347.007	31.57
347.219	47.96
347.431	68.44
347.643	68.44
347.855	47.96
348.067	7
348.279	56.15
348.491	29.52
348.703	58.2
348.915	52.05
349.127	23.38
349.339	11.09
349.551	66.39
349.763	15.19
349.975	-23.72
350.187	31.57
350.399	19.29
350.61	74.58
350.822	17.24
351.034	50
351.246	25.43
351.458	-11.43
351.669	17.24
351.881	23.38
352.093	41.81
352.305	37.72
352.517	37.72
352.728	52.05
352.94	52.05
353.152	15.19
353.363	41.81
353.575	41.81
353.787	13.14
353.999	33.62
354.21	29.52
354.422	82.77
354.633	23.38
354.845	64.34
355.057	-3.24
355.268	56.15
355.48	29.52
355.692	33.62
355.903	58.2
356.115	33.62
356.326	-40.11
356.538	41.81
356.749	-17.58
356.961	56.15
357.172	35.67
357.384	2.9
357.595	39.76
357.807	66.39
358.018	23.38
358.23	-46.25
358.441	15.19
358.653	-29.87
358.864	15.19
359.075	43.86
359.287	25.43
359.498	50
359.709	-5.29
359.921	52.05
360.132	-52.39
360.344	64.34
360.555	103.25
360.766	60.24
360.977	-11.43
361.189	37.72
361.4	60.24
361.611	72.53
361.823	72.53
362.034	47.96
362.245	68.44
362.456	-15.53
362.667	-23.72
362.879	25.43
363.09	39.76
363.301	54.1
363.512	45.91
363.723	93.01
363.935	64.34
364.146	-9.39
364.357	-11.43
364.568	45.91
364.779	41.81
364.99	4.95
365.201	25.43
365.412	127.83
365.623	-25.77
365.834	13.14
366.045	15.19
366.256	66.39
366.467	13.14
366.678	60.24
366.889	19.29
367.1	9.05
367.311	21.33
367.522	17.24
367.733	33.62
367.944	82.77
368.155	41.81
368.366	39.76
368.577	80.72
368.788	39.76
368.999	9.05
369.209	47.96
369.42	70.48
369.631	2.9
369.842	39.76
370.053	0.85
370.264	47.96
370.474	68.44
370.685	21.33
370.896	17.24
371.107	70.48
371.317	27.48
371.528	-23.72
371.739	78.68
371.95	9.05
372.16	66.39
372.371	7
372.582	99.16
372.792	-56.49
373.003	13.14
373.214	2.9
373.424	72.53
373.635	64.34
373.846	68.44
374.056	19.29
374.267	70.48
374.477	-5.29
374.688	-48.3
374.898	39.76
375.109	107.35
375.319	-46.25
375.53	58.2
375.74	58.2
375.951	-25.77
376.161	58.2
376.372	39.76
376.582	25.43
376.793	25.43
377.003	25.43
377.214	66.39
377.424	78.68
377.635	35.67
377.845	-29.87
378.055	62.29
378.266	-25.77
378.476	82.77
378.686	80.72
378.897	-13.48
379.107	60.24
379.317	58.2
379.528	56.15
379.738	76.63
379.948	58.2
380.158	66.39
380.369	37.72
380.579	47.96
380.789	15.19
380.999	41.81
381.21	-3.24
381.42	29.52
381.63	105.3
381.84	52.05
382.05	39.76
382.261	47.96
382.471	68.44
382.681	-25.77
382.891	80.72
383.101	29.52
383.311	86.87
383.521	56.15
383.731	33.62
383.941	74.58
384.151	-1.19
384.361	41.81
384.571	31.57
384.781	52.05
384.991	9.05
385.201	43.86
385.411	52.05
385.621	-11.43
385.831	52.05
386.041	9.05
386.251	21.33
386.461	-19.63
386.671	64.34
386.881	58.2
387.091	43.86
387.301	41.81
387.511	-3.24
387.72	50
387.93	78.68
388.14	4.95
388.35	25.43
388.56	15.19
388.769	60.24
388.979	58.2
389.189	-15.53
389.399	31.57
389.609	84.82
389.818	21.33
390.028	-3.24
390.238	0.85
390.447	47.96
390.657	35.67
390.867	62.29
391.076	47.96
391.286	-9.39
391.496	58.2
391.705	72.53
391.915	58.2
392.125	45.91
392.334	39.76
392.544	21.33
392.753	39.76
392.963	25.43
393.172	68.44
393.382	9.05
393.591	-11.43
393.801	82.77
394.01	70.48
394.22	47.96
394.429	82.77
394.639	-27.82
394.848	66.39
395.058	45.91
395.267	54.1
395.477	13.14
395.686	56.15
395.895	88.92
396.105	117.59
396.314	19.29
396.524	80.72
396.733	68.44
396.942	123.73
397.152	74.58
397.361	37.72
397.57	146.26
397.78	170.83
397.989	97.11
398.198	56.15
398.407	45.91
398.617	29.52
398.826	76.63
399.035	90.96
399.244	29.52
399.453	154.45
399.663	146.26
399.872	25.43
400.081	117.59
400.29	52.05
400.499	19.29
400.708	60.24
400.917	72.53
401.127	72.53
401.336	142.16
401.545	54.1
401.754	127.83
401.963	133.97
402.172	70.48
402.381	117.59
402.59	37.72
402.799	123.73
403.008	76.63
403.217	88.92
403.426	68.44
403.635	162.64
403.844	66.39
404.053	113.49
404.262	140.12
404.471	154.45
404.68	131.92
404.888	56.15
405.097	105.3
405.306	129.88
405.515	105.3
405.724	82.77
405.933	99.16
406.142	179.03
406.35	99.16
406.559	174.93
406.768	97.11
406.977	121.68
407.185	123.73
407.394	115.54
407.603	103.25
407.812	154.45
408.02	195.41
408.229	160.59
408.438	166.74
408.646	226.13
408.855	111.44
409.064	187.22
409.272	164.69
409.481	217.94
409.69	195.41
409.898	164.69
410.107	234.32
410.315	228.18
410.524	222.03
410.733	283.47
410.941	232.27
411.15	269.14
411.358	260.95
411.567	306
411.775	316.24
411.984	258.9
412.192	297.81
412.401	359.25
412.609	306
412.818	377.68
413.026	328.53
413.234	396.11
413.443	312.14
413.651	318.29
413.86	473.93
414.068	406.35
414.276	512.85
414.485	475.98
414.693	512.85
414.901	471.89
415.11	510.8
415.318	473.93
415.526	592.72
415.734	553.8
415.943	656.2
416.151	535.37
416.359	666.44
416.567	688.97
416.776	641.87
416.984	721.74
417.192	719.69
417.4	699.21
417.608	674.64
417.817	867.14
418.025	801.61
418.233	826.18
418.441	910.15
418.649	965.45
418.857	897.86
419.065	971.59
419.273	889.67
419.481	1069.89
419.689	1176.39
419.897	1200.96
420.105	1141.57
420.313	1131.33
420.521	1237.83
420.729	1174.34
420.937	1211.2
421.145	1340.22
421.353	1375.04
421.561	1506.11
421.769	1401.66
421.977	1493.82
422.185	1479.49
422.393	1602.36
422.601	1723.2
422.809	1639.23
423.017	1723.2
423.224	1706.81
423.432	1813.31
423.64	1825.59
423.848	1971
424.056	1962.81
424.263	2257.71
424.471	2032.44
424.679	2077.49
424.887	2282.29
425.094	2282.29
425.302	2280.24
425.51	2431.79
425.718	2464.56
425.925	2485.04
426.133	2626.35
426.341	2765.61
426.548	2951.98
426.756	2853.67
426.964	2863.91
427.171	3109.67
427.379	3265.32
427.586	3232.55
427.794	3277.6
428.001	3384.1
428.209	3660.57
428.417	3412.77
428.624	3668.77
428.832	3783.45
429.039	3771.16
429.247	3644.19
429.454	4258.58
429.662	4512.53
429.869	4098.84
430.076	4406.03
430.284	4203.29
430.491	4401.94
430.699	4723.47
430.906	4803.34
431.114	4803.34
431.321	4932.36
431.528	5110.54
431.736	5391.11
431.943	5571.33
432.15	5366.53
432.358	5444.35
432.565	5849.85
432.772	5729.02
432.979	6232.82
433.187	6306.55
433.394	6167.29
433.601	6808.3
433.808	6673.14
434.016	6693.62
434.223	7060.2
434.43	7506.66
434.637	7148.26
434.844	7674.59
435.052	7820
435.259	7963.36
435.466	7858.91
435.673	7535.33
435.88	8145.63
436.087	8796.88
436.294	8678.1
436.501	8436.44
436.708	8590.03
436.915	8923.85
437.122	9231.05
437.329	9413.32
437.537	9734.85
437.743	9956.03
437.95	9788.1
438.157	10191.55
438.364	10324.66
438.571	10511.03
438.778	10678.96
438.985	11563.68
439.192	10957.49
439.399	11332.26
439.606	11147.95
439.813	11920.03
440.02	12640.92
440.227	12280.47
440.433	12368.54
440.64	12720.79
440.847	12659.35
441.054	12827.28
441.261	13669
441.467	13585.03
441.674	13904.51
441.881	14414.46
442.088	14336.63
442.294	14506.62
442.501	14590.58
442.708	14867.06
442.914	15415.91
443.121	15975.01
443.328	15706.73
443.534	16634.46
443.741	16085.6
443.948	16104.03
444.154	17234.51
444.361	17099.34
444.568	17234.51
444.774	17171.02
444.981	17492.55
445.187	17926.72
445.394	18635.32
445.6	18414.14
445.807	20253.22
446.013	19442.22
446.22	19587.63
446.426	20572.7
446.633	20707.87
446.839	21443.09
447.046	20576.8
447.252	21555.72
447.459	21703.18
447.665	21651.98
447.871	22592
448.078	23429.62
448.284	22362.62
448.491	22639.1
448.697	23837.16
448.903	24304.1
449.11	24181.22
449.316	23822.83
449.522	24449.5
449.728	24850.91
449.935	25389.52
450.141	25039.32
450.347	25633.23
450.553	24668.64
450.76	25174.49
450.966	25952.71
451.172	25612.75
451.378	26368.45
451.584	25657.81
451.791	26567.1
451.997	26374.59
452.203	26960.31
452.409	26874.3
452.615	26419.65
452.821	25952.71
453.027	25262.55
453.233	26431.94
453.44	25524.69
453.646	25915.85
453.852	25934.28
454.058	26020.3
454.264	25504.21
454.47	25930.19
454.676	25199.06
454.882	26280.39
455.088	24091.11
455.294	24459.74
455.5	24629.73
455.705	24994.26
455.911	23847.4
456.117	23341.55
456.323	23200.24
456.529	22159.88
456.735	22778.36
456.941	22391.3
457.147	21664.27
457.352	20972.05
457.558	20826.65
457.764	21060.12
457.97	20374.05
458.176	20073
458.381	20095.52
458.587	19315.25
458.793	19202.61
458.999	18037.31
459.204	19536.43
459.41	19085.87
459.616	17654.34
459.821	17799.75
460.027	17607.24
460.233	17193.55
460.438	16642.65
460.644	16831.06
460.85	15854.18
461.055	15661.67
461.261	15278.7
461.466	14453.37
461.672	14023.3
461.878	15157.87
462.083	13941.38
462.289	13810.31
462.494	13644.42
462.7	13073.04
462.905	12765.84
463.111	13093.52
463.316	13255.31
463.522	12851.86
463.727	12866.19
463.932	12935.82
464.138	12929.68
464.343	12931.73
464.549	12524.18
464.754	12804.75
464.959	12827.28
465.165	12722.84
465.37	12221.08
465.575	11870.88
465.781	12393.11
465.986	12497.56
466.191	11944.61
466.397	11721.38
466.602	11190.95
466.807	11502.25
467.012	11459.24
467.218	11436.71
467.423	11172.52
467.628	11307.69
467.833	11905.7
468.038	11612.84
468.244	11131.56
468.449	11496.1
468.654	11010.73
468.859	11072.17
469.064	11063.98
469.269	10580.66
469.474	10642.1
469.679	10744.5
469.885	10439.35
470.09	10777.26
470.295	10617.52
470.5	10314.42
470.705	10451.64
470.91	10232.51
471.115	10042.04
471.32	10554.04
471.525	10287.8
471.73	9837.25
471.935	9761.47
472.139	9456.33
472.344	9695.94
472.549	9716.42
472.754	9501.38
472.959	9478.85
473.164	9190.09
473.369	9095.88
473.574	9370.31
473.778	9147.08
473.983	9288.39
474.188	9077.45
474.393	8530.64
474.598	8766.16
474.802	8760.02
475.007	8594.13
475.212	8514.26
475.417	8231.64
475.621	8426.2
475.826	8479.44
476.031	8223.45
476.235	8078.04
476.44	8104.67
476.645	8088.28
476.849	7946.97
477.054	8047.32
477.259	7826.14
477.463	7779.04
477.668	7607.01
477.872	7695.07
478.077	7557.86
478.282	7207.66
478.486	7564
478.691	7281.38
478.895	7353.06
479.1	7299.81
479.304	7127.78
479.509	6970.09
479.713	7240.42
479.918	6806.25
480.122	6779.63
480.326	7135.98
480.531	6986.47
480.735	6769.39
480.94	6820.59
481.144	7099.11
481.348	6646.51
481.553	6904.56
481.757	6548.21
481.961	6779.63
482.166	6986.47
482.37	6793.97
482.574	6664.94
482.778	6542.07
482.983	6810.35
483.187	6550.26
483.391	6824.69
483.595	6556.4
483.8	6488.82
484.004	6697.71
484.208	6781.68
484.412	6714.09
484.616	6703.86
484.821	6705.9
485.025	6634.22
485.229	6638.32
485.433	6693.62
485.637	6603.5
485.841	6544.11
486.045	6675.18
486.249	6781.68
486.453	6468.34
486.657	6716.14
486.861	6802.16
487.065	6445.81
487.269	6673.14
487.473	6587.12
487.677	6593.26
487.881	6707.95
488.085	6550.26
488.289	6890.22
488.493	6605.55
488.697	6617.84
488.901	6730.48
489.105	6906.6
489.309	6822.64
489.512	6890.22
489.716	6839.02
489.92	6480.63
490.124	6808.3
490.328	6933.23
490.531	6939.37
490.735	7058.15
490.939	6861.55
491.143	6957.8
491.346	6738.67
491.55	7070.44
491.754	7017.19
491.958	7004.91
492.161	7031.53
492.365	7281.38
492.569	7080.68
492.772	7054.06
492.976	7052.01
493.18	7316.2
493.383	7205.61
493.587	7348.97
493.79	7420.64
493.994	7346.92
494.197	7394.02
494.401	7371.49
494.605	7500.51
494.808	7809.76
495.012	7578.34
495.215	7693.02
495.419	7799.52
495.622	7637.73
495.825	7914.2
496.029	8018.65
496.232	8026.84
496.436	7949.02
496.639	8200.92
496.843	8053.47
497.046	8436.44
497.249	8299.22
497.453	8411.86
497.656	8534.74
497.859	8475.35
498.063	8690.38
498.266	8690.38
498.469	8717.01
498.673	9083.59
498.876	8981.2
499.079	9278.15
499.282	8989.39
499.485	9173.71
499.689	9446.09
499.892	9435.85
500.095	9665.22
500.298	9919.17
500.501	9781.95
500.705	10015.42
500.908	10007.23
501.111	10242.75
501.314	10322.62
501.517	10425.01
501.72	10545.84
501.923	10558.13
502.126	10848.94
502.329	11029.17
502.532	10930.86
502.735	11358.89
502.938	11242.15
503.141	11449
503.344	11563.68
503.547	11614.88
503.75	11768.48
503.953	12006.05
504.156	12223.13
504.359	12249.75
504.562	12468.89
504.765	12559
504.968	12536.47
505.17	12845.71
505.373	12919.44
505.576	13251.21
505.779	13421.19
505.982	13367.95
506.185	13789.83
506.387	13693.57
506.59	13816.45
506.793	14099.07
506.996	13996.67
507.198	14520.95
507.401	14582.39
507.604	14566.01
507.807	14957.17
508.009	15039.09
508.212	14940.79
508.415	15458.92
508.617	15796.84
508.82	15723.11
509.022	15671.91
509.225	16300.64
509.428	16239.2
509.63	16224.86
509.833	16468.57
510.035	17089.1
510.238	16878.16
510.44	17187.41
510.643	17619.53
510.845	17502.79
511.048	17738.31
511.25	17633.86
511.453	18063.94
511.655	18717.24
511.858	18496.06
512.06	18690.62
512.262	18967.09
512.465	19001.91
512.667	19266.1
512.87	19456.56
513.072	19468.84
513.274	19933.73
513.477	20003.36
513.679	20429.34
513.881	20619.8
514.084	20924.95
514.286	21025.3
514.488	21189.14
514.69	21963.27
514.893	21682.7
515.095	21826.06
515.297	22336
515.499	22209.03
515.701	22581.76
515.904	22862.33
516.106	22946.3
516.308	23407.09
516.51	23855.59
516.712	23728.62
516.914	24144.36
517.116	24699.36
517.318	24478.18
517.52	24728.03
517.722	24984.02
517.925	24932.82
518.127	25782.73
518.329	25829.84
518.531	25975.24
518.733	26261.96
518.935	26343.88
519.136	26538.43
519.338	26988.99
519.54	27236.79
519.742	27670.96
519.944	27533.75
520.146	27924.91
520.348	28047.79
520.55	28240.29
520.752	28504.48
520.954	29067.67
521.155	29002.14
521.357	29352.34
521.559	29432.21
521.761	30210.44
521.963	29991.31
522.164	29839.76
522.366	30439.81
522.568	30630.27
522.77	31267.19
522.971	31664.5
523.173	31226.23
523.375	31447.41
523.576	31484.28
523.778	31916.4
523.98	32016.75
524.181	32438.63
524.383	32448.87
524.584	32930.14
524.786	32960.86
524.988	32713.06
525.189	33284.44
525.391	33444.18
525.592	33712.47
525.794	34017.61
525.995	33698.13
526.197	34101.58
526.398	34281.8
526.6	34302.28
526.801	34697.54
527.003	34726.21
527.204	34404.68
527.406	35369.27
527.607	35045.69
527.808	35764.53
528.01	35092.8
528.211	35506.49
528.412	36272.43
528.614	35873.07
528.815	36006.19
529.016	36344.11
529.218	36051.25
529.419	36374.83
529.62	36092.21
529.822	36348.2
530.023	36235.56
530.224	36432.17
530.425	36151.6
530.626	36178.22
530.828	36055.34
531.029	37030.18
531.23	36727.08
531.431	36958.5
531.632	37075.23
531.833	36897.06
532.035	36811.04
532.236	37138.72
532.437	37355.8
532.638	36747.56
532.839	37642.52
533.04	36915.49
533.241	36981.03
533.442	37652.76
533.643	37660.95
533.844	37540.12
534.045	37585.18
534.246	37136.67
534.447	37830.93
534.648	37599.51
534.849	37648.66
535.05	37706.01
535.251	37945.62
535.451	37742.87
535.652	38002.96
535.853	37622.04
536.054	37681.43
536.255	38011.15
536.456	37667.09
536.657	38254.86
536.857	37693.72
537.058	37583.13
537.259	38275.34
537.46	37808.4
537.66	37804.31
537.861	37579.03
538.062	37693.72
538.263	37744.92
538.463	37243.17
538.664	37978.39
538.865	37855.51
539.065	38267.15
539.266	37632.28
539.466	38111.5
539.667	37572.89
539.868	38205.71
540.068	37951.76
540.269	37744.92
540.469	37937.43
540.67	37835.03
540.87	38111.5
541.071	37974.29
541.271	37951.76
541.472	37875.99
541.672	38109.46
541.873	37875.99
542.073	37454.11
542.274	38099.22
542.474	37921.04
542.675	37687.57
542.875	38119.7
543.075	37755.16
543.276	37560.6
543.476	38289.68
543.676	37761.3
543.877	38277.39
544.077	38037.78
544.277	37660.95
544.478	37943.57
544.678	37972.24
544.878	37792.02
545.078	38115.6
545.279	37859.6
545.479	37665.05
545.679	37841.17
545.879	38052.11
546.079	37882.13
546.28	37628.18
546.48	37615.9
546.68	37718.29
546.88	37939.47
547.08	37777.68
547.28	37849.36
547.48	37513.5
547.68	37658.9
547.88	37542.17
548.081	37818.64
548.281	37550.36
548.481	37521.69
548.681	38088.98
548.881	37720.34
549.081	37466.39
549.28	37525.78
549.48	37814.55
549.68	37767.45
549.88	38332.68
550.08	37599.51
550.28	37921.04
550.48	37511.45
550.68	37906.71
550.88	37652.76
551.08	37521.69
551.279	37550.36
551.479	37349.66
551.679	37568.79
551.879	37134.62
552.079	37654.81
552.278	37648.66
552.478	37765.4
552.678	37863.7
552.878	37681.43
553.077	37333.28
553.277	37126.43
553.477	38005.01
553.676	37112.1
553.876	37435.67
554.076	37288.22
554.275	37437.72
554.475	37130.53
554.674	37294.36
554.874	37503.26
555.074	37067.04
555.273	37288.22
555.473	37361.95
555.672	37060.9
555.872	37114.14
556.071	37116.19
556.271	37318.94
556.47	36675.88
556.67	36806.95
556.869	36817.19
557.068	36798.76
557.268	36940.07
557.467	36770.08
557.667	36739.36
557.866	36798.76
558.065	36497.7
558.265	36444.46
558.464	36356.39
558.663	36847.91
558.863	36583.72
559.062	36526.38
559.261	36469.03
559.461	36714.79
559.66	36129.07
559.859	36348.2
560.058	36053.3
560.258	36411.69
560.457	35699
560.656	36323.63
560.855	36041.01
561.054	36344.11
561.253	35975.47
561.453	35797.3
561.652	35879.22
561.851	36067.63
562.05	35635.51
562.249	35768.63
562.448	36055.34
562.647	35645.75
562.846	35645.75
563.045	35842.35
563.244	35055.93
563.443	35936.56
563.642	35043.65
563.841	35393.85
564.04	34799.94
564.239	35303.74
564.438	35045.69
564.637	35211.58
564.836	35350.84
565.035	34767.17
565.234	35094.85
565.432	34666.82
565.631	34847.04
565.83	34781.51
566.029	34793.79
566.228	34754.88
566.427	34431.3
566.625	34431.3
566.824	34085.2
567.023	34511.17
567.222	34120.01
567.42	34625.86
567.619	34285.9
567.818	33919.31
568.016	34146.64
568.215	34515.27
568.414	33769.81
568.612	34036.05
568.811	33810.77
569.01	33773.91
569.208	33585.49
569.407	33759.57
569.605	33024.35
569.804	33577.3
570.002	33198.43
570.201	33347.93
570.4	32848.22
570.598	33153.37
570.797	32495.97
570.995	32797.02
571.193	32508.26
571.392	32903.52
571.59	32403.81
571.789	32469.35
571.987	32485.73
572.186	32115.05
572.384	32391.53
572.582	32455.01
572.781	32225.64
572.979	31887.73
573.177	31906.16
573.376	31953.26
573.574	31699.31
573.772	31779.18
573.971	31762.8
574.169	31199.61
574.367	31426.93
574.565	31646.07
574.763	30984.57
574.962	31031.68
575.16	31084.92
575.358	31082.88
575.556	30667.14
575.754	31195.51
575.952	30732.67
576.151	30697.86
576.349	30134.67
576.547	30243.21
576.745	30710.14
576.943	30288.26
577.141	30308.74
577.339	30200.2
577.537	29837.71
577.735	30437.76
577.933	29684.11
578.131	29874.57
578.329	29669.78
578.527	29430.16
578.725	29622.67
578.923	29424.02
579.121	29469.08
579.319	29348.25
579.516	29325.72
579.714	29268.37
579.912	29237.66
580.11	28821.92
580.308	29077.91
580.506	28641.7
580.704	28223.91
580.901	28805.53
581.099	28838.3
581.297	28449.19
581.495	28588.45
581.692	28604.83
581.89	28146.09
582.088	28281.25
582.285	28137.9
582.483	28500.39
582.681	28121.51
582.878	28017.07
583.076	28058.03
583.274	28004.78
583.471	27750.83
583.669	27527.6
583.866	27560.37
584.064	27779.5
584.262	26982.84
584.459	27398.58
584.657	27423.15
584.854	27511.22
585.052	26993.08
585.249	27421.11
585.447	27165.11
585.644	26911.16
585.841	26491.33
586.039	26745.28
586.236	26276.29
586.434	26395.07
586.631	26644.93
586.828	26687.93
587.026	26520
587.223	25975.24
587.42	25950.67
587.618	26302.92
587.815	25856.46
588.012	25727.44
588.21	25762.25
588.407	26098.12
588.604	25584.08
588.801	25477.58
588.999	25590.22
589.196	25387.47
589.393	25477.58
589.59	25534.93
589.787	25321.94
589.984	25246.16
590.182	24758.75
590.379	25309.65
590.576	24967.64
590.773	25192.92
590.97	25067.99
591.167	24818.14
591.364	24302.05
591.561	24867.29
591.758	24570.33
591.955	24498.66
592.152	24584.67
592.349	24478.18
592.546	24404.45
592.743	24318.43
592.94	23669.23
593.137	24033.77
593.334	23933.42
593.531	23667.18
593.727	23785.96
593.924	23925.22
594.121	23757.29
594.318	23650.8
594.515	23425.52
594.712	23448.05
594.908	23460.34
595.105	23042.55
595.302	22872.57
595.499	23427.57
595.696	23382.51
595.892	23204.34
596.089	23196.15
596.286	22938.1
596.482	22819.32
596.679	23058.93
596.876	22958.58
597.072	22573.56
597.269	22616.57
597.466	22434.3
597.662	22528.51
597.859	22321.66
598.055	22297.09
598.252	22473.21
598.448	22333.95
598.645	22096.39
598.841	21961.22
599.038	21815.82
599.234	22102.53
599.431	21723.66
599.627	21785.1
599.824	22114.82
600.02	21551.63
600.217	21846.54
600.413	21500.43
600.609	21260.82
600.806	21549.58
601.002	21586.44
601.198	21248.53
601.395	21154.32
601.591	21037.59
601.787	21285.39
601.984	20931.09
602.18	21230.1
602.376	20806.17
602.572	20851.22
602.769	20959.77
602.965	20795.93
603.161	20795.93
603.357	20630.04
603.553	20482.59
603.75	20691.48
603.946	20363.81
604.142	20242.98
604.338	20128.29
604.534	20324.9
604.73	20187.68
604.926	20290.08
605.122	19989.03
605.318	19804.71
605.514	19837.48
605.71	19792.42
605.906	19548.72
606.102	19436.08
606.298	19761.7
606.494	19591.72
606.69	19558.95
606.886	19411.5
607.082	19370.54
607.278	19675.69
607.474	19051.06
607.67	19442.22
607.866	19081.78
608.062	18958.9
608.257	18991.67
608.453	18805.3
608.649	18793.01
608.845	18760.25
609.041	18752.06
609.236	18745.91
609.432	18668.09
609.628	18616.89
609.824	18614.84
610.019	18754.1
610.215	18516.54
610.411	18530.87
610.606	18268.73
610.802	18276.93
610.998	18551.35
611.193	18428.48
611.389	18289.21
611.584	18307.65
611.78	18033.22
611.976	18201.15
612.171	18244.16
612.367	18260.54
612.562	17771.08
612.758	17922.63
612.953	17678.92
613.149	18152
613.344	17504.84
613.539	17982.02
613.735	17537.61
613.93	17642.06
614.126	17562.19
614.321	17834.57
614.517	17603.14
614.712	17336.91
614.907	17599.05
615.103	17320.53
615.298	17175.12
615.493	17566.28
615.688	17060.43
615.884	17461.83
616.079	17054.29
616.274	17187.41
616.47	17060.43
616.665	17080.91
616.86	16890.45
617.055	16992.85
617.25	17082.96
617.445	16861.78
617.641	16923.22
617.836	16869.97
618.031	16478.81
618.226	16906.84
618.421	16378.46
618.616	16810.58
618.811	16366.17
619.006	16454.23
619.201	16120.42
619.396	16382.56
619.591	15987.3
619.786	16159.33
619.981	15893.09
620.176	16153.18
620.371	15600.23
620.566	15913.57
620.761	15610.47
620.956	15850.08
621.151	15704.68
621.346	15573.61
621.541	15327.85
621.735	15694.44
621.93	15262.32
622.125	15231.6
622.32	15051.38
622.515	15129.2
622.709	15090.29
622.904	15114.86
623.099	15100.53
623.294	15049.33
623.488	14572.15
623.683	14742.13
623.878	14637.69
624.072	14557.82
624.267	14346.87
624.462	14316.15
624.656	14197.37
624.851	14201.47
625.046	14080.64
625.24	14150.27
625.435	13808.26
625.629	13671.04
625.824	13843.07
626.018	13527.69
626.213	13496.97
626.407	13580.93
626.602	13464.2
626.796	13630.09
626.991	13306.51
627.185	13533.83
627.38	13150.86
627.574	13187.72
627.768	13210.25
627.963	12759.7
628.157	12769.94
628.352	12597.91
628.546	12825.23
628.74	12802.71
628.935	12583.57
629.129	12696.21
629.323	12255.9
629.517	12675.73
629.712	12450.46
629.906	12350.1
630.1	12180.12
630.294	12319.39
630.489	12047.01
630.683	12313.24
630.877	11780.77
631.071	11829.92
631.265	11903.65
631.459	11803.3
631.653	11877.02
631.848	11821.73
632.042	11573.92
632.236	11543.21
632.43	11532.97
632.624	11563.68
632.818	11684.52
633.012	11205.29
633.206	11367.08
633.4	11061.93
633.594	11016.88
633.788	11369.13
633.982	11037.36
634.176	10920.62
634.369	10914.48
634.563	10820.27
634.757	10891.95
634.951	10697.39
635.145	10814.13
635.339	10855.09
635.533	10654.39
635.726	10640.05
635.92	10504.89
636.114	10267.32
636.308	10363.58
636.501	10392.25
636.695	10412.73
636.889	10156.73
637.083	10056.38
637.276	10042.04
637.47	10023.61
637.664	10140.35
637.857	9968.32
638.051	10064.57
638.244	9970.37
638.438	9626.31
638.632	9810.62
638.825	9724.61
639.019	9562.82
639.212	9675.46
639.406	9616.07
639.599	9413.32
639.793	9472.71
639.986	9319.11
640.18	9202.38
640.373	9292.49
640.567	8995.53
640.76	9128.65
640.954	9104.07
641.147	9079.5
641.34	8966.86
641.534	8813.26
641.727	8973
641.92	8778.45
642.114	8764.11
642.307	8637.14
642.5	8563.41
642.694	8549.07
642.887	8428.24
643.08	8770.26
643.273	8555.22
643.467	8422.1
643.66	8399.57
643.853	8528.6
644.046	8278.74
644.239	8307.41
644.432	8162.01
644.626	8245.98
644.819	8149.72
645.012	8090.33
645.205	8002.27
645.398	7869.15
645.591	7967.45
645.784	7916.25
645.977	7846.62
646.17	7824.09
646.363	7482.08
646.556	7629.54
646.749	7586.53
646.942	7627.49
647.135	7412.45
647.328	7400.16
647.521	7445.22
647.714	7346.92
647.907	7363.3
648.099	7211.75
648.292	7385.83
648.485	7142.12
648.678	7338.73
648.871	7226.09
649.064	7107.3
649.256	7265
649.449	7074.54
649.642	6929.13
649.835	7013.1
650.027	6935.28
650.22	6718.19
650.413	6697.71
650.605	6898.41
650.798	6593.26
650.991	6806.25
651.183	6597.36
651.376	6556.4
651.568	6703.86
651.761	6419.19
651.954	6464.24
652.146	6574.83
652.339	6359.8
652.531	6419.19
652.724	6382.32
652.916	6322.93
653.109	6341.36
653.301	6234.87
653.494	6150.9
653.686	6034.17
653.879	6214.39
654.071	6021.88
654.263	5868.28
654.456	6095.61
654.648	6001.4
654.84	5782.27
655.033	5933.82
655.225	5913.34
655.417	5870.33
655.61	5612.29
655.802	5810.94
655.994	5772.03
656.186	5870.33
656.379	5663.49
656.571	5620.48
656.763	5470.98
656.955	5434.11
657.148	5538.56
657.34	5589.76
657.532	5487.36
657.724	5360.39
657.916	5391.11
658.108	5356.29
658.3	5368.58
658.492	5303.04
658.684	5313.28
658.876	5096.2
659.068	5214.98
659.26	5208.84
659.452	5137.16
659.644	5147.4
659.836	5055.24
660.028	5106.44
660.22	4858.64
660.412	4911.88
660.604	4934.41
660.796	4979.47
660.988	4848.4
661.18	4727.57
661.372	4725.52
661.563	4842.25
661.755	4815.63
661.947	4844.3
662.139	4776.72
662.331	4592.4
662.522	4623.12
662.714	4604.69
662.906	4569.87
663.097	4592.4
663.289	4414.23
663.481	4475.67
663.673	4416.27
663.864	4467.47
664.056	4287.25
664.247	4512.53
664.439	4477.71
664.631	4180.76
664.822	4344.6
665.014	4344.6
665.205	4246.29
665.397	4270.87
665.588	4254.48
665.78	4217.62
665.971	4201.24
666.163	3973.91
666.354	4123.41
666.546	4010.78
666.737	4086.55
666.929	3961.62
667.12	3963.67
667.311	4090.65
667.503	4045.59
667.694	3914.52
667.885	4002.58
668.077	3826.46
668.268	3932.95
668.459	3906.33
668.651	3887.9
668.842	3836.7
669.033	3703.58
669.224	3779.36
669.416	3691.29
669.607	3775.26
669.798	3799.84
669.989	3744.54
670.18	3775.26
670.371	3625.76
670.563	3617.57
670.754	3642.14
670.945	3609.37
671.136	3668.77
671.327	3615.52
671.518	3631.9
671.709	3476.26
671.9	3578.65
672.091	3474.21
672.282	3574.56
672.473	3545.89
672.664	3431.2
672.855	3423.01
673.046	3433.25
673.237	3412.77
673.428	3476.26
673.619	3484.45
673.809	3367.71
674	3437.34
674.191	3349.28
674.382	3349.28
674.573	3425.06
674.764	3351.33
674.954	3255.08
675.145	3271.46
675.336	3154.73
675.527	3291.94
675.717	3212.07
675.908	3187.49
676.099	3162.92
676.289	3253.03
676.48	3334.95
676.671	3107.62
676.861	3173.16
677.052	3134.25
677.243	3126.05
677.433	3044.13
677.624	3173.16
677.814	3119.91
678.005	3042.09
678.195	3111.72
678.386	3027.75
678.576	2968.36
678.767	3124.01
678.957	3025.7
679.148	3115.81
679.338	3160.87
679.529	2997.03
679.719	2935.59
679.909	3011.37
680.1	2790.19
680.29	3046.18
680.481	2917.16
680.671	2964.26
680.861	3078.95
681.052	2896.68
681.242	3005.22
681.432	2970.41
681.622	2855.72
681.813	2902.83
682.003	2939.69
682.193	2886.44
682.383	2898.73
682.573	2843.43
682.764	2818.86
682.954	2949.93
683.144	2794.28
683.334	2915.11
683.524	2790.19
683.714	2902.83
683.904	2689.84
684.094	2757.42
684.284	2728.75
684.474	2880.3
684.664	2855.72
684.854	2722.6
685.044	2804.52
685.234	2767.66
685.424	2794.28
685.614	2763.56
685.804	2788.14
685.994	2708.27
686.184	2769.71
686.374	2835.24
686.564	2747.18
686.753	2661.16
686.943	2612.01
687.133	2665.26
687.323	2569.01
687.513	2800.43
687.702	2695.98
687.892	2646.83
688.082	2614.06
688.272	2695.98
688.461	2622.25
688.651	2644.78
688.841	2728.75
689.03	2585.39
689.22	2661.16
689.41	2673.45
689.599	2605.87
689.789	2673.45
689.979	2609.97
690.168	2560.81
690.358	2470.7
690.547	2560.81
690.737	2589.49
690.926	2616.11
691.116	2489.14
691.305	2517.81
691.495	2476.85
691.684	2554.67
691.874	2470.7
692.063	2448.18
692.252	2489.14
692.442	2478.9
692.631	2444.08
692.82	2413.36
693.01	2581.29
693.199	2605.87
693.388	2452.27
693.578	2454.32
693.767	2544.43
693.956	2454.32
694.146	2415.41
694.335	2528.05
694.524	2456.37
694.713	2403.12
694.902	2466.61
695.092	2472.75
695.281	2558.77
695.47	2452.27
695.659	2349.87
695.848	2487.09
696.037	2548.53
696.226	2564.91
696.415	2509.62
696.604	2517.81
696.793	2433.84
696.982	2507.57
697.171	2450.22
697.36	2489.14
697.549	2474.8
697.738	2427.7
697.927	2468.66
698.116	2523.95
698.305	2327.35
698.494	2509.62
698.683	2439.98
698.872	2435.89
699.061	2558.77
699.25	2376.5
699.438	2493.23
699.627	2435.89
699.816	2509.62
700.005	2468.66
700.193	2538.29
700.382	2462.51
700.571	2458.42
700.76	2401.07
700.948	2394.93
701.137	2368.31
701.326	2417.46
701.514	2376.5
701.703	2362.16
701.892	2345.78
702.08	2409.26
702.269	2265.91
702.457	2313.01
702.646	2353.97
702.834	2333.49
703.023	2333.49
703.212	2306.87
703.4	2382.64
703.589	2337.59
703.777	2423.6
703.965	2390.83
704.154	2378.55
704.342	2341.68
704.531	2388.78
704.719	2251.57
704.907	2394.93
705.096	2374.45
705.284	2259.76
705.472	2253.62
705.661	2310.96
705.849	2253.62
706.037	2130.74
706.226	2198.32
706.414	2306.87
706.602	2218.8
706.79	2306.87
706.979	2222.9
707.167	2212.66
707.355	2247.48
707.543	2235.19
707.731	2227
707.919	2196.28
708.107	2243.38
708.296	2222.9
708.484	2175.8
708.672	2161.46
708.86	2063.16
709.048	2034.49
709.236	2186.04
709.424	2206.52
709.612	2181.94
709.8	2161.46
709.988	1944.38
710.176	2124.6
710.364	2183.99
710.551	2153.27
710.739	2097.97
710.927	2087.73
711.115	2106.17
711.303	2057.01
711.491	2079.54
711.679	2067.25
711.866	2028.34
712.054	1942.33
712.242	2104.12
712.43	2030.39
712.617	2048.82
712.805	1964.86
712.993	2067.25
713.181	1882.94
713.368	1977.14
713.556	1960.76
713.744	1903.42
713.931	1948.47
714.119	1917.75
714.306	1921.85
714.494	2005.81
714.682	1919.8
714.869	1876.79
715.057	1891.13
715.244	1923.9
715.432	1848.12
715.619	1868.6
715.807	1803.07
715.994	1893.18
716.182	1866.55
716.369	1784.63
716.556	1774.39
716.744	1792.83
716.931	1821.5
717.119	1801.02
717.306	1880.89
717.493	1846.07
717.681	1817.4
717.868	1661.76
718.055	1772.35
718.242	1807.16
718.43	1729.34
718.617	1801.02
718.804	1790.78
718.991	1696.57
719.179	1805.11
719.366	1645.37
719.553	1715
719.74	1760.06
719.927	1811.26
720.114	1592.13
720.301	1778.49
720.488	1680.19
720.676	1692.48
720.863	1690.43
721.05	1663.8
721.237	1712.96
721.424	1569.6
721.611	1579.84
721.798	1524.54
721.985	1641.28
722.172	1571.65
722.358	1553.21
722.545	1583.93
722.732	1596.22
722.919	1624.89
723.106	1534.78
723.293	1715
723.48	1532.73
723.667	1545.02
723.853	1594.17
724.04	1571.65
724.227	1676.09
724.414	1620.8
724.6	1516.35
724.787	1446.72
724.974	1444.67
725.161	1481.53
725.347	1479.49
725.534	1522.49
725.72	1645.37
725.907	1510.21
726.094	1502.01
726.28	1389.38
726.467	1493.82
726.653	1487.68
726.84	1375.04
727.027	1477.44
727.213	1370.94
727.4	1450.82
727.586	1598.27
727.773	1344.32
727.959	1493.82
728.145	1438.53
728.332	1504.06
728.518	1407.81
728.705	1450.82
728.891	1434.43
729.077	1352.51
729.264	1295.17
729.45	1364.8
729.636	1368.9
729.823	1260.35
730.009	1413.95
730.195	1358.66
730.382	1276.74
730.568	1399.62
730.754	1352.51
730.94	1342.27
731.126	1325.89
731.313	1362.75
731.499	1213.25
731.685	1342.27
731.871	1307.46
732.057	1315.65
732.243	1375.04
732.429	1272.64
732.615	1213.25
732.801	1395.52
732.987	1276.74
733.173	1329.99
733.359	1317.7
733.545	1301.31
733.731	1211.2
733.917	1299.27
734.103	1297.22
734.289	1366.85
734.475	1241.92
734.661	1397.57
734.847	1237.83
735.033	1180.48
735.219	1162.05
735.404	1327.94
735.59	1303.36
735.776	1155.91
735.962	1241.92
736.148	1227.59
736.333	1229.63
736.519	1246.02
736.705	1198.92
736.89	1180.48
737.076	1162.05
737.262	1080.13
737.447	1162.05
737.633	1112.9
737.819	1168.2
738.004	1139.52
738.19	1250.11
738.375	1082.18
738.561	1121.09
738.747	1162.05
738.932	1057.61
739.118	1157.96
739.303	1141.57
739.489	1108.8
739.674	987.97
739.859	1112.9
740.045	1086.28
740.23	1139.52
740.416	1071.94
740.601	1125.19
740.786	1010.5
740.972	1055.56
741.157	1059.65
741.342	1125.19
741.528	1088.32
741.713	1108.8
741.898	1082.18
742.084	1071.94
742.269	1041.22
742.454	1114.95
742.639	1037.13
742.824	1049.41
743.01	973.64
743.195	1063.75
743.38	1000.26
743.565	987.97
743.75	1082.18
743.935	1004.36
744.12	1065.8
744.305	1004.36
744.49	987.97
744.675	1018.69
744.86	1002.31
745.045	963.4
745.23	850.76
745.415	1022.79
745.6	947.01
745.785	895.82
745.97	940.87
746.155	932.68
746.34	1006.41
746.525	963.4
746.71	944.97
746.895	893.77
747.079	899.91
747.264	906.06
747.449	887.62
747.634	936.78
747.819	949.06
748.003	805.71
748.188	947.01
748.373	869.19
748.557	934.73
748.742	844.62
748.927	920.39
749.111	920.39
749.296	809.8
749.481	916.3
749.665	832.33
749.85	801.61
750.034	906.06
750.219	805.71
750.404	772.94
750.588	873.29
750.773	789.32
750.957	838.47
751.141	858.95
751.326	840.52
751.51	746.31
751.695	801.61
751.879	717.64
752.064	768.84
752.248	869.19
752.432	846.66
752.617	803.66
752.801	813.9
752.985	715.59
753.17	787.27
753.354	717.64
753.538	750.41
753.722	723.79
753.907	678.73
754.091	752.46
754.275	766.79
754.459	779.08
754.643	674.64
754.828	656.2
755.012	656.2
755.196	684.87
755.38	699.21
755.564	658.25
755.748	607.05
755.932	662.35
756.116	645.96
756.3	598.86
756.484	631.63
756.668	688.97
756.852	770.89
757.036	693.07
757.22	615.24
757.404	641.87
757.588	594.76
757.772	564.04
757.956	648.01
758.14	564.04
758.323	602.96
758.507	650.06
758.691	562
758.875	580.43
759.059	609.1
759.242	598.86
759.426	631.63
759.61	572.24
759.794	516.94
759.977	551.76
760.161	533.33
760.345	592.72
760.528	580.43
760.712	529.23
760.895	512.85
761.079	629.58
761.263	627.53
761.446	484.17
761.63	529.23
761.813	572.24
761.997	615.24
762.18	488.27
762.364	574.28
762.547	480.08
762.731	578.38
762.914	500.56
763.098	566.09
763.281	478.03
763.464	539.47
763.648	533.33
763.831	600.91
764.015	496.46
764.198	535.37
764.381	531.28
764.564	541.52
764.748	406.35
764.931	478.03
765.114	471.89
765.297	498.51
765.481	547.66
765.664	506.7
765.847	480.08
766.03	521.04
766.213	555.85
766.397	502.61
766.58	521.04
766.763	428.88
766.946	398.16
767.129	514.89
767.312	480.08
767.495	428.88
767.678	455.5
767.861	480.08
768.044	467.79
768.227	557.9
768.41	424.78
768.593	482.13
768.776	443.21
768.959	533.33
769.142	451.41
769.324	551.76
769.507	480.08
769.69	496.46
769.873	490.32
770.056	502.61
770.239	392.02
770.421	512.85
770.604	461.65
770.787	426.83
770.97	420.69
771.152	469.84
771.335	484.17
771.518	508.75
771.7	426.83
771.883	412.5
772.066	379.73
772.248	451.41
772.431	387.92
772.613	400.21
772.796	441.17
772.978	447.31
773.161	439.12
773.343	410.45
773.526	394.06
773.708	410.45
773.891	383.82
774.073	379.73
774.256	367.44
774.438	486.22
774.621	437.07
774.803	416.59
774.985	406.35
775.168	406.35
775.35	441.17
775.532	361.3
775.715	383.82
775.897	443.21
776.079	402.26
776.261	457.55
776.444	344.91
776.626	412.5
776.808	385.87
776.99	396.11
777.173	324.43
777.355	385.87
777.537	455.5
777.719	404.3
777.901	340.82
778.083	359.25
778.265	334.67
778.447	398.16
778.629	367.44
778.811	402.26
778.993	338.77
779.175	351.06
779.357	375.63
779.539	277.33
779.721	301.9
779.903	396.11
780.085	387.92
780.267	297.81
780.449	338.77
780.631	351.06
780.812	340.82
780.994	342.86
781.176	297.81
781.358	342.86
781.54	336.72
781.721	316.24
781.903	265.04
782.085	389.97
782.267	258.9
782.448	285.52
782.63	320.34
782.812	303.95
782.993	326.48
783.175	367.44
783.357	260.95
783.538	316.24
783.72	295.76
783.901	226.13
784.083	295.76
784.264	230.23
784.446	287.57
784.627	176.98
784.809	312.14
784.99	262.99
785.172	367.44
785.353	271.19
785.535	273.23
785.716	256.85
785.897	236.37
786.079	303.95
786.26	269.14
786.441	328.53
786.623	277.33
786.804	279.38
786.985	230.23
787.167	203.6
787.348	195.41
787.529	248.66
787.71	242.51
787.891	295.76
788.073	203.6
788.254	187.22
788.435	244.56
788.616	256.85
788.797	246.61
788.978	244.56
789.159	236.37
789.34	215.89
789.522	201.55
789.703	320.34
789.884	199.51
790.065	217.94
790.246	189.27
790.427	232.27
790.607	234.32
790.788	207.7
790.969	164.69
791.15	234.32
791.331	203.6
791.512	201.55
791.693	207.7
791.874	107.35
792.054	197.46
792.235	179.03
792.416	287.57
792.597	160.59
792.778	185.17
792.958	224.08
793.139	125.78
793.32	224.08
793.5	99.16
793.681	105.3
793.862	162.64
794.042	193.36
794.223	140.12
794.404	156.5
794.584	176.98
794.765	166.74
794.945	217.94
795.126	215.89
795.306	136.02
795.487	181.07
795.667	166.74
795.848	121.68
796.028	211.79
796.209	193.36
796.389	199.51
796.57	109.4
796.75	133.97
796.93	160.59
797.111	117.59
797.291	133.97
797.471	101.2
797.652	193.36
797.832	172.88
798.012	156.5
798.192	224.08
798.373	203.6
798.553	148.31
798.733	193.36
798.913	115.54
799.093	199.51
799.274	107.35
799.454	168.79
799.634	207.7
799.814	228.18
799.994	158.55
800.174	187.22
800.354	226.13
800.534	185.17
800.714	193.36
800.894	144.21
801.074	142.16
801.254	174.93
801.434	152.4
801.614	117.59
801.794	156.5
801.974	342.86
802.154	72.53
802.334	97.11
802.514	133.97
802.693	166.74
802.873	115.54
803.053	105.3
803.233	111.44
803.413	142.16
803.592	164.69
803.772	138.07
803.952	95.06
804.131	103.25
804.311	78.68
804.491	125.78
804.67	170.83
804.85	133.97
805.03	107.35
805.209	160.59
805.389	105.3
805.568	90.96
805.748	45.91
805.928	62.29
806.107	172.88
806.287	140.12
806.466	103.25
806.646	183.12
806.825	144.21
807.004	172.88
807.184	60.24
807.363	76.63
807.543	80.72
807.722	80.72
807.901	93.01
808.081	166.74
808.26	172.88
808.439	60.24
808.619	29.52
808.798	113.49
808.977	97.11
809.156	107.35
809.336	160.59
809.515	123.73
809.694	78.68
809.873	129.88
810.052	101.2
810.231	119.64
810.411	115.54
810.59	115.54
810.769	125.78
810.948	142.16
811.127	103.25
811.306	123.73
811.485	90.96
811.664	133.97
811.843	170.83
812.022	133.97
812.201	72.53
812.38	138.07
812.559	15.19
812.737	127.83
812.916	72.53
813.095	131.92
813.274	86.87
813.453	107.35
813.632	35.67
813.811	109.4
813.989	56.15
814.168	144.21
814.347	129.88
814.526	58.2
814.704	103.25
814.883	74.58
815.062	101.2
815.24	113.49
815.419	80.72
815.598	123.73
815.776	62.29
815.955	54.1
816.133	68.44
816.312	97.11
816.49	64.34
816.669	74.58
816.847	103.25
817.026	131.92
817.204	27.48
817.383	64.34
817.561	84.82
817.74	19.29
817.918	52.05
818.097	133.97
818.275	58.2
818.453	50
818.632	35.67
818.81	19.29
818.988	60.24
819.167	117.59
819.345	62.29
819.523	35.67
819.701	70.48
819.879	88.92
820.058	123.73
820.236	88.92
820.414	78.68
820.592	25.43
820.77	62.29
820.948	45.91
821.127	7
821.305	23.38
821.483	31.57
821.661	60.24
821.839	56.15
822.017	58.2
822.195	62.29
822.373	105.3
822.551	90.96
822.729	105.3
822.907	117.59
823.085	62.29
823.262	19.29
823.44	99.16
823.618	19.29
823.796	109.4
823.974	56.15
824.152	58.2
824.329	76.63
824.507	119.64
824.685	76.63
824.863	-7.34
825.04	37.72
825.218	37.72
825.396	70.48
825.574	70.48
825.751	17.24
825.929	80.72
826.107	-1.19
826.284	93.01
826.462	43.86
826.639	15.19
826.817	70.48
826.994	41.81
827.172	45.91
827.349	111.44
827.527	70.48
827.704	64.34
827.882	90.96
828.059	105.3
828.237	47.96
828.414	62.29
828.591	43.86
828.769	97.11
828.946	47.96
829.124	17.24
829.301	68.44
829.478	109.4
829.655	60.24
829.833	82.77
830.01	54.1
830.187	84.82
830.364	4.95
830.542	31.57
830.719	39.76
830.896	80.72
831.073	62.29
831.25	58.2
831.427	47.96
831.604	43.86
831.782	47.96
831.959	-3.24
832.136	-17.58
832.313	47.96
832.49	101.2
832.667	68.44
832.844	66.39
833.021	60.24
833.198	54.1
833.374	41.81
833.551	15.19
833.728	17.24
833.905	9.05
834.082	140.12
834.259	-33.96
834.436	78.68
834.612	39.76
834.789	23.38
834.966	41.81
835.143	9.05
835.319	11.09
835.496	68.44
835.673	47.96
835.85	31.57
836.026	2.9
836.203	54.1
836.38	27.48
836.556	31.57
836.733	37.72
836.909	15.19
837.086	27.48
837.262	50
837.439	45.91
837.616	29.52
837.792	84.82
837.968	43.86
838.145	72.53
838.321	58.2
838.498	95.06
838.674	-1.19
838.851	39.76
839.027	58.2
839.203	60.24
839.38	7
839.556	-21.67
839.732	-15.53
839.909	-11.43
840.085	11.09
840.261	29.52
840.437	-5.29
840.614	-15.53
840.79	43.86
840.966	99.16
841.142	80.72
841.318	76.63
841.494	62.29
841.671	78.68
841.847	43.86
842.023	101.2
842.199	93.01
842.375	37.72
842.551	56.15
842.727	45.91
842.903	70.48
843.079	17.24
843.255	43.86
843.431	4.95
843.607	41.81
843.783	47.96
843.959	0.85
844.134	29.52
844.31	19.29
844.486	-58.54
844.662	52.05
844.838	95.06
845.013	39.76
845.189	54.1
845.365	2.9
845.541	15.19
845.716	52.05
845.892	11.09
846.068	84.82
846.244	29.52
846.419	23.38
846.595	37.72
846.77	-52.39
846.946	-1.19
847.122	-29.87
847.297	66.39
847.473	113.49
847.648	-5.29
847.824	60.24
847.999	70.48
848.175	-23.72
848.35	19.29
848.526	41.81
848.701	25.43
848.876	27.48
849.052	50
849.227	43.86
849.403	50
849.578	62.29
849.753	19.29
849.929	4.95
850.104	17.24
850.279	-17.58
850.454	0.85
850.63	13.14
850.805	-44.2
850.98	-25.77
851.155	23.38
851.33	9.05
851.505	54.1
851.681	45.91
851.856	47.96
852.031	-25.77
852.206	86.87
852.381	2.9
852.556	-21.67
852.731	21.33
852.906	13.14
853.081	-13.48
853.256	-9.39
853.431	27.48
853.606	64.34
853.781	56.15
853.956	39.76
854.131	-50.35
854.305	9.05
854.48	-5.29
854.655	7
854.83	-23.72
855.005	80.72
855.18	43.86
855.354	101.2
855.529	33.62
855.704	-7.34
855.879	15.19
856.053	-29.87
856.228	31.57
856.403	29.52
856.577	58.2
856.752	60.24
856.926	2.9
857.101	11.09
857.276	47.96
857.45	31.57
857.625	88.92
857.799	31.57
857.974	0.85
858.148	-23.72
858.323	37.72
858.497	17.24
858.672	50
858.846	-38.06
859.02	31.57
859.195	-36.01
859.369	19.29
859.543	27.48
859.718	-7.34
859.892	-38.06
860.066	2.9
860.241	29.52
860.415	-27.82
860.589	7
860.763	15.19
860.938	35.67
861.112	-40.11
861.286	-29.87
861.46	15.19
861.634	-1.19
861.808	4.95
861.982	86.87
862.157	0.85
862.331	11.09
862.505	39.76
862.679	43.86
862.853	-7.34
863.027	-48.3
863.201	37.72
863.375	-25.77
863.549	27.48
863.722	39.76
863.896	82.77
864.07	-13.48
864.244	78.68
864.418	43.86
864.592	-3.24
864.766	7
864.939	39.76
865.113	58.2
865.287	111.44
865.461	33.62
865.634	23.38
865.808	-15.53
865.982	-23.72
866.156	-46.25
866.329	29.52
866.503	39.76
866.676	-48.3
866.85	-23.72
867.024	19.29
867.197	27.48
867.371	31.57
867.544	7
867.718	15.19
867.891	25.43
868.065	62.29
868.238	64.34
868.412	-17.58
868.585	29.52
868.759	33.62
868.932	11.09
869.105	-1.19
869.279	-29.87
869.452	-70.83
869.625	-31.91
869.799	0.85
869.972	-27.82
870.145	105.3
870.319	47.96
870.492	15.19
870.665	29.52
870.838	13.14
871.011	35.67
871.185	-40.11
871.358	-36.01
871.531	41.81
871.704	-1.19
871.877	-1.19
872.05	-25.77
872.223	2.9
872.396	-17.58
872.569	19.29
872.742	-17.58
872.915	62.29
873.088	66.39
873.261	4.95
873.434	25.43
873.607	-19.63
873.78	-21.67
873.953	17.24
874.126	4.95
874.299	-15.53
874.471	-13.48
874.644	70.48
874.817	43.86
874.99	4.95
875.163	50
875.335	-25.77
875.508	2.9
875.681	0.85
875.853	11.09
876.026	-52.39
876.199	13.14
876.371	19.29
876.544	29.52
876.717	-7.34
876.889	-9.39
877.062	45.91
877.234	-9.39
877.407	19.29
877.579	23.38
877.752	29.52
877.924	-11.43
878.097	-17.58
878.269	-21.67
878.442	-33.96
878.614	9.05
878.786	47.96
878.959	-40.11
879.131	0.85
879.303	13.14
879.476	45.91
879.648	68.44
879.82	-3.24
879.993	-3.24
880.165	-1.19
880.337	35.67
880.509	-36.01
880.681	15.19
880.854	9.05
881.026	54.1
881.198	-1.19
881.37	56.15
881.542	15.19
881.714	9.05
881.886	17.24
882.058	78.68
882.23	13.14
882.402	2.9
882.574	-48.3
882.746	-1.19
882.918	66.39
883.09	60.24
883.262	-54.44
883.434	37.72
883.606	-36.01
883.778	60.24
883.95	-9.39
884.122	-15.53
884.293	31.57
884.465	-13.48
884.637	21.33
884.809	-11.43
884.98	50
885.152	72.53
885.324	47.96
885.496	-25.77
885.667	-7.34
885.839	15.19
886.011	37.72
886.182	-36.01
886.354	0.85
886.525	-1.19
886.697	54.1
886.869	-50.35
887.04	41.81
887.212	15.19
887.383	29.52
887.555	47.96
887.726	-79.02
887.897	-25.77
888.069	-23.72
888.24	-72.87
888.412	64.34
888.583	15.19
888.754	56.15
888.926	19.29
889.097	33.62
889.268	-7.34
889.44	19.29
889.611	23.38
889.782	64.34
889.953	54.1
890.125	90.96
890.296	7
890.467	-17.58
890.638	-29.87
890.809	13.14
890.98	19.29
891.151	19.29
891.323	13.14
891.494	105.3
891.665	41.81
891.836	17.24
892.007	37.72
892.178	-15.53
892.349	37.72
892.52	68.44
892.691	50
892.862	-7.34
893.032	2.9
893.203	-44.2
893.374	4.95
893.545	-29.87
893.716	-9.39
893.887	0.85
894.057	-50.35
894.228	-13.48
894.399	-9.39
894.57	-1.19
894.74	-89.26
894.911	47.96
895.082	-25.77
895.253	7
895.423	-17.58
895.594	-3.24
895.764	39.76
895.935	-72.87
896.106	37.72
896.276	17.24
896.447	-15.53
896.617	64.34
896.788	0.85
896.958	-44.2
897.129	52.05
897.299	-15.53
897.47	11.09
897.64	29.52
897.81	23.38
897.981	39.76
898.151	-23.72
898.322	31.57
898.492	-1.19
898.662	2.9
898.832	39.76
899.003	27.48
899.173	-11.43
899.343	-9.39
899.513	21.33
